-1.217	0.0
-1.202	0.0
-1.187	0.0
-1.172	0.0
-1.157	0.0
-1.142	0.0
-1.128	0.0
-1.113	0.0
-1.098	0.0
-1.083	0.0
-1.068	0.0
-1.054	0.0
-1.039	0.0
-1.024	0.0
-1.009	0.0
-0.994	0.0
-0.979	0.0
-0.965	0.0
-0.95	0.0
-0.935	0.0
-0.92	0.0
-0.905	0.0
-0.891	0.0
-0.876	0.0
-0.861	0.0
-0.846	0.0
-0.831	0.0
-0.816	0.0
-0.802	0.0
-0.787	0.0
-0.772	0.0
-0.757	0.0
-0.742	0.0
-0.728	0.0
-0.713	0.0
-0.698	0.0
-0.683	0.0
-0.668	0.0
-0.653	0.0
-0.639	0.0
-0.624	0.0
-0.609	0.0
-0.594	0.0
-0.579	0.0
-0.565	0.0
-0.55	0.0
-0.535	0.0
-0.52	0.0
-0.505	0.0
-0.49	0.0
-0.476	0.0
-0.461	0.0
-0.446	0.0
-0.431	0.0
-0.416	0.0
-0.401	0.0
-0.387	0.0
-0.372	0.0
-0.357	0.0
-0.342	1.0
-0.327	0.0
-0.313	0.0
-0.298	0.0
-0.283	0.0
-0.268	0.0
-0.253	0.0
-0.238	0.0
-0.224	0.0
-0.209	0.0
-0.194	0.0
-0.179	0.0
-0.164	0.0
-0.15	0.0
-0.135	0.0
-0.12	0.0
-0.105	0.0
-0.09	0.0
-0.075	0.0
-0.061	0.0
-0.046	0.0
-0.031	0.0
-0.016	0.0
-0.001	0.0
0.013	0.0
0.028	0.0
0.043	0.0
0.058	0.0
0.073	0.0
0.088	0.0
0.102	0.0
0.117	0.0
0.132	0.0
0.147	0.0
0.162	0.0
0.176	0.0
0.191	0.0
0.206	0.0
0.221	0.0
0.236	0.0
0.251	0.0
0.265	0.0
0.28	0.0
0.295	0.0
0.31	0.0
0.325	0.0
0.339	0.0
0.354	0.0
0.369	0.0
0.384	0.0
0.399	0.0
0.414	0.0
0.428	1.0
0.443	0.0
0.458	0.0
0.473	0.0
0.488	0.0
0.502	0.0
0.517	0.0
0.532	0.0
0.547	0.0
0.562	0.0
0.577	0.0
0.591	0.0
0.606	0.0
0.621	0.0
0.636	0.0
0.651	0.0
0.665	0.0
0.68	0.0
0.695	0.0
0.71	0.0
0.725	0.0
0.74	0.0
0.754	0.0
0.769	0.0
0.784	0.0
0.799	0.0
0.814	0.0
0.828	0.0
0.843	0.0
0.858	0.0
0.873	0.0
0.888	0.0
0.903	0.0
0.917	0.0
0.932	0.0
0.947	0.0
0.962	0.0
0.977	0.0
0.991	0.0
1.006	0.0
1.021	1.0
1.036	0.0
1.051	0.0
1.065	0.0
1.08	0.0
1.095	0.0
1.11	0.0
1.125	0.0
1.14	0.0
1.154	0.0
1.169	0.0
1.184	0.0
1.199	0.0
1.214	0.0
1.228	0.0
1.243	0.0
1.258	0.0
1.273	0.0
1.288	0.0
1.302	0.0
1.317	0.0
1.332	0.0
1.347	1.0
1.362	0.0
1.376	0.0
1.391	1.0
1.406	0.0
1.421	0.0
1.436	0.0
1.45	0.0
1.465	0.0
1.48	0.0
1.495	0.0
1.51	0.0
1.524	0.0
1.539	0.0
1.554	0.0
1.569	0.0
1.584	1.0
1.598	0.0
1.613	0.0
1.628	0.0
1.643	0.0
1.658	0.0
1.672	0.0
1.687	0.0
1.702	0.0
1.717	0.0
1.732	0.0
1.746	0.0
1.761	0.0
1.776	0.0
1.791	0.0
1.806	1.0
1.82	0.0
1.835	0.0
1.85	0.0
1.865	0.0
1.88	0.0
1.894	0.0
1.909	1.0
1.924	0.0
1.939	0.0
1.954	0.0
1.968	0.0
1.983	0.0
1.998	0.0
2.013	1.0
2.028	0.0
2.042	1.0
2.057	0.0
2.072	0.0
2.087	0.0
2.101	0.0
2.116	0.0
2.131	0.0
2.146	0.0
2.161	0.0
2.175	1.0
2.19	1.0
2.205	0.0
2.22	0.0
2.235	0.0
2.249	1.0
2.264	0.0
2.279	0.0
2.294	1.0
2.308	1.0
2.323	3.0
2.338	0.0
2.353	0.0
2.368	1.0
2.382	3.0
2.397	0.0
2.412	2.0
2.427	3.0
2.442	3.0
2.456	2.0
2.471	3.0
2.486	2.0
2.501	1.0
2.515	1.0
2.53	0.0
2.545	0.0
2.56	1.0
2.575	4.0
2.589	1.0
2.604	2.0
2.619	4.0
2.634	1.0
2.649	3.0
2.663	3.0
2.678	1.0
2.693	3.0
2.708	3.0
2.722	2.0
2.737	5.0
2.752	2.0
2.767	1.0
2.782	1.0
2.796	0.0
2.811	4.0
2.826	3.0
2.841	2.0
2.856	4.0
2.87	3.0
2.885	1.0
2.9	3.0
2.915	2.0
2.93	3.0
2.944	5.0
2.959	3.0
2.974	1.0
2.989	6.0
3.004	2.0
3.018	1.0
3.033	4.0
3.048	10.0
3.063	5.0
3.078	2.0
3.092	0.0
3.107	7.0
3.122	4.0
3.137	3.0
3.152	2.0
3.166	3.0
3.181	2.0
3.196	6.0
3.211	9.0
3.226	3.0
3.24	4.0
3.255	6.0
3.27	3.0
3.285	4.0
3.3	4.0
3.315	2.0
3.329	5.0
3.344	2.0
3.359	1.0
3.374	2.0
3.389	4.0
3.403	5.0
3.418	12.0
3.433	4.0
3.448	4.0
3.463	6.0
3.478	3.0
3.492	5.0
3.507	5.0
3.522	6.0
3.537	7.0
3.552	3.0
3.567	10.0
3.581	2.0
3.596	4.0
3.611	6.0
3.626	4.0
3.641	8.0
3.656	5.0
3.671	7.0
3.685	11.0
3.7	10.0
3.715	4.0
3.73	6.0
3.745	9.0
3.76	3.0
3.775	9.0
3.789	7.0
3.804	4.0
3.819	11.0
3.834	6.0
3.849	6.0
3.864	7.0
3.879	3.0
3.894	7.0
3.908	7.0
3.923	9.0
3.938	6.0
3.953	6.0
3.968	5.0
3.983	13.0
3.998	3.0
4.013	9.0
4.027	4.0
4.042	5.0
4.057	9.0
4.072	7.0
4.087	3.0
4.102	5.0
4.117	6.0
4.132	5.0
4.147	6.0
4.162	4.0
4.176	4.0
4.191	7.0
4.206	7.0
4.221	6.0
4.236	10.0
4.251	8.0
4.266	8.0
4.281	12.0
4.296	11.0
4.311	7.0
4.326	5.0
4.341	8.0
4.356	7.0
4.37	9.0
4.385	5.0
4.4	6.0
4.415	8.0
4.43	7.0
4.445	8.0
4.46	4.0
4.475	8.0
4.49	4.0
4.505	6.0
4.52	7.0
4.535	6.0
4.55	9.0
4.565	6.0
4.58	3.0
4.595	8.0
4.61	8.0
4.625	6.0
4.639	8.0
4.654	8.0
4.669	12.0
4.684	5.0
4.699	4.0
4.714	9.0
4.729	4.0
4.744	8.0
4.759	5.0
4.774	14.0
4.789	7.0
4.804	4.0
4.819	4.0
4.834	5.0
4.849	7.0
4.864	5.0
4.879	7.0
4.894	5.0
4.909	10.0
4.924	10.0
4.939	6.0
4.954	8.0
4.969	6.0
4.984	5.0
4.999	8.0
5.014	9.0
5.029	4.0
5.044	6.0
5.059	7.0
5.074	12.0
5.089	6.0
5.104	5.0
5.119	5.0
5.134	7.0
5.149	11.0
5.164	11.0
5.179	11.0
5.194	7.0
5.209	9.0
5.224	10.0
5.239	7.0
5.254	11.0
5.269	6.0
5.284	5.0
5.299	8.0
5.314	9.0
5.329	7.0
5.344	15.0
5.359	9.0
5.374	14.0
5.389	4.0
5.404	9.0
5.419	5.0
5.434	12.0
5.449	11.0
5.464	7.0
5.479	10.0
5.494	4.0
5.509	9.0
5.524	7.0
5.539	5.0
5.554	8.0
5.569	4.0
5.584	4.0
5.599	8.0
5.614	7.0
5.629	11.0
5.644	4.0
5.659	8.0
5.674	9.0
5.689	5.0
5.704	8.0
5.719	15.0
5.734	10.0
5.749	8.0
5.764	13.0
5.779	7.0
5.794	10.0
5.809	5.0
5.824	8.0
5.839	8.0
5.854	10.0
5.869	10.0
5.884	8.0
5.899	12.0
5.914	13.0
5.929	10.0
5.944	9.0
5.959	12.0
5.974	6.0
5.989	15.0
6.004	8.0
6.019	6.0
6.034	6.0
6.049	4.0
6.064	4.0
6.079	9.0
6.094	6.0
6.109	10.0
6.124	7.0
6.139	11.0
6.154	12.0
6.169	8.0
6.184	6.0
6.199	12.0
6.214	3.0
6.229	14.0
6.244	11.0
6.259	8.0
6.274	7.0
6.289	13.0
6.304	6.0
6.319	12.0
6.334	6.0
6.349	14.0
6.364	6.0
6.379	12.0
6.394	8.0
6.409	8.0
6.424	9.0
6.439	13.0
6.454	9.0
6.469	11.0
6.484	18.0
6.499	7.0
6.514	7.0
6.529	9.0
6.544	12.0
6.559	9.0
6.574	6.0
6.589	9.0
6.604	9.0
6.619	9.0
6.634	7.0
6.649	7.0
6.664	13.0
6.679	7.0
6.694	10.0
6.709	12.0
6.724	11.0
6.739	9.0
6.754	16.0
6.769	7.0
6.784	11.0
6.799	10.0
6.814	8.0
6.829	11.0
6.844	6.0
6.859	10.0
6.873	7.0
6.888	9.0
6.903	7.0
6.918	9.0
6.933	14.0
6.948	8.0
6.963	7.0
6.978	5.0
6.993	8.0
7.008	8.0
7.023	10.0
7.038	7.0
7.053	8.0
7.068	9.0
7.083	10.0
7.098	12.0
7.113	11.0
7.128	11.0
7.143	7.0
7.157	11.0
7.172	12.0
7.187	9.0
7.202	6.0
7.217	7.0
7.232	12.0
7.247	20.0
7.262	8.0
7.277	9.0
7.292	9.0
7.307	13.0
7.322	9.0
7.336	7.0
7.351	14.0
7.366	12.0
7.381	6.0
7.396	7.0
7.411	7.0
7.426	12.0
7.441	6.0
7.456	14.0
7.471	8.0
7.485	6.0
7.5	17.0
7.515	10.0
7.53	9.0
7.545	8.0
7.56	8.0
7.575	6.0
7.59	9.0
7.604	11.0
7.619	14.0
7.634	7.0
7.649	9.0
7.664	10.0
7.679	8.0
7.693	7.0
7.708	7.0
7.723	6.0
7.738	8.0
7.753	12.0
7.768	9.0
7.783	9.0
7.797	12.0
7.812	9.0
7.827	12.0
7.842	7.0
7.857	10.0
7.871	6.0
7.886	11.0
7.901	11.0
7.916	10.0
7.931	11.0
7.945	11.0
7.96	8.0
7.975	9.0
7.99	6.0
8.005	9.0
8.019	8.0
8.034	13.0
8.049	11.0
8.064	6.0
8.078	9.0
8.093	9.0
8.108	13.0
8.123	7.0
8.137	12.0
8.152	10.0
8.167	11.0
8.182	11.0
8.196	12.0
8.211	6.0
8.226	8.0
8.241	4.0
8.255	9.0
8.27	4.0
8.285	2.0
8.3	8.0
8.314	7.0
8.329	6.0
8.344	9.0
8.358	4.0
8.373	5.0
8.388	6.0
8.403	9.0
8.417	8.0
8.432	8.0
8.447	7.0
8.461	11.0
8.476	9.0
8.491	8.0
8.505	10.0
8.52	10.0
8.535	12.0
8.55	9.0
8.564	7.0
8.579	8.0
8.594	5.0
8.608	11.0
8.623	8.0
8.638	16.0
8.652	10.0
8.667	10.0
8.682	5.0
8.696	12.0
8.711	6.0
8.726	6.0
8.74	8.0
8.755	8.0
8.77	5.0
8.784	10.0
8.799	7.0
8.814	6.0
8.828	6.0
8.843	10.0
8.858	12.0
8.872	7.0
8.887	8.0
8.902	10.0
8.916	9.0
8.931	8.0
8.946	11.0
8.96	12.0
8.975	5.0
8.99	5.0
9.004	9.0
9.019	8.0
9.034	12.0
9.048	10.0
9.063	8.0
9.077	6.0
9.092	8.0
9.107	9.0
9.121	7.0
9.136	8.0
9.151	8.0
9.165	5.0
9.18	6.0
9.195	10.0
9.209	9.0
9.224	11.0
9.239	8.0
9.253	6.0
9.268	3.0
9.283	4.0
9.297	4.0
9.312	6.0
9.327	4.0
9.341	11.0
9.356	8.0
9.371	8.0
9.385	9.0
9.4	12.0
9.415	9.0
9.429	8.0
9.444	8.0
9.458	6.0
9.473	10.0
9.488	16.0
9.502	5.0
9.517	9.0
9.532	4.0
9.546	7.0
9.561	13.0
9.576	11.0
9.59	13.0
9.605	11.0
9.62	6.0
9.635	12.0
9.649	6.0
9.664	5.0
9.679	1.0
9.693	6.0
9.708	7.0
9.723	9.0
9.737	10.0
9.752	11.0
9.767	10.0
9.781	8.0
9.796	9.0
9.811	8.0
9.825	6.0
9.84	8.0
9.855	11.0
9.87	6.0
9.884	11.0
9.899	9.0
9.914	10.0
9.928	8.0
9.943	9.0
9.958	2.0
9.973	7.0
9.987	11.0
10.002	6.0
10.017	7.0
10.031	7.0
10.046	19.0
10.061	7.0
10.076	7.0
10.09	10.0
10.105	5.0
10.12	11.0
10.135	7.0
10.149	4.0
10.164	7.0
10.179	4.0
10.194	8.0
10.208	12.0
10.223	9.0
10.238	6.0
10.253	9.0
10.267	9.0
10.282	9.0
10.297	10.0
10.312	9.0
10.326	7.0
10.341	5.0
10.356	11.0
10.371	7.0
10.386	10.0
10.4	7.0
10.415	14.0
10.43	8.0
10.445	6.0
10.46	9.0
10.474	9.0
10.489	9.0
10.504	8.0
10.519	2.0
10.533	6.0
10.548	2.0
10.563	10.0
10.578	7.0
10.593	8.0
10.608	8.0
10.622	8.0
10.637	6.0
10.652	6.0
10.667	9.0
10.682	12.0
10.696	8.0
10.711	15.0
10.726	9.0
10.741	9.0
10.756	8.0
10.771	9.0
10.785	10.0
10.8	12.0
10.815	10.0
10.83	4.0
10.845	3.0
10.86	7.0
10.874	9.0
10.889	8.0
10.904	9.0
10.919	6.0
10.934	12.0
10.949	10.0
10.963	3.0
10.978	4.0
10.993	9.0
11.008	3.0
11.023	9.0
11.038	10.0
11.053	7.0
11.067	7.0
11.082	6.0
11.097	8.0
11.112	15.0
11.127	6.0
11.142	11.0
11.157	10.0
11.172	13.0
11.186	10.0
11.201	6.0
11.216	7.0
11.231	4.0
11.246	15.0
11.261	6.0
11.276	8.0
11.291	11.0
11.305	11.0
11.32	9.0
11.335	3.0
11.35	12.0
11.365	10.0
11.38	8.0
11.395	8.0
11.41	7.0
11.424	10.0
11.439	6.0
11.454	8.0
11.469	7.0
11.484	12.0
11.499	11.0
11.514	7.0
11.529	3.0
11.544	10.0
11.558	6.0
11.573	11.0
11.588	4.0
11.603	10.0
11.618	2.0
11.633	12.0
11.648	4.0
11.663	7.0
11.678	3.0
11.693	5.0
11.707	7.0
11.722	7.0
11.737	7.0
11.752	11.0
11.767	5.0
11.782	7.0
11.797	6.0
11.812	8.0
11.827	7.0
11.842	11.0
11.856	10.0
11.871	5.0
11.886	4.0
11.901	10.0
11.916	8.0
11.931	13.0
11.946	6.0
11.961	14.0
11.976	10.0
11.991	13.0
12.006	12.0
12.02	9.0
12.035	10.0
12.05	13.0
12.065	10.0
12.08	9.0
12.095	10.0
12.11	14.0
12.125	8.0
12.14	15.0
12.155	7.0
12.17	8.0
12.184	12.0
12.199	11.0
12.214	6.0
12.229	8.0
12.244	12.0
12.259	16.0
12.274	13.0
12.289	11.0
12.304	4.0
12.319	8.0
12.334	13.0
12.348	11.0
12.363	6.0
12.378	12.0
12.393	18.0
12.408	13.0
12.423	10.0
12.438	9.0
12.453	15.0
12.468	15.0
12.483	15.0
12.498	9.0
12.513	14.0
12.527	11.0
12.542	17.0
12.557	10.0
12.572	13.0
12.587	9.0
12.602	13.0
12.617	10.0
12.632	14.0
12.647	10.0
12.662	4.0
12.677	18.0
12.692	9.0
12.707	11.0
12.721	15.0
12.736	18.0
12.751	9.0
12.766	13.0
12.781	12.0
12.796	25.0
12.811	12.0
12.826	11.0
12.841	13.0
12.856	14.0
12.871	23.0
12.886	8.0
12.9	22.0
12.915	8.0
12.93	9.0
12.945	17.0
12.96	13.0
12.975	16.0
12.99	12.0
13.005	15.0
13.02	15.0
13.035	11.0
13.05	12.0
13.065	16.0
13.08	16.0
13.094	15.0
13.109	21.0
13.124	18.0
13.139	23.0
13.154	13.0
13.169	16.0
13.184	14.0
13.199	14.0
13.214	16.0
13.229	12.0
13.244	26.0
13.259	16.0
13.274	13.0
13.288	23.0
13.303	18.0
13.318	20.0
13.333	18.0
13.348	23.0
13.363	26.0
13.378	26.0
13.393	18.0
13.408	18.0
13.423	22.0
13.438	22.0
13.453	19.0
13.468	21.0
13.482	31.0
13.497	41.0
13.512	34.0
13.527	45.0
13.542	32.0
13.557	41.0
13.572	47.0
13.587	63.0
13.602	54.0
13.617	60.0
13.632	65.0
13.647	78.0
13.662	70.0
13.677	80.0
13.691	103.0
13.706	102.0
13.721	94.0
13.736	115.0
13.751	114.0
13.766	112.0
13.781	105.0
13.796	142.0
13.811	145.0
13.826	116.0
13.841	130.0
13.856	133.0
13.871	127.0
13.885	114.0
13.9	81.0
13.915	85.0
13.93	83.0
13.945	65.0
13.96	43.0
13.975	42.0
13.99	35.0
14.005	26.0
14.02	23.0
14.035	26.0
14.05	30.0
14.065	25.0
14.08	21.0
14.094	30.0
14.109	18.0
14.124	17.0
14.139	23.0
14.154	26.0
14.169	24.0
14.184	21.0
14.199	23.0
14.214	19.0
14.229	20.0
14.244	22.0
14.259	23.0
14.274	17.0
14.288	24.0
14.303	16.0
14.318	22.0
14.333	18.0
14.348	31.0
14.363	18.0
14.378	26.0
14.393	25.0
14.408	27.0
14.423	11.0
14.438	19.0
14.453	14.0
14.468	25.0
14.482	10.0
14.497	18.0
14.512	17.0
14.527	19.0
14.542	19.0
14.557	24.0
14.572	21.0
14.587	16.0
14.602	19.0
14.617	15.0
14.632	17.0
14.647	15.0
14.661	19.0
14.676	14.0
14.691	11.0
14.706	18.0
14.721	13.0
14.736	16.0
14.751	18.0
14.766	14.0
14.781	19.0
14.796	17.0
14.811	20.0
14.826	10.0
14.84	17.0
14.855	13.0
14.87	14.0
14.885	21.0
14.9	9.0
14.915	15.0
14.93	17.0
14.945	18.0
14.96	18.0
14.975	22.0
14.989	13.0
15.004	14.0
15.019	11.0
15.034	18.0
15.049	24.0
15.064	14.0
15.079	20.0
15.094	15.0
15.109	14.0
15.124	14.0
15.138	12.0
15.153	14.0
15.168	12.0
15.183	10.0
15.198	16.0
15.213	17.0
15.228	17.0
15.243	13.0
15.258	12.0
15.272	21.0
15.287	22.0
15.302	17.0
15.317	20.0
15.332	8.0
15.347	12.0
15.362	12.0
15.377	7.0
15.391	13.0
15.406	15.0
15.421	12.0
15.436	14.0
15.451	9.0
15.466	16.0
15.481	19.0
15.496	9.0
15.51	18.0
15.525	16.0
15.54	14.0
15.555	12.0
15.57	15.0
15.585	12.0
15.6	16.0
15.614	11.0
15.629	19.0
15.644	11.0
15.659	12.0
15.674	13.0
15.689	12.0
15.704	12.0
15.718	11.0
15.733	15.0
15.748	15.0
15.763	12.0
15.778	11.0
15.793	7.0
15.808	21.0
15.822	18.0
15.837	9.0
15.852	17.0
15.867	14.0
15.882	13.0
15.897	12.0
15.911	13.0
15.926	14.0
15.941	20.0
15.956	12.0
15.971	15.0
15.986	11.0
16.0	19.0
16.015	16.0
16.03	11.0
16.045	25.0
16.06	14.0
16.074	12.0
16.089	15.0
16.104	14.0
16.119	12.0
16.134	13.0
16.149	14.0
16.163	14.0
16.178	19.0
16.193	8.0
16.208	13.0
16.223	17.0
16.237	12.0
16.252	6.0
16.267	16.0
16.282	12.0
16.297	14.0
16.311	15.0
16.326	13.0
16.341	16.0
16.356	18.0
16.37	14.0
16.385	15.0
16.4	16.0
16.415	10.0
16.43	12.0
16.444	16.0
16.459	17.0
16.474	18.0
16.489	17.0
16.504	20.0
16.518	7.0
16.533	10.0
16.548	13.0
16.563	12.0
16.577	17.0
16.592	13.0
16.607	17.0
16.622	25.0
16.637	17.0
16.651	22.0
16.666	27.0
16.681	23.0
16.696	20.0
16.71	23.0
16.725	37.0
16.74	29.0
16.755	27.0
16.77	37.0
16.784	35.0
16.799	28.0
16.814	47.0
16.829	35.0
16.843	53.0
16.858	65.0
16.873	60.0
16.888	67.0
16.902	65.0
16.917	82.0
16.932	87.0
16.947	88.0
16.961	77.0
16.976	62.0
16.991	63.0
17.006	67.0
17.021	67.0
17.035	68.0
17.05	51.0
17.065	37.0
17.08	37.0
17.094	26.0
17.109	31.0
17.124	29.0
17.139	23.0
17.153	12.0
17.168	25.0
17.183	18.0
17.198	21.0
17.212	23.0
17.227	11.0
17.242	13.0
17.257	20.0
17.271	23.0
17.286	9.0
17.301	14.0
17.316	17.0
17.33	17.0
17.345	14.0
17.36	14.0
17.375	13.0
17.39	9.0
17.404	15.0
17.419	19.0
17.434	19.0
17.449	14.0
17.463	16.0
17.478	11.0
17.493	12.0
17.508	18.0
17.522	17.0
17.537	13.0
17.552	16.0
17.567	11.0
17.581	16.0
17.596	12.0
17.611	13.0
17.626	18.0
17.641	16.0
17.655	9.0
17.67	13.0
17.685	11.0
17.7	15.0
17.714	9.0
17.729	18.0
17.744	17.0
17.759	13.0
17.773	14.0
17.788	12.0
17.803	11.0
17.818	16.0
17.833	11.0
17.847	15.0
17.862	9.0
17.877	13.0
17.892	17.0
17.906	8.0
17.921	17.0
17.936	9.0
17.951	10.0
17.966	9.0
17.98	17.0
17.995	12.0
18.01	11.0
18.025	14.0
18.04	14.0
18.054	12.0
18.069	7.0
18.084	10.0
18.099	11.0
18.114	13.0
18.128	12.0
18.143	15.0
18.158	14.0
18.173	9.0
18.188	10.0
18.202	9.0
18.217	15.0
18.232	9.0
18.247	10.0
18.262	15.0
18.276	12.0
18.291	14.0
18.306	12.0
18.321	12.0
18.336	11.0
18.35	15.0
18.365	9.0
18.38	14.0
18.395	11.0
18.41	9.0
18.424	17.0
18.439	9.0
18.454	17.0
18.469	6.0
18.484	13.0
18.498	14.0
18.513	17.0
18.528	14.0
18.543	7.0
18.558	6.0
18.573	7.0
18.587	12.0
18.602	18.0
18.617	8.0
18.632	18.0
18.647	10.0
18.661	14.0
18.676	16.0
18.691	13.0
18.706	11.0
18.721	14.0
18.736	16.0
18.75	9.0
18.765	5.0
18.78	13.0
18.795	11.0
18.81	21.0
18.825	8.0
18.839	7.0
18.854	12.0
18.869	11.0
18.884	15.0
18.899	15.0
18.913	13.0
18.928	9.0
18.943	13.0
18.958	12.0
18.973	7.0
18.988	8.0
19.002	8.0
19.017	9.0
19.032	9.0
19.047	13.0
19.062	11.0
19.077	13.0
19.091	19.0
19.106	11.0
19.121	15.0
19.136	15.0
19.151	11.0
19.165	16.0
19.18	11.0
19.195	9.0
19.21	9.0
19.225	10.0
19.24	10.0
19.254	12.0
19.269	18.0
19.284	7.0
19.299	11.0
19.314	19.0
19.329	14.0
19.343	15.0
19.358	12.0
19.373	13.0
19.388	11.0
19.403	22.0
19.417	13.0
19.432	16.0
19.447	22.0
19.462	19.0
19.477	27.0
19.492	35.0
19.506	35.0
19.521	32.0
19.536	33.0
19.551	43.0
19.566	53.0
19.58	40.0
19.595	50.0
19.61	45.0
19.625	36.0
19.64	41.0
19.655	30.0
19.669	42.0
19.684	30.0
19.699	31.0
19.714	17.0
19.729	27.0
19.743	30.0
19.758	19.0
19.773	27.0
19.788	21.0
19.803	15.0
19.817	17.0
19.832	15.0
19.847	9.0
19.862	16.0
19.877	2.0
19.891	13.0
19.906	9.0
19.921	16.0
19.936	11.0
19.951	11.0
19.965	16.0
19.98	13.0
19.995	12.0
20.01	15.0
20.025	8.0
20.039	13.0
20.054	14.0
20.069	8.0
20.084	11.0
20.099	14.0
20.113	14.0
20.128	11.0
20.143	12.0
20.158	13.0
20.173	17.0
20.187	13.0
20.202	11.0
20.217	13.0
20.232	11.0
20.246	11.0
20.261	8.0
20.276	13.0
20.291	13.0
20.306	14.0
20.32	12.0
20.335	14.0
20.35	13.0
20.365	8.0
20.38	8.0
20.394	14.0
20.409	8.0
20.424	7.0
20.439	15.0
20.453	6.0
20.468	12.0
20.483	10.0
20.498	11.0
20.513	13.0
20.527	8.0
20.542	7.0
20.557	11.0
20.572	13.0
20.586	10.0
20.601	4.0
20.616	11.0
20.631	12.0
20.646	11.0
20.66	12.0
20.675	12.0
20.69	4.0
20.705	9.0
20.719	13.0
20.734	9.0
20.749	12.0
20.764	11.0
20.779	9.0
20.793	13.0
20.808	16.0
20.823	11.0
20.838	10.0
20.853	14.0
20.867	11.0
20.882	8.0
20.897	12.0
20.912	7.0
20.926	11.0
20.941	21.0
20.956	10.0
20.971	13.0
20.986	13.0
21.0	12.0
21.015	7.0
21.03	8.0
21.045	19.0
21.06	7.0
21.074	11.0
21.089	14.0
21.104	13.0
21.119	12.0
21.134	8.0
21.148	6.0
21.163	13.0
21.178	7.0
21.193	16.0
21.208	14.0
21.222	7.0
21.237	8.0
21.252	13.0
21.267	8.0
21.282	11.0
21.296	12.0
21.311	13.0
21.326	8.0
21.341	14.0
21.356	12.0
21.37	9.0
21.385	10.0
21.4	12.0
21.415	11.0
21.43	9.0
21.444	15.0
21.459	13.0
21.474	15.0
21.489	10.0
21.504	8.0
21.519	16.0
21.533	20.0
21.548	7.0
21.563	9.0
21.578	13.0
21.593	17.0
21.608	18.0
21.622	19.0
21.637	15.0
21.652	16.0
21.667	12.0
21.682	18.0
21.697	20.0
21.712	14.0
21.726	32.0
21.741	24.0
21.756	23.0
21.771	25.0
21.786	36.0
21.801	35.0
21.816	35.0
21.83	55.0
21.845	61.0
21.86	46.0
21.875	65.0
21.89	85.0
21.905	59.0
21.92	87.0
21.935	74.0
21.949	68.0
21.964	79.0
21.979	80.0
21.994	67.0
22.009	76.0
22.024	61.0
22.039	63.0
22.054	54.0
22.069	56.0
22.083	35.0
22.098	45.0
22.113	33.0
22.128	37.0
22.143	19.0
22.158	26.0
22.173	29.0
22.188	12.0
22.203	17.0
22.218	10.0
22.233	11.0
22.248	19.0
22.262	14.0
22.277	19.0
22.292	14.0
22.307	15.0
22.322	9.0
22.337	17.0
22.352	11.0
22.367	12.0
22.382	14.0
22.397	17.0
22.412	17.0
22.427	14.0
22.442	7.0
22.457	12.0
22.472	10.0
22.487	9.0
22.502	14.0
22.516	8.0
22.531	15.0
22.546	9.0
22.561	16.0
22.576	17.0
22.591	16.0
22.606	12.0
22.621	9.0
22.636	9.0
22.651	9.0
22.666	5.0
22.681	10.0
22.696	15.0
22.711	9.0
22.726	20.0
22.741	12.0
22.756	8.0
22.771	15.0
22.786	13.0
22.801	12.0
22.816	9.0
22.831	5.0
22.846	12.0
22.861	13.0
22.876	15.0
22.891	14.0
22.906	9.0
22.92	14.0
22.935	7.0
22.95	7.0
22.965	13.0
22.98	9.0
22.995	16.0
23.01	12.0
23.025	22.0
23.04	12.0
23.055	10.0
23.07	13.0
23.085	9.0
23.1	10.0
23.115	10.0
23.13	10.0
23.145	9.0
23.16	10.0
23.175	12.0
23.19	5.0
23.205	7.0
23.22	3.0
23.235	5.0
23.25	13.0
23.265	12.0
23.28	13.0
23.295	9.0
23.31	5.0
23.325	16.0
23.34	9.0
23.355	11.0
23.37	10.0
23.384	9.0
23.399	10.0
23.414	10.0
23.429	17.0
23.444	5.0
23.459	9.0
23.474	9.0
23.489	9.0
23.504	10.0
23.519	14.0
23.534	9.0
23.549	7.0
23.564	12.0
23.579	8.0
23.594	6.0
23.609	9.0
23.624	12.0
23.639	6.0
23.654	11.0
23.668	12.0
23.683	14.0
23.698	14.0
23.713	12.0
23.728	8.0
23.743	16.0
23.758	13.0
23.773	11.0
23.788	10.0
23.803	13.0
23.818	19.0
23.833	9.0
23.848	9.0
23.862	20.0
23.877	14.0
23.892	28.0
23.907	23.0
23.922	23.0
23.937	28.0
23.952	31.0
23.967	38.0
23.982	34.0
23.997	30.0
24.011	48.0
24.026	43.0
24.041	42.0
24.056	47.0
24.071	56.0
24.086	62.0
24.101	53.0
24.116	53.0
24.131	55.0
24.145	49.0
24.16	54.0
24.175	36.0
24.19	33.0
24.205	31.0
24.22	31.0
24.235	33.0
24.249	27.0
24.264	22.0
24.279	24.0
24.294	16.0
24.309	24.0
24.324	15.0
24.338	14.0
24.353	17.0
24.368	19.0
24.383	7.0
24.398	20.0
24.413	14.0
24.428	12.0
24.442	14.0
24.457	12.0
24.472	12.0
24.487	12.0
24.502	14.0
24.516	10.0
24.531	15.0
24.546	7.0
24.561	8.0
24.576	15.0
24.591	10.0
24.605	5.0
24.62	6.0
24.635	18.0
24.65	7.0
24.665	9.0
24.679	7.0
24.694	14.0
24.709	13.0
24.724	11.0
24.739	10.0
24.753	6.0
24.768	10.0
24.783	10.0
24.798	13.0
24.813	16.0
24.827	12.0
24.842	5.0
24.857	15.0
24.872	6.0
24.886	5.0
24.901	5.0
24.916	11.0
24.931	12.0
24.946	13.0
24.96	12.0
24.975	11.0
24.99	12.0
25.005	9.0
25.019	16.0
25.034	14.0
25.049	9.0
25.064	8.0
25.078	13.0
25.093	7.0
25.108	7.0
25.123	12.0
25.138	11.0
25.152	10.0
25.167	12.0
25.182	7.0
25.197	16.0
25.211	6.0
25.226	9.0
25.241	9.0
25.256	11.0
25.27	8.0
25.285	7.0
25.3	4.0
25.315	8.0
25.329	10.0
25.344	17.0
25.359	12.0
25.374	8.0
25.388	7.0
25.403	11.0
25.418	10.0
25.433	9.0
25.447	7.0
25.462	6.0
25.477	10.0
25.492	12.0
25.506	11.0
25.521	10.0
25.536	6.0
25.55	11.0
25.565	6.0
25.58	7.0
25.595	16.0
25.609	9.0
25.624	6.0
25.639	14.0
25.654	8.0
25.668	8.0
25.683	7.0
25.698	7.0
25.713	11.0
25.727	12.0
25.742	8.0
25.757	10.0
25.772	9.0
25.786	5.0
25.801	7.0
25.816	7.0
25.83	5.0
25.845	12.0
25.86	10.0
25.875	8.0
25.889	8.0
25.904	17.0
25.919	10.0
25.934	8.0
25.948	6.0
25.963	14.0
25.978	8.0
25.992	10.0
26.007	11.0
26.022	9.0
26.037	18.0
26.051	10.0
26.066	13.0
26.081	18.0
26.096	9.0
26.11	13.0
26.125	11.0
26.14	11.0
26.155	10.0
26.169	17.0
26.184	7.0
26.199	12.0
26.213	9.0
26.228	14.0
26.243	9.0
26.258	8.0
26.272	13.0
26.287	11.0
26.302	7.0
26.317	9.0
26.331	8.0
26.346	8.0
26.361	10.0
26.376	10.0
26.39	12.0
26.405	9.0
26.42	10.0
26.434	8.0
26.449	9.0
26.464	13.0
26.479	7.0
26.493	8.0
26.508	15.0
26.523	10.0
26.538	13.0
26.552	7.0
26.567	14.0
26.582	7.0
26.597	8.0
26.611	8.0
26.626	13.0
26.641	7.0
26.656	8.0
26.67	7.0
26.685	7.0
26.7	4.0
26.715	13.0
26.729	8.0
26.744	6.0
26.759	7.0
26.773	8.0
26.788	15.0
26.803	3.0
26.818	14.0
26.832	11.0
26.847	11.0
26.862	14.0
26.877	4.0
26.891	9.0
26.906	6.0
26.921	12.0
26.936	8.0
26.95	8.0
26.965	6.0
26.98	15.0
26.995	9.0
27.01	7.0
27.024	9.0
27.039	11.0
27.054	16.0
27.069	6.0
27.083	10.0
27.098	10.0
27.113	7.0
27.128	7.0
27.142	12.0
27.157	14.0
27.172	7.0
27.187	6.0
27.201	11.0
27.216	11.0
27.231	9.0
27.246	10.0
27.261	10.0
27.275	15.0
27.29	4.0
27.305	10.0
27.32	6.0
27.334	7.0
27.349	14.0
27.364	4.0
27.379	12.0
27.394	5.0
27.408	12.0
27.423	6.0
27.438	10.0
27.453	16.0
27.467	14.0
27.482	12.0
27.497	13.0
27.512	7.0
27.527	12.0
27.541	14.0
27.556	8.0
27.571	7.0
27.586	12.0
27.601	10.0
27.615	11.0
27.63	16.0
27.645	11.0
27.66	12.0
27.675	13.0
27.689	11.0
27.704	7.0
27.719	7.0
27.734	8.0
27.749	13.0
27.763	27.0
27.778	23.0
27.793	22.0
27.808	24.0
27.823	21.0
27.838	19.0
27.852	35.0
27.867	22.0
27.882	27.0
27.897	18.0
27.912	24.0
27.926	21.0
27.941	20.0
27.956	20.0
27.971	14.0
27.986	17.0
28.001	20.0
28.015	22.0
28.03	17.0
28.045	13.0
28.06	14.0
28.075	18.0
28.09	16.0
28.105	15.0
28.119	9.0
28.134	12.0
28.149	13.0
28.164	8.0
28.179	11.0
28.194	13.0
28.208	8.0
28.223	8.0
28.238	12.0
28.253	10.0
28.268	16.0
28.283	7.0
28.298	15.0
28.312	5.0
28.327	11.0
28.342	10.0
28.357	9.0
28.372	14.0
28.387	10.0
28.402	7.0
28.417	11.0
28.431	11.0
28.446	14.0
28.461	9.0
28.476	14.0
28.491	10.0
28.506	8.0
28.521	11.0
28.536	15.0
28.55	10.0
28.565	15.0
28.58	15.0
28.595	9.0
28.61	15.0
28.625	5.0
28.64	14.0
28.655	12.0
28.669	6.0
28.684	7.0
28.699	16.0
28.714	13.0
28.729	12.0
28.744	10.0
28.759	8.0
28.774	10.0
28.788	5.0
28.803	11.0
28.818	13.0
28.833	6.0
28.848	12.0
28.863	8.0
28.878	15.0
28.893	8.0
28.908	9.0
28.922	10.0
28.937	14.0
28.952	9.0
28.967	8.0
28.982	7.0
28.997	5.0
29.012	8.0
29.027	11.0
29.041	15.0
29.056	7.0
29.071	19.0
29.086	11.0
29.101	15.0
29.116	4.0
29.131	11.0
29.146	12.0
29.16	17.0
29.175	10.0
29.19	9.0
29.205	13.0
29.22	5.0
29.235	7.0
29.25	12.0
29.265	12.0
29.279	13.0
29.294	13.0
29.309	7.0
29.324	14.0
29.339	8.0
29.354	16.0
29.369	10.0
29.384	18.0
29.398	13.0
29.413	18.0
29.428	22.0
29.443	20.0
29.458	19.0
29.473	24.0
29.488	33.0
29.502	26.0
29.517	30.0
29.532	41.0
29.547	44.0
29.562	52.0
29.577	51.0
29.592	46.0
29.606	58.0
29.621	45.0
29.636	42.0
29.651	55.0
29.666	57.0
29.681	31.0
29.695	37.0
29.71	37.0
29.725	31.0
29.74	43.0
29.755	27.0
29.77	22.0
29.784	36.0
29.799	21.0
29.814	32.0
29.829	29.0
29.844	25.0
29.859	14.0
29.873	28.0
29.888	28.0
29.903	10.0
29.918	11.0
29.933	12.0
29.947	7.0
29.962	13.0
29.977	9.0
29.992	6.0
30.007	9.0
30.021	6.0
30.036	15.0
30.051	12.0
30.066	15.0
30.081	16.0
30.095	7.0
30.11	6.0
30.125	18.0
30.14	10.0
30.155	11.0
30.169	11.0
30.184	8.0
30.199	10.0
30.214	9.0
30.228	12.0
30.243	9.0
30.258	13.0
30.273	9.0
30.288	14.0
30.302	10.0
30.317	7.0
30.332	22.0
30.347	11.0
30.361	11.0
30.376	18.0
30.391	10.0
30.406	6.0
30.42	13.0
30.435	13.0
30.45	15.0
30.465	15.0
30.479	13.0
30.494	15.0
30.509	12.0
30.524	8.0
30.538	11.0
30.553	11.0
30.568	14.0
30.583	13.0
30.597	9.0
30.612	12.0
30.627	10.0
30.641	14.0
30.656	11.0
30.671	12.0
30.686	5.0
30.7	6.0
30.715	10.0
30.73	9.0
30.745	9.0
30.759	9.0
30.774	14.0
30.789	14.0
30.803	10.0
30.818	12.0
30.833	10.0
30.848	13.0
30.862	18.0
30.877	10.0
30.892	16.0
30.906	9.0
30.921	12.0
30.936	15.0
30.951	11.0
30.965	14.0
30.98	6.0
30.995	13.0
31.009	10.0
31.024	17.0
31.039	9.0
31.053	8.0
31.068	12.0
31.083	10.0
31.098	15.0
31.112	19.0
31.127	16.0
31.142	18.0
31.156	18.0
31.171	26.0
31.186	43.0
31.2	31.0
31.215	31.0
31.23	35.0
31.245	42.0
31.259	45.0
31.274	40.0
31.289	41.0
31.303	40.0
31.318	19.0
31.333	18.0
31.347	36.0
31.362	34.0
31.377	24.0
31.392	30.0
31.406	23.0
31.421	27.0
31.436	28.0
31.45	23.0
31.465	20.0
31.48	27.0
31.494	25.0
31.509	23.0
31.524	24.0
31.538	10.0
31.553	11.0
31.568	14.0
31.583	10.0
31.597	14.0
31.612	11.0
31.627	5.0
31.641	10.0
31.656	16.0
31.671	12.0
31.685	19.0
31.7	14.0
31.715	9.0
31.729	7.0
31.744	12.0
31.759	12.0
31.774	14.0
31.788	8.0
31.803	15.0
31.818	11.0
31.832	13.0
31.847	13.0
31.862	6.0
31.876	12.0
31.891	18.0
31.906	15.0
31.92	11.0
31.935	10.0
31.95	8.0
31.965	10.0
31.979	11.0
31.994	9.0
32.009	13.0
32.023	9.0
32.038	10.0
32.053	6.0
32.067	5.0
32.082	11.0
32.097	12.0
32.112	13.0
32.126	10.0
32.141	7.0
32.156	6.0
32.17	13.0
32.185	10.0
32.2	11.0
32.214	7.0
32.229	5.0
32.244	11.0
32.259	8.0
32.273	11.0
32.288	12.0
32.303	11.0
32.317	6.0
32.332	13.0
32.347	13.0
32.362	9.0
32.376	12.0
32.391	14.0
32.406	7.0
32.42	11.0
32.435	12.0
32.45	10.0
32.465	10.0
32.479	6.0
32.494	7.0
32.509	10.0
32.523	7.0
32.538	10.0
32.553	8.0
32.568	7.0
32.582	10.0
32.597	7.0
32.612	14.0
32.627	10.0
32.641	15.0
32.656	12.0
32.671	8.0
32.685	14.0
32.7	16.0
32.715	26.0
32.73	24.0
32.744	21.0
32.759	21.0
32.774	29.0
32.788	28.0
32.803	30.0
32.818	29.0
32.833	30.0
32.847	29.0
32.862	31.0
32.877	31.0
32.892	28.0
32.906	20.0
32.921	20.0
32.936	17.0
32.951	17.0
32.965	23.0
32.98	12.0
32.995	15.0
33.009	14.0
33.024	21.0
33.039	14.0
33.054	17.0
33.068	19.0
33.083	16.0
33.098	18.0
33.113	24.0
33.127	13.0
33.142	12.0
33.157	12.0
33.172	12.0
33.186	9.0
33.201	9.0
33.216	11.0
33.231	9.0
33.245	10.0
33.26	7.0
33.275	6.0
33.29	7.0
33.304	8.0
33.319	12.0
33.334	10.0
33.349	8.0
33.363	13.0
33.378	9.0
33.393	11.0
33.408	5.0
33.422	1.0
33.437	5.0
33.452	8.0
33.467	13.0
33.481	11.0
33.496	6.0
33.511	12.0
33.526	13.0
33.54	14.0
33.555	9.0
33.57	15.0
33.585	5.0
33.599	10.0
33.614	4.0
33.629	7.0
33.644	4.0
33.658	9.0
33.673	11.0
33.688	10.0
33.703	11.0
33.718	10.0
33.732	9.0
33.747	6.0
33.762	8.0
33.777	4.0
33.791	7.0
33.806	6.0
33.821	14.0
33.836	8.0
33.85	6.0
33.865	10.0
33.88	10.0
33.895	4.0
33.91	12.0
33.924	13.0
33.939	8.0
33.954	12.0
33.969	9.0
33.983	8.0
33.998	11.0
34.013	12.0
34.028	10.0
34.042	13.0
34.057	9.0
34.072	13.0
34.087	12.0
34.102	12.0
34.116	11.0
34.131	11.0
34.146	13.0
34.161	20.0
34.175	9.0
34.19	16.0
34.205	12.0
34.22	17.0
34.235	10.0
34.249	9.0
34.264	11.0
34.279	15.0
34.294	14.0
34.309	11.0
34.323	11.0
34.338	20.0
34.353	14.0
34.368	16.0
34.382	6.0
34.397	13.0
34.412	15.0
34.427	10.0
34.442	13.0
34.456	15.0
34.471	8.0
34.486	15.0
34.501	12.0
34.516	11.0
34.53	7.0
34.545	10.0
34.56	9.0
34.575	7.0
34.59	8.0
34.604	10.0
34.619	8.0
34.634	12.0
34.649	10.0
34.664	7.0
34.678	7.0
34.693	8.0
34.708	8.0
34.723	8.0
34.738	14.0
34.752	15.0
34.767	9.0
34.782	4.0
34.797	6.0
34.812	5.0
34.826	9.0
34.841	5.0
34.856	13.0
34.871	13.0
34.886	6.0
34.9	8.0
34.915	8.0
34.93	10.0
34.945	13.0
34.96	5.0
34.974	14.0
34.989	11.0
35.004	11.0
35.019	8.0
35.034	12.0
35.048	8.0
35.063	9.0
35.078	10.0
35.093	10.0
35.108	9.0
35.122	12.0
35.137	8.0
35.152	9.0
35.167	12.0
35.182	5.0
35.196	9.0
35.211	12.0
35.226	7.0
35.241	7.0
35.256	12.0
35.27	5.0
35.285	11.0
35.3	10.0
35.315	6.0
35.33	13.0
35.344	5.0
35.359	6.0
35.374	8.0
35.389	7.0
35.404	3.0
35.418	12.0
35.433	12.0
35.448	8.0
35.463	8.0
35.478	9.0
35.493	10.0
35.507	13.0
35.522	10.0
35.537	6.0
35.552	10.0
35.567	9.0
35.581	14.0
35.596	12.0
35.611	8.0
35.626	14.0
35.641	14.0
35.655	21.0
35.67	11.0
35.685	12.0
35.7	9.0
35.715	12.0
35.729	17.0
35.744	19.0
35.759	10.0
35.774	18.0
35.789	19.0
35.804	15.0
35.818	21.0
35.833	17.0
35.848	14.0
35.863	14.0
35.878	11.0
35.892	17.0
35.907	14.0
35.922	14.0
35.937	11.0
35.952	11.0
35.966	17.0
35.981	14.0
35.996	14.0
36.011	11.0
36.026	12.0
36.04	17.0
36.055	13.0
36.07	11.0
36.085	13.0
36.1	9.0
36.114	5.0
36.129	7.0
36.144	7.0
36.159	11.0
36.174	8.0
36.189	11.0
36.203	7.0
36.218	8.0
36.233	2.0
36.248	10.0
36.263	11.0
36.277	4.0
36.292	8.0
36.307	7.0
36.322	13.0
36.337	8.0
36.351	12.0
36.366	10.0
36.381	5.0
36.396	8.0
36.411	12.0
36.426	8.0
36.44	10.0
36.455	12.0
36.47	6.0
36.485	18.0
36.5	7.0
36.514	9.0
36.529	11.0
36.544	6.0
36.559	13.0
36.574	5.0
36.589	3.0
36.603	10.0
36.618	6.0
36.633	11.0
36.648	12.0
36.663	14.0
36.677	13.0
36.692	7.0
36.707	6.0
36.722	4.0
36.737	11.0
36.752	4.0
36.766	7.0
36.781	6.0
36.796	10.0
36.811	4.0
36.826	8.0
36.841	4.0
36.855	9.0
36.87	6.0
36.885	8.0
36.9	10.0
36.915	9.0
36.93	9.0
36.944	10.0
36.959	13.0
36.974	11.0
36.989	7.0
37.004	8.0
37.019	13.0
37.033	17.0
37.048	7.0
37.063	13.0
37.078	16.0
37.093	23.0
37.108	21.0
37.123	29.0
37.137	21.0
37.152	26.0
37.167	31.0
37.182	18.0
37.197	21.0
37.212	32.0
37.226	16.0
37.241	26.0
37.256	19.0
37.271	20.0
37.286	20.0
37.301	17.0
37.316	14.0
37.331	16.0
37.345	20.0
37.36	19.0
37.375	27.0
37.39	21.0
37.405	22.0
37.42	14.0
37.435	22.0
37.45	16.0
37.464	19.0
37.479	13.0
37.494	12.0
37.509	14.0
37.524	10.0
37.539	11.0
37.554	5.0
37.569	6.0
37.583	14.0
37.598	4.0
37.613	8.0
37.628	10.0
37.643	3.0
37.658	10.0
37.673	8.0
37.688	8.0
37.703	9.0
37.718	4.0
37.733	8.0
37.747	9.0
37.762	8.0
37.777	5.0
37.792	5.0
37.807	6.0
37.822	5.0
37.837	10.0
37.852	8.0
37.867	2.0
37.882	5.0
37.897	10.0
37.912	8.0
37.927	9.0
37.941	5.0
37.956	4.0
37.971	8.0
37.986	7.0
38.001	7.0
38.016	9.0
38.031	7.0
38.046	4.0
38.061	6.0
38.076	11.0
38.091	10.0
38.106	4.0
38.121	6.0
38.136	6.0
38.151	8.0
38.166	2.0
38.181	11.0
38.196	5.0
38.211	6.0
38.226	6.0
38.241	8.0
38.256	7.0
38.271	3.0
38.285	6.0
38.3	11.0
38.315	11.0
38.33	4.0
38.345	7.0
38.36	2.0
38.375	8.0
38.39	4.0
38.405	7.0
38.42	5.0
38.435	11.0
38.45	5.0
38.465	9.0
38.48	9.0
38.495	7.0
38.51	4.0
38.525	6.0
38.54	9.0
38.555	8.0
38.57	12.0
38.585	4.0
38.6	7.0
38.615	4.0
38.63	7.0
38.645	7.0
38.66	6.0
38.675	8.0
38.69	8.0
38.705	4.0
38.72	5.0
38.735	9.0
38.75	4.0
38.765	6.0
38.78	6.0
38.795	5.0
38.81	7.0
38.825	3.0
38.84	1.0
38.855	6.0
38.87	3.0
38.885	1.0
38.9	2.0
38.915	7.0
38.93	7.0
38.945	8.0
38.96	6.0
38.975	7.0
38.99	3.0
39.005	3.0
39.02	4.0
39.035	8.0
39.05	7.0
39.065	4.0
39.08	8.0
39.095	2.0
39.11	9.0
39.125	5.0
39.14	5.0
39.155	5.0
39.17	1.0
39.185	3.0
39.2	5.0
39.215	5.0
39.23	5.0
39.245	6.0
39.26	5.0
39.275	7.0
39.29	2.0
39.305	5.0
39.32	9.0
39.335	10.0
39.35	4.0
39.365	9.0
39.38	7.0
39.395	7.0
39.409	6.0
39.424	5.0
39.439	10.0
39.454	5.0
39.469	6.0
39.484	8.0
39.499	7.0
39.514	6.0
39.529	4.0
39.544	12.0
39.559	2.0
39.574	8.0
39.589	10.0
39.604	1.0
39.619	4.0
39.634	7.0
39.649	7.0
39.664	9.0
39.678	7.0
39.693	3.0
39.708	5.0
39.723	2.0
39.738	9.0
39.753	11.0
39.768	12.0
39.783	9.0
39.798	6.0
39.813	8.0
39.827	10.0
39.842	7.0
39.857	5.0
39.872	7.0
39.887	12.0
39.902	12.0
39.917	15.0
39.932	8.0
39.947	10.0
39.961	7.0
39.976	2.0
39.991	5.0
40.006	8.0
40.021	4.0
40.036	5.0
40.051	7.0
40.065	6.0
40.08	9.0
40.095	14.0
40.11	10.0
40.125	11.0
40.14	9.0
40.154	4.0
40.169	7.0
40.184	8.0
40.199	10.0
40.214	5.0
40.228	6.0
40.243	5.0
40.258	9.0
40.273	13.0
40.288	9.0
40.302	7.0
40.317	4.0
40.332	2.0
40.347	4.0
40.362	6.0
40.376	9.0
40.391	5.0
40.406	6.0
40.421	6.0
40.436	6.0
40.45	3.0
40.465	3.0
40.48	6.0
40.495	5.0
40.509	8.0
40.524	5.0
40.539	5.0
40.554	5.0
40.568	6.0
40.583	8.0
40.598	6.0
40.613	4.0
40.627	6.0
40.642	6.0
40.657	7.0
40.672	5.0
40.686	4.0
40.701	4.0
40.716	4.0
40.731	2.0
40.745	1.0
40.76	4.0
40.775	5.0
40.79	9.0
40.804	6.0
40.819	6.0
40.834	6.0
40.849	6.0
40.863	7.0
40.878	9.0
40.893	6.0
40.907	5.0
40.922	7.0
40.937	7.0
40.952	6.0
40.966	6.0
40.981	9.0
40.996	7.0
41.011	6.0
41.025	6.0
41.04	11.0
41.055	12.0
41.069	12.0
41.084	15.0
41.099	18.0
41.114	18.0
41.128	22.0
41.143	24.0
41.158	18.0
41.173	21.0
41.187	16.0
41.202	19.0
41.217	22.0
41.231	16.0
41.246	13.0
41.261	8.0
41.276	10.0
41.29	16.0
41.305	18.0
41.32	13.0
41.335	16.0
41.349	11.0
41.364	5.0
41.379	12.0
41.393	10.0
41.408	14.0
41.423	21.0
41.438	9.0
41.452	8.0
41.467	11.0
41.482	7.0
41.497	13.0
41.511	7.0
41.526	9.0
41.541	9.0
41.556	9.0
41.57	7.0
41.585	6.0
41.6	4.0
41.615	6.0
41.629	7.0
41.644	6.0
41.659	8.0
41.674	6.0
41.688	6.0
41.703	5.0
41.718	4.0
41.733	5.0
41.747	7.0
41.762	7.0
41.777	6.0
41.792	9.0
41.806	4.0
41.821	6.0
41.836	4.0
41.851	5.0
41.866	8.0
41.88	4.0
41.895	1.0
41.91	7.0
41.925	5.0
41.939	4.0
41.954	10.0
41.969	5.0
41.984	5.0
41.999	3.0
42.013	6.0
42.028	7.0
42.043	3.0
42.058	7.0
42.073	7.0
42.088	6.0
42.102	1.0
42.117	7.0
42.132	7.0
42.147	9.0
42.162	8.0
42.176	7.0
42.191	1.0
42.206	8.0
42.221	8.0
42.236	13.0
42.251	5.0
42.266	8.0
42.28	10.0
42.295	11.0
42.31	9.0
42.325	12.0
42.34	13.0
42.355	14.0
42.369	12.0
42.384	11.0
42.399	16.0
42.414	9.0
42.429	8.0
42.444	16.0
42.459	19.0
42.474	17.0
42.488	11.0
42.503	12.0
42.518	10.0
42.533	10.0
42.548	9.0
42.563	8.0
42.578	11.0
42.593	13.0
42.608	8.0
42.622	8.0
42.637	10.0
42.652	9.0
42.667	11.0
42.682	8.0
42.697	14.0
42.712	14.0
42.727	15.0
42.742	9.0
42.757	12.0
42.772	11.0
42.786	13.0
42.801	7.0
42.816	8.0
42.831	9.0
42.846	8.0
42.861	9.0
42.876	6.0
42.891	4.0
42.906	5.0
42.921	5.0
42.936	10.0
42.951	11.0
42.966	8.0
42.981	4.0
42.996	4.0
43.011	6.0
43.025	6.0
43.04	8.0
43.055	5.0
43.07	7.0
43.085	4.0
43.1	7.0
43.115	7.0
43.13	6.0
43.145	6.0
43.16	3.0
43.175	4.0
43.19	5.0
43.205	4.0
43.22	7.0
43.235	4.0
43.25	6.0
43.265	7.0
43.28	8.0
43.295	11.0
43.31	6.0
43.325	5.0
43.34	4.0
43.355	6.0
43.37	3.0
43.385	4.0
43.4	11.0
43.415	6.0
43.43	7.0
43.445	2.0
43.46	5.0
43.475	2.0
43.49	7.0
43.505	9.0
43.52	5.0
43.535	7.0
43.55	7.0
43.565	8.0
43.58	8.0
43.595	13.0
43.61	8.0
43.625	13.0
43.64	7.0
43.655	6.0
43.67	8.0
43.685	4.0
43.7	9.0
43.715	12.0
43.73	4.0
43.745	11.0
43.76	9.0
43.775	8.0
43.79	5.0
43.805	5.0
43.82	11.0
43.835	5.0
43.85	7.0
43.865	6.0
43.88	9.0
43.895	4.0
43.91	8.0
43.925	8.0
43.94	8.0
43.955	3.0
43.97	9.0
43.985	7.0
44.0	3.0
44.015	5.0
44.03	3.0
44.045	1.0
44.061	4.0
44.076	1.0
44.091	8.0
44.106	5.0
44.121	9.0
44.136	5.0
44.151	5.0
44.166	8.0
44.181	2.0
44.196	6.0
44.211	5.0
44.226	6.0
44.241	6.0
44.256	6.0
44.271	12.0
44.286	9.0
44.301	3.0
44.316	4.0
44.331	6.0
44.346	4.0
44.361	5.0
44.377	7.0
44.392	5.0
44.407	7.0
44.422	3.0
44.437	3.0
44.452	7.0
44.467	9.0
44.482	6.0
44.497	4.0
44.512	8.0
44.527	4.0
44.542	4.0
44.557	7.0
44.572	4.0
44.587	5.0
44.602	5.0
44.617	4.0
44.632	5.0
44.647	3.0
44.663	4.0
44.678	11.0
44.693	6.0
44.708	6.0
44.723	9.0
44.738	7.0
44.753	4.0
44.768	12.0
44.783	6.0
44.798	14.0
44.813	14.0
44.828	12.0
44.843	12.0
44.858	13.0
44.873	7.0
44.888	15.0
44.903	8.0
44.918	12.0
44.933	7.0
44.948	4.0
44.964	8.0
44.979	5.0
44.994	9.0
45.009	8.0
45.024	6.0
45.039	7.0
45.054	6.0
45.069	4.0
45.084	6.0
45.099	6.0
45.114	11.0
45.129	4.0
45.144	8.0
45.159	4.0
45.174	5.0
45.189	7.0
45.204	11.0
45.219	0.0
45.234	5.0
45.249	10.0
45.264	2.0
45.279	4.0
45.294	9.0
45.309	6.0
45.324	2.0
45.339	6.0
45.354	2.0
45.369	1.0
45.384	4.0
45.399	6.0
45.414	3.0
45.429	5.0
45.444	6.0
45.459	2.0
45.474	10.0
45.489	2.0
45.504	3.0
45.519	0.0
45.534	6.0
45.549	4.0
45.564	5.0
45.579	3.0
45.594	8.0
45.609	3.0
45.624	4.0
45.639	4.0
45.654	6.0
45.669	3.0
45.684	2.0
45.699	8.0
45.714	7.0
45.729	6.0
45.744	7.0
45.759	6.0
45.774	3.0
45.789	3.0
45.804	3.0
45.819	4.0
45.834	6.0
45.849	5.0
45.864	8.0
45.879	7.0
45.894	12.0
45.909	15.0
45.924	10.0
45.939	13.0
45.954	15.0
45.969	16.0
45.984	18.0
45.998	12.0
46.013	10.0
46.028	18.0
46.043	15.0
46.058	11.0
46.073	12.0
46.088	11.0
46.103	9.0
46.118	8.0
46.133	5.0
46.148	12.0
46.163	11.0
46.178	8.0
46.192	8.0
46.207	8.0
46.222	9.0
46.237	9.0
46.252	13.0
46.267	13.0
46.282	15.0
46.297	7.0
46.312	15.0
46.327	8.0
46.341	7.0
46.356	5.0
46.371	9.0
46.386	5.0
46.401	9.0
46.416	6.0
46.431	5.0
46.446	6.0
46.46	5.0
46.475	6.0
46.49	6.0
46.505	4.0
46.52	2.0
46.535	4.0
46.55	7.0
46.564	5.0
46.579	7.0
46.594	3.0
46.609	8.0
46.624	4.0
46.639	5.0
46.654	6.0
46.668	10.0
46.683	4.0
46.698	2.0
46.713	1.0
46.728	4.0
46.743	3.0
46.758	6.0
46.772	3.0
46.787	2.0
46.802	1.0
46.817	6.0
46.832	8.0
46.847	12.0
46.861	3.0
46.876	3.0
46.891	5.0
46.906	4.0
46.921	6.0
46.936	5.0
46.95	4.0
46.965	6.0
46.98	6.0
46.995	7.0
47.01	9.0
47.025	9.0
47.039	8.0
47.054	8.0
47.069	11.0
47.084	2.0
47.099	5.0
47.113	9.0
47.128	10.0
47.143	8.0
47.158	10.0
47.173	8.0
47.188	8.0
47.202	5.0
47.217	7.0
47.232	6.0
47.247	14.0
47.262	5.0
47.277	4.0
47.291	7.0
47.306	7.0
47.321	0.0
47.336	3.0
47.351	10.0
47.365	8.0
47.38	6.0
47.395	7.0
47.41	6.0
47.425	6.0
47.44	6.0
47.454	12.0
47.469	5.0
47.484	2.0
47.499	6.0
47.514	2.0
47.528	4.0
47.543	3.0
47.558	5.0
47.573	4.0
47.588	4.0
47.603	1.0
47.617	3.0
47.632	8.0
47.647	1.0
47.662	6.0
47.677	6.0
47.691	5.0
47.706	5.0
47.721	6.0
47.736	5.0
47.751	3.0
47.766	8.0
47.78	4.0
47.795	8.0
47.81	4.0
47.825	2.0
47.84	7.0
47.855	4.0
47.869	7.0
47.884	5.0
47.899	1.0
47.914	6.0
47.929	4.0
47.944	8.0
47.958	3.0
47.973	5.0
47.988	7.0
48.003	4.0
48.018	4.0
48.033	4.0
48.047	4.0
48.062	3.0
48.077	8.0
48.092	3.0
48.107	2.0
48.122	5.0
48.137	2.0
48.151	7.0
48.166	6.0
48.181	5.0
48.196	2.0
48.211	2.0
48.226	9.0
48.241	4.0
48.255	1.0
48.27	6.0
48.285	4.0
48.3	5.0
48.315	5.0
48.33	4.0
48.345	2.0
48.359	4.0
48.374	6.0
48.389	3.0
48.404	5.0
48.419	4.0
48.434	2.0
48.449	6.0
48.464	5.0
48.478	8.0
48.493	7.0
48.508	7.0
48.523	1.0
48.538	4.0
48.553	4.0
48.568	2.0
48.583	2.0
48.597	7.0
48.612	5.0
48.627	6.0
48.642	6.0
48.657	0.0
48.672	4.0
48.687	6.0
48.702	8.0
48.717	2.0
48.731	8.0
48.746	5.0
48.761	4.0
48.776	4.0
48.791	3.0
48.806	6.0
48.821	4.0
48.836	6.0
48.851	1.0
48.866	5.0
48.88	4.0
48.895	2.0
48.91	2.0
48.925	7.0
48.94	6.0
48.955	6.0
48.97	6.0
48.985	7.0
49.0	5.0
49.015	8.0
49.03	2.0
49.044	1.0
49.059	5.0
49.074	0.0
49.089	7.0
49.104	2.0
49.119	9.0
49.134	3.0
49.149	3.0
49.164	5.0
49.179	1.0
49.194	5.0
49.209	2.0
49.224	0.0
49.238	6.0
49.253	6.0
49.268	6.0
49.283	6.0
49.298	8.0
49.313	4.0
49.328	3.0
49.343	13.0
49.358	4.0
49.373	7.0
49.388	4.0
49.403	6.0
49.418	4.0
49.433	10.0
49.448	5.0
49.463	9.0
49.478	2.0
49.492	7.0
49.507	6.0
49.522	5.0
49.537	3.0
49.552	4.0
49.567	2.0
49.582	4.0
49.597	2.0
49.612	7.0
49.627	8.0
49.642	8.0
49.657	9.0
49.672	5.0
49.687	9.0
49.702	4.0
49.717	7.0
49.732	3.0
49.747	7.0
49.762	6.0
49.777	6.0
49.792	5.0
49.807	2.0
49.822	7.0
49.837	4.0
49.852	7.0
49.867	3.0
49.882	5.0
49.897	5.0
49.912	3.0
49.927	4.0
49.942	6.0
49.957	5.0
49.971	4.0
49.986	6.0
50.001	3.0
50.016	4.0
50.031	3.0
50.046	6.0
50.061	7.0
50.076	5.0
50.091	2.0
50.106	4.0
50.121	4.0
50.136	4.0
50.151	4.0
50.166	1.0
50.181	6.0
50.196	5.0
50.211	4.0
50.226	7.0
50.241	4.0
50.256	6.0
50.271	6.0
50.286	5.0
50.302	4.0
50.317	7.0
50.332	6.0
50.347	3.0
50.362	3.0
50.377	5.0
50.392	4.0
50.407	4.0
50.422	8.0
50.437	4.0
50.452	10.0
50.467	6.0
50.482	9.0
50.497	9.0
50.512	3.0
50.527	11.0
50.542	2.0
50.557	8.0
50.572	8.0
50.587	5.0
50.602	5.0
50.617	5.0
50.632	5.0
50.647	3.0
50.662	7.0
50.677	12.0
50.692	3.0
50.707	4.0
50.722	6.0
50.737	14.0
50.752	3.0
50.767	6.0
50.782	16.0
50.797	14.0
50.812	8.0
50.828	4.0
50.843	7.0
50.858	7.0
50.873	5.0
50.888	3.0
50.903	2.0
50.918	2.0
50.933	8.0
50.948	4.0
50.963	8.0
50.978	6.0
50.993	5.0
51.008	3.0
51.023	8.0
51.038	2.0
51.053	6.0
51.068	5.0
51.083	1.0
51.098	5.0
51.114	7.0
51.129	4.0
51.144	6.0
51.159	3.0
51.174	2.0
51.189	3.0
51.204	8.0
51.219	4.0
51.234	10.0
51.249	3.0
51.264	5.0
51.279	9.0
51.294	7.0
51.309	8.0
51.324	5.0
51.34	7.0
51.355	1.0
51.37	6.0
51.385	6.0
51.4	8.0
51.415	8.0
51.43	6.0
51.445	7.0
51.46	8.0
51.475	17.0
51.49	16.0
51.505	10.0
51.52	10.0
51.535	21.0
51.551	13.0
51.566	18.0
51.581	14.0
51.596	11.0
51.611	12.0
51.626	9.0
51.641	8.0
51.656	9.0
51.671	9.0
51.686	9.0
51.701	9.0
51.716	2.0
51.732	6.0
51.747	4.0
51.762	7.0
51.777	6.0
51.792	8.0
51.807	12.0
51.822	8.0
51.837	9.0
51.852	8.0
51.867	16.0
51.882	8.0
51.898	10.0
51.913	9.0
51.928	6.0
51.943	8.0
51.958	6.0
51.973	7.0
51.988	10.0
52.003	3.0
52.018	8.0
52.033	2.0
52.048	4.0
52.064	5.0
52.079	3.0
52.094	6.0
52.109	2.0
52.124	4.0
52.139	4.0
52.154	5.0
52.169	6.0
52.184	3.0
52.199	2.0
52.215	8.0
52.23	0.0
52.245	2.0
52.26	6.0
52.275	9.0
52.29	4.0
52.305	5.0
52.32	4.0
52.335	3.0
52.35	2.0
52.366	0.0
52.381	8.0
52.396	7.0
52.411	5.0
52.426	4.0
52.441	7.0
52.456	10.0
52.471	3.0
52.486	8.0
52.502	10.0
52.517	7.0
52.532	15.0
52.547	6.0
52.562	14.0
52.577	4.0
52.592	13.0
52.607	13.0
52.622	5.0
52.637	8.0
52.653	8.0
52.668	4.0
52.683	7.0
52.698	12.0
52.713	5.0
52.728	4.0
52.743	5.0
52.758	3.0
52.774	2.0
52.789	3.0
52.804	4.0
52.819	13.0
52.834	6.0
52.849	10.0
52.864	6.0
52.879	4.0
52.894	13.0
52.91	5.0
52.925	9.0
52.94	4.0
52.955	3.0
52.97	6.0
52.985	5.0
53.0	4.0
53.015	5.0
53.031	3.0
53.046	7.0
53.061	1.0
53.076	2.0
53.091	8.0
53.106	4.0
53.121	6.0
53.136	6.0
53.152	5.0
53.167	3.0
53.182	6.0
53.197	4.0
53.212	8.0
53.227	7.0
53.242	6.0
53.257	1.0
53.273	6.0
53.288	8.0
53.303	2.0
53.318	3.0
53.333	6.0
53.348	3.0
53.363	4.0
53.379	3.0
53.394	3.0
53.409	5.0
53.424	5.0
53.439	3.0
53.454	2.0
53.469	3.0
53.484	3.0
53.5	2.0
53.515	4.0
53.53	2.0
53.545	5.0
53.56	4.0
53.575	7.0
53.59	4.0
53.606	5.0
53.621	4.0
53.636	5.0
53.651	5.0
53.666	8.0
53.681	3.0
53.696	5.0
53.712	2.0
53.727	6.0
53.742	6.0
53.757	4.0
53.772	5.0
53.787	5.0
53.802	4.0
53.818	4.0
53.833	5.0
53.848	2.0
53.863	5.0
53.878	6.0
53.893	7.0
53.909	8.0
53.924	3.0
53.939	4.0
53.954	5.0
53.969	12.0
53.984	4.0
53.999	2.0
54.015	3.0
54.03	5.0
54.045	7.0
54.06	4.0
54.075	3.0
54.09	3.0
54.106	2.0
54.121	3.0
54.136	4.0
54.151	3.0
54.166	4.0
54.181	3.0
54.197	5.0
54.212	7.0
54.227	4.0
54.242	11.0
54.257	4.0
54.272	11.0
54.288	6.0
54.303	7.0
54.318	8.0
54.333	2.0
54.348	4.0
54.363	8.0
54.379	5.0
54.394	5.0
54.409	7.0
54.424	5.0
54.439	7.0
54.454	10.0
54.47	3.0
54.485	9.0
54.5	5.0
54.515	6.0
54.53	11.0
54.545	11.0
54.561	5.0
54.576	10.0
54.591	7.0
54.606	18.0
54.621	11.0
54.636	11.0
54.652	9.0
54.667	10.0
54.682	10.0
54.697	10.0
54.712	4.0
54.727	12.0
54.743	6.0
54.758	10.0
54.773	8.0
54.788	9.0
54.803	3.0
54.819	4.0
54.834	4.0
54.849	3.0
54.864	5.0
54.879	5.0
54.894	8.0
54.91	6.0
54.925	8.0
54.94	11.0
54.955	14.0
54.97	15.0
54.985	3.0
55.001	7.0
55.016	6.0
55.031	13.0
55.046	11.0
55.061	3.0
55.077	5.0
55.092	6.0
55.107	6.0
55.122	5.0
55.137	3.0
55.152	4.0
55.168	7.0
55.183	9.0
55.198	3.0
55.213	6.0
55.228	3.0
55.243	3.0
55.259	4.0
55.274	1.0
55.289	5.0
55.304	4.0
55.319	8.0
55.335	6.0
55.35	7.0
55.365	7.0
55.38	6.0
55.395	2.0
55.41	2.0
55.426	3.0
55.441	4.0
55.456	2.0
55.471	5.0
55.486	6.0
55.501	3.0
55.517	1.0
55.532	4.0
55.547	3.0
55.562	6.0
55.577	7.0
55.592	6.0
55.608	10.0
55.623	7.0
55.638	3.0
55.653	7.0
55.668	10.0
55.683	6.0
55.699	5.0
55.714	14.0
55.729	13.0
55.744	8.0
55.759	4.0
55.774	4.0
55.79	8.0
55.805	6.0
55.82	8.0
55.835	7.0
55.85	4.0
55.865	5.0
55.881	3.0
55.896	3.0
55.911	7.0
55.926	4.0
55.941	10.0
55.956	6.0
55.972	4.0
55.987	2.0
56.002	5.0
56.017	9.0
56.032	5.0
56.047	2.0
56.063	4.0
56.078	9.0
56.093	5.0
56.108	4.0
56.123	6.0
56.138	8.0
56.154	10.0
56.169	8.0
56.184	3.0
56.199	1.0
56.214	5.0
56.229	3.0
56.244	4.0
56.26	4.0
56.275	5.0
56.29	4.0
56.305	7.0
56.32	4.0
56.335	5.0
56.351	3.0
56.366	3.0
56.381	2.0
56.396	1.0
56.411	6.0
56.426	6.0
56.441	4.0
56.457	2.0
56.472	3.0
56.487	6.0
56.502	2.0
56.517	7.0
56.532	9.0
56.547	2.0
56.563	6.0
56.578	2.0
56.593	3.0
56.608	6.0
56.623	5.0
56.638	5.0
56.653	4.0
56.668	2.0
56.684	3.0
56.699	8.0
56.714	3.0
56.729	5.0
56.744	6.0
56.759	2.0
56.774	5.0
56.79	3.0
56.805	4.0
56.82	6.0
56.835	5.0
56.85	3.0
56.865	5.0
56.88	1.0
56.895	6.0
56.911	5.0
56.926	3.0
56.941	4.0
56.956	3.0
56.971	2.0
56.986	6.0
57.001	4.0
57.016	4.0
57.031	5.0
57.047	3.0
57.062	5.0
57.077	5.0
57.092	1.0
57.107	4.0
57.122	6.0
57.137	5.0
57.152	3.0
57.167	2.0
57.183	7.0
57.198	5.0
57.213	4.0
57.228	6.0
57.243	4.0
57.258	3.0
57.273	2.0
57.288	2.0
57.303	4.0
57.318	4.0
57.334	5.0
57.349	4.0
57.364	3.0
57.379	3.0
57.394	5.0
57.409	4.0
57.424	6.0
57.439	4.0
57.454	6.0
57.469	5.0
57.484	4.0
57.5	8.0
57.515	7.0
57.53	5.0
57.545	4.0
57.56	6.0
57.575	4.0
57.59	1.0
57.605	0.0
57.62	7.0
57.635	4.0
57.65	5.0
57.665	6.0
57.68	6.0
57.696	3.0
57.711	3.0
57.726	5.0
57.741	5.0
57.756	7.0
57.771	1.0
57.786	6.0
57.801	3.0
57.816	7.0
57.831	5.0
57.846	4.0
57.861	5.0
57.876	5.0
57.891	5.0
57.906	4.0
57.921	4.0
57.937	4.0
57.952	2.0
57.967	6.0
57.982	3.0
57.997	6.0
58.012	6.0
58.027	6.0
58.042	3.0
58.057	3.0
58.072	7.0
58.087	2.0
58.102	4.0
58.117	4.0
58.132	6.0
58.147	7.0
58.162	5.0
58.177	2.0
58.192	5.0
58.207	6.0
58.222	6.0
58.237	2.0
58.252	2.0
58.267	3.0
58.282	5.0
58.297	7.0
58.312	2.0
58.327	6.0
58.342	7.0
58.357	3.0
58.372	2.0
58.387	3.0
58.402	4.0
58.418	2.0
58.433	1.0
58.448	8.0
58.463	1.0
58.478	4.0
58.493	6.0
58.508	7.0
58.523	5.0
58.538	6.0
58.553	7.0
58.568	9.0
58.583	7.0
58.598	9.0
58.613	6.0
58.628	18.0
58.643	13.0
58.658	7.0
58.673	15.0
58.688	14.0
58.703	9.0
58.718	7.0
58.733	5.0
58.748	2.0
58.763	3.0
58.778	3.0
58.793	7.0
58.808	5.0
58.823	6.0
58.838	8.0
58.853	4.0
58.868	6.0
58.883	7.0
58.898	7.0
58.913	6.0
58.928	2.0
58.942	6.0
58.957	6.0
58.972	8.0
58.987	4.0
59.002	6.0
59.017	6.0
59.032	12.0
59.047	8.0
59.062	5.0
59.077	6.0
59.092	9.0
59.107	3.0
59.122	2.0
59.137	7.0
59.152	8.0
59.167	3.0
59.182	4.0
59.197	3.0
59.212	3.0
59.227	3.0
59.242	3.0
59.257	4.0
59.272	5.0
59.287	4.0
59.302	6.0
59.317	6.0
59.332	8.0
59.347	2.0
59.362	3.0
59.377	3.0
59.392	6.0
59.407	6.0
59.422	5.0
59.437	2.0
59.452	2.0
59.467	7.0
59.482	3.0
59.497	5.0
59.512	2.0
59.527	11.0
59.542	6.0
59.557	7.0
59.572	7.0
59.587	10.0
59.602	13.0
59.617	16.0
59.632	8.0
59.647	10.0
59.661	9.0
59.676	5.0
59.691	12.0
59.706	10.0
59.721	11.0
59.736	6.0
59.751	3.0
59.766	4.0
59.781	3.0
59.796	6.0
59.811	2.0
59.826	3.0
59.841	3.0
59.856	7.0
59.871	6.0
59.886	1.0
59.901	5.0
59.916	2.0
59.931	2.0
59.946	10.0
59.961	8.0
59.976	5.0
59.991	10.0
60.006	4.0
60.021	7.0
60.036	9.0
60.051	7.0
60.066	4.0
60.081	6.0
60.096	6.0
60.111	5.0
60.126	4.0
60.141	6.0
60.156	7.0
60.171	3.0
60.186	7.0
60.201	4.0
60.216	9.0
60.231	6.0
60.246	4.0
60.261	3.0
60.276	8.0
60.291	1.0
60.306	4.0
60.321	5.0
60.336	4.0
60.35	5.0
60.365	6.0
60.38	7.0
60.395	9.0
60.41	4.0
60.425	6.0
60.44	4.0
60.455	1.0
60.47	6.0
60.485	5.0
60.5	10.0
60.515	8.0
60.53	5.0
60.545	11.0
60.56	6.0
60.575	12.0
60.59	14.0
60.605	6.0
60.62	9.0
60.635	5.0
60.65	9.0
60.665	5.0
60.68	4.0
60.695	4.0
60.71	4.0
60.725	4.0
60.74	3.0
60.755	5.0
60.77	6.0
60.785	4.0
60.8	4.0
60.815	2.0
60.83	6.0
60.845	3.0
60.86	7.0
60.875	8.0
60.89	5.0
60.905	3.0
60.92	3.0
60.935	9.0
60.95	8.0
60.965	7.0
60.98	4.0
60.995	5.0
61.01	3.0
61.025	6.0
61.04	5.0
61.055	3.0
61.07	6.0
61.085	4.0
61.1	4.0
61.115	0.0
61.13	3.0
61.145	9.0
61.16	4.0
61.175	3.0
61.191	5.0
61.206	4.0
61.221	3.0
61.236	1.0
61.251	5.0
61.266	2.0
61.281	2.0
61.296	2.0
61.311	5.0
61.326	4.0
61.341	3.0
61.356	2.0
61.371	9.0
61.386	5.0
61.401	7.0
61.416	3.0
61.431	3.0
61.446	5.0
61.461	6.0
61.476	8.0
61.491	2.0
61.506	5.0
61.521	6.0
61.536	8.0
61.551	7.0
61.566	7.0
61.581	11.0
61.596	6.0
61.611	5.0
61.626	8.0
61.641	4.0
61.656	4.0
61.672	5.0
61.687	3.0
61.702	3.0
61.717	2.0
61.732	2.0
61.747	2.0
61.762	4.0
61.777	5.0
61.792	1.0
61.807	4.0
61.822	1.0
61.837	2.0
61.852	5.0
61.867	3.0
61.882	5.0
61.897	7.0
61.912	1.0
61.927	4.0
61.943	5.0
61.958	5.0
61.973	4.0
61.988	6.0
62.003	6.0
62.018	6.0
62.033	5.0
62.048	4.0
62.063	6.0
62.078	3.0
62.093	1.0
62.108	3.0
62.123	2.0
62.138	2.0
62.153	1.0
62.169	5.0
62.184	6.0
62.199	1.0
62.214	4.0
62.229	3.0
62.244	3.0
62.259	4.0
62.274	3.0
62.289	2.0
62.304	2.0
62.319	4.0
62.335	2.0
62.35	4.0
62.365	0.0
62.38	3.0
62.395	2.0
62.41	3.0
62.425	6.0
62.44	5.0
62.455	4.0
62.47	6.0
62.485	5.0
62.501	1.0
62.516	4.0
62.531	4.0
62.546	1.0
62.561	3.0
62.576	4.0
62.591	3.0
62.606	5.0
62.621	2.0
62.636	1.0
62.652	3.0
62.667	4.0
62.682	2.0
62.697	4.0
62.712	4.0
62.727	4.0
62.742	5.0
62.757	3.0
62.772	2.0
62.787	6.0
62.803	2.0
62.818	3.0
62.833	5.0
62.848	2.0
62.863	6.0
62.878	4.0
62.893	6.0
62.908	5.0
62.923	3.0
62.939	3.0
62.954	8.0
62.969	5.0
62.984	2.0
62.999	6.0
63.014	5.0
63.029	4.0
63.044	2.0
63.059	6.0
63.074	2.0
63.09	0.0
63.105	2.0
63.12	2.0
63.135	9.0
63.15	2.0
63.165	3.0
63.18	5.0
63.195	5.0
63.21	4.0
63.226	2.0
63.241	2.0
63.256	3.0
63.271	4.0
63.286	6.0
63.301	4.0
63.316	6.0
63.331	4.0
63.346	4.0
63.362	4.0
63.377	10.0
63.392	6.0
63.407	12.0
63.422	5.0
63.437	7.0
63.452	5.0
63.467	5.0
63.482	10.0
63.497	7.0
63.513	1.0
63.528	2.0
63.543	4.0
63.558	1.0
63.573	5.0
63.588	4.0
63.603	3.0
63.618	5.0
63.633	3.0
63.648	4.0
63.664	5.0
63.679	8.0
63.694	3.0
63.709	7.0
63.724	5.0
63.739	9.0
63.754	7.0
63.769	6.0
63.784	4.0
63.799	8.0
63.814	2.0
63.83	4.0
63.845	6.0
63.86	7.0
63.875	6.0
63.89	4.0
63.905	3.0
63.92	6.0
63.935	6.0
63.95	7.0
63.965	6.0
63.98	3.0
63.996	2.0
64.011	5.0
64.026	3.0
64.041	5.0
64.056	5.0
64.071	2.0
64.086	7.0
64.101	3.0
64.116	2.0
64.131	1.0
64.146	4.0
64.161	2.0
64.176	4.0
64.191	2.0
64.207	4.0
64.222	4.0
64.237	3.0
64.252	3.0
64.267	2.0
64.282	4.0
64.297	4.0
64.312	2.0
64.327	6.0
64.342	5.0
64.357	3.0
64.372	3.0
64.387	2.0
64.402	2.0
64.417	1.0
64.433	2.0
64.448	1.0
64.463	2.0
64.478	5.0
64.493	5.0
64.508	1.0
64.523	4.0
64.538	3.0
64.553	7.0
64.568	4.0
64.583	1.0
64.598	4.0
64.613	3.0
64.628	2.0
64.643	6.0
64.658	4.0
64.673	6.0
64.688	4.0
64.703	2.0
64.718	4.0
64.734	4.0
64.749	8.0
64.764	2.0
64.779	4.0
64.794	4.0
64.809	1.0
64.824	4.0
64.839	7.0
64.854	6.0
64.869	5.0
64.884	6.0
64.899	3.0
64.914	2.0
64.929	4.0
64.944	5.0
64.959	2.0
64.974	5.0
64.989	3.0
65.004	3.0
65.019	7.0
65.034	5.0
65.049	1.0
65.064	3.0
65.079	5.0
65.094	4.0
65.109	6.0
65.125	4.0
65.14	5.0
65.155	3.0
65.17	7.0
65.185	3.0
65.2	1.0
65.215	4.0
65.23	2.0
65.245	5.0
65.26	4.0
65.275	7.0
65.29	2.0
65.305	3.0
65.32	6.0
65.335	1.0
65.35	4.0
65.365	1.0
65.38	3.0
65.395	2.0
65.41	2.0
65.425	3.0
65.44	3.0
65.455	2.0
65.47	2.0
65.485	4.0
65.5	5.0
65.515	1.0
65.53	5.0
65.545	4.0
65.56	5.0
65.575	7.0
65.59	3.0
65.605	7.0
65.62	6.0
65.635	1.0
65.65	7.0
65.666	5.0
65.681	4.0
65.696	3.0
65.711	2.0
65.726	5.0
65.741	5.0
65.756	5.0
65.771	1.0
65.786	2.0
65.801	6.0
65.816	3.0
65.831	1.0
65.846	3.0
65.861	6.0
65.876	6.0
65.891	4.0
65.906	2.0
65.921	2.0
65.936	6.0
65.951	4.0
65.966	3.0
65.981	4.0
65.996	2.0
66.011	3.0
66.026	2.0
66.041	3.0
66.056	5.0
66.071	2.0
66.086	4.0
66.101	8.0
66.116	6.0
66.131	10.0
66.146	10.0
66.161	10.0
66.176	16.0
66.191	8.0
66.206	7.0
66.221	7.0
66.236	2.0
66.251	6.0
66.266	3.0
66.281	6.0
66.296	7.0
66.311	4.0
66.327	8.0
66.342	3.0
66.357	1.0
66.372	2.0
66.387	5.0
66.402	4.0
66.417	5.0
66.432	4.0
66.447	3.0
66.462	7.0
66.477	7.0
66.492	4.0
66.507	4.0
66.522	4.0
66.537	5.0
66.552	4.0
66.567	2.0
66.582	3.0
66.597	8.0
66.612	7.0
66.627	5.0
66.642	5.0
66.657	6.0
66.672	6.0
66.687	3.0
66.702	6.0
66.717	7.0
66.732	4.0
66.747	8.0
66.762	4.0
66.777	2.0
66.792	4.0
66.807	4.0
66.822	2.0
66.837	2.0
66.853	4.0
66.868	3.0
66.883	6.0
66.898	5.0
66.913	3.0
66.928	5.0
66.943	6.0
66.958	3.0
66.973	3.0
66.988	3.0
67.003	5.0
67.018	4.0
67.033	4.0
67.048	4.0
67.063	5.0
67.078	3.0
67.093	3.0
67.108	8.0
67.123	10.0
67.138	4.0
67.153	5.0
67.168	8.0
67.183	5.0
67.198	3.0
67.214	3.0
67.229	3.0
67.244	6.0
67.259	4.0
67.274	3.0
67.289	4.0
67.304	5.0
67.319	3.0
67.334	6.0
67.349	2.0
67.364	2.0
67.379	2.0
67.394	1.0
67.409	3.0
67.424	5.0
67.439	2.0
67.454	4.0
67.469	4.0
67.484	2.0
67.5	7.0
67.515	8.0
67.53	3.0
67.545	7.0
67.56	3.0
67.575	4.0
67.59	2.0
67.605	4.0
67.62	7.0
67.635	1.0
67.65	5.0
67.665	3.0
67.68	2.0
67.695	5.0
67.71	8.0
67.726	1.0
67.741	2.0
67.756	3.0
67.771	1.0
67.786	7.0
67.801	5.0
67.816	3.0
67.831	5.0
67.846	7.0
67.861	8.0
67.876	6.0
67.891	0.0
67.906	4.0
67.922	4.0
67.937	3.0
67.952	1.0
67.967	7.0
67.982	7.0
67.997	8.0
68.012	7.0
68.027	3.0
68.042	5.0
68.057	6.0
68.072	3.0
68.087	1.0
68.103	3.0
68.118	2.0
68.133	4.0
68.148	3.0
68.163	5.0
68.178	3.0
68.193	2.0
68.208	4.0
68.223	4.0
68.238	2.0
68.254	5.0
68.269	5.0
68.284	3.0
68.299	3.0
68.314	2.0
68.329	0.0
68.344	3.0
68.359	1.0
68.374	1.0
68.389	2.0
68.405	2.0
68.42	6.0
68.435	2.0
68.45	4.0
68.465	4.0
68.48	2.0
68.495	7.0
68.51	8.0
68.525	4.0
68.54	5.0
68.556	7.0
68.571	5.0
68.586	4.0
68.601	2.0
68.616	4.0
68.631	7.0
68.646	4.0
68.661	2.0
68.676	4.0
68.691	3.0
68.707	5.0
68.722	3.0
68.737	2.0
68.752	6.0
68.767	2.0
68.782	7.0
68.797	2.0
68.812	4.0
68.827	5.0
68.842	5.0
68.857	1.0
68.873	3.0
68.888	4.0
68.903	5.0
68.918	7.0
68.933	5.0
68.948	2.0
68.963	2.0
68.978	2.0
68.993	4.0
69.008	2.0
69.023	5.0
69.038	7.0
69.054	4.0
69.069	1.0
69.084	5.0
69.099	6.0
69.114	3.0
69.129	4.0
69.144	2.0
69.159	1.0
69.174	2.0
69.189	4.0
69.204	7.0
69.219	2.0
69.234	3.0
69.249	3.0
69.264	6.0
69.279	1.0
69.295	4.0
69.31	4.0
69.325	2.0
69.34	4.0
69.355	1.0
69.37	4.0
69.385	5.0
69.4	2.0
69.415	2.0
69.43	4.0
69.445	5.0
69.46	3.0
69.475	5.0
69.49	3.0
69.505	3.0
69.52	2.0
69.535	6.0
69.55	1.0
69.565	3.0
69.58	5.0
69.595	0.0
69.61	3.0
69.625	2.0
69.64	6.0
69.655	3.0
69.67	2.0
69.685	7.0
69.7	4.0
69.715	4.0
69.73	5.0
69.745	5.0
69.76	5.0
69.775	10.0
69.79	6.0
69.805	10.0
69.82	5.0
69.835	9.0
69.85	4.0
69.865	5.0
69.88	0.0
69.895	5.0
69.909	4.0
69.924	3.0
69.939	3.0
69.954	5.0
69.969	5.0
69.984	10.0
69.999	4.0
70.014	3.0
70.029	1.0
70.044	4.0
70.059	3.0
70.074	2.0
70.088	1.0
70.103	5.0
70.118	5.0
70.133	5.0
70.148	4.0
70.163	5.0
70.178	3.0
70.193	4.0
70.208	5.0
70.222	4.0
70.237	3.0
70.252	3.0
70.267	8.0
70.282	5.0
70.297	5.0
70.312	4.0
70.327	2.0
70.341	5.0
70.356	4.0
70.371	3.0
70.386	9.0
70.401	2.0
70.416	3.0
70.43	6.0
70.445	6.0
70.46	2.0
70.475	1.0
70.49	2.0
70.505	6.0
70.519	9.0
70.534	7.0
70.549	3.0
70.564	5.0
70.579	2.0
70.594	6.0
70.608	5.0
70.623	7.0
70.638	4.0
70.653	2.0
70.668	8.0
70.683	8.0
70.697	8.0
70.712	3.0
70.727	5.0
70.742	4.0
70.757	5.0
70.771	7.0
70.786	6.0
70.801	5.0
70.816	0.0
70.831	3.0
70.845	2.0
70.86	1.0
70.875	3.0
70.89	3.0
70.905	1.0
70.92	6.0
70.934	5.0
70.949	4.0
70.964	1.0
70.979	2.0
70.994	2.0
71.008	4.0
71.023	4.0
71.038	6.0
71.053	4.0
71.068	7.0
71.082	2.0
71.097	5.0
71.112	4.0
71.127	2.0
71.142	1.0
71.156	4.0
71.171	3.0
71.186	5.0
71.201	4.0
71.216	5.0
71.231	6.0
71.245	5.0
71.26	1.0
71.275	6.0
71.29	6.0
71.305	2.0
71.319	4.0
71.334	2.0
71.349	1.0
71.364	3.0
71.379	0.0
71.394	2.0
71.408	5.0
71.423	4.0
71.438	4.0
71.453	8.0
71.468	2.0
71.483	5.0
71.497	1.0
71.512	8.0
71.527	3.0
71.542	4.0
71.557	2.0
71.572	2.0
71.586	2.0
71.601	1.0
71.616	3.0
71.631	0.0
71.646	4.0
71.661	4.0
71.676	2.0
71.69	7.0
71.705	3.0
71.72	4.0
71.735	4.0
71.75	1.0
71.765	1.0
71.78	3.0
71.795	2.0
71.81	4.0
71.824	4.0
71.839	1.0
71.854	0.0
71.869	4.0
71.884	2.0
71.899	0.0
71.914	5.0
71.929	4.0
71.944	4.0
71.959	1.0
71.974	2.0
71.988	5.0
72.003	8.0
72.018	2.0
72.033	0.0
72.048	4.0
72.063	2.0
72.078	4.0
72.093	2.0
72.108	5.0
72.123	4.0
72.138	2.0
72.153	3.0
72.168	2.0
72.183	3.0
72.198	3.0
72.213	4.0
72.228	2.0
72.243	3.0
72.258	5.0
72.273	7.0
72.288	1.0
72.303	4.0
72.318	2.0
72.333	2.0
72.348	5.0
72.363	1.0
72.378	7.0
72.393	3.0
72.408	5.0
72.423	3.0
72.438	3.0
72.453	1.0
72.468	1.0
72.483	5.0
72.498	4.0
72.513	4.0
72.528	3.0
72.543	4.0
72.558	4.0
72.573	0.0
72.588	2.0
72.603	3.0
72.618	2.0
72.633	3.0
72.649	5.0
72.664	4.0
72.679	4.0
72.694	8.0
72.709	2.0
72.724	1.0
72.739	7.0
72.754	5.0
72.769	1.0
72.784	3.0
72.799	5.0
72.814	3.0
72.829	2.0
72.845	4.0
72.86	4.0
72.875	4.0
72.89	6.0
72.905	5.0
72.92	0.0
72.935	3.0
72.95	3.0
72.965	9.0
72.98	2.0
72.996	2.0
73.011	5.0
73.026	3.0
73.041	2.0
73.056	2.0
73.071	2.0
73.086	1.0
73.101	3.0
73.117	3.0
73.132	3.0
73.147	4.0
73.162	4.0
73.177	3.0
73.192	4.0
73.207	2.0
73.222	2.0
73.238	3.0
73.253	4.0
73.268	3.0
73.283	6.0
73.298	4.0
73.313	8.0
73.328	4.0
73.343	6.0
73.359	5.0
73.374	8.0
73.389	8.0
73.404	6.0
73.419	2.0
73.434	4.0
73.449	5.0
73.465	3.0
73.48	3.0
73.495	4.0
73.51	3.0
73.525	3.0
73.54	2.0
73.556	4.0
73.571	7.0
73.586	3.0
73.601	4.0
73.616	2.0
73.631	7.0
73.646	1.0
73.662	7.0
73.677	1.0
73.692	5.0
73.707	3.0
73.722	2.0
73.737	1.0
73.752	8.0
73.768	2.0
73.783	5.0
73.798	3.0
73.813	2.0
73.828	6.0
73.843	3.0
73.859	4.0
73.874	4.0
73.889	5.0
73.904	4.0
73.919	2.0
73.934	1.0
73.949	4.0
73.965	4.0
73.98	2.0
73.995	3.0
74.01	7.0
74.025	5.0
74.04	4.0
74.056	2.0
74.071	6.0
74.086	5.0
74.101	6.0
74.116	3.0
74.131	6.0
74.146	2.0
74.162	5.0
74.177	4.0
74.192	5.0
74.207	3.0
74.222	5.0
74.237	3.0
74.252	8.0
74.268	2.0
74.283	7.0
74.298	2.0
74.313	5.0
74.328	2.0
74.343	5.0
74.358	1.0
74.374	5.0
74.389	2.0
74.404	2.0
74.419	3.0
74.434	4.0
74.449	5.0
74.464	6.0
74.48	5.0
74.495	1.0
74.51	4.0
74.525	1.0
74.54	3.0
74.555	5.0
74.57	3.0
74.586	5.0
74.601	5.0
74.616	2.0
74.631	2.0
74.646	3.0
74.661	6.0
74.676	4.0
74.691	2.0
74.707	5.0
74.722	2.0
74.737	6.0
74.752	5.0
74.767	7.0
74.782	5.0
74.797	1.0
74.813	2.0
74.828	2.0
74.843	3.0
74.858	2.0
74.873	3.0
74.888	5.0
74.903	6.0
74.918	4.0
74.934	6.0
74.949	7.0
74.964	5.0
74.979	2.0
74.994	3.0
75.009	6.0
75.024	5.0
75.04	7.0
75.055	3.0
75.07	4.0
75.085	0.0
75.1	1.0
75.115	3.0
75.13	2.0
75.145	4.0
75.161	1.0
75.176	5.0
75.191	3.0
75.206	2.0
75.221	6.0
75.236	1.0
75.251	1.0
75.266	6.0
75.282	3.0
75.297	3.0
75.312	0.0
75.327	1.0
75.342	1.0
75.357	2.0
75.372	2.0
75.387	1.0
75.403	1.0
75.418	3.0
75.433	6.0
75.448	5.0
75.463	3.0
75.478	3.0
75.493	3.0
75.509	4.0
75.524	2.0
75.539	3.0
75.554	3.0
75.569	3.0
75.584	4.0
75.599	7.0
75.614	10.0
75.63	6.0
75.645	4.0
75.66	2.0
75.675	4.0
75.69	4.0
75.705	6.0
75.72	2.0
75.735	3.0
75.751	0.0
75.766	2.0
75.781	5.0
75.796	3.0
75.811	7.0
75.826	4.0
75.841	1.0
75.856	5.0
75.872	3.0
75.887	2.0
75.902	2.0
75.917	8.0
75.932	1.0
75.947	3.0
75.962	4.0
75.977	7.0
75.993	2.0
76.008	3.0
76.023	4.0
76.038	2.0
76.053	2.0
76.068	0.0
76.083	5.0
76.098	3.0
76.114	5.0
76.129	7.0
76.144	3.0
76.159	4.0
76.174	5.0
76.189	4.0
76.204	4.0
76.22	4.0
76.235	3.0
76.25	1.0
76.265	4.0
76.28	1.0
76.295	3.0
76.31	2.0
76.325	3.0
76.341	7.0
76.356	6.0
76.371	2.0
76.386	3.0
76.401	3.0
76.416	5.0
76.431	1.0
76.446	3.0
76.462	4.0
76.477	7.0
76.492	3.0
76.507	3.0
76.522	5.0
76.537	1.0
76.552	3.0
76.567	2.0
76.583	1.0
76.598	7.0
76.613	6.0
76.628	2.0
76.643	2.0
76.658	3.0
76.673	2.0
76.688	3.0
76.704	1.0
76.719	1.0
76.734	2.0
76.749	2.0
76.764	7.0
76.779	3.0
76.794	2.0
76.809	1.0
76.824	4.0
76.84	3.0
76.855	7.0
76.87	4.0
76.885	1.0
76.9	3.0
76.915	4.0
76.93	1.0
76.945	5.0
76.96	0.0
76.976	3.0
76.991	3.0
77.006	6.0
77.021	4.0
77.036	3.0
77.051	5.0
77.066	1.0
77.081	0.0
77.096	3.0
77.112	2.0
77.127	8.0
77.142	5.0
77.157	3.0
77.172	1.0
77.187	2.0
77.202	2.0
77.217	3.0
77.232	5.0
77.247	1.0
77.263	2.0
77.278	1.0
77.293	1.0
77.308	8.0
77.323	1.0
77.338	2.0
77.353	2.0
77.368	3.0
77.383	3.0
77.398	1.0
77.413	3.0
77.428	5.0
77.444	6.0
77.459	2.0
77.474	1.0
77.489	3.0
77.504	7.0
77.519	4.0
77.534	5.0
77.549	3.0
77.564	5.0
77.579	7.0
77.594	0.0
77.609	3.0
77.624	3.0
77.64	3.0
77.655	7.0
77.67	3.0
77.685	7.0
77.7	4.0
77.715	1.0
77.73	4.0
77.745	3.0
77.76	3.0
77.775	2.0
77.79	7.0
77.805	2.0
77.82	4.0
77.835	1.0
77.85	3.0
77.865	0.0
77.88	3.0
77.895	2.0
77.91	5.0
77.926	2.0
77.941	5.0
77.956	4.0
77.971	3.0
77.986	2.0
78.001	2.0
78.016	0.0
78.031	0.0
78.046	4.0
78.061	2.0
78.076	0.0
78.091	4.0
78.106	4.0
78.121	1.0
78.136	3.0
78.151	4.0
78.166	8.0
78.181	7.0
78.196	1.0
78.211	5.0
78.226	4.0
78.241	4.0
78.256	4.0
78.271	3.0
78.286	5.0
78.301	4.0
78.316	6.0
78.331	6.0
78.346	5.0
78.361	4.0
78.376	3.0
78.391	2.0
78.406	3.0
78.421	3.0
78.436	3.0
78.451	0.0
78.466	2.0
78.481	4.0
78.496	3.0
78.511	3.0
78.526	2.0
78.541	2.0
78.556	2.0
78.571	2.0
78.586	3.0
78.601	5.0
78.616	4.0
78.631	2.0
78.646	4.0
78.661	3.0
78.676	1.0
78.691	1.0
78.706	2.0
78.721	2.0
78.736	1.0
78.751	3.0
78.766	2.0
78.781	2.0
78.796	5.0
78.811	2.0
78.826	3.0
78.841	2.0
78.856	3.0
78.871	0.0
78.885	3.0
78.9	3.0
78.915	3.0
78.93	2.0
78.945	3.0
78.96	2.0
78.975	3.0
78.99	2.0
79.005	4.0
79.02	1.0
79.035	3.0
79.05	4.0
79.065	3.0
79.08	6.0
79.095	5.0
79.11	2.0
79.125	2.0
79.14	2.0
79.155	5.0
79.17	4.0
79.185	6.0
79.2	5.0
79.215	1.0
79.23	3.0
79.245	4.0
79.26	2.0
79.275	4.0
79.29	3.0
79.304	2.0
79.319	4.0
79.334	5.0
79.349	2.0
79.364	1.0
79.379	2.0
79.394	5.0
79.409	3.0
79.424	7.0
79.439	3.0
79.454	6.0
79.469	1.0
79.484	3.0
79.499	4.0
79.514	2.0
79.529	1.0
79.544	1.0
79.559	3.0
79.574	6.0
79.589	7.0
79.604	7.0
79.619	5.0
79.634	5.0
79.649	4.0
79.664	1.0
79.679	0.0
79.693	8.0
79.708	3.0
79.723	4.0
79.738	4.0
79.753	4.0
79.768	2.0
79.783	5.0
79.798	5.0
79.813	5.0
79.828	1.0
79.843	4.0
79.858	5.0
79.873	5.0
79.888	3.0
79.903	7.0
79.918	2.0
79.933	1.0
79.948	5.0
79.963	2.0
79.978	0.0
79.993	3.0
80.008	3.0
80.023	3.0
80.038	2.0
80.053	4.0
80.068	4.0
80.083	2.0
80.098	4.0
80.113	0.0
80.128	2.0
80.143	2.0
80.158	2.0
80.173	1.0
80.188	5.0
80.202	4.0
80.217	4.0
80.232	5.0
80.247	2.0
80.262	2.0
80.277	8.0
80.292	3.0
80.307	0.0
80.322	4.0
80.337	1.0
80.352	5.0
80.367	6.0
80.382	1.0
80.397	0.0
80.412	2.0
80.427	2.0
80.442	2.0
80.457	1.0
80.472	3.0
80.487	1.0
80.502	6.0
80.517	6.0
80.532	3.0
80.547	2.0
80.562	3.0
80.577	2.0
80.592	2.0
80.607	1.0
80.622	5.0
80.637	3.0
80.652	3.0
80.667	4.0
80.682	6.0
80.697	2.0
80.712	6.0
80.727	2.0
80.742	2.0
80.757	5.0
80.772	5.0
80.787	2.0
80.802	5.0
80.817	2.0
80.832	5.0
80.847	2.0
80.862	4.0
80.877	2.0
80.892	3.0
80.907	3.0
80.922	1.0
80.937	5.0
80.952	1.0
80.967	2.0
80.982	6.0
80.997	0.0
81.012	3.0
81.027	5.0
81.042	9.0
81.057	3.0
81.072	4.0
81.087	4.0
81.101	3.0
81.116	5.0
81.131	2.0
81.146	2.0
81.161	1.0
81.176	4.0
81.191	5.0
81.206	3.0
81.221	3.0
81.236	2.0
81.251	2.0
81.266	2.0
81.281	3.0
81.296	3.0
81.311	3.0
81.326	3.0
81.341	3.0
81.356	2.0
81.371	1.0
81.386	4.0
81.401	4.0
81.416	4.0
81.431	4.0
81.446	4.0
81.461	0.0
81.476	2.0
81.491	0.0
81.506	3.0
81.521	5.0
81.536	1.0
81.55	4.0
81.565	2.0
81.58	3.0
81.595	5.0
81.61	3.0
81.625	3.0
81.64	6.0
81.655	4.0
81.67	5.0
81.685	2.0
81.7	3.0
81.715	4.0
81.73	1.0
81.745	7.0
81.76	3.0
81.775	3.0
81.79	3.0
81.805	2.0
81.819	2.0
81.834	4.0
81.849	7.0
81.864	4.0
81.879	4.0
81.894	7.0
81.909	3.0
81.924	3.0
81.939	2.0
81.954	3.0
81.969	3.0
81.984	5.0
81.999	2.0
82.013	2.0
82.028	4.0
82.043	3.0
82.058	5.0
82.073	1.0
82.088	3.0
82.103	4.0
82.118	2.0
82.133	2.0
82.148	3.0
82.163	4.0
82.177	2.0
82.192	4.0
82.207	4.0
82.222	3.0
82.237	1.0
82.252	3.0
82.267	3.0
82.282	3.0
82.297	1.0
82.312	2.0
82.326	3.0
82.341	1.0
82.356	4.0
82.371	1.0
82.386	4.0
82.401	4.0
82.416	4.0
82.431	6.0
82.445	2.0
82.46	2.0
82.475	4.0
82.49	4.0
82.505	1.0
82.52	5.0
82.535	4.0
82.55	3.0
82.565	4.0
82.579	2.0
82.594	2.0
82.609	4.0
82.624	5.0
82.639	3.0
82.654	1.0
82.669	2.0
82.684	1.0
82.698	4.0
82.713	1.0
82.728	5.0
82.743	2.0
82.758	4.0
82.773	4.0
82.788	0.0
82.803	1.0
82.817	3.0
82.832	2.0
82.847	3.0
82.862	3.0
82.877	6.0
82.892	0.0
82.907	3.0
82.922	1.0
82.937	0.0
82.951	3.0
82.966	1.0
82.981	5.0
82.996	2.0
83.011	2.0
83.026	2.0
83.041	1.0
83.056	2.0
83.07	1.0
83.085	2.0
83.1	3.0
83.115	5.0
83.13	2.0
83.145	1.0
83.16	6.0
83.175	2.0
83.19	5.0
83.204	6.0
83.219	3.0
83.234	4.0
83.249	3.0
83.264	3.0
83.279	3.0
83.294	2.0
83.309	7.0
83.324	4.0
83.339	3.0
83.353	3.0
83.368	3.0
83.383	0.0
83.398	2.0
83.413	2.0
83.428	5.0
83.443	1.0
83.458	0.0
83.473	2.0
83.488	3.0
83.503	6.0
83.517	5.0
83.532	2.0
83.547	5.0
83.562	2.0
83.577	2.0
83.592	2.0
83.607	5.0
83.622	6.0
83.637	5.0
83.652	1.0
83.667	3.0
83.682	4.0
83.697	0.0
83.712	2.0
83.727	1.0
83.741	3.0
83.756	2.0
83.771	1.0
83.786	2.0
83.801	2.0
83.816	4.0
83.831	3.0
83.846	2.0
83.861	2.0
83.876	3.0
83.891	6.0
83.906	5.0
83.921	4.0
83.936	2.0
83.951	5.0
83.966	5.0
83.981	1.0
83.996	4.0
84.011	1.0
84.026	5.0
84.041	6.0
84.056	1.0
84.071	4.0
84.086	0.0
84.101	6.0
84.116	3.0
84.131	4.0
84.146	2.0
84.161	1.0
84.176	6.0
84.191	4.0
84.206	4.0
84.221	3.0
84.236	4.0
84.251	5.0
84.266	4.0
84.281	5.0
84.296	1.0
84.311	4.0
84.326	3.0
84.341	6.0
84.356	3.0
84.371	4.0
84.386	3.0
84.401	1.0
84.416	3.0
84.431	1.0
84.446	2.0
84.461	7.0
84.476	2.0
84.492	6.0
84.507	6.0
84.522	2.0
84.537	2.0
84.552	4.0
84.567	4.0
84.582	3.0
84.597	5.0
84.612	2.0
84.627	4.0
84.642	4.0
84.657	4.0
84.672	3.0
84.687	2.0
84.702	1.0
84.717	3.0
84.733	3.0
84.748	5.0
84.763	1.0
84.778	4.0
84.793	0.0
84.808	3.0
84.823	4.0
84.838	2.0
84.853	2.0
84.868	6.0
84.883	2.0
84.898	2.0
84.913	3.0
84.929	3.0
84.944	3.0
84.959	1.0
84.974	3.0
84.989	5.0
85.004	1.0
85.019	4.0
85.034	6.0
85.049	1.0
85.064	0.0
85.079	3.0
85.094	3.0
85.11	4.0
85.125	2.0
85.14	3.0
85.155	2.0
85.17	4.0
85.185	2.0
85.2	3.0
85.215	5.0
85.23	4.0
85.245	4.0
85.26	1.0
85.276	3.0
85.291	5.0
85.306	1.0
85.321	2.0
85.336	4.0
85.351	2.0
85.366	4.0
85.381	1.0
85.396	2.0
85.411	2.0
85.426	3.0
85.441	4.0
85.457	4.0
85.472	4.0
85.487	4.0
85.502	2.0
85.517	4.0
85.532	4.0
85.547	5.0
85.562	2.0
85.577	3.0
85.592	3.0
85.607	5.0
85.622	3.0
85.637	1.0
85.653	1.0
85.668	3.0
85.683	4.0
85.698	2.0
85.713	3.0
85.728	3.0
85.743	6.0
85.758	6.0
85.773	4.0
85.788	4.0
85.803	4.0
85.818	2.0
85.833	4.0
85.848	4.0
85.863	4.0
85.879	2.0
85.894	4.0
85.909	1.0
85.924	3.0
85.939	3.0
85.954	3.0
85.969	7.0
85.984	5.0
85.999	1.0
86.014	2.0
86.029	6.0
86.044	3.0
86.059	5.0
86.074	4.0
86.089	2.0
86.104	3.0
86.119	2.0
86.134	3.0
86.149	3.0
86.164	2.0
86.179	1.0
86.194	3.0
86.209	3.0
86.224	1.0
86.239	2.0
86.254	6.0
86.269	1.0
86.284	3.0
86.299	3.0
86.314	1.0
86.33	3.0
86.345	3.0
86.36	4.0
86.375	1.0
86.39	3.0
86.405	2.0
86.42	3.0
86.435	1.0
86.45	6.0
86.465	3.0
86.48	3.0
86.495	2.0
86.51	2.0
86.525	4.0
86.54	0.0
86.555	3.0
86.57	3.0
86.585	1.0
86.6	3.0
86.615	1.0
86.63	3.0
86.645	4.0
86.659	3.0
86.674	6.0
86.689	0.0
86.704	4.0
86.719	3.0
86.734	9.0
86.749	0.0
86.764	3.0
86.779	2.0
86.794	1.0
86.809	5.0
86.824	4.0
86.839	5.0
86.854	3.0
86.869	0.0
86.884	4.0
86.899	1.0
86.914	5.0
86.929	5.0
86.944	5.0
86.959	5.0
86.974	4.0
86.989	4.0
87.004	4.0
87.019	3.0
87.034	3.0
87.049	4.0
87.064	4.0
87.079	3.0
87.094	3.0
87.109	4.0
87.124	1.0
87.139	2.0
87.154	4.0
87.169	3.0
87.184	6.0
87.199	0.0
87.214	0.0
87.229	3.0
87.244	6.0
87.259	1.0
87.274	5.0
87.289	2.0
87.304	5.0
87.319	2.0
87.334	5.0
87.349	1.0
87.364	3.0
87.379	1.0
87.394	2.0
87.409	2.0
87.424	5.0
87.438	2.0
87.453	2.0
87.468	4.0
87.483	5.0
87.498	2.0
87.513	6.0
87.528	3.0
87.543	1.0
87.558	6.0
87.573	0.0
87.588	4.0
87.603	3.0
87.618	3.0
87.633	1.0
87.648	5.0
87.663	4.0
87.678	2.0
87.693	3.0
87.708	4.0
87.723	7.0
87.738	8.0
87.753	3.0
87.768	4.0
87.783	2.0
87.798	3.0
87.813	6.0
87.828	2.0
87.843	4.0
87.858	4.0
87.873	3.0
87.888	2.0
87.903	2.0
87.918	5.0
87.933	0.0
87.948	4.0
87.963	4.0
87.978	6.0
87.993	4.0
88.008	3.0
88.023	3.0
88.038	3.0
88.053	4.0
88.068	2.0
88.083	0.0
88.098	3.0
88.113	6.0
88.128	3.0
88.143	5.0
88.158	1.0
88.174	7.0
88.189	1.0
88.204	3.0
88.219	7.0
88.234	0.0
88.249	4.0
88.264	1.0
88.279	3.0
88.294	7.0
88.309	5.0
88.324	3.0
88.339	3.0
88.354	6.0
88.369	2.0
88.384	5.0
88.399	2.0
88.414	2.0
88.429	2.0
88.444	6.0
88.459	2.0
88.474	4.0
88.489	5.0
88.504	5.0
88.519	4.0
88.534	4.0
88.549	4.0
88.564	1.0
88.58	3.0
88.595	4.0
88.61	4.0
88.625	0.0
88.64	4.0
88.655	8.0
88.67	1.0
88.685	3.0
88.7	0.0
88.715	2.0
88.73	4.0
88.745	2.0
88.76	3.0
88.775	3.0
88.79	5.0
88.805	3.0
88.82	2.0
88.835	4.0
88.85	3.0
88.865	3.0
88.88	4.0
88.895	4.0
88.911	2.0
88.926	3.0
88.941	4.0
88.956	5.0
88.971	3.0
88.986	4.0
89.001	6.0
89.016	1.0
89.031	0.0
89.046	3.0
89.061	1.0
89.076	5.0
89.091	1.0
89.106	3.0
89.121	2.0
89.136	2.0
89.151	7.0
89.166	5.0
89.181	1.0
89.196	3.0
89.211	4.0
89.227	7.0
89.242	2.0
89.257	4.0
89.272	4.0
89.287	4.0
89.302	4.0
89.317	5.0
89.332	4.0
89.347	7.0
89.362	5.0
89.377	4.0
89.392	2.0
89.407	3.0
89.422	3.0
89.437	2.0
89.452	1.0
89.467	1.0
89.482	1.0
89.497	2.0
89.512	2.0
89.527	1.0
89.542	3.0
89.557	3.0
89.572	2.0
89.587	6.0
89.602	1.0
89.617	2.0
89.632	3.0
89.647	3.0
89.662	4.0
89.677	1.0
89.693	1.0
89.708	4.0
89.723	3.0
89.738	0.0
89.753	3.0
89.768	3.0
89.783	3.0
89.798	2.0
89.813	4.0
89.828	2.0
89.843	2.0
89.858	2.0
89.873	3.0
89.888	3.0
89.903	2.0
89.918	6.0
89.933	4.0
89.948	4.0
89.963	3.0
89.978	1.0
89.993	4.0
90.008	3.0
90.023	4.0
90.038	3.0
90.053	4.0
90.068	0.0
90.083	4.0
90.097	6.0
90.112	4.0
90.127	5.0
90.142	3.0
90.157	3.0
90.172	3.0
90.187	0.0
90.202	6.0
90.217	2.0
90.232	3.0
90.247	5.0
90.262	4.0
90.277	5.0
90.292	6.0
90.307	6.0
90.322	3.0
90.337	4.0
90.352	4.0
90.367	1.0
90.382	2.0
90.397	4.0
90.412	5.0
90.427	4.0
90.442	6.0
90.457	2.0
90.472	1.0
90.487	5.0
90.501	1.0
90.516	1.0
90.531	1.0
90.546	1.0
90.561	0.0
90.576	3.0
90.591	4.0
90.606	2.0
90.621	2.0
90.636	1.0
90.651	0.0
90.666	3.0
90.681	5.0
90.696	1.0
90.711	2.0
90.726	1.0
90.741	1.0
90.755	3.0
90.77	1.0
90.785	1.0
90.8	1.0
90.815	3.0
90.83	3.0
90.845	4.0
90.86	2.0
90.875	3.0
90.89	1.0
90.905	2.0
90.92	3.0
90.935	8.0
90.95	5.0
90.965	3.0
90.979	3.0
90.994	6.0
91.009	2.0
91.024	4.0
91.039	3.0
91.054	5.0
91.069	1.0
91.084	6.0
91.099	1.0
91.114	4.0
91.129	3.0
91.144	5.0
91.159	2.0
91.174	1.0
91.188	2.0
91.203	7.0
91.218	6.0
91.233	5.0
91.248	3.0
91.263	3.0
91.278	4.0
91.293	3.0
91.308	3.0
91.323	4.0
91.338	3.0
91.353	4.0
91.368	0.0
91.383	4.0
91.398	3.0
91.412	1.0
91.427	6.0
91.442	3.0
91.457	1.0
91.472	1.0
91.487	8.0
91.502	3.0
91.517	0.0
91.532	5.0
91.547	3.0
91.562	2.0
91.577	3.0
91.592	2.0
91.607	2.0
91.622	1.0
91.637	3.0
91.652	1.0
91.666	5.0
91.681	3.0
91.696	2.0
91.711	3.0
91.726	1.0
91.741	2.0
91.756	2.0
91.771	1.0
91.786	5.0
91.801	3.0
91.816	2.0
91.831	3.0
91.846	2.0
91.861	4.0
91.876	2.0
91.891	0.0
91.906	2.0
91.921	2.0
91.936	2.0
91.951	3.0
91.966	2.0
91.981	1.0
91.995	4.0
92.01	2.0
92.025	5.0
92.04	5.0
92.055	4.0
92.07	4.0
92.085	3.0
92.1	2.0
92.115	5.0
92.13	1.0
92.145	7.0
92.16	2.0
92.175	2.0
92.19	3.0
92.205	3.0
92.22	1.0
92.235	1.0
92.25	3.0
92.265	5.0
92.28	1.0
92.295	3.0
92.31	5.0
92.325	3.0
92.34	5.0
92.355	2.0
92.37	2.0
92.385	5.0
92.4	2.0
92.415	4.0
92.43	3.0
92.445	2.0
92.46	3.0
92.475	2.0
92.49	3.0
92.505	2.0
92.52	3.0
92.535	1.0
92.55	0.0
92.565	5.0
92.58	4.0
92.595	2.0
92.61	2.0
92.625	5.0
92.64	3.0
92.655	2.0
92.67	7.0
92.685	2.0
92.7	1.0
92.715	1.0
92.73	6.0
92.745	0.0
92.76	2.0
92.775	3.0
92.79	3.0
92.805	4.0
92.82	0.0
92.835	2.0
92.85	3.0
92.865	4.0
92.88	3.0
92.895	4.0
92.91	2.0
92.925	1.0
92.94	2.0
92.955	3.0
92.97	3.0
92.985	3.0
93.0	3.0
93.015	6.0
93.03	1.0
93.045	4.0
93.06	5.0
93.075	0.0
93.09	3.0
93.105	6.0
93.12	5.0
93.135	4.0
93.15	2.0
93.165	0.0
93.18	1.0
93.195	5.0
93.21	6.0
93.225	3.0
93.24	5.0
93.255	1.0
93.27	3.0
93.285	1.0
93.3	4.0
93.315	4.0
93.33	5.0
93.345	1.0
93.36	3.0
93.375	1.0
93.39	4.0
93.405	5.0
93.42	3.0
93.435	4.0
93.45	4.0
93.465	4.0
93.48	5.0
93.495	1.0
93.51	1.0
93.525	3.0
93.54	4.0
93.555	5.0
93.57	3.0
93.585	5.0
93.6	0.0
93.615	4.0
93.63	4.0
93.645	7.0
93.66	2.0
93.675	6.0
93.69	6.0
93.705	1.0
93.72	1.0
93.735	5.0
93.75	6.0
93.765	2.0
93.78	2.0
93.795	1.0
93.81	6.0
93.824	4.0
93.839	5.0
93.854	4.0
93.869	7.0
93.884	3.0
93.899	2.0
93.914	3.0
93.929	3.0
93.944	8.0
93.959	3.0
93.974	4.0
93.989	0.0
94.004	4.0
94.019	4.0
94.034	2.0
94.049	2.0
94.064	2.0
94.079	3.0
94.094	1.0
94.108	0.0
94.123	6.0
94.138	4.0
94.153	3.0
94.168	3.0
94.183	3.0
94.198	3.0
94.213	0.0
94.228	0.0
94.243	3.0
94.258	2.0
94.273	2.0
94.288	5.0
94.302	6.0
94.317	5.0
94.332	2.0
94.347	2.0
94.362	6.0
94.377	4.0
94.392	4.0
94.407	5.0
94.422	6.0
94.437	3.0
94.452	2.0
94.466	6.0
94.481	2.0
94.496	5.0
94.511	4.0
94.526	1.0
94.541	6.0
94.556	3.0
94.571	2.0
94.586	3.0
94.601	5.0
94.615	2.0
94.63	1.0
94.645	6.0
94.66	1.0
94.675	0.0
94.69	3.0
94.705	1.0
94.72	1.0
94.735	2.0
94.749	9.0
94.764	4.0
94.779	5.0
94.794	4.0
94.809	2.0
94.824	2.0
94.839	1.0
94.854	6.0
94.868	6.0
94.883	2.0
94.898	3.0
94.913	4.0
94.928	4.0
94.943	4.0
94.958	2.0
94.973	5.0
94.987	8.0
95.002	3.0
95.017	1.0
95.032	4.0
95.047	6.0
95.062	6.0
95.077	4.0
95.092	3.0
95.106	6.0
95.121	3.0
95.136	2.0
95.151	2.0
95.166	3.0
95.181	1.0
95.196	5.0
95.211	7.0
95.226	5.0
95.24	1.0
95.255	6.0
95.27	6.0
95.285	3.0
95.3	3.0
95.315	5.0
95.33	5.0
95.345	4.0
95.359	4.0
95.374	1.0
95.389	2.0
95.404	0.0
95.419	3.0
95.434	2.0
95.449	3.0
95.464	3.0
95.478	5.0
95.493	3.0
95.508	4.0
95.523	1.0
95.538	0.0
95.553	2.0
95.568	0.0
95.583	6.0
95.597	3.0
95.612	0.0
95.627	1.0
95.642	5.0
95.657	7.0
95.672	0.0
95.687	2.0
95.702	4.0
95.717	2.0
95.731	3.0
95.746	4.0
95.761	5.0
95.776	4.0
95.791	6.0
95.806	0.0
95.821	5.0
95.836	3.0
95.851	4.0
95.866	4.0
95.88	2.0
95.895	3.0
95.91	2.0
95.925	4.0
95.94	3.0
95.955	1.0
95.97	3.0
95.985	1.0
96.0	3.0
96.015	2.0
96.029	3.0
96.044	3.0
96.059	3.0
96.074	3.0
96.089	4.0
96.104	2.0
96.119	1.0
96.134	3.0
96.149	2.0
96.164	5.0
96.179	3.0
96.194	5.0
96.208	2.0
96.223	1.0
96.238	2.0
96.253	2.0
96.268	2.0
96.283	1.0
96.298	3.0
96.313	1.0
96.328	4.0
96.343	4.0
96.358	2.0
96.373	1.0
96.388	4.0
96.403	3.0
96.417	2.0
96.432	6.0
96.447	4.0
96.462	1.0
96.477	2.0
96.492	4.0
96.507	4.0
96.522	4.0
96.537	4.0
96.552	3.0
96.567	2.0
96.582	2.0
96.597	3.0
96.612	2.0
96.627	1.0
96.642	1.0
96.656	5.0
96.671	2.0
96.686	1.0
96.701	2.0
96.716	6.0
96.731	5.0
96.746	4.0
96.761	2.0
96.776	0.0
96.791	3.0
96.806	1.0
96.821	0.0
96.836	4.0
96.851	4.0
96.866	4.0
96.881	6.0
96.896	5.0
96.911	5.0
96.926	4.0
96.94	5.0
96.955	3.0
96.97	5.0
96.985	7.0
97.0	5.0
97.015	2.0
97.03	7.0
97.045	3.0
97.06	1.0
97.075	2.0
97.09	2.0
97.105	2.0
97.12	0.0
97.135	2.0
97.15	3.0
97.165	7.0
97.18	4.0
97.195	3.0
97.21	8.0
97.225	0.0
97.239	1.0
97.254	3.0
97.269	5.0
97.284	3.0
97.299	2.0
97.314	3.0
97.329	5.0
97.344	4.0
97.359	0.0
97.374	0.0
97.389	3.0
97.404	3.0
97.419	1.0
97.434	4.0
97.449	1.0
97.464	4.0
97.479	7.0
97.494	3.0
97.509	4.0
97.524	3.0
97.538	3.0
97.553	3.0
97.568	2.0
97.583	0.0
97.598	5.0
97.613	2.0
97.628	0.0
97.643	3.0
97.658	7.0
97.673	4.0
97.688	8.0
97.703	4.0
97.718	3.0
97.733	2.0
97.748	5.0
97.763	3.0
97.778	4.0
97.792	6.0
97.807	4.0
97.822	3.0
97.837	2.0
97.852	3.0
97.867	2.0
97.882	4.0
97.897	2.0
97.912	0.0
97.927	2.0
97.942	0.0
97.957	2.0
97.972	2.0
97.987	4.0
98.001	6.0
98.016	6.0
98.031	3.0
98.046	2.0
98.061	3.0
98.076	3.0
98.091	4.0
98.106	1.0
98.121	7.0
98.136	4.0
98.151	2.0
98.166	2.0
98.181	6.0
98.195	4.0
98.21	7.0
98.225	3.0
98.24	4.0
98.255	2.0
98.27	2.0
98.285	4.0
98.3	2.0
98.315	2.0
98.33	1.0
98.345	5.0
98.359	5.0
98.374	1.0
98.389	4.0
98.404	2.0
98.419	5.0
98.434	7.0
98.449	2.0
98.464	5.0
98.479	2.0
98.494	2.0
98.508	3.0
98.523	8.0
98.538	2.0
98.553	3.0
98.568	1.0
98.583	4.0
98.598	3.0
98.613	4.0
98.628	1.0
98.642	3.0
98.657	8.0
98.672	4.0
98.687	2.0
98.702	4.0
98.717	4.0
98.732	1.0
98.747	2.0
98.762	2.0
98.776	2.0
98.791	1.0
98.806	3.0
98.821	5.0
98.836	2.0
98.851	2.0
98.866	2.0
98.881	1.0
98.896	2.0
98.91	1.0
98.925	1.0
98.94	1.0
98.955	4.0
98.97	3.0
98.985	1.0
99.0	3.0
99.015	7.0
99.029	5.0
99.044	3.0
99.059	4.0
99.074	5.0
99.089	2.0
99.104	2.0
99.119	3.0
99.133	6.0
99.148	6.0
99.163	3.0
99.178	2.0
99.193	4.0
99.208	3.0
99.223	2.0
99.238	4.0
99.252	7.0
99.267	1.0
99.282	1.0
99.297	4.0
99.312	4.0
99.327	4.0
99.342	6.0
99.356	3.0
99.371	1.0
99.386	3.0
99.401	5.0
99.416	2.0
99.431	4.0
99.446	5.0
99.461	2.0
99.475	4.0
99.49	5.0
99.505	4.0
99.52	5.0
99.535	6.0
99.55	6.0
99.565	3.0
99.579	1.0
99.594	6.0
99.609	2.0
99.624	4.0
99.639	3.0
99.654	5.0
99.669	5.0
99.683	1.0
99.698	5.0
99.713	2.0
99.728	4.0
99.743	5.0
99.758	5.0
99.772	2.0
99.787	1.0
99.802	1.0
99.817	2.0
99.832	2.0
99.847	1.0
99.862	4.0
99.876	1.0
99.891	5.0
99.906	5.0
99.921	2.0
99.936	3.0
99.951	4.0
99.966	9.0
99.98	1.0
99.995	2.0
100.01	4.0
100.025	1.0
100.04	2.0
100.055	5.0
100.069	2.0
100.084	5.0
100.099	4.0
100.114	3.0
100.129	3.0
100.144	3.0
100.159	4.0
100.173	3.0
100.188	2.0
100.203	1.0
100.218	2.0
100.233	2.0
100.248	3.0
100.262	2.0
100.277	8.0
100.292	2.0
100.307	1.0
100.322	2.0
100.337	2.0
100.351	5.0
100.366	4.0
100.381	3.0
100.396	4.0
100.411	2.0
100.426	3.0
100.441	1.0
100.455	0.0
100.47	1.0
100.485	3.0
100.5	4.0
100.515	3.0
100.53	5.0
100.544	1.0
100.559	0.0
100.574	2.0
100.589	4.0
100.604	3.0
100.619	6.0
100.633	6.0
100.648	1.0
100.663	4.0
100.678	1.0
100.693	1.0
100.708	7.0
100.722	2.0
100.737	2.0
100.752	2.0
100.767	1.0
100.782	2.0
100.796	2.0
100.811	3.0
100.826	3.0
100.841	7.0
100.856	3.0
100.871	4.0
100.885	5.0
100.9	7.0
100.915	2.0
100.93	5.0
100.945	3.0
100.96	1.0
100.974	7.0
100.989	3.0
101.004	2.0
101.019	2.0
101.034	4.0
101.048	4.0
101.063	2.0
101.078	2.0
101.093	2.0
101.108	2.0
101.123	6.0
101.137	5.0
101.152	8.0
101.167	4.0
101.182	5.0
101.197	2.0
101.211	5.0
101.226	5.0
101.241	7.0
101.256	3.0
101.271	2.0
101.285	6.0
101.3	4.0
101.315	3.0
101.33	3.0
101.345	7.0
101.359	3.0
101.374	2.0
101.389	3.0
101.404	2.0
101.419	5.0
101.433	2.0
101.448	3.0
101.463	3.0
101.478	2.0
101.493	4.0
101.507	5.0
101.522	4.0
101.537	6.0
101.552	0.0
101.567	1.0
101.581	3.0
101.596	5.0
101.611	3.0
101.626	1.0
101.64	1.0
101.655	5.0
101.67	2.0
101.685	5.0
101.7	0.0
101.714	4.0
101.729	5.0
101.744	3.0
101.759	3.0
101.773	1.0
101.788	7.0
101.803	5.0
101.818	4.0
101.833	5.0
101.847	2.0
101.862	1.0
101.877	3.0
101.892	2.0
101.906	6.0
101.921	4.0
101.936	4.0
101.951	3.0
101.965	3.0
101.98	4.0
101.995	3.0
102.01	3.0
102.025	4.0
102.039	2.0
102.054	2.0
102.069	3.0
102.084	1.0
102.098	1.0
102.113	2.0
102.128	2.0
102.143	1.0
102.157	6.0
102.172	2.0
102.187	2.0
102.202	4.0
102.216	2.0
102.231	3.0
102.246	3.0
102.261	5.0
102.275	3.0
102.29	2.0
102.305	8.0
102.32	2.0
102.334	3.0
102.349	6.0
102.364	3.0
102.378	4.0
102.393	2.0
102.408	4.0
102.423	4.0
102.437	2.0
102.452	1.0
102.467	1.0
102.482	2.0
102.496	1.0
102.511	2.0
102.526	4.0
102.541	7.0
102.555	3.0
102.57	2.0
102.585	2.0
102.6	5.0
102.614	3.0
102.629	2.0
102.644	3.0
102.659	5.0
102.673	3.0
102.688	2.0
102.703	3.0
102.717	4.0
102.732	2.0
102.747	3.0
102.762	3.0
102.776	2.0
102.791	6.0
102.806	5.0
102.821	2.0
102.835	4.0
102.85	7.0
102.865	3.0
102.88	6.0
102.894	6.0
102.909	3.0
102.924	3.0
102.938	2.0
102.953	5.0
102.968	6.0
102.983	2.0
102.997	3.0
103.012	6.0
103.027	3.0
103.042	3.0
103.056	1.0
103.071	0.0
103.086	2.0
103.101	3.0
103.115	0.0
103.13	3.0
103.145	2.0
103.16	3.0
103.174	3.0
103.189	3.0
103.204	1.0
103.219	7.0
103.233	5.0
103.248	1.0
103.263	0.0
103.278	7.0
103.292	1.0
103.307	3.0
103.322	2.0
103.337	2.0
103.351	1.0
103.366	2.0
103.381	2.0
103.396	3.0
103.41	2.0
103.425	4.0
103.44	2.0
103.455	5.0
103.469	4.0
103.484	5.0
103.499	3.0
103.514	3.0
103.529	4.0
103.543	6.0
103.558	1.0
103.573	4.0
103.588	0.0
103.602	2.0
103.617	2.0
103.632	3.0
103.647	5.0
103.661	5.0
103.676	3.0
103.691	4.0
103.706	3.0
103.721	6.0
103.735	5.0
103.75	2.0
103.765	5.0
103.78	4.0
103.795	4.0
103.809	6.0
103.824	2.0
103.839	2.0
103.854	1.0
103.869	3.0
103.883	2.0
103.898	3.0
103.913	3.0
103.928	3.0
103.943	3.0
103.957	0.0
103.972	3.0
103.987	2.0
104.002	3.0
104.017	0.0
104.031	1.0
104.046	3.0
104.061	5.0
104.076	3.0
104.091	2.0
104.106	1.0
104.12	8.0
104.135	1.0
104.15	4.0
104.165	0.0
104.18	2.0
104.195	5.0
104.209	5.0
104.224	3.0
104.239	1.0
104.254	4.0
104.269	2.0
104.284	4.0
104.299	4.0
104.313	4.0
104.328	0.0
104.343	2.0
104.358	1.0
104.373	5.0
104.388	5.0
104.403	2.0
104.417	2.0
104.432	2.0
104.447	6.0
104.462	4.0
104.477	3.0
104.492	2.0
104.507	2.0
104.522	6.0
104.536	1.0
104.551	3.0
104.566	4.0
104.581	1.0
104.596	4.0
104.611	2.0
104.626	6.0
104.641	1.0
104.656	1.0
104.67	3.0
104.685	4.0
104.7	0.0
104.715	2.0
104.73	6.0
104.745	3.0
104.76	5.0
104.775	2.0
104.79	5.0
104.804	7.0
104.819	3.0
104.834	4.0
104.849	3.0
104.864	4.0
104.879	3.0
104.894	6.0
104.909	2.0
104.924	4.0
104.939	3.0
104.954	6.0
104.968	3.0
104.983	5.0
104.998	4.0
105.013	3.0
105.028	3.0
105.043	1.0
105.058	6.0
105.073	7.0
105.088	1.0
105.103	4.0
105.118	2.0
105.133	2.0
105.147	1.0
105.162	3.0
105.177	3.0
105.192	4.0
105.207	1.0
105.222	2.0
105.237	6.0
105.252	5.0
105.267	1.0
105.282	5.0
105.297	5.0
105.312	6.0
105.327	3.0
105.342	3.0
105.356	1.0
105.371	4.0
105.386	2.0
105.401	1.0
105.416	2.0
105.431	4.0
105.446	2.0
105.461	4.0
105.476	2.0
105.491	0.0
105.506	2.0
105.521	5.0
105.536	3.0
105.551	5.0
105.566	7.0
105.581	7.0
105.595	3.0
105.61	1.0
105.625	4.0
105.64	3.0
105.655	1.0
105.67	2.0
105.685	5.0
105.7	1.0
105.715	3.0
105.73	2.0
105.745	1.0
105.76	6.0
105.775	1.0
105.79	3.0
105.805	3.0
105.82	2.0
105.835	3.0
105.85	2.0
105.864	2.0
105.879	4.0
105.894	5.0
105.909	1.0
105.924	7.0
105.939	3.0
105.954	3.0
105.969	2.0
105.984	2.0
105.999	6.0
106.014	2.0
106.029	4.0
106.044	2.0
106.059	4.0
106.074	3.0
106.089	5.0
106.104	2.0
106.119	3.0
106.134	2.0
106.148	7.0
106.163	1.0
106.178	4.0
106.193	3.0
106.208	3.0
106.223	5.0
106.238	2.0
106.253	4.0
106.268	1.0
106.283	1.0
106.298	5.0
106.313	4.0
106.328	3.0
106.343	1.0
106.358	2.0
106.373	3.0
106.388	6.0
106.403	4.0
106.418	3.0
106.432	6.0
106.447	3.0
106.462	3.0
106.477	2.0
106.492	5.0
106.507	4.0
106.522	2.0
106.537	4.0
106.552	4.0
106.567	5.0
106.582	4.0
106.597	1.0
106.612	0.0
106.627	6.0
106.642	4.0
106.657	6.0
106.672	1.0
106.687	3.0
106.701	4.0
106.716	2.0
106.731	5.0
106.746	5.0
106.761	2.0
106.776	5.0
106.791	4.0
106.806	1.0
106.821	0.0
106.836	0.0
106.851	4.0
106.866	2.0
106.881	3.0
106.896	4.0
106.911	5.0
106.926	3.0
106.941	5.0
106.955	2.0
106.97	3.0
106.985	2.0
107.0	1.0
107.015	3.0
107.03	1.0
107.045	2.0
107.06	2.0
107.075	5.0
107.09	2.0
107.105	4.0
107.12	4.0
107.135	1.0
107.15	7.0
107.165	5.0
107.18	4.0
107.194	3.0
107.209	3.0
107.224	3.0
107.239	5.0
107.254	2.0
107.269	2.0
107.284	3.0
107.299	2.0
107.314	3.0
107.329	2.0
107.344	4.0
107.359	7.0
107.374	5.0
107.389	8.0
107.404	4.0
107.418	3.0
107.433	1.0
107.448	3.0
107.463	5.0
107.478	1.0
107.493	2.0
107.508	4.0
107.523	1.0
107.538	3.0
107.553	3.0
107.568	0.0
107.583	7.0
107.598	4.0
107.613	3.0
107.627	3.0
107.642	3.0
107.657	5.0
107.672	3.0
107.687	8.0
107.702	4.0
107.717	2.0
107.732	2.0
107.747	2.0
107.762	3.0
107.777	3.0
107.792	3.0
107.807	4.0
107.821	2.0
107.836	5.0
107.851	4.0
107.866	3.0
107.881	3.0
107.896	3.0
107.911	2.0
107.926	6.0
107.941	6.0
107.956	6.0
107.971	2.0
107.986	7.0
108.0	6.0
108.015	1.0
108.03	4.0
108.045	2.0
108.06	4.0
108.075	4.0
108.09	7.0
108.105	8.0
108.12	5.0
108.135	6.0
108.15	4.0
108.164	2.0
108.179	7.0
108.194	5.0
108.209	7.0
108.224	1.0
108.239	7.0
108.254	3.0
108.269	0.0
108.284	1.0
108.299	1.0
108.313	2.0
108.328	3.0
108.343	4.0
108.358	4.0
108.373	6.0
108.388	0.0
108.403	4.0
108.418	2.0
108.433	2.0
108.448	2.0
108.462	2.0
108.477	1.0
108.492	2.0
108.507	2.0
108.522	4.0
108.537	4.0
108.552	2.0
108.567	4.0
108.582	6.0
108.597	4.0
108.611	1.0
108.626	6.0
108.641	2.0
108.656	1.0
108.671	1.0
108.686	1.0
108.701	3.0
108.716	4.0
108.731	4.0
108.745	6.0
108.76	5.0
108.775	1.0
108.79	4.0
108.805	3.0
108.82	2.0
108.835	2.0
108.85	4.0
108.865	6.0
108.879	2.0
108.894	3.0
108.909	3.0
108.924	6.0
108.939	4.0
108.954	7.0
108.969	4.0
108.984	6.0
108.999	5.0
109.013	3.0
109.028	4.0
109.043	7.0
109.058	1.0
109.073	3.0
109.088	4.0
109.103	3.0
109.118	5.0
109.133	5.0
109.147	1.0
109.162	5.0
109.177	1.0
109.192	1.0
109.207	1.0
109.222	4.0
109.237	3.0
109.252	2.0
109.267	3.0
109.281	0.0
109.296	0.0
109.311	3.0
109.326	2.0
109.341	4.0
109.356	6.0
109.371	3.0
109.386	5.0
109.4	2.0
109.415	6.0
109.43	2.0
109.445	3.0
109.46	3.0
109.475	6.0
109.49	2.0
109.505	1.0
109.52	2.0
109.534	3.0
109.549	3.0
109.564	6.0
109.579	3.0
109.594	4.0
109.609	1.0
109.624	2.0
109.639	4.0
109.653	3.0
109.668	4.0
109.683	1.0
109.698	1.0
109.713	3.0
109.728	8.0
109.743	2.0
109.758	6.0
109.773	3.0
109.787	4.0
109.802	4.0
109.817	4.0
109.832	2.0
109.847	2.0
109.862	5.0
109.877	7.0
109.892	6.0
109.907	6.0
109.921	3.0
109.936	4.0
109.951	4.0
109.966	5.0
109.981	3.0
109.996	4.0
110.011	6.0
110.026	4.0
110.04	3.0
110.055	5.0
110.07	4.0
110.085	3.0
110.1	3.0
110.115	4.0
110.13	2.0
110.145	2.0
110.16	4.0
110.174	6.0
110.189	2.0
110.204	1.0
110.219	4.0
110.234	8.0
110.249	2.0
110.264	3.0
110.279	5.0
110.294	4.0
110.308	2.0
110.323	2.0
110.338	6.0
110.353	2.0
110.368	0.0
110.383	6.0
110.398	1.0
110.413	6.0
110.428	0.0
110.442	0.0
110.457	2.0
110.472	2.0
110.487	5.0
110.502	3.0
110.517	3.0
110.532	5.0
110.547	2.0
110.561	3.0
110.576	2.0
110.591	7.0
110.606	0.0
110.621	3.0
110.636	5.0
110.651	6.0
110.666	6.0
110.681	5.0
110.695	3.0
110.71	6.0
110.725	6.0
110.74	1.0
110.755	4.0
110.77	3.0
110.785	0.0
110.8	2.0
110.815	7.0
110.829	3.0
110.844	6.0
110.859	5.0
110.874	6.0
110.889	5.0
110.904	4.0
110.919	2.0
110.934	4.0
110.948	2.0
110.963	4.0
110.978	2.0
110.993	3.0
111.008	4.0
111.023	7.0
111.038	4.0
111.053	5.0
111.067	4.0
111.082	4.0
111.097	2.0
111.112	4.0
111.127	5.0
111.142	4.0
111.157	4.0
111.172	3.0
111.186	2.0
111.201	4.0
111.216	4.0
111.231	4.0
111.246	6.0
111.261	6.0
111.276	3.0
111.291	3.0
111.305	1.0
111.32	4.0
111.335	4.0
111.35	6.0
111.365	1.0
111.38	5.0
111.395	0.0
111.41	1.0
111.424	3.0
111.439	2.0
111.454	2.0
111.469	3.0
111.484	2.0
111.499	7.0
111.514	5.0
111.528	1.0
111.543	4.0
111.558	2.0
111.573	3.0
111.588	3.0
111.603	1.0
111.618	6.0
111.633	1.0
111.647	3.0
111.662	4.0
111.677	4.0
111.692	3.0
111.707	1.0
111.722	3.0
111.737	5.0
111.751	3.0
111.766	2.0
111.781	6.0
111.796	5.0
111.811	2.0
111.826	1.0
111.84	7.0
111.855	4.0
111.87	4.0
111.885	3.0
111.9	7.0
111.915	5.0
111.93	3.0
111.944	7.0
111.959	3.0
111.974	0.0
111.989	5.0
112.004	2.0
112.019	5.0
112.033	2.0
112.048	5.0
112.063	4.0
112.078	8.0
112.093	4.0
112.108	0.0
112.123	3.0
112.137	3.0
112.152	3.0
112.167	7.0
112.182	4.0
112.197	2.0
112.212	6.0
112.226	4.0
112.241	7.0
112.256	5.0
112.271	2.0
112.286	2.0
112.301	3.0
112.315	3.0
112.33	5.0
112.345	5.0
112.36	4.0
112.375	0.0
112.389	7.0
112.404	7.0
112.419	4.0
112.434	5.0
112.449	2.0
112.464	1.0
112.478	3.0
112.493	4.0
112.508	5.0
112.523	5.0
112.538	2.0
112.553	5.0
112.567	6.0
112.582	4.0
112.597	2.0
112.612	7.0
112.627	3.0
112.642	6.0
112.656	5.0
112.671	2.0
112.686	4.0
112.701	3.0
112.716	8.0
112.73	2.0
112.745	1.0
112.76	7.0
112.775	3.0
112.79	6.0
112.805	4.0
112.819	5.0
112.834	4.0
112.849	1.0
112.864	6.0
112.879	1.0
112.894	3.0
112.908	3.0
112.923	2.0
112.938	4.0
112.953	2.0
112.968	3.0
112.983	4.0
112.997	6.0
113.012	4.0
113.027	5.0
113.042	2.0
113.057	1.0
113.072	4.0
113.086	0.0
113.101	6.0
113.116	4.0
113.131	3.0
113.146	2.0
113.161	6.0
113.175	2.0
113.19	1.0
113.205	3.0
113.22	3.0
113.235	4.0
113.25	1.0
113.265	6.0
113.279	4.0
113.294	3.0
113.309	2.0
113.324	7.0
113.339	2.0
113.354	4.0
113.368	1.0
113.383	3.0
113.398	2.0
113.413	5.0
113.428	2.0
113.443	3.0
113.458	4.0
113.472	8.0
113.487	3.0
113.502	9.0
113.517	4.0
113.532	2.0
113.547	2.0
113.562	3.0
113.576	4.0
113.591	5.0
113.606	4.0
113.621	3.0
113.636	0.0
113.651	3.0
113.666	3.0
113.681	2.0
113.695	3.0
113.71	4.0
113.725	3.0
113.74	3.0
113.755	2.0
113.77	4.0
113.785	6.0
113.8	3.0
113.814	3.0
113.829	2.0
113.844	5.0
113.859	7.0
113.874	4.0
113.889	3.0
113.904	3.0
113.919	7.0
113.934	4.0
113.949	4.0
113.963	3.0
113.978	5.0
113.993	2.0
114.008	3.0
114.023	4.0
114.038	1.0
114.053	2.0
114.068	3.0
114.083	2.0
114.098	5.0
114.113	3.0
114.127	0.0
114.142	3.0
114.157	3.0
114.172	3.0
114.187	6.0
114.202	3.0
114.217	2.0
114.232	4.0
114.247	1.0
114.262	5.0
114.277	0.0
114.292	6.0
114.307	5.0
114.322	2.0
114.337	3.0
114.351	5.0
114.366	3.0
114.381	4.0
114.396	8.0
114.411	6.0
114.426	1.0
114.441	1.0
114.456	3.0
114.471	5.0
114.486	6.0
114.501	6.0
114.516	1.0
114.531	9.0
114.546	7.0
114.561	3.0
114.576	4.0
114.591	3.0
114.606	7.0
114.621	5.0
114.636	5.0
114.65	1.0
114.665	2.0
114.68	6.0
114.695	3.0
114.71	7.0
114.725	1.0
114.74	2.0
114.755	2.0
114.77	4.0
114.785	4.0
114.8	4.0
114.815	6.0
114.83	2.0
114.845	3.0
114.86	3.0
114.875	2.0
114.89	2.0
114.905	2.0
114.92	4.0
114.935	5.0
114.95	5.0
114.965	0.0
114.98	6.0
114.995	4.0
115.009	4.0
115.024	3.0
115.039	2.0
115.054	2.0
115.069	5.0
115.084	6.0
115.099	3.0
115.114	3.0
115.129	10.0
115.144	6.0
115.159	1.0
115.174	2.0
115.189	3.0
115.204	2.0
115.219	4.0
115.234	4.0
115.249	6.0
115.264	1.0
115.279	1.0
115.294	3.0
115.309	7.0
115.323	4.0
115.338	5.0
115.353	2.0
115.368	2.0
115.383	5.0
115.398	2.0
115.413	3.0
115.428	5.0
115.443	2.0
115.458	5.0
115.473	6.0
115.488	4.0
115.503	6.0
115.518	5.0
115.533	3.0
115.548	2.0
115.562	2.0
115.577	3.0
115.592	3.0
115.607	1.0
115.622	3.0
115.637	0.0
115.652	2.0
115.667	3.0
115.682	1.0
115.697	2.0
115.712	2.0
115.727	6.0
115.741	2.0
115.756	3.0
115.771	5.0
115.786	3.0
115.801	4.0
115.816	4.0
115.831	3.0
115.846	6.0
115.861	3.0
115.875	3.0
115.89	6.0
115.905	5.0
115.92	4.0
115.935	1.0
115.95	6.0
115.965	4.0
115.98	5.0
115.995	6.0
116.009	3.0
116.024	4.0
116.039	3.0
116.054	4.0
116.069	1.0
116.084	2.0
116.099	7.0
116.113	5.0
116.128	3.0
116.143	2.0
116.158	5.0
116.173	5.0
116.188	6.0
116.202	1.0
116.217	7.0
116.232	1.0
116.247	2.0
116.262	10.0
116.277	3.0
116.291	5.0
116.306	4.0
116.321	5.0
116.336	3.0
116.351	2.0
116.366	1.0
116.38	3.0
116.395	4.0
116.41	8.0
116.425	6.0
116.44	3.0
116.454	10.0
116.469	1.0
116.484	5.0
116.499	3.0
116.514	6.0
116.528	4.0
116.543	5.0
116.558	2.0
116.573	3.0
116.588	4.0
116.602	4.0
116.617	4.0
116.632	6.0
116.647	4.0
116.662	5.0
116.676	6.0
116.691	5.0
116.706	3.0
116.721	2.0
116.735	3.0
116.75	0.0
116.765	5.0
116.78	3.0
116.795	2.0
116.809	3.0
116.824	8.0
116.839	4.0
116.854	5.0
116.868	2.0
116.883	1.0
116.898	3.0
116.913	0.0
116.927	2.0
116.942	1.0
116.957	6.0
116.972	2.0
116.986	3.0
117.001	3.0
117.016	1.0
117.031	5.0
117.045	3.0
117.06	4.0
117.075	6.0
117.09	10.0
117.104	5.0
117.119	6.0
117.134	2.0
117.149	7.0
117.163	2.0
117.178	1.0
117.193	2.0
117.208	10.0
117.222	4.0
117.237	2.0
117.252	6.0
117.267	1.0
117.281	3.0
117.296	4.0
117.311	3.0
117.325	3.0
117.34	3.0
117.355	5.0
117.37	7.0
117.384	7.0
117.399	1.0
117.414	6.0
117.429	4.0
117.443	4.0
117.458	3.0
117.473	6.0
117.487	2.0
117.502	2.0
117.517	5.0
117.532	5.0
117.546	4.0
117.561	5.0
117.576	4.0
117.59	3.0
117.605	2.0
117.62	4.0
117.635	2.0
117.649	4.0
117.664	5.0
117.679	2.0
117.693	5.0
117.708	7.0
117.723	3.0
117.738	4.0
117.752	3.0
117.767	4.0
117.782	6.0
117.796	6.0
117.811	6.0
117.826	4.0
117.841	5.0
117.855	2.0
117.87	2.0
117.885	5.0
117.899	4.0
117.914	1.0
117.929	3.0
117.944	4.0
117.958	6.0
117.973	2.0
117.988	1.0
118.002	4.0
118.017	2.0
118.032	2.0
118.047	2.0
118.062	7.0
118.077	2.0
118.092	2.0
118.107	2.0
118.121	6.0
118.136	3.0
118.151	4.0
118.166	8.0
118.181	8.0
118.196	1.0
118.211	8.0
118.225	4.0
118.24	6.0
118.255	2.0
118.27	2.0
118.285	2.0
118.3	3.0
118.315	1.0
118.33	5.0
118.344	6.0
118.359	5.0
118.374	5.0
118.389	2.0
118.404	2.0
118.419	4.0
118.434	5.0
118.449	2.0
118.463	3.0
118.478	8.0
118.493	6.0
118.508	2.0
118.523	3.0
118.538	7.0
118.553	5.0
118.567	5.0
118.582	1.0
118.597	4.0
118.612	7.0
118.627	5.0
118.642	1.0
118.657	2.0
118.672	0.0
118.686	7.0
118.701	4.0
118.716	7.0
118.731	4.0
118.746	2.0
118.761	2.0
118.776	1.0
118.791	3.0
118.805	3.0
118.82	4.0
118.835	4.0
118.85	1.0
118.865	2.0
118.88	2.0
118.895	3.0
118.909	4.0
118.924	6.0
118.939	4.0
118.954	5.0
118.969	6.0
118.984	2.0
118.999	5.0
119.014	4.0
119.028	2.0
119.043	6.0
119.058	2.0
119.073	5.0
119.088	2.0
119.103	4.0
119.118	1.0
119.133	1.0
119.147	2.0
119.162	8.0
119.177	5.0
119.192	3.0
119.207	3.0
119.222	4.0
119.237	5.0
119.251	8.0
119.266	3.0
119.281	3.0
119.296	2.0
119.311	1.0
119.326	3.0
119.341	6.0
119.356	2.0
119.37	1.0
119.385	2.0
119.4	1.0
119.415	2.0
119.43	2.0
119.445	5.0
119.46	4.0
119.475	2.0
119.489	2.0
119.504	2.0
119.519	4.0
119.534	2.0
119.549	0.0
119.564	1.0
119.579	6.0
119.593	1.0
119.608	2.0
119.623	5.0
119.638	1.0
119.653	0.0
119.668	4.0
119.683	1.0
119.698	2.0
119.712	4.0
119.727	4.0
119.742	3.0
119.757	3.0
119.772	7.0
119.787	1.0
119.802	6.0
119.817	3.0
119.831	1.0
119.846	4.0
119.861	5.0
119.876	3.0
119.891	1.0
119.906	2.0
119.921	2.0
119.935	4.0
119.95	2.0
119.965	2.0
119.98	2.0
119.995	3.0
120.01	3.0
120.025	6.0
120.04	2.0
120.054	0.0
120.069	2.0
120.084	0.0
120.099	1.0
120.114	3.0
120.129	3.0
120.144	1.0
120.159	3.0
120.173	0.0
120.188	0.0
120.203	1.0
120.218	0.0
120.233	2.0
120.248	2.0
120.263	0.0
120.277	0.0
120.292	0.0
120.307	3.0
120.322	1.0
120.337	0.0
120.352	0.0
120.367	1.0
120.382	0.0
120.396	0.0
120.411	0.0
120.426	1.0
120.441	0.0
120.456	1.0
120.471	0.0
120.486	0.0
120.501	0.0
120.515	0.0
120.53	1.0
120.545	1.0
120.56	0.0
120.575	0.0
120.59	0.0
120.605	1.0
120.619	0.0
120.634	1.0
120.649	0.0
120.664	0.0
120.679	0.0
120.694	0.0
120.709	0.0
120.724	0.0
120.738	0.0
120.753	0.0
120.768	1.0
120.783	0.0
120.798	0.0
120.813	0.0
120.828	0.0
120.843	0.0
120.857	1.0
120.872	0.0
120.887	0.0
120.902	0.0
120.917	0.0
120.932	0.0
120.947	0.0
120.961	0.0
120.976	0.0
