-1.217	0.0
-1.202	0.0
-1.187	0.0
-1.172	1.0
-1.157	0.0
-1.142	0.0
-1.128	0.0
-1.113	0.0
-1.098	0.0
-1.083	0.0
-1.068	0.0
-1.054	0.0
-1.039	0.0
-1.024	0.0
-1.009	0.0
-0.994	0.0
-0.979	0.0
-0.965	0.0
-0.95	0.0
-0.935	0.0
-0.92	0.0
-0.905	0.0
-0.891	0.0
-0.876	0.0
-0.861	0.0
-0.846	0.0
-0.831	0.0
-0.816	0.0
-0.802	0.0
-0.787	0.0
-0.772	0.0
-0.757	0.0
-0.742	0.0
-0.728	0.0
-0.713	0.0
-0.698	0.0
-0.683	0.0
-0.668	0.0
-0.653	0.0
-0.639	0.0
-0.624	0.0
-0.609	0.0
-0.594	0.0
-0.579	0.0
-0.565	0.0
-0.55	0.0
-0.535	0.0
-0.52	0.0
-0.505	0.0
-0.49	0.0
-0.476	0.0
-0.461	0.0
-0.446	0.0
-0.431	0.0
-0.416	0.0
-0.401	0.0
-0.387	0.0
-0.372	1.0
-0.357	0.0
-0.342	0.0
-0.327	0.0
-0.313	0.0
-0.298	0.0
-0.283	0.0
-0.268	0.0
-0.253	0.0
-0.238	0.0
-0.224	0.0
-0.209	0.0
-0.194	0.0
-0.179	0.0
-0.164	0.0
-0.15	0.0
-0.135	0.0
-0.12	0.0
-0.105	0.0
-0.09	0.0
-0.075	1.0
-0.061	0.0
-0.046	0.0
-0.031	0.0
-0.016	0.0
-0.001	0.0
0.013	0.0
0.028	0.0
0.043	0.0
0.058	0.0
0.073	0.0
0.088	0.0
0.102	0.0
0.117	0.0
0.132	1.0
0.147	0.0
0.162	0.0
0.176	1.0
0.191	0.0
0.206	0.0
0.221	0.0
0.236	0.0
0.251	0.0
0.265	0.0
0.28	0.0
0.295	0.0
0.31	0.0
0.325	0.0
0.339	0.0
0.354	0.0
0.369	0.0
0.384	0.0
0.399	0.0
0.414	0.0
0.428	0.0
0.443	0.0
0.458	0.0
0.473	0.0
0.488	0.0
0.502	0.0
0.517	0.0
0.532	0.0
0.547	0.0
0.562	0.0
0.577	0.0
0.591	0.0
0.606	0.0
0.621	0.0
0.636	1.0
0.651	0.0
0.665	0.0
0.68	0.0
0.695	0.0
0.71	0.0
0.725	0.0
0.74	0.0
0.754	0.0
0.769	0.0
0.784	0.0
0.799	0.0
0.814	0.0
0.828	0.0
0.843	0.0
0.858	0.0
0.873	0.0
0.888	0.0
0.903	0.0
0.917	0.0
0.932	0.0
0.947	0.0
0.962	0.0
0.977	0.0
0.991	0.0
1.006	0.0
1.021	0.0
1.036	0.0
1.051	0.0
1.065	0.0
1.08	0.0
1.095	0.0
1.11	0.0
1.125	0.0
1.14	0.0
1.154	0.0
1.169	0.0
1.184	0.0
1.199	1.0
1.214	0.0
1.228	0.0
1.243	0.0
1.258	0.0
1.273	0.0
1.288	0.0
1.302	0.0
1.317	0.0
1.332	0.0
1.347	0.0
1.362	0.0
1.376	0.0
1.391	0.0
1.406	0.0
1.421	0.0
1.436	0.0
1.45	1.0
1.465	0.0
1.48	0.0
1.495	0.0
1.51	0.0
1.524	0.0
1.539	0.0
1.554	0.0
1.569	0.0
1.584	0.0
1.598	1.0
1.613	0.0
1.628	0.0
1.643	0.0
1.658	0.0
1.672	0.0
1.687	0.0
1.702	1.0
1.717	0.0
1.732	0.0
1.746	0.0
1.761	0.0
1.776	0.0
1.791	0.0
1.806	1.0
1.82	0.0
1.835	0.0
1.85	0.0
1.865	0.0
1.88	0.0
1.894	0.0
1.909	0.0
1.924	0.0
1.939	0.0
1.954	0.0
1.968	0.0
1.983	0.0
1.998	0.0
2.013	0.0
2.028	0.0
2.042	0.0
2.057	0.0
2.072	0.0
2.087	0.0
2.101	0.0
2.116	0.0
2.131	0.0
2.146	0.0
2.161	0.0
2.175	0.0
2.19	0.0
2.205	0.0
2.22	1.0
2.235	0.0
2.249	1.0
2.264	1.0
2.279	0.0
2.294	1.0
2.308	0.0
2.323	0.0
2.338	1.0
2.353	1.0
2.368	3.0
2.382	1.0
2.397	2.0
2.412	1.0
2.427	3.0
2.442	2.0
2.456	0.0
2.471	0.0
2.486	3.0
2.501	1.0
2.515	0.0
2.53	2.0
2.545	1.0
2.56	2.0
2.575	3.0
2.589	2.0
2.604	3.0
2.619	2.0
2.634	4.0
2.649	3.0
2.663	1.0
2.678	0.0
2.693	3.0
2.708	2.0
2.722	3.0
2.737	3.0
2.752	2.0
2.767	2.0
2.782	2.0
2.796	1.0
2.811	3.0
2.826	1.0
2.841	3.0
2.856	1.0
2.87	3.0
2.885	2.0
2.9	1.0
2.915	7.0
2.93	4.0
2.944	6.0
2.959	4.0
2.974	3.0
2.989	5.0
3.004	6.0
3.018	4.0
3.033	1.0
3.048	5.0
3.063	4.0
3.078	3.0
3.092	7.0
3.107	4.0
3.122	2.0
3.137	3.0
3.152	6.0
3.166	3.0
3.181	4.0
3.196	4.0
3.211	7.0
3.226	4.0
3.24	6.0
3.255	4.0
3.27	4.0
3.285	9.0
3.3	7.0
3.315	3.0
3.329	9.0
3.344	4.0
3.359	3.0
3.374	4.0
3.389	8.0
3.403	2.0
3.418	3.0
3.433	2.0
3.448	1.0
3.463	3.0
3.478	6.0
3.492	4.0
3.507	2.0
3.522	4.0
3.537	5.0
3.552	5.0
3.567	3.0
3.581	4.0
3.596	5.0
3.611	8.0
3.626	5.0
3.641	4.0
3.656	3.0
3.671	5.0
3.685	3.0
3.7	10.0
3.715	10.0
3.73	8.0
3.745	5.0
3.76	8.0
3.775	4.0
3.789	3.0
3.804	6.0
3.819	4.0
3.834	4.0
3.849	5.0
3.864	10.0
3.879	6.0
3.894	7.0
3.908	6.0
3.923	4.0
3.938	5.0
3.953	8.0
3.968	5.0
3.983	9.0
3.998	4.0
4.013	5.0
4.027	10.0
4.042	5.0
4.057	5.0
4.072	1.0
4.087	7.0
4.102	11.0
4.117	6.0
4.132	7.0
4.147	9.0
4.162	6.0
4.176	7.0
4.191	7.0
4.206	5.0
4.221	5.0
4.236	3.0
4.251	5.0
4.266	7.0
4.281	5.0
4.296	6.0
4.311	7.0
4.326	7.0
4.341	5.0
4.356	5.0
4.37	10.0
4.385	9.0
4.4	7.0
4.415	5.0
4.43	11.0
4.445	6.0
4.46	10.0
4.475	5.0
4.49	12.0
4.505	7.0
4.52	8.0
4.535	8.0
4.55	4.0
4.565	7.0
4.58	6.0
4.595	4.0
4.61	8.0
4.625	5.0
4.639	12.0
4.654	5.0
4.669	7.0
4.684	12.0
4.699	7.0
4.714	6.0
4.729	3.0
4.744	10.0
4.759	7.0
4.774	5.0
4.789	6.0
4.804	7.0
4.819	2.0
4.834	4.0
4.849	9.0
4.864	7.0
4.879	9.0
4.894	8.0
4.909	5.0
4.924	6.0
4.939	12.0
4.954	6.0
4.969	8.0
4.984	10.0
4.999	7.0
5.014	5.0
5.029	9.0
5.044	12.0
5.059	4.0
5.074	9.0
5.089	7.0
5.104	7.0
5.119	9.0
5.134	6.0
5.149	5.0
5.164	8.0
5.179	5.0
5.194	8.0
5.209	2.0
5.224	9.0
5.239	12.0
5.254	6.0
5.269	6.0
5.284	8.0
5.299	4.0
5.314	3.0
5.329	6.0
5.344	9.0
5.359	7.0
5.374	10.0
5.389	9.0
5.404	11.0
5.419	6.0
5.434	14.0
5.449	10.0
5.464	8.0
5.479	9.0
5.494	2.0
5.509	6.0
5.524	7.0
5.539	5.0
5.554	7.0
5.569	10.0
5.584	9.0
5.599	8.0
5.614	10.0
5.629	9.0
5.644	6.0
5.659	5.0
5.674	8.0
5.689	10.0
5.704	4.0
5.719	4.0
5.734	7.0
5.749	8.0
5.764	12.0
5.779	6.0
5.794	10.0
5.809	7.0
5.824	8.0
5.839	8.0
5.854	9.0
5.869	3.0
5.884	5.0
5.899	4.0
5.914	8.0
5.929	7.0
5.944	7.0
5.959	13.0
5.974	8.0
5.989	7.0
6.004	11.0
6.019	11.0
6.034	6.0
6.049	9.0
6.064	9.0
6.079	7.0
6.094	6.0
6.109	5.0
6.124	5.0
6.139	9.0
6.154	10.0
6.169	4.0
6.184	6.0
6.199	8.0
6.214	11.0
6.229	11.0
6.244	4.0
6.259	9.0
6.274	9.0
6.289	6.0
6.304	12.0
6.319	6.0
6.334	7.0
6.349	8.0
6.364	8.0
6.379	5.0
6.394	10.0
6.409	5.0
6.424	6.0
6.439	11.0
6.454	9.0
6.469	6.0
6.484	8.0
6.499	10.0
6.514	16.0
6.529	8.0
6.544	8.0
6.559	11.0
6.574	8.0
6.589	11.0
6.604	5.0
6.619	11.0
6.634	6.0
6.649	8.0
6.664	10.0
6.679	14.0
6.694	10.0
6.709	4.0
6.724	6.0
6.739	7.0
6.754	7.0
6.769	8.0
6.784	10.0
6.799	8.0
6.814	8.0
6.829	9.0
6.844	9.0
6.859	5.0
6.873	11.0
6.888	6.0
6.903	8.0
6.918	10.0
6.933	16.0
6.948	6.0
6.963	4.0
6.978	11.0
6.993	15.0
7.008	16.0
7.023	7.0
7.038	5.0
7.053	5.0
7.068	7.0
7.083	9.0
7.098	6.0
7.113	6.0
7.128	9.0
7.143	7.0
7.157	8.0
7.172	3.0
7.187	5.0
7.202	8.0
7.217	12.0
7.232	5.0
7.247	8.0
7.262	12.0
7.277	12.0
7.292	7.0
7.307	8.0
7.322	8.0
7.336	11.0
7.351	8.0
7.366	12.0
7.381	7.0
7.396	9.0
7.411	14.0
7.426	8.0
7.441	5.0
7.456	12.0
7.471	13.0
7.485	6.0
7.5	9.0
7.515	7.0
7.53	8.0
7.545	11.0
7.56	15.0
7.575	9.0
7.59	4.0
7.604	10.0
7.619	8.0
7.634	10.0
7.649	8.0
7.664	12.0
7.679	6.0
7.693	9.0
7.708	8.0
7.723	5.0
7.738	7.0
7.753	6.0
7.768	7.0
7.783	12.0
7.797	11.0
7.812	8.0
7.827	11.0
7.842	7.0
7.857	8.0
7.871	10.0
7.886	8.0
7.901	7.0
7.916	5.0
7.931	9.0
7.945	8.0
7.96	11.0
7.975	11.0
7.99	15.0
8.005	5.0
8.019	11.0
8.034	17.0
8.049	5.0
8.064	8.0
8.078	12.0
8.093	9.0
8.108	4.0
8.123	8.0
8.137	10.0
8.152	7.0
8.167	10.0
8.182	6.0
8.196	9.0
8.211	8.0
8.226	10.0
8.241	6.0
8.255	11.0
8.27	14.0
8.285	11.0
8.3	12.0
8.314	7.0
8.329	7.0
8.344	9.0
8.358	13.0
8.373	7.0
8.388	9.0
8.403	6.0
8.417	14.0
8.432	11.0
8.447	5.0
8.461	8.0
8.476	9.0
8.491	11.0
8.505	12.0
8.52	11.0
8.535	8.0
8.55	5.0
8.564	6.0
8.579	5.0
8.594	8.0
8.608	10.0
8.623	11.0
8.638	13.0
8.652	6.0
8.667	9.0
8.682	7.0
8.696	8.0
8.711	9.0
8.726	10.0
8.74	8.0
8.755	8.0
8.77	8.0
8.784	5.0
8.799	5.0
8.814	13.0
8.828	13.0
8.843	8.0
8.858	12.0
8.872	9.0
8.887	18.0
8.902	7.0
8.916	10.0
8.931	3.0
8.946	10.0
8.96	13.0
8.975	9.0
8.99	8.0
9.004	10.0
9.019	12.0
9.034	6.0
9.048	5.0
9.063	9.0
9.077	8.0
9.092	5.0
9.107	7.0
9.121	9.0
9.136	12.0
9.151	6.0
9.165	3.0
9.18	8.0
9.195	8.0
9.209	8.0
9.224	15.0
9.239	9.0
9.253	10.0
9.268	7.0
9.283	5.0
9.297	8.0
9.312	7.0
9.327	8.0
9.341	6.0
9.356	12.0
9.371	5.0
9.385	4.0
9.4	13.0
9.415	9.0
9.429	13.0
9.444	12.0
9.458	9.0
9.473	8.0
9.488	9.0
9.502	8.0
9.517	7.0
9.532	10.0
9.546	6.0
9.561	5.0
9.576	6.0
9.59	7.0
9.605	6.0
9.62	6.0
9.635	9.0
9.649	7.0
9.664	8.0
9.679	6.0
9.693	5.0
9.708	9.0
9.723	8.0
9.737	9.0
9.752	9.0
9.767	11.0
9.781	15.0
9.796	12.0
9.811	6.0
9.825	9.0
9.84	10.0
9.855	5.0
9.87	14.0
9.884	6.0
9.899	11.0
9.914	5.0
9.928	8.0
9.943	13.0
9.958	4.0
9.973	7.0
9.987	8.0
10.002	6.0
10.017	10.0
10.031	8.0
10.046	11.0
10.061	10.0
10.076	11.0
10.09	17.0
10.105	14.0
10.12	5.0
10.135	4.0
10.149	7.0
10.164	4.0
10.179	6.0
10.194	5.0
10.208	13.0
10.223	9.0
10.238	13.0
10.253	6.0
10.267	6.0
10.282	11.0
10.297	7.0
10.312	8.0
10.326	5.0
10.341	7.0
10.356	8.0
10.371	4.0
10.386	6.0
10.4	11.0
10.415	12.0
10.43	12.0
10.445	10.0
10.46	4.0
10.474	10.0
10.489	11.0
10.504	8.0
10.519	16.0
10.533	17.0
10.548	4.0
10.563	8.0
10.578	11.0
10.593	8.0
10.608	12.0
10.622	3.0
10.637	8.0
10.652	10.0
10.667	7.0
10.682	7.0
10.696	6.0
10.711	6.0
10.726	7.0
10.741	6.0
10.756	5.0
10.771	10.0
10.785	3.0
10.8	4.0
10.815	13.0
10.83	13.0
10.845	7.0
10.86	10.0
10.874	10.0
10.889	10.0
10.904	7.0
10.919	7.0
10.934	11.0
10.949	14.0
10.963	12.0
10.978	13.0
10.993	6.0
11.008	7.0
11.023	3.0
11.038	12.0
11.053	10.0
11.067	3.0
11.082	6.0
11.097	9.0
11.112	6.0
11.127	3.0
11.142	9.0
11.157	9.0
11.172	8.0
11.186	5.0
11.201	6.0
11.216	5.0
11.231	8.0
11.246	5.0
11.261	6.0
11.276	10.0
11.291	6.0
11.305	1.0
11.32	10.0
11.335	2.0
11.35	8.0
11.365	5.0
11.38	7.0
11.395	5.0
11.41	6.0
11.424	9.0
11.439	9.0
11.454	7.0
11.469	7.0
11.484	5.0
11.499	9.0
11.514	9.0
11.529	12.0
11.544	8.0
11.558	6.0
11.573	7.0
11.588	10.0
11.603	5.0
11.618	4.0
11.633	11.0
11.648	5.0
11.663	7.0
11.678	9.0
11.693	7.0
11.707	10.0
11.722	10.0
11.737	6.0
11.752	12.0
11.767	6.0
11.782	14.0
11.797	6.0
11.812	5.0
11.827	5.0
11.842	12.0
11.856	11.0
11.871	9.0
11.886	10.0
11.901	9.0
11.916	5.0
11.931	9.0
11.946	11.0
11.961	7.0
11.976	8.0
11.991	10.0
12.006	9.0
12.02	5.0
12.035	12.0
12.05	10.0
12.065	6.0
12.08	10.0
12.095	11.0
12.11	10.0
12.125	11.0
12.14	2.0
12.155	6.0
12.17	10.0
12.184	8.0
12.199	5.0
12.214	11.0
12.229	16.0
12.244	9.0
12.259	16.0
12.274	7.0
12.289	8.0
12.304	11.0
12.319	11.0
12.334	20.0
12.348	7.0
12.363	9.0
12.378	17.0
12.393	9.0
12.408	10.0
12.423	10.0
12.438	7.0
12.453	8.0
12.468	18.0
12.483	8.0
12.498	12.0
12.513	7.0
12.527	8.0
12.542	13.0
12.557	20.0
12.572	13.0
12.587	10.0
12.602	10.0
12.617	15.0
12.632	11.0
12.647	10.0
12.662	13.0
12.677	16.0
12.692	16.0
12.707	20.0
12.721	19.0
12.736	14.0
12.751	16.0
12.766	16.0
12.781	18.0
12.796	15.0
12.811	11.0
12.826	14.0
12.841	17.0
12.856	17.0
12.871	16.0
12.886	17.0
12.9	14.0
12.915	16.0
12.93	17.0
12.945	16.0
12.96	22.0
12.975	21.0
12.99	15.0
13.005	19.0
13.02	13.0
13.035	14.0
13.05	16.0
13.065	17.0
13.08	15.0
13.094	15.0
13.109	14.0
13.124	21.0
13.139	15.0
13.154	17.0
13.169	21.0
13.184	16.0
13.199	22.0
13.214	17.0
13.229	19.0
13.244	22.0
13.259	33.0
13.274	21.0
13.288	21.0
13.303	15.0
13.318	16.0
13.333	23.0
13.348	27.0
13.363	24.0
13.378	23.0
13.393	25.0
13.408	24.0
13.423	38.0
13.438	40.0
13.453	26.0
13.468	30.0
13.482	42.0
13.497	41.0
13.512	35.0
13.527	31.0
13.542	42.0
13.557	43.0
13.572	51.0
13.587	62.0
13.602	64.0
13.617	70.0
13.632	58.0
13.647	78.0
13.662	76.0
13.677	93.0
13.691	81.0
13.706	101.0
13.721	107.0
13.736	89.0
13.751	104.0
13.766	108.0
13.781	113.0
13.796	118.0
13.811	139.0
13.826	107.0
13.841	128.0
13.856	106.0
13.871	117.0
13.885	86.0
13.9	78.0
13.915	86.0
13.93	61.0
13.945	59.0
13.96	47.0
13.975	54.0
13.99	41.0
14.005	39.0
14.02	36.0
14.035	29.0
14.05	26.0
14.065	19.0
14.08	20.0
14.094	24.0
14.109	24.0
14.124	28.0
14.139	16.0
14.154	16.0
14.169	25.0
14.184	25.0
14.199	33.0
14.214	20.0
14.229	15.0
14.244	29.0
14.259	29.0
14.274	20.0
14.288	20.0
14.303	21.0
14.318	25.0
14.333	21.0
14.348	24.0
14.363	19.0
14.378	22.0
14.393	15.0
14.408	24.0
14.423	12.0
14.438	27.0
14.453	12.0
14.468	17.0
14.482	12.0
14.497	15.0
14.512	22.0
14.527	14.0
14.542	17.0
14.557	16.0
14.572	16.0
14.587	13.0
14.602	13.0
14.617	20.0
14.632	17.0
14.647	15.0
14.661	15.0
14.676	16.0
14.691	15.0
14.706	14.0
14.721	14.0
14.736	11.0
14.751	15.0
14.766	16.0
14.781	18.0
14.796	16.0
14.811	20.0
14.826	10.0
14.84	13.0
14.855	16.0
14.87	16.0
14.885	10.0
14.9	15.0
14.915	15.0
14.93	11.0
14.945	14.0
14.96	9.0
14.975	10.0
14.989	10.0
15.004	9.0
15.019	18.0
15.034	19.0
15.049	15.0
15.064	9.0
15.079	20.0
15.094	9.0
15.109	16.0
15.124	14.0
15.138	15.0
15.153	12.0
15.168	13.0
15.183	18.0
15.198	10.0
15.213	9.0
15.228	11.0
15.243	13.0
15.258	3.0
15.272	17.0
15.287	19.0
15.302	24.0
15.317	9.0
15.332	16.0
15.347	23.0
15.362	14.0
15.377	10.0
15.391	14.0
15.406	16.0
15.421	13.0
15.436	14.0
15.451	16.0
15.466	18.0
15.481	19.0
15.496	20.0
15.51	13.0
15.525	7.0
15.54	12.0
15.555	11.0
15.57	11.0
15.585	16.0
15.6	14.0
15.614	17.0
15.629	17.0
15.644	14.0
15.659	15.0
15.674	12.0
15.689	14.0
15.704	17.0
15.718	17.0
15.733	16.0
15.748	8.0
15.763	18.0
15.778	16.0
15.793	12.0
15.808	9.0
15.822	17.0
15.837	14.0
15.852	12.0
15.867	12.0
15.882	13.0
15.897	14.0
15.911	20.0
15.926	20.0
15.941	20.0
15.956	18.0
15.971	9.0
15.986	16.0
16.0	13.0
16.015	17.0
16.03	12.0
16.045	14.0
16.06	17.0
16.074	11.0
16.089	6.0
16.104	18.0
16.119	11.0
16.134	14.0
16.149	17.0
16.163	15.0
16.178	12.0
16.193	11.0
16.208	15.0
16.223	15.0
16.237	10.0
16.252	13.0
16.267	21.0
16.282	28.0
16.297	10.0
16.311	13.0
16.326	17.0
16.341	11.0
16.356	14.0
16.37	9.0
16.385	16.0
16.4	15.0
16.415	23.0
16.43	15.0
16.444	11.0
16.459	16.0
16.474	14.0
16.489	18.0
16.504	17.0
16.518	16.0
16.533	11.0
16.548	12.0
16.563	11.0
16.577	18.0
16.592	13.0
16.607	12.0
16.622	16.0
16.637	16.0
16.651	13.0
16.666	30.0
16.681	24.0
16.696	28.0
16.71	30.0
16.725	35.0
16.74	26.0
16.755	31.0
16.77	35.0
16.784	32.0
16.799	34.0
16.814	43.0
16.829	45.0
16.843	33.0
16.858	37.0
16.873	53.0
16.888	60.0
16.902	73.0
16.917	69.0
16.932	68.0
16.947	72.0
16.961	64.0
16.976	70.0
16.991	67.0
17.006	61.0
17.021	58.0
17.035	59.0
17.05	51.0
17.065	59.0
17.08	38.0
17.094	30.0
17.109	34.0
17.124	32.0
17.139	17.0
17.153	16.0
17.168	22.0
17.183	23.0
17.198	19.0
17.212	14.0
17.227	17.0
17.242	12.0
17.257	16.0
17.271	15.0
17.286	10.0
17.301	15.0
17.316	14.0
17.33	14.0
17.345	15.0
17.36	14.0
17.375	17.0
17.39	15.0
17.404	14.0
17.419	9.0
17.434	15.0
17.449	12.0
17.463	11.0
17.478	17.0
17.493	8.0
17.508	13.0
17.522	10.0
17.537	15.0
17.552	17.0
17.567	13.0
17.581	11.0
17.596	14.0
17.611	14.0
17.626	11.0
17.641	13.0
17.655	12.0
17.67	14.0
17.685	12.0
17.7	11.0
17.714	14.0
17.729	9.0
17.744	10.0
17.759	12.0
17.773	17.0
17.788	10.0
17.803	10.0
17.818	5.0
17.833	20.0
17.847	18.0
17.862	14.0
17.877	11.0
17.892	13.0
17.906	6.0
17.921	18.0
17.936	7.0
17.951	20.0
17.966	14.0
17.98	11.0
17.995	8.0
18.01	6.0
18.025	7.0
18.04	16.0
18.054	17.0
18.069	17.0
18.084	8.0
18.099	9.0
18.114	15.0
18.128	14.0
18.143	14.0
18.158	5.0
18.173	15.0
18.188	13.0
18.202	10.0
18.217	14.0
18.232	9.0
18.247	15.0
18.262	13.0
18.276	7.0
18.291	8.0
18.306	8.0
18.321	13.0
18.336	15.0
18.35	11.0
18.365	5.0
18.38	9.0
18.395	11.0
18.41	9.0
18.424	5.0
18.439	14.0
18.454	12.0
18.469	11.0
18.484	7.0
18.498	7.0
18.513	5.0
18.528	11.0
18.543	15.0
18.558	8.0
18.573	17.0
18.587	10.0
18.602	9.0
18.617	14.0
18.632	9.0
18.647	13.0
18.661	14.0
18.676	11.0
18.691	9.0
18.706	12.0
18.721	10.0
18.736	11.0
18.75	15.0
18.765	13.0
18.78	7.0
18.795	12.0
18.81	12.0
18.825	11.0
18.839	7.0
18.854	9.0
18.869	11.0
18.884	14.0
18.899	9.0
18.913	11.0
18.928	14.0
18.943	14.0
18.958	13.0
18.973	6.0
18.988	7.0
19.002	4.0
19.017	8.0
19.032	18.0
19.047	12.0
19.062	18.0
19.077	14.0
19.091	17.0
19.106	8.0
19.121	11.0
19.136	13.0
19.151	18.0
19.165	12.0
19.18	21.0
19.195	11.0
19.21	14.0
19.225	10.0
19.24	10.0
19.254	15.0
19.269	10.0
19.284	13.0
19.299	20.0
19.314	14.0
19.329	23.0
19.343	10.0
19.358	20.0
19.373	11.0
19.388	20.0
19.403	15.0
19.417	27.0
19.432	22.0
19.447	20.0
19.462	29.0
19.477	20.0
19.492	26.0
19.506	32.0
19.521	32.0
19.536	42.0
19.551	45.0
19.566	49.0
19.58	40.0
19.595	32.0
19.61	33.0
19.625	37.0
19.64	35.0
19.655	54.0
19.669	41.0
19.684	25.0
19.699	21.0
19.714	26.0
19.729	29.0
19.743	21.0
19.758	19.0
19.773	14.0
19.788	20.0
19.803	17.0
19.817	15.0
19.832	16.0
19.847	14.0
19.862	13.0
19.877	10.0
19.891	11.0
19.906	9.0
19.921	12.0
19.936	9.0
19.951	16.0
19.965	15.0
19.98	12.0
19.995	12.0
20.01	12.0
20.025	10.0
20.039	14.0
20.054	9.0
20.069	15.0
20.084	7.0
20.099	4.0
20.113	11.0
20.128	11.0
20.143	15.0
20.158	12.0
20.173	10.0
20.187	14.0
20.202	16.0
20.217	11.0
20.232	9.0
20.246	7.0
20.261	15.0
20.276	10.0
20.291	7.0
20.306	11.0
20.32	11.0
20.335	13.0
20.35	9.0
20.365	8.0
20.38	7.0
20.394	10.0
20.409	14.0
20.424	10.0
20.439	13.0
20.453	13.0
20.468	8.0
20.483	12.0
20.498	14.0
20.513	9.0
20.527	11.0
20.542	8.0
20.557	11.0
20.572	15.0
20.586	9.0
20.601	10.0
20.616	8.0
20.631	12.0
20.646	5.0
20.66	18.0
20.675	8.0
20.69	16.0
20.705	11.0
20.719	11.0
20.734	10.0
20.749	22.0
20.764	7.0
20.779	8.0
20.793	6.0
20.808	13.0
20.823	10.0
20.838	7.0
20.853	9.0
20.867	12.0
20.882	14.0
20.897	10.0
20.912	10.0
20.926	10.0
20.941	14.0
20.956	10.0
20.971	17.0
20.986	5.0
21.0	9.0
21.015	13.0
21.03	9.0
21.045	6.0
21.06	14.0
21.074	10.0
21.089	9.0
21.104	8.0
21.119	4.0
21.134	12.0
21.148	14.0
21.163	14.0
21.178	9.0
21.193	7.0
21.208	12.0
21.222	9.0
21.237	10.0
21.252	10.0
21.267	8.0
21.282	16.0
21.296	13.0
21.311	13.0
21.326	12.0
21.341	10.0
21.356	7.0
21.37	11.0
21.385	10.0
21.4	12.0
21.415	13.0
21.43	10.0
21.444	10.0
21.459	10.0
21.474	13.0
21.489	6.0
21.504	9.0
21.519	17.0
21.533	12.0
21.548	13.0
21.563	7.0
21.578	12.0
21.593	9.0
21.608	18.0
21.622	12.0
21.637	18.0
21.652	20.0
21.667	13.0
21.682	16.0
21.697	20.0
21.712	18.0
21.726	20.0
21.741	26.0
21.756	24.0
21.771	30.0
21.786	33.0
21.801	52.0
21.816	35.0
21.83	38.0
21.845	36.0
21.86	58.0
21.875	57.0
21.89	71.0
21.905	68.0
21.92	74.0
21.935	77.0
21.949	67.0
21.964	80.0
21.979	67.0
21.994	82.0
22.009	71.0
22.024	62.0
22.039	69.0
22.054	59.0
22.069	43.0
22.083	50.0
22.098	40.0
22.113	46.0
22.128	30.0
22.143	32.0
22.158	26.0
22.173	21.0
22.188	22.0
22.203	13.0
22.218	22.0
22.233	13.0
22.248	12.0
22.262	18.0
22.277	13.0
22.292	15.0
22.307	11.0
22.322	14.0
22.337	16.0
22.352	9.0
22.367	9.0
22.382	10.0
22.397	10.0
22.412	12.0
22.427	13.0
22.442	11.0
22.457	13.0
22.472	17.0
22.487	9.0
22.502	15.0
22.516	13.0
22.531	10.0
22.546	3.0
22.561	18.0
22.576	12.0
22.591	12.0
22.606	6.0
22.621	15.0
22.636	8.0
22.651	10.0
22.666	15.0
22.681	12.0
22.696	12.0
22.711	12.0
22.726	10.0
22.741	14.0
22.756	8.0
22.771	8.0
22.786	11.0
22.801	10.0
22.816	10.0
22.831	11.0
22.846	12.0
22.861	13.0
22.876	8.0
22.891	8.0
22.906	18.0
22.92	5.0
22.935	11.0
22.95	12.0
22.965	9.0
22.98	8.0
22.995	10.0
23.01	9.0
23.025	14.0
23.04	9.0
23.055	13.0
23.07	14.0
23.085	8.0
23.1	9.0
23.115	6.0
23.13	6.0
23.145	8.0
23.16	2.0
23.175	9.0
23.19	9.0
23.205	5.0
23.22	7.0
23.235	11.0
23.25	7.0
23.265	6.0
23.28	10.0
23.295	11.0
23.31	11.0
23.325	5.0
23.34	8.0
23.355	7.0
23.37	8.0
23.384	10.0
23.399	8.0
23.414	13.0
23.429	19.0
23.444	13.0
23.459	6.0
23.474	12.0
23.489	10.0
23.504	10.0
23.519	17.0
23.534	13.0
23.549	12.0
23.564	10.0
23.579	12.0
23.594	11.0
23.609	15.0
23.624	11.0
23.639	7.0
23.654	5.0
23.668	8.0
23.683	10.0
23.698	10.0
23.713	9.0
23.728	8.0
23.743	11.0
23.758	13.0
23.773	7.0
23.788	15.0
23.803	12.0
23.818	11.0
23.833	12.0
23.848	15.0
23.862	19.0
23.877	12.0
23.892	15.0
23.907	19.0
23.922	23.0
23.937	17.0
23.952	32.0
23.967	31.0
23.982	30.0
23.997	37.0
24.011	39.0
24.026	44.0
24.041	51.0
24.056	48.0
24.071	52.0
24.086	56.0
24.101	45.0
24.116	41.0
24.131	34.0
24.145	43.0
24.16	38.0
24.175	38.0
24.19	27.0
24.205	38.0
24.22	28.0
24.235	31.0
24.249	31.0
24.264	20.0
24.279	17.0
24.294	24.0
24.309	17.0
24.324	15.0
24.338	17.0
24.353	15.0
24.368	10.0
24.383	9.0
24.398	8.0
24.413	17.0
24.428	17.0
24.442	12.0
24.457	15.0
24.472	8.0
24.487	14.0
24.502	15.0
24.516	9.0
24.531	15.0
24.546	10.0
24.561	5.0
24.576	18.0
24.591	10.0
24.605	8.0
24.62	14.0
24.635	7.0
24.65	7.0
24.665	13.0
24.679	13.0
24.694	4.0
24.709	8.0
24.724	13.0
24.739	7.0
24.753	10.0
24.768	10.0
24.783	13.0
24.798	15.0
24.813	11.0
24.827	4.0
24.842	14.0
24.857	11.0
24.872	14.0
24.886	5.0
24.901	9.0
24.916	10.0
24.931	11.0
24.946	11.0
24.96	15.0
24.975	5.0
24.99	9.0
25.005	7.0
25.019	12.0
25.034	12.0
25.049	10.0
25.064	9.0
25.078	14.0
25.093	8.0
25.108	11.0
25.123	7.0
25.138	16.0
25.152	7.0
25.167	5.0
25.182	12.0
25.197	5.0
25.211	8.0
25.226	12.0
25.241	8.0
25.256	13.0
25.27	11.0
25.285	10.0
25.3	3.0
25.315	10.0
25.329	13.0
25.344	12.0
25.359	13.0
25.374	6.0
25.388	10.0
25.403	11.0
25.418	5.0
25.433	10.0
25.447	6.0
25.462	11.0
25.477	7.0
25.492	13.0
25.506	8.0
25.521	9.0
25.536	5.0
25.55	9.0
25.565	7.0
25.58	17.0
25.595	10.0
25.609	4.0
25.624	8.0
25.639	10.0
25.654	4.0
25.668	10.0
25.683	11.0
25.698	12.0
25.713	13.0
25.727	9.0
25.742	5.0
25.757	8.0
25.772	9.0
25.786	9.0
25.801	5.0
25.816	3.0
25.83	17.0
25.845	6.0
25.86	12.0
25.875	10.0
25.889	12.0
25.904	12.0
25.919	7.0
25.934	3.0
25.948	14.0
25.963	6.0
25.978	6.0
25.992	7.0
26.007	11.0
26.022	6.0
26.037	8.0
26.051	6.0
26.066	17.0
26.081	13.0
26.096	5.0
26.11	4.0
26.125	6.0
26.14	9.0
26.155	12.0
26.169	8.0
26.184	10.0
26.199	10.0
26.213	12.0
26.228	7.0
26.243	20.0
26.258	10.0
26.272	14.0
26.287	8.0
26.302	9.0
26.317	9.0
26.331	4.0
26.346	8.0
26.361	7.0
26.376	13.0
26.39	11.0
26.405	12.0
26.42	10.0
26.434	9.0
26.449	7.0
26.464	5.0
26.479	5.0
26.493	15.0
26.508	9.0
26.523	14.0
26.538	9.0
26.552	8.0
26.567	13.0
26.582	9.0
26.597	11.0
26.611	7.0
26.626	16.0
26.641	10.0
26.656	12.0
26.67	7.0
26.685	4.0
26.7	7.0
26.715	8.0
26.729	5.0
26.744	10.0
26.759	11.0
26.773	12.0
26.788	7.0
26.803	8.0
26.818	15.0
26.832	9.0
26.847	5.0
26.862	10.0
26.877	5.0
26.891	11.0
26.906	12.0
26.921	7.0
26.936	4.0
26.95	9.0
26.965	9.0
26.98	7.0
26.995	9.0
27.01	11.0
27.024	8.0
27.039	4.0
27.054	4.0
27.069	11.0
27.083	10.0
27.098	11.0
27.113	9.0
27.128	12.0
27.142	9.0
27.157	4.0
27.172	9.0
27.187	9.0
27.201	7.0
27.216	7.0
27.231	14.0
27.246	16.0
27.261	8.0
27.275	6.0
27.29	16.0
27.305	13.0
27.32	14.0
27.334	9.0
27.349	7.0
27.364	10.0
27.379	15.0
27.394	11.0
27.408	13.0
27.423	7.0
27.438	7.0
27.453	13.0
27.467	9.0
27.482	13.0
27.497	8.0
27.512	10.0
27.527	9.0
27.541	16.0
27.556	12.0
27.571	12.0
27.586	9.0
27.601	11.0
27.615	8.0
27.63	13.0
27.645	9.0
27.66	14.0
27.675	9.0
27.689	17.0
27.704	10.0
27.719	6.0
27.734	11.0
27.749	18.0
27.763	19.0
27.778	19.0
27.793	21.0
27.808	26.0
27.823	22.0
27.838	23.0
27.852	22.0
27.867	25.0
27.882	20.0
27.897	29.0
27.912	22.0
27.926	17.0
27.941	23.0
27.956	25.0
27.971	26.0
27.986	14.0
28.001	16.0
28.015	17.0
28.03	16.0
28.045	13.0
28.06	21.0
28.075	15.0
28.09	11.0
28.105	20.0
28.119	11.0
28.134	11.0
28.149	13.0
28.164	18.0
28.179	13.0
28.194	10.0
28.208	8.0
28.223	13.0
28.238	15.0
28.253	12.0
28.268	9.0
28.283	17.0
28.298	11.0
28.312	14.0
28.327	14.0
28.342	12.0
28.357	13.0
28.372	15.0
28.387	10.0
28.402	13.0
28.417	11.0
28.431	6.0
28.446	15.0
28.461	13.0
28.476	14.0
28.491	6.0
28.506	11.0
28.521	10.0
28.536	16.0
28.55	13.0
28.565	17.0
28.58	6.0
28.595	12.0
28.61	13.0
28.625	13.0
28.64	7.0
28.655	9.0
28.669	13.0
28.684	15.0
28.699	7.0
28.714	8.0
28.729	8.0
28.744	11.0
28.759	9.0
28.774	8.0
28.788	6.0
28.803	9.0
28.818	9.0
28.833	10.0
28.848	11.0
28.863	11.0
28.878	7.0
28.893	13.0
28.908	13.0
28.922	11.0
28.937	14.0
28.952	10.0
28.967	10.0
28.982	5.0
28.997	10.0
29.012	10.0
29.027	9.0
29.041	12.0
29.056	8.0
29.071	3.0
29.086	15.0
29.101	13.0
29.116	4.0
29.131	11.0
29.146	13.0
29.16	8.0
29.175	9.0
29.19	8.0
29.205	16.0
29.22	11.0
29.235	4.0
29.25	13.0
29.265	10.0
29.279	7.0
29.294	15.0
29.309	10.0
29.324	15.0
29.339	13.0
29.354	11.0
29.369	17.0
29.384	12.0
29.398	10.0
29.413	17.0
29.428	18.0
29.443	17.0
29.458	10.0
29.473	28.0
29.488	22.0
29.502	35.0
29.517	34.0
29.532	33.0
29.547	30.0
29.562	55.0
29.577	48.0
29.592	42.0
29.606	58.0
29.621	43.0
29.636	51.0
29.651	39.0
29.666	42.0
29.681	33.0
29.695	32.0
29.71	24.0
29.725	32.0
29.74	20.0
29.755	31.0
29.77	29.0
29.784	27.0
29.799	22.0
29.814	27.0
29.829	23.0
29.844	25.0
29.859	18.0
29.873	22.0
29.888	22.0
29.903	13.0
29.918	16.0
29.933	23.0
29.947	13.0
29.962	10.0
29.977	20.0
29.992	19.0
30.007	10.0
30.021	8.0
30.036	12.0
30.051	14.0
30.066	19.0
30.081	14.0
30.095	12.0
30.11	11.0
30.125	17.0
30.14	9.0
30.155	12.0
30.169	16.0
30.184	9.0
30.199	17.0
30.214	11.0
30.228	14.0
30.243	11.0
30.258	20.0
30.273	11.0
30.288	6.0
30.302	13.0
30.317	9.0
30.332	13.0
30.347	10.0
30.361	12.0
30.376	8.0
30.391	11.0
30.406	12.0
30.42	6.0
30.435	5.0
30.45	6.0
30.465	11.0
30.479	8.0
30.494	8.0
30.509	15.0
30.524	13.0
30.538	9.0
30.553	14.0
30.568	10.0
30.583	13.0
30.597	7.0
30.612	4.0
30.627	8.0
30.641	15.0
30.656	9.0
30.671	11.0
30.686	8.0
30.7	11.0
30.715	14.0
30.73	10.0
30.745	6.0
30.759	15.0
30.774	12.0
30.789	13.0
30.803	10.0
30.818	13.0
30.833	9.0
30.848	11.0
30.862	12.0
30.877	9.0
30.892	13.0
30.906	13.0
30.921	6.0
30.936	16.0
30.951	12.0
30.965	7.0
30.98	15.0
30.995	11.0
31.009	12.0
31.024	13.0
31.039	12.0
31.053	18.0
31.068	15.0
31.083	21.0
31.098	18.0
31.112	18.0
31.127	25.0
31.142	17.0
31.156	11.0
31.171	28.0
31.186	32.0
31.2	30.0
31.215	25.0
31.23	31.0
31.245	36.0
31.259	42.0
31.274	26.0
31.289	35.0
31.303	27.0
31.318	26.0
31.333	27.0
31.347	18.0
31.362	31.0
31.377	30.0
31.392	26.0
31.406	18.0
31.421	30.0
31.436	35.0
31.45	24.0
31.465	25.0
31.48	22.0
31.494	25.0
31.509	21.0
31.524	20.0
31.538	16.0
31.553	16.0
31.568	13.0
31.583	15.0
31.597	8.0
31.612	9.0
31.627	14.0
31.641	10.0
31.656	10.0
31.671	14.0
31.685	11.0
31.7	12.0
31.715	8.0
31.729	12.0
31.744	15.0
31.759	12.0
31.774	13.0
31.788	7.0
31.803	15.0
31.818	9.0
31.832	9.0
31.847	10.0
31.862	14.0
31.876	12.0
31.891	7.0
31.906	5.0
31.92	17.0
31.935	7.0
31.95	11.0
31.965	14.0
31.979	10.0
31.994	10.0
32.009	13.0
32.023	10.0
32.038	11.0
32.053	15.0
32.067	6.0
32.082	9.0
32.097	10.0
32.112	5.0
32.126	5.0
32.141	7.0
32.156	10.0
32.17	15.0
32.185	8.0
32.2	7.0
32.214	10.0
32.229	13.0
32.244	14.0
32.259	11.0
32.273	15.0
32.288	11.0
32.303	12.0
32.317	8.0
32.332	9.0
32.347	7.0
32.362	10.0
32.376	10.0
32.391	9.0
32.406	10.0
32.42	11.0
32.435	9.0
32.45	7.0
32.465	13.0
32.479	12.0
32.494	11.0
32.509	14.0
32.523	6.0
32.538	12.0
32.553	10.0
32.568	7.0
32.582	12.0
32.597	10.0
32.612	17.0
32.627	11.0
32.641	13.0
32.656	5.0
32.671	22.0
32.685	12.0
32.7	26.0
32.715	20.0
32.73	20.0
32.744	24.0
32.759	20.0
32.774	16.0
32.788	26.0
32.803	23.0
32.818	33.0
32.833	26.0
32.847	18.0
32.862	20.0
32.877	20.0
32.892	24.0
32.906	24.0
32.921	16.0
32.936	17.0
32.951	10.0
32.965	16.0
32.98	11.0
32.995	10.0
33.009	18.0
33.024	20.0
33.039	18.0
33.054	15.0
33.068	19.0
33.083	12.0
33.098	16.0
33.113	12.0
33.127	10.0
33.142	10.0
33.157	8.0
33.172	12.0
33.186	8.0
33.201	10.0
33.216	11.0
33.231	9.0
33.245	9.0
33.26	12.0
33.275	8.0
33.29	12.0
33.304	14.0
33.319	9.0
33.334	7.0
33.349	5.0
33.363	9.0
33.378	11.0
33.393	10.0
33.408	5.0
33.422	14.0
33.437	5.0
33.452	8.0
33.467	12.0
33.481	6.0
33.496	8.0
33.511	10.0
33.526	8.0
33.54	10.0
33.555	16.0
33.57	8.0
33.585	5.0
33.599	7.0
33.614	6.0
33.629	8.0
33.644	3.0
33.658	10.0
33.673	9.0
33.688	13.0
33.703	14.0
33.718	5.0
33.732	11.0
33.747	9.0
33.762	7.0
33.777	8.0
33.791	10.0
33.806	12.0
33.821	4.0
33.836	11.0
33.85	9.0
33.865	10.0
33.88	6.0
33.895	9.0
33.91	7.0
33.924	13.0
33.939	9.0
33.954	6.0
33.969	8.0
33.983	3.0
33.998	6.0
34.013	11.0
34.028	12.0
34.042	9.0
34.057	20.0
34.072	10.0
34.087	9.0
34.102	8.0
34.116	11.0
34.131	14.0
34.146	12.0
34.161	17.0
34.175	7.0
34.19	12.0
34.205	9.0
34.22	10.0
34.235	9.0
34.249	16.0
34.264	13.0
34.279	9.0
34.294	20.0
34.309	12.0
34.323	16.0
34.338	19.0
34.353	14.0
34.368	12.0
34.382	16.0
34.397	12.0
34.412	11.0
34.427	15.0
34.442	8.0
34.456	8.0
34.471	9.0
34.486	11.0
34.501	9.0
34.516	14.0
34.53	10.0
34.545	9.0
34.56	9.0
34.575	8.0
34.59	14.0
34.604	8.0
34.619	12.0
34.634	14.0
34.649	9.0
34.664	12.0
34.678	8.0
34.693	12.0
34.708	8.0
34.723	6.0
34.738	11.0
34.752	5.0
34.767	8.0
34.782	8.0
34.797	7.0
34.812	7.0
34.826	10.0
34.841	10.0
34.856	10.0
34.871	6.0
34.886	12.0
34.9	8.0
34.915	8.0
34.93	5.0
34.945	7.0
34.96	5.0
34.974	12.0
34.989	13.0
35.004	8.0
35.019	11.0
35.034	10.0
35.048	8.0
35.063	5.0
35.078	8.0
35.093	7.0
35.108	11.0
35.122	9.0
35.137	5.0
35.152	9.0
35.167	15.0
35.182	5.0
35.196	6.0
35.211	11.0
35.226	6.0
35.241	6.0
35.256	12.0
35.27	7.0
35.285	5.0
35.3	12.0
35.315	10.0
35.33	7.0
35.344	10.0
35.359	4.0
35.374	6.0
35.389	7.0
35.404	10.0
35.418	12.0
35.433	7.0
35.448	10.0
35.463	11.0
35.478	6.0
35.493	9.0
35.507	11.0
35.522	9.0
35.537	14.0
35.552	7.0
35.567	8.0
35.581	10.0
35.596	14.0
35.611	7.0
35.626	7.0
35.641	9.0
35.655	15.0
35.67	7.0
35.685	7.0
35.7	21.0
35.715	18.0
35.729	18.0
35.744	17.0
35.759	14.0
35.774	19.0
35.789	20.0
35.804	21.0
35.818	13.0
35.833	19.0
35.848	20.0
35.863	7.0
35.878	14.0
35.892	10.0
35.907	14.0
35.922	14.0
35.937	17.0
35.952	17.0
35.966	14.0
35.981	9.0
35.996	9.0
36.011	12.0
36.026	12.0
36.04	11.0
36.055	14.0
36.07	14.0
36.085	8.0
36.1	10.0
36.114	12.0
36.129	10.0
36.144	11.0
36.159	10.0
36.174	8.0
36.189	9.0
36.203	7.0
36.218	14.0
36.233	7.0
36.248	7.0
36.263	10.0
36.277	15.0
36.292	11.0
36.307	6.0
36.322	11.0
36.337	11.0
36.351	15.0
36.366	7.0
36.381	5.0
36.396	8.0
36.411	9.0
36.426	13.0
36.44	7.0
36.455	9.0
36.47	9.0
36.485	5.0
36.5	11.0
36.514	4.0
36.529	8.0
36.544	7.0
36.559	7.0
36.574	8.0
36.589	9.0
36.603	3.0
36.618	5.0
36.633	6.0
36.648	4.0
36.663	9.0
36.677	8.0
36.692	9.0
36.707	4.0
36.722	8.0
36.737	6.0
36.752	10.0
36.766	8.0
36.781	5.0
36.796	9.0
36.811	8.0
36.826	6.0
36.841	6.0
36.855	4.0
36.87	11.0
36.885	8.0
36.9	10.0
36.915	10.0
36.93	9.0
36.944	8.0
36.959	7.0
36.974	8.0
36.989	5.0
37.004	8.0
37.019	10.0
37.033	12.0
37.048	11.0
37.063	17.0
37.078	13.0
37.093	18.0
37.108	17.0
37.123	27.0
37.137	31.0
37.152	23.0
37.167	23.0
37.182	29.0
37.197	19.0
37.212	27.0
37.226	31.0
37.241	20.0
37.256	21.0
37.271	16.0
37.286	19.0
37.301	27.0
37.316	19.0
37.331	21.0
37.345	16.0
37.36	12.0
37.375	24.0
37.39	13.0
37.405	20.0
37.42	19.0
37.435	21.0
37.45	15.0
37.464	10.0
37.479	13.0
37.494	14.0
37.509	12.0
37.524	11.0
37.539	13.0
37.554	4.0
37.569	7.0
37.583	8.0
37.598	7.0
37.613	13.0
37.628	7.0
37.643	2.0
37.658	5.0
37.673	6.0
37.688	10.0
37.703	8.0
37.718	9.0
37.733	2.0
37.747	6.0
37.762	6.0
37.777	8.0
37.792	6.0
37.807	9.0
37.822	7.0
37.837	3.0
37.852	5.0
37.867	7.0
37.882	10.0
37.897	6.0
37.912	10.0
37.927	4.0
37.941	11.0
37.956	9.0
37.971	1.0
37.986	11.0
38.001	8.0
38.016	4.0
38.031	6.0
38.046	7.0
38.061	9.0
38.076	7.0
38.091	3.0
38.106	9.0
38.121	5.0
38.136	6.0
38.151	2.0
38.166	10.0
38.181	7.0
38.196	5.0
38.211	2.0
38.226	5.0
38.241	6.0
38.256	6.0
38.271	11.0
38.285	6.0
38.3	6.0
38.315	4.0
38.33	10.0
38.345	4.0
38.36	10.0
38.375	8.0
38.39	6.0
38.405	9.0
38.42	5.0
38.435	9.0
38.45	9.0
38.465	6.0
38.48	7.0
38.495	3.0
38.51	5.0
38.525	4.0
38.54	10.0
38.555	5.0
38.57	9.0
38.585	6.0
38.6	2.0
38.615	3.0
38.63	6.0
38.645	5.0
38.66	5.0
38.675	2.0
38.69	5.0
38.705	5.0
38.72	4.0
38.735	4.0
38.75	6.0
38.765	9.0
38.78	5.0
38.795	4.0
38.81	6.0
38.825	8.0
38.84	5.0
38.855	9.0
38.87	11.0
38.885	9.0
38.9	4.0
38.915	5.0
38.93	2.0
38.945	5.0
38.96	7.0
38.975	5.0
38.99	8.0
39.005	4.0
39.02	4.0
39.035	6.0
39.05	5.0
39.065	8.0
39.08	4.0
39.095	2.0
39.11	3.0
39.125	8.0
39.14	10.0
39.155	11.0
39.17	3.0
39.185	6.0
39.2	6.0
39.215	9.0
39.23	9.0
39.245	4.0
39.26	9.0
39.275	4.0
39.29	3.0
39.305	2.0
39.32	7.0
39.335	1.0
39.35	5.0
39.365	11.0
39.38	4.0
39.395	6.0
39.409	4.0
39.424	2.0
39.439	13.0
39.454	5.0
39.469	5.0
39.484	6.0
39.499	4.0
39.514	6.0
39.529	2.0
39.544	7.0
39.559	9.0
39.574	4.0
39.589	6.0
39.604	8.0
39.619	6.0
39.634	5.0
39.649	5.0
39.664	1.0
39.678	12.0
39.693	6.0
39.708	6.0
39.723	3.0
39.738	9.0
39.753	3.0
39.768	12.0
39.783	9.0
39.798	10.0
39.813	8.0
39.827	9.0
39.842	7.0
39.857	13.0
39.872	7.0
39.887	9.0
39.902	8.0
39.917	5.0
39.932	4.0
39.947	6.0
39.961	9.0
39.976	7.0
39.991	8.0
40.006	4.0
40.021	7.0
40.036	13.0
40.051	10.0
40.065	10.0
40.08	7.0
40.095	10.0
40.11	7.0
40.125	8.0
40.14	6.0
40.154	6.0
40.169	6.0
40.184	3.0
40.199	6.0
40.214	9.0
40.228	5.0
40.243	8.0
40.258	6.0
40.273	3.0
40.288	6.0
40.302	10.0
40.317	5.0
40.332	4.0
40.347	6.0
40.362	6.0
40.376	8.0
40.391	4.0
40.406	5.0
40.421	5.0
40.436	5.0
40.45	4.0
40.465	6.0
40.48	2.0
40.495	7.0
40.509	8.0
40.524	8.0
40.539	2.0
40.554	7.0
40.568	4.0
40.583	2.0
40.598	8.0
40.613	9.0
40.627	6.0
40.642	9.0
40.657	7.0
40.672	7.0
40.686	1.0
40.701	5.0
40.716	9.0
40.731	5.0
40.745	7.0
40.76	8.0
40.775	7.0
40.79	4.0
40.804	4.0
40.819	8.0
40.834	9.0
40.849	6.0
40.863	4.0
40.878	6.0
40.893	7.0
40.907	1.0
40.922	2.0
40.937	10.0
40.952	9.0
40.966	7.0
40.981	6.0
40.996	12.0
41.011	14.0
41.025	15.0
41.04	18.0
41.055	11.0
41.069	16.0
41.084	18.0
41.099	28.0
41.114	18.0
41.128	23.0
41.143	21.0
41.158	22.0
41.173	20.0
41.187	18.0
41.202	18.0
41.217	14.0
41.231	16.0
41.246	21.0
41.261	12.0
41.276	14.0
41.29	9.0
41.305	9.0
41.32	19.0
41.335	12.0
41.349	5.0
41.364	20.0
41.379	16.0
41.393	13.0
41.408	9.0
41.423	11.0
41.438	12.0
41.452	13.0
41.467	6.0
41.482	13.0
41.497	8.0
41.511	5.0
41.526	5.0
41.541	6.0
41.556	5.0
41.57	9.0
41.585	5.0
41.6	7.0
41.615	7.0
41.629	7.0
41.644	9.0
41.659	5.0
41.674	3.0
41.688	5.0
41.703	7.0
41.718	2.0
41.733	3.0
41.747	6.0
41.762	5.0
41.777	6.0
41.792	4.0
41.806	3.0
41.821	10.0
41.836	7.0
41.851	3.0
41.866	10.0
41.88	6.0
41.895	8.0
41.91	6.0
41.925	7.0
41.939	10.0
41.954	5.0
41.969	5.0
41.984	4.0
41.999	8.0
42.013	7.0
42.028	5.0
42.043	4.0
42.058	3.0
42.073	7.0
42.088	5.0
42.102	4.0
42.117	7.0
42.132	8.0
42.147	6.0
42.162	4.0
42.176	3.0
42.191	4.0
42.206	10.0
42.221	9.0
42.236	9.0
42.251	7.0
42.266	9.0
42.28	8.0
42.295	14.0
42.31	11.0
42.325	11.0
42.34	12.0
42.355	6.0
42.369	16.0
42.384	13.0
42.399	17.0
42.414	22.0
42.429	16.0
42.444	18.0
42.459	8.0
42.474	12.0
42.488	10.0
42.503	7.0
42.518	14.0
42.533	10.0
42.548	17.0
42.563	5.0
42.578	6.0
42.593	13.0
42.608	12.0
42.622	8.0
42.637	14.0
42.652	9.0
42.667	17.0
42.682	7.0
42.697	16.0
42.712	8.0
42.727	8.0
42.742	3.0
42.757	12.0
42.772	5.0
42.786	4.0
42.801	7.0
42.816	6.0
42.831	4.0
42.846	5.0
42.861	7.0
42.876	8.0
42.891	2.0
42.906	6.0
42.921	4.0
42.936	6.0
42.951	4.0
42.966	6.0
42.981	5.0
42.996	4.0
43.011	3.0
43.025	9.0
43.04	3.0
43.055	3.0
43.07	2.0
43.085	5.0
43.1	6.0
43.115	7.0
43.13	5.0
43.145	4.0
43.16	3.0
43.175	4.0
43.19	6.0
43.205	5.0
43.22	7.0
43.235	4.0
43.25	5.0
43.265	4.0
43.28	7.0
43.295	6.0
43.31	9.0
43.325	5.0
43.34	7.0
43.355	10.0
43.37	5.0
43.385	5.0
43.4	3.0
43.415	6.0
43.43	6.0
43.445	4.0
43.46	10.0
43.475	4.0
43.49	3.0
43.505	6.0
43.52	6.0
43.535	7.0
43.55	3.0
43.565	7.0
43.58	6.0
43.595	5.0
43.61	10.0
43.625	9.0
43.64	7.0
43.655	6.0
43.67	6.0
43.685	13.0
43.7	10.0
43.715	13.0
43.73	6.0
43.745	11.0
43.76	9.0
43.775	9.0
43.79	9.0
43.805	7.0
43.82	14.0
43.835	10.0
43.85	12.0
43.865	11.0
43.88	8.0
43.895	5.0
43.91	4.0
43.925	5.0
43.94	3.0
43.955	11.0
43.97	5.0
43.985	6.0
44.0	4.0
44.015	3.0
44.03	4.0
44.045	4.0
44.061	5.0
44.076	2.0
44.091	5.0
44.106	6.0
44.121	7.0
44.136	8.0
44.151	3.0
44.166	6.0
44.181	4.0
44.196	4.0
44.211	7.0
44.226	8.0
44.241	9.0
44.256	5.0
44.271	3.0
44.286	1.0
44.301	2.0
44.316	5.0
44.331	5.0
44.346	9.0
44.361	2.0
44.377	3.0
44.392	7.0
44.407	4.0
44.422	4.0
44.437	4.0
44.452	5.0
44.467	3.0
44.482	5.0
44.497	3.0
44.512	3.0
44.527	3.0
44.542	1.0
44.557	3.0
44.572	2.0
44.587	6.0
44.602	6.0
44.617	3.0
44.632	3.0
44.647	8.0
44.663	2.0
44.678	4.0
44.693	4.0
44.708	9.0
44.723	9.0
44.738	5.0
44.753	13.0
44.768	12.0
44.783	10.0
44.798	13.0
44.813	8.0
44.828	5.0
44.843	9.0
44.858	13.0
44.873	1.0
44.888	6.0
44.903	8.0
44.918	4.0
44.933	11.0
44.948	7.0
44.964	7.0
44.979	7.0
44.994	6.0
45.009	5.0
45.024	9.0
45.039	6.0
45.054	9.0
45.069	8.0
45.084	11.0
45.099	6.0
45.114	4.0
45.129	12.0
45.144	4.0
45.159	6.0
45.174	4.0
45.189	9.0
45.204	9.0
45.219	5.0
45.234	7.0
45.249	5.0
45.264	7.0
45.279	3.0
45.294	6.0
45.309	5.0
45.324	10.0
45.339	9.0
45.354	5.0
45.369	7.0
45.384	4.0
45.399	4.0
45.414	8.0
45.429	5.0
45.444	8.0
45.459	4.0
45.474	2.0
45.489	6.0
45.504	6.0
45.519	5.0
45.534	5.0
45.549	7.0
45.564	3.0
45.579	1.0
45.594	4.0
45.609	5.0
45.624	3.0
45.639	4.0
45.654	6.0
45.669	3.0
45.684	3.0
45.699	7.0
45.714	2.0
45.729	7.0
45.744	4.0
45.759	13.0
45.774	10.0
45.789	4.0
45.804	7.0
45.819	7.0
45.834	5.0
45.849	4.0
45.864	10.0
45.879	12.0
45.894	12.0
45.909	4.0
45.924	11.0
45.939	15.0
45.954	10.0
45.969	18.0
45.984	19.0
45.998	19.0
46.013	12.0
46.028	12.0
46.043	19.0
46.058	8.0
46.073	6.0
46.088	6.0
46.103	11.0
46.118	8.0
46.133	9.0
46.148	11.0
46.163	13.0
46.178	15.0
46.192	13.0
46.207	11.0
46.222	14.0
46.237	16.0
46.252	13.0
46.267	10.0
46.282	13.0
46.297	11.0
46.312	11.0
46.327	15.0
46.341	10.0
46.356	8.0
46.371	6.0
46.386	4.0
46.401	8.0
46.416	4.0
46.431	4.0
46.446	9.0
46.46	5.0
46.475	6.0
46.49	6.0
46.505	6.0
46.52	5.0
46.535	7.0
46.55	9.0
46.564	6.0
46.579	6.0
46.594	6.0
46.609	9.0
46.624	4.0
46.639	9.0
46.654	4.0
46.668	2.0
46.683	6.0
46.698	6.0
46.713	7.0
46.728	6.0
46.743	4.0
46.758	4.0
46.772	5.0
46.787	4.0
46.802	5.0
46.817	6.0
46.832	1.0
46.847	3.0
46.861	3.0
46.876	2.0
46.891	5.0
46.906	5.0
46.921	7.0
46.936	2.0
46.95	3.0
46.965	5.0
46.98	5.0
46.995	8.0
47.01	5.0
47.025	8.0
47.039	7.0
47.054	4.0
47.069	10.0
47.084	5.0
47.099	6.0
47.113	6.0
47.128	9.0
47.143	10.0
47.158	10.0
47.173	11.0
47.188	10.0
47.202	6.0
47.217	10.0
47.232	7.0
47.247	8.0
47.262	5.0
47.277	4.0
47.291	5.0
47.306	4.0
47.321	4.0
47.336	3.0
47.351	2.0
47.365	6.0
47.38	5.0
47.395	10.0
47.41	9.0
47.425	2.0
47.44	6.0
47.454	7.0
47.469	7.0
47.484	4.0
47.499	10.0
47.514	3.0
47.528	10.0
47.543	7.0
47.558	5.0
47.573	4.0
47.588	5.0
47.603	2.0
47.617	0.0
47.632	3.0
47.647	9.0
47.662	6.0
47.677	7.0
47.691	3.0
47.706	3.0
47.721	3.0
47.736	5.0
47.751	5.0
47.766	3.0
47.78	2.0
47.795	2.0
47.81	3.0
47.825	4.0
47.84	6.0
47.855	6.0
47.869	7.0
47.884	5.0
47.899	5.0
47.914	6.0
47.929	4.0
47.944	6.0
47.958	3.0
47.973	6.0
47.988	3.0
48.003	3.0
48.018	6.0
48.033	8.0
48.047	7.0
48.062	0.0
48.077	6.0
48.092	5.0
48.107	6.0
48.122	5.0
48.137	3.0
48.151	1.0
48.166	6.0
48.181	4.0
48.196	7.0
48.211	8.0
48.226	4.0
48.241	9.0
48.255	6.0
48.27	2.0
48.285	6.0
48.3	3.0
48.315	6.0
48.33	4.0
48.345	3.0
48.359	6.0
48.374	4.0
48.389	6.0
48.404	5.0
48.419	2.0
48.434	4.0
48.449	3.0
48.464	5.0
48.478	4.0
48.493	6.0
48.508	4.0
48.523	5.0
48.538	4.0
48.553	2.0
48.568	3.0
48.583	10.0
48.597	8.0
48.612	2.0
48.627	3.0
48.642	2.0
48.657	3.0
48.672	6.0
48.687	5.0
48.702	9.0
48.717	5.0
48.731	8.0
48.746	6.0
48.761	5.0
48.776	7.0
48.791	1.0
48.806	4.0
48.821	2.0
48.836	4.0
48.851	7.0
48.866	2.0
48.88	3.0
48.895	6.0
48.91	5.0
48.925	6.0
48.94	4.0
48.955	7.0
48.97	3.0
48.985	2.0
49.0	5.0
49.015	2.0
49.03	5.0
49.044	2.0
49.059	5.0
49.074	5.0
49.089	5.0
49.104	8.0
49.119	6.0
49.134	5.0
49.149	6.0
49.164	7.0
49.179	2.0
49.194	6.0
49.209	5.0
49.224	4.0
49.238	5.0
49.253	4.0
49.268	3.0
49.283	4.0
49.298	9.0
49.313	7.0
49.328	8.0
49.343	7.0
49.358	6.0
49.373	7.0
49.388	9.0
49.403	4.0
49.418	11.0
49.433	7.0
49.448	9.0
49.463	5.0
49.478	6.0
49.492	4.0
49.507	3.0
49.522	7.0
49.537	6.0
49.552	3.0
49.567	7.0
49.582	4.0
49.597	7.0
49.612	5.0
49.627	6.0
49.642	8.0
49.657	8.0
49.672	4.0
49.687	4.0
49.702	4.0
49.717	4.0
49.732	1.0
49.747	4.0
49.762	7.0
49.777	4.0
49.792	4.0
49.807	6.0
49.822	4.0
49.837	9.0
49.852	3.0
49.867	5.0
49.882	3.0
49.897	7.0
49.912	2.0
49.927	6.0
49.942	6.0
49.957	2.0
49.971	3.0
49.986	1.0
50.001	6.0
50.016	5.0
50.031	3.0
50.046	6.0
50.061	5.0
50.076	4.0
50.091	3.0
50.106	8.0
50.121	6.0
50.136	4.0
50.151	2.0
50.166	4.0
50.181	1.0
50.196	7.0
50.211	2.0
50.226	6.0
50.241	3.0
50.256	4.0
50.271	2.0
50.286	11.0
50.302	3.0
50.317	6.0
50.332	1.0
50.347	3.0
50.362	4.0
50.377	2.0
50.392	4.0
50.407	9.0
50.422	4.0
50.437	4.0
50.452	8.0
50.467	8.0
50.482	10.0
50.497	9.0
50.512	5.0
50.527	8.0
50.542	8.0
50.557	9.0
50.572	4.0
50.587	6.0
50.602	5.0
50.617	5.0
50.632	6.0
50.647	4.0
50.662	9.0
50.677	3.0
50.692	5.0
50.707	6.0
50.722	4.0
50.737	9.0
50.752	3.0
50.767	7.0
50.782	8.0
50.797	5.0
50.812	4.0
50.828	7.0
50.843	10.0
50.858	6.0
50.873	3.0
50.888	7.0
50.903	5.0
50.918	6.0
50.933	4.0
50.948	4.0
50.963	5.0
50.978	8.0
50.993	5.0
51.008	3.0
51.023	4.0
51.038	6.0
51.053	3.0
51.068	7.0
51.083	2.0
51.098	4.0
51.114	3.0
51.129	5.0
51.144	6.0
51.159	6.0
51.174	7.0
51.189	6.0
51.204	4.0
51.219	2.0
51.234	4.0
51.249	6.0
51.264	2.0
51.279	3.0
51.294	5.0
51.309	7.0
51.324	3.0
51.34	6.0
51.355	6.0
51.37	5.0
51.385	5.0
51.4	13.0
51.415	6.0
51.43	13.0
51.445	9.0
51.46	12.0
51.475	13.0
51.49	12.0
51.505	12.0
51.52	4.0
51.535	20.0
51.551	18.0
51.566	17.0
51.581	10.0
51.596	14.0
51.611	10.0
51.626	11.0
51.641	5.0
51.656	9.0
51.671	2.0
51.686	9.0
51.701	8.0
51.716	3.0
51.732	6.0
51.747	6.0
51.762	12.0
51.777	7.0
51.792	10.0
51.807	11.0
51.822	8.0
51.837	6.0
51.852	14.0
51.867	15.0
51.882	8.0
51.898	11.0
51.913	9.0
51.928	12.0
51.943	8.0
51.958	2.0
51.973	5.0
51.988	5.0
52.003	4.0
52.018	4.0
52.033	4.0
52.048	3.0
52.064	4.0
52.079	4.0
52.094	9.0
52.109	8.0
52.124	4.0
52.139	7.0
52.154	6.0
52.169	9.0
52.184	3.0
52.199	4.0
52.215	5.0
52.23	4.0
52.245	3.0
52.26	3.0
52.275	5.0
52.29	5.0
52.305	6.0
52.32	5.0
52.335	4.0
52.35	8.0
52.366	8.0
52.381	7.0
52.396	6.0
52.411	3.0
52.426	8.0
52.441	6.0
52.456	3.0
52.471	3.0
52.486	5.0
52.502	4.0
52.517	7.0
52.532	5.0
52.547	7.0
52.562	8.0
52.577	3.0
52.592	13.0
52.607	11.0
52.622	7.0
52.637	5.0
52.653	9.0
52.668	12.0
52.683	9.0
52.698	6.0
52.713	6.0
52.728	9.0
52.743	6.0
52.758	6.0
52.774	3.0
52.789	10.0
52.804	4.0
52.819	10.0
52.834	5.0
52.849	3.0
52.864	11.0
52.879	4.0
52.894	6.0
52.91	8.0
52.925	6.0
52.94	4.0
52.955	9.0
52.97	4.0
52.985	5.0
53.0	7.0
53.015	5.0
53.031	2.0
53.046	5.0
53.061	6.0
53.076	6.0
53.091	4.0
53.106	5.0
53.121	5.0
53.136	2.0
53.152	7.0
53.167	10.0
53.182	6.0
53.197	2.0
53.212	5.0
53.227	4.0
53.242	8.0
53.257	5.0
53.273	7.0
53.288	7.0
53.303	3.0
53.318	5.0
53.333	7.0
53.348	2.0
53.363	2.0
53.379	5.0
53.394	11.0
53.409	2.0
53.424	6.0
53.439	3.0
53.454	2.0
53.469	4.0
53.484	6.0
53.5	5.0
53.515	6.0
53.53	5.0
53.545	5.0
53.56	3.0
53.575	3.0
53.59	4.0
53.606	3.0
53.621	4.0
53.636	9.0
53.651	5.0
53.666	5.0
53.681	1.0
53.696	6.0
53.712	1.0
53.727	2.0
53.742	4.0
53.757	7.0
53.772	2.0
53.787	3.0
53.802	4.0
53.818	4.0
53.833	2.0
53.848	4.0
53.863	6.0
53.878	3.0
53.893	4.0
53.909	4.0
53.924	4.0
53.939	3.0
53.954	4.0
53.969	7.0
53.984	2.0
53.999	5.0
54.015	1.0
54.03	2.0
54.045	6.0
54.06	5.0
54.075	4.0
54.09	5.0
54.106	6.0
54.121	5.0
54.136	4.0
54.151	3.0
54.166	9.0
54.181	6.0
54.197	10.0
54.212	4.0
54.227	4.0
54.242	4.0
54.257	8.0
54.272	5.0
54.288	3.0
54.303	4.0
54.318	4.0
54.333	0.0
54.348	4.0
54.363	5.0
54.379	4.0
54.394	7.0
54.409	7.0
54.424	3.0
54.439	2.0
54.454	5.0
54.47	6.0
54.485	4.0
54.5	3.0
54.515	8.0
54.53	8.0
54.545	5.0
54.561	11.0
54.576	11.0
54.591	6.0
54.606	17.0
54.621	14.0
54.636	13.0
54.652	9.0
54.667	11.0
54.682	13.0
54.697	11.0
54.712	12.0
54.727	6.0
54.743	16.0
54.758	5.0
54.773	5.0
54.788	4.0
54.803	5.0
54.819	7.0
54.834	4.0
54.849	8.0
54.864	5.0
54.879	7.0
54.894	3.0
54.91	7.0
54.925	8.0
54.94	8.0
54.955	12.0
54.97	7.0
54.985	6.0
55.001	14.0
55.016	8.0
55.031	11.0
55.046	8.0
55.061	9.0
55.077	3.0
55.092	5.0
55.107	7.0
55.122	3.0
55.137	1.0
55.152	6.0
55.168	4.0
55.183	4.0
55.198	4.0
55.213	4.0
55.228	6.0
55.243	5.0
55.259	2.0
55.274	3.0
55.289	5.0
55.304	3.0
55.319	6.0
55.335	5.0
55.35	4.0
55.365	6.0
55.38	4.0
55.395	5.0
55.41	5.0
55.426	5.0
55.441	9.0
55.456	5.0
55.471	3.0
55.486	9.0
55.501	4.0
55.517	3.0
55.532	8.0
55.547	6.0
55.562	3.0
55.577	5.0
55.592	4.0
55.608	6.0
55.623	4.0
55.638	6.0
55.653	2.0
55.668	9.0
55.683	11.0
55.699	8.0
55.714	6.0
55.729	4.0
55.744	9.0
55.759	4.0
55.774	3.0
55.79	8.0
55.805	7.0
55.82	3.0
55.835	2.0
55.85	3.0
55.865	5.0
55.881	4.0
55.896	5.0
55.911	5.0
55.926	5.0
55.941	8.0
55.956	2.0
55.972	9.0
55.987	5.0
56.002	4.0
56.017	7.0
56.032	6.0
56.047	2.0
56.063	3.0
56.078	5.0
56.093	3.0
56.108	2.0
56.123	5.0
56.138	6.0
56.154	6.0
56.169	4.0
56.184	3.0
56.199	7.0
56.214	6.0
56.229	6.0
56.244	5.0
56.26	5.0
56.275	4.0
56.29	4.0
56.305	3.0
56.32	3.0
56.335	7.0
56.351	4.0
56.366	3.0
56.381	8.0
56.396	7.0
56.411	2.0
56.426	2.0
56.441	3.0
56.457	4.0
56.472	1.0
56.487	4.0
56.502	3.0
56.517	4.0
56.532	4.0
56.547	9.0
56.563	5.0
56.578	4.0
56.593	6.0
56.608	2.0
56.623	5.0
56.638	4.0
56.653	2.0
56.668	5.0
56.684	5.0
56.699	2.0
56.714	4.0
56.729	2.0
56.744	1.0
56.759	3.0
56.774	4.0
56.79	9.0
56.805	2.0
56.82	2.0
56.835	9.0
56.85	3.0
56.865	1.0
56.88	1.0
56.895	6.0
56.911	3.0
56.926	3.0
56.941	5.0
56.956	6.0
56.971	5.0
56.986	4.0
57.001	3.0
57.016	5.0
57.031	3.0
57.047	5.0
57.062	0.0
57.077	5.0
57.092	2.0
57.107	7.0
57.122	2.0
57.137	5.0
57.152	8.0
57.167	4.0
57.183	2.0
57.198	6.0
57.213	5.0
57.228	5.0
57.243	0.0
57.258	4.0
57.273	7.0
57.288	4.0
57.303	3.0
57.318	3.0
57.334	2.0
57.349	7.0
57.364	2.0
57.379	7.0
57.394	3.0
57.409	1.0
57.424	3.0
57.439	10.0
57.454	2.0
57.469	2.0
57.484	8.0
57.5	4.0
57.515	6.0
57.53	2.0
57.545	7.0
57.56	4.0
57.575	4.0
57.59	6.0
57.605	4.0
57.62	7.0
57.635	1.0
57.65	5.0
57.665	9.0
57.68	5.0
57.696	5.0
57.711	2.0
57.726	5.0
57.741	2.0
57.756	5.0
57.771	6.0
57.786	3.0
57.801	9.0
57.816	5.0
57.831	6.0
57.846	3.0
57.861	7.0
57.876	2.0
57.891	7.0
57.906	5.0
57.921	5.0
57.937	9.0
57.952	7.0
57.967	4.0
57.982	5.0
57.997	3.0
58.012	2.0
58.027	4.0
58.042	3.0
58.057	4.0
58.072	6.0
58.087	3.0
58.102	5.0
58.117	2.0
58.132	5.0
58.147	10.0
58.162	5.0
58.177	4.0
58.192	3.0
58.207	9.0
58.222	6.0
58.237	5.0
58.252	4.0
58.267	5.0
58.282	3.0
58.297	9.0
58.312	6.0
58.327	5.0
58.342	3.0
58.357	7.0
58.372	4.0
58.387	6.0
58.402	8.0
58.418	5.0
58.433	4.0
58.448	3.0
58.463	4.0
58.478	7.0
58.493	7.0
58.508	4.0
58.523	3.0
58.538	5.0
58.553	7.0
58.568	6.0
58.583	7.0
58.598	7.0
58.613	11.0
58.628	9.0
58.643	16.0
58.658	10.0
58.673	8.0
58.688	3.0
58.703	7.0
58.718	11.0
58.733	7.0
58.748	6.0
58.763	9.0
58.778	4.0
58.793	5.0
58.808	2.0
58.823	3.0
58.838	6.0
58.853	5.0
58.868	3.0
58.883	8.0
58.898	3.0
58.913	9.0
58.928	6.0
58.942	5.0
58.957	4.0
58.972	6.0
58.987	5.0
59.002	6.0
59.017	12.0
59.032	11.0
59.047	3.0
59.062	4.0
59.077	4.0
59.092	6.0
59.107	4.0
59.122	2.0
59.137	4.0
59.152	4.0
59.167	8.0
59.182	2.0
59.197	6.0
59.212	7.0
59.227	5.0
59.242	4.0
59.257	3.0
59.272	5.0
59.287	7.0
59.302	2.0
59.317	1.0
59.332	2.0
59.347	2.0
59.362	5.0
59.377	3.0
59.392	4.0
59.407	4.0
59.422	5.0
59.437	4.0
59.452	5.0
59.467	15.0
59.482	7.0
59.497	3.0
59.512	5.0
59.527	6.0
59.542	2.0
59.557	9.0
59.572	2.0
59.587	4.0
59.602	7.0
59.617	11.0
59.632	8.0
59.647	9.0
59.661	8.0
59.676	10.0
59.691	8.0
59.706	5.0
59.721	4.0
59.736	3.0
59.751	6.0
59.766	3.0
59.781	2.0
59.796	7.0
59.811	3.0
59.826	10.0
59.841	5.0
59.856	5.0
59.871	5.0
59.886	8.0
59.901	3.0
59.916	3.0
59.931	7.0
59.946	6.0
59.961	8.0
59.976	7.0
59.991	6.0
60.006	4.0
60.021	7.0
60.036	5.0
60.051	8.0
60.066	9.0
60.081	3.0
60.096	4.0
60.111	7.0
60.126	5.0
60.141	3.0
60.156	8.0
60.171	3.0
60.186	6.0
60.201	5.0
60.216	1.0
60.231	4.0
60.246	3.0
60.261	3.0
60.276	1.0
60.291	3.0
60.306	3.0
60.321	4.0
60.336	3.0
60.35	9.0
60.365	4.0
60.38	7.0
60.395	5.0
60.41	3.0
60.425	8.0
60.44	2.0
60.455	5.0
60.47	5.0
60.485	6.0
60.5	8.0
60.515	4.0
60.53	3.0
60.545	4.0
60.56	13.0
60.575	6.0
60.59	2.0
60.605	3.0
60.62	3.0
60.635	8.0
60.65	7.0
60.665	1.0
60.68	9.0
60.695	6.0
60.71	2.0
60.725	3.0
60.74	4.0
60.755	2.0
60.77	3.0
60.785	6.0
60.8	7.0
60.815	4.0
60.83	2.0
60.845	2.0
60.86	2.0
60.875	6.0
60.89	4.0
60.905	3.0
60.92	9.0
60.935	3.0
60.95	5.0
60.965	6.0
60.98	7.0
60.995	4.0
61.01	11.0
61.025	4.0
61.04	4.0
61.055	3.0
61.07	9.0
61.085	5.0
61.1	2.0
61.115	6.0
61.13	4.0
61.145	5.0
61.16	4.0
61.175	4.0
61.191	5.0
61.206	3.0
61.221	3.0
61.236	4.0
61.251	4.0
61.266	3.0
61.281	4.0
61.296	5.0
61.311	9.0
61.326	4.0
61.341	1.0
61.356	6.0
61.371	3.0
61.386	6.0
61.401	3.0
61.416	3.0
61.431	3.0
61.446	3.0
61.461	6.0
61.476	8.0
61.491	4.0
61.506	5.0
61.521	4.0
61.536	11.0
61.551	8.0
61.566	9.0
61.581	6.0
61.596	4.0
61.611	2.0
61.626	4.0
61.641	6.0
61.656	3.0
61.672	5.0
61.687	6.0
61.702	2.0
61.717	6.0
61.732	4.0
61.747	5.0
61.762	5.0
61.777	4.0
61.792	2.0
61.807	3.0
61.822	3.0
61.837	2.0
61.852	3.0
61.867	6.0
61.882	3.0
61.897	3.0
61.912	4.0
61.927	3.0
61.943	2.0
61.958	5.0
61.973	6.0
61.988	2.0
62.003	5.0
62.018	5.0
62.033	3.0
62.048	6.0
62.063	7.0
62.078	6.0
62.093	3.0
62.108	3.0
62.123	4.0
62.138	4.0
62.153	4.0
62.169	8.0
62.184	1.0
62.199	1.0
62.214	8.0
62.229	3.0
62.244	1.0
62.259	3.0
62.274	4.0
62.289	8.0
62.304	6.0
62.319	1.0
62.335	2.0
62.35	1.0
62.365	8.0
62.38	2.0
62.395	5.0
62.41	3.0
62.425	3.0
62.44	4.0
62.455	6.0
62.47	5.0
62.485	6.0
62.501	2.0
62.516	5.0
62.531	2.0
62.546	6.0
62.561	5.0
62.576	6.0
62.591	3.0
62.606	4.0
62.621	4.0
62.636	5.0
62.652	5.0
62.667	6.0
62.682	4.0
62.697	4.0
62.712	3.0
62.727	2.0
62.742	6.0
62.757	5.0
62.772	5.0
62.787	5.0
62.803	4.0
62.818	3.0
62.833	2.0
62.848	2.0
62.863	3.0
62.878	2.0
62.893	4.0
62.908	3.0
62.923	3.0
62.939	7.0
62.954	2.0
62.969	4.0
62.984	3.0
62.999	6.0
63.014	5.0
63.029	4.0
63.044	3.0
63.059	4.0
63.074	3.0
63.09	7.0
63.105	5.0
63.12	1.0
63.135	4.0
63.15	3.0
63.165	2.0
63.18	5.0
63.195	0.0
63.21	6.0
63.226	1.0
63.241	2.0
63.256	2.0
63.271	4.0
63.286	3.0
63.301	2.0
63.316	7.0
63.331	3.0
63.346	7.0
63.362	6.0
63.377	4.0
63.392	6.0
63.407	6.0
63.422	8.0
63.437	4.0
63.452	2.0
63.467	6.0
63.482	6.0
63.497	7.0
63.513	9.0
63.528	4.0
63.543	4.0
63.558	2.0
63.573	4.0
63.588	4.0
63.603	6.0
63.618	2.0
63.633	2.0
63.648	1.0
63.664	5.0
63.679	7.0
63.694	3.0
63.709	3.0
63.724	3.0
63.739	4.0
63.754	3.0
63.769	5.0
63.784	3.0
63.799	3.0
63.814	5.0
63.83	5.0
63.845	3.0
63.86	5.0
63.875	4.0
63.89	7.0
63.905	8.0
63.92	3.0
63.935	4.0
63.95	5.0
63.965	3.0
63.98	6.0
63.996	1.0
64.011	6.0
64.026	2.0
64.041	5.0
64.056	1.0
64.071	3.0
64.086	5.0
64.101	5.0
64.116	2.0
64.131	7.0
64.146	6.0
64.161	3.0
64.176	2.0
64.191	5.0
64.207	5.0
64.222	7.0
64.237	3.0
64.252	4.0
64.267	2.0
64.282	4.0
64.297	2.0
64.312	1.0
64.327	0.0
64.342	4.0
64.357	5.0
64.372	2.0
64.387	3.0
64.402	1.0
64.417	3.0
64.433	3.0
64.448	4.0
64.463	4.0
64.478	2.0
64.493	3.0
64.508	11.0
64.523	6.0
64.538	5.0
64.553	5.0
64.568	0.0
64.583	2.0
64.598	3.0
64.613	3.0
64.628	2.0
64.643	3.0
64.658	3.0
64.673	10.0
64.688	3.0
64.703	4.0
64.718	8.0
64.734	1.0
64.749	4.0
64.764	6.0
64.779	4.0
64.794	2.0
64.809	0.0
64.824	5.0
64.839	2.0
64.854	7.0
64.869	3.0
64.884	4.0
64.899	3.0
64.914	3.0
64.929	6.0
64.944	1.0
64.959	1.0
64.974	3.0
64.989	4.0
65.004	6.0
65.019	1.0
65.034	3.0
65.049	5.0
65.064	2.0
65.079	4.0
65.094	4.0
65.109	3.0
65.125	1.0
65.14	6.0
65.155	7.0
65.17	7.0
65.185	3.0
65.2	1.0
65.215	4.0
65.23	6.0
65.245	4.0
65.26	4.0
65.275	7.0
65.29	6.0
65.305	4.0
65.32	8.0
65.335	3.0
65.35	7.0
65.365	5.0
65.38	4.0
65.395	1.0
65.41	0.0
65.425	4.0
65.44	2.0
65.455	3.0
65.47	2.0
65.485	5.0
65.5	4.0
65.515	4.0
65.53	6.0
65.545	4.0
65.56	5.0
65.575	1.0
65.59	2.0
65.605	4.0
65.62	7.0
65.635	5.0
65.65	3.0
65.666	6.0
65.681	5.0
65.696	3.0
65.711	2.0
65.726	11.0
65.741	4.0
65.756	6.0
65.771	3.0
65.786	3.0
65.801	6.0
65.816	4.0
65.831	2.0
65.846	6.0
65.861	2.0
65.876	3.0
65.891	4.0
65.906	2.0
65.921	2.0
65.936	5.0
65.951	3.0
65.966	2.0
65.981	3.0
65.996	3.0
66.011	5.0
66.026	6.0
66.041	2.0
66.056	3.0
66.071	5.0
66.086	6.0
66.101	6.0
66.116	6.0
66.131	6.0
66.146	5.0
66.161	7.0
66.176	6.0
66.191	7.0
66.206	7.0
66.221	4.0
66.236	7.0
66.251	2.0
66.266	8.0
66.281	2.0
66.296	4.0
66.311	5.0
66.327	4.0
66.342	8.0
66.357	8.0
66.372	2.0
66.387	1.0
66.402	3.0
66.417	3.0
66.432	2.0
66.447	4.0
66.462	1.0
66.477	3.0
66.492	0.0
66.507	5.0
66.522	4.0
66.537	3.0
66.552	8.0
66.567	4.0
66.582	5.0
66.597	6.0
66.612	7.0
66.627	12.0
66.642	7.0
66.657	4.0
66.672	5.0
66.687	6.0
66.702	4.0
66.717	6.0
66.732	6.0
66.747	5.0
66.762	2.0
66.777	2.0
66.792	1.0
66.807	5.0
66.822	2.0
66.837	2.0
66.853	5.0
66.868	2.0
66.883	1.0
66.898	3.0
66.913	1.0
66.928	2.0
66.943	6.0
66.958	5.0
66.973	4.0
66.988	5.0
67.003	6.0
67.018	3.0
67.033	2.0
67.048	5.0
67.063	5.0
67.078	3.0
67.093	1.0
67.108	6.0
67.123	5.0
67.138	9.0
67.153	4.0
67.168	4.0
67.183	4.0
67.198	2.0
67.214	6.0
67.229	2.0
67.244	4.0
67.259	4.0
67.274	4.0
67.289	4.0
67.304	8.0
67.319	3.0
67.334	6.0
67.349	4.0
67.364	2.0
67.379	5.0
67.394	5.0
67.409	0.0
67.424	6.0
67.439	6.0
67.454	4.0
67.469	4.0
67.484	4.0
67.5	4.0
67.515	4.0
67.53	9.0
67.545	6.0
67.56	6.0
67.575	1.0
67.59	6.0
67.605	4.0
67.62	4.0
67.635	6.0
67.65	3.0
67.665	2.0
67.68	6.0
67.695	4.0
67.71	6.0
67.726	3.0
67.741	5.0
67.756	1.0
67.771	8.0
67.786	1.0
67.801	2.0
67.816	3.0
67.831	3.0
67.846	7.0
67.861	3.0
67.876	2.0
67.891	6.0
67.906	3.0
67.922	7.0
67.937	3.0
67.952	4.0
67.967	5.0
67.982	2.0
67.997	3.0
68.012	6.0
68.027	8.0
68.042	4.0
68.057	2.0
68.072	2.0
68.087	5.0
68.103	1.0
68.118	5.0
68.133	2.0
68.148	5.0
68.163	4.0
68.178	2.0
68.193	2.0
68.208	1.0
68.223	3.0
68.238	1.0
68.254	6.0
68.269	2.0
68.284	3.0
68.299	2.0
68.314	0.0
68.329	2.0
68.344	1.0
68.359	5.0
68.374	1.0
68.389	4.0
68.405	2.0
68.42	2.0
68.435	1.0
68.45	3.0
68.465	2.0
68.48	8.0
68.495	1.0
68.51	2.0
68.525	8.0
68.54	3.0
68.556	4.0
68.571	2.0
68.586	4.0
68.601	3.0
68.616	5.0
68.631	5.0
68.646	2.0
68.661	5.0
68.676	6.0
68.691	3.0
68.707	6.0
68.722	6.0
68.737	0.0
68.752	2.0
68.767	4.0
68.782	7.0
68.797	5.0
68.812	3.0
68.827	3.0
68.842	0.0
68.857	4.0
68.873	2.0
68.888	4.0
68.903	4.0
68.918	2.0
68.933	5.0
68.948	3.0
68.963	6.0
68.978	2.0
68.993	1.0
69.008	2.0
69.023	0.0
69.038	6.0
69.054	6.0
69.069	2.0
69.084	1.0
69.099	1.0
69.114	6.0
69.129	3.0
69.144	1.0
69.159	5.0
69.174	6.0
69.189	2.0
69.204	2.0
69.219	0.0
69.234	4.0
69.249	4.0
69.264	4.0
69.279	5.0
69.295	5.0
69.31	3.0
69.325	4.0
69.34	3.0
69.355	5.0
69.37	5.0
69.385	2.0
69.4	5.0
69.415	5.0
69.43	5.0
69.445	2.0
69.46	2.0
69.475	5.0
69.49	6.0
69.505	2.0
69.52	4.0
69.535	3.0
69.55	4.0
69.565	5.0
69.58	1.0
69.595	3.0
69.61	3.0
69.625	4.0
69.64	3.0
69.655	2.0
69.67	3.0
69.685	1.0
69.7	7.0
69.715	3.0
69.73	2.0
69.745	7.0
69.76	8.0
69.775	3.0
69.79	6.0
69.805	8.0
69.82	1.0
69.835	10.0
69.85	10.0
69.865	6.0
69.88	4.0
69.895	3.0
69.909	4.0
69.924	3.0
69.939	3.0
69.954	2.0
69.969	4.0
69.984	2.0
69.999	1.0
70.014	1.0
70.029	4.0
70.044	4.0
70.059	8.0
70.074	5.0
70.088	6.0
70.103	3.0
70.118	4.0
70.133	2.0
70.148	3.0
70.163	5.0
70.178	0.0
70.193	2.0
70.208	4.0
70.222	2.0
70.237	4.0
70.252	8.0
70.267	5.0
70.282	4.0
70.297	7.0
70.312	6.0
70.327	3.0
70.341	3.0
70.356	3.0
70.371	2.0
70.386	7.0
70.401	9.0
70.416	5.0
70.43	4.0
70.445	7.0
70.46	3.0
70.475	5.0
70.49	3.0
70.505	3.0
70.519	3.0
70.534	6.0
70.549	1.0
70.564	4.0
70.579	6.0
70.594	4.0
70.608	4.0
70.623	7.0
70.638	8.0
70.653	7.0
70.668	9.0
70.683	4.0
70.697	6.0
70.712	4.0
70.727	4.0
70.742	4.0
70.757	6.0
70.771	0.0
70.786	3.0
70.801	7.0
70.816	7.0
70.831	3.0
70.845	9.0
70.86	2.0
70.875	5.0
70.89	3.0
70.905	3.0
70.92	3.0
70.934	2.0
70.949	1.0
70.964	4.0
70.979	5.0
70.994	6.0
71.008	5.0
71.023	3.0
71.038	2.0
71.053	2.0
71.068	3.0
71.082	3.0
71.097	2.0
71.112	2.0
71.127	4.0
71.142	3.0
71.156	8.0
71.171	12.0
71.186	4.0
71.201	6.0
71.216	3.0
71.231	7.0
71.245	5.0
71.26	5.0
71.275	6.0
71.29	4.0
71.305	4.0
71.319	3.0
71.334	6.0
71.349	4.0
71.364	1.0
71.379	2.0
71.394	2.0
71.408	3.0
71.423	2.0
71.438	7.0
71.453	2.0
71.468	7.0
71.483	4.0
71.497	2.0
71.512	6.0
71.527	4.0
71.542	3.0
71.557	3.0
71.572	2.0
71.586	7.0
71.601	4.0
71.616	4.0
71.631	3.0
71.646	4.0
71.661	6.0
71.676	4.0
71.69	2.0
71.705	10.0
71.72	1.0
71.735	3.0
71.75	1.0
71.765	4.0
71.78	2.0
71.795	5.0
71.81	4.0
71.824	2.0
71.839	0.0
71.854	3.0
71.869	1.0
71.884	5.0
71.899	0.0
71.914	1.0
71.929	2.0
71.944	2.0
71.959	1.0
71.974	6.0
71.988	3.0
72.003	8.0
72.018	3.0
72.033	5.0
72.048	3.0
72.063	4.0
72.078	1.0
72.093	1.0
72.108	4.0
72.123	4.0
72.138	2.0
72.153	3.0
72.168	2.0
72.183	4.0
72.198	2.0
72.213	2.0
72.228	4.0
72.243	1.0
72.258	4.0
72.273	4.0
72.288	5.0
72.303	8.0
72.318	3.0
72.333	3.0
72.348	3.0
72.363	1.0
72.378	6.0
72.393	3.0
72.408	3.0
72.423	3.0
72.438	3.0
72.453	2.0
72.468	6.0
72.483	6.0
72.498	1.0
72.513	2.0
72.528	2.0
72.543	1.0
72.558	3.0
72.573	2.0
72.588	1.0
72.603	4.0
72.618	3.0
72.633	1.0
72.649	5.0
72.664	3.0
72.679	5.0
72.694	1.0
72.709	3.0
72.724	2.0
72.739	2.0
72.754	2.0
72.769	3.0
72.784	1.0
72.799	5.0
72.814	6.0
72.829	2.0
72.845	4.0
72.86	5.0
72.875	3.0
72.89	5.0
72.905	2.0
72.92	5.0
72.935	1.0
72.95	2.0
72.965	8.0
72.98	3.0
72.996	0.0
73.011	1.0
73.026	5.0
73.041	5.0
73.056	6.0
73.071	4.0
73.086	3.0
73.101	1.0
73.117	3.0
73.132	2.0
73.147	5.0
73.162	4.0
73.177	1.0
73.192	2.0
73.207	7.0
73.222	7.0
73.238	6.0
73.253	4.0
73.268	4.0
73.283	2.0
73.298	6.0
73.313	1.0
73.328	1.0
73.343	7.0
73.359	6.0
73.374	4.0
73.389	5.0
73.404	5.0
73.419	6.0
73.434	2.0
73.449	2.0
73.465	3.0
73.48	5.0
73.495	3.0
73.51	3.0
73.525	0.0
73.54	2.0
73.556	4.0
73.571	3.0
73.586	3.0
73.601	5.0
73.616	2.0
73.631	4.0
73.646	3.0
73.662	2.0
73.677	2.0
73.692	3.0
73.707	4.0
73.722	3.0
73.737	3.0
73.752	2.0
73.768	2.0
73.783	3.0
73.798	4.0
73.813	1.0
73.828	5.0
73.843	3.0
73.859	4.0
73.874	3.0
73.889	5.0
73.904	4.0
73.919	1.0
73.934	1.0
73.949	2.0
73.965	2.0
73.98	1.0
73.995	4.0
74.01	2.0
74.025	5.0
74.04	4.0
74.056	3.0
74.071	4.0
74.086	5.0
74.101	1.0
74.116	4.0
74.131	9.0
74.146	9.0
74.162	3.0
74.177	0.0
74.192	6.0
74.207	8.0
74.222	6.0
74.237	3.0
74.252	5.0
74.268	1.0
74.283	2.0
74.298	5.0
74.313	6.0
74.328	3.0
74.343	3.0
74.358	4.0
74.374	6.0
74.389	4.0
74.404	3.0
74.419	2.0
74.434	2.0
74.449	2.0
74.464	3.0
74.48	2.0
74.495	2.0
74.51	1.0
74.525	2.0
74.54	2.0
74.555	3.0
74.57	1.0
74.586	2.0
74.601	6.0
74.616	4.0
74.631	6.0
74.646	5.0
74.661	6.0
74.676	6.0
74.691	4.0
74.707	3.0
74.722	3.0
74.737	1.0
74.752	2.0
74.767	3.0
74.782	6.0
74.797	3.0
74.813	4.0
74.828	1.0
74.843	2.0
74.858	1.0
74.873	4.0
74.888	11.0
74.903	1.0
74.918	4.0
74.934	5.0
74.949	1.0
74.964	4.0
74.979	1.0
74.994	3.0
75.009	4.0
75.024	5.0
75.04	4.0
75.055	7.0
75.07	1.0
75.085	3.0
75.1	3.0
75.115	8.0
75.13	2.0
75.145	2.0
75.161	1.0
75.176	8.0
75.191	4.0
75.206	2.0
75.221	7.0
75.236	3.0
75.251	3.0
75.266	1.0
75.282	5.0
75.297	4.0
75.312	2.0
75.327	3.0
75.342	4.0
75.357	3.0
75.372	1.0
75.387	1.0
75.403	2.0
75.418	3.0
75.433	7.0
75.448	1.0
75.463	3.0
75.478	5.0
75.493	6.0
75.509	2.0
75.524	8.0
75.539	4.0
75.554	8.0
75.569	3.0
75.584	4.0
75.599	9.0
75.614	3.0
75.63	2.0
75.645	1.0
75.66	7.0
75.675	1.0
75.69	3.0
75.705	1.0
75.72	3.0
75.735	3.0
75.751	4.0
75.766	9.0
75.781	2.0
75.796	2.0
75.811	3.0
75.826	2.0
75.841	8.0
75.856	4.0
75.872	4.0
75.887	4.0
75.902	4.0
75.917	3.0
75.932	5.0
75.947	1.0
75.962	7.0
75.977	1.0
75.993	6.0
76.008	3.0
76.023	7.0
76.038	5.0
76.053	1.0
76.068	3.0
76.083	1.0
76.098	2.0
76.114	5.0
76.129	6.0
76.144	3.0
76.159	5.0
76.174	3.0
76.189	1.0
76.204	2.0
76.22	4.0
76.235	3.0
76.25	3.0
76.265	1.0
76.28	1.0
76.295	3.0
76.31	3.0
76.325	3.0
76.341	5.0
76.356	3.0
76.371	2.0
76.386	2.0
76.401	2.0
76.416	5.0
76.431	7.0
76.446	2.0
76.462	1.0
76.477	5.0
76.492	1.0
76.507	0.0
76.522	1.0
76.537	3.0
76.552	2.0
76.567	3.0
76.583	2.0
76.598	0.0
76.613	7.0
76.628	1.0
76.643	2.0
76.658	6.0
76.673	4.0
76.688	4.0
76.704	3.0
76.719	2.0
76.734	1.0
76.749	1.0
76.764	3.0
76.779	6.0
76.794	7.0
76.809	2.0
76.824	3.0
76.84	2.0
76.855	4.0
76.87	5.0
76.885	1.0
76.9	2.0
76.915	6.0
76.93	3.0
76.945	3.0
76.96	2.0
76.976	6.0
76.991	2.0
77.006	1.0
77.021	2.0
77.036	4.0
77.051	5.0
77.066	3.0
77.081	3.0
77.096	4.0
77.112	8.0
77.127	6.0
77.142	3.0
77.157	4.0
77.172	5.0
77.187	6.0
77.202	3.0
77.217	2.0
77.232	3.0
77.247	1.0
77.263	4.0
77.278	2.0
77.293	2.0
77.308	3.0
77.323	4.0
77.338	0.0
77.353	3.0
77.368	9.0
77.383	3.0
77.398	3.0
77.413	2.0
77.428	2.0
77.444	1.0
77.459	0.0
77.474	0.0
77.489	2.0
77.504	2.0
77.519	3.0
77.534	4.0
77.549	2.0
77.564	9.0
77.579	3.0
77.594	1.0
77.609	4.0
77.624	3.0
77.64	3.0
77.655	5.0
77.67	6.0
77.685	5.0
77.7	4.0
77.715	3.0
77.73	1.0
77.745	5.0
77.76	4.0
77.775	3.0
77.79	2.0
77.805	5.0
77.82	1.0
77.835	10.0
77.85	7.0
77.865	10.0
77.88	2.0
77.895	3.0
77.91	1.0
77.926	4.0
77.941	4.0
77.956	5.0
77.971	3.0
77.986	3.0
78.001	3.0
78.016	1.0
78.031	3.0
78.046	4.0
78.061	6.0
78.076	4.0
78.091	3.0
78.106	3.0
78.121	3.0
78.136	7.0
78.151	4.0
78.166	7.0
78.181	10.0
78.196	2.0
78.211	7.0
78.226	4.0
78.241	4.0
78.256	2.0
78.271	4.0
78.286	2.0
78.301	5.0
78.316	5.0
78.331	3.0
78.346	3.0
78.361	4.0
78.376	2.0
78.391	2.0
78.406	2.0
78.421	6.0
78.436	3.0
78.451	4.0
78.466	3.0
78.481	3.0
78.496	3.0
78.511	6.0
78.526	1.0
78.541	3.0
78.556	2.0
78.571	5.0
78.586	2.0
78.601	3.0
78.616	3.0
78.631	1.0
78.646	0.0
78.661	1.0
78.676	4.0
78.691	3.0
78.706	5.0
78.721	3.0
78.736	1.0
78.751	6.0
78.766	4.0
78.781	2.0
78.796	2.0
78.811	3.0
78.826	8.0
78.841	3.0
78.856	3.0
78.871	4.0
78.885	2.0
78.9	0.0
78.915	1.0
78.93	5.0
78.945	0.0
78.96	4.0
78.975	3.0
78.99	2.0
79.005	2.0
79.02	3.0
79.035	4.0
79.05	3.0
79.065	3.0
79.08	4.0
79.095	3.0
79.11	4.0
79.125	5.0
79.14	2.0
79.155	3.0
79.17	4.0
79.185	1.0
79.2	3.0
79.215	3.0
79.23	3.0
79.245	1.0
79.26	6.0
79.275	0.0
79.29	2.0
79.304	5.0
79.319	0.0
79.334	7.0
79.349	3.0
79.364	7.0
79.379	5.0
79.394	1.0
79.409	1.0
79.424	4.0
79.439	5.0
79.454	2.0
79.469	3.0
79.484	2.0
79.499	7.0
79.514	1.0
79.529	2.0
79.544	5.0
79.559	1.0
79.574	3.0
79.589	1.0
79.604	3.0
79.619	4.0
79.634	4.0
79.649	4.0
79.664	2.0
79.679	4.0
79.693	3.0
79.708	2.0
79.723	2.0
79.738	2.0
79.753	4.0
79.768	5.0
79.783	5.0
79.798	4.0
79.813	3.0
79.828	3.0
79.843	2.0
79.858	7.0
79.873	3.0
79.888	3.0
79.903	3.0
79.918	6.0
79.933	4.0
79.948	1.0
79.963	4.0
79.978	2.0
79.993	6.0
80.008	4.0
80.023	3.0
80.038	2.0
80.053	7.0
80.068	0.0
80.083	4.0
80.098	2.0
80.113	1.0
80.128	3.0
80.143	4.0
80.158	3.0
80.173	5.0
80.188	6.0
80.202	5.0
80.217	5.0
80.232	4.0
80.247	3.0
80.262	5.0
80.277	1.0
80.292	4.0
80.307	7.0
80.322	4.0
80.337	3.0
80.352	4.0
80.367	6.0
80.382	7.0
80.397	3.0
80.412	2.0
80.427	1.0
80.442	3.0
80.457	2.0
80.472	4.0
80.487	4.0
80.502	1.0
80.517	1.0
80.532	2.0
80.547	2.0
80.562	2.0
80.577	5.0
80.592	6.0
80.607	2.0
80.622	3.0
80.637	1.0
80.652	5.0
80.667	4.0
80.682	2.0
80.697	3.0
80.712	4.0
80.727	3.0
80.742	9.0
80.757	5.0
80.772	7.0
80.787	0.0
80.802	2.0
80.817	3.0
80.832	2.0
80.847	2.0
80.862	1.0
80.877	2.0
80.892	5.0
80.907	3.0
80.922	0.0
80.937	1.0
80.952	2.0
80.967	5.0
80.982	1.0
80.997	9.0
81.012	5.0
81.027	2.0
81.042	5.0
81.057	3.0
81.072	4.0
81.087	4.0
81.101	3.0
81.116	1.0
81.131	1.0
81.146	2.0
81.161	1.0
81.176	2.0
81.191	5.0
81.206	2.0
81.221	5.0
81.236	6.0
81.251	4.0
81.266	6.0
81.281	0.0
81.296	3.0
81.311	3.0
81.326	2.0
81.341	5.0
81.356	4.0
81.371	6.0
81.386	1.0
81.401	5.0
81.416	2.0
81.431	3.0
81.446	6.0
81.461	0.0
81.476	4.0
81.491	3.0
81.506	5.0
81.521	3.0
81.536	6.0
81.55	0.0
81.565	1.0
81.58	4.0
81.595	3.0
81.61	1.0
81.625	3.0
81.64	3.0
81.655	4.0
81.67	3.0
81.685	1.0
81.7	2.0
81.715	4.0
81.73	2.0
81.745	8.0
81.76	3.0
81.775	2.0
81.79	3.0
81.805	2.0
81.819	5.0
81.834	5.0
81.849	3.0
81.864	3.0
81.879	4.0
81.894	1.0
81.909	3.0
81.924	5.0
81.939	2.0
81.954	2.0
81.969	6.0
81.984	3.0
81.999	4.0
82.013	1.0
82.028	1.0
82.043	4.0
82.058	0.0
82.073	5.0
82.088	3.0
82.103	1.0
82.118	0.0
82.133	6.0
82.148	5.0
82.163	5.0
82.177	6.0
82.192	0.0
82.207	3.0
82.222	3.0
82.237	3.0
82.252	1.0
82.267	2.0
82.282	3.0
82.297	5.0
82.312	6.0
82.326	4.0
82.341	1.0
82.356	5.0
82.371	4.0
82.386	2.0
82.401	1.0
82.416	2.0
82.431	4.0
82.445	5.0
82.46	5.0
82.475	7.0
82.49	6.0
82.505	3.0
82.52	3.0
82.535	0.0
82.55	1.0
82.565	2.0
82.579	4.0
82.594	3.0
82.609	1.0
82.624	6.0
82.639	3.0
82.654	4.0
82.669	2.0
82.684	5.0
82.698	1.0
82.713	3.0
82.728	4.0
82.743	6.0
82.758	0.0
82.773	1.0
82.788	3.0
82.803	2.0
82.817	2.0
82.832	1.0
82.847	3.0
82.862	2.0
82.877	6.0
82.892	2.0
82.907	5.0
82.922	0.0
82.937	2.0
82.951	4.0
82.966	2.0
82.981	4.0
82.996	4.0
83.011	0.0
83.026	2.0
83.041	3.0
83.056	0.0
83.07	0.0
83.085	2.0
83.1	3.0
83.115	7.0
83.13	4.0
83.145	3.0
83.16	1.0
83.175	5.0
83.19	1.0
83.204	1.0
83.219	1.0
83.234	2.0
83.249	1.0
83.264	6.0
83.279	2.0
83.294	1.0
83.309	0.0
83.324	2.0
83.339	0.0
83.353	1.0
83.368	2.0
83.383	2.0
83.398	2.0
83.413	6.0
83.428	1.0
83.443	3.0
83.458	5.0
83.473	4.0
83.488	1.0
83.503	2.0
83.517	5.0
83.532	6.0
83.547	4.0
83.562	5.0
83.577	3.0
83.592	1.0
83.607	3.0
83.622	0.0
83.637	4.0
83.652	1.0
83.667	0.0
83.682	3.0
83.697	1.0
83.712	1.0
83.727	6.0
83.741	3.0
83.756	4.0
83.771	1.0
83.786	4.0
83.801	3.0
83.816	6.0
83.831	4.0
83.846	3.0
83.861	3.0
83.876	4.0
83.891	4.0
83.906	3.0
83.921	6.0
83.936	4.0
83.951	5.0
83.966	5.0
83.981	4.0
83.996	3.0
84.011	5.0
84.026	2.0
84.041	2.0
84.056	1.0
84.071	2.0
84.086	3.0
84.101	2.0
84.116	3.0
84.131	4.0
84.146	6.0
84.161	3.0
84.176	2.0
84.191	1.0
84.206	3.0
84.221	4.0
84.236	5.0
84.251	3.0
84.266	3.0
84.281	5.0
84.296	5.0
84.311	3.0
84.326	3.0
84.341	2.0
84.356	3.0
84.371	8.0
84.386	3.0
84.401	1.0
84.416	2.0
84.431	3.0
84.446	4.0
84.461	4.0
84.476	3.0
84.492	1.0
84.507	3.0
84.522	4.0
84.537	4.0
84.552	4.0
84.567	3.0
84.582	4.0
84.597	1.0
84.612	0.0
84.627	4.0
84.642	6.0
84.657	1.0
84.672	2.0
84.687	2.0
84.702	4.0
84.717	2.0
84.733	4.0
84.748	6.0
84.763	5.0
84.778	2.0
84.793	3.0
84.808	1.0
84.823	2.0
84.838	3.0
84.853	1.0
84.868	6.0
84.883	2.0
84.898	3.0
84.913	1.0
84.929	4.0
84.944	3.0
84.959	4.0
84.974	4.0
84.989	5.0
85.004	4.0
85.019	5.0
85.034	1.0
85.049	4.0
85.064	3.0
85.079	1.0
85.094	3.0
85.11	2.0
85.125	1.0
85.14	6.0
85.155	2.0
85.17	1.0
85.185	2.0
85.2	5.0
85.215	3.0
85.23	1.0
85.245	4.0
85.26	2.0
85.276	1.0
85.291	6.0
85.306	1.0
85.321	3.0
85.336	2.0
85.351	1.0
85.366	0.0
85.381	1.0
85.396	3.0
85.411	3.0
85.426	4.0
85.441	3.0
85.457	6.0
85.472	3.0
85.487	4.0
85.502	4.0
85.517	5.0
85.532	4.0
85.547	4.0
85.562	4.0
85.577	3.0
85.592	4.0
85.607	5.0
85.622	3.0
85.637	5.0
85.653	3.0
85.668	2.0
85.683	2.0
85.698	3.0
85.713	2.0
85.728	2.0
85.743	4.0
85.758	2.0
85.773	5.0
85.788	2.0
85.803	6.0
85.818	0.0
85.833	3.0
85.848	4.0
85.863	3.0
85.879	2.0
85.894	2.0
85.909	2.0
85.924	2.0
85.939	0.0
85.954	0.0
85.969	4.0
85.984	4.0
85.999	4.0
86.014	2.0
86.029	2.0
86.044	4.0
86.059	3.0
86.074	0.0
86.089	6.0
86.104	4.0
86.119	1.0
86.134	1.0
86.149	4.0
86.164	1.0
86.179	2.0
86.194	3.0
86.209	2.0
86.224	3.0
86.239	3.0
86.254	2.0
86.269	1.0
86.284	4.0
86.299	2.0
86.314	6.0
86.33	2.0
86.345	6.0
86.36	3.0
86.375	5.0
86.39	2.0
86.405	3.0
86.42	4.0
86.435	3.0
86.45	3.0
86.465	4.0
86.48	3.0
86.495	1.0
86.51	2.0
86.525	0.0
86.54	2.0
86.555	2.0
86.57	3.0
86.585	1.0
86.6	3.0
86.615	3.0
86.63	4.0
86.645	3.0
86.659	3.0
86.674	4.0
86.689	3.0
86.704	1.0
86.719	6.0
86.734	6.0
86.749	2.0
86.764	7.0
86.779	7.0
86.794	3.0
86.809	3.0
86.824	7.0
86.839	1.0
86.854	3.0
86.869	4.0
86.884	6.0
86.899	5.0
86.914	2.0
86.929	2.0
86.944	3.0
86.959	7.0
86.974	4.0
86.989	4.0
87.004	2.0
87.019	2.0
87.034	4.0
87.049	6.0
87.064	2.0
87.079	2.0
87.094	7.0
87.109	3.0
87.124	4.0
87.139	3.0
87.154	2.0
87.169	3.0
87.184	6.0
87.199	3.0
87.214	6.0
87.229	5.0
87.244	1.0
87.259	2.0
87.274	1.0
87.289	4.0
87.304	6.0
87.319	5.0
87.334	1.0
87.349	10.0
87.364	3.0
87.379	4.0
87.394	4.0
87.409	4.0
87.424	3.0
87.438	3.0
87.453	2.0
87.468	5.0
87.483	2.0
87.498	4.0
87.513	6.0
87.528	2.0
87.543	2.0
87.558	2.0
87.573	4.0
87.588	1.0
87.603	6.0
87.618	2.0
87.633	4.0
87.648	2.0
87.663	3.0
87.678	3.0
87.693	8.0
87.708	4.0
87.723	6.0
87.738	1.0
87.753	2.0
87.768	1.0
87.783	5.0
87.798	3.0
87.813	6.0
87.828	2.0
87.843	5.0
87.858	1.0
87.873	1.0
87.888	2.0
87.903	1.0
87.918	2.0
87.933	5.0
87.948	3.0
87.963	2.0
87.978	2.0
87.993	1.0
88.008	1.0
88.023	2.0
88.038	5.0
88.053	2.0
88.068	0.0
88.083	2.0
88.098	4.0
88.113	1.0
88.128	1.0
88.143	5.0
88.158	4.0
88.174	1.0
88.189	4.0
88.204	1.0
88.219	2.0
88.234	2.0
88.249	0.0
88.264	2.0
88.279	2.0
88.294	0.0
88.309	3.0
88.324	2.0
88.339	1.0
88.354	4.0
88.369	3.0
88.384	2.0
88.399	5.0
88.414	8.0
88.429	1.0
88.444	7.0
88.459	2.0
88.474	4.0
88.489	4.0
88.504	6.0
88.519	4.0
88.534	0.0
88.549	3.0
88.564	5.0
88.58	2.0
88.595	3.0
88.61	3.0
88.625	6.0
88.64	3.0
88.655	4.0
88.67	5.0
88.685	3.0
88.7	1.0
88.715	3.0
88.73	0.0
88.745	3.0
88.76	2.0
88.775	4.0
88.79	2.0
88.805	4.0
88.82	1.0
88.835	1.0
88.85	4.0
88.865	1.0
88.88	4.0
88.895	2.0
88.911	5.0
88.926	1.0
88.941	2.0
88.956	0.0
88.971	3.0
88.986	3.0
89.001	4.0
89.016	4.0
89.031	2.0
89.046	4.0
89.061	3.0
89.076	3.0
89.091	2.0
89.106	3.0
89.121	1.0
89.136	4.0
89.151	0.0
89.166	11.0
89.181	4.0
89.196	3.0
89.211	1.0
89.227	3.0
89.242	3.0
89.257	3.0
89.272	2.0
89.287	2.0
89.302	5.0
89.317	5.0
89.332	3.0
89.347	1.0
89.362	0.0
89.377	3.0
89.392	4.0
89.407	1.0
89.422	2.0
89.437	4.0
89.452	4.0
89.467	0.0
89.482	4.0
89.497	2.0
89.512	2.0
89.527	1.0
89.542	4.0
89.557	5.0
89.572	3.0
89.587	4.0
89.602	5.0
89.617	3.0
89.632	1.0
89.647	3.0
89.662	2.0
89.677	1.0
89.693	3.0
89.708	2.0
89.723	2.0
89.738	3.0
89.753	1.0
89.768	7.0
89.783	0.0
89.798	2.0
89.813	4.0
89.828	2.0
89.843	1.0
89.858	2.0
89.873	2.0
89.888	2.0
89.903	3.0
89.918	1.0
89.933	2.0
89.948	2.0
89.963	2.0
89.978	2.0
89.993	6.0
90.008	2.0
90.023	5.0
90.038	5.0
90.053	1.0
90.068	1.0
90.083	1.0
90.097	4.0
90.112	3.0
90.127	1.0
90.142	3.0
90.157	3.0
90.172	4.0
90.187	2.0
90.202	6.0
90.217	8.0
90.232	3.0
90.247	5.0
90.262	4.0
90.277	4.0
90.292	2.0
90.307	4.0
90.322	4.0
90.337	0.0
90.352	3.0
90.367	4.0
90.382	5.0
90.397	3.0
90.412	3.0
90.427	3.0
90.442	2.0
90.457	2.0
90.472	3.0
90.487	1.0
90.501	3.0
90.516	1.0
90.531	6.0
90.546	8.0
90.561	3.0
90.576	2.0
90.591	1.0
90.606	6.0
90.621	2.0
90.636	3.0
90.651	2.0
90.666	7.0
90.681	4.0
90.696	1.0
90.711	1.0
90.726	7.0
90.741	4.0
90.755	5.0
90.77	3.0
90.785	3.0
90.8	4.0
90.815	3.0
90.83	2.0
90.845	1.0
90.86	2.0
90.875	3.0
90.89	4.0
90.905	3.0
90.92	3.0
90.935	2.0
90.95	3.0
90.965	1.0
90.979	1.0
90.994	4.0
91.009	2.0
91.024	5.0
91.039	3.0
91.054	9.0
91.069	1.0
91.084	4.0
91.099	1.0
91.114	3.0
91.129	1.0
91.144	2.0
91.159	1.0
91.174	3.0
91.188	3.0
91.203	5.0
91.218	7.0
91.233	2.0
91.248	4.0
91.263	3.0
91.278	0.0
91.293	5.0
91.308	3.0
91.323	3.0
91.338	2.0
91.353	5.0
91.368	1.0
91.383	6.0
91.398	1.0
91.412	2.0
91.427	3.0
91.442	4.0
91.457	3.0
91.472	3.0
91.487	1.0
91.502	2.0
91.517	2.0
91.532	2.0
91.547	1.0
91.562	0.0
91.577	2.0
91.592	1.0
91.607	2.0
91.622	0.0
91.637	3.0
91.652	4.0
91.666	3.0
91.681	1.0
91.696	6.0
91.711	2.0
91.726	5.0
91.741	4.0
91.756	5.0
91.771	3.0
91.786	2.0
91.801	1.0
91.816	5.0
91.831	3.0
91.846	3.0
91.861	4.0
91.876	2.0
91.891	1.0
91.906	3.0
91.921	1.0
91.936	1.0
91.951	4.0
91.966	3.0
91.981	2.0
91.995	2.0
92.01	1.0
92.025	2.0
92.04	1.0
92.055	6.0
92.07	0.0
92.085	1.0
92.1	0.0
92.115	0.0
92.13	1.0
92.145	3.0
92.16	2.0
92.175	4.0
92.19	5.0
92.205	0.0
92.22	6.0
92.235	3.0
92.25	3.0
92.265	6.0
92.28	3.0
92.295	3.0
92.31	2.0
92.325	1.0
92.34	1.0
92.355	2.0
92.37	1.0
92.385	4.0
92.4	3.0
92.415	1.0
92.43	2.0
92.445	4.0
92.46	0.0
92.475	4.0
92.49	2.0
92.505	0.0
92.52	4.0
92.535	2.0
92.55	4.0
92.565	4.0
92.58	0.0
92.595	7.0
92.61	5.0
92.625	1.0
92.64	3.0
92.655	1.0
92.67	2.0
92.685	3.0
92.7	6.0
92.715	1.0
92.73	3.0
92.745	1.0
92.76	2.0
92.775	4.0
92.79	5.0
92.805	3.0
92.82	2.0
92.835	3.0
92.85	2.0
92.865	2.0
92.88	3.0
92.895	2.0
92.91	1.0
92.925	7.0
92.94	2.0
92.955	3.0
92.97	6.0
92.985	5.0
93.0	2.0
93.015	3.0
93.03	1.0
93.045	5.0
93.06	5.0
93.075	1.0
93.09	1.0
93.105	2.0
93.12	6.0
93.135	1.0
93.15	3.0
93.165	2.0
93.18	4.0
93.195	2.0
93.21	2.0
93.225	3.0
93.24	6.0
93.255	1.0
93.27	3.0
93.285	2.0
93.3	2.0
93.315	4.0
93.33	2.0
93.345	3.0
93.36	2.0
93.375	0.0
93.39	5.0
93.405	7.0
93.42	3.0
93.435	4.0
93.45	6.0
93.465	5.0
93.48	2.0
93.495	4.0
93.51	1.0
93.525	2.0
93.54	2.0
93.555	3.0
93.57	5.0
93.585	1.0
93.6	3.0
93.615	3.0
93.63	4.0
93.645	7.0
93.66	1.0
93.675	5.0
93.69	2.0
93.705	4.0
93.72	2.0
93.735	2.0
93.75	5.0
93.765	3.0
93.78	1.0
93.795	1.0
93.81	4.0
93.824	2.0
93.839	2.0
93.854	3.0
93.869	4.0
93.884	1.0
93.899	2.0
93.914	4.0
93.929	3.0
93.944	5.0
93.959	5.0
93.974	1.0
93.989	5.0
94.004	5.0
94.019	2.0
94.034	4.0
94.049	5.0
94.064	3.0
94.079	4.0
94.094	7.0
94.108	2.0
94.123	2.0
94.138	5.0
94.153	3.0
94.168	1.0
94.183	3.0
94.198	3.0
94.213	2.0
94.228	1.0
94.243	4.0
94.258	4.0
94.273	4.0
94.288	2.0
94.302	3.0
94.317	4.0
94.332	5.0
94.347	5.0
94.362	1.0
94.377	7.0
94.392	4.0
94.407	8.0
94.422	1.0
94.437	3.0
94.452	6.0
94.466	5.0
94.481	4.0
94.496	8.0
94.511	3.0
94.526	6.0
94.541	4.0
94.556	4.0
94.571	0.0
94.586	0.0
94.601	2.0
94.615	2.0
94.63	4.0
94.645	5.0
94.66	4.0
94.675	1.0
94.69	5.0
94.705	4.0
94.72	5.0
94.735	1.0
94.749	1.0
94.764	4.0
94.779	4.0
94.794	3.0
94.809	2.0
94.824	4.0
94.839	2.0
94.854	1.0
94.868	2.0
94.883	3.0
94.898	5.0
94.913	2.0
94.928	5.0
94.943	4.0
94.958	2.0
94.973	6.0
94.987	4.0
95.002	3.0
95.017	3.0
95.032	4.0
95.047	2.0
95.062	10.0
95.077	5.0
95.092	6.0
95.106	2.0
95.121	1.0
95.136	2.0
95.151	2.0
95.166	4.0
95.181	0.0
95.196	2.0
95.211	4.0
95.226	11.0
95.24	5.0
95.255	4.0
95.27	1.0
95.285	0.0
95.3	7.0
95.315	4.0
95.33	2.0
95.345	1.0
95.359	4.0
95.374	4.0
95.389	7.0
95.404	3.0
95.419	3.0
95.434	3.0
95.449	1.0
95.464	4.0
95.478	2.0
95.493	2.0
95.508	5.0
95.523	7.0
95.538	0.0
95.553	4.0
95.568	4.0
95.583	5.0
95.597	2.0
95.612	4.0
95.627	3.0
95.642	1.0
95.657	5.0
95.672	0.0
95.687	2.0
95.702	4.0
95.717	7.0
95.731	3.0
95.746	1.0
95.761	0.0
95.776	0.0
95.791	2.0
95.806	4.0
95.821	6.0
95.836	4.0
95.851	3.0
95.866	2.0
95.88	4.0
95.895	7.0
95.91	5.0
95.925	10.0
95.94	4.0
95.955	3.0
95.97	1.0
95.985	2.0
96.0	4.0
96.015	5.0
96.029	3.0
96.044	2.0
96.059	0.0
96.074	1.0
96.089	4.0
96.104	2.0
96.119	3.0
96.134	4.0
96.149	5.0
96.164	5.0
96.179	4.0
96.194	4.0
96.208	4.0
96.223	6.0
96.238	4.0
96.253	0.0
96.268	3.0
96.283	1.0
96.298	2.0
96.313	3.0
96.328	8.0
96.343	2.0
96.358	2.0
96.373	3.0
96.388	1.0
96.403	2.0
96.417	5.0
96.432	1.0
96.447	7.0
96.462	2.0
96.477	2.0
96.492	6.0
96.507	4.0
96.522	4.0
96.537	5.0
96.552	3.0
96.567	4.0
96.582	0.0
96.597	4.0
96.612	2.0
96.627	2.0
96.642	3.0
96.656	6.0
96.671	2.0
96.686	0.0
96.701	1.0
96.716	2.0
96.731	5.0
96.746	5.0
96.761	2.0
96.776	1.0
96.791	5.0
96.806	5.0
96.821	1.0
96.836	5.0
96.851	8.0
96.866	3.0
96.881	4.0
96.896	4.0
96.911	3.0
96.926	3.0
96.94	3.0
96.955	3.0
96.97	2.0
96.985	6.0
97.0	6.0
97.015	3.0
97.03	3.0
97.045	3.0
97.06	1.0
97.075	3.0
97.09	1.0
97.105	2.0
97.12	3.0
97.135	3.0
97.15	2.0
97.165	2.0
97.18	4.0
97.195	2.0
97.21	1.0
97.225	2.0
97.239	2.0
97.254	1.0
97.269	2.0
97.284	8.0
97.299	4.0
97.314	4.0
97.329	2.0
97.344	2.0
97.359	1.0
97.374	2.0
97.389	2.0
97.404	3.0
97.419	2.0
97.434	2.0
97.449	4.0
97.464	2.0
97.479	3.0
97.494	0.0
97.509	2.0
97.524	1.0
97.538	1.0
97.553	4.0
97.568	3.0
97.583	3.0
97.598	3.0
97.613	4.0
97.628	3.0
97.643	4.0
97.658	5.0
97.673	2.0
97.688	2.0
97.703	1.0
97.718	2.0
97.733	4.0
97.748	1.0
97.763	4.0
97.778	2.0
97.792	2.0
97.807	5.0
97.822	5.0
97.837	4.0
97.852	4.0
97.867	1.0
97.882	6.0
97.897	3.0
97.912	4.0
97.927	4.0
97.942	5.0
97.957	4.0
97.972	1.0
97.987	3.0
98.001	3.0
98.016	5.0
98.031	1.0
98.046	3.0
98.061	3.0
98.076	2.0
98.091	2.0
98.106	5.0
98.121	4.0
98.136	6.0
98.151	2.0
98.166	2.0
98.181	5.0
98.195	3.0
98.21	0.0
98.225	2.0
98.24	8.0
98.255	5.0
98.27	3.0
98.285	4.0
98.3	4.0
98.315	2.0
98.33	2.0
98.345	2.0
98.359	3.0
98.374	0.0
98.389	0.0
98.404	0.0
98.419	3.0
98.434	3.0
98.449	0.0
98.464	2.0
98.479	3.0
98.494	4.0
98.508	2.0
98.523	0.0
98.538	3.0
98.553	4.0
98.568	2.0
98.583	3.0
98.598	5.0
98.613	4.0
98.628	4.0
98.642	3.0
98.657	3.0
98.672	4.0
98.687	3.0
98.702	2.0
98.717	3.0
98.732	1.0
98.747	0.0
98.762	2.0
98.776	1.0
98.791	5.0
98.806	2.0
98.821	4.0
98.836	0.0
98.851	1.0
98.866	8.0
98.881	2.0
98.896	5.0
98.91	2.0
98.925	5.0
98.94	0.0
98.955	5.0
98.97	0.0
98.985	2.0
99.0	2.0
99.015	3.0
99.029	3.0
99.044	2.0
99.059	5.0
99.074	2.0
99.089	6.0
99.104	6.0
99.119	3.0
99.133	1.0
99.148	2.0
99.163	4.0
99.178	2.0
99.193	5.0
99.208	2.0
99.223	0.0
99.238	4.0
99.252	3.0
99.267	2.0
99.282	2.0
99.297	3.0
99.312	5.0
99.327	2.0
99.342	1.0
99.356	5.0
99.371	6.0
99.386	0.0
99.401	3.0
99.416	5.0
99.431	5.0
99.446	1.0
99.461	4.0
99.475	2.0
99.49	3.0
99.505	2.0
99.52	0.0
99.535	2.0
99.55	5.0
99.565	2.0
99.579	6.0
99.594	2.0
99.609	4.0
99.624	2.0
99.639	0.0
99.654	2.0
99.669	2.0
99.683	1.0
99.698	3.0
99.713	3.0
99.728	1.0
99.743	2.0
99.758	5.0
99.772	2.0
99.787	6.0
99.802	5.0
99.817	0.0
99.832	2.0
99.847	1.0
99.862	2.0
99.876	5.0
99.891	2.0
99.906	2.0
99.921	2.0
99.936	1.0
99.951	3.0
99.966	3.0
99.98	5.0
99.995	6.0
100.01	2.0
100.025	3.0
100.04	2.0
100.055	5.0
100.069	2.0
100.084	2.0
100.099	4.0
100.114	2.0
100.129	6.0
100.144	4.0
100.159	1.0
100.173	3.0
100.188	4.0
100.203	0.0
100.218	4.0
100.233	5.0
100.248	5.0
100.262	0.0
100.277	4.0
100.292	6.0
100.307	8.0
100.322	3.0
100.337	3.0
100.351	6.0
100.366	5.0
100.381	7.0
100.396	3.0
100.411	3.0
100.426	2.0
100.441	1.0
100.455	5.0
100.47	2.0
100.485	1.0
100.5	5.0
100.515	3.0
100.53	5.0
100.544	3.0
100.559	5.0
100.574	3.0
100.589	3.0
100.604	2.0
100.619	6.0
100.633	1.0
100.648	0.0
100.663	1.0
100.678	4.0
100.693	4.0
100.708	4.0
100.722	2.0
100.737	4.0
100.752	2.0
100.767	4.0
100.782	4.0
100.796	4.0
100.811	4.0
100.826	2.0
100.841	3.0
100.856	5.0
100.871	3.0
100.885	0.0
100.9	4.0
100.915	3.0
100.93	4.0
100.945	2.0
100.96	2.0
100.974	4.0
100.989	3.0
101.004	3.0
101.019	4.0
101.034	1.0
101.048	2.0
101.063	2.0
101.078	3.0
101.093	6.0
101.108	4.0
101.123	5.0
101.137	4.0
101.152	5.0
101.167	5.0
101.182	4.0
101.197	4.0
101.211	4.0
101.226	3.0
101.241	2.0
101.256	2.0
101.271	5.0
101.285	1.0
101.3	5.0
101.315	3.0
101.33	8.0
101.345	1.0
101.359	4.0
101.374	3.0
101.389	2.0
101.404	1.0
101.419	0.0
101.433	2.0
101.448	2.0
101.463	3.0
101.478	1.0
101.493	3.0
101.507	2.0
101.522	7.0
101.537	6.0
101.552	2.0
101.567	4.0
101.581	4.0
101.596	3.0
101.611	3.0
101.626	2.0
101.64	2.0
101.655	1.0
101.67	2.0
101.685	1.0
101.7	4.0
101.714	2.0
101.729	5.0
101.744	3.0
101.759	4.0
101.773	3.0
101.788	2.0
101.803	4.0
101.818	3.0
101.833	5.0
101.847	5.0
101.862	5.0
101.877	4.0
101.892	4.0
101.906	4.0
101.921	1.0
101.936	2.0
101.951	4.0
101.965	2.0
101.98	1.0
101.995	5.0
102.01	2.0
102.025	5.0
102.039	4.0
102.054	3.0
102.069	2.0
102.084	4.0
102.098	6.0
102.113	3.0
102.128	4.0
102.143	2.0
102.157	3.0
102.172	4.0
102.187	3.0
102.202	5.0
102.216	2.0
102.231	1.0
102.246	3.0
102.261	3.0
102.275	6.0
102.29	2.0
102.305	7.0
102.32	2.0
102.334	5.0
102.349	2.0
102.364	2.0
102.378	1.0
102.393	2.0
102.408	1.0
102.423	2.0
102.437	3.0
102.452	1.0
102.467	1.0
102.482	5.0
102.496	2.0
102.511	2.0
102.526	1.0
102.541	4.0
102.555	7.0
102.57	0.0
102.585	5.0
102.6	3.0
102.614	4.0
102.629	4.0
102.644	6.0
102.659	3.0
102.673	3.0
102.688	4.0
102.703	1.0
102.717	2.0
102.732	4.0
102.747	0.0
102.762	0.0
102.776	2.0
102.791	3.0
102.806	1.0
102.821	3.0
102.835	1.0
102.85	2.0
102.865	5.0
102.88	4.0
102.894	2.0
102.909	1.0
102.924	2.0
102.938	3.0
102.953	3.0
102.968	3.0
102.983	7.0
102.997	8.0
103.012	5.0
103.027	4.0
103.042	2.0
103.056	3.0
103.071	5.0
103.086	2.0
103.101	8.0
103.115	5.0
103.13	3.0
103.145	3.0
103.16	1.0
103.174	3.0
103.189	2.0
103.204	1.0
103.219	2.0
103.233	3.0
103.248	6.0
103.263	3.0
103.278	3.0
103.292	3.0
103.307	3.0
103.322	3.0
103.337	0.0
103.351	4.0
103.366	3.0
103.381	4.0
103.396	7.0
103.41	3.0
103.425	3.0
103.44	4.0
103.455	6.0
103.469	1.0
103.484	3.0
103.499	1.0
103.514	3.0
103.529	0.0
103.543	2.0
103.558	4.0
103.573	2.0
103.588	1.0
103.602	2.0
103.617	2.0
103.632	2.0
103.647	2.0
103.661	0.0
103.676	5.0
103.691	9.0
103.706	4.0
103.721	4.0
103.735	5.0
103.75	1.0
103.765	8.0
103.78	5.0
103.795	4.0
103.809	5.0
103.824	5.0
103.839	4.0
103.854	5.0
103.869	3.0
103.883	5.0
103.898	2.0
103.913	3.0
103.928	4.0
103.943	1.0
103.957	3.0
103.972	4.0
103.987	2.0
104.002	4.0
104.017	0.0
104.031	4.0
104.046	4.0
104.061	1.0
104.076	3.0
104.091	4.0
104.106	1.0
104.12	5.0
104.135	5.0
104.15	4.0
104.165	2.0
104.18	3.0
104.195	1.0
104.209	3.0
104.224	4.0
104.239	4.0
104.254	1.0
104.269	1.0
104.284	4.0
104.299	2.0
104.313	5.0
104.328	5.0
104.343	3.0
104.358	3.0
104.373	2.0
104.388	4.0
104.403	2.0
104.417	7.0
104.432	3.0
104.447	1.0
104.462	1.0
104.477	5.0
104.492	2.0
104.507	5.0
104.522	3.0
104.536	8.0
104.551	6.0
104.566	5.0
104.581	2.0
104.596	2.0
104.611	0.0
104.626	4.0
104.641	2.0
104.656	3.0
104.67	3.0
104.685	2.0
104.7	4.0
104.715	1.0
104.73	2.0
104.745	5.0
104.76	6.0
104.775	7.0
104.79	4.0
104.804	3.0
104.819	6.0
104.834	2.0
104.849	4.0
104.864	4.0
104.879	3.0
104.894	4.0
104.909	2.0
104.924	2.0
104.939	0.0
104.954	1.0
104.968	7.0
104.983	4.0
104.998	4.0
105.013	3.0
105.028	3.0
105.043	2.0
105.058	2.0
105.073	4.0
105.088	2.0
105.103	5.0
105.118	2.0
105.133	1.0
105.147	2.0
105.162	2.0
105.177	1.0
105.192	1.0
105.207	2.0
105.222	2.0
105.237	2.0
105.252	3.0
105.267	6.0
105.282	7.0
105.297	4.0
105.312	4.0
105.327	4.0
105.342	2.0
105.356	2.0
105.371	1.0
105.386	2.0
105.401	4.0
105.416	1.0
105.431	3.0
105.446	1.0
105.461	4.0
105.476	3.0
105.491	1.0
105.506	5.0
105.521	10.0
105.536	4.0
105.551	5.0
105.566	5.0
105.581	4.0
105.595	6.0
105.61	3.0
105.625	2.0
105.64	3.0
105.655	2.0
105.67	4.0
105.685	3.0
105.7	5.0
105.715	5.0
105.73	4.0
105.745	3.0
105.76	1.0
105.775	1.0
105.79	6.0
105.805	2.0
105.82	4.0
105.835	2.0
105.85	1.0
105.864	5.0
105.879	3.0
105.894	3.0
105.909	4.0
105.924	1.0
105.939	2.0
105.954	3.0
105.969	2.0
105.984	3.0
105.999	7.0
106.014	2.0
106.029	4.0
106.044	3.0
106.059	2.0
106.074	2.0
106.089	1.0
106.104	2.0
106.119	1.0
106.134	1.0
106.148	2.0
106.163	4.0
106.178	6.0
106.193	4.0
106.208	1.0
106.223	1.0
106.238	3.0
106.253	1.0
106.268	3.0
106.283	2.0
106.298	5.0
106.313	7.0
106.328	5.0
106.343	5.0
106.358	2.0
106.373	3.0
106.388	3.0
106.403	4.0
106.418	2.0
106.432	2.0
106.447	1.0
106.462	7.0
106.477	3.0
106.492	2.0
106.507	3.0
106.522	1.0
106.537	5.0
106.552	4.0
106.567	3.0
106.582	2.0
106.597	3.0
106.612	4.0
106.627	2.0
106.642	1.0
106.657	3.0
106.672	6.0
106.687	2.0
106.701	0.0
106.716	4.0
106.731	2.0
106.746	4.0
106.761	2.0
106.776	3.0
106.791	5.0
106.806	0.0
106.821	5.0
106.836	5.0
106.851	6.0
106.866	3.0
106.881	0.0
106.896	1.0
106.911	2.0
106.926	1.0
106.941	1.0
106.955	3.0
106.97	3.0
106.985	2.0
107.0	4.0
107.015	2.0
107.03	1.0
107.045	1.0
107.06	2.0
107.075	4.0
107.09	3.0
107.105	5.0
107.12	4.0
107.135	5.0
107.15	6.0
107.165	1.0
107.18	2.0
107.194	3.0
107.209	5.0
107.224	8.0
107.239	7.0
107.254	4.0
107.269	5.0
107.284	6.0
107.299	1.0
107.314	4.0
107.329	5.0
107.344	1.0
107.359	3.0
107.374	4.0
107.389	5.0
107.404	2.0
107.418	3.0
107.433	3.0
107.448	3.0
107.463	2.0
107.478	3.0
107.493	3.0
107.508	2.0
107.523	4.0
107.538	1.0
107.553	1.0
107.568	5.0
107.583	5.0
107.598	3.0
107.613	3.0
107.627	3.0
107.642	2.0
107.657	2.0
107.672	3.0
107.687	4.0
107.702	1.0
107.717	5.0
107.732	3.0
107.747	5.0
107.762	1.0
107.777	3.0
107.792	0.0
107.807	4.0
107.821	3.0
107.836	2.0
107.851	2.0
107.866	2.0
107.881	4.0
107.896	3.0
107.911	2.0
107.926	4.0
107.941	3.0
107.956	2.0
107.971	4.0
107.986	3.0
108.0	2.0
108.015	4.0
108.03	0.0
108.045	8.0
108.06	5.0
108.075	3.0
108.09	3.0
108.105	8.0
108.12	5.0
108.135	3.0
108.15	6.0
108.164	5.0
108.179	5.0
108.194	5.0
108.209	7.0
108.224	3.0
108.239	4.0
108.254	4.0
108.269	4.0
108.284	4.0
108.299	3.0
108.313	1.0
108.328	2.0
108.343	2.0
108.358	2.0
108.373	3.0
108.388	3.0
108.403	2.0
108.418	2.0
108.433	5.0
108.448	2.0
108.462	6.0
108.477	4.0
108.492	4.0
108.507	4.0
108.522	3.0
108.537	3.0
108.552	5.0
108.567	2.0
108.582	3.0
108.597	2.0
108.611	1.0
108.626	3.0
108.641	6.0
108.656	5.0
108.671	5.0
108.686	2.0
108.701	2.0
108.716	3.0
108.731	2.0
108.745	4.0
108.76	1.0
108.775	5.0
108.79	3.0
108.805	1.0
108.82	2.0
108.835	6.0
108.85	7.0
108.865	4.0
108.879	4.0
108.894	2.0
108.909	4.0
108.924	5.0
108.939	5.0
108.954	1.0
108.969	3.0
108.984	0.0
108.999	3.0
109.013	0.0
109.028	4.0
109.043	5.0
109.058	1.0
109.073	4.0
109.088	4.0
109.103	3.0
109.118	4.0
109.133	5.0
109.147	1.0
109.162	3.0
109.177	1.0
109.192	2.0
109.207	0.0
109.222	3.0
109.237	3.0
109.252	6.0
109.267	2.0
109.281	7.0
109.296	4.0
109.311	7.0
109.326	2.0
109.341	1.0
109.356	0.0
109.371	6.0
109.386	3.0
109.4	5.0
109.415	4.0
109.43	6.0
109.445	1.0
109.46	3.0
109.475	4.0
109.49	1.0
109.505	4.0
109.52	0.0
109.534	3.0
109.549	5.0
109.564	6.0
109.579	4.0
109.594	3.0
109.609	3.0
109.624	3.0
109.639	3.0
109.653	2.0
109.668	4.0
109.683	1.0
109.698	3.0
109.713	2.0
109.728	1.0
109.743	2.0
109.758	1.0
109.773	1.0
109.787	2.0
109.802	4.0
109.817	4.0
109.832	1.0
109.847	4.0
109.862	4.0
109.877	3.0
109.892	6.0
109.907	4.0
109.921	3.0
109.936	2.0
109.951	7.0
109.966	6.0
109.981	0.0
109.996	3.0
110.011	4.0
110.026	7.0
110.04	3.0
110.055	2.0
110.07	2.0
110.085	1.0
110.1	4.0
110.115	4.0
110.13	3.0
110.145	4.0
110.16	4.0
110.174	2.0
110.189	5.0
110.204	1.0
110.219	4.0
110.234	4.0
110.249	4.0
110.264	4.0
110.279	2.0
110.294	2.0
110.308	4.0
110.323	1.0
110.338	4.0
110.353	1.0
110.368	0.0
110.383	1.0
110.398	6.0
110.413	2.0
110.428	3.0
110.442	3.0
110.457	2.0
110.472	4.0
110.487	1.0
110.502	3.0
110.517	1.0
110.532	3.0
110.547	1.0
110.561	3.0
110.576	2.0
110.591	0.0
110.606	2.0
110.621	5.0
110.636	2.0
110.651	4.0
110.666	3.0
110.681	3.0
110.695	2.0
110.71	7.0
110.725	1.0
110.74	5.0
110.755	8.0
110.77	4.0
110.785	4.0
110.8	0.0
110.815	3.0
110.829	1.0
110.844	7.0
110.859	2.0
110.874	4.0
110.889	2.0
110.904	1.0
110.919	1.0
110.934	2.0
110.948	5.0
110.963	3.0
110.978	5.0
110.993	5.0
111.008	1.0
111.023	1.0
111.038	7.0
111.053	2.0
111.067	6.0
111.082	3.0
111.097	6.0
111.112	6.0
111.127	1.0
111.142	4.0
111.157	1.0
111.172	2.0
111.186	5.0
111.201	6.0
111.216	2.0
111.231	3.0
111.246	2.0
111.261	3.0
111.276	4.0
111.291	1.0
111.305	2.0
111.32	2.0
111.335	2.0
111.35	2.0
111.365	3.0
111.38	4.0
111.395	6.0
111.41	3.0
111.424	2.0
111.439	3.0
111.454	6.0
111.469	2.0
111.484	5.0
111.499	1.0
111.514	4.0
111.528	2.0
111.543	3.0
111.558	6.0
111.573	4.0
111.588	4.0
111.603	2.0
111.618	4.0
111.633	6.0
111.647	4.0
111.662	3.0
111.677	1.0
111.692	1.0
111.707	4.0
111.722	5.0
111.737	6.0
111.751	3.0
111.766	1.0
111.781	5.0
111.796	4.0
111.811	4.0
111.826	4.0
111.84	6.0
111.855	4.0
111.87	6.0
111.885	7.0
111.9	4.0
111.915	7.0
111.93	1.0
111.944	3.0
111.959	4.0
111.974	2.0
111.989	6.0
112.004	5.0
112.019	2.0
112.033	1.0
112.048	5.0
112.063	1.0
112.078	2.0
112.093	4.0
112.108	1.0
112.123	0.0
112.137	1.0
112.152	6.0
112.167	3.0
112.182	2.0
112.197	3.0
112.212	5.0
112.226	4.0
112.241	5.0
112.256	4.0
112.271	1.0
112.286	4.0
112.301	3.0
112.315	4.0
112.33	2.0
112.345	5.0
112.36	1.0
112.375	2.0
112.389	3.0
112.404	2.0
112.419	6.0
112.434	4.0
112.449	2.0
112.464	1.0
112.478	4.0
112.493	3.0
112.508	6.0
112.523	3.0
112.538	5.0
112.553	3.0
112.567	0.0
112.582	4.0
112.597	3.0
112.612	2.0
112.627	8.0
112.642	5.0
112.656	1.0
112.671	5.0
112.686	4.0
112.701	5.0
112.716	1.0
112.73	4.0
112.745	3.0
112.76	3.0
112.775	4.0
112.79	2.0
112.805	6.0
112.819	2.0
112.834	5.0
112.849	7.0
112.864	1.0
112.879	1.0
112.894	2.0
112.908	6.0
112.923	2.0
112.938	1.0
112.953	5.0
112.968	4.0
112.983	5.0
112.997	2.0
113.012	4.0
113.027	4.0
113.042	2.0
113.057	5.0
113.072	6.0
113.086	4.0
113.101	9.0
113.116	2.0
113.131	2.0
113.146	3.0
113.161	2.0
113.175	4.0
113.19	1.0
113.205	4.0
113.22	6.0
113.235	5.0
113.25	2.0
113.265	1.0
113.279	1.0
113.294	5.0
113.309	3.0
113.324	1.0
113.339	5.0
113.354	1.0
113.368	3.0
113.383	3.0
113.398	2.0
113.413	3.0
113.428	3.0
113.443	3.0
113.458	3.0
113.472	5.0
113.487	4.0
113.502	5.0
113.517	1.0
113.532	1.0
113.547	2.0
113.562	5.0
113.576	2.0
113.591	4.0
113.606	3.0
113.621	2.0
113.636	5.0
113.651	4.0
113.666	1.0
113.681	2.0
113.695	4.0
113.71	4.0
113.725	3.0
113.74	1.0
113.755	4.0
113.77	1.0
113.785	2.0
113.8	4.0
113.814	3.0
113.829	2.0
113.844	3.0
113.859	2.0
113.874	4.0
113.889	5.0
113.904	9.0
113.919	6.0
113.934	6.0
113.949	3.0
113.963	2.0
113.978	1.0
113.993	3.0
114.008	3.0
114.023	4.0
114.038	3.0
114.053	1.0
114.068	7.0
114.083	2.0
114.098	2.0
114.113	2.0
114.127	3.0
114.142	5.0
114.157	4.0
114.172	5.0
114.187	4.0
114.202	3.0
114.217	4.0
114.232	1.0
114.247	5.0
114.262	5.0
114.277	4.0
114.292	3.0
114.307	2.0
114.322	4.0
114.337	3.0
114.351	3.0
114.366	3.0
114.381	5.0
114.396	1.0
114.411	3.0
114.426	3.0
114.441	4.0
114.456	2.0
114.471	4.0
114.486	3.0
114.501	5.0
114.516	1.0
114.531	9.0
114.546	3.0
114.561	3.0
114.576	4.0
114.591	2.0
114.606	0.0
114.621	2.0
114.636	3.0
114.65	7.0
114.665	3.0
114.68	3.0
114.695	2.0
114.71	4.0
114.725	4.0
114.74	2.0
114.755	3.0
114.77	3.0
114.785	1.0
114.8	2.0
114.815	0.0
114.83	4.0
114.845	4.0
114.86	4.0
114.875	3.0
114.89	3.0
114.905	4.0
114.92	2.0
114.935	1.0
114.95	3.0
114.965	7.0
114.98	7.0
114.995	3.0
115.009	4.0
115.024	4.0
115.039	6.0
115.054	1.0
115.069	9.0
115.084	3.0
115.099	4.0
115.114	1.0
115.129	5.0
115.144	5.0
115.159	2.0
115.174	6.0
115.189	2.0
115.204	1.0
115.219	4.0
115.234	5.0
115.249	2.0
115.264	3.0
115.279	4.0
115.294	6.0
115.309	6.0
115.323	5.0
115.338	3.0
115.353	4.0
115.368	1.0
115.383	6.0
115.398	3.0
115.413	8.0
115.428	5.0
115.443	3.0
115.458	1.0
115.473	4.0
115.488	3.0
115.503	2.0
115.518	8.0
115.533	6.0
115.548	2.0
115.562	4.0
115.577	8.0
115.592	3.0
115.607	2.0
115.622	4.0
115.637	2.0
115.652	1.0
115.667	2.0
115.682	2.0
115.697	3.0
115.712	3.0
115.727	2.0
115.741	5.0
115.756	6.0
115.771	5.0
115.786	3.0
115.801	3.0
115.816	2.0
115.831	3.0
115.846	6.0
115.861	4.0
115.875	1.0
115.89	2.0
115.905	3.0
115.92	1.0
115.935	6.0
115.95	4.0
115.965	2.0
115.98	1.0
115.995	2.0
116.009	6.0
116.024	1.0
116.039	1.0
116.054	4.0
116.069	5.0
116.084	4.0
116.099	4.0
116.113	2.0
116.128	3.0
116.143	1.0
116.158	7.0
116.173	3.0
116.188	8.0
116.202	3.0
116.217	4.0
116.232	1.0
116.247	4.0
116.262	2.0
116.277	4.0
116.291	3.0
116.306	5.0
116.321	7.0
116.336	5.0
116.351	6.0
116.366	5.0
116.38	4.0
116.395	7.0
116.41	1.0
116.425	3.0
116.44	3.0
116.454	5.0
116.469	5.0
116.484	9.0
116.499	7.0
116.514	4.0
116.528	3.0
116.543	1.0
116.558	5.0
116.573	6.0
116.588	4.0
116.602	2.0
116.617	3.0
116.632	2.0
116.647	3.0
116.662	2.0
116.676	1.0
116.691	2.0
116.706	3.0
116.721	3.0
116.735	2.0
116.75	1.0
116.765	1.0
116.78	2.0
116.795	2.0
116.809	3.0
116.824	2.0
116.839	3.0
116.854	7.0
116.868	5.0
116.883	4.0
116.898	4.0
116.913	4.0
116.927	2.0
116.942	1.0
116.957	2.0
116.972	3.0
116.986	3.0
117.001	3.0
117.016	3.0
117.031	3.0
117.045	1.0
117.06	3.0
117.075	0.0
117.09	1.0
117.104	4.0
117.119	7.0
117.134	4.0
117.149	6.0
117.163	5.0
117.178	3.0
117.193	7.0
117.208	4.0
117.222	7.0
117.237	6.0
117.252	3.0
117.267	6.0
117.281	5.0
117.296	3.0
117.311	2.0
117.325	3.0
117.34	5.0
117.355	5.0
117.37	3.0
117.384	10.0
117.399	6.0
117.414	2.0
117.429	4.0
117.443	5.0
117.458	5.0
117.473	0.0
117.487	2.0
117.502	4.0
117.517	3.0
117.532	2.0
117.546	2.0
117.561	3.0
117.576	3.0
117.59	3.0
117.605	2.0
117.62	3.0
117.635	2.0
117.649	6.0
117.664	5.0
117.679	3.0
117.693	2.0
117.708	1.0
117.723	1.0
117.738	1.0
117.752	2.0
117.767	6.0
117.782	5.0
117.796	2.0
117.811	1.0
117.826	2.0
117.841	3.0
117.855	4.0
117.87	0.0
117.885	4.0
117.899	2.0
117.914	1.0
117.929	6.0
117.944	6.0
117.958	0.0
117.973	2.0
117.988	6.0
118.002	4.0
118.017	5.0
118.032	6.0
118.047	2.0
118.062	4.0
118.077	4.0
118.092	1.0
118.107	3.0
118.121	4.0
118.136	9.0
118.151	5.0
118.166	2.0
118.181	2.0
118.196	5.0
118.211	7.0
118.225	9.0
118.24	3.0
118.255	3.0
118.27	4.0
118.285	4.0
118.3	5.0
118.315	7.0
118.33	4.0
118.344	2.0
118.359	2.0
118.374	4.0
118.389	1.0
118.404	5.0
118.419	3.0
118.434	4.0
118.449	2.0
118.463	6.0
118.478	4.0
118.493	3.0
118.508	5.0
118.523	3.0
118.538	4.0
118.553	1.0
118.567	2.0
118.582	3.0
118.597	7.0
118.612	3.0
118.627	2.0
118.642	2.0
118.657	10.0
118.672	4.0
118.686	2.0
118.701	1.0
118.716	3.0
118.731	4.0
118.746	2.0
118.761	5.0
118.776	3.0
118.791	5.0
118.805	3.0
118.82	2.0
118.835	4.0
118.85	4.0
118.865	4.0
118.88	4.0
118.895	6.0
118.909	3.0
118.924	6.0
118.939	3.0
118.954	6.0
118.969	6.0
118.984	4.0
118.999	2.0
119.014	3.0
119.028	6.0
119.043	4.0
119.058	9.0
119.073	3.0
119.088	2.0
119.103	2.0
119.118	9.0
119.133	2.0
119.147	3.0
119.162	5.0
119.177	2.0
119.192	5.0
119.207	1.0
119.222	3.0
119.237	5.0
119.251	6.0
119.266	2.0
119.281	5.0
119.296	5.0
119.311	9.0
119.326	4.0
119.341	3.0
119.356	4.0
119.37	5.0
119.385	3.0
119.4	4.0
119.415	2.0
119.43	3.0
119.445	4.0
119.46	2.0
119.475	4.0
119.489	5.0
119.504	4.0
119.519	0.0
119.534	5.0
119.549	5.0
119.564	4.0
119.579	3.0
119.593	0.0
119.608	4.0
119.623	2.0
119.638	3.0
119.653	6.0
119.668	2.0
119.683	1.0
119.698	4.0
119.712	2.0
119.727	8.0
119.742	2.0
119.757	4.0
119.772	5.0
119.787	3.0
119.802	2.0
119.817	2.0
119.831	4.0
119.846	3.0
119.861	3.0
119.876	1.0
119.891	5.0
119.906	4.0
119.921	3.0
119.935	2.0
119.95	2.0
119.965	2.0
119.98	2.0
119.995	1.0
120.01	3.0
120.025	3.0
120.04	3.0
120.054	0.0
120.069	1.0
120.084	2.0
120.099	2.0
120.114	2.0
120.129	1.0
120.144	1.0
120.159	2.0
120.173	2.0
120.188	0.0
120.203	0.0
120.218	2.0
120.233	1.0
120.248	1.0
120.263	0.0
120.277	0.0
120.292	1.0
120.307	0.0
120.322	1.0
120.337	0.0
120.352	1.0
120.367	1.0
120.382	0.0
120.396	0.0
120.411	0.0
120.426	0.0
120.441	0.0
120.456	0.0
120.471	0.0
120.486	0.0
120.501	0.0
120.515	0.0
120.53	0.0
120.545	0.0
120.56	0.0
120.575	0.0
120.59	0.0
120.605	1.0
120.619	0.0
120.634	0.0
120.649	0.0
120.664	0.0
120.679	1.0
120.694	0.0
120.709	0.0
120.724	0.0
120.738	0.0
120.753	0.0
120.768	0.0
120.783	0.0
120.798	0.0
120.813	0.0
120.828	0.0
120.843	0.0
120.857	0.0
120.872	0.0
120.887	0.0
120.902	0.0
120.917	0.0
120.932	0.0
120.947	0.0
120.961	0.0
120.976	0.0
