-1.217	0.0
-1.202	0.0
-1.187	0.0
-1.172	0.0
-1.157	0.0
-1.142	0.0
-1.128	0.0
-1.113	0.0
-1.098	0.0
-1.083	0.0
-1.068	0.0
-1.054	0.0
-1.039	0.0
-1.024	0.0
-1.009	0.0
-0.994	0.0
-0.979	0.0
-0.965	0.0
-0.95	0.0
-0.935	0.0
-0.92	0.0
-0.905	0.0
-0.891	0.0
-0.876	0.0
-0.861	0.0
-0.846	0.0
-0.831	0.0
-0.816	0.0
-0.802	0.0
-0.787	0.0
-0.772	0.0
-0.757	0.0
-0.742	0.0
-0.728	0.0
-0.713	0.0
-0.698	0.0
-0.683	0.0
-0.668	0.0
-0.653	0.0
-0.639	0.0
-0.624	0.0
-0.609	0.0
-0.594	0.0
-0.579	0.0
-0.565	0.0
-0.55	0.0
-0.535	0.0
-0.52	0.0
-0.505	0.0
-0.49	0.0
-0.476	0.0
-0.461	0.0
-0.446	0.0
-0.431	0.0
-0.416	0.0
-0.401	0.0
-0.387	0.0
-0.372	0.0
-0.357	0.0
-0.342	0.0
-0.327	0.0
-0.313	0.0
-0.298	0.0
-0.283	0.0
-0.268	0.0
-0.253	0.0
-0.238	0.0
-0.224	0.0
-0.209	0.0
-0.194	0.0
-0.179	0.0
-0.164	0.0
-0.15	0.0
-0.135	0.0
-0.12	0.0
-0.105	0.0
-0.09	0.0
-0.075	0.0
-0.061	0.0
-0.046	0.0
-0.031	0.0
-0.016	0.0
-0.001	0.0
0.013	0.0
0.028	0.0
0.043	0.0
0.058	0.0
0.073	0.0
0.088	0.0
0.102	1.0
0.117	0.0
0.132	0.0
0.147	0.0
0.162	0.0
0.176	0.0
0.191	0.0
0.206	0.0
0.221	1.0
0.236	0.0
0.251	0.0
0.265	0.0
0.28	0.0
0.295	0.0
0.31	0.0
0.325	0.0
0.339	0.0
0.354	0.0
0.369	0.0
0.384	0.0
0.399	0.0
0.414	0.0
0.428	0.0
0.443	0.0
0.458	0.0
0.473	0.0
0.488	0.0
0.502	1.0
0.517	0.0
0.532	0.0
0.547	0.0
0.562	0.0
0.577	0.0
0.591	0.0
0.606	0.0
0.621	1.0
0.636	0.0
0.651	0.0
0.665	0.0
0.68	0.0
0.695	0.0
0.71	0.0
0.725	0.0
0.74	0.0
0.754	0.0
0.769	0.0
0.784	0.0
0.799	0.0
0.814	0.0
0.828	0.0
0.843	0.0
0.858	0.0
0.873	0.0
0.888	0.0
0.903	0.0
0.917	0.0
0.932	0.0
0.947	0.0
0.962	0.0
0.977	0.0
0.991	0.0
1.006	0.0
1.021	0.0
1.036	0.0
1.051	1.0
1.065	0.0
1.08	0.0
1.095	0.0
1.11	0.0
1.125	0.0
1.14	0.0
1.154	0.0
1.169	0.0
1.184	0.0
1.199	0.0
1.214	0.0
1.228	0.0
1.243	0.0
1.258	1.0
1.273	0.0
1.288	0.0
1.302	0.0
1.317	0.0
1.332	0.0
1.347	0.0
1.362	0.0
1.376	0.0
1.391	0.0
1.406	0.0
1.421	0.0
1.436	0.0
1.45	0.0
1.465	0.0
1.48	0.0
1.495	0.0
1.51	0.0
1.524	0.0
1.539	0.0
1.554	1.0
1.569	0.0
1.584	0.0
1.598	0.0
1.613	0.0
1.628	0.0
1.643	0.0
1.658	0.0
1.672	1.0
1.687	1.0
1.702	0.0
1.717	0.0
1.732	0.0
1.746	0.0
1.761	0.0
1.776	0.0
1.791	0.0
1.806	0.0
1.82	0.0
1.835	0.0
1.85	0.0
1.865	0.0
1.88	1.0
1.894	0.0
1.909	0.0
1.924	0.0
1.939	0.0
1.954	0.0
1.968	0.0
1.983	0.0
1.998	0.0
2.013	0.0
2.028	0.0
2.042	0.0
2.057	1.0
2.072	0.0
2.087	0.0
2.101	0.0
2.116	0.0
2.131	0.0
2.146	0.0
2.161	0.0
2.175	1.0
2.19	0.0
2.205	0.0
2.22	1.0
2.235	1.0
2.249	0.0
2.264	0.0
2.279	0.0
2.294	1.0
2.308	1.0
2.323	1.0
2.338	0.0
2.353	1.0
2.368	0.0
2.382	1.0
2.397	1.0
2.412	0.0
2.427	0.0
2.442	1.0
2.456	1.0
2.471	1.0
2.486	2.0
2.501	1.0
2.515	0.0
2.53	4.0
2.545	2.0
2.56	6.0
2.575	2.0
2.589	2.0
2.604	2.0
2.619	4.0
2.634	0.0
2.649	4.0
2.663	3.0
2.678	3.0
2.693	2.0
2.708	5.0
2.722	2.0
2.737	4.0
2.752	1.0
2.767	4.0
2.782	2.0
2.796	2.0
2.811	2.0
2.826	0.0
2.841	2.0
2.856	6.0
2.87	2.0
2.885	3.0
2.9	0.0
2.915	3.0
2.93	3.0
2.944	3.0
2.959	4.0
2.974	6.0
2.989	3.0
3.004	5.0
3.018	2.0
3.033	3.0
3.048	2.0
3.063	3.0
3.078	4.0
3.092	3.0
3.107	2.0
3.122	4.0
3.137	3.0
3.152	3.0
3.166	4.0
3.181	6.0
3.196	6.0
3.211	6.0
3.226	8.0
3.24	3.0
3.255	3.0
3.27	5.0
3.285	5.0
3.3	4.0
3.315	0.0
3.329	2.0
3.344	6.0
3.359	3.0
3.374	1.0
3.389	5.0
3.403	3.0
3.418	4.0
3.433	2.0
3.448	6.0
3.463	7.0
3.478	3.0
3.492	6.0
3.507	3.0
3.522	3.0
3.537	7.0
3.552	2.0
3.567	6.0
3.581	3.0
3.596	6.0
3.611	2.0
3.626	6.0
3.641	4.0
3.656	6.0
3.671	7.0
3.685	5.0
3.7	7.0
3.715	6.0
3.73	11.0
3.745	8.0
3.76	6.0
3.775	3.0
3.789	6.0
3.804	4.0
3.819	6.0
3.834	3.0
3.849	3.0
3.864	6.0
3.879	2.0
3.894	5.0
3.908	6.0
3.923	8.0
3.938	6.0
3.953	3.0
3.968	7.0
3.983	7.0
3.998	9.0
4.013	7.0
4.027	5.0
4.042	5.0
4.057	5.0
4.072	6.0
4.087	8.0
4.102	6.0
4.117	8.0
4.132	6.0
4.147	6.0
4.162	3.0
4.176	8.0
4.191	8.0
4.206	8.0
4.221	5.0
4.236	3.0
4.251	8.0
4.266	7.0
4.281	6.0
4.296	7.0
4.311	8.0
4.326	10.0
4.341	9.0
4.356	9.0
4.37	5.0
4.385	8.0
4.4	3.0
4.415	8.0
4.43	13.0
4.445	8.0
4.46	12.0
4.475	7.0
4.49	4.0
4.505	5.0
4.52	10.0
4.535	6.0
4.55	9.0
4.565	7.0
4.58	6.0
4.595	7.0
4.61	9.0
4.625	4.0
4.639	9.0
4.654	6.0
4.669	4.0
4.684	9.0
4.699	8.0
4.714	6.0
4.729	8.0
4.744	8.0
4.759	9.0
4.774	7.0
4.789	7.0
4.804	7.0
4.819	5.0
4.834	9.0
4.849	10.0
4.864	5.0
4.879	7.0
4.894	11.0
4.909	6.0
4.924	4.0
4.939	6.0
4.954	11.0
4.969	6.0
4.984	12.0
4.999	8.0
5.014	8.0
5.029	10.0
5.044	9.0
5.059	5.0
5.074	5.0
5.089	8.0
5.104	9.0
5.119	8.0
5.134	9.0
5.149	5.0
5.164	12.0
5.179	9.0
5.194	4.0
5.209	8.0
5.224	8.0
5.239	7.0
5.254	6.0
5.269	10.0
5.284	8.0
5.299	4.0
5.314	12.0
5.329	8.0
5.344	11.0
5.359	8.0
5.374	7.0
5.389	2.0
5.404	10.0
5.419	5.0
5.434	12.0
5.449	6.0
5.464	7.0
5.479	8.0
5.494	9.0
5.509	5.0
5.524	6.0
5.539	5.0
5.554	10.0
5.569	10.0
5.584	6.0
5.599	4.0
5.614	13.0
5.629	9.0
5.644	6.0
5.659	14.0
5.674	8.0
5.689	7.0
5.704	3.0
5.719	4.0
5.734	12.0
5.749	7.0
5.764	9.0
5.779	10.0
5.794	9.0
5.809	12.0
5.824	11.0
5.839	11.0
5.854	8.0
5.869	11.0
5.884	11.0
5.899	11.0
5.914	8.0
5.929	14.0
5.944	9.0
5.959	17.0
5.974	6.0
5.989	11.0
6.004	6.0
6.019	8.0
6.034	8.0
6.049	12.0
6.064	6.0
6.079	12.0
6.094	11.0
6.109	9.0
6.124	6.0
6.139	4.0
6.154	9.0
6.169	5.0
6.184	10.0
6.199	9.0
6.214	6.0
6.229	7.0
6.244	9.0
6.259	7.0
6.274	5.0
6.289	1.0
6.304	12.0
6.319	9.0
6.334	9.0
6.349	10.0
6.364	7.0
6.379	8.0
6.394	7.0
6.409	11.0
6.424	5.0
6.439	6.0
6.454	18.0
6.469	9.0
6.484	13.0
6.499	13.0
6.514	11.0
6.529	8.0
6.544	13.0
6.559	7.0
6.574	11.0
6.589	6.0
6.604	7.0
6.619	12.0
6.634	9.0
6.649	6.0
6.664	11.0
6.679	12.0
6.694	19.0
6.709	9.0
6.724	5.0
6.739	6.0
6.754	8.0
6.769	14.0
6.784	10.0
6.799	12.0
6.814	10.0
6.829	9.0
6.844	9.0
6.859	12.0
6.873	11.0
6.888	11.0
6.903	3.0
6.918	8.0
6.933	10.0
6.948	6.0
6.963	11.0
6.978	10.0
6.993	6.0
7.008	6.0
7.023	12.0
7.038	7.0
7.053	4.0
7.068	10.0
7.083	10.0
7.098	8.0
7.113	8.0
7.128	11.0
7.143	9.0
7.157	10.0
7.172	4.0
7.187	6.0
7.202	5.0
7.217	10.0
7.232	11.0
7.247	11.0
7.262	10.0
7.277	8.0
7.292	7.0
7.307	4.0
7.322	12.0
7.336	4.0
7.351	8.0
7.366	7.0
7.381	9.0
7.396	8.0
7.411	11.0
7.426	9.0
7.441	8.0
7.456	4.0
7.471	5.0
7.485	7.0
7.5	7.0
7.515	15.0
7.53	4.0
7.545	9.0
7.56	7.0
7.575	9.0
7.59	13.0
7.604	7.0
7.619	9.0
7.634	7.0
7.649	12.0
7.664	6.0
7.679	15.0
7.693	4.0
7.708	8.0
7.723	11.0
7.738	4.0
7.753	13.0
7.768	6.0
7.783	7.0
7.797	9.0
7.812	7.0
7.827	8.0
7.842	2.0
7.857	2.0
7.871	10.0
7.886	7.0
7.901	5.0
7.916	8.0
7.931	13.0
7.945	6.0
7.96	8.0
7.975	12.0
7.99	7.0
8.005	5.0
8.019	5.0
8.034	5.0
8.049	4.0
8.064	10.0
8.078	12.0
8.093	12.0
8.108	6.0
8.123	12.0
8.137	12.0
8.152	6.0
8.167	8.0
8.182	5.0
8.196	7.0
8.211	11.0
8.226	8.0
8.241	11.0
8.255	5.0
8.27	6.0
8.285	5.0
8.3	5.0
8.314	7.0
8.329	8.0
8.344	12.0
8.358	12.0
8.373	12.0
8.388	8.0
8.403	6.0
8.417	7.0
8.432	12.0
8.447	8.0
8.461	7.0
8.476	8.0
8.491	9.0
8.505	6.0
8.52	5.0
8.535	9.0
8.55	8.0
8.564	12.0
8.579	10.0
8.594	10.0
8.608	15.0
8.623	9.0
8.638	6.0
8.652	7.0
8.667	7.0
8.682	7.0
8.696	5.0
8.711	10.0
8.726	11.0
8.74	8.0
8.755	6.0
8.77	14.0
8.784	6.0
8.799	7.0
8.814	4.0
8.828	10.0
8.843	4.0
8.858	12.0
8.872	11.0
8.887	9.0
8.902	8.0
8.916	11.0
8.931	6.0
8.946	8.0
8.96	8.0
8.975	9.0
8.99	9.0
9.004	9.0
9.019	12.0
9.034	6.0
9.048	9.0
9.063	10.0
9.077	10.0
9.092	4.0
9.107	12.0
9.121	6.0
9.136	10.0
9.151	14.0
9.165	6.0
9.18	8.0
9.195	8.0
9.209	5.0
9.224	7.0
9.239	7.0
9.253	9.0
9.268	8.0
9.283	11.0
9.297	3.0
9.312	6.0
9.327	9.0
9.341	6.0
9.356	11.0
9.371	10.0
9.385	8.0
9.4	12.0
9.415	8.0
9.429	5.0
9.444	13.0
9.458	9.0
9.473	9.0
9.488	7.0
9.502	7.0
9.517	7.0
9.532	4.0
9.546	11.0
9.561	15.0
9.576	16.0
9.59	6.0
9.605	11.0
9.62	9.0
9.635	6.0
9.649	9.0
9.664	9.0
9.679	9.0
9.693	13.0
9.708	7.0
9.723	7.0
9.737	9.0
9.752	10.0
9.767	5.0
9.781	7.0
9.796	8.0
9.811	8.0
9.825	8.0
9.84	7.0
9.855	7.0
9.87	6.0
9.884	11.0
9.899	11.0
9.914	8.0
9.928	7.0
9.943	11.0
9.958	14.0
9.973	13.0
9.987	5.0
10.002	12.0
10.017	9.0
10.031	8.0
10.046	11.0
10.061	7.0
10.076	4.0
10.09	6.0
10.105	9.0
10.12	10.0
10.135	8.0
10.149	8.0
10.164	4.0
10.179	13.0
10.194	7.0
10.208	4.0
10.223	11.0
10.238	6.0
10.253	9.0
10.267	5.0
10.282	6.0
10.297	9.0
10.312	6.0
10.326	4.0
10.341	6.0
10.356	3.0
10.371	11.0
10.386	2.0
10.4	8.0
10.415	6.0
10.43	4.0
10.445	10.0
10.46	7.0
10.474	10.0
10.489	12.0
10.504	12.0
10.519	7.0
10.533	5.0
10.548	6.0
10.563	4.0
10.578	6.0
10.593	6.0
10.608	5.0
10.622	8.0
10.637	9.0
10.652	9.0
10.667	5.0
10.682	9.0
10.696	9.0
10.711	7.0
10.726	6.0
10.741	9.0
10.756	3.0
10.771	6.0
10.785	2.0
10.8	4.0
10.815	6.0
10.83	9.0
10.845	4.0
10.86	8.0
10.874	9.0
10.889	12.0
10.904	3.0
10.919	7.0
10.934	10.0
10.949	5.0
10.963	4.0
10.978	9.0
10.993	10.0
11.008	5.0
11.023	9.0
11.038	8.0
11.053	7.0
11.067	10.0
11.082	5.0
11.097	6.0
11.112	6.0
11.127	8.0
11.142	5.0
11.157	9.0
11.172	11.0
11.186	6.0
11.201	4.0
11.216	7.0
11.231	6.0
11.246	4.0
11.261	8.0
11.276	8.0
11.291	9.0
11.305	6.0
11.32	10.0
11.335	10.0
11.35	8.0
11.365	6.0
11.38	3.0
11.395	4.0
11.41	6.0
11.424	6.0
11.439	9.0
11.454	9.0
11.469	13.0
11.484	8.0
11.499	8.0
11.514	5.0
11.529	5.0
11.544	9.0
11.558	9.0
11.573	10.0
11.588	6.0
11.603	7.0
11.618	7.0
11.633	11.0
11.648	12.0
11.663	4.0
11.678	4.0
11.693	9.0
11.707	10.0
11.722	12.0
11.737	8.0
11.752	3.0
11.767	5.0
11.782	3.0
11.797	4.0
11.812	6.0
11.827	4.0
11.842	6.0
11.856	6.0
11.871	9.0
11.886	7.0
11.901	14.0
11.916	10.0
11.931	11.0
11.946	8.0
11.961	10.0
11.976	12.0
11.991	4.0
12.006	11.0
12.02	16.0
12.035	12.0
12.05	6.0
12.065	13.0
12.08	9.0
12.095	12.0
12.11	11.0
12.125	10.0
12.14	8.0
12.155	11.0
12.17	12.0
12.184	7.0
12.199	21.0
12.214	9.0
12.229	9.0
12.244	4.0
12.259	2.0
12.274	7.0
12.289	13.0
12.304	10.0
12.319	10.0
12.334	11.0
12.348	12.0
12.363	12.0
12.378	15.0
12.393	7.0
12.408	13.0
12.423	13.0
12.438	4.0
12.453	14.0
12.468	8.0
12.483	10.0
12.498	15.0
12.513	13.0
12.527	12.0
12.542	14.0
12.557	15.0
12.572	11.0
12.587	11.0
12.602	7.0
12.617	21.0
12.632	16.0
12.647	17.0
12.662	12.0
12.677	12.0
12.692	21.0
12.707	6.0
12.721	11.0
12.736	23.0
12.751	14.0
12.766	14.0
12.781	10.0
12.796	16.0
12.811	8.0
12.826	9.0
12.841	12.0
12.856	19.0
12.871	12.0
12.886	16.0
12.9	10.0
12.915	15.0
12.93	22.0
12.945	13.0
12.96	7.0
12.975	14.0
12.99	15.0
13.005	20.0
13.02	12.0
13.035	18.0
13.05	16.0
13.065	14.0
13.08	14.0
13.094	18.0
13.109	13.0
13.124	17.0
13.139	14.0
13.154	19.0
13.169	21.0
13.184	30.0
13.199	19.0
13.214	13.0
13.229	16.0
13.244	13.0
13.259	20.0
13.274	16.0
13.288	12.0
13.303	14.0
13.318	21.0
13.333	24.0
13.348	19.0
13.363	28.0
13.378	22.0
13.393	18.0
13.408	27.0
13.423	24.0
13.438	35.0
13.453	27.0
13.468	33.0
13.482	34.0
13.497	29.0
13.512	30.0
13.527	34.0
13.542	45.0
13.557	54.0
13.572	46.0
13.587	69.0
13.602	57.0
13.617	62.0
13.632	60.0
13.647	69.0
13.662	90.0
13.677	70.0
13.691	78.0
13.706	88.0
13.721	92.0
13.736	107.0
13.751	97.0
13.766	97.0
13.781	140.0
13.796	133.0
13.811	116.0
13.826	121.0
13.841	142.0
13.856	104.0
13.871	121.0
13.885	106.0
13.9	85.0
13.915	64.0
13.93	62.0
13.945	62.0
13.96	57.0
13.975	38.0
13.99	33.0
14.005	42.0
14.02	25.0
14.035	19.0
14.05	28.0
14.065	22.0
14.08	15.0
14.094	29.0
14.109	21.0
14.124	29.0
14.139	16.0
14.154	12.0
14.169	17.0
14.184	24.0
14.199	21.0
14.214	25.0
14.229	24.0
14.244	16.0
14.259	18.0
14.274	31.0
14.288	31.0
14.303	13.0
14.318	22.0
14.333	18.0
14.348	17.0
14.363	21.0
14.378	17.0
14.393	17.0
14.408	18.0
14.423	16.0
14.438	12.0
14.453	15.0
14.468	14.0
14.482	21.0
14.497	14.0
14.512	13.0
14.527	17.0
14.542	21.0
14.557	11.0
14.572	19.0
14.587	14.0
14.602	21.0
14.617	9.0
14.632	13.0
14.647	18.0
14.661	11.0
14.676	9.0
14.691	14.0
14.706	21.0
14.721	12.0
14.736	17.0
14.751	13.0
14.766	17.0
14.781	16.0
14.796	11.0
14.811	11.0
14.826	14.0
14.84	16.0
14.855	12.0
14.87	21.0
14.885	20.0
14.9	12.0
14.915	13.0
14.93	18.0
14.945	8.0
14.96	16.0
14.975	8.0
14.989	10.0
15.004	10.0
15.019	14.0
15.034	15.0
15.049	18.0
15.064	15.0
15.079	14.0
15.094	14.0
15.109	20.0
15.124	11.0
15.138	20.0
15.153	12.0
15.168	14.0
15.183	22.0
15.198	11.0
15.213	16.0
15.228	16.0
15.243	19.0
15.258	14.0
15.272	14.0
15.287	11.0
15.302	14.0
15.317	16.0
15.332	11.0
15.347	16.0
15.362	19.0
15.377	15.0
15.391	13.0
15.406	16.0
15.421	7.0
15.436	14.0
15.451	18.0
15.466	18.0
15.481	12.0
15.496	14.0
15.51	18.0
15.525	9.0
15.54	13.0
15.555	18.0
15.57	11.0
15.585	15.0
15.6	16.0
15.614	18.0
15.629	16.0
15.644	12.0
15.659	13.0
15.674	10.0
15.689	13.0
15.704	11.0
15.718	15.0
15.733	13.0
15.748	8.0
15.763	16.0
15.778	14.0
15.793	9.0
15.808	17.0
15.822	15.0
15.837	23.0
15.852	16.0
15.867	13.0
15.882	16.0
15.897	17.0
15.911	12.0
15.926	17.0
15.941	11.0
15.956	18.0
15.971	17.0
15.986	15.0
16.0	16.0
16.015	11.0
16.03	12.0
16.045	16.0
16.06	12.0
16.074	24.0
16.089	14.0
16.104	15.0
16.119	15.0
16.134	14.0
16.149	16.0
16.163	11.0
16.178	12.0
16.193	11.0
16.208	13.0
16.223	8.0
16.237	19.0
16.252	14.0
16.267	9.0
16.282	12.0
16.297	7.0
16.311	17.0
16.326	10.0
16.341	15.0
16.356	13.0
16.37	6.0
16.385	20.0
16.4	11.0
16.415	22.0
16.43	8.0
16.444	13.0
16.459	13.0
16.474	13.0
16.489	14.0
16.504	12.0
16.518	20.0
16.533	19.0
16.548	23.0
16.563	24.0
16.577	16.0
16.592	18.0
16.607	16.0
16.622	28.0
16.637	25.0
16.651	27.0
16.666	27.0
16.681	19.0
16.696	22.0
16.71	29.0
16.725	24.0
16.74	28.0
16.755	34.0
16.77	40.0
16.784	39.0
16.799	33.0
16.814	37.0
16.829	44.0
16.843	39.0
16.858	55.0
16.873	53.0
16.888	72.0
16.902	65.0
16.917	55.0
16.932	80.0
16.947	62.0
16.961	95.0
16.976	65.0
16.991	67.0
17.006	69.0
17.021	52.0
17.035	52.0
17.05	37.0
17.065	41.0
17.08	42.0
17.094	28.0
17.109	23.0
17.124	28.0
17.139	23.0
17.153	20.0
17.168	14.0
17.183	21.0
17.198	16.0
17.212	13.0
17.227	9.0
17.242	14.0
17.257	24.0
17.271	16.0
17.286	16.0
17.301	15.0
17.316	7.0
17.33	16.0
17.345	18.0
17.36	9.0
17.375	15.0
17.39	12.0
17.404	11.0
17.419	13.0
17.434	20.0
17.449	14.0
17.463	13.0
17.478	15.0
17.493	10.0
17.508	12.0
17.522	15.0
17.537	15.0
17.552	8.0
17.567	11.0
17.581	15.0
17.596	13.0
17.611	9.0
17.626	10.0
17.641	13.0
17.655	12.0
17.67	15.0
17.685	16.0
17.7	16.0
17.714	6.0
17.729	11.0
17.744	11.0
17.759	9.0
17.773	11.0
17.788	11.0
17.803	11.0
17.818	12.0
17.833	10.0
17.847	12.0
17.862	14.0
17.877	9.0
17.892	11.0
17.906	13.0
17.921	7.0
17.936	17.0
17.951	9.0
17.966	12.0
17.98	13.0
17.995	11.0
18.01	11.0
18.025	11.0
18.04	11.0
18.054	9.0
18.069	6.0
18.084	11.0
18.099	12.0
18.114	8.0
18.128	12.0
18.143	9.0
18.158	10.0
18.173	10.0
18.188	14.0
18.202	15.0
18.217	9.0
18.232	10.0
18.247	18.0
18.262	7.0
18.276	13.0
18.291	7.0
18.306	11.0
18.321	9.0
18.336	12.0
18.35	14.0
18.365	13.0
18.38	10.0
18.395	12.0
18.41	18.0
18.424	12.0
18.439	11.0
18.454	14.0
18.469	10.0
18.484	21.0
18.498	11.0
18.513	12.0
18.528	9.0
18.543	12.0
18.558	7.0
18.573	10.0
18.587	17.0
18.602	12.0
18.617	7.0
18.632	14.0
18.647	8.0
18.661	8.0
18.676	8.0
18.691	4.0
18.706	16.0
18.721	11.0
18.736	12.0
18.75	11.0
18.765	12.0
18.78	7.0
18.795	12.0
18.81	12.0
18.825	16.0
18.839	14.0
18.854	10.0
18.869	13.0
18.884	11.0
18.899	19.0
18.913	14.0
18.928	13.0
18.943	11.0
18.958	11.0
18.973	19.0
18.988	7.0
19.002	12.0
19.017	17.0
19.032	13.0
19.047	10.0
19.062	11.0
19.077	7.0
19.091	11.0
19.106	10.0
19.121	16.0
19.136	12.0
19.151	28.0
19.165	13.0
19.18	9.0
19.195	15.0
19.21	13.0
19.225	18.0
19.24	15.0
19.254	16.0
19.269	9.0
19.284	12.0
19.299	14.0
19.314	13.0
19.329	16.0
19.343	19.0
19.358	19.0
19.373	23.0
19.388	24.0
19.403	18.0
19.417	13.0
19.432	14.0
19.447	24.0
19.462	30.0
19.477	23.0
19.492	32.0
19.506	26.0
19.521	34.0
19.536	40.0
19.551	42.0
19.566	34.0
19.58	34.0
19.595	49.0
19.61	41.0
19.625	37.0
19.64	45.0
19.655	40.0
19.669	45.0
19.684	31.0
19.699	29.0
19.714	22.0
19.729	29.0
19.743	22.0
19.758	20.0
19.773	16.0
19.788	18.0
19.803	20.0
19.817	16.0
19.832	11.0
19.847	8.0
19.862	17.0
19.877	13.0
19.891	8.0
19.906	8.0
19.921	13.0
19.936	8.0
19.951	7.0
19.965	17.0
19.98	13.0
19.995	9.0
20.01	8.0
20.025	15.0
20.039	18.0
20.054	13.0
20.069	9.0
20.084	11.0
20.099	7.0
20.113	8.0
20.128	14.0
20.143	11.0
20.158	12.0
20.173	12.0
20.187	10.0
20.202	16.0
20.217	16.0
20.232	7.0
20.246	9.0
20.261	12.0
20.276	6.0
20.291	15.0
20.306	11.0
20.32	8.0
20.335	11.0
20.35	8.0
20.365	17.0
20.38	11.0
20.394	9.0
20.409	13.0
20.424	17.0
20.439	5.0
20.453	11.0
20.468	6.0
20.483	11.0
20.498	9.0
20.513	9.0
20.527	8.0
20.542	11.0
20.557	9.0
20.572	10.0
20.586	12.0
20.601	6.0
20.616	17.0
20.631	8.0
20.646	12.0
20.66	6.0
20.675	8.0
20.69	13.0
20.705	8.0
20.719	10.0
20.734	15.0
20.749	10.0
20.764	10.0
20.779	8.0
20.793	4.0
20.808	5.0
20.823	10.0
20.838	12.0
20.853	17.0
20.867	11.0
20.882	15.0
20.897	5.0
20.912	16.0
20.926	14.0
20.941	8.0
20.956	5.0
20.971	11.0
20.986	13.0
21.0	14.0
21.015	11.0
21.03	16.0
21.045	11.0
21.06	7.0
21.074	9.0
21.089	10.0
21.104	8.0
21.119	11.0
21.134	20.0
21.148	14.0
21.163	11.0
21.178	13.0
21.193	6.0
21.208	9.0
21.222	15.0
21.237	11.0
21.252	9.0
21.267	15.0
21.282	16.0
21.296	8.0
21.311	11.0
21.326	10.0
21.341	9.0
21.356	8.0
21.37	10.0
21.385	11.0
21.4	10.0
21.415	13.0
21.43	8.0
21.444	11.0
21.459	5.0
21.474	8.0
21.489	15.0
21.504	11.0
21.519	10.0
21.533	7.0
21.548	7.0
21.563	7.0
21.578	19.0
21.593	9.0
21.608	16.0
21.622	14.0
21.637	10.0
21.652	15.0
21.667	23.0
21.682	23.0
21.697	20.0
21.712	19.0
21.726	22.0
21.741	21.0
21.756	31.0
21.771	26.0
21.786	35.0
21.801	24.0
21.816	33.0
21.83	37.0
21.845	48.0
21.86	56.0
21.875	49.0
21.89	74.0
21.905	88.0
21.92	63.0
21.935	73.0
21.949	59.0
21.964	85.0
21.979	67.0
21.994	64.0
22.009	63.0
22.024	53.0
22.039	55.0
22.054	54.0
22.069	47.0
22.083	42.0
22.098	40.0
22.113	36.0
22.128	29.0
22.143	27.0
22.158	17.0
22.173	23.0
22.188	13.0
22.203	24.0
22.218	21.0
22.233	13.0
22.248	10.0
22.262	14.0
22.277	9.0
22.292	11.0
22.307	13.0
22.322	16.0
22.337	24.0
22.352	15.0
22.367	10.0
22.382	8.0
22.397	8.0
22.412	13.0
22.427	9.0
22.442	18.0
22.457	8.0
22.472	7.0
22.487	14.0
22.502	12.0
22.516	8.0
22.531	15.0
22.546	9.0
22.561	9.0
22.576	14.0
22.591	10.0
22.606	11.0
22.621	8.0
22.636	14.0
22.651	13.0
22.666	11.0
22.681	11.0
22.696	6.0
22.711	10.0
22.726	7.0
22.741	9.0
22.756	8.0
22.771	11.0
22.786	10.0
22.801	13.0
22.816	10.0
22.831	12.0
22.846	6.0
22.861	10.0
22.876	15.0
22.891	9.0
22.906	11.0
22.92	8.0
22.935	9.0
22.95	10.0
22.965	10.0
22.98	10.0
22.995	10.0
23.01	6.0
23.025	16.0
23.04	17.0
23.055	8.0
23.07	7.0
23.085	7.0
23.1	11.0
23.115	5.0
23.13	5.0
23.145	10.0
23.16	7.0
23.175	8.0
23.19	12.0
23.205	11.0
23.22	6.0
23.235	17.0
23.25	13.0
23.265	9.0
23.28	15.0
23.295	13.0
23.31	9.0
23.325	18.0
23.34	11.0
23.355	9.0
23.37	10.0
23.384	9.0
23.399	16.0
23.414	14.0
23.429	10.0
23.444	8.0
23.459	10.0
23.474	11.0
23.489	8.0
23.504	9.0
23.519	15.0
23.534	11.0
23.549	9.0
23.564	18.0
23.579	9.0
23.594	9.0
23.609	8.0
23.624	12.0
23.639	6.0
23.654	10.0
23.668	12.0
23.683	15.0
23.698	19.0
23.713	6.0
23.728	11.0
23.743	13.0
23.758	15.0
23.773	10.0
23.788	12.0
23.803	14.0
23.818	12.0
23.833	11.0
23.848	15.0
23.862	21.0
23.877	15.0
23.892	20.0
23.907	26.0
23.922	22.0
23.937	24.0
23.952	29.0
23.967	22.0
23.982	32.0
23.997	44.0
24.011	49.0
24.026	40.0
24.041	46.0
24.056	56.0
24.071	59.0
24.086	49.0
24.101	54.0
24.116	55.0
24.131	45.0
24.145	38.0
24.16	34.0
24.175	41.0
24.19	47.0
24.205	29.0
24.22	28.0
24.235	27.0
24.249	29.0
24.264	32.0
24.279	27.0
24.294	22.0
24.309	12.0
24.324	14.0
24.338	14.0
24.353	21.0
24.368	12.0
24.383	9.0
24.398	14.0
24.413	11.0
24.428	8.0
24.442	15.0
24.457	12.0
24.472	15.0
24.487	15.0
24.502	8.0
24.516	10.0
24.531	11.0
24.546	16.0
24.561	7.0
24.576	8.0
24.591	8.0
24.605	18.0
24.62	12.0
24.635	6.0
24.65	10.0
24.665	7.0
24.679	9.0
24.694	14.0
24.709	11.0
24.724	15.0
24.739	11.0
24.753	6.0
24.768	8.0
24.783	10.0
24.798	16.0
24.813	13.0
24.827	9.0
24.842	17.0
24.857	7.0
24.872	10.0
24.886	13.0
24.901	11.0
24.916	4.0
24.931	3.0
24.946	7.0
24.96	13.0
24.975	13.0
24.99	11.0
25.005	10.0
25.019	9.0
25.034	12.0
25.049	9.0
25.064	5.0
25.078	7.0
25.093	6.0
25.108	4.0
25.123	13.0
25.138	6.0
25.152	6.0
25.167	7.0
25.182	9.0
25.197	8.0
25.211	9.0
25.226	14.0
25.241	10.0
25.256	8.0
25.27	14.0
25.285	12.0
25.3	6.0
25.315	10.0
25.329	4.0
25.344	10.0
25.359	13.0
25.374	8.0
25.388	10.0
25.403	8.0
25.418	7.0
25.433	4.0
25.447	10.0
25.462	7.0
25.477	13.0
25.492	13.0
25.506	11.0
25.521	8.0
25.536	9.0
25.55	19.0
25.565	5.0
25.58	5.0
25.595	20.0
25.609	8.0
25.624	9.0
25.639	12.0
25.654	9.0
25.668	4.0
25.683	6.0
25.698	12.0
25.713	8.0
25.727	12.0
25.742	7.0
25.757	2.0
25.772	6.0
25.786	11.0
25.801	8.0
25.816	12.0
25.83	11.0
25.845	7.0
25.86	4.0
25.875	8.0
25.889	6.0
25.904	14.0
25.919	9.0
25.934	6.0
25.948	7.0
25.963	9.0
25.978	5.0
25.992	5.0
26.007	13.0
26.022	8.0
26.037	8.0
26.051	5.0
26.066	7.0
26.081	9.0
26.096	9.0
26.11	7.0
26.125	9.0
26.14	9.0
26.155	12.0
26.169	10.0
26.184	10.0
26.199	6.0
26.213	19.0
26.228	12.0
26.243	7.0
26.258	9.0
26.272	6.0
26.287	8.0
26.302	12.0
26.317	7.0
26.331	8.0
26.346	14.0
26.361	7.0
26.376	11.0
26.39	12.0
26.405	9.0
26.42	13.0
26.434	8.0
26.449	6.0
26.464	10.0
26.479	8.0
26.493	11.0
26.508	12.0
26.523	5.0
26.538	12.0
26.552	10.0
26.567	11.0
26.582	10.0
26.597	5.0
26.611	10.0
26.626	10.0
26.641	14.0
26.656	11.0
26.67	10.0
26.685	9.0
26.7	18.0
26.715	8.0
26.729	5.0
26.744	5.0
26.759	12.0
26.773	8.0
26.788	17.0
26.803	9.0
26.818	7.0
26.832	6.0
26.847	13.0
26.862	13.0
26.877	5.0
26.891	4.0
26.906	8.0
26.921	11.0
26.936	12.0
26.95	12.0
26.965	11.0
26.98	9.0
26.995	12.0
27.01	10.0
27.024	11.0
27.039	8.0
27.054	8.0
27.069	8.0
27.083	11.0
27.098	11.0
27.113	11.0
27.128	12.0
27.142	9.0
27.157	8.0
27.172	14.0
27.187	13.0
27.201	9.0
27.216	13.0
27.231	7.0
27.246	6.0
27.261	10.0
27.275	8.0
27.29	8.0
27.305	9.0
27.32	12.0
27.334	9.0
27.349	6.0
27.364	6.0
27.379	9.0
27.394	5.0
27.408	13.0
27.423	9.0
27.438	9.0
27.453	13.0
27.467	10.0
27.482	15.0
27.497	10.0
27.512	10.0
27.527	6.0
27.541	11.0
27.556	11.0
27.571	7.0
27.586	13.0
27.601	8.0
27.615	13.0
27.63	9.0
27.645	14.0
27.66	13.0
27.675	12.0
27.689	7.0
27.704	11.0
27.719	5.0
27.734	19.0
27.749	14.0
27.763	17.0
27.778	14.0
27.793	8.0
27.808	23.0
27.823	32.0
27.838	14.0
27.852	22.0
27.867	27.0
27.882	19.0
27.897	24.0
27.912	18.0
27.926	26.0
27.941	31.0
27.956	20.0
27.971	19.0
27.986	18.0
28.001	21.0
28.015	24.0
28.03	9.0
28.045	16.0
28.06	12.0
28.075	15.0
28.09	8.0
28.105	16.0
28.119	8.0
28.134	8.0
28.149	14.0
28.164	10.0
28.179	15.0
28.194	10.0
28.208	14.0
28.223	15.0
28.238	9.0
28.253	5.0
28.268	9.0
28.283	10.0
28.298	11.0
28.312	8.0
28.327	10.0
28.342	10.0
28.357	8.0
28.372	11.0
28.387	19.0
28.402	8.0
28.417	11.0
28.431	13.0
28.446	11.0
28.461	12.0
28.476	10.0
28.491	8.0
28.506	10.0
28.521	8.0
28.536	5.0
28.55	8.0
28.565	7.0
28.58	9.0
28.595	7.0
28.61	6.0
28.625	10.0
28.64	7.0
28.655	10.0
28.669	16.0
28.684	8.0
28.699	8.0
28.714	12.0
28.729	9.0
28.744	8.0
28.759	11.0
28.774	14.0
28.788	13.0
28.803	14.0
28.818	11.0
28.833	8.0
28.848	8.0
28.863	7.0
28.878	11.0
28.893	14.0
28.908	9.0
28.922	8.0
28.937	16.0
28.952	10.0
28.967	12.0
28.982	9.0
28.997	13.0
29.012	9.0
29.027	8.0
29.041	11.0
29.056	9.0
29.071	11.0
29.086	12.0
29.101	9.0
29.116	6.0
29.131	15.0
29.146	14.0
29.16	6.0
29.175	8.0
29.19	15.0
29.205	18.0
29.22	7.0
29.235	12.0
29.25	17.0
29.265	11.0
29.279	11.0
29.294	9.0
29.309	5.0
29.324	13.0
29.339	11.0
29.354	12.0
29.369	11.0
29.384	14.0
29.398	12.0
29.413	9.0
29.428	16.0
29.443	20.0
29.458	35.0
29.473	24.0
29.488	28.0
29.502	30.0
29.517	29.0
29.532	33.0
29.547	46.0
29.562	35.0
29.577	48.0
29.592	52.0
29.606	57.0
29.621	36.0
29.636	46.0
29.651	54.0
29.666	47.0
29.681	42.0
29.695	29.0
29.71	42.0
29.725	29.0
29.74	32.0
29.755	35.0
29.77	24.0
29.784	24.0
29.799	37.0
29.814	33.0
29.829	32.0
29.844	27.0
29.859	26.0
29.873	15.0
29.888	15.0
29.903	19.0
29.918	12.0
29.933	16.0
29.947	13.0
29.962	10.0
29.977	8.0
29.992	8.0
30.007	13.0
30.021	15.0
30.036	15.0
30.051	9.0
30.066	11.0
30.081	14.0
30.095	6.0
30.11	14.0
30.125	15.0
30.14	7.0
30.155	11.0
30.169	9.0
30.184	15.0
30.199	11.0
30.214	10.0
30.228	10.0
30.243	11.0
30.258	13.0
30.273	5.0
30.288	3.0
30.302	9.0
30.317	14.0
30.332	13.0
30.347	13.0
30.361	12.0
30.376	14.0
30.391	12.0
30.406	8.0
30.42	12.0
30.435	13.0
30.45	8.0
30.465	15.0
30.479	8.0
30.494	23.0
30.509	9.0
30.524	9.0
30.538	12.0
30.553	11.0
30.568	16.0
30.583	5.0
30.597	15.0
30.612	10.0
30.627	12.0
30.641	11.0
30.656	11.0
30.671	9.0
30.686	10.0
30.7	6.0
30.715	9.0
30.73	11.0
30.745	7.0
30.759	16.0
30.774	15.0
30.789	4.0
30.803	15.0
30.818	6.0
30.833	8.0
30.848	9.0
30.862	16.0
30.877	12.0
30.892	10.0
30.906	14.0
30.921	10.0
30.936	7.0
30.951	12.0
30.965	4.0
30.98	11.0
30.995	9.0
31.009	9.0
31.024	12.0
31.039	6.0
31.053	9.0
31.068	7.0
31.083	22.0
31.098	13.0
31.112	9.0
31.127	18.0
31.142	12.0
31.156	22.0
31.171	26.0
31.186	35.0
31.2	27.0
31.215	35.0
31.23	31.0
31.245	33.0
31.259	40.0
31.274	29.0
31.289	42.0
31.303	34.0
31.318	28.0
31.333	32.0
31.347	25.0
31.362	25.0
31.377	22.0
31.392	20.0
31.406	29.0
31.421	40.0
31.436	31.0
31.45	16.0
31.465	19.0
31.48	29.0
31.494	19.0
31.509	20.0
31.524	21.0
31.538	9.0
31.553	16.0
31.568	12.0
31.583	10.0
31.597	19.0
31.612	13.0
31.627	17.0
31.641	10.0
31.656	13.0
31.671	17.0
31.685	10.0
31.7	11.0
31.715	12.0
31.729	8.0
31.744	12.0
31.759	3.0
31.774	7.0
31.788	8.0
31.803	15.0
31.818	12.0
31.832	7.0
31.847	6.0
31.862	8.0
31.876	9.0
31.891	9.0
31.906	11.0
31.92	11.0
31.935	6.0
31.95	7.0
31.965	10.0
31.979	13.0
31.994	8.0
32.009	10.0
32.023	5.0
32.038	8.0
32.053	10.0
32.067	8.0
32.082	11.0
32.097	11.0
32.112	8.0
32.126	17.0
32.141	11.0
32.156	8.0
32.17	10.0
32.185	9.0
32.2	7.0
32.214	7.0
32.229	16.0
32.244	8.0
32.259	10.0
32.273	12.0
32.288	4.0
32.303	8.0
32.317	17.0
32.332	8.0
32.347	7.0
32.362	11.0
32.376	9.0
32.391	10.0
32.406	11.0
32.42	5.0
32.435	10.0
32.45	3.0
32.465	9.0
32.479	6.0
32.494	11.0
32.509	7.0
32.523	14.0
32.538	9.0
32.553	6.0
32.568	14.0
32.582	10.0
32.597	11.0
32.612	14.0
32.627	12.0
32.641	16.0
32.656	16.0
32.671	15.0
32.685	14.0
32.7	19.0
32.715	18.0
32.73	18.0
32.744	18.0
32.759	27.0
32.774	31.0
32.788	24.0
32.803	26.0
32.818	40.0
32.833	27.0
32.847	25.0
32.862	41.0
32.877	28.0
32.892	18.0
32.906	18.0
32.921	23.0
32.936	12.0
32.951	22.0
32.965	22.0
32.98	17.0
32.995	12.0
33.009	22.0
33.024	19.0
33.039	18.0
33.054	16.0
33.068	18.0
33.083	21.0
33.098	15.0
33.113	8.0
33.127	16.0
33.142	9.0
33.157	16.0
33.172	9.0
33.186	6.0
33.201	12.0
33.216	16.0
33.231	8.0
33.245	12.0
33.26	11.0
33.275	11.0
33.29	14.0
33.304	11.0
33.319	6.0
33.334	15.0
33.349	3.0
33.363	15.0
33.378	7.0
33.393	10.0
33.408	7.0
33.422	9.0
33.437	4.0
33.452	15.0
33.467	7.0
33.481	5.0
33.496	7.0
33.511	8.0
33.526	8.0
33.54	9.0
33.555	3.0
33.57	10.0
33.585	11.0
33.599	10.0
33.614	13.0
33.629	8.0
33.644	10.0
33.658	11.0
33.673	10.0
33.688	10.0
33.703	14.0
33.718	7.0
33.732	10.0
33.747	12.0
33.762	8.0
33.777	11.0
33.791	9.0
33.806	8.0
33.821	5.0
33.836	15.0
33.85	10.0
33.865	7.0
33.88	14.0
33.895	14.0
33.91	9.0
33.924	5.0
33.939	5.0
33.954	11.0
33.969	4.0
33.983	9.0
33.998	15.0
34.013	9.0
34.028	13.0
34.042	7.0
34.057	9.0
34.072	7.0
34.087	10.0
34.102	8.0
34.116	16.0
34.131	14.0
34.146	7.0
34.161	11.0
34.175	17.0
34.19	8.0
34.205	17.0
34.22	6.0
34.235	15.0
34.249	12.0
34.264	9.0
34.279	16.0
34.294	23.0
34.309	8.0
34.323	12.0
34.338	13.0
34.353	8.0
34.368	19.0
34.382	18.0
34.397	8.0
34.412	8.0
34.427	7.0
34.442	8.0
34.456	9.0
34.471	16.0
34.486	8.0
34.501	17.0
34.516	10.0
34.53	15.0
34.545	11.0
34.56	4.0
34.575	9.0
34.59	8.0
34.604	13.0
34.619	10.0
34.634	8.0
34.649	5.0
34.664	8.0
34.678	6.0
34.693	9.0
34.708	9.0
34.723	7.0
34.738	8.0
34.752	5.0
34.767	8.0
34.782	10.0
34.797	6.0
34.812	8.0
34.826	8.0
34.841	12.0
34.856	10.0
34.871	6.0
34.886	6.0
34.9	12.0
34.915	5.0
34.93	10.0
34.945	7.0
34.96	6.0
34.974	6.0
34.989	7.0
35.004	6.0
35.019	4.0
35.034	14.0
35.048	5.0
35.063	7.0
35.078	6.0
35.093	3.0
35.108	3.0
35.122	6.0
35.137	8.0
35.152	10.0
35.167	8.0
35.182	14.0
35.196	6.0
35.211	4.0
35.226	12.0
35.241	5.0
35.256	7.0
35.27	5.0
35.285	8.0
35.3	6.0
35.315	11.0
35.33	11.0
35.344	4.0
35.359	11.0
35.374	9.0
35.389	9.0
35.404	7.0
35.418	5.0
35.433	3.0
35.448	6.0
35.463	10.0
35.478	6.0
35.493	7.0
35.507	17.0
35.522	9.0
35.537	2.0
35.552	12.0
35.567	12.0
35.581	11.0
35.596	12.0
35.611	7.0
35.626	9.0
35.641	9.0
35.655	11.0
35.67	11.0
35.685	22.0
35.7	20.0
35.715	15.0
35.729	16.0
35.744	14.0
35.759	22.0
35.774	13.0
35.789	17.0
35.804	24.0
35.818	23.0
35.833	17.0
35.848	4.0
35.863	16.0
35.878	9.0
35.892	10.0
35.907	14.0
35.922	13.0
35.937	16.0
35.952	13.0
35.966	10.0
35.981	22.0
35.996	17.0
36.011	12.0
36.026	13.0
36.04	15.0
36.055	19.0
36.07	7.0
36.085	11.0
36.1	9.0
36.114	9.0
36.129	7.0
36.144	14.0
36.159	8.0
36.174	9.0
36.189	12.0
36.203	9.0
36.218	4.0
36.233	9.0
36.248	13.0
36.263	9.0
36.277	6.0
36.292	7.0
36.307	12.0
36.322	4.0
36.337	10.0
36.351	6.0
36.366	14.0
36.381	7.0
36.396	6.0
36.411	8.0
36.426	5.0
36.44	8.0
36.455	8.0
36.47	10.0
36.485	6.0
36.5	12.0
36.514	4.0
36.529	5.0
36.544	8.0
36.559	11.0
36.574	9.0
36.589	9.0
36.603	10.0
36.618	7.0
36.633	12.0
36.648	11.0
36.663	9.0
36.677	8.0
36.692	2.0
36.707	9.0
36.722	8.0
36.737	6.0
36.752	9.0
36.766	3.0
36.781	11.0
36.796	4.0
36.811	11.0
36.826	9.0
36.841	7.0
36.855	8.0
36.87	14.0
36.885	9.0
36.9	9.0
36.915	9.0
36.93	9.0
36.944	9.0
36.959	10.0
36.974	8.0
36.989	10.0
37.004	9.0
37.019	8.0
37.033	16.0
37.048	16.0
37.063	12.0
37.078	17.0
37.093	19.0
37.108	12.0
37.123	14.0
37.137	30.0
37.152	23.0
37.167	20.0
37.182	24.0
37.197	20.0
37.212	27.0
37.226	30.0
37.241	20.0
37.256	21.0
37.271	16.0
37.286	20.0
37.301	18.0
37.316	12.0
37.331	18.0
37.345	18.0
37.36	21.0
37.375	18.0
37.39	20.0
37.405	21.0
37.42	17.0
37.435	19.0
37.45	11.0
37.464	13.0
37.479	22.0
37.494	4.0
37.509	12.0
37.524	13.0
37.539	9.0
37.554	12.0
37.569	2.0
37.583	11.0
37.598	9.0
37.613	5.0
37.628	8.0
37.643	3.0
37.658	7.0
37.673	9.0
37.688	4.0
37.703	5.0
37.718	3.0
37.733	8.0
37.747	5.0
37.762	11.0
37.777	4.0
37.792	8.0
37.807	7.0
37.822	4.0
37.837	10.0
37.852	8.0
37.867	3.0
37.882	5.0
37.897	9.0
37.912	6.0
37.927	4.0
37.941	7.0
37.956	10.0
37.971	5.0
37.986	4.0
38.001	5.0
38.016	9.0
38.031	12.0
38.046	5.0
38.061	5.0
38.076	5.0
38.091	6.0
38.106	4.0
38.121	7.0
38.136	6.0
38.151	9.0
38.166	10.0
38.181	7.0
38.196	6.0
38.211	10.0
38.226	4.0
38.241	4.0
38.256	6.0
38.271	7.0
38.285	5.0
38.3	7.0
38.315	6.0
38.33	5.0
38.345	7.0
38.36	8.0
38.375	5.0
38.39	2.0
38.405	6.0
38.42	2.0
38.435	3.0
38.45	5.0
38.465	7.0
38.48	12.0
38.495	4.0
38.51	8.0
38.525	5.0
38.54	7.0
38.555	2.0
38.57	5.0
38.585	8.0
38.6	4.0
38.615	6.0
38.63	13.0
38.645	5.0
38.66	4.0
38.675	11.0
38.69	7.0
38.705	3.0
38.72	8.0
38.735	4.0
38.75	6.0
38.765	10.0
38.78	6.0
38.795	9.0
38.81	4.0
38.825	6.0
38.84	4.0
38.855	6.0
38.87	4.0
38.885	3.0
38.9	2.0
38.915	5.0
38.93	7.0
38.945	6.0
38.96	8.0
38.975	1.0
38.99	5.0
39.005	8.0
39.02	5.0
39.035	5.0
39.05	8.0
39.065	5.0
39.08	9.0
39.095	6.0
39.11	8.0
39.125	3.0
39.14	3.0
39.155	6.0
39.17	6.0
39.185	7.0
39.2	4.0
39.215	3.0
39.23	8.0
39.245	7.0
39.26	10.0
39.275	4.0
39.29	7.0
39.305	8.0
39.32	5.0
39.335	4.0
39.35	2.0
39.365	5.0
39.38	1.0
39.395	4.0
39.409	6.0
39.424	10.0
39.439	11.0
39.454	6.0
39.469	9.0
39.484	6.0
39.499	7.0
39.514	1.0
39.529	8.0
39.544	4.0
39.559	2.0
39.574	7.0
39.589	2.0
39.604	10.0
39.619	6.0
39.634	8.0
39.649	5.0
39.664	2.0
39.678	4.0
39.693	2.0
39.708	9.0
39.723	9.0
39.738	3.0
39.753	8.0
39.768	7.0
39.783	12.0
39.798	6.0
39.813	12.0
39.827	7.0
39.842	7.0
39.857	8.0
39.872	12.0
39.887	8.0
39.902	8.0
39.917	10.0
39.932	8.0
39.947	8.0
39.961	10.0
39.976	10.0
39.991	10.0
40.006	5.0
40.021	2.0
40.036	7.0
40.051	5.0
40.065	6.0
40.08	5.0
40.095	5.0
40.11	12.0
40.125	4.0
40.14	7.0
40.154	3.0
40.169	5.0
40.184	6.0
40.199	8.0
40.214	5.0
40.228	4.0
40.243	7.0
40.258	7.0
40.273	4.0
40.288	8.0
40.302	9.0
40.317	5.0
40.332	5.0
40.347	7.0
40.362	3.0
40.376	4.0
40.391	5.0
40.406	2.0
40.421	6.0
40.436	4.0
40.45	4.0
40.465	5.0
40.48	6.0
40.495	2.0
40.509	2.0
40.524	4.0
40.539	5.0
40.554	9.0
40.568	3.0
40.583	1.0
40.598	7.0
40.613	5.0
40.627	2.0
40.642	5.0
40.657	8.0
40.672	2.0
40.686	6.0
40.701	6.0
40.716	4.0
40.731	4.0
40.745	6.0
40.76	3.0
40.775	3.0
40.79	6.0
40.804	7.0
40.819	6.0
40.834	3.0
40.849	5.0
40.863	6.0
40.878	8.0
40.893	8.0
40.907	6.0
40.922	9.0
40.937	7.0
40.952	10.0
40.966	9.0
40.981	8.0
40.996	6.0
41.011	8.0
41.025	6.0
41.04	16.0
41.055	15.0
41.069	16.0
41.084	18.0
41.099	22.0
41.114	21.0
41.128	14.0
41.143	19.0
41.158	15.0
41.173	12.0
41.187	14.0
41.202	18.0
41.217	19.0
41.231	11.0
41.246	6.0
41.261	6.0
41.276	10.0
41.29	12.0
41.305	8.0
41.32	9.0
41.335	8.0
41.349	18.0
41.364	12.0
41.379	15.0
41.393	25.0
41.408	10.0
41.423	9.0
41.438	17.0
41.452	5.0
41.467	6.0
41.482	8.0
41.497	8.0
41.511	9.0
41.526	5.0
41.541	4.0
41.556	6.0
41.57	11.0
41.585	7.0
41.6	3.0
41.615	7.0
41.629	10.0
41.644	3.0
41.659	11.0
41.674	9.0
41.688	4.0
41.703	6.0
41.718	3.0
41.733	8.0
41.747	3.0
41.762	7.0
41.777	5.0
41.792	8.0
41.806	6.0
41.821	5.0
41.836	6.0
41.851	8.0
41.866	6.0
41.88	8.0
41.895	6.0
41.91	7.0
41.925	3.0
41.939	3.0
41.954	9.0
41.969	6.0
41.984	5.0
41.999	6.0
42.013	4.0
42.028	4.0
42.043	6.0
42.058	7.0
42.073	7.0
42.088	7.0
42.102	5.0
42.117	9.0
42.132	8.0
42.147	6.0
42.162	6.0
42.176	4.0
42.191	9.0
42.206	4.0
42.221	7.0
42.236	16.0
42.251	10.0
42.266	8.0
42.28	4.0
42.295	8.0
42.31	12.0
42.325	13.0
42.34	11.0
42.355	17.0
42.369	13.0
42.384	19.0
42.399	17.0
42.414	15.0
42.429	19.0
42.444	16.0
42.459	6.0
42.474	7.0
42.488	10.0
42.503	9.0
42.518	10.0
42.533	10.0
42.548	7.0
42.563	7.0
42.578	9.0
42.593	13.0
42.608	9.0
42.622	8.0
42.637	11.0
42.652	13.0
42.667	17.0
42.682	15.0
42.697	11.0
42.712	12.0
42.727	10.0
42.742	7.0
42.757	7.0
42.772	8.0
42.786	11.0
42.801	2.0
42.816	6.0
42.831	7.0
42.846	11.0
42.861	4.0
42.876	10.0
42.891	2.0
42.906	8.0
42.921	3.0
42.936	2.0
42.951	6.0
42.966	4.0
42.981	4.0
42.996	6.0
43.011	8.0
43.025	6.0
43.04	8.0
43.055	6.0
43.07	8.0
43.085	6.0
43.1	5.0
43.115	11.0
43.13	6.0
43.145	8.0
43.16	7.0
43.175	3.0
43.19	4.0
43.205	7.0
43.22	4.0
43.235	2.0
43.25	4.0
43.265	7.0
43.28	6.0
43.295	4.0
43.31	9.0
43.325	6.0
43.34	5.0
43.355	6.0
43.37	9.0
43.385	6.0
43.4	4.0
43.415	4.0
43.43	5.0
43.445	6.0
43.46	4.0
43.475	11.0
43.49	9.0
43.505	8.0
43.52	14.0
43.535	4.0
43.55	9.0
43.565	5.0
43.58	5.0
43.595	7.0
43.61	4.0
43.625	9.0
43.64	5.0
43.655	14.0
43.67	5.0
43.685	11.0
43.7	8.0
43.715	7.0
43.73	6.0
43.745	6.0
43.76	3.0
43.775	7.0
43.79	6.0
43.805	7.0
43.82	3.0
43.835	6.0
43.85	4.0
43.865	6.0
43.88	5.0
43.895	9.0
43.91	5.0
43.925	8.0
43.94	4.0
43.955	6.0
43.97	4.0
43.985	4.0
44.0	3.0
44.015	4.0
44.03	5.0
44.045	4.0
44.061	4.0
44.076	3.0
44.091	5.0
44.106	2.0
44.121	3.0
44.136	1.0
44.151	7.0
44.166	4.0
44.181	4.0
44.196	7.0
44.211	4.0
44.226	4.0
44.241	2.0
44.256	4.0
44.271	6.0
44.286	2.0
44.301	7.0
44.316	5.0
44.331	3.0
44.346	5.0
44.361	4.0
44.377	4.0
44.392	6.0
44.407	6.0
44.422	3.0
44.437	9.0
44.452	5.0
44.467	6.0
44.482	3.0
44.497	3.0
44.512	6.0
44.527	7.0
44.542	6.0
44.557	7.0
44.572	2.0
44.587	2.0
44.602	3.0
44.617	6.0
44.632	8.0
44.647	6.0
44.663	9.0
44.678	8.0
44.693	8.0
44.708	4.0
44.723	11.0
44.738	4.0
44.753	14.0
44.768	10.0
44.783	11.0
44.798	9.0
44.813	12.0
44.828	5.0
44.843	8.0
44.858	11.0
44.873	9.0
44.888	9.0
44.903	6.0
44.918	9.0
44.933	5.0
44.948	7.0
44.964	5.0
44.979	6.0
44.994	5.0
45.009	4.0
45.024	8.0
45.039	8.0
45.054	10.0
45.069	5.0
45.084	4.0
45.099	8.0
45.114	6.0
45.129	10.0
45.144	8.0
45.159	6.0
45.174	3.0
45.189	4.0
45.204	5.0
45.219	10.0
45.234	4.0
45.249	2.0
45.264	8.0
45.279	3.0
45.294	9.0
45.309	8.0
45.324	11.0
45.339	5.0
45.354	5.0
45.369	4.0
45.384	3.0
45.399	7.0
45.414	0.0
45.429	3.0
45.444	2.0
45.459	8.0
45.474	5.0
45.489	1.0
45.504	8.0
45.519	3.0
45.534	3.0
45.549	4.0
45.564	3.0
45.579	4.0
45.594	5.0
45.609	3.0
45.624	6.0
45.639	6.0
45.654	10.0
45.669	5.0
45.684	1.0
45.699	3.0
45.714	6.0
45.729	6.0
45.744	3.0
45.759	6.0
45.774	6.0
45.789	10.0
45.804	4.0
45.819	10.0
45.834	10.0
45.849	7.0
45.864	10.0
45.879	8.0
45.894	12.0
45.909	13.0
45.924	15.0
45.939	15.0
45.954	16.0
45.969	12.0
45.984	20.0
45.998	16.0
46.013	12.0
46.028	10.0
46.043	13.0
46.058	12.0
46.073	11.0
46.088	6.0
46.103	5.0
46.118	4.0
46.133	4.0
46.148	8.0
46.163	8.0
46.178	5.0
46.192	6.0
46.207	12.0
46.222	16.0
46.237	12.0
46.252	12.0
46.267	15.0
46.282	11.0
46.297	9.0
46.312	15.0
46.327	13.0
46.341	8.0
46.356	5.0
46.371	12.0
46.386	7.0
46.401	5.0
46.416	6.0
46.431	6.0
46.446	11.0
46.46	7.0
46.475	4.0
46.49	3.0
46.505	4.0
46.52	6.0
46.535	6.0
46.55	6.0
46.564	5.0
46.579	5.0
46.594	4.0
46.609	9.0
46.624	5.0
46.639	6.0
46.654	4.0
46.668	7.0
46.683	6.0
46.698	4.0
46.713	7.0
46.728	3.0
46.743	5.0
46.758	2.0
46.772	7.0
46.787	5.0
46.802	4.0
46.817	4.0
46.832	3.0
46.847	3.0
46.861	2.0
46.876	4.0
46.891	3.0
46.906	4.0
46.921	5.0
46.936	5.0
46.95	7.0
46.965	3.0
46.98	2.0
46.995	6.0
47.01	0.0
47.025	6.0
47.039	6.0
47.054	5.0
47.069	9.0
47.084	9.0
47.099	16.0
47.113	11.0
47.128	15.0
47.143	10.0
47.158	9.0
47.173	8.0
47.188	8.0
47.202	11.0
47.217	6.0
47.232	5.0
47.247	6.0
47.262	7.0
47.277	9.0
47.291	6.0
47.306	6.0
47.321	6.0
47.336	9.0
47.351	14.0
47.365	7.0
47.38	4.0
47.395	7.0
47.41	10.0
47.425	5.0
47.44	9.0
47.454	9.0
47.469	6.0
47.484	4.0
47.499	4.0
47.514	2.0
47.528	3.0
47.543	2.0
47.558	4.0
47.573	2.0
47.588	8.0
47.603	5.0
47.617	2.0
47.632	4.0
47.647	3.0
47.662	3.0
47.677	2.0
47.691	5.0
47.706	6.0
47.721	2.0
47.736	4.0
47.751	3.0
47.766	3.0
47.78	7.0
47.795	3.0
47.81	6.0
47.825	4.0
47.84	3.0
47.855	5.0
47.869	4.0
47.884	0.0
47.899	5.0
47.914	6.0
47.929	4.0
47.944	1.0
47.958	3.0
47.973	7.0
47.988	3.0
48.003	7.0
48.018	5.0
48.033	4.0
48.047	5.0
48.062	4.0
48.077	3.0
48.092	4.0
48.107	6.0
48.122	2.0
48.137	4.0
48.151	1.0
48.166	3.0
48.181	5.0
48.196	5.0
48.211	5.0
48.226	7.0
48.241	3.0
48.255	2.0
48.27	4.0
48.285	8.0
48.3	0.0
48.315	3.0
48.33	5.0
48.345	5.0
48.359	7.0
48.374	6.0
48.389	3.0
48.404	7.0
48.419	4.0
48.434	4.0
48.449	10.0
48.464	5.0
48.478	6.0
48.493	6.0
48.508	3.0
48.523	9.0
48.538	7.0
48.553	6.0
48.568	5.0
48.583	4.0
48.597	4.0
48.612	1.0
48.627	6.0
48.642	2.0
48.657	3.0
48.672	2.0
48.687	6.0
48.702	5.0
48.717	3.0
48.731	6.0
48.746	9.0
48.761	5.0
48.776	4.0
48.791	7.0
48.806	6.0
48.821	4.0
48.836	6.0
48.851	3.0
48.866	5.0
48.88	5.0
48.895	1.0
48.91	6.0
48.925	5.0
48.94	7.0
48.955	6.0
48.97	5.0
48.985	4.0
49.0	5.0
49.015	5.0
49.03	5.0
49.044	4.0
49.059	6.0
49.074	2.0
49.089	3.0
49.104	10.0
49.119	5.0
49.134	2.0
49.149	4.0
49.164	3.0
49.179	2.0
49.194	5.0
49.209	3.0
49.224	3.0
49.238	8.0
49.253	4.0
49.268	3.0
49.283	9.0
49.298	7.0
49.313	8.0
49.328	6.0
49.343	6.0
49.358	5.0
49.373	8.0
49.388	8.0
49.403	5.0
49.418	6.0
49.433	4.0
49.448	8.0
49.463	10.0
49.478	5.0
49.492	6.0
49.507	6.0
49.522	6.0
49.537	11.0
49.552	6.0
49.567	7.0
49.582	3.0
49.597	7.0
49.612	5.0
49.627	5.0
49.642	5.0
49.657	2.0
49.672	5.0
49.687	3.0
49.702	6.0
49.717	6.0
49.732	3.0
49.747	6.0
49.762	10.0
49.777	5.0
49.792	6.0
49.807	8.0
49.822	11.0
49.837	7.0
49.852	3.0
49.867	5.0
49.882	4.0
49.897	3.0
49.912	4.0
49.927	5.0
49.942	3.0
49.957	8.0
49.971	7.0
49.986	6.0
50.001	1.0
50.016	2.0
50.031	3.0
50.046	5.0
50.061	4.0
50.076	8.0
50.091	6.0
50.106	3.0
50.121	5.0
50.136	7.0
50.151	0.0
50.166	2.0
50.181	3.0
50.196	4.0
50.211	4.0
50.226	6.0
50.241	2.0
50.256	7.0
50.271	1.0
50.286	4.0
50.302	3.0
50.317	4.0
50.332	6.0
50.347	8.0
50.362	6.0
50.377	5.0
50.392	7.0
50.407	7.0
50.422	11.0
50.437	6.0
50.452	12.0
50.467	5.0
50.482	10.0
50.497	4.0
50.512	5.0
50.527	6.0
50.542	7.0
50.557	11.0
50.572	1.0
50.587	5.0
50.602	1.0
50.617	2.0
50.632	7.0
50.647	6.0
50.662	9.0
50.677	2.0
50.692	5.0
50.707	7.0
50.722	7.0
50.737	5.0
50.752	9.0
50.767	8.0
50.782	3.0
50.797	6.0
50.812	5.0
50.828	3.0
50.843	9.0
50.858	4.0
50.873	5.0
50.888	2.0
50.903	5.0
50.918	7.0
50.933	2.0
50.948	8.0
50.963	5.0
50.978	10.0
50.993	4.0
51.008	8.0
51.023	6.0
51.038	6.0
51.053	2.0
51.068	5.0
51.083	3.0
51.098	6.0
51.114	4.0
51.129	5.0
51.144	6.0
51.159	6.0
51.174	5.0
51.189	6.0
51.204	3.0
51.219	4.0
51.234	4.0
51.249	3.0
51.264	7.0
51.279	5.0
51.294	5.0
51.309	4.0
51.324	7.0
51.34	5.0
51.355	9.0
51.37	5.0
51.385	11.0
51.4	7.0
51.415	12.0
51.43	9.0
51.445	12.0
51.46	15.0
51.475	14.0
51.49	13.0
51.505	18.0
51.52	22.0
51.535	21.0
51.551	15.0
51.566	19.0
51.581	14.0
51.596	12.0
51.611	10.0
51.626	10.0
51.641	7.0
51.656	5.0
51.671	9.0
51.686	6.0
51.701	1.0
51.716	5.0
51.732	9.0
51.747	8.0
51.762	10.0
51.777	7.0
51.792	6.0
51.807	10.0
51.822	14.0
51.837	16.0
51.852	6.0
51.867	9.0
51.882	9.0
51.898	11.0
51.913	7.0
51.928	5.0
51.943	4.0
51.958	6.0
51.973	5.0
51.988	3.0
52.003	5.0
52.018	7.0
52.033	2.0
52.048	4.0
52.064	1.0
52.079	4.0
52.094	6.0
52.109	5.0
52.124	5.0
52.139	2.0
52.154	6.0
52.169	3.0
52.184	8.0
52.199	7.0
52.215	4.0
52.23	6.0
52.245	5.0
52.26	3.0
52.275	3.0
52.29	4.0
52.305	1.0
52.32	5.0
52.335	1.0
52.35	3.0
52.366	4.0
52.381	2.0
52.396	7.0
52.411	5.0
52.426	7.0
52.441	6.0
52.456	7.0
52.471	4.0
52.486	6.0
52.502	7.0
52.517	8.0
52.532	11.0
52.547	5.0
52.562	6.0
52.577	7.0
52.592	14.0
52.607	8.0
52.622	11.0
52.637	9.0
52.653	7.0
52.668	11.0
52.683	11.0
52.698	2.0
52.713	4.0
52.728	2.0
52.743	4.0
52.758	2.0
52.774	6.0
52.789	7.0
52.804	6.0
52.819	8.0
52.834	8.0
52.849	2.0
52.864	9.0
52.879	5.0
52.894	6.0
52.91	7.0
52.925	11.0
52.94	9.0
52.955	6.0
52.97	8.0
52.985	7.0
53.0	6.0
53.015	5.0
53.031	4.0
53.046	6.0
53.061	3.0
53.076	3.0
53.091	9.0
53.106	4.0
53.121	5.0
53.136	4.0
53.152	3.0
53.167	4.0
53.182	2.0
53.197	4.0
53.212	6.0
53.227	2.0
53.242	5.0
53.257	3.0
53.273	4.0
53.288	6.0
53.303	2.0
53.318	3.0
53.333	7.0
53.348	7.0
53.363	3.0
53.379	4.0
53.394	5.0
53.409	1.0
53.424	9.0
53.439	6.0
53.454	7.0
53.469	5.0
53.484	4.0
53.5	3.0
53.515	7.0
53.53	4.0
53.545	8.0
53.56	7.0
53.575	4.0
53.59	5.0
53.606	2.0
53.621	4.0
53.636	7.0
53.651	9.0
53.666	1.0
53.681	3.0
53.696	2.0
53.712	4.0
53.727	4.0
53.742	7.0
53.757	4.0
53.772	2.0
53.787	5.0
53.802	8.0
53.818	6.0
53.833	4.0
53.848	8.0
53.863	5.0
53.878	3.0
53.893	4.0
53.909	2.0
53.924	4.0
53.939	9.0
53.954	5.0
53.969	4.0
53.984	5.0
53.999	4.0
54.015	4.0
54.03	1.0
54.045	4.0
54.06	4.0
54.075	5.0
54.09	3.0
54.106	4.0
54.121	4.0
54.136	3.0
54.151	5.0
54.166	8.0
54.181	12.0
54.197	2.0
54.212	4.0
54.227	3.0
54.242	4.0
54.257	10.0
54.272	2.0
54.288	8.0
54.303	6.0
54.318	8.0
54.333	1.0
54.348	7.0
54.363	8.0
54.379	8.0
54.394	3.0
54.409	8.0
54.424	4.0
54.439	4.0
54.454	4.0
54.47	6.0
54.485	4.0
54.5	3.0
54.515	3.0
54.53	6.0
54.545	5.0
54.561	6.0
54.576	7.0
54.591	4.0
54.606	22.0
54.621	7.0
54.636	17.0
54.652	11.0
54.667	8.0
54.682	15.0
54.697	9.0
54.712	10.0
54.727	17.0
54.743	11.0
54.758	16.0
54.773	5.0
54.788	11.0
54.803	5.0
54.819	8.0
54.834	5.0
54.849	5.0
54.864	8.0
54.879	7.0
54.894	5.0
54.91	5.0
54.925	7.0
54.94	9.0
54.955	7.0
54.97	8.0
54.985	10.0
55.001	9.0
55.016	6.0
55.031	12.0
55.046	8.0
55.061	2.0
55.077	4.0
55.092	7.0
55.107	7.0
55.122	5.0
55.137	1.0
55.152	5.0
55.168	4.0
55.183	3.0
55.198	5.0
55.213	2.0
55.228	5.0
55.243	2.0
55.259	2.0
55.274	3.0
55.289	7.0
55.304	7.0
55.319	5.0
55.335	1.0
55.35	4.0
55.365	3.0
55.38	6.0
55.395	2.0
55.41	3.0
55.426	6.0
55.441	6.0
55.456	9.0
55.471	8.0
55.486	5.0
55.501	2.0
55.517	7.0
55.532	8.0
55.547	8.0
55.562	7.0
55.577	7.0
55.592	6.0
55.608	2.0
55.623	2.0
55.638	8.0
55.653	11.0
55.668	5.0
55.683	5.0
55.699	8.0
55.714	8.0
55.729	10.0
55.744	3.0
55.759	6.0
55.774	4.0
55.79	9.0
55.805	1.0
55.82	3.0
55.835	2.0
55.85	4.0
55.865	3.0
55.881	5.0
55.896	4.0
55.911	5.0
55.926	3.0
55.941	7.0
55.956	3.0
55.972	4.0
55.987	7.0
56.002	4.0
56.017	9.0
56.032	6.0
56.047	8.0
56.063	2.0
56.078	3.0
56.093	6.0
56.108	4.0
56.123	2.0
56.138	3.0
56.154	2.0
56.169	1.0
56.184	6.0
56.199	6.0
56.214	5.0
56.229	2.0
56.244	4.0
56.26	4.0
56.275	6.0
56.29	4.0
56.305	3.0
56.32	7.0
56.335	1.0
56.351	5.0
56.366	1.0
56.381	2.0
56.396	9.0
56.411	7.0
56.426	4.0
56.441	7.0
56.457	2.0
56.472	4.0
56.487	3.0
56.502	7.0
56.517	3.0
56.532	3.0
56.547	2.0
56.563	7.0
56.578	2.0
56.593	3.0
56.608	3.0
56.623	4.0
56.638	5.0
56.653	5.0
56.668	5.0
56.684	2.0
56.699	1.0
56.714	2.0
56.729	3.0
56.744	5.0
56.759	4.0
56.774	1.0
56.79	2.0
56.805	6.0
56.82	6.0
56.835	5.0
56.85	3.0
56.865	4.0
56.88	6.0
56.895	1.0
56.911	0.0
56.926	1.0
56.941	2.0
56.956	2.0
56.971	8.0
56.986	4.0
57.001	5.0
57.016	3.0
57.031	7.0
57.047	4.0
57.062	4.0
57.077	5.0
57.092	0.0
57.107	3.0
57.122	5.0
57.137	7.0
57.152	5.0
57.167	7.0
57.183	4.0
57.198	2.0
57.213	4.0
57.228	5.0
57.243	6.0
57.258	3.0
57.273	1.0
57.288	6.0
57.303	2.0
57.318	2.0
57.334	9.0
57.349	2.0
57.364	5.0
57.379	2.0
57.394	5.0
57.409	4.0
57.424	3.0
57.439	2.0
57.454	6.0
57.469	4.0
57.484	1.0
57.5	4.0
57.515	5.0
57.53	4.0
57.545	2.0
57.56	7.0
57.575	3.0
57.59	3.0
57.605	6.0
57.62	4.0
57.635	1.0
57.65	5.0
57.665	6.0
57.68	6.0
57.696	6.0
57.711	11.0
57.726	2.0
57.741	6.0
57.756	4.0
57.771	3.0
57.786	4.0
57.801	3.0
57.816	4.0
57.831	7.0
57.846	4.0
57.861	7.0
57.876	5.0
57.891	7.0
57.906	5.0
57.921	5.0
57.937	7.0
57.952	4.0
57.967	4.0
57.982	3.0
57.997	4.0
58.012	6.0
58.027	7.0
58.042	6.0
58.057	3.0
58.072	3.0
58.087	6.0
58.102	6.0
58.117	3.0
58.132	7.0
58.147	6.0
58.162	7.0
58.177	5.0
58.192	3.0
58.207	6.0
58.222	6.0
58.237	4.0
58.252	8.0
58.267	5.0
58.282	7.0
58.297	0.0
58.312	7.0
58.327	2.0
58.342	7.0
58.357	5.0
58.372	8.0
58.387	5.0
58.402	1.0
58.418	4.0
58.433	5.0
58.448	6.0
58.463	4.0
58.478	4.0
58.493	4.0
58.508	2.0
58.523	5.0
58.538	6.0
58.553	3.0
58.568	5.0
58.583	6.0
58.598	4.0
58.613	8.0
58.628	10.0
58.643	12.0
58.658	6.0
58.673	9.0
58.688	10.0
58.703	6.0
58.718	3.0
58.733	8.0
58.748	8.0
58.763	6.0
58.778	4.0
58.793	2.0
58.808	7.0
58.823	7.0
58.838	4.0
58.853	1.0
58.868	4.0
58.883	3.0
58.898	4.0
58.913	5.0
58.928	5.0
58.942	2.0
58.957	6.0
58.972	6.0
58.987	7.0
59.002	11.0
59.017	8.0
59.032	11.0
59.047	7.0
59.062	5.0
59.077	2.0
59.092	4.0
59.107	5.0
59.122	8.0
59.137	5.0
59.152	6.0
59.167	9.0
59.182	2.0
59.197	10.0
59.212	4.0
59.227	2.0
59.242	2.0
59.257	4.0
59.272	3.0
59.287	5.0
59.302	5.0
59.317	5.0
59.332	3.0
59.347	3.0
59.362	6.0
59.377	4.0
59.392	4.0
59.407	4.0
59.422	6.0
59.437	6.0
59.452	5.0
59.467	2.0
59.482	9.0
59.497	4.0
59.512	4.0
59.527	4.0
59.542	6.0
59.557	3.0
59.572	3.0
59.587	6.0
59.602	6.0
59.617	3.0
59.632	8.0
59.647	9.0
59.661	9.0
59.676	10.0
59.691	3.0
59.706	5.0
59.721	7.0
59.736	2.0
59.751	1.0
59.766	3.0
59.781	3.0
59.796	2.0
59.811	3.0
59.826	6.0
59.841	3.0
59.856	2.0
59.871	3.0
59.886	2.0
59.901	6.0
59.916	7.0
59.931	5.0
59.946	6.0
59.961	9.0
59.976	9.0
59.991	3.0
60.006	4.0
60.021	12.0
60.036	8.0
60.051	8.0
60.066	5.0
60.081	2.0
60.096	8.0
60.111	5.0
60.126	3.0
60.141	4.0
60.156	4.0
60.171	4.0
60.186	4.0
60.201	2.0
60.216	2.0
60.231	5.0
60.246	3.0
60.261	5.0
60.276	3.0
60.291	6.0
60.306	4.0
60.321	6.0
60.336	4.0
60.35	3.0
60.365	2.0
60.38	3.0
60.395	7.0
60.41	2.0
60.425	3.0
60.44	6.0
60.455	3.0
60.47	5.0
60.485	4.0
60.5	8.0
60.515	5.0
60.53	4.0
60.545	11.0
60.56	15.0
60.575	8.0
60.59	5.0
60.605	5.0
60.62	4.0
60.635	8.0
60.65	8.0
60.665	4.0
60.68	5.0
60.695	3.0
60.71	1.0
60.725	6.0
60.74	1.0
60.755	2.0
60.77	3.0
60.785	2.0
60.8	5.0
60.815	5.0
60.83	1.0
60.845	2.0
60.86	4.0
60.875	4.0
60.89	4.0
60.905	6.0
60.92	4.0
60.935	9.0
60.95	6.0
60.965	7.0
60.98	9.0
60.995	3.0
61.01	5.0
61.025	4.0
61.04	5.0
61.055	8.0
61.07	5.0
61.085	5.0
61.1	4.0
61.115	5.0
61.13	4.0
61.145	2.0
61.16	1.0
61.175	4.0
61.191	4.0
61.206	3.0
61.221	7.0
61.236	0.0
61.251	5.0
61.266	3.0
61.281	4.0
61.296	5.0
61.311	4.0
61.326	6.0
61.341	4.0
61.356	6.0
61.371	5.0
61.386	0.0
61.401	2.0
61.416	5.0
61.431	3.0
61.446	9.0
61.461	6.0
61.476	4.0
61.491	5.0
61.506	4.0
61.521	6.0
61.536	2.0
61.551	6.0
61.566	8.0
61.581	4.0
61.596	5.0
61.611	4.0
61.626	1.0
61.641	8.0
61.656	2.0
61.672	2.0
61.687	4.0
61.702	4.0
61.717	3.0
61.732	3.0
61.747	5.0
61.762	3.0
61.777	1.0
61.792	0.0
61.807	2.0
61.822	3.0
61.837	4.0
61.852	4.0
61.867	5.0
61.882	4.0
61.897	2.0
61.912	9.0
61.927	6.0
61.943	4.0
61.958	3.0
61.973	2.0
61.988	5.0
62.003	4.0
62.018	8.0
62.033	6.0
62.048	5.0
62.063	0.0
62.078	0.0
62.093	6.0
62.108	4.0
62.123	7.0
62.138	2.0
62.153	6.0
62.169	6.0
62.184	3.0
62.199	3.0
62.214	7.0
62.229	3.0
62.244	2.0
62.259	6.0
62.274	3.0
62.289	6.0
62.304	2.0
62.319	3.0
62.335	3.0
62.35	4.0
62.365	7.0
62.38	2.0
62.395	4.0
62.41	7.0
62.425	2.0
62.44	3.0
62.455	6.0
62.47	8.0
62.485	5.0
62.501	3.0
62.516	3.0
62.531	4.0
62.546	5.0
62.561	5.0
62.576	2.0
62.591	2.0
62.606	4.0
62.621	2.0
62.636	6.0
62.652	2.0
62.667	1.0
62.682	7.0
62.697	4.0
62.712	3.0
62.727	2.0
62.742	2.0
62.757	3.0
62.772	4.0
62.787	2.0
62.803	7.0
62.818	6.0
62.833	1.0
62.848	1.0
62.863	7.0
62.878	10.0
62.893	3.0
62.908	3.0
62.923	6.0
62.939	5.0
62.954	3.0
62.969	1.0
62.984	1.0
62.999	3.0
63.014	3.0
63.029	3.0
63.044	7.0
63.059	6.0
63.074	3.0
63.09	1.0
63.105	4.0
63.12	2.0
63.135	6.0
63.15	4.0
63.165	5.0
63.18	0.0
63.195	3.0
63.21	1.0
63.226	1.0
63.241	4.0
63.256	5.0
63.271	5.0
63.286	5.0
63.301	2.0
63.316	6.0
63.331	8.0
63.346	8.0
63.362	9.0
63.377	7.0
63.392	7.0
63.407	4.0
63.422	5.0
63.437	6.0
63.452	8.0
63.467	6.0
63.482	3.0
63.497	7.0
63.513	6.0
63.528	7.0
63.543	6.0
63.558	7.0
63.573	4.0
63.588	7.0
63.603	7.0
63.618	5.0
63.633	2.0
63.648	3.0
63.664	4.0
63.679	9.0
63.694	2.0
63.709	4.0
63.724	1.0
63.739	3.0
63.754	6.0
63.769	5.0
63.784	9.0
63.799	5.0
63.814	7.0
63.83	3.0
63.845	6.0
63.86	7.0
63.875	4.0
63.89	4.0
63.905	7.0
63.92	2.0
63.935	1.0
63.95	2.0
63.965	3.0
63.98	6.0
63.996	3.0
64.011	5.0
64.026	3.0
64.041	7.0
64.056	4.0
64.071	3.0
64.086	2.0
64.101	4.0
64.116	6.0
64.131	1.0
64.146	6.0
64.161	5.0
64.176	4.0
64.191	4.0
64.207	3.0
64.222	7.0
64.237	2.0
64.252	7.0
64.267	2.0
64.282	1.0
64.297	6.0
64.312	2.0
64.327	2.0
64.342	2.0
64.357	3.0
64.372	5.0
64.387	4.0
64.402	4.0
64.417	2.0
64.433	5.0
64.448	6.0
64.463	3.0
64.478	2.0
64.493	4.0
64.508	4.0
64.523	4.0
64.538	1.0
64.553	3.0
64.568	4.0
64.583	0.0
64.598	5.0
64.613	4.0
64.628	4.0
64.643	2.0
64.658	6.0
64.673	2.0
64.688	1.0
64.703	0.0
64.718	1.0
64.734	1.0
64.749	2.0
64.764	0.0
64.779	10.0
64.794	7.0
64.809	3.0
64.824	4.0
64.839	5.0
64.854	5.0
64.869	2.0
64.884	3.0
64.899	3.0
64.914	6.0
64.929	2.0
64.944	4.0
64.959	1.0
64.974	1.0
64.989	0.0
65.004	4.0
65.019	3.0
65.034	5.0
65.049	4.0
65.064	5.0
65.079	1.0
65.094	6.0
65.109	6.0
65.125	1.0
65.14	0.0
65.155	6.0
65.17	1.0
65.185	6.0
65.2	6.0
65.215	5.0
65.23	6.0
65.245	5.0
65.26	2.0
65.275	3.0
65.29	5.0
65.305	7.0
65.32	5.0
65.335	6.0
65.35	3.0
65.365	7.0
65.38	6.0
65.395	7.0
65.41	2.0
65.425	5.0
65.44	5.0
65.455	1.0
65.47	3.0
65.485	2.0
65.5	2.0
65.515	4.0
65.53	3.0
65.545	6.0
65.56	4.0
65.575	5.0
65.59	5.0
65.605	5.0
65.62	5.0
65.635	2.0
65.65	4.0
65.666	5.0
65.681	5.0
65.696	4.0
65.711	8.0
65.726	3.0
65.741	3.0
65.756	6.0
65.771	3.0
65.786	3.0
65.801	4.0
65.816	1.0
65.831	7.0
65.846	4.0
65.861	3.0
65.876	2.0
65.891	3.0
65.906	2.0
65.921	4.0
65.936	4.0
65.951	4.0
65.966	2.0
65.981	3.0
65.996	7.0
66.011	8.0
66.026	3.0
66.041	3.0
66.056	1.0
66.071	3.0
66.086	4.0
66.101	5.0
66.116	6.0
66.131	7.0
66.146	8.0
66.161	5.0
66.176	5.0
66.191	8.0
66.206	11.0
66.221	7.0
66.236	4.0
66.251	4.0
66.266	2.0
66.281	6.0
66.296	5.0
66.311	3.0
66.327	5.0
66.342	4.0
66.357	2.0
66.372	4.0
66.387	2.0
66.402	4.0
66.417	2.0
66.432	1.0
66.447	3.0
66.462	6.0
66.477	5.0
66.492	7.0
66.507	2.0
66.522	7.0
66.537	4.0
66.552	4.0
66.567	2.0
66.582	6.0
66.597	7.0
66.612	3.0
66.627	7.0
66.642	5.0
66.657	8.0
66.672	10.0
66.687	4.0
66.702	9.0
66.717	5.0
66.732	6.0
66.747	6.0
66.762	3.0
66.777	2.0
66.792	4.0
66.807	1.0
66.822	5.0
66.837	2.0
66.853	8.0
66.868	3.0
66.883	2.0
66.898	2.0
66.913	8.0
66.928	1.0
66.943	7.0
66.958	5.0
66.973	3.0
66.988	7.0
67.003	5.0
67.018	4.0
67.033	5.0
67.048	4.0
67.063	6.0
67.078	7.0
67.093	6.0
67.108	4.0
67.123	7.0
67.138	5.0
67.153	2.0
67.168	5.0
67.183	4.0
67.198	7.0
67.214	4.0
67.229	5.0
67.244	3.0
67.259	3.0
67.274	3.0
67.289	0.0
67.304	2.0
67.319	1.0
67.334	5.0
67.349	1.0
67.364	2.0
67.379	3.0
67.394	4.0
67.409	3.0
67.424	7.0
67.439	2.0
67.454	1.0
67.469	3.0
67.484	2.0
67.5	2.0
67.515	4.0
67.53	7.0
67.545	6.0
67.56	3.0
67.575	3.0
67.59	3.0
67.605	0.0
67.62	1.0
67.635	3.0
67.65	4.0
67.665	7.0
67.68	3.0
67.695	3.0
67.71	1.0
67.726	7.0
67.741	4.0
67.756	3.0
67.771	1.0
67.786	0.0
67.801	0.0
67.816	3.0
67.831	3.0
67.846	3.0
67.861	0.0
67.876	1.0
67.891	1.0
67.906	1.0
67.922	7.0
67.937	4.0
67.952	6.0
67.967	3.0
67.982	6.0
67.997	5.0
68.012	6.0
68.027	5.0
68.042	8.0
68.057	4.0
68.072	3.0
68.087	1.0
68.103	2.0
68.118	2.0
68.133	5.0
68.148	1.0
68.163	0.0
68.178	4.0
68.193	4.0
68.208	2.0
68.223	2.0
68.238	5.0
68.254	4.0
68.269	7.0
68.284	2.0
68.299	4.0
68.314	2.0
68.329	2.0
68.344	2.0
68.359	9.0
68.374	2.0
68.389	6.0
68.405	5.0
68.42	5.0
68.435	5.0
68.45	2.0
68.465	6.0
68.48	5.0
68.495	5.0
68.51	7.0
68.525	3.0
68.54	4.0
68.556	3.0
68.571	3.0
68.586	4.0
68.601	2.0
68.616	4.0
68.631	4.0
68.646	5.0
68.661	4.0
68.676	5.0
68.691	3.0
68.707	3.0
68.722	5.0
68.737	5.0
68.752	2.0
68.767	5.0
68.782	3.0
68.797	4.0
68.812	2.0
68.827	3.0
68.842	4.0
68.857	3.0
68.873	1.0
68.888	4.0
68.903	5.0
68.918	5.0
68.933	5.0
68.948	7.0
68.963	0.0
68.978	3.0
68.993	3.0
69.008	2.0
69.023	4.0
69.038	3.0
69.054	3.0
69.069	5.0
69.084	2.0
69.099	2.0
69.114	4.0
69.129	3.0
69.144	5.0
69.159	3.0
69.174	4.0
69.189	5.0
69.204	3.0
69.219	3.0
69.234	2.0
69.249	3.0
69.264	8.0
69.279	6.0
69.295	2.0
69.31	1.0
69.325	1.0
69.34	1.0
69.355	5.0
69.37	2.0
69.385	2.0
69.4	3.0
69.415	3.0
69.43	6.0
69.445	3.0
69.46	3.0
69.475	4.0
69.49	7.0
69.505	3.0
69.52	4.0
69.535	3.0
69.55	6.0
69.565	1.0
69.58	1.0
69.595	2.0
69.61	5.0
69.625	2.0
69.64	5.0
69.655	3.0
69.67	2.0
69.685	2.0
69.7	5.0
69.715	7.0
69.73	4.0
69.745	6.0
69.76	8.0
69.775	7.0
69.79	6.0
69.805	7.0
69.82	5.0
69.835	10.0
69.85	4.0
69.865	7.0
69.88	3.0
69.895	1.0
69.909	8.0
69.924	3.0
69.939	6.0
69.954	3.0
69.969	4.0
69.984	1.0
69.999	4.0
70.014	6.0
70.029	2.0
70.044	0.0
70.059	0.0
70.074	2.0
70.088	2.0
70.103	1.0
70.118	1.0
70.133	4.0
70.148	5.0
70.163	3.0
70.178	3.0
70.193	5.0
70.208	5.0
70.222	3.0
70.237	7.0
70.252	8.0
70.267	4.0
70.282	9.0
70.297	4.0
70.312	6.0
70.327	2.0
70.341	4.0
70.356	4.0
70.371	5.0
70.386	4.0
70.401	4.0
70.416	6.0
70.43	4.0
70.445	2.0
70.46	5.0
70.475	1.0
70.49	6.0
70.505	4.0
70.519	2.0
70.534	5.0
70.549	3.0
70.564	2.0
70.579	2.0
70.594	5.0
70.608	3.0
70.623	4.0
70.638	5.0
70.653	0.0
70.668	5.0
70.683	3.0
70.697	6.0
70.712	4.0
70.727	7.0
70.742	11.0
70.757	6.0
70.771	2.0
70.786	8.0
70.801	5.0
70.816	3.0
70.831	3.0
70.845	3.0
70.86	5.0
70.875	1.0
70.89	5.0
70.905	7.0
70.92	3.0
70.934	1.0
70.949	4.0
70.964	1.0
70.979	5.0
70.994	7.0
71.008	2.0
71.023	5.0
71.038	3.0
71.053	4.0
71.068	4.0
71.082	7.0
71.097	2.0
71.112	3.0
71.127	4.0
71.142	9.0
71.156	3.0
71.171	4.0
71.186	5.0
71.201	3.0
71.216	4.0
71.231	5.0
71.245	1.0
71.26	7.0
71.275	4.0
71.29	5.0
71.305	3.0
71.319	4.0
71.334	2.0
71.349	2.0
71.364	6.0
71.379	3.0
71.394	3.0
71.408	2.0
71.423	3.0
71.438	4.0
71.453	4.0
71.468	3.0
71.483	5.0
71.497	4.0
71.512	3.0
71.527	3.0
71.542	3.0
71.557	3.0
71.572	6.0
71.586	5.0
71.601	3.0
71.616	2.0
71.631	5.0
71.646	3.0
71.661	1.0
71.676	3.0
71.69	3.0
71.705	3.0
71.72	2.0
71.735	6.0
71.75	1.0
71.765	2.0
71.78	4.0
71.795	3.0
71.81	5.0
71.824	3.0
71.839	5.0
71.854	2.0
71.869	2.0
71.884	2.0
71.899	2.0
71.914	5.0
71.929	3.0
71.944	7.0
71.959	6.0
71.974	2.0
71.988	2.0
72.003	1.0
72.018	5.0
72.033	2.0
72.048	6.0
72.063	5.0
72.078	3.0
72.093	5.0
72.108	5.0
72.123	4.0
72.138	1.0
72.153	0.0
72.168	4.0
72.183	2.0
72.198	5.0
72.213	3.0
72.228	3.0
72.243	1.0
72.258	5.0
72.273	2.0
72.288	6.0
72.303	4.0
72.318	1.0
72.333	4.0
72.348	4.0
72.363	2.0
72.378	5.0
72.393	6.0
72.408	2.0
72.423	1.0
72.438	5.0
72.453	3.0
72.468	9.0
72.483	3.0
72.498	3.0
72.513	5.0
72.528	4.0
72.543	4.0
72.558	7.0
72.573	2.0
72.588	4.0
72.603	1.0
72.618	7.0
72.633	4.0
72.649	3.0
72.664	1.0
72.679	3.0
72.694	1.0
72.709	2.0
72.724	5.0
72.739	2.0
72.754	5.0
72.769	2.0
72.784	2.0
72.799	2.0
72.814	0.0
72.829	7.0
72.845	2.0
72.86	5.0
72.875	7.0
72.89	3.0
72.905	2.0
72.92	3.0
72.935	3.0
72.95	1.0
72.965	2.0
72.98	3.0
72.996	6.0
73.011	2.0
73.026	3.0
73.041	3.0
73.056	1.0
73.071	2.0
73.086	3.0
73.101	1.0
73.117	1.0
73.132	2.0
73.147	2.0
73.162	3.0
73.177	2.0
73.192	7.0
73.207	2.0
73.222	6.0
73.238	5.0
73.253	4.0
73.268	4.0
73.283	4.0
73.298	3.0
73.313	3.0
73.328	3.0
73.343	6.0
73.359	3.0
73.374	4.0
73.389	1.0
73.404	4.0
73.419	11.0
73.434	3.0
73.449	2.0
73.465	3.0
73.48	5.0
73.495	1.0
73.51	5.0
73.525	5.0
73.54	2.0
73.556	3.0
73.571	4.0
73.586	5.0
73.601	6.0
73.616	3.0
73.631	3.0
73.646	5.0
73.662	5.0
73.677	1.0
73.692	1.0
73.707	1.0
73.722	5.0
73.737	5.0
73.752	3.0
73.768	7.0
73.783	3.0
73.798	3.0
73.813	6.0
73.828	4.0
73.843	2.0
73.859	4.0
73.874	7.0
73.889	3.0
73.904	3.0
73.919	4.0
73.934	2.0
73.949	4.0
73.965	3.0
73.98	5.0
73.995	6.0
74.01	4.0
74.025	2.0
74.04	4.0
74.056	4.0
74.071	3.0
74.086	5.0
74.101	4.0
74.116	2.0
74.131	5.0
74.146	2.0
74.162	8.0
74.177	4.0
74.192	12.0
74.207	4.0
74.222	8.0
74.237	8.0
74.252	7.0
74.268	1.0
74.283	3.0
74.298	5.0
74.313	1.0
74.328	3.0
74.343	5.0
74.358	3.0
74.374	5.0
74.389	4.0
74.404	4.0
74.419	3.0
74.434	4.0
74.449	3.0
74.464	5.0
74.48	5.0
74.495	3.0
74.51	2.0
74.525	5.0
74.54	3.0
74.555	2.0
74.57	5.0
74.586	6.0
74.601	5.0
74.616	4.0
74.631	4.0
74.646	9.0
74.661	2.0
74.676	7.0
74.691	1.0
74.707	5.0
74.722	6.0
74.737	5.0
74.752	5.0
74.767	1.0
74.782	6.0
74.797	6.0
74.813	3.0
74.828	4.0
74.843	1.0
74.858	7.0
74.873	1.0
74.888	3.0
74.903	3.0
74.918	0.0
74.934	3.0
74.949	5.0
74.964	3.0
74.979	5.0
74.994	3.0
75.009	1.0
75.024	5.0
75.04	4.0
75.055	3.0
75.07	10.0
75.085	5.0
75.1	7.0
75.115	1.0
75.13	2.0
75.145	1.0
75.161	5.0
75.176	9.0
75.191	2.0
75.206	4.0
75.221	1.0
75.236	4.0
75.251	3.0
75.266	2.0
75.282	2.0
75.297	3.0
75.312	4.0
75.327	5.0
75.342	1.0
75.357	1.0
75.372	6.0
75.387	3.0
75.403	3.0
75.418	4.0
75.433	2.0
75.448	3.0
75.463	2.0
75.478	2.0
75.493	3.0
75.509	6.0
75.524	6.0
75.539	5.0
75.554	7.0
75.569	1.0
75.584	6.0
75.599	5.0
75.614	3.0
75.63	6.0
75.645	5.0
75.66	5.0
75.675	6.0
75.69	1.0
75.705	1.0
75.72	2.0
75.735	1.0
75.751	4.0
75.766	2.0
75.781	5.0
75.796	4.0
75.811	3.0
75.826	1.0
75.841	3.0
75.856	6.0
75.872	6.0
75.887	6.0
75.902	5.0
75.917	8.0
75.932	6.0
75.947	6.0
75.962	3.0
75.977	3.0
75.993	4.0
76.008	1.0
76.023	5.0
76.038	6.0
76.053	2.0
76.068	2.0
76.083	2.0
76.098	2.0
76.114	3.0
76.129	4.0
76.144	1.0
76.159	0.0
76.174	4.0
76.189	4.0
76.204	1.0
76.22	2.0
76.235	3.0
76.25	3.0
76.265	5.0
76.28	2.0
76.295	6.0
76.31	2.0
76.325	3.0
76.341	6.0
76.356	4.0
76.371	5.0
76.386	2.0
76.401	8.0
76.416	5.0
76.431	8.0
76.446	4.0
76.462	0.0
76.477	3.0
76.492	0.0
76.507	2.0
76.522	4.0
76.537	4.0
76.552	5.0
76.567	3.0
76.583	2.0
76.598	5.0
76.613	2.0
76.628	3.0
76.643	1.0
76.658	0.0
76.673	0.0
76.688	2.0
76.704	2.0
76.719	3.0
76.734	4.0
76.749	5.0
76.764	6.0
76.779	2.0
76.794	4.0
76.809	9.0
76.824	7.0
76.84	5.0
76.855	4.0
76.87	0.0
76.885	2.0
76.9	2.0
76.915	2.0
76.93	2.0
76.945	1.0
76.96	3.0
76.976	3.0
76.991	3.0
77.006	3.0
77.021	2.0
77.036	2.0
77.051	2.0
77.066	2.0
77.081	2.0
77.096	2.0
77.112	3.0
77.127	1.0
77.142	6.0
77.157	2.0
77.172	7.0
77.187	3.0
77.202	1.0
77.217	6.0
77.232	1.0
77.247	5.0
77.263	0.0
77.278	5.0
77.293	7.0
77.308	5.0
77.323	3.0
77.338	4.0
77.353	4.0
77.368	1.0
77.383	2.0
77.398	4.0
77.413	5.0
77.428	1.0
77.444	2.0
77.459	4.0
77.474	4.0
77.489	2.0
77.504	0.0
77.519	3.0
77.534	7.0
77.549	4.0
77.564	5.0
77.579	3.0
77.594	7.0
77.609	4.0
77.624	3.0
77.64	5.0
77.655	6.0
77.67	7.0
77.685	8.0
77.7	2.0
77.715	0.0
77.73	9.0
77.745	3.0
77.76	2.0
77.775	1.0
77.79	5.0
77.805	2.0
77.82	1.0
77.835	4.0
77.85	4.0
77.865	3.0
77.88	1.0
77.895	2.0
77.91	2.0
77.926	3.0
77.941	3.0
77.956	4.0
77.971	3.0
77.986	1.0
78.001	2.0
78.016	2.0
78.031	3.0
78.046	0.0
78.061	4.0
78.076	2.0
78.091	2.0
78.106	2.0
78.121	3.0
78.136	4.0
78.151	6.0
78.166	5.0
78.181	3.0
78.196	2.0
78.211	1.0
78.226	3.0
78.241	4.0
78.256	3.0
78.271	7.0
78.286	3.0
78.301	4.0
78.316	1.0
78.331	0.0
78.346	2.0
78.361	0.0
78.376	4.0
78.391	1.0
78.406	5.0
78.421	7.0
78.436	5.0
78.451	1.0
78.466	6.0
78.481	2.0
78.496	1.0
78.511	6.0
78.526	2.0
78.541	3.0
78.556	2.0
78.571	1.0
78.586	5.0
78.601	0.0
78.616	5.0
78.631	3.0
78.646	3.0
78.661	2.0
78.676	2.0
78.691	3.0
78.706	3.0
78.721	2.0
78.736	2.0
78.751	5.0
78.766	1.0
78.781	5.0
78.796	6.0
78.811	3.0
78.826	5.0
78.841	4.0
78.856	2.0
78.871	3.0
78.885	2.0
78.9	2.0
78.915	4.0
78.93	2.0
78.945	1.0
78.96	4.0
78.975	3.0
78.99	4.0
79.005	2.0
79.02	2.0
79.035	5.0
79.05	3.0
79.065	2.0
79.08	4.0
79.095	2.0
79.11	2.0
79.125	2.0
79.14	4.0
79.155	2.0
79.17	4.0
79.185	4.0
79.2	5.0
79.215	1.0
79.23	3.0
79.245	3.0
79.26	2.0
79.275	7.0
79.29	6.0
79.304	3.0
79.319	1.0
79.334	8.0
79.349	4.0
79.364	0.0
79.379	8.0
79.394	3.0
79.409	5.0
79.424	3.0
79.439	2.0
79.454	4.0
79.469	1.0
79.484	6.0
79.499	1.0
79.514	2.0
79.529	3.0
79.544	2.0
79.559	0.0
79.574	4.0
79.589	3.0
79.604	1.0
79.619	4.0
79.634	2.0
79.649	1.0
79.664	0.0
79.679	1.0
79.693	4.0
79.708	7.0
79.723	1.0
79.738	5.0
79.753	7.0
79.768	3.0
79.783	9.0
79.798	6.0
79.813	2.0
79.828	6.0
79.843	4.0
79.858	6.0
79.873	3.0
79.888	3.0
79.903	2.0
79.918	4.0
79.933	3.0
79.948	6.0
79.963	6.0
79.978	2.0
79.993	5.0
80.008	2.0
80.023	5.0
80.038	2.0
80.053	0.0
80.068	5.0
80.083	5.0
80.098	3.0
80.113	3.0
80.128	7.0
80.143	3.0
80.158	5.0
80.173	3.0
80.188	2.0
80.202	4.0
80.217	5.0
80.232	7.0
80.247	2.0
80.262	2.0
80.277	2.0
80.292	3.0
80.307	1.0
80.322	5.0
80.337	6.0
80.352	5.0
80.367	3.0
80.382	1.0
80.397	0.0
80.412	1.0
80.427	2.0
80.442	3.0
80.457	1.0
80.472	6.0
80.487	4.0
80.502	3.0
80.517	1.0
80.532	4.0
80.547	3.0
80.562	1.0
80.577	6.0
80.592	5.0
80.607	4.0
80.622	7.0
80.637	1.0
80.652	5.0
80.667	0.0
80.682	4.0
80.697	5.0
80.712	1.0
80.727	6.0
80.742	4.0
80.757	4.0
80.772	3.0
80.787	4.0
80.802	2.0
80.817	3.0
80.832	1.0
80.847	7.0
80.862	4.0
80.877	3.0
80.892	3.0
80.907	4.0
80.922	3.0
80.937	5.0
80.952	5.0
80.967	1.0
80.982	3.0
80.997	3.0
81.012	3.0
81.027	3.0
81.042	3.0
81.057	4.0
81.072	3.0
81.087	1.0
81.101	2.0
81.116	3.0
81.131	3.0
81.146	0.0
81.161	2.0
81.176	3.0
81.191	2.0
81.206	0.0
81.221	2.0
81.236	3.0
81.251	3.0
81.266	5.0
81.281	4.0
81.296	0.0
81.311	2.0
81.326	0.0
81.341	4.0
81.356	2.0
81.371	1.0
81.386	3.0
81.401	3.0
81.416	1.0
81.431	1.0
81.446	4.0
81.461	1.0
81.476	3.0
81.491	3.0
81.506	4.0
81.521	2.0
81.536	1.0
81.55	3.0
81.565	1.0
81.58	2.0
81.595	5.0
81.61	1.0
81.625	2.0
81.64	4.0
81.655	3.0
81.67	1.0
81.685	4.0
81.7	3.0
81.715	3.0
81.73	1.0
81.745	1.0
81.76	1.0
81.775	8.0
81.79	2.0
81.805	5.0
81.819	3.0
81.834	4.0
81.849	5.0
81.864	1.0
81.879	2.0
81.894	0.0
81.909	4.0
81.924	7.0
81.939	5.0
81.954	2.0
81.969	5.0
81.984	4.0
81.999	0.0
82.013	3.0
82.028	3.0
82.043	1.0
82.058	0.0
82.073	2.0
82.088	4.0
82.103	6.0
82.118	1.0
82.133	3.0
82.148	1.0
82.163	3.0
82.177	3.0
82.192	0.0
82.207	3.0
82.222	5.0
82.237	5.0
82.252	2.0
82.267	8.0
82.282	3.0
82.297	5.0
82.312	8.0
82.326	2.0
82.341	2.0
82.356	2.0
82.371	5.0
82.386	5.0
82.401	4.0
82.416	8.0
82.431	3.0
82.445	4.0
82.46	2.0
82.475	0.0
82.49	3.0
82.505	2.0
82.52	5.0
82.535	5.0
82.55	3.0
82.565	6.0
82.579	3.0
82.594	4.0
82.609	2.0
82.624	1.0
82.639	1.0
82.654	0.0
82.669	5.0
82.684	6.0
82.698	2.0
82.713	2.0
82.728	1.0
82.743	7.0
82.758	1.0
82.773	3.0
82.788	4.0
82.803	5.0
82.817	2.0
82.832	0.0
82.847	1.0
82.862	3.0
82.877	1.0
82.892	4.0
82.907	7.0
82.922	1.0
82.937	5.0
82.951	1.0
82.966	1.0
82.981	1.0
82.996	2.0
83.011	1.0
83.026	1.0
83.041	5.0
83.056	1.0
83.07	3.0
83.085	2.0
83.1	6.0
83.115	5.0
83.13	3.0
83.145	6.0
83.16	3.0
83.175	1.0
83.19	3.0
83.204	4.0
83.219	3.0
83.234	3.0
83.249	2.0
83.264	2.0
83.279	1.0
83.294	2.0
83.309	5.0
83.324	3.0
83.339	3.0
83.353	3.0
83.368	5.0
83.383	2.0
83.398	3.0
83.413	3.0
83.428	4.0
83.443	2.0
83.458	7.0
83.473	6.0
83.488	4.0
83.503	5.0
83.517	3.0
83.532	7.0
83.547	4.0
83.562	0.0
83.577	3.0
83.592	5.0
83.607	6.0
83.622	4.0
83.637	4.0
83.652	0.0
83.667	4.0
83.682	2.0
83.697	0.0
83.712	3.0
83.727	4.0
83.741	6.0
83.756	0.0
83.771	2.0
83.786	3.0
83.801	2.0
83.816	2.0
83.831	1.0
83.846	1.0
83.861	2.0
83.876	3.0
83.891	8.0
83.906	4.0
83.921	5.0
83.936	3.0
83.951	2.0
83.966	1.0
83.981	1.0
83.996	1.0
84.011	3.0
84.026	0.0
84.041	5.0
84.056	3.0
84.071	6.0
84.086	4.0
84.101	2.0
84.116	6.0
84.131	5.0
84.146	7.0
84.161	3.0
84.176	6.0
84.191	4.0
84.206	6.0
84.221	5.0
84.236	7.0
84.251	2.0
84.266	1.0
84.281	4.0
84.296	2.0
84.311	1.0
84.326	4.0
84.341	2.0
84.356	9.0
84.371	9.0
84.386	4.0
84.401	2.0
84.416	3.0
84.431	5.0
84.446	3.0
84.461	1.0
84.476	6.0
84.492	5.0
84.507	2.0
84.522	4.0
84.537	1.0
84.552	1.0
84.567	2.0
84.582	6.0
84.597	3.0
84.612	4.0
84.627	7.0
84.642	4.0
84.657	4.0
84.672	2.0
84.687	4.0
84.702	4.0
84.717	1.0
84.733	2.0
84.748	5.0
84.763	2.0
84.778	3.0
84.793	0.0
84.808	2.0
84.823	2.0
84.838	3.0
84.853	1.0
84.868	2.0
84.883	0.0
84.898	3.0
84.913	1.0
84.929	1.0
84.944	1.0
84.959	1.0
84.974	3.0
84.989	4.0
85.004	2.0
85.019	4.0
85.034	3.0
85.049	2.0
85.064	3.0
85.079	4.0
85.094	5.0
85.11	3.0
85.125	0.0
85.14	3.0
85.155	3.0
85.17	0.0
85.185	4.0
85.2	1.0
85.215	2.0
85.23	2.0
85.245	3.0
85.26	0.0
85.276	1.0
85.291	2.0
85.306	6.0
85.321	0.0
85.336	2.0
85.351	2.0
85.366	2.0
85.381	3.0
85.396	3.0
85.411	1.0
85.426	5.0
85.441	2.0
85.457	5.0
85.472	3.0
85.487	2.0
85.502	3.0
85.517	4.0
85.532	6.0
85.547	4.0
85.562	1.0
85.577	1.0
85.592	2.0
85.607	3.0
85.622	3.0
85.637	4.0
85.653	3.0
85.668	3.0
85.683	4.0
85.698	3.0
85.713	0.0
85.728	2.0
85.743	0.0
85.758	4.0
85.773	4.0
85.788	2.0
85.803	4.0
85.818	0.0
85.833	6.0
85.848	5.0
85.863	2.0
85.879	2.0
85.894	3.0
85.909	5.0
85.924	1.0
85.939	0.0
85.954	2.0
85.969	2.0
85.984	4.0
85.999	3.0
86.014	1.0
86.029	3.0
86.044	6.0
86.059	2.0
86.074	2.0
86.089	3.0
86.104	6.0
86.119	4.0
86.134	2.0
86.149	3.0
86.164	2.0
86.179	1.0
86.194	3.0
86.209	4.0
86.224	5.0
86.239	1.0
86.254	6.0
86.269	1.0
86.284	2.0
86.299	6.0
86.314	2.0
86.33	5.0
86.345	1.0
86.36	3.0
86.375	2.0
86.39	3.0
86.405	2.0
86.42	1.0
86.435	3.0
86.45	5.0
86.465	0.0
86.48	3.0
86.495	2.0
86.51	6.0
86.525	2.0
86.54	2.0
86.555	6.0
86.57	2.0
86.585	2.0
86.6	3.0
86.615	1.0
86.63	6.0
86.645	9.0
86.659	3.0
86.674	5.0
86.689	3.0
86.704	2.0
86.719	4.0
86.734	2.0
86.749	6.0
86.764	4.0
86.779	8.0
86.794	4.0
86.809	4.0
86.824	1.0
86.839	2.0
86.854	5.0
86.869	2.0
86.884	9.0
86.899	6.0
86.914	3.0
86.929	4.0
86.944	5.0
86.959	3.0
86.974	5.0
86.989	10.0
87.004	5.0
87.019	2.0
87.034	1.0
87.049	1.0
87.064	1.0
87.079	6.0
87.094	4.0
87.109	3.0
87.124	1.0
87.139	3.0
87.154	2.0
87.169	1.0
87.184	1.0
87.199	4.0
87.214	1.0
87.229	1.0
87.244	3.0
87.259	1.0
87.274	4.0
87.289	2.0
87.304	3.0
87.319	4.0
87.334	6.0
87.349	2.0
87.364	2.0
87.379	5.0
87.394	3.0
87.409	3.0
87.424	3.0
87.438	2.0
87.453	2.0
87.468	0.0
87.483	5.0
87.498	3.0
87.513	1.0
87.528	8.0
87.543	2.0
87.558	3.0
87.573	2.0
87.588	8.0
87.603	3.0
87.618	0.0
87.633	5.0
87.648	2.0
87.663	3.0
87.678	4.0
87.693	3.0
87.708	1.0
87.723	2.0
87.738	4.0
87.753	3.0
87.768	9.0
87.783	3.0
87.798	6.0
87.813	6.0
87.828	5.0
87.843	1.0
87.858	1.0
87.873	1.0
87.888	2.0
87.903	2.0
87.918	6.0
87.933	3.0
87.948	2.0
87.963	2.0
87.978	1.0
87.993	4.0
88.008	2.0
88.023	1.0
88.038	2.0
88.053	3.0
88.068	5.0
88.083	1.0
88.098	3.0
88.113	4.0
88.128	2.0
88.143	6.0
88.158	5.0
88.174	4.0
88.189	1.0
88.204	2.0
88.219	1.0
88.234	3.0
88.249	10.0
88.264	3.0
88.279	2.0
88.294	0.0
88.309	3.0
88.324	3.0
88.339	2.0
88.354	2.0
88.369	4.0
88.384	3.0
88.399	2.0
88.414	4.0
88.429	3.0
88.444	3.0
88.459	3.0
88.474	4.0
88.489	5.0
88.504	2.0
88.519	1.0
88.534	2.0
88.549	1.0
88.564	1.0
88.58	1.0
88.595	2.0
88.61	6.0
88.625	3.0
88.64	3.0
88.655	3.0
88.67	6.0
88.685	2.0
88.7	0.0
88.715	4.0
88.73	3.0
88.745	1.0
88.76	4.0
88.775	4.0
88.79	3.0
88.805	3.0
88.82	2.0
88.835	1.0
88.85	5.0
88.865	2.0
88.88	1.0
88.895	2.0
88.911	3.0
88.926	5.0
88.941	3.0
88.956	2.0
88.971	0.0
88.986	3.0
89.001	3.0
89.016	3.0
89.031	2.0
89.046	0.0
89.061	2.0
89.076	1.0
89.091	3.0
89.106	2.0
89.121	4.0
89.136	2.0
89.151	3.0
89.166	1.0
89.181	5.0
89.196	4.0
89.211	2.0
89.227	6.0
89.242	2.0
89.257	2.0
89.272	2.0
89.287	2.0
89.302	3.0
89.317	3.0
89.332	4.0
89.347	1.0
89.362	0.0
89.377	4.0
89.392	5.0
89.407	1.0
89.422	2.0
89.437	2.0
89.452	3.0
89.467	3.0
89.482	5.0
89.497	4.0
89.512	7.0
89.527	1.0
89.542	4.0
89.557	3.0
89.572	4.0
89.587	1.0
89.602	3.0
89.617	3.0
89.632	1.0
89.647	2.0
89.662	3.0
89.677	5.0
89.693	4.0
89.708	3.0
89.723	5.0
89.738	4.0
89.753	4.0
89.768	3.0
89.783	1.0
89.798	7.0
89.813	2.0
89.828	3.0
89.843	2.0
89.858	3.0
89.873	5.0
89.888	3.0
89.903	2.0
89.918	3.0
89.933	0.0
89.948	4.0
89.963	2.0
89.978	5.0
89.993	1.0
90.008	3.0
90.023	5.0
90.038	7.0
90.053	2.0
90.068	2.0
90.083	2.0
90.097	1.0
90.112	5.0
90.127	2.0
90.142	1.0
90.157	1.0
90.172	3.0
90.187	3.0
90.202	2.0
90.217	2.0
90.232	3.0
90.247	4.0
90.262	6.0
90.277	2.0
90.292	6.0
90.307	3.0
90.322	4.0
90.337	3.0
90.352	3.0
90.367	3.0
90.382	1.0
90.397	3.0
90.412	0.0
90.427	4.0
90.442	0.0
90.457	0.0
90.472	6.0
90.487	3.0
90.501	3.0
90.516	1.0
90.531	4.0
90.546	1.0
90.561	2.0
90.576	4.0
90.591	2.0
90.606	3.0
90.621	5.0
90.636	3.0
90.651	6.0
90.666	2.0
90.681	2.0
90.696	2.0
90.711	5.0
90.726	3.0
90.741	1.0
90.755	2.0
90.77	1.0
90.785	5.0
90.8	2.0
90.815	3.0
90.83	4.0
90.845	3.0
90.86	3.0
90.875	1.0
90.89	1.0
90.905	3.0
90.92	7.0
90.935	0.0
90.95	1.0
90.965	3.0
90.979	1.0
90.994	2.0
91.009	4.0
91.024	6.0
91.039	7.0
91.054	0.0
91.069	3.0
91.084	3.0
91.099	1.0
91.114	1.0
91.129	1.0
91.144	7.0
91.159	3.0
91.174	2.0
91.188	5.0
91.203	4.0
91.218	1.0
91.233	1.0
91.248	6.0
91.263	3.0
91.278	6.0
91.293	3.0
91.308	2.0
91.323	2.0
91.338	1.0
91.353	2.0
91.368	4.0
91.383	4.0
91.398	3.0
91.412	5.0
91.427	2.0
91.442	7.0
91.457	4.0
91.472	3.0
91.487	4.0
91.502	2.0
91.517	4.0
91.532	10.0
91.547	4.0
91.562	2.0
91.577	2.0
91.592	2.0
91.607	1.0
91.622	1.0
91.637	4.0
91.652	3.0
91.666	0.0
91.681	1.0
91.696	3.0
91.711	1.0
91.726	2.0
91.741	5.0
91.756	2.0
91.771	3.0
91.786	0.0
91.801	3.0
91.816	3.0
91.831	2.0
91.846	1.0
91.861	2.0
91.876	2.0
91.891	3.0
91.906	4.0
91.921	2.0
91.936	5.0
91.951	2.0
91.966	4.0
91.981	3.0
91.995	4.0
92.01	2.0
92.025	5.0
92.04	3.0
92.055	2.0
92.07	5.0
92.085	2.0
92.1	1.0
92.115	5.0
92.13	2.0
92.145	8.0
92.16	2.0
92.175	1.0
92.19	5.0
92.205	1.0
92.22	3.0
92.235	1.0
92.25	4.0
92.265	3.0
92.28	3.0
92.295	3.0
92.31	5.0
92.325	5.0
92.34	4.0
92.355	5.0
92.37	3.0
92.385	1.0
92.4	4.0
92.415	3.0
92.43	4.0
92.445	9.0
92.46	8.0
92.475	3.0
92.49	3.0
92.505	1.0
92.52	2.0
92.535	1.0
92.55	2.0
92.565	1.0
92.58	5.0
92.595	4.0
92.61	4.0
92.625	3.0
92.64	1.0
92.655	1.0
92.67	8.0
92.685	2.0
92.7	4.0
92.715	2.0
92.73	3.0
92.745	1.0
92.76	4.0
92.775	3.0
92.79	1.0
92.805	3.0
92.82	4.0
92.835	2.0
92.85	1.0
92.865	0.0
92.88	2.0
92.895	2.0
92.91	2.0
92.925	3.0
92.94	5.0
92.955	3.0
92.97	4.0
92.985	3.0
93.0	5.0
93.015	2.0
93.03	2.0
93.045	2.0
93.06	1.0
93.075	1.0
93.09	5.0
93.105	4.0
93.12	1.0
93.135	3.0
93.15	8.0
93.165	7.0
93.18	2.0
93.195	6.0
93.21	0.0
93.225	3.0
93.24	0.0
93.255	5.0
93.27	3.0
93.285	3.0
93.3	2.0
93.315	4.0
93.33	0.0
93.345	3.0
93.36	3.0
93.375	1.0
93.39	3.0
93.405	3.0
93.42	1.0
93.435	3.0
93.45	2.0
93.465	1.0
93.48	3.0
93.495	2.0
93.51	5.0
93.525	3.0
93.54	4.0
93.555	7.0
93.57	7.0
93.585	2.0
93.6	5.0
93.615	7.0
93.63	6.0
93.645	5.0
93.66	2.0
93.675	2.0
93.69	1.0
93.705	6.0
93.72	4.0
93.735	2.0
93.75	3.0
93.765	0.0
93.78	0.0
93.795	2.0
93.81	3.0
93.824	3.0
93.839	2.0
93.854	4.0
93.869	1.0
93.884	1.0
93.899	3.0
93.914	2.0
93.929	4.0
93.944	2.0
93.959	3.0
93.974	4.0
93.989	3.0
94.004	5.0
94.019	1.0
94.034	7.0
94.049	1.0
94.064	3.0
94.079	3.0
94.094	5.0
94.108	1.0
94.123	6.0
94.138	3.0
94.153	3.0
94.168	4.0
94.183	3.0
94.198	4.0
94.213	3.0
94.228	1.0
94.243	2.0
94.258	3.0
94.273	3.0
94.288	1.0
94.302	3.0
94.317	0.0
94.332	5.0
94.347	3.0
94.362	1.0
94.377	1.0
94.392	3.0
94.407	6.0
94.422	5.0
94.437	6.0
94.452	7.0
94.466	4.0
94.481	4.0
94.496	3.0
94.511	0.0
94.526	0.0
94.541	3.0
94.556	7.0
94.571	5.0
94.586	4.0
94.601	8.0
94.615	4.0
94.63	4.0
94.645	2.0
94.66	5.0
94.675	1.0
94.69	5.0
94.705	3.0
94.72	1.0
94.735	3.0
94.749	3.0
94.764	2.0
94.779	6.0
94.794	3.0
94.809	1.0
94.824	0.0
94.839	4.0
94.854	3.0
94.868	8.0
94.883	4.0
94.898	5.0
94.913	1.0
94.928	4.0
94.943	6.0
94.958	5.0
94.973	5.0
94.987	2.0
95.002	4.0
95.017	3.0
95.032	4.0
95.047	1.0
95.062	1.0
95.077	4.0
95.092	4.0
95.106	4.0
95.121	0.0
95.136	2.0
95.151	2.0
95.166	2.0
95.181	6.0
95.196	5.0
95.211	3.0
95.226	5.0
95.24	9.0
95.255	4.0
95.27	2.0
95.285	6.0
95.3	1.0
95.315	1.0
95.33	7.0
95.345	1.0
95.359	3.0
95.374	3.0
95.389	2.0
95.404	6.0
95.419	2.0
95.434	2.0
95.449	0.0
95.464	6.0
95.478	1.0
95.493	7.0
95.508	0.0
95.523	5.0
95.538	1.0
95.553	1.0
95.568	3.0
95.583	4.0
95.597	3.0
95.612	2.0
95.627	4.0
95.642	5.0
95.657	3.0
95.672	2.0
95.687	0.0
95.702	4.0
95.717	0.0
95.731	2.0
95.746	2.0
95.761	4.0
95.776	6.0
95.791	3.0
95.806	2.0
95.821	5.0
95.836	2.0
95.851	2.0
95.866	2.0
95.88	1.0
95.895	3.0
95.91	4.0
95.925	2.0
95.94	1.0
95.955	2.0
95.97	5.0
95.985	1.0
96.0	4.0
96.015	4.0
96.029	3.0
96.044	6.0
96.059	4.0
96.074	2.0
96.089	4.0
96.104	5.0
96.119	3.0
96.134	5.0
96.149	3.0
96.164	3.0
96.179	4.0
96.194	3.0
96.208	6.0
96.223	1.0
96.238	7.0
96.253	4.0
96.268	4.0
96.283	5.0
96.298	5.0
96.313	0.0
96.328	4.0
96.343	4.0
96.358	1.0
96.373	2.0
96.388	3.0
96.403	2.0
96.417	2.0
96.432	2.0
96.447	4.0
96.462	1.0
96.477	2.0
96.492	1.0
96.507	0.0
96.522	5.0
96.537	5.0
96.552	2.0
96.567	5.0
96.582	2.0
96.597	3.0
96.612	1.0
96.627	4.0
96.642	1.0
96.656	0.0
96.671	6.0
96.686	4.0
96.701	5.0
96.716	2.0
96.731	5.0
96.746	5.0
96.761	3.0
96.776	1.0
96.791	3.0
96.806	3.0
96.821	4.0
96.836	2.0
96.851	3.0
96.866	3.0
96.881	5.0
96.896	7.0
96.911	6.0
96.926	4.0
96.94	6.0
96.955	5.0
96.97	5.0
96.985	2.0
97.0	2.0
97.015	3.0
97.03	4.0
97.045	0.0
97.06	1.0
97.075	3.0
97.09	2.0
97.105	3.0
97.12	3.0
97.135	2.0
97.15	3.0
97.165	4.0
97.18	2.0
97.195	3.0
97.21	3.0
97.225	2.0
97.239	1.0
97.254	3.0
97.269	4.0
97.284	0.0
97.299	5.0
97.314	4.0
97.329	4.0
97.344	3.0
97.359	2.0
97.374	0.0
97.389	4.0
97.404	1.0
97.419	2.0
97.434	1.0
97.449	2.0
97.464	2.0
97.479	2.0
97.494	1.0
97.509	3.0
97.524	4.0
97.538	2.0
97.553	4.0
97.568	3.0
97.583	2.0
97.598	1.0
97.613	5.0
97.628	2.0
97.643	4.0
97.658	8.0
97.673	5.0
97.688	5.0
97.703	2.0
97.718	3.0
97.733	1.0
97.748	2.0
97.763	5.0
97.778	3.0
97.792	3.0
97.807	4.0
97.822	3.0
97.837	0.0
97.852	1.0
97.867	1.0
97.882	2.0
97.897	1.0
97.912	0.0
97.927	2.0
97.942	6.0
97.957	2.0
97.972	0.0
97.987	2.0
98.001	4.0
98.016	2.0
98.031	3.0
98.046	3.0
98.061	3.0
98.076	2.0
98.091	3.0
98.106	1.0
98.121	2.0
98.136	3.0
98.151	0.0
98.166	5.0
98.181	4.0
98.195	4.0
98.21	3.0
98.225	3.0
98.24	2.0
98.255	2.0
98.27	4.0
98.285	5.0
98.3	1.0
98.315	1.0
98.33	5.0
98.345	2.0
98.359	6.0
98.374	4.0
98.389	2.0
98.404	6.0
98.419	1.0
98.434	2.0
98.449	3.0
98.464	2.0
98.479	2.0
98.494	4.0
98.508	5.0
98.523	0.0
98.538	3.0
98.553	4.0
98.568	6.0
98.583	3.0
98.598	2.0
98.613	3.0
98.628	4.0
98.642	1.0
98.657	5.0
98.672	2.0
98.687	5.0
98.702	1.0
98.717	2.0
98.732	4.0
98.747	5.0
98.762	0.0
98.776	5.0
98.791	2.0
98.806	4.0
98.821	3.0
98.836	2.0
98.851	5.0
98.866	2.0
98.881	3.0
98.896	4.0
98.91	4.0
98.925	1.0
98.94	3.0
98.955	1.0
98.97	1.0
98.985	5.0
99.0	0.0
99.015	5.0
99.029	2.0
99.044	0.0
99.059	4.0
99.074	2.0
99.089	2.0
99.104	2.0
99.119	1.0
99.133	1.0
99.148	1.0
99.163	3.0
99.178	2.0
99.193	3.0
99.208	4.0
99.223	5.0
99.238	3.0
99.252	7.0
99.267	1.0
99.282	4.0
99.297	1.0
99.312	0.0
99.327	3.0
99.342	3.0
99.356	3.0
99.371	3.0
99.386	1.0
99.401	4.0
99.416	1.0
99.431	3.0
99.446	5.0
99.461	5.0
99.475	1.0
99.49	3.0
99.505	0.0
99.52	1.0
99.535	3.0
99.55	3.0
99.565	3.0
99.579	2.0
99.594	3.0
99.609	4.0
99.624	3.0
99.639	3.0
99.654	3.0
99.669	4.0
99.683	1.0
99.698	3.0
99.713	1.0
99.728	3.0
99.743	4.0
99.758	6.0
99.772	7.0
99.787	3.0
99.802	5.0
99.817	3.0
99.832	4.0
99.847	3.0
99.862	5.0
99.876	1.0
99.891	2.0
99.906	2.0
99.921	4.0
99.936	1.0
99.951	4.0
99.966	6.0
99.98	4.0
99.995	2.0
100.01	5.0
100.025	2.0
100.04	3.0
100.055	3.0
100.069	9.0
100.084	1.0
100.099	1.0
100.114	1.0
100.129	6.0
100.144	4.0
100.159	2.0
100.173	2.0
100.188	9.0
100.203	6.0
100.218	2.0
100.233	1.0
100.248	6.0
100.262	6.0
100.277	2.0
100.292	4.0
100.307	5.0
100.322	5.0
100.337	4.0
100.351	4.0
100.366	5.0
100.381	3.0
100.396	5.0
100.411	0.0
100.426	4.0
100.441	4.0
100.455	2.0
100.47	2.0
100.485	4.0
100.5	5.0
100.515	3.0
100.53	8.0
100.544	4.0
100.559	1.0
100.574	4.0
100.589	0.0
100.604	2.0
100.619	2.0
100.633	1.0
100.648	1.0
100.663	2.0
100.678	4.0
100.693	8.0
100.708	1.0
100.722	4.0
100.737	4.0
100.752	0.0
100.767	3.0
100.782	1.0
100.796	3.0
100.811	3.0
100.826	1.0
100.841	5.0
100.856	4.0
100.871	5.0
100.885	4.0
100.9	2.0
100.915	4.0
100.93	3.0
100.945	5.0
100.96	1.0
100.974	4.0
100.989	0.0
101.004	4.0
101.019	3.0
101.034	1.0
101.048	5.0
101.063	4.0
101.078	2.0
101.093	2.0
101.108	1.0
101.123	3.0
101.137	5.0
101.152	5.0
101.167	4.0
101.182	2.0
101.197	3.0
101.211	2.0
101.226	4.0
101.241	1.0
101.256	3.0
101.271	3.0
101.285	1.0
101.3	3.0
101.315	0.0
101.33	4.0
101.345	5.0
101.359	3.0
101.374	5.0
101.389	5.0
101.404	4.0
101.419	5.0
101.433	1.0
101.448	4.0
101.463	7.0
101.478	3.0
101.493	2.0
101.507	3.0
101.522	0.0
101.537	4.0
101.552	0.0
101.567	4.0
101.581	6.0
101.596	2.0
101.611	0.0
101.626	2.0
101.64	3.0
101.655	4.0
101.67	5.0
101.685	2.0
101.7	1.0
101.714	3.0
101.729	4.0
101.744	3.0
101.759	1.0
101.773	5.0
101.788	1.0
101.803	4.0
101.818	2.0
101.833	1.0
101.847	4.0
101.862	0.0
101.877	6.0
101.892	4.0
101.906	1.0
101.921	5.0
101.936	4.0
101.951	5.0
101.965	4.0
101.98	5.0
101.995	2.0
102.01	7.0
102.025	1.0
102.039	1.0
102.054	7.0
102.069	2.0
102.084	2.0
102.098	5.0
102.113	2.0
102.128	1.0
102.143	0.0
102.157	1.0
102.172	4.0
102.187	0.0
102.202	4.0
102.216	2.0
102.231	2.0
102.246	1.0
102.261	3.0
102.275	2.0
102.29	2.0
102.305	1.0
102.32	1.0
102.334	3.0
102.349	2.0
102.364	2.0
102.378	2.0
102.393	2.0
102.408	1.0
102.423	2.0
102.437	1.0
102.452	5.0
102.467	1.0
102.482	1.0
102.496	2.0
102.511	5.0
102.526	6.0
102.541	1.0
102.555	5.0
102.57	3.0
102.585	2.0
102.6	4.0
102.614	5.0
102.629	0.0
102.644	1.0
102.659	1.0
102.673	4.0
102.688	3.0
102.703	4.0
102.717	3.0
102.732	6.0
102.747	4.0
102.762	5.0
102.776	4.0
102.791	4.0
102.806	6.0
102.821	7.0
102.835	3.0
102.85	3.0
102.865	2.0
102.88	2.0
102.894	1.0
102.909	3.0
102.924	6.0
102.938	0.0
102.953	5.0
102.968	1.0
102.983	3.0
102.997	3.0
103.012	6.0
103.027	6.0
103.042	4.0
103.056	2.0
103.071	3.0
103.086	2.0
103.101	4.0
103.115	3.0
103.13	1.0
103.145	2.0
103.16	2.0
103.174	1.0
103.189	1.0
103.204	4.0
103.219	2.0
103.233	3.0
103.248	2.0
103.263	4.0
103.278	6.0
103.292	3.0
103.307	3.0
103.322	4.0
103.337	4.0
103.351	4.0
103.366	1.0
103.381	2.0
103.396	1.0
103.41	5.0
103.425	2.0
103.44	3.0
103.455	2.0
103.469	6.0
103.484	7.0
103.499	4.0
103.514	2.0
103.529	1.0
103.543	2.0
103.558	4.0
103.573	3.0
103.588	0.0
103.602	2.0
103.617	2.0
103.632	2.0
103.647	1.0
103.661	3.0
103.676	6.0
103.691	4.0
103.706	1.0
103.721	2.0
103.735	3.0
103.75	4.0
103.765	6.0
103.78	4.0
103.795	3.0
103.809	2.0
103.824	0.0
103.839	4.0
103.854	3.0
103.869	2.0
103.883	1.0
103.898	5.0
103.913	3.0
103.928	4.0
103.943	0.0
103.957	5.0
103.972	3.0
103.987	1.0
104.002	2.0
104.017	2.0
104.031	2.0
104.046	5.0
104.061	4.0
104.076	4.0
104.091	8.0
104.106	5.0
104.12	1.0
104.135	3.0
104.15	3.0
104.165	2.0
104.18	8.0
104.195	3.0
104.209	3.0
104.224	1.0
104.239	4.0
104.254	1.0
104.269	4.0
104.284	5.0
104.299	2.0
104.313	4.0
104.328	1.0
104.343	1.0
104.358	2.0
104.373	4.0
104.388	6.0
104.403	6.0
104.417	3.0
104.432	4.0
104.447	3.0
104.462	6.0
104.477	5.0
104.492	5.0
104.507	1.0
104.522	4.0
104.536	5.0
104.551	5.0
104.566	6.0
104.581	3.0
104.596	3.0
104.611	2.0
104.626	3.0
104.641	4.0
104.656	2.0
104.67	2.0
104.685	3.0
104.7	4.0
104.715	4.0
104.73	0.0
104.745	1.0
104.76	4.0
104.775	3.0
104.79	6.0
104.804	8.0
104.819	2.0
104.834	3.0
104.849	1.0
104.864	3.0
104.879	4.0
104.894	3.0
104.909	5.0
104.924	2.0
104.939	4.0
104.954	1.0
104.968	1.0
104.983	1.0
104.998	2.0
105.013	4.0
105.028	3.0
105.043	3.0
105.058	3.0
105.073	3.0
105.088	2.0
105.103	1.0
105.118	3.0
105.133	1.0
105.147	0.0
105.162	2.0
105.177	2.0
105.192	5.0
105.207	3.0
105.222	1.0
105.237	2.0
105.252	4.0
105.267	1.0
105.282	3.0
105.297	2.0
105.312	4.0
105.327	5.0
105.342	2.0
105.356	5.0
105.371	5.0
105.386	2.0
105.401	1.0
105.416	1.0
105.431	2.0
105.446	2.0
105.461	5.0
105.476	3.0
105.491	3.0
105.506	5.0
105.521	1.0
105.536	1.0
105.551	1.0
105.566	0.0
105.581	4.0
105.595	6.0
105.61	2.0
105.625	1.0
105.64	2.0
105.655	0.0
105.67	2.0
105.685	2.0
105.7	0.0
105.715	3.0
105.73	2.0
105.745	3.0
105.76	4.0
105.775	7.0
105.79	5.0
105.805	3.0
105.82	6.0
105.835	2.0
105.85	0.0
105.864	0.0
105.879	3.0
105.894	4.0
105.909	2.0
105.924	4.0
105.939	2.0
105.954	2.0
105.969	1.0
105.984	5.0
105.999	1.0
106.014	2.0
106.029	4.0
106.044	2.0
106.059	3.0
106.074	2.0
106.089	4.0
106.104	5.0
106.119	4.0
106.134	3.0
106.148	4.0
106.163	4.0
106.178	2.0
106.193	3.0
106.208	3.0
106.223	5.0
106.238	4.0
106.253	6.0
106.268	5.0
106.283	5.0
106.298	4.0
106.313	2.0
106.328	4.0
106.343	3.0
106.358	1.0
106.373	3.0
106.388	5.0
106.403	2.0
106.418	3.0
106.432	4.0
106.447	1.0
106.462	6.0
106.477	1.0
106.492	1.0
106.507	3.0
106.522	0.0
106.537	5.0
106.552	3.0
106.567	0.0
106.582	1.0
106.597	2.0
106.612	1.0
106.627	0.0
106.642	3.0
106.657	7.0
106.672	3.0
106.687	2.0
106.701	2.0
106.716	2.0
106.731	4.0
106.746	4.0
106.761	6.0
106.776	5.0
106.791	0.0
106.806	4.0
106.821	5.0
106.836	5.0
106.851	4.0
106.866	0.0
106.881	2.0
106.896	5.0
106.911	3.0
106.926	2.0
106.941	6.0
106.955	4.0
106.97	3.0
106.985	4.0
107.0	4.0
107.015	2.0
107.03	5.0
107.045	6.0
107.06	5.0
107.075	4.0
107.09	7.0
107.105	4.0
107.12	1.0
107.135	1.0
107.15	3.0
107.165	5.0
107.18	3.0
107.194	6.0
107.209	6.0
107.224	2.0
107.239	5.0
107.254	4.0
107.269	8.0
107.284	0.0
107.299	2.0
107.314	2.0
107.329	3.0
107.344	1.0
107.359	3.0
107.374	2.0
107.389	3.0
107.404	4.0
107.418	3.0
107.433	3.0
107.448	2.0
107.463	0.0
107.478	0.0
107.493	3.0
107.508	4.0
107.523	2.0
107.538	9.0
107.553	1.0
107.568	3.0
107.583	2.0
107.598	3.0
107.613	4.0
107.627	3.0
107.642	4.0
107.657	4.0
107.672	4.0
107.687	4.0
107.702	3.0
107.717	2.0
107.732	4.0
107.747	4.0
107.762	2.0
107.777	1.0
107.792	0.0
107.807	3.0
107.821	2.0
107.836	4.0
107.851	2.0
107.866	4.0
107.881	1.0
107.896	2.0
107.911	1.0
107.926	6.0
107.941	4.0
107.956	5.0
107.971	4.0
107.986	5.0
108.0	4.0
108.015	8.0
108.03	1.0
108.045	2.0
108.06	0.0
108.075	4.0
108.09	4.0
108.105	2.0
108.12	7.0
108.135	8.0
108.15	1.0
108.164	3.0
108.179	3.0
108.194	3.0
108.209	5.0
108.224	4.0
108.239	2.0
108.254	1.0
108.269	5.0
108.284	0.0
108.299	3.0
108.313	3.0
108.328	2.0
108.343	2.0
108.358	3.0
108.373	7.0
108.388	1.0
108.403	1.0
108.418	1.0
108.433	3.0
108.448	5.0
108.462	5.0
108.477	7.0
108.492	3.0
108.507	2.0
108.522	1.0
108.537	3.0
108.552	6.0
108.567	3.0
108.582	5.0
108.597	4.0
108.611	2.0
108.626	4.0
108.641	4.0
108.656	2.0
108.671	5.0
108.686	4.0
108.701	2.0
108.716	4.0
108.731	3.0
108.745	3.0
108.76	2.0
108.775	0.0
108.79	2.0
108.805	2.0
108.82	3.0
108.835	3.0
108.85	2.0
108.865	0.0
108.879	2.0
108.894	9.0
108.909	1.0
108.924	2.0
108.939	4.0
108.954	2.0
108.969	5.0
108.984	3.0
108.999	2.0
109.013	7.0
109.028	7.0
109.043	3.0
109.058	6.0
109.073	3.0
109.088	1.0
109.103	4.0
109.118	4.0
109.133	2.0
109.147	1.0
109.162	4.0
109.177	3.0
109.192	4.0
109.207	5.0
109.222	2.0
109.237	2.0
109.252	4.0
109.267	2.0
109.281	3.0
109.296	3.0
109.311	2.0
109.326	0.0
109.341	5.0
109.356	1.0
109.371	0.0
109.386	2.0
109.4	2.0
109.415	1.0
109.43	3.0
109.445	2.0
109.46	3.0
109.475	2.0
109.49	4.0
109.505	2.0
109.52	2.0
109.534	5.0
109.549	2.0
109.564	2.0
109.579	5.0
109.594	3.0
109.609	1.0
109.624	5.0
109.639	4.0
109.653	3.0
109.668	2.0
109.683	3.0
109.698	5.0
109.713	2.0
109.728	5.0
109.743	4.0
109.758	5.0
109.773	5.0
109.787	3.0
109.802	5.0
109.817	1.0
109.832	4.0
109.847	1.0
109.862	5.0
109.877	1.0
109.892	3.0
109.907	4.0
109.921	1.0
109.936	5.0
109.951	2.0
109.966	4.0
109.981	3.0
109.996	4.0
110.011	4.0
110.026	2.0
110.04	3.0
110.055	3.0
110.07	5.0
110.085	5.0
110.1	6.0
110.115	3.0
110.13	5.0
110.145	3.0
110.16	6.0
110.174	3.0
110.189	1.0
110.204	0.0
110.219	3.0
110.234	4.0
110.249	4.0
110.264	4.0
110.279	3.0
110.294	1.0
110.308	3.0
110.323	3.0
110.338	3.0
110.353	2.0
110.368	4.0
110.383	3.0
110.398	2.0
110.413	1.0
110.428	2.0
110.442	3.0
110.457	3.0
110.472	2.0
110.487	0.0
110.502	4.0
110.517	6.0
110.532	1.0
110.547	1.0
110.561	2.0
110.576	5.0
110.591	5.0
110.606	0.0
110.621	6.0
110.636	4.0
110.651	5.0
110.666	0.0
110.681	2.0
110.695	4.0
110.71	10.0
110.725	5.0
110.74	5.0
110.755	4.0
110.77	4.0
110.785	7.0
110.8	3.0
110.815	1.0
110.829	2.0
110.844	0.0
110.859	2.0
110.874	1.0
110.889	4.0
110.904	2.0
110.919	3.0
110.934	4.0
110.948	3.0
110.963	1.0
110.978	4.0
110.993	3.0
111.008	2.0
111.023	5.0
111.038	2.0
111.053	7.0
111.067	1.0
111.082	5.0
111.097	4.0
111.112	3.0
111.127	5.0
111.142	5.0
111.157	4.0
111.172	5.0
111.186	4.0
111.201	2.0
111.216	5.0
111.231	7.0
111.246	3.0
111.261	2.0
111.276	6.0
111.291	4.0
111.305	4.0
111.32	3.0
111.335	1.0
111.35	3.0
111.365	4.0
111.38	1.0
111.395	2.0
111.41	1.0
111.424	5.0
111.439	2.0
111.454	4.0
111.469	2.0
111.484	2.0
111.499	6.0
111.514	2.0
111.528	4.0
111.543	4.0
111.558	6.0
111.573	3.0
111.588	4.0
111.603	7.0
111.618	6.0
111.633	6.0
111.647	1.0
111.662	3.0
111.677	6.0
111.692	5.0
111.707	6.0
111.722	5.0
111.737	6.0
111.751	6.0
111.766	5.0
111.781	5.0
111.796	3.0
111.811	5.0
111.826	6.0
111.84	2.0
111.855	3.0
111.87	3.0
111.885	5.0
111.9	5.0
111.915	5.0
111.93	3.0
111.944	6.0
111.959	4.0
111.974	4.0
111.989	4.0
112.004	3.0
112.019	4.0
112.033	3.0
112.048	6.0
112.063	4.0
112.078	3.0
112.093	3.0
112.108	3.0
112.123	2.0
112.137	5.0
112.152	3.0
112.167	2.0
112.182	2.0
112.197	4.0
112.212	6.0
112.226	3.0
112.241	4.0
112.256	5.0
112.271	3.0
112.286	1.0
112.301	2.0
112.315	3.0
112.33	2.0
112.345	2.0
112.36	3.0
112.375	4.0
112.389	2.0
112.404	1.0
112.419	3.0
112.434	4.0
112.449	5.0
112.464	1.0
112.478	5.0
112.493	4.0
112.508	7.0
112.523	6.0
112.538	2.0
112.553	4.0
112.567	3.0
112.582	3.0
112.597	3.0
112.612	3.0
112.627	0.0
112.642	0.0
112.656	3.0
112.671	0.0
112.686	5.0
112.701	3.0
112.716	2.0
112.73	2.0
112.745	4.0
112.76	1.0
112.775	6.0
112.79	5.0
112.805	2.0
112.819	3.0
112.834	7.0
112.849	6.0
112.864	1.0
112.879	2.0
112.894	3.0
112.908	3.0
112.923	7.0
112.938	5.0
112.953	3.0
112.968	4.0
112.983	6.0
112.997	3.0
113.012	2.0
113.027	2.0
113.042	3.0
113.057	7.0
113.072	5.0
113.086	5.0
113.101	2.0
113.116	2.0
113.131	4.0
113.146	2.0
113.161	3.0
113.175	3.0
113.19	0.0
113.205	4.0
113.22	2.0
113.235	3.0
113.25	3.0
113.265	1.0
113.279	2.0
113.294	4.0
113.309	4.0
113.324	3.0
113.339	4.0
113.354	4.0
113.368	2.0
113.383	6.0
113.398	5.0
113.413	5.0
113.428	3.0
113.443	6.0
113.458	1.0
113.472	3.0
113.487	3.0
113.502	1.0
113.517	5.0
113.532	3.0
113.547	3.0
113.562	1.0
113.576	2.0
113.591	5.0
113.606	6.0
113.621	6.0
113.636	1.0
113.651	2.0
113.666	4.0
113.681	1.0
113.695	6.0
113.71	3.0
113.725	4.0
113.74	3.0
113.755	6.0
113.77	3.0
113.785	3.0
113.8	1.0
113.814	1.0
113.829	1.0
113.844	3.0
113.859	4.0
113.874	2.0
113.889	5.0
113.904	7.0
113.919	4.0
113.934	5.0
113.949	3.0
113.963	3.0
113.978	2.0
113.993	6.0
114.008	3.0
114.023	9.0
114.038	3.0
114.053	0.0
114.068	2.0
114.083	3.0
114.098	3.0
114.113	2.0
114.127	2.0
114.142	5.0
114.157	3.0
114.172	1.0
114.187	4.0
114.202	6.0
114.217	5.0
114.232	3.0
114.247	1.0
114.262	2.0
114.277	4.0
114.292	5.0
114.307	5.0
114.322	5.0
114.337	4.0
114.351	7.0
114.366	4.0
114.381	3.0
114.396	5.0
114.411	3.0
114.426	3.0
114.441	1.0
114.456	1.0
114.471	2.0
114.486	2.0
114.501	3.0
114.516	6.0
114.531	5.0
114.546	4.0
114.561	5.0
114.576	6.0
114.591	5.0
114.606	0.0
114.621	4.0
114.636	3.0
114.65	4.0
114.665	4.0
114.68	5.0
114.695	6.0
114.71	2.0
114.725	2.0
114.74	5.0
114.755	4.0
114.77	4.0
114.785	0.0
114.8	4.0
114.815	4.0
114.83	4.0
114.845	1.0
114.86	4.0
114.875	2.0
114.89	4.0
114.905	2.0
114.92	1.0
114.935	7.0
114.95	2.0
114.965	7.0
114.98	2.0
114.995	2.0
115.009	3.0
115.024	3.0
115.039	6.0
115.054	4.0
115.069	3.0
115.084	1.0
115.099	1.0
115.114	2.0
115.129	6.0
115.144	1.0
115.159	6.0
115.174	5.0
115.189	7.0
115.204	3.0
115.219	5.0
115.234	9.0
115.249	2.0
115.264	4.0
115.279	4.0
115.294	7.0
115.309	7.0
115.323	6.0
115.338	4.0
115.353	11.0
115.368	2.0
115.383	1.0
115.398	3.0
115.413	4.0
115.428	4.0
115.443	9.0
115.458	6.0
115.473	1.0
115.488	5.0
115.503	7.0
115.518	4.0
115.533	6.0
115.548	1.0
115.562	2.0
115.577	8.0
115.592	2.0
115.607	6.0
115.622	4.0
115.637	3.0
115.652	0.0
115.667	4.0
115.682	3.0
115.697	8.0
115.712	2.0
115.727	3.0
115.741	6.0
115.756	4.0
115.771	4.0
115.786	0.0
115.801	2.0
115.816	2.0
115.831	1.0
115.846	4.0
115.861	2.0
115.875	3.0
115.89	2.0
115.905	1.0
115.92	1.0
115.935	2.0
115.95	3.0
115.965	0.0
115.98	3.0
115.995	1.0
116.009	3.0
116.024	2.0
116.039	2.0
116.054	5.0
116.069	7.0
116.084	4.0
116.099	5.0
116.113	1.0
116.128	1.0
116.143	5.0
116.158	3.0
116.173	5.0
116.188	1.0
116.202	4.0
116.217	1.0
116.232	6.0
116.247	2.0
116.262	4.0
116.277	5.0
116.291	3.0
116.306	0.0
116.321	3.0
116.336	2.0
116.351	3.0
116.366	3.0
116.38	3.0
116.395	6.0
116.41	8.0
116.425	2.0
116.44	1.0
116.454	3.0
116.469	2.0
116.484	2.0
116.499	1.0
116.514	6.0
116.528	4.0
116.543	4.0
116.558	4.0
116.573	3.0
116.588	2.0
116.602	6.0
116.617	4.0
116.632	6.0
116.647	8.0
116.662	1.0
116.676	3.0
116.691	2.0
116.706	3.0
116.721	6.0
116.735	3.0
116.75	0.0
116.765	5.0
116.78	7.0
116.795	4.0
116.809	1.0
116.824	2.0
116.839	6.0
116.854	8.0
116.868	4.0
116.883	1.0
116.898	0.0
116.913	2.0
116.927	3.0
116.942	1.0
116.957	4.0
116.972	5.0
116.986	2.0
117.001	1.0
117.016	4.0
117.031	4.0
117.045	2.0
117.06	5.0
117.075	2.0
117.09	2.0
117.104	4.0
117.119	5.0
117.134	1.0
117.149	0.0
117.163	5.0
117.178	9.0
117.193	1.0
117.208	4.0
117.222	4.0
117.237	2.0
117.252	5.0
117.267	2.0
117.281	5.0
117.296	3.0
117.311	7.0
117.325	3.0
117.34	4.0
117.355	1.0
117.37	5.0
117.384	6.0
117.399	2.0
117.414	5.0
117.429	5.0
117.443	4.0
117.458	1.0
117.473	3.0
117.487	2.0
117.502	5.0
117.517	2.0
117.532	1.0
117.546	3.0
117.561	4.0
117.576	5.0
117.59	3.0
117.605	3.0
117.62	5.0
117.635	7.0
117.649	2.0
117.664	3.0
117.679	1.0
117.693	1.0
117.708	4.0
117.723	2.0
117.738	3.0
117.752	2.0
117.767	2.0
117.782	2.0
117.796	3.0
117.811	6.0
117.826	2.0
117.841	7.0
117.855	1.0
117.87	9.0
117.885	1.0
117.899	2.0
117.914	6.0
117.929	6.0
117.944	2.0
117.958	1.0
117.973	3.0
117.988	1.0
118.002	4.0
118.017	5.0
118.032	1.0
118.047	5.0
118.062	6.0
118.077	6.0
118.092	0.0
118.107	3.0
118.121	5.0
118.136	3.0
118.151	2.0
118.166	4.0
118.181	1.0
118.196	3.0
118.211	5.0
118.225	5.0
118.24	5.0
118.255	2.0
118.27	4.0
118.285	4.0
118.3	3.0
118.315	1.0
118.33	3.0
118.344	3.0
118.359	3.0
118.374	5.0
118.389	7.0
118.404	6.0
118.419	2.0
118.434	1.0
118.449	5.0
118.463	3.0
118.478	2.0
118.493	6.0
118.508	9.0
118.523	2.0
118.538	3.0
118.553	3.0
118.567	3.0
118.582	4.0
118.597	3.0
118.612	1.0
118.627	4.0
118.642	4.0
118.657	3.0
118.672	2.0
118.686	4.0
118.701	2.0
118.716	4.0
118.731	4.0
118.746	6.0
118.761	1.0
118.776	3.0
118.791	0.0
118.805	3.0
118.82	1.0
118.835	1.0
118.85	5.0
118.865	4.0
118.88	0.0
118.895	4.0
118.909	4.0
118.924	4.0
118.939	3.0
118.954	2.0
118.969	5.0
118.984	5.0
118.999	2.0
119.014	2.0
119.028	3.0
119.043	4.0
119.058	3.0
119.073	6.0
119.088	4.0
119.103	0.0
119.118	2.0
119.133	3.0
119.147	3.0
119.162	3.0
119.177	2.0
119.192	1.0
119.207	1.0
119.222	4.0
119.237	5.0
119.251	2.0
119.266	3.0
119.281	3.0
119.296	7.0
119.311	3.0
119.326	5.0
119.341	5.0
119.356	6.0
119.37	6.0
119.385	4.0
119.4	5.0
119.415	1.0
119.43	9.0
119.445	4.0
119.46	2.0
119.475	2.0
119.489	4.0
119.504	3.0
119.519	3.0
119.534	6.0
119.549	1.0
119.564	3.0
119.579	2.0
119.593	4.0
119.608	1.0
119.623	3.0
119.638	3.0
119.653	3.0
119.668	4.0
119.683	5.0
119.698	4.0
119.712	5.0
119.727	6.0
119.742	6.0
119.757	5.0
119.772	5.0
119.787	4.0
119.802	7.0
119.817	2.0
119.831	4.0
119.846	4.0
119.861	2.0
119.876	8.0
119.891	1.0
119.906	2.0
119.921	3.0
119.935	2.0
119.95	2.0
119.965	3.0
119.98	1.0
119.995	1.0
120.01	1.0
120.025	2.0
120.04	3.0
120.054	4.0
120.069	4.0
120.084	1.0
120.099	1.0
120.114	1.0
120.129	2.0
120.144	2.0
120.159	0.0
120.173	1.0
120.188	1.0
120.203	2.0
120.218	0.0
120.233	1.0
120.248	0.0
120.263	2.0
120.277	2.0
120.292	0.0
120.307	1.0
120.322	0.0
120.337	0.0
120.352	0.0
120.367	0.0
120.382	0.0
120.396	1.0
120.411	0.0
120.426	0.0
120.441	0.0
120.456	0.0
120.471	1.0
120.486	2.0
120.501	0.0
120.515	0.0
120.53	0.0
120.545	1.0
120.56	0.0
120.575	0.0
120.59	0.0
120.605	0.0
120.619	0.0
120.634	0.0
120.649	0.0
120.664	0.0
120.679	0.0
120.694	0.0
120.709	0.0
120.724	0.0
120.738	0.0
120.753	0.0
120.768	0.0
120.783	0.0
120.798	0.0
120.813	0.0
120.828	0.0
120.843	0.0
120.857	0.0
120.872	0.0
120.887	0.0
120.902	1.0
120.917	0.0
120.932	0.0
120.947	0.0
120.961	0.0
120.976	0.0
