-1.217	0.0
-1.202	0.0
-1.187	0.0
-1.172	0.0
-1.157	0.0
-1.142	0.0
-1.128	0.0
-1.113	0.0
-1.098	0.0
-1.083	0.0
-1.068	0.0
-1.054	0.0
-1.039	0.0
-1.024	0.0
-1.009	0.0
-0.994	0.0
-0.979	0.0
-0.965	0.0
-0.95	0.0
-0.935	0.0
-0.92	0.0
-0.905	0.0
-0.891	0.0
-0.876	0.0
-0.861	0.0
-0.846	0.0
-0.831	0.0
-0.816	0.0
-0.802	0.0
-0.787	0.0
-0.772	0.0
-0.757	0.0
-0.742	0.0
-0.728	0.0
-0.713	0.0
-0.698	0.0
-0.683	0.0
-0.668	0.0
-0.653	1.0
-0.639	0.0
-0.624	0.0
-0.609	0.0
-0.594	0.0
-0.579	0.0
-0.565	0.0
-0.55	0.0
-0.535	0.0
-0.52	0.0
-0.505	0.0
-0.49	0.0
-0.476	0.0
-0.461	0.0
-0.446	0.0
-0.431	0.0
-0.416	0.0
-0.401	0.0
-0.387	0.0
-0.372	0.0
-0.357	0.0
-0.342	0.0
-0.327	0.0
-0.313	0.0
-0.298	0.0
-0.283	1.0
-0.268	0.0
-0.253	0.0
-0.238	0.0
-0.224	0.0
-0.209	0.0
-0.194	0.0
-0.179	0.0
-0.164	0.0
-0.15	0.0
-0.135	0.0
-0.12	0.0
-0.105	0.0
-0.09	0.0
-0.075	0.0
-0.061	0.0
-0.046	0.0
-0.031	0.0
-0.016	0.0
-0.001	0.0
0.013	0.0
0.028	0.0
0.043	1.0
0.058	0.0
0.073	0.0
0.088	0.0
0.102	0.0
0.117	0.0
0.132	0.0
0.147	0.0
0.162	0.0
0.176	0.0
0.191	0.0
0.206	0.0
0.221	0.0
0.236	0.0
0.251	0.0
0.265	0.0
0.28	0.0
0.295	0.0
0.31	0.0
0.325	0.0
0.339	0.0
0.354	0.0
0.369	0.0
0.384	0.0
0.399	0.0
0.414	0.0
0.428	0.0
0.443	0.0
0.458	0.0
0.473	0.0
0.488	0.0
0.502	0.0
0.517	0.0
0.532	0.0
0.547	1.0
0.562	0.0
0.577	0.0
0.591	0.0
0.606	0.0
0.621	0.0
0.636	0.0
0.651	0.0
0.665	0.0
0.68	0.0
0.695	0.0
0.71	0.0
0.725	0.0
0.74	0.0
0.754	0.0
0.769	0.0
0.784	0.0
0.799	0.0
0.814	0.0
0.828	0.0
0.843	0.0
0.858	0.0
0.873	0.0
0.888	0.0
0.903	0.0
0.917	1.0
0.932	0.0
0.947	0.0
0.962	0.0
0.977	0.0
0.991	0.0
1.006	0.0
1.021	0.0
1.036	0.0
1.051	0.0
1.065	0.0
1.08	0.0
1.095	0.0
1.11	0.0
1.125	0.0
1.14	0.0
1.154	0.0
1.169	0.0
1.184	0.0
1.199	0.0
1.214	0.0
1.228	0.0
1.243	0.0
1.258	0.0
1.273	0.0
1.288	0.0
1.302	0.0
1.317	0.0
1.332	0.0
1.347	1.0
1.362	0.0
1.376	0.0
1.391	0.0
1.406	1.0
1.421	0.0
1.436	0.0
1.45	0.0
1.465	0.0
1.48	0.0
1.495	0.0
1.51	0.0
1.524	0.0
1.539	0.0
1.554	0.0
1.569	0.0
1.584	0.0
1.598	0.0
1.613	0.0
1.628	0.0
1.643	0.0
1.658	0.0
1.672	0.0
1.687	1.0
1.702	0.0
1.717	0.0
1.732	0.0
1.746	0.0
1.761	0.0
1.776	0.0
1.791	0.0
1.806	1.0
1.82	0.0
1.835	0.0
1.85	0.0
1.865	1.0
1.88	0.0
1.894	0.0
1.909	0.0
1.924	0.0
1.939	0.0
1.954	0.0
1.968	0.0
1.983	0.0
1.998	0.0
2.013	0.0
2.028	0.0
2.042	0.0
2.057	2.0
2.072	0.0
2.087	0.0
2.101	0.0
2.116	0.0
2.131	0.0
2.146	0.0
2.161	1.0
2.175	0.0
2.19	0.0
2.205	0.0
2.22	1.0
2.235	0.0
2.249	1.0
2.264	0.0
2.279	1.0
2.294	0.0
2.308	0.0
2.323	0.0
2.338	2.0
2.353	0.0
2.368	1.0
2.382	0.0
2.397	1.0
2.412	1.0
2.427	2.0
2.442	2.0
2.456	2.0
2.471	0.0
2.486	4.0
2.501	1.0
2.515	3.0
2.53	1.0
2.545	1.0
2.56	3.0
2.575	0.0
2.589	2.0
2.604	0.0
2.619	0.0
2.634	3.0
2.649	1.0
2.663	4.0
2.678	1.0
2.693	3.0
2.708	3.0
2.722	2.0
2.737	4.0
2.752	6.0
2.767	2.0
2.782	5.0
2.796	2.0
2.811	2.0
2.826	0.0
2.841	1.0
2.856	8.0
2.87	2.0
2.885	5.0
2.9	5.0
2.915	2.0
2.93	3.0
2.944	8.0
2.959	2.0
2.974	5.0
2.989	0.0
3.004	4.0
3.018	5.0
3.033	5.0
3.048	3.0
3.063	4.0
3.078	5.0
3.092	5.0
3.107	3.0
3.122	6.0
3.137	3.0
3.152	5.0
3.166	6.0
3.181	2.0
3.196	3.0
3.211	5.0
3.226	4.0
3.24	10.0
3.255	8.0
3.27	3.0
3.285	7.0
3.3	3.0
3.315	5.0
3.329	4.0
3.344	8.0
3.359	1.0
3.374	4.0
3.389	5.0
3.403	3.0
3.418	6.0
3.433	1.0
3.448	4.0
3.463	4.0
3.478	1.0
3.492	8.0
3.507	10.0
3.522	4.0
3.537	6.0
3.552	4.0
3.567	5.0
3.581	8.0
3.596	10.0
3.611	4.0
3.626	5.0
3.641	5.0
3.656	6.0
3.671	8.0
3.685	7.0
3.7	3.0
3.715	3.0
3.73	5.0
3.745	3.0
3.76	4.0
3.775	5.0
3.789	4.0
3.804	4.0
3.819	8.0
3.834	6.0
3.849	1.0
3.864	10.0
3.879	7.0
3.894	5.0
3.908	12.0
3.923	9.0
3.938	4.0
3.953	8.0
3.968	5.0
3.983	6.0
3.998	9.0
4.013	4.0
4.027	6.0
4.042	8.0
4.057	7.0
4.072	6.0
4.087	8.0
4.102	7.0
4.117	5.0
4.132	8.0
4.147	7.0
4.162	3.0
4.176	10.0
4.191	10.0
4.206	7.0
4.221	5.0
4.236	7.0
4.251	10.0
4.266	6.0
4.281	5.0
4.296	5.0
4.311	7.0
4.326	5.0
4.341	11.0
4.356	8.0
4.37	8.0
4.385	7.0
4.4	2.0
4.415	8.0
4.43	9.0
4.445	11.0
4.46	6.0
4.475	2.0
4.49	6.0
4.505	5.0
4.52	10.0
4.535	9.0
4.55	7.0
4.565	5.0
4.58	6.0
4.595	7.0
4.61	9.0
4.625	10.0
4.639	6.0
4.654	7.0
4.669	9.0
4.684	6.0
4.699	9.0
4.714	9.0
4.729	4.0
4.744	4.0
4.759	1.0
4.774	11.0
4.789	12.0
4.804	6.0
4.819	7.0
4.834	6.0
4.849	3.0
4.864	10.0
4.879	7.0
4.894	9.0
4.909	12.0
4.924	5.0
4.939	6.0
4.954	9.0
4.969	10.0
4.984	8.0
4.999	8.0
5.014	11.0
5.029	8.0
5.044	9.0
5.059	12.0
5.074	5.0
5.089	8.0
5.104	8.0
5.119	9.0
5.134	9.0
5.149	8.0
5.164	12.0
5.179	11.0
5.194	9.0
5.209	9.0
5.224	8.0
5.239	10.0
5.254	9.0
5.269	11.0
5.284	8.0
5.299	1.0
5.314	9.0
5.329	7.0
5.344	5.0
5.359	7.0
5.374	8.0
5.389	7.0
5.404	7.0
5.419	9.0
5.434	7.0
5.449	12.0
5.464	7.0
5.479	7.0
5.494	6.0
5.509	10.0
5.524	10.0
5.539	6.0
5.554	4.0
5.569	7.0
5.584	14.0
5.599	7.0
5.614	7.0
5.629	4.0
5.644	8.0
5.659	7.0
5.674	10.0
5.689	12.0
5.704	3.0
5.719	13.0
5.734	7.0
5.749	7.0
5.764	5.0
5.779	5.0
5.794	12.0
5.809	14.0
5.824	12.0
5.839	6.0
5.854	7.0
5.869	8.0
5.884	11.0
5.899	13.0
5.914	6.0
5.929	7.0
5.944	6.0
5.959	8.0
5.974	6.0
5.989	8.0
6.004	6.0
6.019	7.0
6.034	5.0
6.049	7.0
6.064	12.0
6.079	9.0
6.094	6.0
6.109	4.0
6.124	11.0
6.139	12.0
6.154	8.0
6.169	13.0
6.184	7.0
6.199	9.0
6.214	4.0
6.229	6.0
6.244	9.0
6.259	8.0
6.274	3.0
6.289	11.0
6.304	4.0
6.319	9.0
6.334	13.0
6.349	7.0
6.364	6.0
6.379	14.0
6.394	9.0
6.409	6.0
6.424	14.0
6.439	9.0
6.454	11.0
6.469	5.0
6.484	14.0
6.499	11.0
6.514	13.0
6.529	7.0
6.544	7.0
6.559	7.0
6.574	6.0
6.589	8.0
6.604	6.0
6.619	5.0
6.634	10.0
6.649	5.0
6.664	7.0
6.679	8.0
6.694	11.0
6.709	3.0
6.724	12.0
6.739	6.0
6.754	5.0
6.769	10.0
6.784	8.0
6.799	8.0
6.814	5.0
6.829	3.0
6.844	7.0
6.859	6.0
6.873	11.0
6.888	9.0
6.903	15.0
6.918	6.0
6.933	10.0
6.948	5.0
6.963	7.0
6.978	9.0
6.993	9.0
7.008	10.0
7.023	8.0
7.038	8.0
7.053	10.0
7.068	8.0
7.083	5.0
7.098	7.0
7.113	21.0
7.128	8.0
7.143	9.0
7.157	9.0
7.172	8.0
7.187	5.0
7.202	11.0
7.217	8.0
7.232	14.0
7.247	9.0
7.262	10.0
7.277	11.0
7.292	12.0
7.307	10.0
7.322	6.0
7.336	4.0
7.351	10.0
7.366	13.0
7.381	10.0
7.396	6.0
7.411	15.0
7.426	6.0
7.441	9.0
7.456	7.0
7.471	9.0
7.485	8.0
7.5	7.0
7.515	9.0
7.53	3.0
7.545	4.0
7.56	10.0
7.575	6.0
7.59	10.0
7.604	12.0
7.619	5.0
7.634	10.0
7.649	8.0
7.664	12.0
7.679	11.0
7.693	11.0
7.708	8.0
7.723	6.0
7.738	8.0
7.753	16.0
7.768	4.0
7.783	7.0
7.797	7.0
7.812	10.0
7.827	8.0
7.842	9.0
7.857	6.0
7.871	7.0
7.886	11.0
7.901	6.0
7.916	11.0
7.931	13.0
7.945	6.0
7.96	8.0
7.975	10.0
7.99	10.0
8.005	14.0
8.019	4.0
8.034	8.0
8.049	12.0
8.064	9.0
8.078	9.0
8.093	9.0
8.108	6.0
8.123	11.0
8.137	9.0
8.152	10.0
8.167	8.0
8.182	9.0
8.196	11.0
8.211	7.0
8.226	6.0
8.241	5.0
8.255	5.0
8.27	11.0
8.285	8.0
8.3	7.0
8.314	13.0
8.329	8.0
8.344	5.0
8.358	6.0
8.373	13.0
8.388	10.0
8.403	10.0
8.417	10.0
8.432	7.0
8.447	10.0
8.461	11.0
8.476	10.0
8.491	5.0
8.505	19.0
8.52	7.0
8.535	5.0
8.55	7.0
8.564	8.0
8.579	6.0
8.594	5.0
8.608	9.0
8.623	15.0
8.638	11.0
8.652	11.0
8.667	14.0
8.682	8.0
8.696	7.0
8.711	13.0
8.726	10.0
8.74	5.0
8.755	13.0
8.77	7.0
8.784	10.0
8.799	7.0
8.814	8.0
8.828	12.0
8.843	8.0
8.858	5.0
8.872	13.0
8.887	4.0
8.902	11.0
8.916	6.0
8.931	11.0
8.946	8.0
8.96	6.0
8.975	5.0
8.99	14.0
9.004	13.0
9.019	10.0
9.034	7.0
9.048	6.0
9.063	6.0
9.077	4.0
9.092	9.0
9.107	5.0
9.121	14.0
9.136	8.0
9.151	9.0
9.165	5.0
9.18	11.0
9.195	12.0
9.209	10.0
9.224	15.0
9.239	7.0
9.253	7.0
9.268	10.0
9.283	7.0
9.297	8.0
9.312	13.0
9.327	7.0
9.341	7.0
9.356	8.0
9.371	7.0
9.385	5.0
9.4	10.0
9.415	12.0
9.429	9.0
9.444	10.0
9.458	14.0
9.473	9.0
9.488	5.0
9.502	10.0
9.517	4.0
9.532	4.0
9.546	9.0
9.561	10.0
9.576	4.0
9.59	12.0
9.605	8.0
9.62	8.0
9.635	10.0
9.649	11.0
9.664	9.0
9.679	7.0
9.693	6.0
9.708	6.0
9.723	11.0
9.737	12.0
9.752	10.0
9.767	6.0
9.781	13.0
9.796	6.0
9.811	13.0
9.825	8.0
9.84	10.0
9.855	7.0
9.87	9.0
9.884	5.0
9.899	11.0
9.914	8.0
9.928	9.0
9.943	12.0
9.958	4.0
9.973	6.0
9.987	9.0
10.002	9.0
10.017	10.0
10.031	8.0
10.046	6.0
10.061	15.0
10.076	10.0
10.09	7.0
10.105	8.0
10.12	11.0
10.135	13.0
10.149	10.0
10.164	11.0
10.179	5.0
10.194	8.0
10.208	8.0
10.223	7.0
10.238	7.0
10.253	9.0
10.267	5.0
10.282	4.0
10.297	11.0
10.312	10.0
10.326	6.0
10.341	12.0
10.356	8.0
10.371	7.0
10.386	9.0
10.4	10.0
10.415	14.0
10.43	10.0
10.445	10.0
10.46	1.0
10.474	3.0
10.489	6.0
10.504	3.0
10.519	7.0
10.533	10.0
10.548	5.0
10.563	9.0
10.578	8.0
10.593	9.0
10.608	9.0
10.622	14.0
10.637	8.0
10.652	9.0
10.667	8.0
10.682	4.0
10.696	6.0
10.711	8.0
10.726	10.0
10.741	8.0
10.756	4.0
10.771	14.0
10.785	2.0
10.8	8.0
10.815	5.0
10.83	5.0
10.845	8.0
10.86	5.0
10.874	12.0
10.889	5.0
10.904	9.0
10.919	7.0
10.934	7.0
10.949	9.0
10.963	4.0
10.978	9.0
10.993	8.0
11.008	6.0
11.023	12.0
11.038	8.0
11.053	9.0
11.067	8.0
11.082	9.0
11.097	10.0
11.112	10.0
11.127	11.0
11.142	17.0
11.157	7.0
11.172	7.0
11.186	5.0
11.201	6.0
11.216	5.0
11.231	6.0
11.246	4.0
11.261	7.0
11.276	5.0
11.291	7.0
11.305	10.0
11.32	9.0
11.335	11.0
11.35	6.0
11.365	3.0
11.38	9.0
11.395	5.0
11.41	7.0
11.424	5.0
11.439	4.0
11.454	8.0
11.469	12.0
11.484	8.0
11.499	12.0
11.514	7.0
11.529	7.0
11.544	7.0
11.558	6.0
11.573	4.0
11.588	6.0
11.603	9.0
11.618	8.0
11.633	6.0
11.648	12.0
11.663	9.0
11.678	8.0
11.693	7.0
11.707	11.0
11.722	8.0
11.737	4.0
11.752	6.0
11.767	2.0
11.782	8.0
11.797	10.0
11.812	10.0
11.827	11.0
11.842	10.0
11.856	9.0
11.871	13.0
11.886	7.0
11.901	6.0
11.916	10.0
11.931	6.0
11.946	6.0
11.961	5.0
11.976	4.0
11.991	16.0
12.006	5.0
12.02	10.0
12.035	19.0
12.05	8.0
12.065	13.0
12.08	9.0
12.095	14.0
12.11	7.0
12.125	7.0
12.14	15.0
12.155	7.0
12.17	8.0
12.184	6.0
12.199	11.0
12.214	6.0
12.229	10.0
12.244	4.0
12.259	10.0
12.274	8.0
12.289	6.0
12.304	6.0
12.319	15.0
12.334	11.0
12.348	10.0
12.363	10.0
12.378	11.0
12.393	14.0
12.408	10.0
12.423	9.0
12.438	12.0
12.453	14.0
12.468	11.0
12.483	11.0
12.498	10.0
12.513	11.0
12.527	11.0
12.542	2.0
12.557	13.0
12.572	15.0
12.587	17.0
12.602	20.0
12.617	14.0
12.632	5.0
12.647	11.0
12.662	9.0
12.677	17.0
12.692	14.0
12.707	18.0
12.721	21.0
12.736	15.0
12.751	13.0
12.766	7.0
12.781	10.0
12.796	14.0
12.811	10.0
12.826	15.0
12.841	16.0
12.856	17.0
12.871	15.0
12.886	11.0
12.9	14.0
12.915	10.0
12.93	19.0
12.945	19.0
12.96	8.0
12.975	17.0
12.99	8.0
13.005	19.0
13.02	19.0
13.035	20.0
13.05	21.0
13.065	19.0
13.08	10.0
13.094	20.0
13.109	14.0
13.124	14.0
13.139	18.0
13.154	12.0
13.169	16.0
13.184	17.0
13.199	20.0
13.214	19.0
13.229	18.0
13.244	14.0
13.259	17.0
13.274	19.0
13.288	12.0
13.303	14.0
13.318	26.0
13.333	22.0
13.348	24.0
13.363	24.0
13.378	21.0
13.393	27.0
13.408	27.0
13.423	33.0
13.438	31.0
13.453	34.0
13.468	41.0
13.482	28.0
13.497	23.0
13.512	29.0
13.527	34.0
13.542	40.0
13.557	35.0
13.572	61.0
13.587	58.0
13.602	49.0
13.617	63.0
13.632	53.0
13.647	75.0
13.662	75.0
13.677	72.0
13.691	73.0
13.706	86.0
13.721	97.0
13.736	103.0
13.751	100.0
13.766	103.0
13.781	103.0
13.796	129.0
13.811	139.0
13.826	107.0
13.841	129.0
13.856	125.0
13.871	97.0
13.885	95.0
13.9	101.0
13.915	97.0
13.93	74.0
13.945	68.0
13.96	45.0
13.975	39.0
13.99	34.0
14.005	34.0
14.02	43.0
14.035	29.0
14.05	27.0
14.065	21.0
14.08	28.0
14.094	21.0
14.109	24.0
14.124	25.0
14.139	27.0
14.154	25.0
14.169	25.0
14.184	19.0
14.199	22.0
14.214	18.0
14.229	26.0
14.244	16.0
14.259	18.0
14.274	22.0
14.288	23.0
14.303	29.0
14.318	17.0
14.333	22.0
14.348	10.0
14.363	17.0
14.378	14.0
14.393	16.0
14.408	17.0
14.423	9.0
14.438	16.0
14.453	14.0
14.468	14.0
14.482	20.0
14.497	25.0
14.512	15.0
14.527	21.0
14.542	17.0
14.557	13.0
14.572	22.0
14.587	13.0
14.602	19.0
14.617	13.0
14.632	19.0
14.647	10.0
14.661	19.0
14.676	16.0
14.691	11.0
14.706	19.0
14.721	16.0
14.736	15.0
14.751	16.0
14.766	10.0
14.781	9.0
14.796	24.0
14.811	13.0
14.826	18.0
14.84	17.0
14.855	16.0
14.87	17.0
14.885	15.0
14.9	8.0
14.915	12.0
14.93	13.0
14.945	14.0
14.96	18.0
14.975	10.0
14.989	16.0
15.004	17.0
15.019	15.0
15.034	13.0
15.049	13.0
15.064	18.0
15.079	13.0
15.094	20.0
15.109	23.0
15.124	10.0
15.138	12.0
15.153	14.0
15.168	19.0
15.183	17.0
15.198	25.0
15.213	14.0
15.228	13.0
15.243	12.0
15.258	15.0
15.272	13.0
15.287	20.0
15.302	11.0
15.317	8.0
15.332	13.0
15.347	9.0
15.362	15.0
15.377	18.0
15.391	12.0
15.406	18.0
15.421	13.0
15.436	18.0
15.451	13.0
15.466	20.0
15.481	15.0
15.496	13.0
15.51	13.0
15.525	12.0
15.54	10.0
15.555	13.0
15.57	11.0
15.585	17.0
15.6	13.0
15.614	19.0
15.629	8.0
15.644	16.0
15.659	18.0
15.674	11.0
15.689	18.0
15.704	14.0
15.718	17.0
15.733	22.0
15.748	8.0
15.763	16.0
15.778	13.0
15.793	18.0
15.808	13.0
15.822	10.0
15.837	11.0
15.852	18.0
15.867	21.0
15.882	15.0
15.897	19.0
15.911	10.0
15.926	17.0
15.941	18.0
15.956	12.0
15.971	19.0
15.986	11.0
16.0	15.0
16.015	12.0
16.03	15.0
16.045	8.0
16.06	16.0
16.074	12.0
16.089	15.0
16.104	11.0
16.119	11.0
16.134	10.0
16.149	19.0
16.163	7.0
16.178	12.0
16.193	10.0
16.208	16.0
16.223	16.0
16.237	17.0
16.252	14.0
16.267	18.0
16.282	11.0
16.297	10.0
16.311	13.0
16.326	20.0
16.341	15.0
16.356	14.0
16.37	9.0
16.385	7.0
16.4	18.0
16.415	17.0
16.43	13.0
16.444	14.0
16.459	12.0
16.474	19.0
16.489	19.0
16.504	18.0
16.518	26.0
16.533	14.0
16.548	19.0
16.563	18.0
16.577	15.0
16.592	19.0
16.607	17.0
16.622	15.0
16.637	20.0
16.651	22.0
16.666	19.0
16.681	18.0
16.696	27.0
16.71	30.0
16.725	25.0
16.74	30.0
16.755	24.0
16.77	35.0
16.784	37.0
16.799	42.0
16.814	46.0
16.829	38.0
16.843	54.0
16.858	47.0
16.873	52.0
16.888	55.0
16.902	69.0
16.917	64.0
16.932	80.0
16.947	70.0
16.961	79.0
16.976	86.0
16.991	66.0
17.006	59.0
17.021	57.0
17.035	38.0
17.05	51.0
17.065	40.0
17.08	37.0
17.094	32.0
17.109	29.0
17.124	37.0
17.139	31.0
17.153	19.0
17.168	18.0
17.183	15.0
17.198	20.0
17.212	19.0
17.227	12.0
17.242	10.0
17.257	13.0
17.271	11.0
17.286	11.0
17.301	10.0
17.316	11.0
17.33	14.0
17.345	11.0
17.36	16.0
17.375	12.0
17.39	8.0
17.404	11.0
17.419	11.0
17.434	16.0
17.449	12.0
17.463	13.0
17.478	12.0
17.493	14.0
17.508	16.0
17.522	13.0
17.537	13.0
17.552	11.0
17.567	11.0
17.581	12.0
17.596	13.0
17.611	18.0
17.626	10.0
17.641	19.0
17.655	9.0
17.67	13.0
17.685	14.0
17.7	15.0
17.714	17.0
17.729	8.0
17.744	8.0
17.759	8.0
17.773	12.0
17.788	16.0
17.803	10.0
17.818	14.0
17.833	7.0
17.847	3.0
17.862	14.0
17.877	8.0
17.892	11.0
17.906	17.0
17.921	4.0
17.936	11.0
17.951	8.0
17.966	7.0
17.98	5.0
17.995	10.0
18.01	11.0
18.025	10.0
18.04	15.0
18.054	19.0
18.069	15.0
18.084	12.0
18.099	13.0
18.114	12.0
18.128	16.0
18.143	14.0
18.158	20.0
18.173	13.0
18.188	13.0
18.202	11.0
18.217	13.0
18.232	10.0
18.247	9.0
18.262	13.0
18.276	16.0
18.291	13.0
18.306	13.0
18.321	8.0
18.336	12.0
18.35	9.0
18.365	9.0
18.38	12.0
18.395	11.0
18.41	10.0
18.424	10.0
18.439	11.0
18.454	8.0
18.469	17.0
18.484	11.0
18.498	11.0
18.513	11.0
18.528	8.0
18.543	8.0
18.558	10.0
18.573	16.0
18.587	10.0
18.602	11.0
18.617	18.0
18.632	16.0
18.647	18.0
18.661	10.0
18.676	9.0
18.691	10.0
18.706	13.0
18.721	10.0
18.736	12.0
18.75	15.0
18.765	17.0
18.78	13.0
18.795	10.0
18.81	12.0
18.825	16.0
18.839	12.0
18.854	8.0
18.869	7.0
18.884	12.0
18.899	10.0
18.913	12.0
18.928	7.0
18.943	16.0
18.958	9.0
18.973	13.0
18.988	12.0
19.002	10.0
19.017	11.0
19.032	9.0
19.047	14.0
19.062	16.0
19.077	13.0
19.091	14.0
19.106	11.0
19.121	9.0
19.136	17.0
19.151	13.0
19.165	13.0
19.18	19.0
19.195	12.0
19.21	20.0
19.225	11.0
19.24	19.0
19.254	10.0
19.269	16.0
19.284	15.0
19.299	16.0
19.314	10.0
19.329	16.0
19.343	12.0
19.358	13.0
19.373	19.0
19.388	16.0
19.403	16.0
19.417	24.0
19.432	24.0
19.447	15.0
19.462	30.0
19.477	23.0
19.492	22.0
19.506	40.0
19.521	37.0
19.536	28.0
19.551	44.0
19.566	51.0
19.58	46.0
19.595	38.0
19.61	38.0
19.625	51.0
19.64	37.0
19.655	39.0
19.669	25.0
19.684	32.0
19.699	31.0
19.714	28.0
19.729	20.0
19.743	22.0
19.758	26.0
19.773	15.0
19.788	18.0
19.803	16.0
19.817	21.0
19.832	16.0
19.847	12.0
19.862	13.0
19.877	15.0
19.891	15.0
19.906	15.0
19.921	8.0
19.936	13.0
19.951	20.0
19.965	10.0
19.98	12.0
19.995	10.0
20.01	13.0
20.025	15.0
20.039	17.0
20.054	19.0
20.069	19.0
20.084	15.0
20.099	9.0
20.113	8.0
20.128	8.0
20.143	9.0
20.158	9.0
20.173	8.0
20.187	11.0
20.202	11.0
20.217	5.0
20.232	16.0
20.246	8.0
20.261	11.0
20.276	11.0
20.291	10.0
20.306	12.0
20.32	8.0
20.335	6.0
20.35	9.0
20.365	8.0
20.38	10.0
20.394	14.0
20.409	11.0
20.424	14.0
20.439	8.0
20.453	7.0
20.468	12.0
20.483	12.0
20.498	9.0
20.513	13.0
20.527	9.0
20.542	13.0
20.557	9.0
20.572	9.0
20.586	18.0
20.601	10.0
20.616	10.0
20.631	5.0
20.646	5.0
20.66	15.0
20.675	10.0
20.69	15.0
20.705	14.0
20.719	11.0
20.734	7.0
20.749	10.0
20.764	13.0
20.779	21.0
20.793	17.0
20.808	10.0
20.823	9.0
20.838	6.0
20.853	15.0
20.867	9.0
20.882	12.0
20.897	9.0
20.912	12.0
20.926	14.0
20.941	12.0
20.956	8.0
20.971	13.0
20.986	18.0
21.0	7.0
21.015	9.0
21.03	12.0
21.045	9.0
21.06	14.0
21.074	10.0
21.089	15.0
21.104	17.0
21.119	12.0
21.134	13.0
21.148	12.0
21.163	14.0
21.178	9.0
21.193	13.0
21.208	8.0
21.222	13.0
21.237	11.0
21.252	12.0
21.267	9.0
21.282	13.0
21.296	17.0
21.311	15.0
21.326	17.0
21.341	15.0
21.356	8.0
21.37	8.0
21.385	12.0
21.4	13.0
21.415	7.0
21.43	12.0
21.444	11.0
21.459	7.0
21.474	8.0
21.489	17.0
21.504	12.0
21.519	19.0
21.533	19.0
21.548	17.0
21.563	12.0
21.578	15.0
21.593	15.0
21.608	12.0
21.622	11.0
21.637	17.0
21.652	18.0
21.667	19.0
21.682	24.0
21.697	16.0
21.712	27.0
21.726	26.0
21.741	24.0
21.756	27.0
21.771	37.0
21.786	28.0
21.801	38.0
21.816	35.0
21.83	56.0
21.845	48.0
21.86	61.0
21.875	45.0
21.89	64.0
21.905	77.0
21.92	80.0
21.935	76.0
21.949	71.0
21.964	87.0
21.979	72.0
21.994	63.0
22.009	69.0
22.024	49.0
22.039	62.0
22.054	45.0
22.069	60.0
22.083	39.0
22.098	41.0
22.113	31.0
22.128	26.0
22.143	31.0
22.158	24.0
22.173	15.0
22.188	21.0
22.203	23.0
22.218	15.0
22.233	18.0
22.248	12.0
22.262	10.0
22.277	13.0
22.292	9.0
22.307	13.0
22.322	8.0
22.337	12.0
22.352	14.0
22.367	15.0
22.382	9.0
22.397	15.0
22.412	14.0
22.427	16.0
22.442	14.0
22.457	12.0
22.472	16.0
22.487	14.0
22.502	7.0
22.516	12.0
22.531	9.0
22.546	9.0
22.561	12.0
22.576	13.0
22.591	10.0
22.606	6.0
22.621	6.0
22.636	12.0
22.651	15.0
22.666	10.0
22.681	12.0
22.696	16.0
22.711	10.0
22.726	12.0
22.741	13.0
22.756	16.0
22.771	9.0
22.786	12.0
22.801	7.0
22.816	10.0
22.831	9.0
22.846	11.0
22.861	7.0
22.876	10.0
22.891	16.0
22.906	13.0
22.92	10.0
22.935	10.0
22.95	6.0
22.965	7.0
22.98	13.0
22.995	13.0
23.01	5.0
23.025	8.0
23.04	18.0
23.055	7.0
23.07	7.0
23.085	9.0
23.1	14.0
23.115	6.0
23.13	6.0
23.145	6.0
23.16	5.0
23.175	4.0
23.19	8.0
23.205	13.0
23.22	12.0
23.235	8.0
23.25	12.0
23.265	11.0
23.28	14.0
23.295	10.0
23.31	14.0
23.325	9.0
23.34	9.0
23.355	5.0
23.37	7.0
23.384	7.0
23.399	5.0
23.414	11.0
23.429	10.0
23.444	10.0
23.459	10.0
23.474	11.0
23.489	10.0
23.504	17.0
23.519	11.0
23.534	9.0
23.549	7.0
23.564	11.0
23.579	8.0
23.594	5.0
23.609	8.0
23.624	12.0
23.639	6.0
23.654	14.0
23.668	10.0
23.683	11.0
23.698	17.0
23.713	14.0
23.728	11.0
23.743	11.0
23.758	8.0
23.773	15.0
23.788	12.0
23.803	16.0
23.818	16.0
23.833	16.0
23.848	10.0
23.862	24.0
23.877	18.0
23.892	25.0
23.907	22.0
23.922	23.0
23.937	33.0
23.952	23.0
23.967	27.0
23.982	29.0
23.997	48.0
24.011	40.0
24.026	48.0
24.041	58.0
24.056	44.0
24.071	54.0
24.086	40.0
24.101	51.0
24.116	49.0
24.131	40.0
24.145	37.0
24.16	38.0
24.175	39.0
24.19	31.0
24.205	30.0
24.22	31.0
24.235	29.0
24.249	27.0
24.264	29.0
24.279	23.0
24.294	14.0
24.309	21.0
24.324	17.0
24.338	13.0
24.353	24.0
24.368	19.0
24.383	16.0
24.398	7.0
24.413	16.0
24.428	15.0
24.442	4.0
24.457	10.0
24.472	12.0
24.487	5.0
24.502	13.0
24.516	8.0
24.531	18.0
24.546	13.0
24.561	7.0
24.576	10.0
24.591	6.0
24.605	7.0
24.62	10.0
24.635	14.0
24.65	9.0
24.665	12.0
24.679	12.0
24.694	9.0
24.709	10.0
24.724	8.0
24.739	12.0
24.753	5.0
24.768	11.0
24.783	10.0
24.798	13.0
24.813	10.0
24.827	7.0
24.842	6.0
24.857	10.0
24.872	11.0
24.886	10.0
24.901	11.0
24.916	9.0
24.931	6.0
24.946	12.0
24.96	10.0
24.975	9.0
24.99	6.0
25.005	10.0
25.019	8.0
25.034	8.0
25.049	12.0
25.064	14.0
25.078	12.0
25.093	10.0
25.108	11.0
25.123	10.0
25.138	11.0
25.152	11.0
25.167	7.0
25.182	8.0
25.197	10.0
25.211	8.0
25.226	13.0
25.241	14.0
25.256	8.0
25.27	12.0
25.285	11.0
25.3	17.0
25.315	7.0
25.329	13.0
25.344	6.0
25.359	11.0
25.374	16.0
25.388	12.0
25.403	11.0
25.418	9.0
25.433	11.0
25.447	11.0
25.462	7.0
25.477	6.0
25.492	17.0
25.506	10.0
25.521	8.0
25.536	12.0
25.55	11.0
25.565	4.0
25.58	7.0
25.595	6.0
25.609	4.0
25.624	10.0
25.639	6.0
25.654	3.0
25.668	7.0
25.683	16.0
25.698	11.0
25.713	10.0
25.727	16.0
25.742	9.0
25.757	8.0
25.772	12.0
25.786	7.0
25.801	13.0
25.816	7.0
25.83	8.0
25.845	9.0
25.86	9.0
25.875	10.0
25.889	12.0
25.904	8.0
25.919	8.0
25.934	5.0
25.948	13.0
25.963	11.0
25.978	12.0
25.992	10.0
26.007	8.0
26.022	11.0
26.037	8.0
26.051	12.0
26.066	8.0
26.081	6.0
26.096	7.0
26.11	5.0
26.125	11.0
26.14	10.0
26.155	5.0
26.169	14.0
26.184	6.0
26.199	7.0
26.213	12.0
26.228	9.0
26.243	8.0
26.258	11.0
26.272	9.0
26.287	12.0
26.302	11.0
26.317	17.0
26.331	12.0
26.346	12.0
26.361	6.0
26.376	8.0
26.39	11.0
26.405	13.0
26.42	9.0
26.434	10.0
26.449	8.0
26.464	9.0
26.479	11.0
26.493	9.0
26.508	7.0
26.523	17.0
26.538	8.0
26.552	9.0
26.567	5.0
26.582	6.0
26.597	12.0
26.611	8.0
26.626	9.0
26.641	4.0
26.656	11.0
26.67	10.0
26.685	10.0
26.7	10.0
26.715	11.0
26.729	14.0
26.744	13.0
26.759	13.0
26.773	9.0
26.788	8.0
26.803	7.0
26.818	6.0
26.832	10.0
26.847	6.0
26.862	12.0
26.877	13.0
26.891	7.0
26.906	13.0
26.921	14.0
26.936	10.0
26.95	12.0
26.965	15.0
26.98	5.0
26.995	7.0
27.01	12.0
27.024	10.0
27.039	12.0
27.054	5.0
27.069	11.0
27.083	8.0
27.098	8.0
27.113	15.0
27.128	8.0
27.142	13.0
27.157	6.0
27.172	12.0
27.187	10.0
27.201	12.0
27.216	13.0
27.231	12.0
27.246	10.0
27.261	10.0
27.275	13.0
27.29	5.0
27.305	9.0
27.32	12.0
27.334	7.0
27.349	9.0
27.364	12.0
27.379	13.0
27.394	13.0
27.408	7.0
27.423	9.0
27.438	9.0
27.453	11.0
27.467	8.0
27.482	9.0
27.497	7.0
27.512	12.0
27.527	11.0
27.541	12.0
27.556	8.0
27.571	11.0
27.586	13.0
27.601	6.0
27.615	11.0
27.63	13.0
27.645	12.0
27.66	12.0
27.675	16.0
27.689	8.0
27.704	11.0
27.719	11.0
27.734	21.0
27.749	12.0
27.763	13.0
27.778	15.0
27.793	20.0
27.808	23.0
27.823	22.0
27.838	15.0
27.852	27.0
27.867	20.0
27.882	18.0
27.897	28.0
27.912	11.0
27.926	25.0
27.941	25.0
27.956	23.0
27.971	17.0
27.986	25.0
28.001	22.0
28.015	20.0
28.03	16.0
28.045	14.0
28.06	17.0
28.075	15.0
28.09	12.0
28.105	15.0
28.119	8.0
28.134	15.0
28.149	9.0
28.164	10.0
28.179	19.0
28.194	9.0
28.208	10.0
28.223	18.0
28.238	14.0
28.253	12.0
28.268	15.0
28.283	10.0
28.298	9.0
28.312	9.0
28.327	15.0
28.342	5.0
28.357	16.0
28.372	6.0
28.387	6.0
28.402	11.0
28.417	16.0
28.431	14.0
28.446	11.0
28.461	11.0
28.476	9.0
28.491	11.0
28.506	7.0
28.521	13.0
28.536	3.0
28.55	9.0
28.565	9.0
28.58	6.0
28.595	13.0
28.61	10.0
28.625	9.0
28.64	4.0
28.655	7.0
28.669	5.0
28.684	6.0
28.699	11.0
28.714	18.0
28.729	8.0
28.744	13.0
28.759	15.0
28.774	16.0
28.788	12.0
28.803	13.0
28.818	12.0
28.833	10.0
28.848	9.0
28.863	7.0
28.878	8.0
28.893	10.0
28.908	10.0
28.922	17.0
28.937	9.0
28.952	14.0
28.967	12.0
28.982	19.0
28.997	9.0
29.012	11.0
29.027	7.0
29.041	12.0
29.056	10.0
29.071	9.0
29.086	12.0
29.101	12.0
29.116	6.0
29.131	11.0
29.146	12.0
29.16	8.0
29.175	9.0
29.19	8.0
29.205	8.0
29.22	11.0
29.235	8.0
29.25	13.0
29.265	9.0
29.279	13.0
29.294	9.0
29.309	14.0
29.324	11.0
29.339	11.0
29.354	21.0
29.369	9.0
29.384	15.0
29.398	18.0
29.413	10.0
29.428	22.0
29.443	19.0
29.458	17.0
29.473	17.0
29.488	28.0
29.502	35.0
29.517	41.0
29.532	38.0
29.547	39.0
29.562	34.0
29.577	45.0
29.592	60.0
29.606	45.0
29.621	51.0
29.636	52.0
29.651	51.0
29.666	45.0
29.681	36.0
29.695	38.0
29.71	36.0
29.725	41.0
29.74	32.0
29.755	24.0
29.77	33.0
29.784	39.0
29.799	28.0
29.814	35.0
29.829	29.0
29.844	23.0
29.859	25.0
29.873	28.0
29.888	16.0
29.903	14.0
29.918	9.0
29.933	15.0
29.947	10.0
29.962	8.0
29.977	11.0
29.992	8.0
30.007	9.0
30.021	9.0
30.036	23.0
30.051	8.0
30.066	7.0
30.081	11.0
30.095	14.0
30.11	8.0
30.125	11.0
30.14	11.0
30.155	17.0
30.169	15.0
30.184	7.0
30.199	4.0
30.214	10.0
30.228	14.0
30.243	10.0
30.258	12.0
30.273	14.0
30.288	2.0
30.302	7.0
30.317	10.0
30.332	10.0
30.347	9.0
30.361	9.0
30.376	4.0
30.391	10.0
30.406	11.0
30.42	5.0
30.435	8.0
30.45	13.0
30.465	10.0
30.479	13.0
30.494	5.0
30.509	11.0
30.524	6.0
30.538	11.0
30.553	10.0
30.568	9.0
30.583	10.0
30.597	14.0
30.612	6.0
30.627	15.0
30.641	7.0
30.656	7.0
30.671	8.0
30.686	9.0
30.7	9.0
30.715	11.0
30.73	13.0
30.745	12.0
30.759	7.0
30.774	6.0
30.789	11.0
30.803	17.0
30.818	12.0
30.833	6.0
30.848	11.0
30.862	14.0
30.877	3.0
30.892	6.0
30.906	11.0
30.921	14.0
30.936	12.0
30.951	9.0
30.965	12.0
30.98	8.0
30.995	11.0
31.009	10.0
31.024	16.0
31.039	15.0
31.053	10.0
31.068	14.0
31.083	12.0
31.098	11.0
31.112	15.0
31.127	24.0
31.142	22.0
31.156	24.0
31.171	19.0
31.186	23.0
31.2	29.0
31.215	33.0
31.23	30.0
31.245	44.0
31.259	40.0
31.274	33.0
31.289	27.0
31.303	33.0
31.318	31.0
31.333	33.0
31.347	24.0
31.362	25.0
31.377	26.0
31.392	34.0
31.406	21.0
31.421	23.0
31.436	23.0
31.45	22.0
31.465	30.0
31.48	24.0
31.494	16.0
31.509	20.0
31.524	11.0
31.538	15.0
31.553	20.0
31.568	16.0
31.583	15.0
31.597	14.0
31.612	8.0
31.627	9.0
31.641	7.0
31.656	9.0
31.671	11.0
31.685	15.0
31.7	12.0
31.715	14.0
31.729	8.0
31.744	6.0
31.759	8.0
31.774	10.0
31.788	8.0
31.803	11.0
31.818	17.0
31.832	10.0
31.847	9.0
31.862	12.0
31.876	15.0
31.891	7.0
31.906	10.0
31.92	15.0
31.935	13.0
31.95	9.0
31.965	8.0
31.979	17.0
31.994	12.0
32.009	14.0
32.023	10.0
32.038	7.0
32.053	9.0
32.067	11.0
32.082	7.0
32.097	5.0
32.112	6.0
32.126	6.0
32.141	11.0
32.156	12.0
32.17	8.0
32.185	7.0
32.2	8.0
32.214	10.0
32.229	13.0
32.244	13.0
32.259	4.0
32.273	12.0
32.288	14.0
32.303	10.0
32.317	12.0
32.332	13.0
32.347	17.0
32.362	8.0
32.376	7.0
32.391	13.0
32.406	6.0
32.42	4.0
32.435	14.0
32.45	8.0
32.465	13.0
32.479	11.0
32.494	8.0
32.509	9.0
32.523	11.0
32.538	15.0
32.553	10.0
32.568	14.0
32.582	7.0
32.597	11.0
32.612	19.0
32.627	10.0
32.641	7.0
32.656	9.0
32.671	19.0
32.685	12.0
32.7	20.0
32.715	16.0
32.73	18.0
32.744	27.0
32.759	26.0
32.774	29.0
32.788	18.0
32.803	27.0
32.818	23.0
32.833	22.0
32.847	24.0
32.862	31.0
32.877	22.0
32.892	23.0
32.906	21.0
32.921	18.0
32.936	15.0
32.951	22.0
32.965	17.0
32.98	20.0
32.995	11.0
33.009	24.0
33.024	20.0
33.039	19.0
33.054	18.0
33.068	18.0
33.083	14.0
33.098	12.0
33.113	19.0
33.127	13.0
33.142	13.0
33.157	10.0
33.172	12.0
33.186	7.0
33.201	15.0
33.216	12.0
33.231	10.0
33.245	8.0
33.26	9.0
33.275	5.0
33.29	12.0
33.304	6.0
33.319	13.0
33.334	10.0
33.349	8.0
33.363	13.0
33.378	11.0
33.393	14.0
33.408	3.0
33.422	9.0
33.437	12.0
33.452	11.0
33.467	11.0
33.481	10.0
33.496	6.0
33.511	6.0
33.526	5.0
33.54	13.0
33.555	6.0
33.57	17.0
33.585	10.0
33.599	7.0
33.614	12.0
33.629	12.0
33.644	9.0
33.658	7.0
33.673	8.0
33.688	7.0
33.703	8.0
33.718	11.0
33.732	10.0
33.747	8.0
33.762	8.0
33.777	10.0
33.791	11.0
33.806	3.0
33.821	5.0
33.836	10.0
33.85	8.0
33.865	9.0
33.88	3.0
33.895	7.0
33.91	7.0
33.924	6.0
33.939	10.0
33.954	11.0
33.969	12.0
33.983	8.0
33.998	8.0
34.013	10.0
34.028	8.0
34.042	17.0
34.057	9.0
34.072	10.0
34.087	17.0
34.102	10.0
34.116	11.0
34.131	13.0
34.146	5.0
34.161	12.0
34.175	15.0
34.19	5.0
34.205	7.0
34.22	7.0
34.235	9.0
34.249	8.0
34.264	11.0
34.279	10.0
34.294	13.0
34.309	10.0
34.323	10.0
34.338	19.0
34.353	9.0
34.368	21.0
34.382	8.0
34.397	11.0
34.412	8.0
34.427	8.0
34.442	13.0
34.456	11.0
34.471	18.0
34.486	9.0
34.501	11.0
34.516	14.0
34.53	10.0
34.545	11.0
34.56	6.0
34.575	17.0
34.59	12.0
34.604	13.0
34.619	7.0
34.634	10.0
34.649	8.0
34.664	10.0
34.678	10.0
34.693	11.0
34.708	7.0
34.723	8.0
34.738	4.0
34.752	9.0
34.767	13.0
34.782	10.0
34.797	9.0
34.812	17.0
34.826	9.0
34.841	10.0
34.856	9.0
34.871	8.0
34.886	7.0
34.9	6.0
34.915	10.0
34.93	13.0
34.945	10.0
34.96	6.0
34.974	4.0
34.989	6.0
35.004	15.0
35.019	8.0
35.034	4.0
35.048	8.0
35.063	11.0
35.078	7.0
35.093	9.0
35.108	10.0
35.122	10.0
35.137	4.0
35.152	6.0
35.167	4.0
35.182	8.0
35.196	8.0
35.211	10.0
35.226	6.0
35.241	13.0
35.256	8.0
35.27	10.0
35.285	4.0
35.3	13.0
35.315	8.0
35.33	5.0
35.344	10.0
35.359	12.0
35.374	9.0
35.389	6.0
35.404	9.0
35.418	9.0
35.433	6.0
35.448	7.0
35.463	9.0
35.478	12.0
35.493	4.0
35.507	8.0
35.522	12.0
35.537	5.0
35.552	9.0
35.567	6.0
35.581	4.0
35.596	14.0
35.611	7.0
35.626	13.0
35.641	10.0
35.655	10.0
35.67	15.0
35.685	11.0
35.7	19.0
35.715	12.0
35.729	20.0
35.744	13.0
35.759	28.0
35.774	14.0
35.789	21.0
35.804	14.0
35.818	19.0
35.833	18.0
35.848	18.0
35.863	12.0
35.878	21.0
35.892	25.0
35.907	11.0
35.922	7.0
35.937	13.0
35.952	12.0
35.966	21.0
35.981	14.0
35.996	15.0
36.011	18.0
36.026	9.0
36.04	11.0
36.055	15.0
36.07	10.0
36.085	10.0
36.1	13.0
36.114	5.0
36.129	7.0
36.144	8.0
36.159	10.0
36.174	6.0
36.189	9.0
36.203	8.0
36.218	18.0
36.233	12.0
36.248	8.0
36.263	9.0
36.277	10.0
36.292	4.0
36.307	11.0
36.322	7.0
36.337	7.0
36.351	6.0
36.366	6.0
36.381	8.0
36.396	7.0
36.411	6.0
36.426	7.0
36.44	8.0
36.455	11.0
36.47	4.0
36.485	12.0
36.5	10.0
36.514	6.0
36.529	6.0
36.544	8.0
36.559	9.0
36.574	7.0
36.589	8.0
36.603	6.0
36.618	12.0
36.633	9.0
36.648	7.0
36.663	4.0
36.677	6.0
36.692	5.0
36.707	6.0
36.722	7.0
36.737	9.0
36.752	3.0
36.766	7.0
36.781	9.0
36.796	6.0
36.811	8.0
36.826	12.0
36.841	7.0
36.855	4.0
36.87	9.0
36.885	12.0
36.9	13.0
36.915	11.0
36.93	9.0
36.944	7.0
36.959	12.0
36.974	14.0
36.989	8.0
37.004	11.0
37.019	10.0
37.033	19.0
37.048	12.0
37.063	18.0
37.078	26.0
37.093	17.0
37.108	24.0
37.123	16.0
37.137	32.0
37.152	23.0
37.167	22.0
37.182	43.0
37.197	18.0
37.212	26.0
37.226	21.0
37.241	20.0
37.256	16.0
37.271	22.0
37.286	21.0
37.301	17.0
37.316	12.0
37.331	15.0
37.345	11.0
37.36	19.0
37.375	15.0
37.39	20.0
37.405	16.0
37.42	18.0
37.435	15.0
37.45	16.0
37.464	17.0
37.479	15.0
37.494	14.0
37.509	12.0
37.524	4.0
37.539	13.0
37.554	8.0
37.569	9.0
37.583	2.0
37.598	8.0
37.613	9.0
37.628	7.0
37.643	10.0
37.658	7.0
37.673	11.0
37.688	4.0
37.703	14.0
37.718	6.0
37.733	6.0
37.747	5.0
37.762	12.0
37.777	6.0
37.792	8.0
37.807	6.0
37.822	7.0
37.837	8.0
37.852	6.0
37.867	7.0
37.882	7.0
37.897	8.0
37.912	7.0
37.927	5.0
37.941	7.0
37.956	10.0
37.971	4.0
37.986	4.0
38.001	6.0
38.016	7.0
38.031	10.0
38.046	2.0
38.061	6.0
38.076	7.0
38.091	5.0
38.106	8.0
38.121	4.0
38.136	3.0
38.151	4.0
38.166	6.0
38.181	3.0
38.196	5.0
38.211	8.0
38.226	6.0
38.241	7.0
38.256	4.0
38.271	3.0
38.285	5.0
38.3	6.0
38.315	4.0
38.33	13.0
38.345	7.0
38.36	8.0
38.375	2.0
38.39	8.0
38.405	7.0
38.42	6.0
38.435	7.0
38.45	5.0
38.465	9.0
38.48	4.0
38.495	5.0
38.51	7.0
38.525	5.0
38.54	8.0
38.555	6.0
38.57	7.0
38.585	6.0
38.6	9.0
38.615	11.0
38.63	7.0
38.645	9.0
38.66	7.0
38.675	6.0
38.69	6.0
38.705	4.0
38.72	7.0
38.735	7.0
38.75	8.0
38.765	5.0
38.78	1.0
38.795	8.0
38.81	6.0
38.825	4.0
38.84	7.0
38.855	8.0
38.87	6.0
38.885	4.0
38.9	2.0
38.915	3.0
38.93	4.0
38.945	4.0
38.96	6.0
38.975	5.0
38.99	3.0
39.005	4.0
39.02	7.0
39.035	3.0
39.05	3.0
39.065	4.0
39.08	6.0
39.095	14.0
39.11	8.0
39.125	6.0
39.14	4.0
39.155	6.0
39.17	4.0
39.185	3.0
39.2	2.0
39.215	4.0
39.23	8.0
39.245	8.0
39.26	6.0
39.275	9.0
39.29	8.0
39.305	7.0
39.32	5.0
39.335	5.0
39.35	6.0
39.365	7.0
39.38	7.0
39.395	9.0
39.409	4.0
39.424	7.0
39.439	2.0
39.454	7.0
39.469	5.0
39.484	4.0
39.499	5.0
39.514	10.0
39.529	5.0
39.544	2.0
39.559	4.0
39.574	8.0
39.589	7.0
39.604	4.0
39.619	10.0
39.634	8.0
39.649	6.0
39.664	4.0
39.678	4.0
39.693	5.0
39.708	1.0
39.723	7.0
39.738	8.0
39.753	1.0
39.768	9.0
39.783	3.0
39.798	14.0
39.813	7.0
39.827	8.0
39.842	12.0
39.857	11.0
39.872	11.0
39.887	8.0
39.902	11.0
39.917	9.0
39.932	13.0
39.947	4.0
39.961	4.0
39.976	5.0
39.991	10.0
40.006	8.0
40.021	10.0
40.036	10.0
40.051	7.0
40.065	10.0
40.08	5.0
40.095	4.0
40.11	5.0
40.125	7.0
40.14	10.0
40.154	3.0
40.169	2.0
40.184	4.0
40.199	4.0
40.214	4.0
40.228	1.0
40.243	6.0
40.258	3.0
40.273	10.0
40.288	3.0
40.302	8.0
40.317	9.0
40.332	7.0
40.347	2.0
40.362	5.0
40.376	9.0
40.391	4.0
40.406	3.0
40.421	6.0
40.436	2.0
40.45	0.0
40.465	10.0
40.48	3.0
40.495	6.0
40.509	9.0
40.524	4.0
40.539	7.0
40.554	9.0
40.568	5.0
40.583	3.0
40.598	8.0
40.613	8.0
40.627	5.0
40.642	1.0
40.657	4.0
40.672	5.0
40.686	4.0
40.701	8.0
40.716	11.0
40.731	8.0
40.745	9.0
40.76	7.0
40.775	6.0
40.79	5.0
40.804	8.0
40.819	9.0
40.834	5.0
40.849	6.0
40.863	4.0
40.878	1.0
40.893	10.0
40.907	10.0
40.922	13.0
40.937	7.0
40.952	1.0
40.966	6.0
40.981	6.0
40.996	5.0
41.011	13.0
41.025	8.0
41.04	11.0
41.055	10.0
41.069	15.0
41.084	14.0
41.099	20.0
41.114	21.0
41.128	23.0
41.143	18.0
41.158	27.0
41.173	16.0
41.187	18.0
41.202	11.0
41.217	19.0
41.231	18.0
41.246	10.0
41.261	16.0
41.276	10.0
41.29	5.0
41.305	9.0
41.32	7.0
41.335	16.0
41.349	15.0
41.364	10.0
41.379	13.0
41.393	7.0
41.408	12.0
41.423	14.0
41.438	12.0
41.452	13.0
41.467	6.0
41.482	8.0
41.497	5.0
41.511	6.0
41.526	12.0
41.541	10.0
41.556	5.0
41.57	5.0
41.585	5.0
41.6	7.0
41.615	6.0
41.629	6.0
41.644	2.0
41.659	4.0
41.674	11.0
41.688	6.0
41.703	4.0
41.718	6.0
41.733	7.0
41.747	4.0
41.762	6.0
41.777	4.0
41.792	7.0
41.806	4.0
41.821	5.0
41.836	4.0
41.851	5.0
41.866	6.0
41.88	5.0
41.895	4.0
41.91	6.0
41.925	4.0
41.939	6.0
41.954	6.0
41.969	5.0
41.984	7.0
41.999	8.0
42.013	4.0
42.028	7.0
42.043	6.0
42.058	3.0
42.073	7.0
42.088	4.0
42.102	8.0
42.117	4.0
42.132	4.0
42.147	8.0
42.162	5.0
42.176	10.0
42.191	6.0
42.206	5.0
42.221	7.0
42.236	4.0
42.251	8.0
42.266	10.0
42.28	4.0
42.295	9.0
42.31	8.0
42.325	18.0
42.34	17.0
42.355	13.0
42.369	17.0
42.384	18.0
42.399	14.0
42.414	14.0
42.429	24.0
42.444	10.0
42.459	13.0
42.474	8.0
42.488	12.0
42.503	11.0
42.518	7.0
42.533	11.0
42.548	12.0
42.563	9.0
42.578	14.0
42.593	6.0
42.608	11.0
42.622	10.0
42.637	13.0
42.652	10.0
42.667	14.0
42.682	10.0
42.697	17.0
42.712	5.0
42.727	11.0
42.742	7.0
42.757	8.0
42.772	10.0
42.786	6.0
42.801	4.0
42.816	7.0
42.831	5.0
42.846	4.0
42.861	7.0
42.876	8.0
42.891	3.0
42.906	5.0
42.921	3.0
42.936	5.0
42.951	2.0
42.966	1.0
42.981	8.0
42.996	2.0
43.011	3.0
43.025	3.0
43.04	3.0
43.055	7.0
43.07	4.0
43.085	4.0
43.1	3.0
43.115	7.0
43.13	5.0
43.145	4.0
43.16	3.0
43.175	4.0
43.19	6.0
43.205	7.0
43.22	4.0
43.235	7.0
43.25	8.0
43.265	4.0
43.28	2.0
43.295	2.0
43.31	2.0
43.325	3.0
43.34	11.0
43.355	4.0
43.37	9.0
43.385	5.0
43.4	3.0
43.415	9.0
43.43	12.0
43.445	4.0
43.46	8.0
43.475	5.0
43.49	5.0
43.505	7.0
43.52	3.0
43.535	2.0
43.55	4.0
43.565	10.0
43.58	4.0
43.595	10.0
43.61	11.0
43.625	3.0
43.64	12.0
43.655	14.0
43.67	8.0
43.685	8.0
43.7	10.0
43.715	10.0
43.73	7.0
43.745	5.0
43.76	2.0
43.775	9.0
43.79	6.0
43.805	10.0
43.82	8.0
43.835	5.0
43.85	6.0
43.865	6.0
43.88	6.0
43.895	4.0
43.91	11.0
43.925	5.0
43.94	9.0
43.955	10.0
43.97	2.0
43.985	10.0
44.0	7.0
44.015	3.0
44.03	3.0
44.045	10.0
44.061	5.0
44.076	4.0
44.091	5.0
44.106	6.0
44.121	4.0
44.136	4.0
44.151	5.0
44.166	5.0
44.181	5.0
44.196	5.0
44.211	7.0
44.226	7.0
44.241	6.0
44.256	3.0
44.271	2.0
44.286	6.0
44.301	6.0
44.316	5.0
44.331	6.0
44.346	6.0
44.361	6.0
44.377	5.0
44.392	4.0
44.407	6.0
44.422	5.0
44.437	6.0
44.452	6.0
44.467	5.0
44.482	3.0
44.497	5.0
44.512	4.0
44.527	8.0
44.542	5.0
44.557	4.0
44.572	8.0
44.587	1.0
44.602	4.0
44.617	7.0
44.632	4.0
44.647	3.0
44.663	8.0
44.678	9.0
44.693	8.0
44.708	7.0
44.723	4.0
44.738	10.0
44.753	4.0
44.768	9.0
44.783	7.0
44.798	13.0
44.813	11.0
44.828	13.0
44.843	9.0
44.858	13.0
44.873	13.0
44.888	7.0
44.903	9.0
44.918	7.0
44.933	7.0
44.948	6.0
44.964	13.0
44.979	4.0
44.994	9.0
45.009	10.0
45.024	10.0
45.039	12.0
45.054	5.0
45.069	7.0
45.084	11.0
45.099	12.0
45.114	8.0
45.129	7.0
45.144	3.0
45.159	4.0
45.174	5.0
45.189	8.0
45.204	7.0
45.219	10.0
45.234	3.0
45.249	6.0
45.264	3.0
45.279	4.0
45.294	9.0
45.309	5.0
45.324	7.0
45.339	7.0
45.354	2.0
45.369	4.0
45.384	6.0
45.399	5.0
45.414	4.0
45.429	6.0
45.444	4.0
45.459	6.0
45.474	2.0
45.489	5.0
45.504	7.0
45.519	5.0
45.534	8.0
45.549	4.0
45.564	4.0
45.579	5.0
45.594	5.0
45.609	4.0
45.624	4.0
45.639	6.0
45.654	0.0
45.669	6.0
45.684	3.0
45.699	4.0
45.714	6.0
45.729	5.0
45.744	7.0
45.759	9.0
45.774	5.0
45.789	4.0
45.804	6.0
45.819	7.0
45.834	9.0
45.849	3.0
45.864	9.0
45.879	11.0
45.894	12.0
45.909	9.0
45.924	12.0
45.939	26.0
45.954	10.0
45.969	8.0
45.984	10.0
45.998	12.0
46.013	19.0
46.028	15.0
46.043	7.0
46.058	8.0
46.073	21.0
46.088	11.0
46.103	3.0
46.118	3.0
46.133	5.0
46.148	5.0
46.163	6.0
46.178	14.0
46.192	7.0
46.207	11.0
46.222	11.0
46.237	18.0
46.252	9.0
46.267	16.0
46.282	14.0
46.297	12.0
46.312	6.0
46.327	6.0
46.341	4.0
46.356	7.0
46.371	6.0
46.386	3.0
46.401	5.0
46.416	6.0
46.431	7.0
46.446	7.0
46.46	2.0
46.475	6.0
46.49	4.0
46.505	3.0
46.52	7.0
46.535	6.0
46.55	6.0
46.564	6.0
46.579	4.0
46.594	8.0
46.609	3.0
46.624	6.0
46.639	3.0
46.654	3.0
46.668	5.0
46.683	7.0
46.698	6.0
46.713	3.0
46.728	3.0
46.743	7.0
46.758	2.0
46.772	6.0
46.787	1.0
46.802	1.0
46.817	5.0
46.832	5.0
46.847	6.0
46.861	5.0
46.876	0.0
46.891	3.0
46.906	5.0
46.921	4.0
46.936	5.0
46.95	6.0
46.965	9.0
46.98	6.0
46.995	5.0
47.01	7.0
47.025	3.0
47.039	5.0
47.054	7.0
47.069	5.0
47.084	10.0
47.099	11.0
47.113	11.0
47.128	10.0
47.143	12.0
47.158	13.0
47.173	13.0
47.188	6.0
47.202	10.0
47.217	9.0
47.232	5.0
47.247	3.0
47.262	7.0
47.277	6.0
47.291	5.0
47.306	4.0
47.321	7.0
47.336	7.0
47.351	8.0
47.365	7.0
47.38	9.0
47.395	6.0
47.41	13.0
47.425	10.0
47.44	7.0
47.454	6.0
47.469	10.0
47.484	6.0
47.499	8.0
47.514	6.0
47.528	2.0
47.543	3.0
47.558	3.0
47.573	1.0
47.588	4.0
47.603	7.0
47.617	5.0
47.632	6.0
47.647	9.0
47.662	2.0
47.677	3.0
47.691	5.0
47.706	4.0
47.721	6.0
47.736	3.0
47.751	2.0
47.766	5.0
47.78	8.0
47.795	6.0
47.81	4.0
47.825	8.0
47.84	2.0
47.855	4.0
47.869	3.0
47.884	3.0
47.899	6.0
47.914	2.0
47.929	2.0
47.944	5.0
47.958	10.0
47.973	1.0
47.988	8.0
48.003	4.0
48.018	3.0
48.033	4.0
48.047	3.0
48.062	3.0
48.077	5.0
48.092	6.0
48.107	6.0
48.122	3.0
48.137	1.0
48.151	6.0
48.166	6.0
48.181	4.0
48.196	5.0
48.211	2.0
48.226	3.0
48.241	3.0
48.255	3.0
48.27	3.0
48.285	3.0
48.3	3.0
48.315	7.0
48.33	9.0
48.345	7.0
48.359	7.0
48.374	7.0
48.389	6.0
48.404	4.0
48.419	5.0
48.434	8.0
48.449	8.0
48.464	3.0
48.478	2.0
48.493	10.0
48.508	7.0
48.523	4.0
48.538	4.0
48.553	5.0
48.568	2.0
48.583	5.0
48.597	4.0
48.612	7.0
48.627	3.0
48.642	9.0
48.657	2.0
48.672	4.0
48.687	8.0
48.702	3.0
48.717	8.0
48.731	3.0
48.746	4.0
48.761	5.0
48.776	4.0
48.791	3.0
48.806	10.0
48.821	6.0
48.836	6.0
48.851	7.0
48.866	3.0
48.88	4.0
48.895	3.0
48.91	7.0
48.925	4.0
48.94	5.0
48.955	5.0
48.97	3.0
48.985	5.0
49.0	2.0
49.015	3.0
49.03	3.0
49.044	4.0
49.059	7.0
49.074	7.0
49.089	8.0
49.104	1.0
49.119	7.0
49.134	7.0
49.149	6.0
49.164	6.0
49.179	1.0
49.194	2.0
49.209	5.0
49.224	5.0
49.238	4.0
49.253	5.0
49.268	4.0
49.283	5.0
49.298	3.0
49.313	3.0
49.328	4.0
49.343	5.0
49.358	9.0
49.373	4.0
49.388	12.0
49.403	8.0
49.418	5.0
49.433	7.0
49.448	6.0
49.463	6.0
49.478	3.0
49.492	5.0
49.507	4.0
49.522	4.0
49.537	8.0
49.552	4.0
49.567	4.0
49.582	6.0
49.597	9.0
49.612	5.0
49.627	7.0
49.642	5.0
49.657	4.0
49.672	9.0
49.687	6.0
49.702	5.0
49.717	6.0
49.732	5.0
49.747	4.0
49.762	1.0
49.777	5.0
49.792	1.0
49.807	6.0
49.822	7.0
49.837	4.0
49.852	2.0
49.867	3.0
49.882	5.0
49.897	4.0
49.912	5.0
49.927	5.0
49.942	10.0
49.957	5.0
49.971	2.0
49.986	3.0
50.001	6.0
50.016	7.0
50.031	3.0
50.046	3.0
50.061	11.0
50.076	5.0
50.091	1.0
50.106	3.0
50.121	4.0
50.136	7.0
50.151	6.0
50.166	5.0
50.181	4.0
50.196	3.0
50.211	2.0
50.226	5.0
50.241	6.0
50.256	2.0
50.271	4.0
50.286	4.0
50.302	4.0
50.317	4.0
50.332	5.0
50.347	6.0
50.362	4.0
50.377	10.0
50.392	7.0
50.407	6.0
50.422	9.0
50.437	5.0
50.452	10.0
50.467	12.0
50.482	4.0
50.497	5.0
50.512	6.0
50.527	3.0
50.542	5.0
50.557	4.0
50.572	5.0
50.587	5.0
50.602	4.0
50.617	5.0
50.632	4.0
50.647	6.0
50.662	0.0
50.677	3.0
50.692	8.0
50.707	7.0
50.722	8.0
50.737	6.0
50.752	4.0
50.767	4.0
50.782	14.0
50.797	8.0
50.812	6.0
50.828	7.0
50.843	6.0
50.858	5.0
50.873	4.0
50.888	3.0
50.903	8.0
50.918	3.0
50.933	4.0
50.948	5.0
50.963	6.0
50.978	3.0
50.993	4.0
51.008	6.0
51.023	8.0
51.038	5.0
51.053	6.0
51.068	6.0
51.083	3.0
51.098	4.0
51.114	6.0
51.129	6.0
51.144	2.0
51.159	4.0
51.174	4.0
51.189	5.0
51.204	9.0
51.219	9.0
51.234	4.0
51.249	12.0
51.264	3.0
51.279	2.0
51.294	7.0
51.309	4.0
51.324	7.0
51.34	7.0
51.355	7.0
51.37	9.0
51.385	9.0
51.4	7.0
51.415	13.0
51.43	6.0
51.445	5.0
51.46	11.0
51.475	19.0
51.49	8.0
51.505	14.0
51.52	17.0
51.535	17.0
51.551	13.0
51.566	15.0
51.581	12.0
51.596	11.0
51.611	8.0
51.626	12.0
51.641	8.0
51.656	9.0
51.671	2.0
51.686	7.0
51.701	5.0
51.716	3.0
51.732	5.0
51.747	10.0
51.762	6.0
51.777	5.0
51.792	4.0
51.807	7.0
51.822	12.0
51.837	9.0
51.852	8.0
51.867	10.0
51.882	10.0
51.898	7.0
51.913	10.0
51.928	6.0
51.943	7.0
51.958	6.0
51.973	8.0
51.988	4.0
52.003	8.0
52.018	10.0
52.033	8.0
52.048	8.0
52.064	2.0
52.079	4.0
52.094	3.0
52.109	4.0
52.124	11.0
52.139	2.0
52.154	10.0
52.169	4.0
52.184	2.0
52.199	5.0
52.215	2.0
52.23	1.0
52.245	6.0
52.26	3.0
52.275	5.0
52.29	8.0
52.305	11.0
52.32	5.0
52.335	5.0
52.35	6.0
52.366	5.0
52.381	2.0
52.396	6.0
52.411	5.0
52.426	3.0
52.441	3.0
52.456	6.0
52.471	9.0
52.486	8.0
52.502	10.0
52.517	5.0
52.532	7.0
52.547	8.0
52.562	13.0
52.577	17.0
52.592	7.0
52.607	9.0
52.622	8.0
52.637	8.0
52.653	10.0
52.668	10.0
52.683	5.0
52.698	5.0
52.713	4.0
52.728	5.0
52.743	5.0
52.758	4.0
52.774	4.0
52.789	9.0
52.804	10.0
52.819	7.0
52.834	11.0
52.849	8.0
52.864	3.0
52.879	3.0
52.894	7.0
52.91	6.0
52.925	7.0
52.94	10.0
52.955	7.0
52.97	9.0
52.985	3.0
53.0	10.0
53.015	7.0
53.031	7.0
53.046	6.0
53.061	8.0
53.076	4.0
53.091	8.0
53.106	1.0
53.121	4.0
53.136	4.0
53.152	5.0
53.167	7.0
53.182	3.0
53.197	2.0
53.212	8.0
53.227	3.0
53.242	7.0
53.257	4.0
53.273	2.0
53.288	1.0
53.303	6.0
53.318	5.0
53.333	7.0
53.348	4.0
53.363	9.0
53.379	8.0
53.394	4.0
53.409	4.0
53.424	9.0
53.439	6.0
53.454	4.0
53.469	3.0
53.484	6.0
53.5	1.0
53.515	6.0
53.53	4.0
53.545	1.0
53.56	1.0
53.575	1.0
53.59	2.0
53.606	3.0
53.621	5.0
53.636	8.0
53.651	3.0
53.666	2.0
53.681	5.0
53.696	2.0
53.712	5.0
53.727	3.0
53.742	8.0
53.757	4.0
53.772	5.0
53.787	2.0
53.802	2.0
53.818	2.0
53.833	5.0
53.848	3.0
53.863	8.0
53.878	3.0
53.893	2.0
53.909	4.0
53.924	3.0
53.939	3.0
53.954	8.0
53.969	8.0
53.984	2.0
53.999	2.0
54.015	5.0
54.03	4.0
54.045	6.0
54.06	3.0
54.075	2.0
54.09	5.0
54.106	5.0
54.121	7.0
54.136	1.0
54.151	4.0
54.166	1.0
54.181	5.0
54.197	7.0
54.212	2.0
54.227	10.0
54.242	4.0
54.257	6.0
54.272	4.0
54.288	4.0
54.303	1.0
54.318	4.0
54.333	4.0
54.348	5.0
54.363	5.0
54.379	1.0
54.394	3.0
54.409	3.0
54.424	4.0
54.439	7.0
54.454	1.0
54.47	3.0
54.485	5.0
54.5	6.0
54.515	3.0
54.53	5.0
54.545	8.0
54.561	7.0
54.576	8.0
54.591	7.0
54.606	5.0
54.621	12.0
54.636	15.0
54.652	12.0
54.667	11.0
54.682	15.0
54.697	9.0
54.712	13.0
54.727	10.0
54.743	8.0
54.758	7.0
54.773	5.0
54.788	7.0
54.803	3.0
54.819	6.0
54.834	5.0
54.849	4.0
54.864	8.0
54.879	8.0
54.894	5.0
54.91	4.0
54.925	4.0
54.94	6.0
54.955	7.0
54.97	12.0
54.985	8.0
55.001	12.0
55.016	10.0
55.031	5.0
55.046	7.0
55.061	8.0
55.077	3.0
55.092	5.0
55.107	6.0
55.122	5.0
55.137	6.0
55.152	5.0
55.168	4.0
55.183	1.0
55.198	3.0
55.213	2.0
55.228	10.0
55.243	6.0
55.259	7.0
55.274	4.0
55.289	8.0
55.304	3.0
55.319	2.0
55.335	2.0
55.35	4.0
55.365	7.0
55.38	3.0
55.395	5.0
55.41	6.0
55.426	4.0
55.441	2.0
55.456	1.0
55.471	2.0
55.486	9.0
55.501	4.0
55.517	5.0
55.532	10.0
55.547	2.0
55.562	6.0
55.577	4.0
55.592	5.0
55.608	4.0
55.623	5.0
55.638	6.0
55.653	3.0
55.668	10.0
55.683	8.0
55.699	9.0
55.714	10.0
55.729	7.0
55.744	7.0
55.759	4.0
55.774	4.0
55.79	2.0
55.805	3.0
55.82	7.0
55.835	3.0
55.85	6.0
55.865	8.0
55.881	6.0
55.896	7.0
55.911	7.0
55.926	4.0
55.941	8.0
55.956	4.0
55.972	6.0
55.987	4.0
56.002	9.0
56.017	7.0
56.032	7.0
56.047	6.0
56.063	4.0
56.078	2.0
56.093	3.0
56.108	10.0
56.123	7.0
56.138	5.0
56.154	6.0
56.169	3.0
56.184	5.0
56.199	6.0
56.214	6.0
56.229	2.0
56.244	4.0
56.26	4.0
56.275	1.0
56.29	8.0
56.305	4.0
56.32	6.0
56.335	4.0
56.351	7.0
56.366	7.0
56.381	3.0
56.396	4.0
56.411	3.0
56.426	4.0
56.441	7.0
56.457	3.0
56.472	0.0
56.487	3.0
56.502	4.0
56.517	9.0
56.532	3.0
56.547	7.0
56.563	2.0
56.578	5.0
56.593	4.0
56.608	0.0
56.623	1.0
56.638	4.0
56.653	3.0
56.668	1.0
56.684	5.0
56.699	5.0
56.714	2.0
56.729	3.0
56.744	2.0
56.759	6.0
56.774	4.0
56.79	2.0
56.805	6.0
56.82	3.0
56.835	5.0
56.85	2.0
56.865	3.0
56.88	4.0
56.895	1.0
56.911	3.0
56.926	6.0
56.941	4.0
56.956	2.0
56.971	2.0
56.986	1.0
57.001	4.0
57.016	1.0
57.031	5.0
57.047	3.0
57.062	3.0
57.077	4.0
57.092	2.0
57.107	4.0
57.122	8.0
57.137	4.0
57.152	2.0
57.167	2.0
57.183	8.0
57.198	6.0
57.213	3.0
57.228	2.0
57.243	5.0
57.258	6.0
57.273	8.0
57.288	6.0
57.303	3.0
57.318	2.0
57.334	3.0
57.349	3.0
57.364	2.0
57.379	8.0
57.394	5.0
57.409	6.0
57.424	5.0
57.439	6.0
57.454	5.0
57.469	4.0
57.484	2.0
57.5	5.0
57.515	7.0
57.53	5.0
57.545	4.0
57.56	7.0
57.575	3.0
57.59	3.0
57.605	8.0
57.62	4.0
57.635	7.0
57.65	5.0
57.665	5.0
57.68	6.0
57.696	3.0
57.711	3.0
57.726	4.0
57.741	3.0
57.756	4.0
57.771	5.0
57.786	3.0
57.801	3.0
57.816	3.0
57.831	4.0
57.846	3.0
57.861	7.0
57.876	5.0
57.891	1.0
57.906	6.0
57.921	1.0
57.937	7.0
57.952	9.0
57.967	4.0
57.982	9.0
57.997	8.0
58.012	7.0
58.027	5.0
58.042	7.0
58.057	3.0
58.072	6.0
58.087	6.0
58.102	5.0
58.117	9.0
58.132	8.0
58.147	4.0
58.162	7.0
58.177	7.0
58.192	1.0
58.207	4.0
58.222	7.0
58.237	2.0
58.252	1.0
58.267	5.0
58.282	4.0
58.297	2.0
58.312	4.0
58.327	3.0
58.342	4.0
58.357	6.0
58.372	4.0
58.387	5.0
58.402	2.0
58.418	2.0
58.433	2.0
58.448	7.0
58.463	5.0
58.478	7.0
58.493	3.0
58.508	9.0
58.523	3.0
58.538	4.0
58.553	6.0
58.568	9.0
58.583	2.0
58.598	6.0
58.613	3.0
58.628	6.0
58.643	12.0
58.658	8.0
58.673	8.0
58.688	6.0
58.703	7.0
58.718	4.0
58.733	3.0
58.748	5.0
58.763	7.0
58.778	6.0
58.793	6.0
58.808	3.0
58.823	3.0
58.838	3.0
58.853	2.0
58.868	2.0
58.883	6.0
58.898	1.0
58.913	6.0
58.928	4.0
58.942	4.0
58.957	5.0
58.972	7.0
58.987	7.0
59.002	8.0
59.017	8.0
59.032	10.0
59.047	7.0
59.062	8.0
59.077	5.0
59.092	3.0
59.107	2.0
59.122	6.0
59.137	4.0
59.152	3.0
59.167	4.0
59.182	6.0
59.197	9.0
59.212	1.0
59.227	3.0
59.242	3.0
59.257	8.0
59.272	4.0
59.287	3.0
59.302	4.0
59.317	4.0
59.332	3.0
59.347	5.0
59.362	7.0
59.377	3.0
59.392	1.0
59.407	8.0
59.422	5.0
59.437	4.0
59.452	3.0
59.467	3.0
59.482	3.0
59.497	4.0
59.512	5.0
59.527	10.0
59.542	7.0
59.557	8.0
59.572	5.0
59.587	10.0
59.602	13.0
59.617	7.0
59.632	12.0
59.647	9.0
59.661	8.0
59.676	12.0
59.691	4.0
59.706	5.0
59.721	6.0
59.736	6.0
59.751	1.0
59.766	3.0
59.781	6.0
59.796	7.0
59.811	9.0
59.826	4.0
59.841	3.0
59.856	11.0
59.871	1.0
59.886	1.0
59.901	7.0
59.916	3.0
59.931	5.0
59.946	6.0
59.961	2.0
59.976	6.0
59.991	6.0
60.006	8.0
60.021	6.0
60.036	6.0
60.051	7.0
60.066	6.0
60.081	11.0
60.096	2.0
60.111	5.0
60.126	4.0
60.141	5.0
60.156	7.0
60.171	5.0
60.186	4.0
60.201	5.0
60.216	4.0
60.231	0.0
60.246	1.0
60.261	2.0
60.276	4.0
60.291	4.0
60.306	2.0
60.321	2.0
60.336	4.0
60.35	5.0
60.365	4.0
60.38	6.0
60.395	2.0
60.41	5.0
60.425	5.0
60.44	2.0
60.455	7.0
60.47	9.0
60.485	2.0
60.5	5.0
60.515	7.0
60.53	7.0
60.545	6.0
60.56	8.0
60.575	11.0
60.59	6.0
60.605	8.0
60.62	11.0
60.635	7.0
60.65	3.0
60.665	3.0
60.68	6.0
60.695	9.0
60.71	3.0
60.725	8.0
60.74	7.0
60.755	3.0
60.77	6.0
60.785	5.0
60.8	2.0
60.815	3.0
60.83	7.0
60.845	6.0
60.86	3.0
60.875	10.0
60.89	7.0
60.905	5.0
60.92	7.0
60.935	6.0
60.95	2.0
60.965	9.0
60.98	9.0
60.995	5.0
61.01	7.0
61.025	8.0
61.04	5.0
61.055	5.0
61.07	2.0
61.085	4.0
61.1	4.0
61.115	7.0
61.13	7.0
61.145	7.0
61.16	5.0
61.175	4.0
61.191	5.0
61.206	6.0
61.221	3.0
61.236	5.0
61.251	3.0
61.266	4.0
61.281	2.0
61.296	4.0
61.311	6.0
61.326	5.0
61.341	4.0
61.356	3.0
61.371	0.0
61.386	5.0
61.401	4.0
61.416	9.0
61.431	2.0
61.446	4.0
61.461	5.0
61.476	6.0
61.491	4.0
61.506	3.0
61.521	3.0
61.536	6.0
61.551	5.0
61.566	6.0
61.581	7.0
61.596	5.0
61.611	4.0
61.626	6.0
61.641	3.0
61.656	4.0
61.672	3.0
61.687	6.0
61.702	1.0
61.717	5.0
61.732	3.0
61.747	6.0
61.762	2.0
61.777	6.0
61.792	1.0
61.807	2.0
61.822	1.0
61.837	1.0
61.852	3.0
61.867	2.0
61.882	7.0
61.897	7.0
61.912	4.0
61.927	9.0
61.943	4.0
61.958	6.0
61.973	4.0
61.988	5.0
62.003	3.0
62.018	5.0
62.033	3.0
62.048	3.0
62.063	3.0
62.078	6.0
62.093	4.0
62.108	3.0
62.123	2.0
62.138	1.0
62.153	2.0
62.169	3.0
62.184	6.0
62.199	3.0
62.214	4.0
62.229	2.0
62.244	4.0
62.259	4.0
62.274	5.0
62.289	0.0
62.304	5.0
62.319	9.0
62.335	3.0
62.35	5.0
62.365	1.0
62.38	5.0
62.395	5.0
62.41	7.0
62.425	7.0
62.44	8.0
62.455	6.0
62.47	3.0
62.485	6.0
62.501	10.0
62.516	6.0
62.531	6.0
62.546	5.0
62.561	4.0
62.576	2.0
62.591	4.0
62.606	6.0
62.621	3.0
62.636	2.0
62.652	4.0
62.667	5.0
62.682	3.0
62.697	1.0
62.712	5.0
62.727	5.0
62.742	5.0
62.757	4.0
62.772	4.0
62.787	6.0
62.803	5.0
62.818	4.0
62.833	1.0
62.848	5.0
62.863	8.0
62.878	4.0
62.893	6.0
62.908	6.0
62.923	3.0
62.939	5.0
62.954	8.0
62.969	2.0
62.984	8.0
62.999	2.0
63.014	6.0
63.029	3.0
63.044	4.0
63.059	1.0
63.074	8.0
63.09	6.0
63.105	3.0
63.12	4.0
63.135	2.0
63.15	8.0
63.165	1.0
63.18	5.0
63.195	5.0
63.21	4.0
63.226	5.0
63.241	2.0
63.256	3.0
63.271	6.0
63.286	2.0
63.301	6.0
63.316	6.0
63.331	6.0
63.346	7.0
63.362	7.0
63.377	5.0
63.392	5.0
63.407	9.0
63.422	5.0
63.437	6.0
63.452	10.0
63.467	2.0
63.482	10.0
63.497	2.0
63.513	6.0
63.528	1.0
63.543	6.0
63.558	5.0
63.573	6.0
63.588	2.0
63.603	2.0
63.618	2.0
63.633	8.0
63.648	4.0
63.664	4.0
63.679	7.0
63.694	6.0
63.709	4.0
63.724	7.0
63.739	6.0
63.754	3.0
63.769	5.0
63.784	10.0
63.799	3.0
63.814	5.0
63.83	5.0
63.845	5.0
63.86	4.0
63.875	2.0
63.89	5.0
63.905	9.0
63.92	3.0
63.935	5.0
63.95	5.0
63.965	6.0
63.98	5.0
63.996	1.0
64.011	4.0
64.026	2.0
64.041	2.0
64.056	3.0
64.071	2.0
64.086	3.0
64.101	6.0
64.116	1.0
64.131	6.0
64.146	4.0
64.161	3.0
64.176	3.0
64.191	2.0
64.207	4.0
64.222	5.0
64.237	8.0
64.252	1.0
64.267	5.0
64.282	4.0
64.297	4.0
64.312	3.0
64.327	5.0
64.342	5.0
64.357	2.0
64.372	6.0
64.387	2.0
64.402	3.0
64.417	2.0
64.433	2.0
64.448	1.0
64.463	0.0
64.478	4.0
64.493	2.0
64.508	5.0
64.523	5.0
64.538	5.0
64.553	2.0
64.568	5.0
64.583	4.0
64.598	7.0
64.613	2.0
64.628	3.0
64.643	7.0
64.658	5.0
64.673	5.0
64.688	5.0
64.703	4.0
64.718	6.0
64.734	2.0
64.749	3.0
64.764	3.0
64.779	4.0
64.794	2.0
64.809	2.0
64.824	4.0
64.839	1.0
64.854	4.0
64.869	0.0
64.884	6.0
64.899	4.0
64.914	6.0
64.929	4.0
64.944	6.0
64.959	1.0
64.974	3.0
64.989	5.0
65.004	7.0
65.019	3.0
65.034	4.0
65.049	7.0
65.064	3.0
65.079	4.0
65.094	10.0
65.109	6.0
65.125	7.0
65.14	4.0
65.155	7.0
65.17	1.0
65.185	3.0
65.2	5.0
65.215	4.0
65.23	6.0
65.245	3.0
65.26	3.0
65.275	7.0
65.29	2.0
65.305	4.0
65.32	7.0
65.335	8.0
65.35	6.0
65.365	4.0
65.38	7.0
65.395	2.0
65.41	3.0
65.425	5.0
65.44	4.0
65.455	3.0
65.47	1.0
65.485	3.0
65.5	3.0
65.515	4.0
65.53	6.0
65.545	4.0
65.56	2.0
65.575	1.0
65.59	4.0
65.605	2.0
65.62	1.0
65.635	4.0
65.65	3.0
65.666	2.0
65.681	5.0
65.696	2.0
65.711	4.0
65.726	8.0
65.741	6.0
65.756	1.0
65.771	0.0
65.786	5.0
65.801	2.0
65.816	1.0
65.831	1.0
65.846	2.0
65.861	3.0
65.876	2.0
65.891	1.0
65.906	2.0
65.921	4.0
65.936	6.0
65.951	4.0
65.966	1.0
65.981	5.0
65.996	5.0
66.011	3.0
66.026	2.0
66.041	3.0
66.056	6.0
66.071	3.0
66.086	3.0
66.101	2.0
66.116	8.0
66.131	7.0
66.146	11.0
66.161	7.0
66.176	3.0
66.191	8.0
66.206	8.0
66.221	7.0
66.236	6.0
66.251	5.0
66.266	7.0
66.281	7.0
66.296	5.0
66.311	6.0
66.327	3.0
66.342	1.0
66.357	4.0
66.372	2.0
66.387	3.0
66.402	1.0
66.417	3.0
66.432	2.0
66.447	3.0
66.462	5.0
66.477	2.0
66.492	5.0
66.507	1.0
66.522	2.0
66.537	3.0
66.552	9.0
66.567	3.0
66.582	9.0
66.597	10.0
66.612	7.0
66.627	11.0
66.642	11.0
66.657	4.0
66.672	15.0
66.687	5.0
66.702	1.0
66.717	3.0
66.732	7.0
66.747	6.0
66.762	2.0
66.777	1.0
66.792	6.0
66.807	3.0
66.822	2.0
66.837	1.0
66.853	2.0
66.868	4.0
66.883	4.0
66.898	7.0
66.913	3.0
66.928	4.0
66.943	3.0
66.958	3.0
66.973	2.0
66.988	5.0
67.003	3.0
67.018	8.0
67.033	6.0
67.048	8.0
67.063	8.0
67.078	0.0
67.093	5.0
67.108	5.0
67.123	7.0
67.138	3.0
67.153	8.0
67.168	2.0
67.183	3.0
67.198	4.0
67.214	3.0
67.229	1.0
67.244	2.0
67.259	0.0
67.274	5.0
67.289	3.0
67.304	6.0
67.319	5.0
67.334	6.0
67.349	3.0
67.364	1.0
67.379	7.0
67.394	5.0
67.409	3.0
67.424	4.0
67.439	5.0
67.454	3.0
67.469	4.0
67.484	2.0
67.5	7.0
67.515	10.0
67.53	4.0
67.545	0.0
67.56	1.0
67.575	5.0
67.59	7.0
67.605	4.0
67.62	0.0
67.635	3.0
67.65	5.0
67.665	2.0
67.68	4.0
67.695	2.0
67.71	5.0
67.726	6.0
67.741	2.0
67.756	7.0
67.771	3.0
67.786	8.0
67.801	5.0
67.816	2.0
67.831	5.0
67.846	4.0
67.861	4.0
67.876	6.0
67.891	7.0
67.906	2.0
67.922	5.0
67.937	5.0
67.952	5.0
67.967	4.0
67.982	4.0
67.997	4.0
68.012	2.0
68.027	5.0
68.042	2.0
68.057	7.0
68.072	4.0
68.087	1.0
68.103	1.0
68.118	0.0
68.133	1.0
68.148	7.0
68.163	6.0
68.178	2.0
68.193	0.0
68.208	5.0
68.223	1.0
68.238	4.0
68.254	3.0
68.269	4.0
68.284	1.0
68.299	3.0
68.314	6.0
68.329	2.0
68.344	6.0
68.359	5.0
68.374	2.0
68.389	3.0
68.405	3.0
68.42	5.0
68.435	5.0
68.45	2.0
68.465	4.0
68.48	5.0
68.495	6.0
68.51	1.0
68.525	1.0
68.54	5.0
68.556	7.0
68.571	5.0
68.586	5.0
68.601	4.0
68.616	3.0
68.631	5.0
68.646	4.0
68.661	0.0
68.676	5.0
68.691	5.0
68.707	6.0
68.722	4.0
68.737	0.0
68.752	5.0
68.767	6.0
68.782	8.0
68.797	4.0
68.812	4.0
68.827	5.0
68.842	2.0
68.857	2.0
68.873	6.0
68.888	3.0
68.903	4.0
68.918	4.0
68.933	1.0
68.948	4.0
68.963	0.0
68.978	4.0
68.993	6.0
69.008	4.0
69.023	5.0
69.038	3.0
69.054	3.0
69.069	2.0
69.084	2.0
69.099	2.0
69.114	5.0
69.129	2.0
69.144	2.0
69.159	5.0
69.174	9.0
69.189	5.0
69.204	1.0
69.219	2.0
69.234	4.0
69.249	3.0
69.264	2.0
69.279	3.0
69.295	5.0
69.31	3.0
69.325	8.0
69.34	6.0
69.355	3.0
69.37	3.0
69.385	4.0
69.4	3.0
69.415	2.0
69.43	4.0
69.445	3.0
69.46	0.0
69.475	3.0
69.49	8.0
69.505	1.0
69.52	4.0
69.535	3.0
69.55	1.0
69.565	5.0
69.58	2.0
69.595	7.0
69.61	3.0
69.625	6.0
69.64	2.0
69.655	1.0
69.67	3.0
69.685	6.0
69.7	3.0
69.715	6.0
69.73	1.0
69.745	9.0
69.76	5.0
69.775	6.0
69.79	7.0
69.805	6.0
69.82	6.0
69.835	6.0
69.85	3.0
69.865	8.0
69.88	6.0
69.895	7.0
69.909	0.0
69.924	5.0
69.939	2.0
69.954	6.0
69.969	5.0
69.984	1.0
69.999	3.0
70.014	4.0
70.029	4.0
70.044	2.0
70.059	2.0
70.074	2.0
70.088	1.0
70.103	9.0
70.118	5.0
70.133	6.0
70.148	6.0
70.163	5.0
70.178	8.0
70.193	0.0
70.208	7.0
70.222	5.0
70.237	5.0
70.252	4.0
70.267	3.0
70.282	4.0
70.297	2.0
70.312	3.0
70.327	5.0
70.341	4.0
70.356	4.0
70.371	6.0
70.386	3.0
70.401	5.0
70.416	3.0
70.43	5.0
70.445	2.0
70.46	3.0
70.475	2.0
70.49	4.0
70.505	1.0
70.519	2.0
70.534	1.0
70.549	1.0
70.564	3.0
70.579	5.0
70.594	2.0
70.608	5.0
70.623	4.0
70.638	3.0
70.653	6.0
70.668	4.0
70.683	3.0
70.697	3.0
70.712	7.0
70.727	3.0
70.742	7.0
70.757	7.0
70.771	4.0
70.786	6.0
70.801	1.0
70.816	3.0
70.831	1.0
70.845	4.0
70.86	1.0
70.875	4.0
70.89	3.0
70.905	3.0
70.92	2.0
70.934	2.0
70.949	2.0
70.964	7.0
70.979	2.0
70.994	4.0
71.008	1.0
71.023	8.0
71.038	3.0
71.053	4.0
71.068	3.0
71.082	5.0
71.097	4.0
71.112	2.0
71.127	4.0
71.142	2.0
71.156	4.0
71.171	5.0
71.186	4.0
71.201	4.0
71.216	7.0
71.231	6.0
71.245	4.0
71.26	7.0
71.275	5.0
71.29	6.0
71.305	3.0
71.319	0.0
71.334	6.0
71.349	2.0
71.364	3.0
71.379	1.0
71.394	4.0
71.408	4.0
71.423	1.0
71.438	4.0
71.453	3.0
71.468	3.0
71.483	0.0
71.497	4.0
71.512	7.0
71.527	8.0
71.542	3.0
71.557	5.0
71.572	4.0
71.586	4.0
71.601	4.0
71.616	2.0
71.631	5.0
71.646	2.0
71.661	2.0
71.676	4.0
71.69	3.0
71.705	2.0
71.72	3.0
71.735	3.0
71.75	2.0
71.765	1.0
71.78	6.0
71.795	7.0
71.81	3.0
71.824	3.0
71.839	2.0
71.854	0.0
71.869	0.0
71.884	3.0
71.899	3.0
71.914	5.0
71.929	4.0
71.944	2.0
71.959	4.0
71.974	4.0
71.988	2.0
72.003	1.0
72.018	4.0
72.033	1.0
72.048	4.0
72.063	4.0
72.078	3.0
72.093	4.0
72.108	1.0
72.123	4.0
72.138	3.0
72.153	1.0
72.168	1.0
72.183	5.0
72.198	3.0
72.213	4.0
72.228	1.0
72.243	5.0
72.258	3.0
72.273	2.0
72.288	4.0
72.303	2.0
72.318	4.0
72.333	3.0
72.348	0.0
72.363	6.0
72.378	3.0
72.393	1.0
72.408	5.0
72.423	7.0
72.438	3.0
72.453	6.0
72.468	2.0
72.483	1.0
72.498	3.0
72.513	4.0
72.528	0.0
72.543	5.0
72.558	4.0
72.573	1.0
72.588	4.0
72.603	3.0
72.618	7.0
72.633	1.0
72.649	3.0
72.664	2.0
72.679	2.0
72.694	6.0
72.709	4.0
72.724	5.0
72.739	1.0
72.754	5.0
72.769	1.0
72.784	8.0
72.799	0.0
72.814	3.0
72.829	4.0
72.845	3.0
72.86	6.0
72.875	0.0
72.89	6.0
72.905	2.0
72.92	5.0
72.935	4.0
72.95	4.0
72.965	0.0
72.98	1.0
72.996	7.0
73.011	8.0
73.026	6.0
73.041	4.0
73.056	6.0
73.071	6.0
73.086	4.0
73.101	5.0
73.117	2.0
73.132	2.0
73.147	5.0
73.162	4.0
73.177	2.0
73.192	1.0
73.207	2.0
73.222	6.0
73.238	3.0
73.253	5.0
73.268	2.0
73.283	5.0
73.298	3.0
73.313	1.0
73.328	3.0
73.343	7.0
73.359	3.0
73.374	6.0
73.389	6.0
73.404	4.0
73.419	3.0
73.434	3.0
73.449	6.0
73.465	3.0
73.48	6.0
73.495	2.0
73.51	4.0
73.525	1.0
73.54	2.0
73.556	4.0
73.571	6.0
73.586	0.0
73.601	3.0
73.616	3.0
73.631	8.0
73.646	4.0
73.662	5.0
73.677	3.0
73.692	1.0
73.707	3.0
73.722	4.0
73.737	3.0
73.752	5.0
73.768	1.0
73.783	4.0
73.798	3.0
73.813	4.0
73.828	3.0
73.843	3.0
73.859	4.0
73.874	3.0
73.889	6.0
73.904	1.0
73.919	4.0
73.934	1.0
73.949	4.0
73.965	0.0
73.98	6.0
73.995	3.0
74.01	1.0
74.025	4.0
74.04	7.0
74.056	3.0
74.071	4.0
74.086	2.0
74.101	2.0
74.116	4.0
74.131	4.0
74.146	7.0
74.162	3.0
74.177	6.0
74.192	8.0
74.207	5.0
74.222	8.0
74.237	3.0
74.252	3.0
74.268	2.0
74.283	10.0
74.298	2.0
74.313	5.0
74.328	5.0
74.343	6.0
74.358	6.0
74.374	2.0
74.389	6.0
74.404	0.0
74.419	2.0
74.434	5.0
74.449	1.0
74.464	5.0
74.48	1.0
74.495	4.0
74.51	2.0
74.525	1.0
74.54	2.0
74.555	3.0
74.57	6.0
74.586	2.0
74.601	1.0
74.616	5.0
74.631	4.0
74.646	3.0
74.661	1.0
74.676	4.0
74.691	3.0
74.707	3.0
74.722	2.0
74.737	7.0
74.752	3.0
74.767	1.0
74.782	4.0
74.797	2.0
74.813	3.0
74.828	1.0
74.843	1.0
74.858	3.0
74.873	4.0
74.888	2.0
74.903	3.0
74.918	5.0
74.934	2.0
74.949	4.0
74.964	2.0
74.979	6.0
74.994	7.0
75.009	1.0
75.024	4.0
75.04	4.0
75.055	7.0
75.07	5.0
75.085	9.0
75.1	5.0
75.115	2.0
75.13	2.0
75.145	8.0
75.161	1.0
75.176	3.0
75.191	2.0
75.206	5.0
75.221	3.0
75.236	6.0
75.251	4.0
75.266	2.0
75.282	4.0
75.297	2.0
75.312	4.0
75.327	3.0
75.342	1.0
75.357	3.0
75.372	2.0
75.387	1.0
75.403	6.0
75.418	3.0
75.433	2.0
75.448	1.0
75.463	2.0
75.478	5.0
75.493	2.0
75.509	0.0
75.524	0.0
75.539	3.0
75.554	4.0
75.569	1.0
75.584	2.0
75.599	5.0
75.614	4.0
75.63	1.0
75.645	7.0
75.66	4.0
75.675	3.0
75.69	2.0
75.705	6.0
75.72	5.0
75.735	4.0
75.751	4.0
75.766	0.0
75.781	1.0
75.796	2.0
75.811	2.0
75.826	5.0
75.841	3.0
75.856	4.0
75.872	5.0
75.887	3.0
75.902	2.0
75.917	2.0
75.932	5.0
75.947	2.0
75.962	4.0
75.977	2.0
75.993	3.0
76.008	5.0
76.023	2.0
76.038	5.0
76.053	2.0
76.068	3.0
76.083	2.0
76.098	4.0
76.114	3.0
76.129	1.0
76.144	1.0
76.159	7.0
76.174	4.0
76.189	1.0
76.204	3.0
76.22	2.0
76.235	2.0
76.25	3.0
76.265	6.0
76.28	2.0
76.295	2.0
76.31	2.0
76.325	3.0
76.341	1.0
76.356	3.0
76.371	3.0
76.386	2.0
76.401	4.0
76.416	1.0
76.431	2.0
76.446	3.0
76.462	4.0
76.477	1.0
76.492	3.0
76.507	6.0
76.522	9.0
76.537	3.0
76.552	1.0
76.567	4.0
76.583	3.0
76.598	3.0
76.613	4.0
76.628	1.0
76.643	5.0
76.658	3.0
76.673	3.0
76.688	3.0
76.704	6.0
76.719	3.0
76.734	5.0
76.749	4.0
76.764	7.0
76.779	5.0
76.794	7.0
76.809	8.0
76.824	5.0
76.84	4.0
76.855	3.0
76.87	4.0
76.885	2.0
76.9	1.0
76.915	0.0
76.93	3.0
76.945	4.0
76.96	2.0
76.976	7.0
76.991	4.0
77.006	3.0
77.021	4.0
77.036	4.0
77.051	4.0
77.066	3.0
77.081	2.0
77.096	4.0
77.112	4.0
77.127	2.0
77.142	5.0
77.157	3.0
77.172	2.0
77.187	1.0
77.202	3.0
77.217	4.0
77.232	6.0
77.247	2.0
77.263	3.0
77.278	0.0
77.293	5.0
77.308	5.0
77.323	2.0
77.338	5.0
77.353	1.0
77.368	3.0
77.383	5.0
77.398	2.0
77.413	2.0
77.428	2.0
77.444	4.0
77.459	3.0
77.474	2.0
77.489	4.0
77.504	3.0
77.519	4.0
77.534	2.0
77.549	5.0
77.564	4.0
77.579	4.0
77.594	5.0
77.609	4.0
77.624	1.0
77.64	5.0
77.655	4.0
77.67	3.0
77.685	9.0
77.7	8.0
77.715	3.0
77.73	0.0
77.745	4.0
77.76	0.0
77.775	4.0
77.79	0.0
77.805	4.0
77.82	2.0
77.835	6.0
77.85	3.0
77.865	2.0
77.88	6.0
77.895	6.0
77.91	3.0
77.926	4.0
77.941	2.0
77.956	7.0
77.971	2.0
77.986	1.0
78.001	3.0
78.016	2.0
78.031	1.0
78.046	3.0
78.061	2.0
78.076	1.0
78.091	1.0
78.106	3.0
78.121	2.0
78.136	5.0
78.151	5.0
78.166	6.0
78.181	5.0
78.196	2.0
78.211	3.0
78.226	6.0
78.241	6.0
78.256	3.0
78.271	2.0
78.286	2.0
78.301	2.0
78.316	4.0
78.331	3.0
78.346	1.0
78.361	4.0
78.376	3.0
78.391	1.0
78.406	1.0
78.421	2.0
78.436	4.0
78.451	3.0
78.466	3.0
78.481	5.0
78.496	4.0
78.511	3.0
78.526	3.0
78.541	1.0
78.556	2.0
78.571	4.0
78.586	6.0
78.601	1.0
78.616	6.0
78.631	3.0
78.646	2.0
78.661	2.0
78.676	5.0
78.691	2.0
78.706	3.0
78.721	5.0
78.736	1.0
78.751	3.0
78.766	4.0
78.781	3.0
78.796	1.0
78.811	2.0
78.826	3.0
78.841	0.0
78.856	3.0
78.871	4.0
78.885	2.0
78.9	1.0
78.915	5.0
78.93	5.0
78.945	4.0
78.96	1.0
78.975	2.0
78.99	4.0
79.005	3.0
79.02	3.0
79.035	4.0
79.05	5.0
79.065	4.0
79.08	3.0
79.095	5.0
79.11	2.0
79.125	3.0
79.14	4.0
79.155	2.0
79.17	1.0
79.185	1.0
79.2	5.0
79.215	2.0
79.23	4.0
79.245	3.0
79.26	1.0
79.275	6.0
79.29	2.0
79.304	3.0
79.319	4.0
79.334	6.0
79.349	3.0
79.364	1.0
79.379	5.0
79.394	9.0
79.409	3.0
79.424	4.0
79.439	5.0
79.454	3.0
79.469	1.0
79.484	1.0
79.499	6.0
79.514	6.0
79.529	3.0
79.544	6.0
79.559	3.0
79.574	4.0
79.589	2.0
79.604	1.0
79.619	3.0
79.634	3.0
79.649	4.0
79.664	3.0
79.679	6.0
79.693	2.0
79.708	3.0
79.723	2.0
79.738	5.0
79.753	3.0
79.768	1.0
79.783	1.0
79.798	4.0
79.813	4.0
79.828	1.0
79.843	2.0
79.858	1.0
79.873	2.0
79.888	5.0
79.903	3.0
79.918	0.0
79.933	4.0
79.948	3.0
79.963	7.0
79.978	3.0
79.993	3.0
80.008	7.0
80.023	2.0
80.038	3.0
80.053	5.0
80.068	1.0
80.083	5.0
80.098	1.0
80.113	2.0
80.128	6.0
80.143	4.0
80.158	5.0
80.173	3.0
80.188	4.0
80.202	4.0
80.217	1.0
80.232	5.0
80.247	3.0
80.262	4.0
80.277	4.0
80.292	1.0
80.307	4.0
80.322	0.0
80.337	3.0
80.352	2.0
80.367	1.0
80.382	2.0
80.397	5.0
80.412	6.0
80.427	3.0
80.442	1.0
80.457	3.0
80.472	1.0
80.487	2.0
80.502	4.0
80.517	0.0
80.532	2.0
80.547	1.0
80.562	5.0
80.577	3.0
80.592	4.0
80.607	5.0
80.622	5.0
80.637	3.0
80.652	2.0
80.667	4.0
80.682	4.0
80.697	1.0
80.712	4.0
80.727	6.0
80.742	2.0
80.757	6.0
80.772	2.0
80.787	0.0
80.802	3.0
80.817	5.0
80.832	1.0
80.847	2.0
80.862	5.0
80.877	2.0
80.892	2.0
80.907	0.0
80.922	1.0
80.937	4.0
80.952	5.0
80.967	2.0
80.982	5.0
80.997	3.0
81.012	4.0
81.027	3.0
81.042	3.0
81.057	1.0
81.072	7.0
81.087	3.0
81.101	3.0
81.116	2.0
81.131	2.0
81.146	1.0
81.161	3.0
81.176	1.0
81.191	1.0
81.206	1.0
81.221	3.0
81.236	2.0
81.251	2.0
81.266	3.0
81.281	3.0
81.296	2.0
81.311	4.0
81.326	2.0
81.341	2.0
81.356	4.0
81.371	2.0
81.386	2.0
81.401	3.0
81.416	2.0
81.431	5.0
81.446	4.0
81.461	4.0
81.476	4.0
81.491	4.0
81.506	5.0
81.521	2.0
81.536	3.0
81.55	5.0
81.565	4.0
81.58	0.0
81.595	3.0
81.61	2.0
81.625	3.0
81.64	6.0
81.655	6.0
81.67	1.0
81.685	7.0
81.7	1.0
81.715	5.0
81.73	2.0
81.745	6.0
81.76	3.0
81.775	4.0
81.79	3.0
81.805	0.0
81.819	4.0
81.834	9.0
81.849	3.0
81.864	1.0
81.879	5.0
81.894	6.0
81.909	4.0
81.924	2.0
81.939	0.0
81.954	2.0
81.969	7.0
81.984	2.0
81.999	4.0
82.013	2.0
82.028	2.0
82.043	5.0
82.058	2.0
82.073	3.0
82.088	3.0
82.103	2.0
82.118	3.0
82.133	2.0
82.148	5.0
82.163	3.0
82.177	1.0
82.192	2.0
82.207	2.0
82.222	2.0
82.237	2.0
82.252	3.0
82.267	4.0
82.282	1.0
82.297	2.0
82.312	2.0
82.326	3.0
82.341	1.0
82.356	3.0
82.371	4.0
82.386	5.0
82.401	3.0
82.416	4.0
82.431	3.0
82.445	3.0
82.46	3.0
82.475	1.0
82.49	5.0
82.505	2.0
82.52	4.0
82.535	0.0
82.55	3.0
82.565	7.0
82.579	5.0
82.594	2.0
82.609	3.0
82.624	4.0
82.639	3.0
82.654	1.0
82.669	3.0
82.684	1.0
82.698	2.0
82.713	7.0
82.728	3.0
82.743	3.0
82.758	2.0
82.773	2.0
82.788	1.0
82.803	5.0
82.817	4.0
82.832	4.0
82.847	2.0
82.862	2.0
82.877	1.0
82.892	1.0
82.907	1.0
82.922	5.0
82.937	6.0
82.951	3.0
82.966	1.0
82.981	2.0
82.996	3.0
83.011	1.0
83.026	4.0
83.041	2.0
83.056	2.0
83.07	5.0
83.085	2.0
83.1	4.0
83.115	3.0
83.13	2.0
83.145	1.0
83.16	2.0
83.175	2.0
83.19	4.0
83.204	2.0
83.219	4.0
83.234	4.0
83.249	0.0
83.264	3.0
83.279	5.0
83.294	6.0
83.309	1.0
83.324	4.0
83.339	1.0
83.353	3.0
83.368	4.0
83.383	4.0
83.398	3.0
83.413	2.0
83.428	4.0
83.443	4.0
83.458	4.0
83.473	7.0
83.488	4.0
83.503	2.0
83.517	4.0
83.532	0.0
83.547	4.0
83.562	5.0
83.577	4.0
83.592	2.0
83.607	5.0
83.622	4.0
83.637	4.0
83.652	2.0
83.667	5.0
83.682	2.0
83.697	4.0
83.712	2.0
83.727	4.0
83.741	3.0
83.756	3.0
83.771	1.0
83.786	1.0
83.801	4.0
83.816	3.0
83.831	5.0
83.846	4.0
83.861	3.0
83.876	0.0
83.891	3.0
83.906	1.0
83.921	6.0
83.936	5.0
83.951	1.0
83.966	6.0
83.981	2.0
83.996	4.0
84.011	1.0
84.026	2.0
84.041	2.0
84.056	1.0
84.071	2.0
84.086	3.0
84.101	1.0
84.116	3.0
84.131	3.0
84.146	3.0
84.161	3.0
84.176	6.0
84.191	6.0
84.206	3.0
84.221	9.0
84.236	7.0
84.251	4.0
84.266	5.0
84.281	6.0
84.296	5.0
84.311	4.0
84.326	7.0
84.341	4.0
84.356	1.0
84.371	3.0
84.386	3.0
84.401	6.0
84.416	7.0
84.431	2.0
84.446	7.0
84.461	2.0
84.476	6.0
84.492	6.0
84.507	6.0
84.522	6.0
84.537	3.0
84.552	4.0
84.567	3.0
84.582	5.0
84.597	5.0
84.612	5.0
84.627	3.0
84.642	4.0
84.657	3.0
84.672	6.0
84.687	1.0
84.702	3.0
84.717	1.0
84.733	3.0
84.748	1.0
84.763	5.0
84.778	5.0
84.793	4.0
84.808	4.0
84.823	3.0
84.838	2.0
84.853	4.0
84.868	3.0
84.883	2.0
84.898	0.0
84.913	2.0
84.929	4.0
84.944	3.0
84.959	5.0
84.974	6.0
84.989	5.0
85.004	9.0
85.019	4.0
85.034	3.0
85.049	3.0
85.064	4.0
85.079	5.0
85.094	2.0
85.11	2.0
85.125	6.0
85.14	1.0
85.155	2.0
85.17	5.0
85.185	5.0
85.2	2.0
85.215	3.0
85.23	5.0
85.245	4.0
85.26	4.0
85.276	3.0
85.291	4.0
85.306	3.0
85.321	5.0
85.336	1.0
85.351	2.0
85.366	1.0
85.381	2.0
85.396	2.0
85.411	5.0
85.426	3.0
85.441	2.0
85.457	1.0
85.472	1.0
85.487	3.0
85.502	2.0
85.517	3.0
85.532	2.0
85.547	3.0
85.562	0.0
85.577	3.0
85.592	1.0
85.607	2.0
85.622	5.0
85.637	3.0
85.653	3.0
85.668	5.0
85.683	2.0
85.698	1.0
85.713	1.0
85.728	4.0
85.743	2.0
85.758	6.0
85.773	1.0
85.788	2.0
85.803	4.0
85.818	7.0
85.833	6.0
85.848	1.0
85.863	3.0
85.879	1.0
85.894	5.0
85.909	1.0
85.924	4.0
85.939	2.0
85.954	1.0
85.969	1.0
85.984	4.0
85.999	6.0
86.014	3.0
86.029	0.0
86.044	3.0
86.059	3.0
86.074	3.0
86.089	5.0
86.104	0.0
86.119	3.0
86.134	3.0
86.149	4.0
86.164	4.0
86.179	1.0
86.194	2.0
86.209	6.0
86.224	2.0
86.239	1.0
86.254	3.0
86.269	1.0
86.284	5.0
86.299	1.0
86.314	1.0
86.33	9.0
86.345	2.0
86.36	3.0
86.375	5.0
86.39	2.0
86.405	3.0
86.42	4.0
86.435	2.0
86.45	2.0
86.465	1.0
86.48	1.0
86.495	0.0
86.51	1.0
86.525	1.0
86.54	3.0
86.555	7.0
86.57	0.0
86.585	5.0
86.6	2.0
86.615	6.0
86.63	2.0
86.645	4.0
86.659	5.0
86.674	2.0
86.689	2.0
86.704	2.0
86.719	3.0
86.734	3.0
86.749	0.0
86.764	3.0
86.779	8.0
86.794	6.0
86.809	5.0
86.824	2.0
86.839	6.0
86.854	4.0
86.869	1.0
86.884	1.0
86.899	5.0
86.914	5.0
86.929	1.0
86.944	5.0
86.959	5.0
86.974	2.0
86.989	4.0
87.004	3.0
87.019	4.0
87.034	8.0
87.049	3.0
87.064	4.0
87.079	3.0
87.094	3.0
87.109	1.0
87.124	3.0
87.139	5.0
87.154	4.0
87.169	3.0
87.184	3.0
87.199	6.0
87.214	2.0
87.229	6.0
87.244	2.0
87.259	1.0
87.274	1.0
87.289	2.0
87.304	1.0
87.319	2.0
87.334	3.0
87.349	3.0
87.364	4.0
87.379	7.0
87.394	6.0
87.409	5.0
87.424	6.0
87.438	3.0
87.453	8.0
87.468	1.0
87.483	6.0
87.498	1.0
87.513	2.0
87.528	1.0
87.543	4.0
87.558	4.0
87.573	3.0
87.588	2.0
87.603	5.0
87.618	2.0
87.633	7.0
87.648	4.0
87.663	4.0
87.678	4.0
87.693	0.0
87.708	1.0
87.723	3.0
87.738	6.0
87.753	7.0
87.768	2.0
87.783	3.0
87.798	1.0
87.813	4.0
87.828	3.0
87.843	3.0
87.858	6.0
87.873	4.0
87.888	6.0
87.903	4.0
87.918	4.0
87.933	3.0
87.948	4.0
87.963	3.0
87.978	2.0
87.993	1.0
88.008	0.0
88.023	2.0
88.038	6.0
88.053	1.0
88.068	3.0
88.083	2.0
88.098	4.0
88.113	4.0
88.128	2.0
88.143	2.0
88.158	3.0
88.174	4.0
88.189	5.0
88.204	3.0
88.219	2.0
88.234	3.0
88.249	2.0
88.264	5.0
88.279	2.0
88.294	3.0
88.309	3.0
88.324	2.0
88.339	2.0
88.354	3.0
88.369	4.0
88.384	3.0
88.399	3.0
88.414	3.0
88.429	4.0
88.444	2.0
88.459	3.0
88.474	4.0
88.489	7.0
88.504	4.0
88.519	2.0
88.534	2.0
88.549	2.0
88.564	2.0
88.58	3.0
88.595	7.0
88.61	5.0
88.625	2.0
88.64	8.0
88.655	1.0
88.67	4.0
88.685	1.0
88.7	1.0
88.715	2.0
88.73	3.0
88.745	2.0
88.76	3.0
88.775	5.0
88.79	4.0
88.805	3.0
88.82	2.0
88.835	3.0
88.85	5.0
88.865	3.0
88.88	2.0
88.895	1.0
88.911	1.0
88.926	5.0
88.941	2.0
88.956	0.0
88.971	1.0
88.986	2.0
89.001	3.0
89.016	2.0
89.031	3.0
89.046	0.0
89.061	4.0
89.076	1.0
89.091	3.0
89.106	3.0
89.121	4.0
89.136	2.0
89.151	3.0
89.166	3.0
89.181	4.0
89.196	4.0
89.211	5.0
89.227	5.0
89.242	3.0
89.257	3.0
89.272	4.0
89.287	2.0
89.302	2.0
89.317	2.0
89.332	5.0
89.347	2.0
89.362	3.0
89.377	2.0
89.392	5.0
89.407	6.0
89.422	6.0
89.437	3.0
89.452	3.0
89.467	1.0
89.482	0.0
89.497	3.0
89.512	3.0
89.527	3.0
89.542	3.0
89.557	2.0
89.572	3.0
89.587	3.0
89.602	8.0
89.617	2.0
89.632	1.0
89.647	5.0
89.662	4.0
89.677	2.0
89.693	2.0
89.708	4.0
89.723	2.0
89.738	1.0
89.753	1.0
89.768	2.0
89.783	1.0
89.798	2.0
89.813	0.0
89.828	4.0
89.843	7.0
89.858	4.0
89.873	5.0
89.888	2.0
89.903	4.0
89.918	7.0
89.933	2.0
89.948	1.0
89.963	3.0
89.978	2.0
89.993	2.0
90.008	5.0
90.023	2.0
90.038	3.0
90.053	7.0
90.068	4.0
90.083	4.0
90.097	0.0
90.112	4.0
90.127	5.0
90.142	5.0
90.157	3.0
90.172	4.0
90.187	5.0
90.202	3.0
90.217	5.0
90.232	1.0
90.247	1.0
90.262	2.0
90.277	5.0
90.292	4.0
90.307	3.0
90.322	1.0
90.337	3.0
90.352	3.0
90.367	1.0
90.382	8.0
90.397	5.0
90.412	4.0
90.427	3.0
90.442	5.0
90.457	4.0
90.472	6.0
90.487	3.0
90.501	3.0
90.516	6.0
90.531	4.0
90.546	2.0
90.561	5.0
90.576	3.0
90.591	1.0
90.606	3.0
90.621	1.0
90.636	4.0
90.651	2.0
90.666	2.0
90.681	1.0
90.696	8.0
90.711	0.0
90.726	6.0
90.741	3.0
90.755	1.0
90.77	5.0
90.785	4.0
90.8	3.0
90.815	4.0
90.83	1.0
90.845	5.0
90.86	5.0
90.875	9.0
90.89	6.0
90.905	6.0
90.92	5.0
90.935	2.0
90.95	4.0
90.965	1.0
90.979	6.0
90.994	3.0
91.009	5.0
91.024	6.0
91.039	5.0
91.054	4.0
91.069	3.0
91.084	3.0
91.099	2.0
91.114	4.0
91.129	3.0
91.144	0.0
91.159	2.0
91.174	4.0
91.188	3.0
91.203	3.0
91.218	6.0
91.233	5.0
91.248	4.0
91.263	3.0
91.278	5.0
91.293	1.0
91.308	2.0
91.323	1.0
91.338	5.0
91.353	2.0
91.368	2.0
91.383	5.0
91.398	3.0
91.412	4.0
91.427	5.0
91.442	2.0
91.457	1.0
91.472	2.0
91.487	2.0
91.502	3.0
91.517	2.0
91.532	3.0
91.547	4.0
91.562	4.0
91.577	5.0
91.592	2.0
91.607	2.0
91.622	4.0
91.637	3.0
91.652	0.0
91.666	1.0
91.681	4.0
91.696	2.0
91.711	3.0
91.726	4.0
91.741	5.0
91.756	3.0
91.771	3.0
91.786	5.0
91.801	1.0
91.816	5.0
91.831	5.0
91.846	3.0
91.861	4.0
91.876	4.0
91.891	3.0
91.906	3.0
91.921	2.0
91.936	9.0
91.951	2.0
91.966	5.0
91.981	3.0
91.995	0.0
92.01	3.0
92.025	4.0
92.04	1.0
92.055	2.0
92.07	1.0
92.085	2.0
92.1	6.0
92.115	4.0
92.13	1.0
92.145	4.0
92.16	2.0
92.175	3.0
92.19	3.0
92.205	2.0
92.22	3.0
92.235	2.0
92.25	4.0
92.265	1.0
92.28	2.0
92.295	6.0
92.31	2.0
92.325	2.0
92.34	0.0
92.355	1.0
92.37	2.0
92.385	1.0
92.4	4.0
92.415	3.0
92.43	1.0
92.445	0.0
92.46	4.0
92.475	5.0
92.49	4.0
92.505	2.0
92.52	2.0
92.535	2.0
92.55	2.0
92.565	5.0
92.58	2.0
92.595	2.0
92.61	0.0
92.625	2.0
92.64	4.0
92.655	2.0
92.67	3.0
92.685	2.0
92.7	1.0
92.715	7.0
92.73	1.0
92.745	2.0
92.76	3.0
92.775	2.0
92.79	3.0
92.805	2.0
92.82	0.0
92.835	6.0
92.85	2.0
92.865	1.0
92.88	1.0
92.895	3.0
92.91	3.0
92.925	7.0
92.94	4.0
92.955	3.0
92.97	2.0
92.985	4.0
93.0	2.0
93.015	7.0
93.03	2.0
93.045	2.0
93.06	5.0
93.075	2.0
93.09	4.0
93.105	2.0
93.12	3.0
93.135	3.0
93.15	2.0
93.165	4.0
93.18	1.0
93.195	0.0
93.21	2.0
93.225	2.0
93.24	1.0
93.255	3.0
93.27	2.0
93.285	4.0
93.3	1.0
93.315	1.0
93.33	3.0
93.345	6.0
93.36	2.0
93.375	2.0
93.39	5.0
93.405	2.0
93.42	3.0
93.435	3.0
93.45	5.0
93.465	6.0
93.48	4.0
93.495	2.0
93.51	5.0
93.525	1.0
93.54	2.0
93.555	2.0
93.57	4.0
93.585	2.0
93.6	5.0
93.615	1.0
93.63	4.0
93.645	1.0
93.66	3.0
93.675	2.0
93.69	1.0
93.705	5.0
93.72	4.0
93.735	6.0
93.75	4.0
93.765	2.0
93.78	3.0
93.795	3.0
93.81	1.0
93.824	4.0
93.839	4.0
93.854	6.0
93.869	4.0
93.884	1.0
93.899	6.0
93.914	4.0
93.929	3.0
93.944	5.0
93.959	4.0
93.974	2.0
93.989	2.0
94.004	3.0
94.019	5.0
94.034	8.0
94.049	2.0
94.064	4.0
94.079	6.0
94.094	4.0
94.108	5.0
94.123	4.0
94.138	3.0
94.153	5.0
94.168	4.0
94.183	5.0
94.198	4.0
94.213	0.0
94.228	3.0
94.243	4.0
94.258	4.0
94.273	2.0
94.288	3.0
94.302	4.0
94.317	2.0
94.332	4.0
94.347	2.0
94.362	6.0
94.377	4.0
94.392	6.0
94.407	2.0
94.422	7.0
94.437	8.0
94.452	6.0
94.466	2.0
94.481	2.0
94.496	5.0
94.511	2.0
94.526	5.0
94.541	4.0
94.556	5.0
94.571	2.0
94.586	2.0
94.601	5.0
94.615	1.0
94.63	2.0
94.645	5.0
94.66	3.0
94.675	2.0
94.69	0.0
94.705	5.0
94.72	2.0
94.735	2.0
94.749	3.0
94.764	5.0
94.779	4.0
94.794	2.0
94.809	0.0
94.824	2.0
94.839	3.0
94.854	2.0
94.868	5.0
94.883	1.0
94.898	2.0
94.913	4.0
94.928	2.0
94.943	2.0
94.958	3.0
94.973	5.0
94.987	3.0
95.002	2.0
95.017	5.0
95.032	3.0
95.047	2.0
95.062	7.0
95.077	1.0
95.092	5.0
95.106	1.0
95.121	3.0
95.136	6.0
95.151	6.0
95.166	2.0
95.181	1.0
95.196	3.0
95.211	2.0
95.226	4.0
95.24	5.0
95.255	3.0
95.27	5.0
95.285	2.0
95.3	5.0
95.315	5.0
95.33	4.0
95.345	4.0
95.359	4.0
95.374	2.0
95.389	2.0
95.404	3.0
95.419	4.0
95.434	3.0
95.449	0.0
95.464	4.0
95.478	7.0
95.493	2.0
95.508	3.0
95.523	3.0
95.538	1.0
95.553	4.0
95.568	4.0
95.583	1.0
95.597	3.0
95.612	2.0
95.627	3.0
95.642	7.0
95.657	4.0
95.672	1.0
95.687	3.0
95.702	2.0
95.717	1.0
95.731	1.0
95.746	4.0
95.761	2.0
95.776	5.0
95.791	2.0
95.806	2.0
95.821	4.0
95.836	3.0
95.851	4.0
95.866	3.0
95.88	3.0
95.895	3.0
95.91	2.0
95.925	4.0
95.94	6.0
95.955	3.0
95.97	5.0
95.985	4.0
96.0	5.0
96.015	4.0
96.029	5.0
96.044	0.0
96.059	4.0
96.074	5.0
96.089	3.0
96.104	7.0
96.119	1.0
96.134	3.0
96.149	1.0
96.164	5.0
96.179	0.0
96.194	3.0
96.208	3.0
96.223	4.0
96.238	3.0
96.253	4.0
96.268	4.0
96.283	2.0
96.298	6.0
96.313	3.0
96.328	2.0
96.343	1.0
96.358	3.0
96.373	5.0
96.388	4.0
96.403	4.0
96.417	6.0
96.432	1.0
96.447	2.0
96.462	3.0
96.477	3.0
96.492	3.0
96.507	3.0
96.522	2.0
96.537	2.0
96.552	6.0
96.567	3.0
96.582	1.0
96.597	2.0
96.612	2.0
96.627	6.0
96.642	6.0
96.656	5.0
96.671	6.0
96.686	2.0
96.701	4.0
96.716	3.0
96.731	3.0
96.746	3.0
96.761	1.0
96.776	4.0
96.791	4.0
96.806	1.0
96.821	7.0
96.836	4.0
96.851	3.0
96.866	1.0
96.881	1.0
96.896	1.0
96.911	2.0
96.926	3.0
96.94	1.0
96.955	4.0
96.97	4.0
96.985	3.0
97.0	5.0
97.015	4.0
97.03	6.0
97.045	1.0
97.06	7.0
97.075	3.0
97.09	1.0
97.105	3.0
97.12	2.0
97.135	1.0
97.15	3.0
97.165	3.0
97.18	5.0
97.195	2.0
97.21	3.0
97.225	1.0
97.239	5.0
97.254	4.0
97.269	3.0
97.284	6.0
97.299	0.0
97.314	4.0
97.329	5.0
97.344	6.0
97.359	2.0
97.374	2.0
97.389	5.0
97.404	6.0
97.419	1.0
97.434	1.0
97.449	7.0
97.464	2.0
97.479	6.0
97.494	2.0
97.509	2.0
97.524	4.0
97.538	2.0
97.553	4.0
97.568	1.0
97.583	0.0
97.598	3.0
97.613	3.0
97.628	0.0
97.643	4.0
97.658	4.0
97.673	3.0
97.688	0.0
97.703	3.0
97.718	0.0
97.733	4.0
97.748	3.0
97.763	6.0
97.778	4.0
97.792	3.0
97.807	6.0
97.822	4.0
97.837	5.0
97.852	4.0
97.867	1.0
97.882	1.0
97.897	3.0
97.912	4.0
97.927	2.0
97.942	4.0
97.957	3.0
97.972	5.0
97.987	5.0
98.001	4.0
98.016	8.0
98.031	4.0
98.046	4.0
98.061	3.0
98.076	3.0
98.091	6.0
98.106	3.0
98.121	5.0
98.136	3.0
98.151	7.0
98.166	2.0
98.181	3.0
98.195	2.0
98.21	2.0
98.225	3.0
98.24	4.0
98.255	2.0
98.27	5.0
98.285	2.0
98.3	1.0
98.315	3.0
98.33	4.0
98.345	1.0
98.359	3.0
98.374	1.0
98.389	3.0
98.404	2.0
98.419	4.0
98.434	7.0
98.449	3.0
98.464	2.0
98.479	2.0
98.494	1.0
98.508	3.0
98.523	7.0
98.538	2.0
98.553	2.0
98.568	10.0
98.583	2.0
98.598	5.0
98.613	3.0
98.628	6.0
98.642	2.0
98.657	2.0
98.672	2.0
98.687	0.0
98.702	4.0
98.717	2.0
98.732	0.0
98.747	2.0
98.762	2.0
98.776	3.0
98.791	1.0
98.806	0.0
98.821	2.0
98.836	1.0
98.851	3.0
98.866	4.0
98.881	3.0
98.896	5.0
98.91	0.0
98.925	1.0
98.94	0.0
98.955	5.0
98.97	2.0
98.985	4.0
99.0	4.0
99.015	1.0
99.029	5.0
99.044	2.0
99.059	1.0
99.074	0.0
99.089	1.0
99.104	7.0
99.119	3.0
99.133	3.0
99.148	3.0
99.163	4.0
99.178	5.0
99.193	7.0
99.208	2.0
99.223	2.0
99.238	3.0
99.252	0.0
99.267	4.0
99.282	3.0
99.297	1.0
99.312	1.0
99.327	3.0
99.342	1.0
99.356	3.0
99.371	2.0
99.386	3.0
99.401	3.0
99.416	3.0
99.431	6.0
99.446	4.0
99.461	3.0
99.475	2.0
99.49	4.0
99.505	6.0
99.52	6.0
99.535	2.0
99.55	4.0
99.565	1.0
99.579	2.0
99.594	5.0
99.609	1.0
99.624	7.0
99.639	1.0
99.654	3.0
99.669	6.0
99.683	5.0
99.698	4.0
99.713	3.0
99.728	2.0
99.743	3.0
99.758	3.0
99.772	3.0
99.787	3.0
99.802	3.0
99.817	8.0
99.832	3.0
99.847	4.0
99.862	2.0
99.876	4.0
99.891	3.0
99.906	4.0
99.921	4.0
99.936	3.0
99.951	1.0
99.966	3.0
99.98	1.0
99.995	4.0
100.01	5.0
100.025	3.0
100.04	3.0
100.055	2.0
100.069	5.0
100.084	4.0
100.099	5.0
100.114	1.0
100.129	1.0
100.144	2.0
100.159	1.0
100.173	2.0
100.188	2.0
100.203	3.0
100.218	4.0
100.233	2.0
100.248	1.0
100.262	5.0
100.277	4.0
100.292	5.0
100.307	4.0
100.322	3.0
100.337	2.0
100.351	4.0
100.366	4.0
100.381	2.0
100.396	6.0
100.411	3.0
100.426	3.0
100.441	1.0
100.455	8.0
100.47	2.0
100.485	1.0
100.5	2.0
100.515	3.0
100.53	7.0
100.544	2.0
100.559	5.0
100.574	5.0
100.589	3.0
100.604	1.0
100.619	6.0
100.633	4.0
100.648	2.0
100.663	4.0
100.678	1.0
100.693	5.0
100.708	3.0
100.722	3.0
100.737	5.0
100.752	3.0
100.767	4.0
100.782	3.0
100.796	6.0
100.811	4.0
100.826	3.0
100.841	3.0
100.856	5.0
100.871	3.0
100.885	1.0
100.9	4.0
100.915	3.0
100.93	4.0
100.945	3.0
100.96	2.0
100.974	5.0
100.989	1.0
101.004	0.0
101.019	4.0
101.034	4.0
101.048	1.0
101.063	2.0
101.078	2.0
101.093	1.0
101.108	2.0
101.123	2.0
101.137	4.0
101.152	3.0
101.167	6.0
101.182	6.0
101.197	4.0
101.211	5.0
101.226	3.0
101.241	3.0
101.256	6.0
101.271	1.0
101.285	1.0
101.3	4.0
101.315	1.0
101.33	4.0
101.345	2.0
101.359	3.0
101.374	3.0
101.389	5.0
101.404	1.0
101.419	0.0
101.433	2.0
101.448	5.0
101.463	2.0
101.478	3.0
101.493	3.0
101.507	1.0
101.522	1.0
101.537	7.0
101.552	1.0
101.567	3.0
101.581	3.0
101.596	4.0
101.611	3.0
101.626	2.0
101.64	0.0
101.655	2.0
101.67	5.0
101.685	3.0
101.7	4.0
101.714	2.0
101.729	3.0
101.744	2.0
101.759	4.0
101.773	3.0
101.788	6.0
101.803	4.0
101.818	1.0
101.833	3.0
101.847	2.0
101.862	1.0
101.877	2.0
101.892	0.0
101.906	2.0
101.921	3.0
101.936	5.0
101.951	1.0
101.965	6.0
101.98	3.0
101.995	0.0
102.01	5.0
102.025	3.0
102.039	4.0
102.054	3.0
102.069	2.0
102.084	6.0
102.098	2.0
102.113	4.0
102.128	0.0
102.143	5.0
102.157	0.0
102.172	2.0
102.187	1.0
102.202	7.0
102.216	2.0
102.231	6.0
102.246	1.0
102.261	3.0
102.275	2.0
102.29	5.0
102.305	0.0
102.32	4.0
102.334	3.0
102.349	3.0
102.364	2.0
102.378	3.0
102.393	4.0
102.408	5.0
102.423	7.0
102.437	1.0
102.452	0.0
102.467	2.0
102.482	3.0
102.496	10.0
102.511	2.0
102.526	5.0
102.541	3.0
102.555	5.0
102.57	2.0
102.585	1.0
102.6	2.0
102.614	3.0
102.629	2.0
102.644	4.0
102.659	3.0
102.673	3.0
102.688	2.0
102.703	4.0
102.717	5.0
102.732	3.0
102.747	4.0
102.762	1.0
102.776	4.0
102.791	2.0
102.806	8.0
102.821	2.0
102.835	3.0
102.85	4.0
102.865	2.0
102.88	3.0
102.894	4.0
102.909	4.0
102.924	3.0
102.938	4.0
102.953	8.0
102.968	1.0
102.983	0.0
102.997	7.0
103.012	4.0
103.027	2.0
103.042	3.0
103.056	5.0
103.071	1.0
103.086	3.0
103.101	3.0
103.115	2.0
103.13	2.0
103.145	4.0
103.16	4.0
103.174	6.0
103.189	6.0
103.204	2.0
103.219	5.0
103.233	4.0
103.248	3.0
103.263	4.0
103.278	1.0
103.292	2.0
103.307	4.0
103.322	2.0
103.337	1.0
103.351	1.0
103.366	5.0
103.381	8.0
103.396	3.0
103.41	2.0
103.425	2.0
103.44	4.0
103.455	8.0
103.469	2.0
103.484	1.0
103.499	4.0
103.514	3.0
103.529	4.0
103.543	0.0
103.558	2.0
103.573	3.0
103.588	3.0
103.602	3.0
103.617	3.0
103.632	3.0
103.647	3.0
103.661	3.0
103.676	8.0
103.691	4.0
103.706	4.0
103.721	1.0
103.735	2.0
103.75	2.0
103.765	5.0
103.78	6.0
103.795	4.0
103.809	1.0
103.824	10.0
103.839	5.0
103.854	2.0
103.869	3.0
103.883	4.0
103.898	3.0
103.913	3.0
103.928	1.0
103.943	1.0
103.957	2.0
103.972	6.0
103.987	2.0
104.002	1.0
104.017	6.0
104.031	2.0
104.046	3.0
104.061	1.0
104.076	2.0
104.091	2.0
104.106	3.0
104.12	2.0
104.135	3.0
104.15	5.0
104.165	2.0
104.18	4.0
104.195	9.0
104.209	1.0
104.224	4.0
104.239	3.0
104.254	3.0
104.269	3.0
104.284	1.0
104.299	4.0
104.313	3.0
104.328	5.0
104.343	5.0
104.358	0.0
104.373	3.0
104.388	4.0
104.403	2.0
104.417	2.0
104.432	6.0
104.447	5.0
104.462	1.0
104.477	1.0
104.492	4.0
104.507	1.0
104.522	0.0
104.536	7.0
104.551	6.0
104.566	3.0
104.581	3.0
104.596	6.0
104.611	3.0
104.626	5.0
104.641	2.0
104.656	5.0
104.67	2.0
104.685	3.0
104.7	2.0
104.715	1.0
104.73	2.0
104.745	3.0
104.76	3.0
104.775	4.0
104.79	3.0
104.804	3.0
104.819	2.0
104.834	7.0
104.849	3.0
104.864	4.0
104.879	3.0
104.894	2.0
104.909	3.0
104.924	4.0
104.939	3.0
104.954	5.0
104.968	3.0
104.983	3.0
104.998	4.0
105.013	2.0
105.028	1.0
105.043	1.0
105.058	1.0
105.073	6.0
105.088	1.0
105.103	4.0
105.118	4.0
105.133	4.0
105.147	2.0
105.162	3.0
105.177	2.0
105.192	1.0
105.207	2.0
105.222	2.0
105.237	2.0
105.252	0.0
105.267	4.0
105.282	2.0
105.297	3.0
105.312	1.0
105.327	3.0
105.342	1.0
105.356	7.0
105.371	4.0
105.386	5.0
105.401	4.0
105.416	1.0
105.431	4.0
105.446	6.0
105.461	2.0
105.476	3.0
105.491	3.0
105.506	2.0
105.521	3.0
105.536	5.0
105.551	3.0
105.566	1.0
105.581	6.0
105.595	1.0
105.61	3.0
105.625	5.0
105.64	3.0
105.655	3.0
105.67	2.0
105.685	2.0
105.7	3.0
105.715	5.0
105.73	1.0
105.745	2.0
105.76	1.0
105.775	2.0
105.79	2.0
105.805	4.0
105.82	1.0
105.835	3.0
105.85	4.0
105.864	4.0
105.879	1.0
105.894	5.0
105.909	3.0
105.924	5.0
105.939	0.0
105.954	7.0
105.969	2.0
105.984	7.0
105.999	3.0
106.014	2.0
106.029	5.0
106.044	1.0
106.059	3.0
106.074	4.0
106.089	1.0
106.104	4.0
106.119	5.0
106.134	3.0
106.148	3.0
106.163	5.0
106.178	1.0
106.193	1.0
106.208	5.0
106.223	3.0
106.238	1.0
106.253	8.0
106.268	5.0
106.283	1.0
106.298	1.0
106.313	7.0
106.328	3.0
106.343	8.0
106.358	6.0
106.373	3.0
106.388	3.0
106.403	1.0
106.418	2.0
106.432	2.0
106.447	4.0
106.462	4.0
106.477	2.0
106.492	3.0
106.507	2.0
106.522	3.0
106.537	3.0
106.552	4.0
106.567	6.0
106.582	5.0
106.597	3.0
106.612	4.0
106.627	1.0
106.642	3.0
106.657	3.0
106.672	4.0
106.687	2.0
106.701	2.0
106.716	4.0
106.731	4.0
106.746	7.0
106.761	3.0
106.776	1.0
106.791	8.0
106.806	3.0
106.821	5.0
106.836	3.0
106.851	2.0
106.866	3.0
106.881	1.0
106.896	2.0
106.911	1.0
106.926	0.0
106.941	5.0
106.955	10.0
106.97	4.0
106.985	3.0
107.0	4.0
107.015	6.0
107.03	3.0
107.045	3.0
107.06	3.0
107.075	2.0
107.09	6.0
107.105	6.0
107.12	3.0
107.135	3.0
107.15	4.0
107.165	4.0
107.18	5.0
107.194	3.0
107.209	8.0
107.224	5.0
107.239	3.0
107.254	2.0
107.269	4.0
107.284	6.0
107.299	8.0
107.314	5.0
107.329	4.0
107.344	3.0
107.359	1.0
107.374	3.0
107.389	0.0
107.404	3.0
107.418	1.0
107.433	3.0
107.448	4.0
107.463	4.0
107.478	3.0
107.493	2.0
107.508	1.0
107.523	3.0
107.538	0.0
107.553	2.0
107.568	2.0
107.583	2.0
107.598	2.0
107.613	2.0
107.627	3.0
107.642	2.0
107.657	2.0
107.672	1.0
107.687	1.0
107.702	4.0
107.717	5.0
107.732	4.0
107.747	2.0
107.762	0.0
107.777	2.0
107.792	2.0
107.807	0.0
107.821	3.0
107.836	0.0
107.851	3.0
107.866	3.0
107.881	2.0
107.896	2.0
107.911	7.0
107.926	3.0
107.941	2.0
107.956	4.0
107.971	6.0
107.986	8.0
108.0	3.0
108.015	3.0
108.03	1.0
108.045	7.0
108.06	6.0
108.075	1.0
108.09	4.0
108.105	4.0
108.12	5.0
108.135	5.0
108.15	3.0
108.164	2.0
108.179	7.0
108.194	3.0
108.209	3.0
108.224	7.0
108.239	7.0
108.254	0.0
108.269	2.0
108.284	3.0
108.299	2.0
108.313	1.0
108.328	1.0
108.343	2.0
108.358	2.0
108.373	3.0
108.388	3.0
108.403	4.0
108.418	5.0
108.433	1.0
108.448	4.0
108.462	2.0
108.477	4.0
108.492	2.0
108.507	3.0
108.522	6.0
108.537	4.0
108.552	3.0
108.567	3.0
108.582	5.0
108.597	6.0
108.611	1.0
108.626	4.0
108.641	2.0
108.656	4.0
108.671	4.0
108.686	0.0
108.701	6.0
108.716	3.0
108.731	1.0
108.745	3.0
108.76	5.0
108.775	0.0
108.79	5.0
108.805	1.0
108.82	2.0
108.835	1.0
108.85	1.0
108.865	1.0
108.879	3.0
108.894	3.0
108.909	1.0
108.924	3.0
108.939	4.0
108.954	5.0
108.969	2.0
108.984	6.0
108.999	3.0
109.013	7.0
109.028	6.0
109.043	1.0
109.058	2.0
109.073	7.0
109.088	5.0
109.103	4.0
109.118	1.0
109.133	7.0
109.147	2.0
109.162	1.0
109.177	5.0
109.192	7.0
109.207	3.0
109.222	7.0
109.237	0.0
109.252	7.0
109.267	3.0
109.281	2.0
109.296	1.0
109.311	0.0
109.326	4.0
109.341	1.0
109.356	2.0
109.371	1.0
109.386	0.0
109.4	6.0
109.415	3.0
109.43	5.0
109.445	3.0
109.46	2.0
109.475	3.0
109.49	3.0
109.505	2.0
109.52	3.0
109.534	5.0
109.549	1.0
109.564	3.0
109.579	3.0
109.594	3.0
109.609	3.0
109.624	5.0
109.639	7.0
109.653	3.0
109.668	2.0
109.683	4.0
109.698	3.0
109.713	2.0
109.728	1.0
109.743	2.0
109.758	3.0
109.773	5.0
109.787	4.0
109.802	0.0
109.817	2.0
109.832	4.0
109.847	4.0
109.862	5.0
109.877	1.0
109.892	1.0
109.907	3.0
109.921	7.0
109.936	2.0
109.951	1.0
109.966	2.0
109.981	3.0
109.996	5.0
110.011	3.0
110.026	5.0
110.04	5.0
110.055	1.0
110.07	5.0
110.085	5.0
110.1	2.0
110.115	2.0
110.13	5.0
110.145	1.0
110.16	2.0
110.174	4.0
110.189	1.0
110.204	3.0
110.219	5.0
110.234	4.0
110.249	3.0
110.264	5.0
110.279	4.0
110.294	6.0
110.308	2.0
110.323	4.0
110.338	1.0
110.353	2.0
110.368	1.0
110.383	1.0
110.398	7.0
110.413	2.0
110.428	4.0
110.442	3.0
110.457	5.0
110.472	2.0
110.487	1.0
110.502	1.0
110.517	5.0
110.532	2.0
110.547	7.0
110.561	5.0
110.576	4.0
110.591	6.0
110.606	2.0
110.621	1.0
110.636	1.0
110.651	3.0
110.666	3.0
110.681	4.0
110.695	5.0
110.71	4.0
110.725	4.0
110.74	3.0
110.755	7.0
110.77	4.0
110.785	1.0
110.8	4.0
110.815	3.0
110.829	1.0
110.844	5.0
110.859	0.0
110.874	5.0
110.889	3.0
110.904	3.0
110.919	4.0
110.934	6.0
110.948	2.0
110.963	5.0
110.978	5.0
110.993	4.0
111.008	3.0
111.023	6.0
111.038	3.0
111.053	3.0
111.067	3.0
111.082	1.0
111.097	4.0
111.112	1.0
111.127	3.0
111.142	0.0
111.157	2.0
111.172	3.0
111.186	2.0
111.201	4.0
111.216	2.0
111.231	2.0
111.246	2.0
111.261	4.0
111.276	3.0
111.291	2.0
111.305	7.0
111.32	3.0
111.335	2.0
111.35	3.0
111.365	2.0
111.38	2.0
111.395	2.0
111.41	2.0
111.424	2.0
111.439	3.0
111.454	4.0
111.469	6.0
111.484	2.0
111.499	5.0
111.514	5.0
111.528	2.0
111.543	3.0
111.558	4.0
111.573	7.0
111.588	3.0
111.603	5.0
111.618	5.0
111.633	5.0
111.647	3.0
111.662	4.0
111.677	3.0
111.692	6.0
111.707	0.0
111.722	6.0
111.737	7.0
111.751	3.0
111.766	7.0
111.781	1.0
111.796	0.0
111.811	5.0
111.826	2.0
111.84	5.0
111.855	3.0
111.87	2.0
111.885	3.0
111.9	3.0
111.915	0.0
111.93	4.0
111.944	4.0
111.959	6.0
111.974	0.0
111.989	2.0
112.004	4.0
112.019	4.0
112.033	4.0
112.048	3.0
112.063	6.0
112.078	3.0
112.093	2.0
112.108	4.0
112.123	5.0
112.137	1.0
112.152	4.0
112.167	7.0
112.182	6.0
112.197	6.0
112.212	4.0
112.226	9.0
112.241	2.0
112.256	2.0
112.271	0.0
112.286	4.0
112.301	5.0
112.315	3.0
112.33	2.0
112.345	5.0
112.36	3.0
112.375	2.0
112.389	3.0
112.404	2.0
112.419	3.0
112.434	2.0
112.449	2.0
112.464	4.0
112.478	3.0
112.493	5.0
112.508	4.0
112.523	2.0
112.538	5.0
112.553	3.0
112.567	8.0
112.582	2.0
112.597	1.0
112.612	3.0
112.627	5.0
112.642	2.0
112.656	6.0
112.671	1.0
112.686	3.0
112.701	2.0
112.716	5.0
112.73	3.0
112.745	3.0
112.76	1.0
112.775	3.0
112.79	3.0
112.805	7.0
112.819	4.0
112.834	2.0
112.849	3.0
112.864	7.0
112.879	3.0
112.894	2.0
112.908	5.0
112.923	5.0
112.938	3.0
112.953	3.0
112.968	7.0
112.983	4.0
112.997	3.0
113.012	3.0
113.027	4.0
113.042	3.0
113.057	4.0
113.072	2.0
113.086	1.0
113.101	4.0
113.116	2.0
113.131	5.0
113.146	1.0
113.161	5.0
113.175	2.0
113.19	3.0
113.205	4.0
113.22	8.0
113.235	5.0
113.25	3.0
113.265	1.0
113.279	3.0
113.294	6.0
113.309	4.0
113.324	3.0
113.339	1.0
113.354	3.0
113.368	3.0
113.383	4.0
113.398	4.0
113.413	1.0
113.428	3.0
113.443	2.0
113.458	3.0
113.472	4.0
113.487	3.0
113.502	2.0
113.517	4.0
113.532	4.0
113.547	1.0
113.562	3.0
113.576	0.0
113.591	6.0
113.606	1.0
113.621	4.0
113.636	1.0
113.651	3.0
113.666	3.0
113.681	7.0
113.695	3.0
113.71	3.0
113.725	3.0
113.74	4.0
113.755	5.0
113.77	2.0
113.785	2.0
113.8	4.0
113.814	2.0
113.829	2.0
113.844	4.0
113.859	3.0
113.874	3.0
113.889	3.0
113.904	3.0
113.919	5.0
113.934	5.0
113.949	2.0
113.963	6.0
113.978	4.0
113.993	1.0
114.008	2.0
114.023	4.0
114.038	1.0
114.053	2.0
114.068	5.0
114.083	3.0
114.098	2.0
114.113	0.0
114.127	0.0
114.142	4.0
114.157	2.0
114.172	3.0
114.187	2.0
114.202	5.0
114.217	2.0
114.232	1.0
114.247	3.0
114.262	4.0
114.277	3.0
114.292	3.0
114.307	4.0
114.322	6.0
114.337	3.0
114.351	1.0
114.366	5.0
114.381	5.0
114.396	7.0
114.411	5.0
114.426	1.0
114.441	6.0
114.456	2.0
114.471	1.0
114.486	4.0
114.501	1.0
114.516	4.0
114.531	2.0
114.546	7.0
114.561	2.0
114.576	4.0
114.591	3.0
114.606	9.0
114.621	3.0
114.636	8.0
114.65	0.0
114.665	2.0
114.68	3.0
114.695	5.0
114.71	3.0
114.725	2.0
114.74	3.0
114.755	2.0
114.77	6.0
114.785	4.0
114.8	1.0
114.815	7.0
114.83	4.0
114.845	4.0
114.86	2.0
114.875	3.0
114.89	4.0
114.905	1.0
114.92	3.0
114.935	2.0
114.95	2.0
114.965	5.0
114.98	2.0
114.995	7.0
115.009	4.0
115.024	2.0
115.039	4.0
115.054	1.0
115.069	1.0
115.084	6.0
115.099	2.0
115.114	8.0
115.129	4.0
115.144	1.0
115.159	6.0
115.174	4.0
115.189	7.0
115.204	2.0
115.219	4.0
115.234	4.0
115.249	4.0
115.264	3.0
115.279	6.0
115.294	5.0
115.309	5.0
115.323	3.0
115.338	5.0
115.353	5.0
115.368	1.0
115.383	7.0
115.398	4.0
115.413	1.0
115.428	3.0
115.443	3.0
115.458	4.0
115.473	3.0
115.488	5.0
115.503	0.0
115.518	6.0
115.533	0.0
115.548	1.0
115.562	2.0
115.577	4.0
115.592	3.0
115.607	4.0
115.622	2.0
115.637	4.0
115.652	4.0
115.667	4.0
115.682	2.0
115.697	5.0
115.712	1.0
115.727	5.0
115.741	2.0
115.756	4.0
115.771	7.0
115.786	4.0
115.801	3.0
115.816	5.0
115.831	2.0
115.846	3.0
115.861	1.0
115.875	7.0
115.89	3.0
115.905	4.0
115.92	6.0
115.935	2.0
115.95	2.0
115.965	2.0
115.98	6.0
115.995	6.0
116.009	5.0
116.024	2.0
116.039	2.0
116.054	3.0
116.069	4.0
116.084	6.0
116.099	5.0
116.113	3.0
116.128	4.0
116.143	8.0
116.158	3.0
116.173	2.0
116.188	7.0
116.202	3.0
116.217	4.0
116.232	7.0
116.247	4.0
116.262	0.0
116.277	5.0
116.291	3.0
116.306	3.0
116.321	1.0
116.336	3.0
116.351	1.0
116.366	6.0
116.38	5.0
116.395	4.0
116.41	7.0
116.425	1.0
116.44	5.0
116.454	4.0
116.469	4.0
116.484	7.0
116.499	3.0
116.514	3.0
116.528	3.0
116.543	4.0
116.558	2.0
116.573	5.0
116.588	2.0
116.602	5.0
116.617	4.0
116.632	4.0
116.647	4.0
116.662	5.0
116.676	1.0
116.691	2.0
116.706	3.0
116.721	2.0
116.735	3.0
116.75	0.0
116.765	1.0
116.78	4.0
116.795	3.0
116.809	1.0
116.824	2.0
116.839	1.0
116.854	3.0
116.868	5.0
116.883	3.0
116.898	2.0
116.913	4.0
116.927	3.0
116.942	2.0
116.957	1.0
116.972	1.0
116.986	3.0
117.001	3.0
117.016	4.0
117.031	4.0
117.045	2.0
117.06	1.0
117.075	4.0
117.09	3.0
117.104	3.0
117.119	4.0
117.134	3.0
117.149	3.0
117.163	3.0
117.178	1.0
117.193	4.0
117.208	5.0
117.222	2.0
117.237	0.0
117.252	3.0
117.267	4.0
117.281	3.0
117.296	2.0
117.311	3.0
117.325	5.0
117.34	3.0
117.355	7.0
117.37	2.0
117.384	1.0
117.399	3.0
117.414	1.0
117.429	4.0
117.443	1.0
117.458	5.0
117.473	3.0
117.487	1.0
117.502	1.0
117.517	3.0
117.532	2.0
117.546	2.0
117.561	1.0
117.576	3.0
117.59	3.0
117.605	3.0
117.62	2.0
117.635	1.0
117.649	4.0
117.664	2.0
117.679	2.0
117.693	5.0
117.708	7.0
117.723	10.0
117.738	4.0
117.752	4.0
117.767	7.0
117.782	0.0
117.796	5.0
117.811	3.0
117.826	1.0
117.841	3.0
117.855	1.0
117.87	2.0
117.885	3.0
117.899	2.0
117.914	3.0
117.929	2.0
117.944	4.0
117.958	3.0
117.973	4.0
117.988	3.0
118.002	4.0
118.017	5.0
118.032	6.0
118.047	2.0
118.062	5.0
118.077	7.0
118.092	1.0
118.107	4.0
118.121	0.0
118.136	5.0
118.151	3.0
118.166	2.0
118.181	3.0
118.196	7.0
118.211	5.0
118.225	5.0
118.24	4.0
118.255	5.0
118.27	4.0
118.285	8.0
118.3	2.0
118.315	5.0
118.33	4.0
118.344	7.0
118.359	4.0
118.374	5.0
118.389	4.0
118.404	6.0
118.419	4.0
118.434	1.0
118.449	3.0
118.463	3.0
118.478	3.0
118.493	4.0
118.508	5.0
118.523	5.0
118.538	2.0
118.553	2.0
118.567	2.0
118.582	5.0
118.597	2.0
118.612	3.0
118.627	1.0
118.642	0.0
118.657	1.0
118.672	1.0
118.686	0.0
118.701	6.0
118.716	4.0
118.731	0.0
118.746	5.0
118.761	3.0
118.776	4.0
118.791	8.0
118.805	4.0
118.82	2.0
118.835	2.0
118.85	1.0
118.865	6.0
118.88	2.0
118.895	5.0
118.909	7.0
118.924	5.0
118.939	3.0
118.954	4.0
118.969	2.0
118.984	6.0
118.999	2.0
119.014	3.0
119.028	4.0
119.043	1.0
119.058	2.0
119.073	3.0
119.088	2.0
119.103	2.0
119.118	5.0
119.133	2.0
119.147	5.0
119.162	2.0
119.177	2.0
119.192	1.0
119.207	5.0
119.222	5.0
119.237	4.0
119.251	3.0
119.266	4.0
119.281	4.0
119.296	6.0
119.311	3.0
119.326	2.0
119.341	4.0
119.356	1.0
119.37	1.0
119.385	2.0
119.4	2.0
119.415	4.0
119.43	3.0
119.445	4.0
119.46	2.0
119.475	5.0
119.489	3.0
119.504	3.0
119.519	4.0
119.534	0.0
119.549	1.0
119.564	3.0
119.579	5.0
119.593	4.0
119.608	6.0
119.623	3.0
119.638	2.0
119.653	1.0
119.668	4.0
119.683	7.0
119.698	3.0
119.712	3.0
119.727	5.0
119.742	2.0
119.757	5.0
119.772	4.0
119.787	5.0
119.802	6.0
119.817	3.0
119.831	4.0
119.846	4.0
119.861	2.0
119.876	4.0
119.891	4.0
119.906	2.0
119.921	0.0
119.935	3.0
119.95	1.0
119.965	0.0
119.98	3.0
119.995	3.0
120.01	2.0
120.025	5.0
120.04	0.0
120.054	1.0
120.069	1.0
120.084	4.0
120.099	6.0
120.114	2.0
120.129	1.0
120.144	2.0
120.159	3.0
120.173	1.0
120.188	0.0
120.203	2.0
120.218	0.0
120.233	3.0
120.248	0.0
120.263	0.0
120.277	0.0
120.292	0.0
120.307	1.0
120.322	0.0
120.337	0.0
120.352	1.0
120.367	1.0
120.382	0.0
120.396	0.0
120.411	0.0
120.426	0.0
120.441	0.0
120.456	0.0
120.471	0.0
120.486	0.0
120.501	1.0
120.515	0.0
120.53	1.0
120.545	0.0
120.56	1.0
120.575	0.0
120.59	0.0
120.605	0.0
120.619	0.0
120.634	0.0
120.649	0.0
120.664	0.0
120.679	0.0
120.694	1.0
120.709	0.0
120.724	0.0
120.738	0.0
120.753	0.0
120.768	0.0
120.783	0.0
120.798	0.0
120.813	0.0
120.828	0.0
120.843	0.0
120.857	0.0
120.872	0.0
120.887	0.0
120.902	1.0
120.917	0.0
120.932	0.0
120.947	0.0
120.961	0.0
120.976	0.0
