-1.217	0.0
-1.202	0.0
-1.187	0.0
-1.172	0.0
-1.157	0.0
-1.142	0.0
-1.128	0.0
-1.113	0.0
-1.098	0.0
-1.083	0.0
-1.068	0.0
-1.054	0.0
-1.039	0.0
-1.024	0.0
-1.009	0.0
-0.994	0.0
-0.979	0.0
-0.965	0.0
-0.95	0.0
-0.935	1.0
-0.92	0.0
-0.905	0.0
-0.891	0.0
-0.876	0.0
-0.861	0.0
-0.846	0.0
-0.831	0.0
-0.816	0.0
-0.802	0.0
-0.787	0.0
-0.772	1.0
-0.757	0.0
-0.742	0.0
-0.728	0.0
-0.713	0.0
-0.698	0.0
-0.683	0.0
-0.668	0.0
-0.653	0.0
-0.639	0.0
-0.624	0.0
-0.609	0.0
-0.594	0.0
-0.579	0.0
-0.565	0.0
-0.55	0.0
-0.535	0.0
-0.52	0.0
-0.505	0.0
-0.49	0.0
-0.476	0.0
-0.461	0.0
-0.446	1.0
-0.431	0.0
-0.416	0.0
-0.401	0.0
-0.387	0.0
-0.372	0.0
-0.357	0.0
-0.342	0.0
-0.327	0.0
-0.313	0.0
-0.298	0.0
-0.283	0.0
-0.268	0.0
-0.253	0.0
-0.238	0.0
-0.224	0.0
-0.209	0.0
-0.194	0.0
-0.179	0.0
-0.164	0.0
-0.15	0.0
-0.135	0.0
-0.12	0.0
-0.105	0.0
-0.09	0.0
-0.075	0.0
-0.061	0.0
-0.046	0.0
-0.031	0.0
-0.016	0.0
-0.001	1.0
0.013	0.0
0.028	0.0
0.043	0.0
0.058	0.0
0.073	0.0
0.088	0.0
0.102	0.0
0.117	0.0
0.132	0.0
0.147	0.0
0.162	0.0
0.176	0.0
0.191	0.0
0.206	0.0
0.221	0.0
0.236	0.0
0.251	0.0
0.265	0.0
0.28	0.0
0.295	0.0
0.31	0.0
0.325	0.0
0.339	0.0
0.354	0.0
0.369	0.0
0.384	0.0
0.399	0.0
0.414	0.0
0.428	0.0
0.443	0.0
0.458	0.0
0.473	0.0
0.488	1.0
0.502	0.0
0.517	0.0
0.532	0.0
0.547	0.0
0.562	0.0
0.577	0.0
0.591	0.0
0.606	0.0
0.621	0.0
0.636	0.0
0.651	0.0
0.665	0.0
0.68	0.0
0.695	0.0
0.71	0.0
0.725	0.0
0.74	0.0
0.754	0.0
0.769	0.0
0.784	0.0
0.799	0.0
0.814	0.0
0.828	0.0
0.843	0.0
0.858	0.0
0.873	0.0
0.888	0.0
0.903	0.0
0.917	0.0
0.932	0.0
0.947	0.0
0.962	1.0
0.977	1.0
0.991	0.0
1.006	0.0
1.021	0.0
1.036	0.0
1.051	0.0
1.065	1.0
1.08	0.0
1.095	0.0
1.11	0.0
1.125	0.0
1.14	0.0
1.154	0.0
1.169	0.0
1.184	0.0
1.199	0.0
1.214	0.0
1.228	0.0
1.243	0.0
1.258	0.0
1.273	0.0
1.288	0.0
1.302	0.0
1.317	0.0
1.332	0.0
1.347	0.0
1.362	0.0
1.376	0.0
1.391	0.0
1.406	0.0
1.421	0.0
1.436	0.0
1.45	1.0
1.465	0.0
1.48	0.0
1.495	0.0
1.51	0.0
1.524	0.0
1.539	0.0
1.554	0.0
1.569	0.0
1.584	0.0
1.598	1.0
1.613	1.0
1.628	0.0
1.643	0.0
1.658	2.0
1.672	0.0
1.687	0.0
1.702	0.0
1.717	1.0
1.732	1.0
1.746	0.0
1.761	0.0
1.776	0.0
1.791	0.0
1.806	0.0
1.82	0.0
1.835	0.0
1.85	0.0
1.865	0.0
1.88	0.0
1.894	0.0
1.909	0.0
1.924	0.0
1.939	0.0
1.954	0.0
1.968	0.0
1.983	0.0
1.998	0.0
2.013	0.0
2.028	1.0
2.042	0.0
2.057	1.0
2.072	0.0
2.087	0.0
2.101	0.0
2.116	0.0
2.131	0.0
2.146	0.0
2.161	0.0
2.175	0.0
2.19	0.0
2.205	0.0
2.22	2.0
2.235	0.0
2.249	1.0
2.264	0.0
2.279	0.0
2.294	0.0
2.308	1.0
2.323	0.0
2.338	0.0
2.353	0.0
2.368	0.0
2.382	1.0
2.397	1.0
2.412	0.0
2.427	1.0
2.442	0.0
2.456	0.0
2.471	1.0
2.486	3.0
2.501	2.0
2.515	1.0
2.53	1.0
2.545	1.0
2.56	5.0
2.575	1.0
2.589	3.0
2.604	2.0
2.619	1.0
2.634	3.0
2.649	3.0
2.663	3.0
2.678	2.0
2.693	3.0
2.708	3.0
2.722	1.0
2.737	3.0
2.752	0.0
2.767	2.0
2.782	3.0
2.796	0.0
2.811	7.0
2.826	2.0
2.841	4.0
2.856	5.0
2.87	4.0
2.885	3.0
2.9	2.0
2.915	3.0
2.93	3.0
2.944	2.0
2.959	2.0
2.974	4.0
2.989	5.0
3.004	6.0
3.018	5.0
3.033	3.0
3.048	3.0
3.063	6.0
3.078	4.0
3.092	8.0
3.107	2.0
3.122	3.0
3.137	6.0
3.152	3.0
3.166	3.0
3.181	5.0
3.196	2.0
3.211	3.0
3.226	1.0
3.24	6.0
3.255	4.0
3.27	5.0
3.285	11.0
3.3	2.0
3.315	3.0
3.329	5.0
3.344	5.0
3.359	3.0
3.374	5.0
3.389	8.0
3.403	5.0
3.418	4.0
3.433	2.0
3.448	5.0
3.463	2.0
3.478	5.0
3.492	7.0
3.507	8.0
3.522	4.0
3.537	5.0
3.552	6.0
3.567	6.0
3.581	4.0
3.596	5.0
3.611	7.0
3.626	6.0
3.641	5.0
3.656	10.0
3.671	4.0
3.685	8.0
3.7	7.0
3.715	2.0
3.73	11.0
3.745	2.0
3.76	3.0
3.775	7.0
3.789	5.0
3.804	9.0
3.819	8.0
3.834	8.0
3.849	10.0
3.864	8.0
3.879	4.0
3.894	7.0
3.908	5.0
3.923	9.0
3.938	8.0
3.953	6.0
3.968	5.0
3.983	5.0
3.998	9.0
4.013	9.0
4.027	4.0
4.042	11.0
4.057	5.0
4.072	8.0
4.087	13.0
4.102	6.0
4.117	3.0
4.132	6.0
4.147	7.0
4.162	4.0
4.176	4.0
4.191	7.0
4.206	11.0
4.221	6.0
4.236	16.0
4.251	6.0
4.266	8.0
4.281	6.0
4.296	8.0
4.311	4.0
4.326	4.0
4.341	5.0
4.356	8.0
4.37	5.0
4.385	6.0
4.4	10.0
4.415	15.0
4.43	11.0
4.445	7.0
4.46	7.0
4.475	10.0
4.49	6.0
4.505	6.0
4.52	13.0
4.535	2.0
4.55	11.0
4.565	7.0
4.58	6.0
4.595	5.0
4.61	6.0
4.625	10.0
4.639	7.0
4.654	8.0
4.669	3.0
4.684	7.0
4.699	10.0
4.714	4.0
4.729	10.0
4.744	10.0
4.759	12.0
4.774	10.0
4.789	9.0
4.804	7.0
4.819	5.0
4.834	7.0
4.849	10.0
4.864	6.0
4.879	5.0
4.894	8.0
4.909	8.0
4.924	7.0
4.939	10.0
4.954	6.0
4.969	10.0
4.984	5.0
4.999	8.0
5.014	5.0
5.029	3.0
5.044	4.0
5.059	8.0
5.074	10.0
5.089	7.0
5.104	7.0
5.119	15.0
5.134	5.0
5.149	5.0
5.164	6.0
5.179	6.0
5.194	10.0
5.209	4.0
5.224	6.0
5.239	10.0
5.254	9.0
5.269	8.0
5.284	8.0
5.299	10.0
5.314	10.0
5.329	6.0
5.344	7.0
5.359	10.0
5.374	8.0
5.389	11.0
5.404	8.0
5.419	6.0
5.434	2.0
5.449	13.0
5.464	9.0
5.479	6.0
5.494	6.0
5.509	5.0
5.524	7.0
5.539	9.0
5.554	12.0
5.569	15.0
5.584	6.0
5.599	5.0
5.614	7.0
5.629	12.0
5.644	6.0
5.659	9.0
5.674	11.0
5.689	8.0
5.704	7.0
5.719	10.0
5.734	19.0
5.749	8.0
5.764	11.0
5.779	5.0
5.794	8.0
5.809	4.0
5.824	7.0
5.839	7.0
5.854	8.0
5.869	9.0
5.884	10.0
5.899	6.0
5.914	9.0
5.929	7.0
5.944	12.0
5.959	10.0
5.974	6.0
5.989	8.0
6.004	7.0
6.019	10.0
6.034	8.0
6.049	7.0
6.064	7.0
6.079	6.0
6.094	14.0
6.109	10.0
6.124	8.0
6.139	5.0
6.154	9.0
6.169	3.0
6.184	7.0
6.199	5.0
6.214	11.0
6.229	9.0
6.244	13.0
6.259	10.0
6.274	5.0
6.289	11.0
6.304	3.0
6.319	6.0
6.334	8.0
6.349	9.0
6.364	12.0
6.379	11.0
6.394	10.0
6.409	9.0
6.424	9.0
6.439	13.0
6.454	11.0
6.469	6.0
6.484	3.0
6.499	13.0
6.514	10.0
6.529	7.0
6.544	14.0
6.559	11.0
6.574	6.0
6.589	14.0
6.604	5.0
6.619	16.0
6.634	8.0
6.649	5.0
6.664	9.0
6.679	12.0
6.694	4.0
6.709	6.0
6.724	4.0
6.739	9.0
6.754	4.0
6.769	14.0
6.784	5.0
6.799	4.0
6.814	11.0
6.829	7.0
6.844	6.0
6.859	11.0
6.873	7.0
6.888	9.0
6.903	18.0
6.918	13.0
6.933	10.0
6.948	9.0
6.963	8.0
6.978	10.0
6.993	12.0
7.008	10.0
7.023	9.0
7.038	6.0
7.053	10.0
7.068	10.0
7.083	6.0
7.098	9.0
7.113	6.0
7.128	12.0
7.143	9.0
7.157	13.0
7.172	6.0
7.187	10.0
7.202	9.0
7.217	6.0
7.232	13.0
7.247	9.0
7.262	4.0
7.277	7.0
7.292	13.0
7.307	11.0
7.322	6.0
7.336	13.0
7.351	6.0
7.366	11.0
7.381	11.0
7.396	10.0
7.411	5.0
7.426	8.0
7.441	9.0
7.456	9.0
7.471	15.0
7.485	15.0
7.5	6.0
7.515	4.0
7.53	5.0
7.545	9.0
7.56	6.0
7.575	3.0
7.59	8.0
7.604	8.0
7.619	6.0
7.634	11.0
7.649	11.0
7.664	11.0
7.679	15.0
7.693	12.0
7.708	7.0
7.723	8.0
7.738	8.0
7.753	7.0
7.768	7.0
7.783	8.0
7.797	7.0
7.812	13.0
7.827	11.0
7.842	15.0
7.857	6.0
7.871	11.0
7.886	14.0
7.901	11.0
7.916	8.0
7.931	10.0
7.945	7.0
7.96	7.0
7.975	13.0
7.99	4.0
8.005	8.0
8.019	13.0
8.034	10.0
8.049	7.0
8.064	12.0
8.078	15.0
8.093	13.0
8.108	5.0
8.123	9.0
8.137	9.0
8.152	10.0
8.167	6.0
8.182	12.0
8.196	9.0
8.211	19.0
8.226	9.0
8.241	6.0
8.255	7.0
8.27	12.0
8.285	11.0
8.3	8.0
8.314	7.0
8.329	12.0
8.344	6.0
8.358	7.0
8.373	9.0
8.388	4.0
8.403	14.0
8.417	8.0
8.432	12.0
8.447	6.0
8.461	7.0
8.476	11.0
8.491	11.0
8.505	11.0
8.52	5.0
8.535	9.0
8.55	13.0
8.564	3.0
8.579	9.0
8.594	11.0
8.608	9.0
8.623	15.0
8.638	7.0
8.652	5.0
8.667	8.0
8.682	4.0
8.696	7.0
8.711	10.0
8.726	4.0
8.74	8.0
8.755	10.0
8.77	5.0
8.784	15.0
8.799	13.0
8.814	8.0
8.828	11.0
8.843	11.0
8.858	10.0
8.872	5.0
8.887	12.0
8.902	8.0
8.916	12.0
8.931	11.0
8.946	8.0
8.96	5.0
8.975	6.0
8.99	8.0
9.004	5.0
9.019	7.0
9.034	11.0
9.048	10.0
9.063	8.0
9.077	4.0
9.092	8.0
9.107	9.0
9.121	8.0
9.136	8.0
9.151	10.0
9.165	7.0
9.18	10.0
9.195	12.0
9.209	9.0
9.224	11.0
9.239	6.0
9.253	10.0
9.268	9.0
9.283	10.0
9.297	7.0
9.312	6.0
9.327	4.0
9.341	8.0
9.356	9.0
9.371	12.0
9.385	5.0
9.4	5.0
9.415	6.0
9.429	9.0
9.444	12.0
9.458	10.0
9.473	7.0
9.488	6.0
9.502	7.0
9.517	8.0
9.532	3.0
9.546	7.0
9.561	8.0
9.576	8.0
9.59	8.0
9.605	9.0
9.62	10.0
9.635	7.0
9.649	10.0
9.664	10.0
9.679	11.0
9.693	10.0
9.708	9.0
9.723	4.0
9.737	8.0
9.752	5.0
9.767	6.0
9.781	7.0
9.796	4.0
9.811	13.0
9.825	11.0
9.84	7.0
9.855	9.0
9.87	8.0
9.884	6.0
9.899	10.0
9.914	4.0
9.928	5.0
9.943	13.0
9.958	7.0
9.973	10.0
9.987	9.0
10.002	4.0
10.017	11.0
10.031	4.0
10.046	15.0
10.061	9.0
10.076	7.0
10.09	7.0
10.105	6.0
10.12	9.0
10.135	4.0
10.149	9.0
10.164	11.0
10.179	11.0
10.194	12.0
10.208	7.0
10.223	14.0
10.238	8.0
10.253	13.0
10.267	9.0
10.282	10.0
10.297	6.0
10.312	13.0
10.326	10.0
10.341	4.0
10.356	7.0
10.371	10.0
10.386	11.0
10.4	8.0
10.415	9.0
10.43	10.0
10.445	8.0
10.46	7.0
10.474	8.0
10.489	6.0
10.504	7.0
10.519	4.0
10.533	14.0
10.548	6.0
10.563	13.0
10.578	13.0
10.593	3.0
10.608	3.0
10.622	11.0
10.637	5.0
10.652	9.0
10.667	12.0
10.682	10.0
10.696	7.0
10.711	12.0
10.726	16.0
10.741	12.0
10.756	7.0
10.771	10.0
10.785	6.0
10.8	9.0
10.815	4.0
10.83	5.0
10.845	6.0
10.86	10.0
10.874	10.0
10.889	5.0
10.904	11.0
10.919	6.0
10.934	8.0
10.949	8.0
10.963	12.0
10.978	6.0
10.993	8.0
11.008	6.0
11.023	9.0
11.038	9.0
11.053	8.0
11.067	10.0
11.082	5.0
11.097	7.0
11.112	9.0
11.127	15.0
11.142	7.0
11.157	8.0
11.172	5.0
11.186	11.0
11.201	11.0
11.216	9.0
11.231	6.0
11.246	11.0
11.261	1.0
11.276	11.0
11.291	5.0
11.305	12.0
11.32	10.0
11.335	6.0
11.35	8.0
11.365	15.0
11.38	6.0
11.395	6.0
11.41	3.0
11.424	4.0
11.439	10.0
11.454	8.0
11.469	7.0
11.484	7.0
11.499	6.0
11.514	11.0
11.529	7.0
11.544	8.0
11.558	8.0
11.573	10.0
11.588	8.0
11.603	5.0
11.618	8.0
11.633	6.0
11.648	10.0
11.663	10.0
11.678	9.0
11.693	6.0
11.707	12.0
11.722	9.0
11.737	6.0
11.752	9.0
11.767	10.0
11.782	3.0
11.797	12.0
11.812	8.0
11.827	10.0
11.842	10.0
11.856	2.0
11.871	8.0
11.886	6.0
11.901	14.0
11.916	8.0
11.931	10.0
11.946	7.0
11.961	10.0
11.976	6.0
11.991	7.0
12.006	6.0
12.02	8.0
12.035	6.0
12.05	13.0
12.065	16.0
12.08	8.0
12.095	15.0
12.11	12.0
12.125	6.0
12.14	13.0
12.155	5.0
12.17	7.0
12.184	11.0
12.199	12.0
12.214	14.0
12.229	13.0
12.244	10.0
12.259	15.0
12.274	7.0
12.289	9.0
12.304	8.0
12.319	12.0
12.334	10.0
12.348	12.0
12.363	11.0
12.378	8.0
12.393	14.0
12.408	14.0
12.423	12.0
12.438	14.0
12.453	17.0
12.468	5.0
12.483	16.0
12.498	14.0
12.513	11.0
12.527	14.0
12.542	15.0
12.557	14.0
12.572	10.0
12.587	12.0
12.602	9.0
12.617	5.0
12.632	13.0
12.647	15.0
12.662	15.0
12.677	14.0
12.692	14.0
12.707	18.0
12.721	11.0
12.736	11.0
12.751	10.0
12.766	13.0
12.781	21.0
12.796	15.0
12.811	14.0
12.826	17.0
12.841	16.0
12.856	17.0
12.871	15.0
12.886	22.0
12.9	17.0
12.915	13.0
12.93	16.0
12.945	9.0
12.96	18.0
12.975	16.0
12.99	18.0
13.005	14.0
13.02	16.0
13.035	14.0
13.05	20.0
13.065	11.0
13.08	16.0
13.094	24.0
13.109	19.0
13.124	15.0
13.139	23.0
13.154	15.0
13.169	19.0
13.184	17.0
13.199	21.0
13.214	17.0
13.229	19.0
13.244	15.0
13.259	15.0
13.274	15.0
13.288	26.0
13.303	15.0
13.318	29.0
13.333	15.0
13.348	25.0
13.363	20.0
13.378	33.0
13.393	22.0
13.408	26.0
13.423	33.0
13.438	37.0
13.453	27.0
13.468	22.0
13.482	37.0
13.497	50.0
13.512	46.0
13.527	44.0
13.542	41.0
13.557	51.0
13.572	49.0
13.587	55.0
13.602	45.0
13.617	79.0
13.632	57.0
13.647	79.0
13.662	53.0
13.677	84.0
13.691	88.0
13.706	92.0
13.721	107.0
13.736	88.0
13.751	95.0
13.766	122.0
13.781	115.0
13.796	148.0
13.811	134.0
13.826	128.0
13.841	147.0
13.856	125.0
13.871	115.0
13.885	99.0
13.9	101.0
13.915	77.0
13.93	70.0
13.945	74.0
13.96	39.0
13.975	35.0
13.99	40.0
14.005	28.0
14.02	29.0
14.035	26.0
14.05	25.0
14.065	26.0
14.08	34.0
14.094	26.0
14.109	18.0
14.124	28.0
14.139	19.0
14.154	18.0
14.169	14.0
14.184	26.0
14.199	22.0
14.214	23.0
14.229	18.0
14.244	24.0
14.259	19.0
14.274	14.0
14.288	23.0
14.303	18.0
14.318	26.0
14.333	22.0
14.348	22.0
14.363	20.0
14.378	15.0
14.393	16.0
14.408	21.0
14.423	25.0
14.438	17.0
14.453	16.0
14.468	14.0
14.482	25.0
14.497	17.0
14.512	19.0
14.527	15.0
14.542	21.0
14.557	21.0
14.572	24.0
14.587	15.0
14.602	15.0
14.617	18.0
14.632	14.0
14.647	12.0
14.661	22.0
14.676	15.0
14.691	11.0
14.706	18.0
14.721	10.0
14.736	21.0
14.751	14.0
14.766	14.0
14.781	25.0
14.796	20.0
14.811	18.0
14.826	16.0
14.84	14.0
14.855	26.0
14.87	16.0
14.885	17.0
14.9	13.0
14.915	18.0
14.93	15.0
14.945	16.0
14.96	15.0
14.975	17.0
14.989	26.0
15.004	17.0
15.019	16.0
15.034	11.0
15.049	17.0
15.064	22.0
15.079	15.0
15.094	13.0
15.109	15.0
15.124	13.0
15.138	15.0
15.153	12.0
15.168	16.0
15.183	13.0
15.198	5.0
15.213	8.0
15.228	18.0
15.243	18.0
15.258	21.0
15.272	15.0
15.287	13.0
15.302	16.0
15.317	21.0
15.332	15.0
15.347	18.0
15.362	20.0
15.377	9.0
15.391	12.0
15.406	18.0
15.421	20.0
15.436	20.0
15.451	19.0
15.466	17.0
15.481	12.0
15.496	18.0
15.51	22.0
15.525	21.0
15.54	11.0
15.555	13.0
15.57	11.0
15.585	12.0
15.6	10.0
15.614	16.0
15.629	14.0
15.644	11.0
15.659	14.0
15.674	10.0
15.689	11.0
15.704	17.0
15.718	15.0
15.733	14.0
15.748	10.0
15.763	13.0
15.778	15.0
15.793	15.0
15.808	11.0
15.822	12.0
15.837	19.0
15.852	14.0
15.867	17.0
15.882	21.0
15.897	12.0
15.911	14.0
15.926	18.0
15.941	12.0
15.956	14.0
15.971	17.0
15.986	10.0
16.0	17.0
16.015	10.0
16.03	18.0
16.045	10.0
16.06	11.0
16.074	15.0
16.089	16.0
16.104	13.0
16.119	15.0
16.134	13.0
16.149	10.0
16.163	14.0
16.178	16.0
16.193	21.0
16.208	14.0
16.223	12.0
16.237	11.0
16.252	9.0
16.267	18.0
16.282	11.0
16.297	17.0
16.311	17.0
16.326	18.0
16.341	13.0
16.356	12.0
16.37	12.0
16.385	13.0
16.4	17.0
16.415	17.0
16.43	10.0
16.444	13.0
16.459	14.0
16.474	12.0
16.489	10.0
16.504	15.0
16.518	12.0
16.533	15.0
16.548	23.0
16.563	11.0
16.577	10.0
16.592	16.0
16.607	20.0
16.622	24.0
16.637	12.0
16.651	21.0
16.666	26.0
16.681	23.0
16.696	25.0
16.71	23.0
16.725	21.0
16.74	30.0
16.755	38.0
16.77	35.0
16.784	29.0
16.799	48.0
16.814	41.0
16.829	44.0
16.843	50.0
16.858	48.0
16.873	51.0
16.888	59.0
16.902	68.0
16.917	72.0
16.932	73.0
16.947	76.0
16.961	75.0
16.976	66.0
16.991	70.0
17.006	66.0
17.021	76.0
17.035	55.0
17.05	44.0
17.065	63.0
17.08	43.0
17.094	40.0
17.109	32.0
17.124	41.0
17.139	29.0
17.153	20.0
17.168	21.0
17.183	19.0
17.198	14.0
17.212	11.0
17.227	14.0
17.242	14.0
17.257	15.0
17.271	17.0
17.286	19.0
17.301	13.0
17.316	18.0
17.33	13.0
17.345	20.0
17.36	15.0
17.375	9.0
17.39	19.0
17.404	11.0
17.419	14.0
17.434	18.0
17.449	14.0
17.463	18.0
17.478	9.0
17.493	12.0
17.508	11.0
17.522	19.0
17.537	14.0
17.552	14.0
17.567	16.0
17.581	15.0
17.596	12.0
17.611	9.0
17.626	9.0
17.641	9.0
17.655	8.0
17.67	16.0
17.685	8.0
17.7	5.0
17.714	12.0
17.729	13.0
17.744	7.0
17.759	19.0
17.773	10.0
17.788	16.0
17.803	13.0
17.818	9.0
17.833	10.0
17.847	16.0
17.862	8.0
17.877	15.0
17.892	12.0
17.906	7.0
17.921	10.0
17.936	11.0
17.951	13.0
17.966	12.0
17.98	14.0
17.995	17.0
18.01	15.0
18.025	12.0
18.04	11.0
18.054	15.0
18.069	7.0
18.084	5.0
18.099	13.0
18.114	9.0
18.128	11.0
18.143	9.0
18.158	11.0
18.173	12.0
18.188	10.0
18.202	14.0
18.217	13.0
18.232	15.0
18.247	16.0
18.262	12.0
18.276	11.0
18.291	15.0
18.306	16.0
18.321	14.0
18.336	10.0
18.35	10.0
18.365	12.0
18.38	12.0
18.395	9.0
18.41	11.0
18.424	9.0
18.439	6.0
18.454	9.0
18.469	17.0
18.484	15.0
18.498	13.0
18.513	14.0
18.528	16.0
18.543	11.0
18.558	13.0
18.573	15.0
18.587	14.0
18.602	11.0
18.617	9.0
18.632	15.0
18.647	14.0
18.661	9.0
18.676	14.0
18.691	6.0
18.706	15.0
18.721	6.0
18.736	9.0
18.75	12.0
18.765	13.0
18.78	15.0
18.795	9.0
18.81	7.0
18.825	15.0
18.839	12.0
18.854	7.0
18.869	8.0
18.884	16.0
18.899	13.0
18.913	11.0
18.928	12.0
18.943	11.0
18.958	9.0
18.973	9.0
18.988	9.0
19.002	8.0
19.017	10.0
19.032	16.0
19.047	11.0
19.062	16.0
19.077	18.0
19.091	5.0
19.106	14.0
19.121	21.0
19.136	14.0
19.151	7.0
19.165	18.0
19.18	14.0
19.195	13.0
19.21	15.0
19.225	14.0
19.24	9.0
19.254	14.0
19.269	10.0
19.284	9.0
19.299	18.0
19.314	17.0
19.329	15.0
19.343	8.0
19.358	20.0
19.373	18.0
19.388	24.0
19.403	22.0
19.417	16.0
19.432	22.0
19.447	18.0
19.462	25.0
19.477	23.0
19.492	34.0
19.506	28.0
19.521	33.0
19.536	49.0
19.551	50.0
19.566	48.0
19.58	42.0
19.595	42.0
19.61	51.0
19.625	42.0
19.64	55.0
19.655	40.0
19.669	36.0
19.684	32.0
19.699	21.0
19.714	34.0
19.729	31.0
19.743	28.0
19.758	24.0
19.773	20.0
19.788	15.0
19.803	27.0
19.817	8.0
19.832	12.0
19.847	12.0
19.862	11.0
19.877	19.0
19.891	10.0
19.906	14.0
19.921	10.0
19.936	5.0
19.951	10.0
19.965	14.0
19.98	12.0
19.995	9.0
20.01	13.0
20.025	18.0
20.039	5.0
20.054	13.0
20.069	11.0
20.084	13.0
20.099	12.0
20.113	10.0
20.128	10.0
20.143	13.0
20.158	14.0
20.173	12.0
20.187	11.0
20.202	7.0
20.217	9.0
20.232	8.0
20.246	10.0
20.261	6.0
20.276	5.0
20.291	11.0
20.306	15.0
20.32	10.0
20.335	11.0
20.35	9.0
20.365	10.0
20.38	13.0
20.394	11.0
20.409	14.0
20.424	10.0
20.439	10.0
20.453	16.0
20.468	11.0
20.483	13.0
20.498	10.0
20.513	14.0
20.527	7.0
20.542	9.0
20.557	15.0
20.572	12.0
20.586	13.0
20.601	7.0
20.616	11.0
20.631	13.0
20.646	16.0
20.66	7.0
20.675	6.0
20.69	7.0
20.705	13.0
20.719	10.0
20.734	15.0
20.749	14.0
20.764	7.0
20.779	10.0
20.793	10.0
20.808	13.0
20.823	12.0
20.838	9.0
20.853	13.0
20.867	16.0
20.882	12.0
20.897	9.0
20.912	7.0
20.926	16.0
20.941	17.0
20.956	10.0
20.971	5.0
20.986	11.0
21.0	10.0
21.015	15.0
21.03	14.0
21.045	14.0
21.06	13.0
21.074	7.0
21.089	12.0
21.104	14.0
21.119	7.0
21.134	7.0
21.148	8.0
21.163	9.0
21.178	13.0
21.193	11.0
21.208	5.0
21.222	16.0
21.237	14.0
21.252	7.0
21.267	7.0
21.282	12.0
21.296	14.0
21.311	12.0
21.326	10.0
21.341	10.0
21.356	10.0
21.37	9.0
21.385	12.0
21.4	13.0
21.415	14.0
21.43	11.0
21.444	14.0
21.459	13.0
21.474	13.0
21.489	11.0
21.504	17.0
21.519	14.0
21.533	12.0
21.548	17.0
21.563	8.0
21.578	19.0
21.593	12.0
21.608	13.0
21.622	9.0
21.637	15.0
21.652	17.0
21.667	17.0
21.682	20.0
21.697	19.0
21.712	19.0
21.726	19.0
21.741	26.0
21.756	29.0
21.771	37.0
21.786	38.0
21.801	38.0
21.816	36.0
21.83	47.0
21.845	51.0
21.86	65.0
21.875	44.0
21.89	65.0
21.905	73.0
21.92	83.0
21.935	69.0
21.949	91.0
21.964	93.0
21.979	76.0
21.994	72.0
22.009	75.0
22.024	61.0
22.039	67.0
22.054	52.0
22.069	50.0
22.083	54.0
22.098	40.0
22.113	35.0
22.128	28.0
22.143	31.0
22.158	27.0
22.173	16.0
22.188	27.0
22.203	15.0
22.218	17.0
22.233	14.0
22.248	15.0
22.262	13.0
22.277	12.0
22.292	15.0
22.307	12.0
22.322	18.0
22.337	13.0
22.352	7.0
22.367	16.0
22.382	10.0
22.397	14.0
22.412	6.0
22.427	14.0
22.442	13.0
22.457	15.0
22.472	19.0
22.487	12.0
22.502	10.0
22.516	9.0
22.531	11.0
22.546	14.0
22.561	9.0
22.576	11.0
22.591	9.0
22.606	9.0
22.621	10.0
22.636	10.0
22.651	12.0
22.666	12.0
22.681	11.0
22.696	14.0
22.711	9.0
22.726	8.0
22.741	11.0
22.756	12.0
22.771	9.0
22.786	6.0
22.801	12.0
22.816	9.0
22.831	16.0
22.846	11.0
22.861	9.0
22.876	19.0
22.891	15.0
22.906	9.0
22.92	11.0
22.935	10.0
22.95	10.0
22.965	13.0
22.98	9.0
22.995	11.0
23.01	10.0
23.025	4.0
23.04	13.0
23.055	8.0
23.07	8.0
23.085	6.0
23.1	6.0
23.115	9.0
23.13	5.0
23.145	7.0
23.16	10.0
23.175	7.0
23.19	9.0
23.205	6.0
23.22	13.0
23.235	14.0
23.25	12.0
23.265	17.0
23.28	13.0
23.295	11.0
23.31	6.0
23.325	10.0
23.34	12.0
23.355	14.0
23.37	7.0
23.384	13.0
23.399	11.0
23.414	4.0
23.429	12.0
23.444	10.0
23.459	9.0
23.474	15.0
23.489	10.0
23.504	5.0
23.519	13.0
23.534	13.0
23.549	12.0
23.564	19.0
23.579	18.0
23.594	6.0
23.609	12.0
23.624	9.0
23.639	8.0
23.654	15.0
23.668	9.0
23.683	12.0
23.698	10.0
23.713	7.0
23.728	9.0
23.743	7.0
23.758	14.0
23.773	15.0
23.788	12.0
23.803	10.0
23.818	17.0
23.833	10.0
23.848	12.0
23.862	17.0
23.877	18.0
23.892	27.0
23.907	17.0
23.922	23.0
23.937	22.0
23.952	31.0
23.967	33.0
23.982	43.0
23.997	48.0
24.011	53.0
24.026	46.0
24.041	45.0
24.056	38.0
24.071	63.0
24.086	54.0
24.101	57.0
24.116	50.0
24.131	52.0
24.145	41.0
24.16	44.0
24.175	48.0
24.19	45.0
24.205	31.0
24.22	26.0
24.235	29.0
24.249	48.0
24.264	43.0
24.279	25.0
24.294	23.0
24.309	25.0
24.324	17.0
24.338	13.0
24.353	12.0
24.368	22.0
24.383	17.0
24.398	14.0
24.413	13.0
24.428	12.0
24.442	12.0
24.457	14.0
24.472	9.0
24.487	5.0
24.502	18.0
24.516	15.0
24.531	16.0
24.546	9.0
24.561	11.0
24.576	10.0
24.591	6.0
24.605	12.0
24.62	9.0
24.635	10.0
24.65	7.0
24.665	13.0
24.679	11.0
24.694	11.0
24.709	12.0
24.724	11.0
24.739	11.0
24.753	11.0
24.768	8.0
24.783	14.0
24.798	10.0
24.813	14.0
24.827	6.0
24.842	6.0
24.857	3.0
24.872	15.0
24.886	8.0
24.901	12.0
24.916	11.0
24.931	7.0
24.946	11.0
24.96	9.0
24.975	10.0
24.99	7.0
25.005	12.0
25.019	11.0
25.034	14.0
25.049	15.0
25.064	7.0
25.078	9.0
25.093	9.0
25.108	7.0
25.123	9.0
25.138	10.0
25.152	6.0
25.167	9.0
25.182	14.0
25.197	10.0
25.211	10.0
25.226	10.0
25.241	11.0
25.256	13.0
25.27	7.0
25.285	8.0
25.3	11.0
25.315	14.0
25.329	11.0
25.344	8.0
25.359	11.0
25.374	10.0
25.388	10.0
25.403	9.0
25.418	19.0
25.433	7.0
25.447	10.0
25.462	3.0
25.477	12.0
25.492	9.0
25.506	8.0
25.521	2.0
25.536	7.0
25.55	5.0
25.565	5.0
25.58	13.0
25.595	9.0
25.609	5.0
25.624	14.0
25.639	13.0
25.654	7.0
25.668	8.0
25.683	6.0
25.698	16.0
25.713	7.0
25.727	15.0
25.742	9.0
25.757	10.0
25.772	9.0
25.786	11.0
25.801	12.0
25.816	5.0
25.83	11.0
25.845	9.0
25.86	13.0
25.875	13.0
25.889	7.0
25.904	7.0
25.919	12.0
25.934	7.0
25.948	13.0
25.963	10.0
25.978	10.0
25.992	14.0
26.007	13.0
26.022	11.0
26.037	11.0
26.051	12.0
26.066	8.0
26.081	8.0
26.096	9.0
26.11	9.0
26.125	13.0
26.14	9.0
26.155	12.0
26.169	11.0
26.184	6.0
26.199	13.0
26.213	12.0
26.228	8.0
26.243	8.0
26.258	4.0
26.272	9.0
26.287	15.0
26.302	8.0
26.317	18.0
26.331	16.0
26.346	12.0
26.361	12.0
26.376	11.0
26.39	9.0
26.405	12.0
26.42	11.0
26.434	13.0
26.449	9.0
26.464	11.0
26.479	10.0
26.493	7.0
26.508	9.0
26.523	14.0
26.538	7.0
26.552	6.0
26.567	8.0
26.582	15.0
26.597	15.0
26.611	6.0
26.626	5.0
26.641	7.0
26.656	6.0
26.67	8.0
26.685	16.0
26.7	12.0
26.715	14.0
26.729	14.0
26.744	5.0
26.759	5.0
26.773	11.0
26.788	6.0
26.803	8.0
26.818	7.0
26.832	8.0
26.847	8.0
26.862	9.0
26.877	8.0
26.891	8.0
26.906	12.0
26.921	10.0
26.936	6.0
26.95	12.0
26.965	9.0
26.98	15.0
26.995	12.0
27.01	9.0
27.024	6.0
27.039	9.0
27.054	7.0
27.069	12.0
27.083	10.0
27.098	10.0
27.113	9.0
27.128	8.0
27.142	7.0
27.157	8.0
27.172	10.0
27.187	10.0
27.201	10.0
27.216	12.0
27.231	18.0
27.246	10.0
27.261	13.0
27.275	14.0
27.29	14.0
27.305	10.0
27.32	4.0
27.334	9.0
27.349	9.0
27.364	13.0
27.379	11.0
27.394	6.0
27.408	11.0
27.423	6.0
27.438	16.0
27.453	4.0
27.467	16.0
27.482	11.0
27.497	7.0
27.512	6.0
27.527	8.0
27.541	14.0
27.556	13.0
27.571	8.0
27.586	8.0
27.601	9.0
27.615	13.0
27.63	11.0
27.645	17.0
27.66	9.0
27.675	14.0
27.689	13.0
27.704	18.0
27.719	24.0
27.734	12.0
27.749	16.0
27.763	19.0
27.778	26.0
27.793	22.0
27.808	16.0
27.823	20.0
27.838	33.0
27.852	24.0
27.867	26.0
27.882	17.0
27.897	24.0
27.912	24.0
27.926	21.0
27.941	20.0
27.956	24.0
27.971	19.0
27.986	18.0
28.001	31.0
28.015	21.0
28.03	19.0
28.045	11.0
28.06	15.0
28.075	16.0
28.09	15.0
28.105	12.0
28.119	20.0
28.134	10.0
28.149	13.0
28.164	8.0
28.179	12.0
28.194	5.0
28.208	10.0
28.223	10.0
28.238	6.0
28.253	10.0
28.268	20.0
28.283	8.0
28.298	10.0
28.312	10.0
28.327	10.0
28.342	12.0
28.357	14.0
28.372	9.0
28.387	11.0
28.402	13.0
28.417	12.0
28.431	19.0
28.446	11.0
28.461	16.0
28.476	12.0
28.491	8.0
28.506	11.0
28.521	5.0
28.536	13.0
28.55	12.0
28.565	14.0
28.58	13.0
28.595	10.0
28.61	5.0
28.625	4.0
28.64	15.0
28.655	13.0
28.669	14.0
28.684	7.0
28.699	7.0
28.714	8.0
28.729	13.0
28.744	14.0
28.759	10.0
28.774	13.0
28.788	15.0
28.803	8.0
28.818	7.0
28.833	10.0
28.848	10.0
28.863	13.0
28.878	15.0
28.893	6.0
28.908	13.0
28.922	11.0
28.937	6.0
28.952	13.0
28.967	13.0
28.982	10.0
28.997	12.0
29.012	8.0
29.027	16.0
29.041	15.0
29.056	5.0
29.071	6.0
29.086	9.0
29.101	10.0
29.116	8.0
29.131	7.0
29.146	17.0
29.16	8.0
29.175	10.0
29.19	17.0
29.205	11.0
29.22	11.0
29.235	12.0
29.25	13.0
29.265	7.0
29.279	7.0
29.294	15.0
29.309	8.0
29.324	12.0
29.339	11.0
29.354	17.0
29.369	20.0
29.384	9.0
29.398	14.0
29.413	12.0
29.428	10.0
29.443	19.0
29.458	10.0
29.473	18.0
29.488	22.0
29.502	21.0
29.517	31.0
29.532	22.0
29.547	42.0
29.562	41.0
29.577	47.0
29.592	49.0
29.606	50.0
29.621	54.0
29.636	45.0
29.651	62.0
29.666	41.0
29.681	39.0
29.695	38.0
29.71	39.0
29.725	30.0
29.74	43.0
29.755	32.0
29.77	30.0
29.784	27.0
29.799	41.0
29.814	38.0
29.829	27.0
29.844	26.0
29.859	27.0
29.873	21.0
29.888	14.0
29.903	20.0
29.918	20.0
29.933	13.0
29.947	16.0
29.962	16.0
29.977	7.0
29.992	11.0
30.007	15.0
30.021	11.0
30.036	13.0
30.051	10.0
30.066	11.0
30.081	13.0
30.095	10.0
30.11	14.0
30.125	15.0
30.14	16.0
30.155	11.0
30.169	17.0
30.184	15.0
30.199	9.0
30.214	13.0
30.228	8.0
30.243	13.0
30.258	9.0
30.273	13.0
30.288	9.0
30.302	10.0
30.317	16.0
30.332	9.0
30.347	14.0
30.361	17.0
30.376	7.0
30.391	10.0
30.406	8.0
30.42	13.0
30.435	6.0
30.45	6.0
30.465	6.0
30.479	10.0
30.494	13.0
30.509	9.0
30.524	9.0
30.538	13.0
30.553	12.0
30.568	9.0
30.583	11.0
30.597	11.0
30.612	18.0
30.627	13.0
30.641	10.0
30.656	12.0
30.671	13.0
30.686	9.0
30.7	12.0
30.715	10.0
30.73	11.0
30.745	9.0
30.759	14.0
30.774	11.0
30.789	5.0
30.803	11.0
30.818	6.0
30.833	15.0
30.848	12.0
30.862	9.0
30.877	11.0
30.892	9.0
30.906	11.0
30.921	7.0
30.936	10.0
30.951	10.0
30.965	8.0
30.98	10.0
30.995	11.0
31.009	13.0
31.024	10.0
31.039	20.0
31.053	21.0
31.068	16.0
31.083	25.0
31.098	26.0
31.112	23.0
31.127	17.0
31.142	31.0
31.156	17.0
31.171	26.0
31.186	30.0
31.2	28.0
31.215	21.0
31.23	38.0
31.245	29.0
31.259	43.0
31.274	45.0
31.289	41.0
31.303	25.0
31.318	32.0
31.333	30.0
31.347	27.0
31.362	26.0
31.377	28.0
31.392	24.0
31.406	31.0
31.421	32.0
31.436	31.0
31.45	29.0
31.465	32.0
31.48	32.0
31.494	31.0
31.509	28.0
31.524	25.0
31.538	18.0
31.553	14.0
31.568	9.0
31.583	13.0
31.597	16.0
31.612	12.0
31.627	15.0
31.641	9.0
31.656	8.0
31.671	7.0
31.685	7.0
31.7	11.0
31.715	9.0
31.729	7.0
31.744	9.0
31.759	8.0
31.774	13.0
31.788	8.0
31.803	8.0
31.818	18.0
31.832	14.0
31.847	9.0
31.862	9.0
31.876	10.0
31.891	10.0
31.906	11.0
31.92	14.0
31.935	13.0
31.95	12.0
31.965	11.0
31.979	11.0
31.994	11.0
32.009	12.0
32.023	13.0
32.038	7.0
32.053	8.0
32.067	9.0
32.082	9.0
32.097	9.0
32.112	12.0
32.126	12.0
32.141	15.0
32.156	12.0
32.17	15.0
32.185	9.0
32.2	7.0
32.214	8.0
32.229	18.0
32.244	8.0
32.259	12.0
32.273	9.0
32.288	6.0
32.303	15.0
32.317	7.0
32.332	12.0
32.347	14.0
32.362	9.0
32.376	10.0
32.391	9.0
32.406	7.0
32.42	13.0
32.435	11.0
32.45	15.0
32.465	11.0
32.479	8.0
32.494	12.0
32.509	7.0
32.523	11.0
32.538	11.0
32.553	13.0
32.568	16.0
32.582	10.0
32.597	14.0
32.612	9.0
32.627	13.0
32.641	15.0
32.656	11.0
32.671	14.0
32.685	19.0
32.7	23.0
32.715	10.0
32.73	20.0
32.744	26.0
32.759	24.0
32.774	20.0
32.788	29.0
32.803	22.0
32.818	30.0
32.833	23.0
32.847	26.0
32.862	30.0
32.877	27.0
32.892	22.0
32.906	18.0
32.921	21.0
32.936	22.0
32.951	24.0
32.965	13.0
32.98	19.0
32.995	24.0
33.009	23.0
33.024	21.0
33.039	22.0
33.054	12.0
33.068	15.0
33.083	18.0
33.098	14.0
33.113	14.0
33.127	12.0
33.142	15.0
33.157	11.0
33.172	13.0
33.186	15.0
33.201	10.0
33.216	11.0
33.231	4.0
33.245	14.0
33.26	7.0
33.275	12.0
33.29	11.0
33.304	6.0
33.319	6.0
33.334	7.0
33.349	4.0
33.363	8.0
33.378	10.0
33.393	9.0
33.408	12.0
33.422	6.0
33.437	14.0
33.452	13.0
33.467	10.0
33.481	8.0
33.496	10.0
33.511	5.0
33.526	13.0
33.54	12.0
33.555	8.0
33.57	6.0
33.585	15.0
33.599	8.0
33.614	9.0
33.629	11.0
33.644	14.0
33.658	9.0
33.673	8.0
33.688	12.0
33.703	15.0
33.718	9.0
33.732	9.0
33.747	14.0
33.762	9.0
33.777	9.0
33.791	16.0
33.806	6.0
33.821	14.0
33.836	7.0
33.85	3.0
33.865	11.0
33.88	11.0
33.895	10.0
33.91	8.0
33.924	6.0
33.939	3.0
33.954	14.0
33.969	16.0
33.983	9.0
33.998	8.0
34.013	9.0
34.028	7.0
34.042	9.0
34.057	15.0
34.072	13.0
34.087	6.0
34.102	10.0
34.116	9.0
34.131	6.0
34.146	8.0
34.161	12.0
34.175	14.0
34.19	11.0
34.205	17.0
34.22	7.0
34.235	12.0
34.249	13.0
34.264	13.0
34.279	13.0
34.294	16.0
34.309	17.0
34.323	15.0
34.338	14.0
34.353	19.0
34.368	17.0
34.382	13.0
34.397	12.0
34.412	8.0
34.427	9.0
34.442	13.0
34.456	14.0
34.471	12.0
34.486	9.0
34.501	3.0
34.516	10.0
34.53	18.0
34.545	10.0
34.56	7.0
34.575	8.0
34.59	8.0
34.604	11.0
34.619	9.0
34.634	14.0
34.649	12.0
34.664	9.0
34.678	15.0
34.693	6.0
34.708	9.0
34.723	14.0
34.738	7.0
34.752	5.0
34.767	10.0
34.782	9.0
34.797	7.0
34.812	4.0
34.826	9.0
34.841	12.0
34.856	11.0
34.871	6.0
34.886	9.0
34.9	9.0
34.915	2.0
34.93	8.0
34.945	4.0
34.96	7.0
34.974	8.0
34.989	10.0
35.004	1.0
35.019	5.0
35.034	13.0
35.048	8.0
35.063	10.0
35.078	12.0
35.093	13.0
35.108	9.0
35.122	8.0
35.137	5.0
35.152	9.0
35.167	8.0
35.182	4.0
35.196	9.0
35.211	6.0
35.226	11.0
35.241	8.0
35.256	7.0
35.27	7.0
35.285	6.0
35.3	6.0
35.315	8.0
35.33	7.0
35.344	14.0
35.359	5.0
35.374	7.0
35.389	9.0
35.404	17.0
35.418	8.0
35.433	3.0
35.448	8.0
35.463	11.0
35.478	10.0
35.493	10.0
35.507	11.0
35.522	7.0
35.537	6.0
35.552	12.0
35.567	5.0
35.581	10.0
35.596	11.0
35.611	7.0
35.626	9.0
35.641	17.0
35.655	14.0
35.67	8.0
35.685	17.0
35.7	18.0
35.715	17.0
35.729	13.0
35.744	13.0
35.759	18.0
35.774	15.0
35.789	20.0
35.804	14.0
35.818	17.0
35.833	25.0
35.848	18.0
35.863	18.0
35.878	12.0
35.892	14.0
35.907	23.0
35.922	11.0
35.937	16.0
35.952	15.0
35.966	14.0
35.981	15.0
35.996	15.0
36.011	9.0
36.026	20.0
36.04	12.0
36.055	11.0
36.07	8.0
36.085	13.0
36.1	14.0
36.114	10.0
36.129	5.0
36.144	11.0
36.159	12.0
36.174	14.0
36.189	13.0
36.203	13.0
36.218	5.0
36.233	7.0
36.248	6.0
36.263	8.0
36.277	5.0
36.292	20.0
36.307	8.0
36.322	5.0
36.337	13.0
36.351	9.0
36.366	7.0
36.381	7.0
36.396	6.0
36.411	3.0
36.426	7.0
36.44	6.0
36.455	6.0
36.47	9.0
36.485	9.0
36.5	9.0
36.514	13.0
36.529	5.0
36.544	3.0
36.559	4.0
36.574	10.0
36.589	4.0
36.603	9.0
36.618	7.0
36.633	11.0
36.648	11.0
36.663	12.0
36.677	9.0
36.692	10.0
36.707	10.0
36.722	9.0
36.737	9.0
36.752	8.0
36.766	2.0
36.781	8.0
36.796	14.0
36.811	12.0
36.826	13.0
36.841	7.0
36.855	11.0
36.87	7.0
36.885	13.0
36.9	12.0
36.915	8.0
36.93	5.0
36.944	7.0
36.959	13.0
36.974	12.0
36.989	8.0
37.004	12.0
37.019	16.0
37.033	10.0
37.048	15.0
37.063	20.0
37.078	24.0
37.093	16.0
37.108	26.0
37.123	21.0
37.137	18.0
37.152	36.0
37.167	30.0
37.182	28.0
37.197	23.0
37.212	26.0
37.226	30.0
37.241	27.0
37.256	24.0
37.271	19.0
37.286	16.0
37.301	19.0
37.316	15.0
37.331	13.0
37.345	15.0
37.36	25.0
37.375	18.0
37.39	12.0
37.405	19.0
37.42	12.0
37.435	16.0
37.45	13.0
37.464	14.0
37.479	12.0
37.494	12.0
37.509	9.0
37.524	12.0
37.539	12.0
37.554	7.0
37.569	9.0
37.583	10.0
37.598	10.0
37.613	6.0
37.628	9.0
37.643	8.0
37.658	8.0
37.673	5.0
37.688	7.0
37.703	8.0
37.718	13.0
37.733	2.0
37.747	5.0
37.762	4.0
37.777	3.0
37.792	8.0
37.807	6.0
37.822	5.0
37.837	5.0
37.852	6.0
37.867	12.0
37.882	5.0
37.897	11.0
37.912	9.0
37.927	6.0
37.941	6.0
37.956	6.0
37.971	4.0
37.986	3.0
38.001	3.0
38.016	9.0
38.031	9.0
38.046	2.0
38.061	5.0
38.076	5.0
38.091	9.0
38.106	5.0
38.121	9.0
38.136	6.0
38.151	11.0
38.166	6.0
38.181	15.0
38.196	7.0
38.211	2.0
38.226	8.0
38.241	9.0
38.256	12.0
38.271	6.0
38.285	6.0
38.3	7.0
38.315	5.0
38.33	7.0
38.345	9.0
38.36	8.0
38.375	7.0
38.39	11.0
38.405	9.0
38.42	7.0
38.435	6.0
38.45	12.0
38.465	8.0
38.48	3.0
38.495	8.0
38.51	6.0
38.525	4.0
38.54	4.0
38.555	8.0
38.57	7.0
38.585	3.0
38.6	6.0
38.615	9.0
38.63	7.0
38.645	7.0
38.66	5.0
38.675	3.0
38.69	10.0
38.705	9.0
38.72	6.0
38.735	11.0
38.75	12.0
38.765	7.0
38.78	7.0
38.795	3.0
38.81	6.0
38.825	5.0
38.84	5.0
38.855	14.0
38.87	3.0
38.885	9.0
38.9	5.0
38.915	5.0
38.93	8.0
38.945	7.0
38.96	6.0
38.975	9.0
38.99	6.0
39.005	3.0
39.02	3.0
39.035	1.0
39.05	9.0
39.065	9.0
39.08	4.0
39.095	6.0
39.11	8.0
39.125	3.0
39.14	5.0
39.155	10.0
39.17	6.0
39.185	7.0
39.2	3.0
39.215	4.0
39.23	12.0
39.245	9.0
39.26	2.0
39.275	4.0
39.29	4.0
39.305	9.0
39.32	2.0
39.335	7.0
39.35	3.0
39.365	5.0
39.38	7.0
39.395	7.0
39.409	8.0
39.424	5.0
39.439	8.0
39.454	4.0
39.469	4.0
39.484	4.0
39.499	5.0
39.514	9.0
39.529	6.0
39.544	6.0
39.559	6.0
39.574	9.0
39.589	4.0
39.604	6.0
39.619	4.0
39.634	6.0
39.649	5.0
39.664	5.0
39.678	7.0
39.693	5.0
39.708	8.0
39.723	8.0
39.738	4.0
39.753	3.0
39.768	5.0
39.783	8.0
39.798	17.0
39.813	7.0
39.827	9.0
39.842	12.0
39.857	6.0
39.872	11.0
39.887	10.0
39.902	12.0
39.917	9.0
39.932	8.0
39.947	5.0
39.961	9.0
39.976	7.0
39.991	4.0
40.006	4.0
40.021	6.0
40.036	5.0
40.051	9.0
40.065	11.0
40.08	5.0
40.095	4.0
40.11	10.0
40.125	3.0
40.14	4.0
40.154	6.0
40.169	7.0
40.184	4.0
40.199	4.0
40.214	10.0
40.228	6.0
40.243	1.0
40.258	4.0
40.273	7.0
40.288	6.0
40.302	7.0
40.317	9.0
40.332	8.0
40.347	2.0
40.362	4.0
40.376	3.0
40.391	5.0
40.406	6.0
40.421	10.0
40.436	9.0
40.45	10.0
40.465	7.0
40.48	7.0
40.495	11.0
40.509	3.0
40.524	6.0
40.539	7.0
40.554	8.0
40.568	9.0
40.583	8.0
40.598	5.0
40.613	4.0
40.627	6.0
40.642	6.0
40.657	12.0
40.672	9.0
40.686	10.0
40.701	11.0
40.716	8.0
40.731	4.0
40.745	4.0
40.76	10.0
40.775	3.0
40.79	5.0
40.804	11.0
40.819	7.0
40.834	4.0
40.849	5.0
40.863	7.0
40.878	8.0
40.893	7.0
40.907	12.0
40.922	5.0
40.937	6.0
40.952	6.0
40.966	7.0
40.981	8.0
40.996	9.0
41.011	5.0
41.025	7.0
41.04	17.0
41.055	14.0
41.069	23.0
41.084	15.0
41.099	17.0
41.114	22.0
41.128	19.0
41.143	16.0
41.158	24.0
41.173	19.0
41.187	19.0
41.202	18.0
41.217	16.0
41.231	14.0
41.246	10.0
41.261	11.0
41.276	9.0
41.29	11.0
41.305	13.0
41.32	10.0
41.335	12.0
41.349	11.0
41.364	22.0
41.379	12.0
41.393	29.0
41.408	9.0
41.423	12.0
41.438	10.0
41.452	12.0
41.467	11.0
41.482	5.0
41.497	8.0
41.511	5.0
41.526	8.0
41.541	8.0
41.556	6.0
41.57	6.0
41.585	5.0
41.6	3.0
41.615	5.0
41.629	1.0
41.644	5.0
41.659	6.0
41.674	6.0
41.688	14.0
41.703	4.0
41.718	5.0
41.733	9.0
41.747	8.0
41.762	8.0
41.777	6.0
41.792	5.0
41.806	4.0
41.821	5.0
41.836	3.0
41.851	7.0
41.866	4.0
41.88	6.0
41.895	5.0
41.91	8.0
41.925	3.0
41.939	10.0
41.954	8.0
41.969	8.0
41.984	9.0
41.999	6.0
42.013	3.0
42.028	2.0
42.043	10.0
42.058	4.0
42.073	3.0
42.088	6.0
42.102	7.0
42.117	10.0
42.132	3.0
42.147	10.0
42.162	5.0
42.176	8.0
42.191	7.0
42.206	12.0
42.221	7.0
42.236	8.0
42.251	12.0
42.266	4.0
42.28	9.0
42.295	8.0
42.31	15.0
42.325	4.0
42.34	14.0
42.355	15.0
42.369	11.0
42.384	16.0
42.399	20.0
42.414	21.0
42.429	17.0
42.444	19.0
42.459	24.0
42.474	14.0
42.488	17.0
42.503	12.0
42.518	6.0
42.533	10.0
42.548	13.0
42.563	12.0
42.578	8.0
42.593	16.0
42.608	12.0
42.622	11.0
42.637	14.0
42.652	8.0
42.667	15.0
42.682	7.0
42.697	7.0
42.712	9.0
42.727	9.0
42.742	11.0
42.757	8.0
42.772	6.0
42.786	7.0
42.801	5.0
42.816	6.0
42.831	2.0
42.846	10.0
42.861	3.0
42.876	5.0
42.891	7.0
42.906	12.0
42.921	4.0
42.936	4.0
42.951	9.0
42.966	13.0
42.981	4.0
42.996	6.0
43.011	5.0
43.025	7.0
43.04	4.0
43.055	7.0
43.07	7.0
43.085	9.0
43.1	1.0
43.115	5.0
43.13	4.0
43.145	5.0
43.16	6.0
43.175	3.0
43.19	8.0
43.205	8.0
43.22	7.0
43.235	3.0
43.25	6.0
43.265	3.0
43.28	5.0
43.295	4.0
43.31	3.0
43.325	5.0
43.34	5.0
43.355	2.0
43.37	8.0
43.385	4.0
43.4	4.0
43.415	4.0
43.43	5.0
43.445	5.0
43.46	5.0
43.475	10.0
43.49	7.0
43.505	9.0
43.52	7.0
43.535	6.0
43.55	6.0
43.565	7.0
43.58	15.0
43.595	6.0
43.61	4.0
43.625	9.0
43.64	4.0
43.655	11.0
43.67	8.0
43.685	11.0
43.7	9.0
43.715	12.0
43.73	7.0
43.745	9.0
43.76	4.0
43.775	4.0
43.79	5.0
43.805	11.0
43.82	7.0
43.835	2.0
43.85	6.0
43.865	8.0
43.88	5.0
43.895	11.0
43.91	5.0
43.925	8.0
43.94	7.0
43.955	1.0
43.97	10.0
43.985	9.0
44.0	4.0
44.015	3.0
44.03	2.0
44.045	4.0
44.061	6.0
44.076	3.0
44.091	9.0
44.106	4.0
44.121	3.0
44.136	6.0
44.151	2.0
44.166	7.0
44.181	6.0
44.196	4.0
44.211	5.0
44.226	9.0
44.241	5.0
44.256	2.0
44.271	4.0
44.286	4.0
44.301	5.0
44.316	8.0
44.331	6.0
44.346	5.0
44.361	7.0
44.377	2.0
44.392	6.0
44.407	11.0
44.422	7.0
44.437	3.0
44.452	6.0
44.467	8.0
44.482	3.0
44.497	4.0
44.512	4.0
44.527	7.0
44.542	12.0
44.557	4.0
44.572	2.0
44.587	7.0
44.602	1.0
44.617	2.0
44.632	13.0
44.647	2.0
44.663	6.0
44.678	7.0
44.693	10.0
44.708	3.0
44.723	13.0
44.738	8.0
44.753	8.0
44.768	11.0
44.783	8.0
44.798	14.0
44.813	12.0
44.828	13.0
44.843	10.0
44.858	12.0
44.873	8.0
44.888	12.0
44.903	9.0
44.918	7.0
44.933	7.0
44.948	5.0
44.964	7.0
44.979	6.0
44.994	3.0
45.009	3.0
45.024	9.0
45.039	14.0
45.054	4.0
45.069	4.0
45.084	7.0
45.099	13.0
45.114	13.0
45.129	10.0
45.144	7.0
45.159	5.0
45.174	8.0
45.189	6.0
45.204	10.0
45.219	6.0
45.234	7.0
45.249	7.0
45.264	8.0
45.279	8.0
45.294	5.0
45.309	9.0
45.324	8.0
45.339	10.0
45.354	8.0
45.369	7.0
45.384	4.0
45.399	8.0
45.414	1.0
45.429	3.0
45.444	5.0
45.459	6.0
45.474	1.0
45.489	3.0
45.504	6.0
45.519	6.0
45.534	5.0
45.549	5.0
45.564	6.0
45.579	6.0
45.594	6.0
45.609	4.0
45.624	4.0
45.639	4.0
45.654	10.0
45.669	6.0
45.684	2.0
45.699	4.0
45.714	4.0
45.729	7.0
45.744	2.0
45.759	8.0
45.774	14.0
45.789	6.0
45.804	9.0
45.819	9.0
45.834	10.0
45.849	12.0
45.864	12.0
45.879	7.0
45.894	8.0
45.909	17.0
45.924	18.0
45.939	14.0
45.954	14.0
45.969	13.0
45.984	12.0
45.998	17.0
46.013	11.0
46.028	15.0
46.043	17.0
46.058	11.0
46.073	14.0
46.088	10.0
46.103	8.0
46.118	6.0
46.133	7.0
46.148	3.0
46.163	10.0
46.178	11.0
46.192	13.0
46.207	6.0
46.222	9.0
46.237	7.0
46.252	9.0
46.267	5.0
46.282	16.0
46.297	12.0
46.312	14.0
46.327	7.0
46.341	5.0
46.356	12.0
46.371	10.0
46.386	7.0
46.401	4.0
46.416	7.0
46.431	6.0
46.446	3.0
46.46	3.0
46.475	7.0
46.49	3.0
46.505	5.0
46.52	6.0
46.535	7.0
46.55	4.0
46.564	5.0
46.579	9.0
46.594	7.0
46.609	7.0
46.624	1.0
46.639	6.0
46.654	3.0
46.668	5.0
46.683	6.0
46.698	8.0
46.713	8.0
46.728	7.0
46.743	5.0
46.758	5.0
46.772	5.0
46.787	5.0
46.802	8.0
46.817	6.0
46.832	6.0
46.847	7.0
46.861	5.0
46.876	7.0
46.891	4.0
46.906	7.0
46.921	2.0
46.936	3.0
46.95	5.0
46.965	5.0
46.98	8.0
46.995	5.0
47.01	5.0
47.025	10.0
47.039	9.0
47.054	2.0
47.069	9.0
47.084	11.0
47.099	6.0
47.113	4.0
47.128	7.0
47.143	10.0
47.158	10.0
47.173	15.0
47.188	6.0
47.202	7.0
47.217	9.0
47.232	7.0
47.247	3.0
47.262	5.0
47.277	4.0
47.291	10.0
47.306	6.0
47.321	3.0
47.336	5.0
47.351	4.0
47.365	4.0
47.38	12.0
47.395	2.0
47.41	7.0
47.425	4.0
47.44	5.0
47.454	12.0
47.469	9.0
47.484	10.0
47.499	8.0
47.514	12.0
47.528	6.0
47.543	5.0
47.558	5.0
47.573	3.0
47.588	5.0
47.603	3.0
47.617	8.0
47.632	8.0
47.647	6.0
47.662	4.0
47.677	6.0
47.691	5.0
47.706	4.0
47.721	1.0
47.736	9.0
47.751	1.0
47.766	4.0
47.78	6.0
47.795	4.0
47.81	3.0
47.825	4.0
47.84	3.0
47.855	3.0
47.869	7.0
47.884	7.0
47.899	3.0
47.914	2.0
47.929	2.0
47.944	5.0
47.958	4.0
47.973	1.0
47.988	5.0
48.003	3.0
48.018	3.0
48.033	1.0
48.047	4.0
48.062	3.0
48.077	9.0
48.092	4.0
48.107	2.0
48.122	2.0
48.137	5.0
48.151	3.0
48.166	4.0
48.181	7.0
48.196	2.0
48.211	6.0
48.226	7.0
48.241	2.0
48.255	9.0
48.27	5.0
48.285	2.0
48.3	4.0
48.315	3.0
48.33	2.0
48.345	4.0
48.359	6.0
48.374	8.0
48.389	3.0
48.404	2.0
48.419	7.0
48.434	0.0
48.449	2.0
48.464	2.0
48.478	2.0
48.493	2.0
48.508	3.0
48.523	7.0
48.538	8.0
48.553	3.0
48.568	3.0
48.583	4.0
48.597	5.0
48.612	1.0
48.627	2.0
48.642	4.0
48.657	1.0
48.672	4.0
48.687	3.0
48.702	2.0
48.717	3.0
48.731	3.0
48.746	4.0
48.761	6.0
48.776	6.0
48.791	3.0
48.806	3.0
48.821	4.0
48.836	4.0
48.851	5.0
48.866	1.0
48.88	2.0
48.895	6.0
48.91	4.0
48.925	4.0
48.94	4.0
48.955	3.0
48.97	2.0
48.985	6.0
49.0	3.0
49.015	5.0
49.03	6.0
49.044	6.0
49.059	9.0
49.074	3.0
49.089	3.0
49.104	8.0
49.119	7.0
49.134	5.0
49.149	8.0
49.164	6.0
49.179	5.0
49.194	6.0
49.209	5.0
49.224	4.0
49.238	9.0
49.253	8.0
49.268	9.0
49.283	4.0
49.298	6.0
49.313	9.0
49.328	9.0
49.343	13.0
49.358	11.0
49.373	8.0
49.388	10.0
49.403	8.0
49.418	5.0
49.433	12.0
49.448	8.0
49.463	7.0
49.478	5.0
49.492	2.0
49.507	7.0
49.522	5.0
49.537	9.0
49.552	1.0
49.567	5.0
49.582	6.0
49.597	7.0
49.612	4.0
49.627	10.0
49.642	6.0
49.657	9.0
49.672	4.0
49.687	6.0
49.702	3.0
49.717	13.0
49.732	6.0
49.747	1.0
49.762	4.0
49.777	5.0
49.792	4.0
49.807	3.0
49.822	4.0
49.837	5.0
49.852	5.0
49.867	3.0
49.882	3.0
49.897	6.0
49.912	3.0
49.927	5.0
49.942	7.0
49.957	3.0
49.971	8.0
49.986	2.0
50.001	4.0
50.016	3.0
50.031	7.0
50.046	6.0
50.061	3.0
50.076	6.0
50.091	3.0
50.106	9.0
50.121	6.0
50.136	5.0
50.151	3.0
50.166	6.0
50.181	8.0
50.196	8.0
50.211	5.0
50.226	6.0
50.241	5.0
50.256	5.0
50.271	6.0
50.286	5.0
50.302	2.0
50.317	5.0
50.332	2.0
50.347	7.0
50.362	9.0
50.377	8.0
50.392	6.0
50.407	10.0
50.422	12.0
50.437	8.0
50.452	8.0
50.467	3.0
50.482	12.0
50.497	9.0
50.512	6.0
50.527	6.0
50.542	9.0
50.557	4.0
50.572	3.0
50.587	4.0
50.602	6.0
50.617	6.0
50.632	6.0
50.647	5.0
50.662	4.0
50.677	10.0
50.692	5.0
50.707	6.0
50.722	8.0
50.737	6.0
50.752	4.0
50.767	2.0
50.782	11.0
50.797	7.0
50.812	8.0
50.828	5.0
50.843	6.0
50.858	7.0
50.873	4.0
50.888	5.0
50.903	7.0
50.918	9.0
50.933	4.0
50.948	5.0
50.963	2.0
50.978	3.0
50.993	7.0
51.008	5.0
51.023	6.0
51.038	7.0
51.053	4.0
51.068	2.0
51.083	5.0
51.098	4.0
51.114	2.0
51.129	10.0
51.144	3.0
51.159	2.0
51.174	3.0
51.189	8.0
51.204	3.0
51.219	5.0
51.234	8.0
51.249	3.0
51.264	6.0
51.279	2.0
51.294	6.0
51.309	6.0
51.324	7.0
51.34	7.0
51.355	4.0
51.37	7.0
51.385	7.0
51.4	10.0
51.415	5.0
51.43	6.0
51.445	10.0
51.46	6.0
51.475	15.0
51.49	11.0
51.505	7.0
51.52	13.0
51.535	16.0
51.551	17.0
51.566	15.0
51.581	11.0
51.596	10.0
51.611	14.0
51.626	16.0
51.641	11.0
51.656	8.0
51.671	11.0
51.686	6.0
51.701	9.0
51.716	2.0
51.732	6.0
51.747	9.0
51.762	8.0
51.777	8.0
51.792	10.0
51.807	10.0
51.822	16.0
51.837	12.0
51.852	9.0
51.867	15.0
51.882	7.0
51.898	8.0
51.913	10.0
51.928	5.0
51.943	13.0
51.958	8.0
51.973	9.0
51.988	4.0
52.003	7.0
52.018	5.0
52.033	5.0
52.048	1.0
52.064	4.0
52.079	3.0
52.094	7.0
52.109	5.0
52.124	2.0
52.139	4.0
52.154	5.0
52.169	3.0
52.184	5.0
52.199	6.0
52.215	5.0
52.23	4.0
52.245	4.0
52.26	4.0
52.275	5.0
52.29	4.0
52.305	2.0
52.32	7.0
52.335	7.0
52.35	4.0
52.366	9.0
52.381	3.0
52.396	3.0
52.411	6.0
52.426	4.0
52.441	4.0
52.456	2.0
52.471	6.0
52.486	6.0
52.502	6.0
52.517	7.0
52.532	7.0
52.547	6.0
52.562	15.0
52.577	9.0
52.592	11.0
52.607	5.0
52.622	10.0
52.637	6.0
52.653	4.0
52.668	8.0
52.683	7.0
52.698	4.0
52.713	14.0
52.728	4.0
52.743	5.0
52.758	7.0
52.774	1.0
52.789	4.0
52.804	5.0
52.819	5.0
52.834	5.0
52.849	3.0
52.864	8.0
52.879	10.0
52.894	3.0
52.91	5.0
52.925	7.0
52.94	4.0
52.955	9.0
52.97	5.0
52.985	4.0
53.0	10.0
53.015	2.0
53.031	4.0
53.046	5.0
53.061	3.0
53.076	2.0
53.091	8.0
53.106	6.0
53.121	2.0
53.136	2.0
53.152	6.0
53.167	7.0
53.182	3.0
53.197	4.0
53.212	3.0
53.227	5.0
53.242	6.0
53.257	6.0
53.273	2.0
53.288	2.0
53.303	8.0
53.318	3.0
53.333	4.0
53.348	4.0
53.363	9.0
53.379	6.0
53.394	4.0
53.409	5.0
53.424	4.0
53.439	2.0
53.454	5.0
53.469	5.0
53.484	8.0
53.5	5.0
53.515	5.0
53.53	8.0
53.545	4.0
53.56	6.0
53.575	3.0
53.59	2.0
53.606	4.0
53.621	3.0
53.636	3.0
53.651	3.0
53.666	5.0
53.681	8.0
53.696	9.0
53.712	4.0
53.727	4.0
53.742	4.0
53.757	3.0
53.772	5.0
53.787	5.0
53.802	5.0
53.818	4.0
53.833	4.0
53.848	5.0
53.863	6.0
53.878	10.0
53.893	4.0
53.909	7.0
53.924	4.0
53.939	5.0
53.954	1.0
53.969	4.0
53.984	6.0
53.999	1.0
54.015	3.0
54.03	7.0
54.045	2.0
54.06	3.0
54.075	9.0
54.09	8.0
54.106	6.0
54.121	2.0
54.136	5.0
54.151	4.0
54.166	5.0
54.181	7.0
54.197	8.0
54.212	6.0
54.227	4.0
54.242	6.0
54.257	8.0
54.272	5.0
54.288	1.0
54.303	2.0
54.318	3.0
54.333	3.0
54.348	4.0
54.363	4.0
54.379	6.0
54.394	5.0
54.409	7.0
54.424	3.0
54.439	5.0
54.454	5.0
54.47	6.0
54.485	5.0
54.5	3.0
54.515	8.0
54.53	4.0
54.545	8.0
54.561	8.0
54.576	9.0
54.591	15.0
54.606	4.0
54.621	5.0
54.636	13.0
54.652	14.0
54.667	15.0
54.682	15.0
54.697	18.0
54.712	7.0
54.727	7.0
54.743	17.0
54.758	3.0
54.773	7.0
54.788	5.0
54.803	3.0
54.819	5.0
54.834	6.0
54.849	3.0
54.864	11.0
54.879	8.0
54.894	6.0
54.91	4.0
54.925	5.0
54.94	6.0
54.955	6.0
54.97	13.0
54.985	7.0
55.001	15.0
55.016	5.0
55.031	8.0
55.046	9.0
55.061	6.0
55.077	10.0
55.092	5.0
55.107	6.0
55.122	5.0
55.137	7.0
55.152	6.0
55.168	7.0
55.183	5.0
55.198	2.0
55.213	5.0
55.228	11.0
55.243	6.0
55.259	7.0
55.274	8.0
55.289	4.0
55.304	5.0
55.319	7.0
55.335	3.0
55.35	3.0
55.365	5.0
55.38	5.0
55.395	3.0
55.41	8.0
55.426	10.0
55.441	1.0
55.456	4.0
55.471	1.0
55.486	6.0
55.501	5.0
55.517	4.0
55.532	4.0
55.547	4.0
55.562	5.0
55.577	5.0
55.592	6.0
55.608	7.0
55.623	6.0
55.638	7.0
55.653	7.0
55.668	10.0
55.683	11.0
55.699	5.0
55.714	7.0
55.729	8.0
55.744	10.0
55.759	5.0
55.774	6.0
55.79	7.0
55.805	7.0
55.82	2.0
55.835	2.0
55.85	8.0
55.865	9.0
55.881	1.0
55.896	5.0
55.911	4.0
55.926	5.0
55.941	4.0
55.956	10.0
55.972	5.0
55.987	8.0
56.002	7.0
56.017	8.0
56.032	10.0
56.047	6.0
56.063	7.0
56.078	9.0
56.093	5.0
56.108	11.0
56.123	9.0
56.138	9.0
56.154	10.0
56.169	9.0
56.184	2.0
56.199	5.0
56.214	5.0
56.229	3.0
56.244	5.0
56.26	3.0
56.275	3.0
56.29	5.0
56.305	8.0
56.32	5.0
56.335	6.0
56.351	1.0
56.366	4.0
56.381	3.0
56.396	3.0
56.411	6.0
56.426	9.0
56.441	5.0
56.457	10.0
56.472	6.0
56.487	5.0
56.502	5.0
56.517	7.0
56.532	3.0
56.547	3.0
56.563	3.0
56.578	3.0
56.593	4.0
56.608	3.0
56.623	3.0
56.638	4.0
56.653	5.0
56.668	4.0
56.684	7.0
56.699	7.0
56.714	4.0
56.729	2.0
56.744	7.0
56.759	8.0
56.774	3.0
56.79	5.0
56.805	8.0
56.82	4.0
56.835	3.0
56.85	5.0
56.865	3.0
56.88	5.0
56.895	4.0
56.911	5.0
56.926	6.0
56.941	5.0
56.956	4.0
56.971	5.0
56.986	5.0
57.001	3.0
57.016	1.0
57.031	6.0
57.047	5.0
57.062	5.0
57.077	3.0
57.092	3.0
57.107	3.0
57.122	4.0
57.137	7.0
57.152	4.0
57.167	4.0
57.183	3.0
57.198	2.0
57.213	3.0
57.228	4.0
57.243	4.0
57.258	5.0
57.273	4.0
57.288	6.0
57.303	6.0
57.318	1.0
57.334	3.0
57.349	6.0
57.364	7.0
57.379	4.0
57.394	12.0
57.409	1.0
57.424	3.0
57.439	6.0
57.454	4.0
57.469	1.0
57.484	5.0
57.5	4.0
57.515	7.0
57.53	4.0
57.545	3.0
57.56	7.0
57.575	3.0
57.59	4.0
57.605	7.0
57.62	5.0
57.635	4.0
57.65	7.0
57.665	6.0
57.68	7.0
57.696	5.0
57.711	4.0
57.726	3.0
57.741	7.0
57.756	4.0
57.771	8.0
57.786	9.0
57.801	3.0
57.816	7.0
57.831	4.0
57.846	4.0
57.861	4.0
57.876	5.0
57.891	6.0
57.906	3.0
57.921	5.0
57.937	4.0
57.952	8.0
57.967	3.0
57.982	2.0
57.997	6.0
58.012	5.0
58.027	5.0
58.042	7.0
58.057	11.0
58.072	5.0
58.087	2.0
58.102	2.0
58.117	1.0
58.132	2.0
58.147	5.0
58.162	4.0
58.177	0.0
58.192	4.0
58.207	4.0
58.222	3.0
58.237	3.0
58.252	6.0
58.267	2.0
58.282	3.0
58.297	6.0
58.312	8.0
58.327	3.0
58.342	6.0
58.357	2.0
58.372	2.0
58.387	6.0
58.402	4.0
58.418	4.0
58.433	3.0
58.448	4.0
58.463	5.0
58.478	6.0
58.493	7.0
58.508	5.0
58.523	6.0
58.538	10.0
58.553	2.0
58.568	3.0
58.583	5.0
58.598	6.0
58.613	4.0
58.628	15.0
58.643	17.0
58.658	2.0
58.673	1.0
58.688	12.0
58.703	7.0
58.718	7.0
58.733	6.0
58.748	7.0
58.763	8.0
58.778	8.0
58.793	6.0
58.808	6.0
58.823	8.0
58.838	6.0
58.853	2.0
58.868	6.0
58.883	2.0
58.898	6.0
58.913	8.0
58.928	8.0
58.942	6.0
58.957	4.0
58.972	4.0
58.987	5.0
59.002	10.0
59.017	6.0
59.032	5.0
59.047	5.0
59.062	3.0
59.077	6.0
59.092	3.0
59.107	5.0
59.122	9.0
59.137	6.0
59.152	5.0
59.167	5.0
59.182	0.0
59.197	1.0
59.212	3.0
59.227	2.0
59.242	5.0
59.257	8.0
59.272	4.0
59.287	3.0
59.302	5.0
59.317	6.0
59.332	3.0
59.347	4.0
59.362	0.0
59.377	2.0
59.392	8.0
59.407	2.0
59.422	3.0
59.437	2.0
59.452	5.0
59.467	3.0
59.482	5.0
59.497	4.0
59.512	6.0
59.527	8.0
59.542	6.0
59.557	7.0
59.572	7.0
59.587	11.0
59.602	13.0
59.617	4.0
59.632	11.0
59.647	4.0
59.661	9.0
59.676	15.0
59.691	4.0
59.706	8.0
59.721	3.0
59.736	4.0
59.751	8.0
59.766	9.0
59.781	5.0
59.796	6.0
59.811	2.0
59.826	3.0
59.841	4.0
59.856	5.0
59.871	5.0
59.886	4.0
59.901	4.0
59.916	4.0
59.931	2.0
59.946	7.0
59.961	3.0
59.976	6.0
59.991	3.0
60.006	6.0
60.021	9.0
60.036	6.0
60.051	8.0
60.066	4.0
60.081	10.0
60.096	3.0
60.111	4.0
60.126	6.0
60.141	7.0
60.156	2.0
60.171	8.0
60.186	3.0
60.201	4.0
60.216	1.0
60.231	5.0
60.246	1.0
60.261	8.0
60.276	0.0
60.291	2.0
60.306	7.0
60.321	1.0
60.336	5.0
60.35	8.0
60.365	3.0
60.38	2.0
60.395	5.0
60.41	7.0
60.425	8.0
60.44	5.0
60.455	3.0
60.47	4.0
60.485	5.0
60.5	7.0
60.515	9.0
60.53	8.0
60.545	11.0
60.56	8.0
60.575	9.0
60.59	5.0
60.605	8.0
60.62	7.0
60.635	5.0
60.65	7.0
60.665	6.0
60.68	3.0
60.695	0.0
60.71	8.0
60.725	6.0
60.74	4.0
60.755	5.0
60.77	6.0
60.785	4.0
60.8	7.0
60.815	4.0
60.83	4.0
60.845	2.0
60.86	5.0
60.875	5.0
60.89	3.0
60.905	8.0
60.92	9.0
60.935	4.0
60.95	7.0
60.965	10.0
60.98	11.0
60.995	7.0
61.01	3.0
61.025	3.0
61.04	2.0
61.055	5.0
61.07	4.0
61.085	4.0
61.1	7.0
61.115	3.0
61.13	5.0
61.145	1.0
61.16	3.0
61.175	6.0
61.191	4.0
61.206	1.0
61.221	4.0
61.236	4.0
61.251	6.0
61.266	3.0
61.281	3.0
61.296	2.0
61.311	5.0
61.326	4.0
61.341	3.0
61.356	6.0
61.371	4.0
61.386	7.0
61.401	6.0
61.416	7.0
61.431	3.0
61.446	6.0
61.461	7.0
61.476	4.0
61.491	3.0
61.506	10.0
61.521	10.0
61.536	7.0
61.551	7.0
61.566	6.0
61.581	6.0
61.596	3.0
61.611	7.0
61.626	2.0
61.641	5.0
61.656	5.0
61.672	3.0
61.687	7.0
61.702	6.0
61.717	3.0
61.732	3.0
61.747	4.0
61.762	2.0
61.777	6.0
61.792	5.0
61.807	2.0
61.822	4.0
61.837	4.0
61.852	7.0
61.867	4.0
61.882	5.0
61.897	1.0
61.912	6.0
61.927	7.0
61.943	3.0
61.958	5.0
61.973	6.0
61.988	8.0
62.003	5.0
62.018	7.0
62.033	4.0
62.048	3.0
62.063	5.0
62.078	1.0
62.093	3.0
62.108	7.0
62.123	2.0
62.138	4.0
62.153	4.0
62.169	3.0
62.184	2.0
62.199	0.0
62.214	5.0
62.229	0.0
62.244	2.0
62.259	3.0
62.274	2.0
62.289	7.0
62.304	4.0
62.319	7.0
62.335	5.0
62.35	7.0
62.365	5.0
62.38	4.0
62.395	2.0
62.41	3.0
62.425	5.0
62.44	5.0
62.455	5.0
62.47	2.0
62.485	2.0
62.501	3.0
62.516	3.0
62.531	5.0
62.546	3.0
62.561	6.0
62.576	3.0
62.591	4.0
62.606	6.0
62.621	6.0
62.636	6.0
62.652	3.0
62.667	3.0
62.682	3.0
62.697	3.0
62.712	2.0
62.727	2.0
62.742	1.0
62.757	3.0
62.772	4.0
62.787	2.0
62.803	3.0
62.818	0.0
62.833	6.0
62.848	4.0
62.863	3.0
62.878	3.0
62.893	2.0
62.908	5.0
62.923	2.0
62.939	7.0
62.954	5.0
62.969	7.0
62.984	7.0
62.999	5.0
63.014	4.0
63.029	5.0
63.044	3.0
63.059	7.0
63.074	3.0
63.09	6.0
63.105	3.0
63.12	2.0
63.135	7.0
63.15	3.0
63.165	6.0
63.18	4.0
63.195	5.0
63.21	1.0
63.226	3.0
63.241	3.0
63.256	4.0
63.271	2.0
63.286	8.0
63.301	6.0
63.316	5.0
63.331	11.0
63.346	6.0
63.362	6.0
63.377	2.0
63.392	7.0
63.407	7.0
63.422	6.0
63.437	6.0
63.452	6.0
63.467	10.0
63.482	4.0
63.497	5.0
63.513	2.0
63.528	2.0
63.543	5.0
63.558	1.0
63.573	4.0
63.588	2.0
63.603	8.0
63.618	2.0
63.633	3.0
63.648	4.0
63.664	6.0
63.679	3.0
63.694	6.0
63.709	10.0
63.724	6.0
63.739	4.0
63.754	2.0
63.769	2.0
63.784	7.0
63.799	10.0
63.814	5.0
63.83	7.0
63.845	8.0
63.86	2.0
63.875	3.0
63.89	8.0
63.905	3.0
63.92	8.0
63.935	8.0
63.95	2.0
63.965	8.0
63.98	2.0
63.996	1.0
64.011	5.0
64.026	8.0
64.041	0.0
64.056	7.0
64.071	6.0
64.086	3.0
64.101	2.0
64.116	5.0
64.131	4.0
64.146	5.0
64.161	0.0
64.176	3.0
64.191	2.0
64.207	2.0
64.222	4.0
64.237	1.0
64.252	7.0
64.267	2.0
64.282	4.0
64.297	1.0
64.312	4.0
64.327	2.0
64.342	3.0
64.357	6.0
64.372	1.0
64.387	5.0
64.402	2.0
64.417	4.0
64.433	6.0
64.448	3.0
64.463	5.0
64.478	4.0
64.493	3.0
64.508	2.0
64.523	4.0
64.538	3.0
64.553	3.0
64.568	1.0
64.583	7.0
64.598	5.0
64.613	3.0
64.628	3.0
64.643	3.0
64.658	6.0
64.673	5.0
64.688	1.0
64.703	3.0
64.718	4.0
64.734	3.0
64.749	3.0
64.764	4.0
64.779	5.0
64.794	6.0
64.809	0.0
64.824	2.0
64.839	1.0
64.854	3.0
64.869	1.0
64.884	3.0
64.899	3.0
64.914	4.0
64.929	3.0
64.944	4.0
64.959	2.0
64.974	0.0
64.989	4.0
65.004	4.0
65.019	5.0
65.034	3.0
65.049	7.0
65.064	6.0
65.079	4.0
65.094	4.0
65.109	3.0
65.125	7.0
65.14	2.0
65.155	7.0
65.17	2.0
65.185	6.0
65.2	2.0
65.215	2.0
65.23	6.0
65.245	3.0
65.26	4.0
65.275	4.0
65.29	4.0
65.305	4.0
65.32	8.0
65.335	9.0
65.35	8.0
65.365	5.0
65.38	1.0
65.395	4.0
65.41	4.0
65.425	2.0
65.44	5.0
65.455	1.0
65.47	0.0
65.485	1.0
65.5	1.0
65.515	8.0
65.53	6.0
65.545	5.0
65.56	5.0
65.575	2.0
65.59	3.0
65.605	7.0
65.62	8.0
65.635	6.0
65.65	3.0
65.666	2.0
65.681	6.0
65.696	3.0
65.711	5.0
65.726	5.0
65.741	3.0
65.756	5.0
65.771	2.0
65.786	5.0
65.801	2.0
65.816	4.0
65.831	3.0
65.846	3.0
65.861	2.0
65.876	5.0
65.891	3.0
65.906	3.0
65.921	5.0
65.936	6.0
65.951	2.0
65.966	7.0
65.981	3.0
65.996	4.0
66.011	2.0
66.026	6.0
66.041	4.0
66.056	3.0
66.071	5.0
66.086	7.0
66.101	9.0
66.116	1.0
66.131	4.0
66.146	11.0
66.161	7.0
66.176	5.0
66.191	5.0
66.206	7.0
66.221	13.0
66.236	5.0
66.251	9.0
66.266	3.0
66.281	6.0
66.296	4.0
66.311	2.0
66.327	7.0
66.342	6.0
66.357	0.0
66.372	5.0
66.387	3.0
66.402	7.0
66.417	3.0
66.432	6.0
66.447	6.0
66.462	3.0
66.477	3.0
66.492	4.0
66.507	4.0
66.522	4.0
66.537	6.0
66.552	5.0
66.567	6.0
66.582	5.0
66.597	6.0
66.612	7.0
66.627	10.0
66.642	5.0
66.657	7.0
66.672	3.0
66.687	6.0
66.702	7.0
66.717	4.0
66.732	1.0
66.747	1.0
66.762	4.0
66.777	2.0
66.792	5.0
66.807	4.0
66.822	4.0
66.837	6.0
66.853	4.0
66.868	1.0
66.883	7.0
66.898	5.0
66.913	2.0
66.928	0.0
66.943	4.0
66.958	4.0
66.973	5.0
66.988	4.0
67.003	9.0
67.018	5.0
67.033	5.0
67.048	3.0
67.063	6.0
67.078	7.0
67.093	2.0
67.108	7.0
67.123	6.0
67.138	6.0
67.153	5.0
67.168	5.0
67.183	3.0
67.198	4.0
67.214	5.0
67.229	4.0
67.244	4.0
67.259	2.0
67.274	5.0
67.289	4.0
67.304	4.0
67.319	4.0
67.334	2.0
67.349	2.0
67.364	2.0
67.379	4.0
67.394	4.0
67.409	5.0
67.424	1.0
67.439	2.0
67.454	4.0
67.469	3.0
67.484	6.0
67.5	7.0
67.515	6.0
67.53	3.0
67.545	4.0
67.56	9.0
67.575	2.0
67.59	7.0
67.605	1.0
67.62	4.0
67.635	8.0
67.65	2.0
67.665	2.0
67.68	5.0
67.695	2.0
67.71	6.0
67.726	7.0
67.741	4.0
67.756	4.0
67.771	2.0
67.786	0.0
67.801	3.0
67.816	4.0
67.831	0.0
67.846	2.0
67.861	3.0
67.876	2.0
67.891	8.0
67.906	4.0
67.922	2.0
67.937	2.0
67.952	3.0
67.967	4.0
67.982	7.0
67.997	3.0
68.012	8.0
68.027	1.0
68.042	5.0
68.057	2.0
68.072	4.0
68.087	5.0
68.103	4.0
68.118	1.0
68.133	4.0
68.148	2.0
68.163	4.0
68.178	4.0
68.193	5.0
68.208	3.0
68.223	4.0
68.238	3.0
68.254	4.0
68.269	3.0
68.284	5.0
68.299	7.0
68.314	3.0
68.329	2.0
68.344	6.0
68.359	6.0
68.374	4.0
68.389	4.0
68.405	11.0
68.42	5.0
68.435	3.0
68.45	4.0
68.465	4.0
68.48	4.0
68.495	5.0
68.51	4.0
68.525	3.0
68.54	5.0
68.556	3.0
68.571	1.0
68.586	4.0
68.601	5.0
68.616	5.0
68.631	2.0
68.646	3.0
68.661	5.0
68.676	5.0
68.691	6.0
68.707	3.0
68.722	5.0
68.737	3.0
68.752	3.0
68.767	4.0
68.782	2.0
68.797	4.0
68.812	4.0
68.827	4.0
68.842	5.0
68.857	2.0
68.873	1.0
68.888	7.0
68.903	2.0
68.918	4.0
68.933	5.0
68.948	8.0
68.963	3.0
68.978	4.0
68.993	4.0
69.008	3.0
69.023	2.0
69.038	1.0
69.054	1.0
69.069	7.0
69.084	3.0
69.099	3.0
69.114	4.0
69.129	5.0
69.144	5.0
69.159	1.0
69.174	6.0
69.189	2.0
69.204	4.0
69.219	3.0
69.234	5.0
69.249	1.0
69.264	2.0
69.279	4.0
69.295	4.0
69.31	6.0
69.325	4.0
69.34	2.0
69.355	6.0
69.37	6.0
69.385	4.0
69.4	1.0
69.415	3.0
69.43	8.0
69.445	3.0
69.46	4.0
69.475	2.0
69.49	2.0
69.505	6.0
69.52	6.0
69.535	5.0
69.55	3.0
69.565	2.0
69.58	1.0
69.595	4.0
69.61	3.0
69.625	8.0
69.64	3.0
69.655	3.0
69.67	2.0
69.685	6.0
69.7	4.0
69.715	2.0
69.73	9.0
69.745	3.0
69.76	4.0
69.775	3.0
69.79	14.0
69.805	9.0
69.82	2.0
69.835	6.0
69.85	4.0
69.865	4.0
69.88	4.0
69.895	1.0
69.909	5.0
69.924	7.0
69.939	1.0
69.954	3.0
69.969	7.0
69.984	4.0
69.999	3.0
70.014	2.0
70.029	4.0
70.044	2.0
70.059	3.0
70.074	4.0
70.088	6.0
70.103	1.0
70.118	6.0
70.133	5.0
70.148	4.0
70.163	5.0
70.178	4.0
70.193	3.0
70.208	7.0
70.222	5.0
70.237	8.0
70.252	2.0
70.267	7.0
70.282	3.0
70.297	5.0
70.312	10.0
70.327	4.0
70.341	3.0
70.356	6.0
70.371	7.0
70.386	3.0
70.401	4.0
70.416	0.0
70.43	5.0
70.445	12.0
70.46	2.0
70.475	2.0
70.49	3.0
70.505	4.0
70.519	2.0
70.534	5.0
70.549	4.0
70.564	5.0
70.579	5.0
70.594	3.0
70.608	9.0
70.623	8.0
70.638	5.0
70.653	10.0
70.668	7.0
70.683	12.0
70.697	7.0
70.712	4.0
70.727	5.0
70.742	4.0
70.757	9.0
70.771	6.0
70.786	2.0
70.801	4.0
70.816	4.0
70.831	5.0
70.845	4.0
70.86	3.0
70.875	7.0
70.89	2.0
70.905	4.0
70.92	5.0
70.934	2.0
70.949	4.0
70.964	5.0
70.979	4.0
70.994	4.0
71.008	0.0
71.023	5.0
71.038	6.0
71.053	3.0
71.068	5.0
71.082	4.0
71.097	5.0
71.112	3.0
71.127	8.0
71.142	3.0
71.156	1.0
71.171	4.0
71.186	5.0
71.201	3.0
71.216	4.0
71.231	4.0
71.245	3.0
71.26	3.0
71.275	3.0
71.29	6.0
71.305	4.0
71.319	4.0
71.334	2.0
71.349	1.0
71.364	7.0
71.379	1.0
71.394	2.0
71.408	3.0
71.423	5.0
71.438	6.0
71.453	6.0
71.468	5.0
71.483	4.0
71.497	6.0
71.512	4.0
71.527	2.0
71.542	1.0
71.557	6.0
71.572	1.0
71.586	8.0
71.601	5.0
71.616	1.0
71.631	2.0
71.646	2.0
71.661	3.0
71.676	6.0
71.69	1.0
71.705	2.0
71.72	3.0
71.735	3.0
71.75	4.0
71.765	4.0
71.78	4.0
71.795	3.0
71.81	5.0
71.824	3.0
71.839	0.0
71.854	7.0
71.869	6.0
71.884	0.0
71.899	2.0
71.914	1.0
71.929	3.0
71.944	3.0
71.959	2.0
71.974	5.0
71.988	3.0
72.003	3.0
72.018	5.0
72.033	6.0
72.048	2.0
72.063	7.0
72.078	4.0
72.093	3.0
72.108	6.0
72.123	1.0
72.138	4.0
72.153	4.0
72.168	1.0
72.183	0.0
72.198	1.0
72.213	0.0
72.228	1.0
72.243	4.0
72.258	8.0
72.273	3.0
72.288	2.0
72.303	4.0
72.318	6.0
72.333	3.0
72.348	2.0
72.363	3.0
72.378	3.0
72.393	5.0
72.408	4.0
72.423	5.0
72.438	4.0
72.453	4.0
72.468	3.0
72.483	3.0
72.498	5.0
72.513	2.0
72.528	3.0
72.543	4.0
72.558	3.0
72.573	1.0
72.588	3.0
72.603	1.0
72.618	0.0
72.633	2.0
72.649	4.0
72.664	2.0
72.679	3.0
72.694	4.0
72.709	3.0
72.724	2.0
72.739	1.0
72.754	3.0
72.769	1.0
72.784	2.0
72.799	1.0
72.814	3.0
72.829	3.0
72.845	2.0
72.86	2.0
72.875	3.0
72.89	0.0
72.905	5.0
72.92	3.0
72.935	2.0
72.95	2.0
72.965	2.0
72.98	6.0
72.996	3.0
73.011	5.0
73.026	5.0
73.041	2.0
73.056	4.0
73.071	6.0
73.086	5.0
73.101	3.0
73.117	4.0
73.132	6.0
73.147	2.0
73.162	1.0
73.177	3.0
73.192	2.0
73.207	3.0
73.222	2.0
73.238	7.0
73.253	8.0
73.268	4.0
73.283	6.0
73.298	8.0
73.313	5.0
73.328	3.0
73.343	7.0
73.359	4.0
73.374	2.0
73.389	4.0
73.404	9.0
73.419	6.0
73.434	5.0
73.449	7.0
73.465	4.0
73.48	6.0
73.495	0.0
73.51	2.0
73.525	4.0
73.54	3.0
73.556	2.0
73.571	2.0
73.586	5.0
73.601	6.0
73.616	3.0
73.631	4.0
73.646	2.0
73.662	3.0
73.677	0.0
73.692	1.0
73.707	0.0
73.722	7.0
73.737	2.0
73.752	3.0
73.768	0.0
73.783	6.0
73.798	1.0
73.813	4.0
73.828	3.0
73.843	1.0
73.859	4.0
73.874	5.0
73.889	6.0
73.904	1.0
73.919	2.0
73.934	4.0
73.949	4.0
73.965	2.0
73.98	0.0
73.995	5.0
74.01	5.0
74.025	1.0
74.04	7.0
74.056	4.0
74.071	1.0
74.086	2.0
74.101	3.0
74.116	5.0
74.131	8.0
74.146	4.0
74.162	3.0
74.177	3.0
74.192	6.0
74.207	6.0
74.222	7.0
74.237	9.0
74.252	6.0
74.268	7.0
74.283	3.0
74.298	2.0
74.313	1.0
74.328	10.0
74.343	3.0
74.358	3.0
74.374	4.0
74.389	3.0
74.404	6.0
74.419	3.0
74.434	2.0
74.449	2.0
74.464	2.0
74.48	4.0
74.495	6.0
74.51	4.0
74.525	5.0
74.54	1.0
74.555	1.0
74.57	3.0
74.586	4.0
74.601	4.0
74.616	2.0
74.631	2.0
74.646	3.0
74.661	2.0
74.676	3.0
74.691	7.0
74.707	3.0
74.722	4.0
74.737	3.0
74.752	2.0
74.767	3.0
74.782	7.0
74.797	8.0
74.813	4.0
74.828	6.0
74.843	2.0
74.858	5.0
74.873	2.0
74.888	2.0
74.903	1.0
74.918	6.0
74.934	4.0
74.949	9.0
74.964	2.0
74.979	2.0
74.994	3.0
75.009	5.0
75.024	0.0
75.04	7.0
75.055	7.0
75.07	5.0
75.085	5.0
75.1	6.0
75.115	1.0
75.13	5.0
75.145	2.0
75.161	6.0
75.176	1.0
75.191	4.0
75.206	4.0
75.221	6.0
75.236	0.0
75.251	5.0
75.266	4.0
75.282	4.0
75.297	2.0
75.312	4.0
75.327	7.0
75.342	2.0
75.357	2.0
75.372	4.0
75.387	5.0
75.403	5.0
75.418	3.0
75.433	1.0
75.448	4.0
75.463	2.0
75.478	5.0
75.493	2.0
75.509	2.0
75.524	4.0
75.539	3.0
75.554	7.0
75.569	0.0
75.584	4.0
75.599	4.0
75.614	5.0
75.63	2.0
75.645	2.0
75.66	4.0
75.675	2.0
75.69	0.0
75.705	4.0
75.72	2.0
75.735	3.0
75.751	4.0
75.766	5.0
75.781	2.0
75.796	2.0
75.811	1.0
75.826	0.0
75.841	3.0
75.856	3.0
75.872	2.0
75.887	1.0
75.902	4.0
75.917	5.0
75.932	4.0
75.947	8.0
75.962	2.0
75.977	3.0
75.993	1.0
76.008	2.0
76.023	2.0
76.038	7.0
76.053	3.0
76.068	3.0
76.083	4.0
76.098	0.0
76.114	5.0
76.129	3.0
76.144	2.0
76.159	1.0
76.174	4.0
76.189	1.0
76.204	3.0
76.22	1.0
76.235	4.0
76.25	2.0
76.265	4.0
76.28	6.0
76.295	1.0
76.31	3.0
76.325	1.0
76.341	3.0
76.356	4.0
76.371	5.0
76.386	6.0
76.401	2.0
76.416	5.0
76.431	6.0
76.446	5.0
76.462	6.0
76.477	4.0
76.492	2.0
76.507	2.0
76.522	3.0
76.537	1.0
76.552	3.0
76.567	4.0
76.583	5.0
76.598	4.0
76.613	2.0
76.628	2.0
76.643	2.0
76.658	5.0
76.673	4.0
76.688	3.0
76.704	4.0
76.719	1.0
76.734	4.0
76.749	2.0
76.764	4.0
76.779	1.0
76.794	2.0
76.809	5.0
76.824	1.0
76.84	3.0
76.855	7.0
76.87	2.0
76.885	3.0
76.9	3.0
76.915	2.0
76.93	0.0
76.945	2.0
76.96	1.0
76.976	6.0
76.991	3.0
77.006	5.0
77.021	2.0
77.036	1.0
77.051	5.0
77.066	3.0
77.081	2.0
77.096	4.0
77.112	2.0
77.127	3.0
77.142	1.0
77.157	3.0
77.172	1.0
77.187	0.0
77.202	4.0
77.217	0.0
77.232	7.0
77.247	4.0
77.263	6.0
77.278	0.0
77.293	4.0
77.308	3.0
77.323	4.0
77.338	4.0
77.353	2.0
77.368	2.0
77.383	2.0
77.398	3.0
77.413	7.0
77.428	4.0
77.444	6.0
77.459	2.0
77.474	10.0
77.489	3.0
77.504	0.0
77.519	2.0
77.534	7.0
77.549	10.0
77.564	5.0
77.579	6.0
77.594	6.0
77.609	3.0
77.624	2.0
77.64	3.0
77.655	4.0
77.67	8.0
77.685	9.0
77.7	4.0
77.715	4.0
77.73	6.0
77.745	5.0
77.76	1.0
77.775	6.0
77.79	0.0
77.805	0.0
77.82	5.0
77.835	1.0
77.85	1.0
77.865	4.0
77.88	1.0
77.895	2.0
77.91	0.0
77.926	2.0
77.941	2.0
77.956	4.0
77.971	3.0
77.986	1.0
78.001	8.0
78.016	1.0
78.031	3.0
78.046	1.0
78.061	1.0
78.076	4.0
78.091	4.0
78.106	3.0
78.121	13.0
78.136	6.0
78.151	6.0
78.166	5.0
78.181	4.0
78.196	5.0
78.211	2.0
78.226	1.0
78.241	3.0
78.256	2.0
78.271	4.0
78.286	3.0
78.301	1.0
78.316	4.0
78.331	2.0
78.346	4.0
78.361	3.0
78.376	4.0
78.391	3.0
78.406	2.0
78.421	4.0
78.436	3.0
78.451	3.0
78.466	4.0
78.481	1.0
78.496	2.0
78.511	0.0
78.526	1.0
78.541	4.0
78.556	11.0
78.571	2.0
78.586	4.0
78.601	4.0
78.616	2.0
78.631	2.0
78.646	3.0
78.661	1.0
78.676	3.0
78.691	0.0
78.706	2.0
78.721	4.0
78.736	4.0
78.751	3.0
78.766	2.0
78.781	1.0
78.796	4.0
78.811	3.0
78.826	5.0
78.841	1.0
78.856	4.0
78.871	2.0
78.885	5.0
78.9	3.0
78.915	4.0
78.93	3.0
78.945	3.0
78.96	1.0
78.975	2.0
78.99	2.0
79.005	6.0
79.02	1.0
79.035	2.0
79.05	2.0
79.065	1.0
79.08	3.0
79.095	2.0
79.11	1.0
79.125	3.0
79.14	4.0
79.155	3.0
79.17	5.0
79.185	4.0
79.2	5.0
79.215	2.0
79.23	2.0
79.245	3.0
79.26	4.0
79.275	1.0
79.29	4.0
79.304	2.0
79.319	6.0
79.334	3.0
79.349	4.0
79.364	5.0
79.379	2.0
79.394	7.0
79.409	4.0
79.424	3.0
79.439	6.0
79.454	4.0
79.469	5.0
79.484	3.0
79.499	4.0
79.514	3.0
79.529	6.0
79.544	3.0
79.559	3.0
79.574	2.0
79.589	0.0
79.604	5.0
79.619	4.0
79.634	6.0
79.649	3.0
79.664	2.0
79.679	2.0
79.693	5.0
79.708	1.0
79.723	4.0
79.738	2.0
79.753	1.0
79.768	6.0
79.783	5.0
79.798	5.0
79.813	4.0
79.828	1.0
79.843	3.0
79.858	2.0
79.873	3.0
79.888	4.0
79.903	4.0
79.918	2.0
79.933	0.0
79.948	3.0
79.963	2.0
79.978	6.0
79.993	5.0
80.008	3.0
80.023	0.0
80.038	3.0
80.053	3.0
80.068	7.0
80.083	2.0
80.098	4.0
80.113	9.0
80.128	1.0
80.143	3.0
80.158	5.0
80.173	4.0
80.188	3.0
80.202	3.0
80.217	3.0
80.232	3.0
80.247	7.0
80.262	6.0
80.277	4.0
80.292	3.0
80.307	5.0
80.322	0.0
80.337	4.0
80.352	3.0
80.367	2.0
80.382	2.0
80.397	4.0
80.412	3.0
80.427	3.0
80.442	1.0
80.457	4.0
80.472	1.0
80.487	3.0
80.502	3.0
80.517	2.0
80.532	2.0
80.547	6.0
80.562	5.0
80.577	2.0
80.592	3.0
80.607	2.0
80.622	2.0
80.637	4.0
80.652	2.0
80.667	5.0
80.682	7.0
80.697	4.0
80.712	2.0
80.727	6.0
80.742	1.0
80.757	4.0
80.772	1.0
80.787	2.0
80.802	3.0
80.817	4.0
80.832	1.0
80.847	2.0
80.862	6.0
80.877	4.0
80.892	3.0
80.907	5.0
80.922	4.0
80.937	2.0
80.952	2.0
80.967	3.0
80.982	1.0
80.997	4.0
81.012	6.0
81.027	3.0
81.042	2.0
81.057	4.0
81.072	1.0
81.087	5.0
81.101	1.0
81.116	2.0
81.131	7.0
81.146	2.0
81.161	5.0
81.176	1.0
81.191	6.0
81.206	3.0
81.221	2.0
81.236	1.0
81.251	2.0
81.266	2.0
81.281	9.0
81.296	1.0
81.311	4.0
81.326	4.0
81.341	4.0
81.356	4.0
81.371	4.0
81.386	2.0
81.401	3.0
81.416	6.0
81.431	5.0
81.446	4.0
81.461	2.0
81.476	4.0
81.491	2.0
81.506	2.0
81.521	4.0
81.536	4.0
81.55	5.0
81.565	2.0
81.58	1.0
81.595	3.0
81.61	1.0
81.625	1.0
81.64	2.0
81.655	4.0
81.67	5.0
81.685	4.0
81.7	2.0
81.715	4.0
81.73	3.0
81.745	4.0
81.76	2.0
81.775	2.0
81.79	0.0
81.805	5.0
81.819	2.0
81.834	3.0
81.849	0.0
81.864	3.0
81.879	0.0
81.894	1.0
81.909	4.0
81.924	4.0
81.939	6.0
81.954	2.0
81.969	3.0
81.984	1.0
81.999	4.0
82.013	2.0
82.028	3.0
82.043	3.0
82.058	4.0
82.073	3.0
82.088	2.0
82.103	2.0
82.118	2.0
82.133	2.0
82.148	3.0
82.163	2.0
82.177	4.0
82.192	5.0
82.207	5.0
82.222	1.0
82.237	3.0
82.252	2.0
82.267	1.0
82.282	4.0
82.297	2.0
82.312	3.0
82.326	5.0
82.341	4.0
82.356	2.0
82.371	1.0
82.386	0.0
82.401	4.0
82.416	2.0
82.431	5.0
82.445	1.0
82.46	3.0
82.475	4.0
82.49	5.0
82.505	4.0
82.52	3.0
82.535	3.0
82.55	2.0
82.565	5.0
82.579	3.0
82.594	6.0
82.609	3.0
82.624	3.0
82.639	1.0
82.654	2.0
82.669	2.0
82.684	6.0
82.698	0.0
82.713	3.0
82.728	1.0
82.743	6.0
82.758	5.0
82.773	2.0
82.788	3.0
82.803	3.0
82.817	3.0
82.832	3.0
82.847	2.0
82.862	4.0
82.877	3.0
82.892	5.0
82.907	1.0
82.922	2.0
82.937	4.0
82.951	1.0
82.966	3.0
82.981	3.0
82.996	3.0
83.011	3.0
83.026	2.0
83.041	1.0
83.056	2.0
83.07	1.0
83.085	4.0
83.1	5.0
83.115	4.0
83.13	2.0
83.145	3.0
83.16	4.0
83.175	1.0
83.19	1.0
83.204	3.0
83.219	6.0
83.234	4.0
83.249	3.0
83.264	3.0
83.279	1.0
83.294	6.0
83.309	2.0
83.324	5.0
83.339	2.0
83.353	5.0
83.368	0.0
83.383	4.0
83.398	4.0
83.413	4.0
83.428	2.0
83.443	3.0
83.458	4.0
83.473	6.0
83.488	2.0
83.503	3.0
83.517	3.0
83.532	1.0
83.547	5.0
83.562	2.0
83.577	1.0
83.592	4.0
83.607	3.0
83.622	4.0
83.637	5.0
83.652	2.0
83.667	0.0
83.682	0.0
83.697	2.0
83.712	3.0
83.727	1.0
83.741	0.0
83.756	3.0
83.771	2.0
83.786	1.0
83.801	3.0
83.816	5.0
83.831	6.0
83.846	4.0
83.861	3.0
83.876	0.0
83.891	1.0
83.906	3.0
83.921	1.0
83.936	2.0
83.951	3.0
83.966	2.0
83.981	2.0
83.996	8.0
84.011	2.0
84.026	0.0
84.041	1.0
84.056	4.0
84.071	4.0
84.086	4.0
84.101	3.0
84.116	0.0
84.131	1.0
84.146	3.0
84.161	5.0
84.176	7.0
84.191	3.0
84.206	5.0
84.221	2.0
84.236	4.0
84.251	6.0
84.266	3.0
84.281	6.0
84.296	3.0
84.311	2.0
84.326	3.0
84.341	9.0
84.356	7.0
84.371	8.0
84.386	2.0
84.401	2.0
84.416	3.0
84.431	6.0
84.446	3.0
84.461	3.0
84.476	5.0
84.492	3.0
84.507	2.0
84.522	3.0
84.537	1.0
84.552	3.0
84.567	3.0
84.582	3.0
84.597	1.0
84.612	3.0
84.627	2.0
84.642	2.0
84.657	4.0
84.672	3.0
84.687	5.0
84.702	2.0
84.717	1.0
84.733	1.0
84.748	4.0
84.763	6.0
84.778	3.0
84.793	1.0
84.808	3.0
84.823	2.0
84.838	4.0
84.853	3.0
84.868	4.0
84.883	3.0
84.898	2.0
84.913	2.0
84.929	7.0
84.944	6.0
84.959	1.0
84.974	3.0
84.989	2.0
85.004	2.0
85.019	6.0
85.034	3.0
85.049	6.0
85.064	6.0
85.079	4.0
85.094	8.0
85.11	3.0
85.125	3.0
85.14	5.0
85.155	5.0
85.17	4.0
85.185	2.0
85.2	4.0
85.215	4.0
85.23	3.0
85.245	2.0
85.26	3.0
85.276	4.0
85.291	2.0
85.306	0.0
85.321	0.0
85.336	4.0
85.351	4.0
85.366	1.0
85.381	5.0
85.396	2.0
85.411	1.0
85.426	2.0
85.441	4.0
85.457	3.0
85.472	7.0
85.487	3.0
85.502	1.0
85.517	3.0
85.532	3.0
85.547	5.0
85.562	4.0
85.577	3.0
85.592	4.0
85.607	2.0
85.622	1.0
85.637	1.0
85.653	5.0
85.668	6.0
85.683	2.0
85.698	3.0
85.713	2.0
85.728	1.0
85.743	2.0
85.758	3.0
85.773	1.0
85.788	2.0
85.803	2.0
85.818	1.0
85.833	2.0
85.848	1.0
85.863	6.0
85.879	4.0
85.894	5.0
85.909	2.0
85.924	1.0
85.939	3.0
85.954	2.0
85.969	1.0
85.984	3.0
85.999	4.0
86.014	2.0
86.029	5.0
86.044	0.0
86.059	4.0
86.074	5.0
86.089	4.0
86.104	3.0
86.119	3.0
86.134	5.0
86.149	2.0
86.164	5.0
86.179	5.0
86.194	0.0
86.209	1.0
86.224	1.0
86.239	5.0
86.254	4.0
86.269	3.0
86.284	3.0
86.299	4.0
86.314	2.0
86.33	3.0
86.345	3.0
86.36	0.0
86.375	2.0
86.39	2.0
86.405	2.0
86.42	6.0
86.435	4.0
86.45	3.0
86.465	4.0
86.48	7.0
86.495	1.0
86.51	2.0
86.525	1.0
86.54	4.0
86.555	2.0
86.57	4.0
86.585	2.0
86.6	2.0
86.615	1.0
86.63	3.0
86.645	5.0
86.659	7.0
86.674	5.0
86.689	4.0
86.704	6.0
86.719	3.0
86.734	2.0
86.749	3.0
86.764	5.0
86.779	3.0
86.794	3.0
86.809	5.0
86.824	6.0
86.839	2.0
86.854	4.0
86.869	1.0
86.884	7.0
86.899	2.0
86.914	3.0
86.929	6.0
86.944	6.0
86.959	5.0
86.974	9.0
86.989	1.0
87.004	4.0
87.019	1.0
87.034	1.0
87.049	5.0
87.064	1.0
87.079	2.0
87.094	3.0
87.109	2.0
87.124	4.0
87.139	2.0
87.154	3.0
87.169	3.0
87.184	2.0
87.199	3.0
87.214	2.0
87.229	3.0
87.244	6.0
87.259	7.0
87.274	5.0
87.289	3.0
87.304	2.0
87.319	1.0
87.334	4.0
87.349	7.0
87.364	2.0
87.379	3.0
87.394	1.0
87.409	1.0
87.424	2.0
87.438	4.0
87.453	1.0
87.468	4.0
87.483	6.0
87.498	3.0
87.513	4.0
87.528	3.0
87.543	5.0
87.558	2.0
87.573	2.0
87.588	3.0
87.603	3.0
87.618	2.0
87.633	6.0
87.648	5.0
87.663	1.0
87.678	1.0
87.693	1.0
87.708	4.0
87.723	5.0
87.738	2.0
87.753	4.0
87.768	5.0
87.783	7.0
87.798	2.0
87.813	1.0
87.828	2.0
87.843	3.0
87.858	6.0
87.873	1.0
87.888	2.0
87.903	3.0
87.918	8.0
87.933	0.0
87.948	4.0
87.963	2.0
87.978	7.0
87.993	2.0
88.008	2.0
88.023	2.0
88.038	5.0
88.053	2.0
88.068	2.0
88.083	0.0
88.098	1.0
88.113	2.0
88.128	2.0
88.143	5.0
88.158	1.0
88.174	2.0
88.189	2.0
88.204	3.0
88.219	4.0
88.234	3.0
88.249	0.0
88.264	6.0
88.279	5.0
88.294	5.0
88.309	0.0
88.324	3.0
88.339	1.0
88.354	3.0
88.369	3.0
88.384	4.0
88.399	3.0
88.414	9.0
88.429	2.0
88.444	5.0
88.459	4.0
88.474	6.0
88.489	4.0
88.504	1.0
88.519	3.0
88.534	3.0
88.549	2.0
88.564	5.0
88.58	2.0
88.595	1.0
88.61	6.0
88.625	4.0
88.64	1.0
88.655	3.0
88.67	2.0
88.685	5.0
88.7	6.0
88.715	3.0
88.73	3.0
88.745	8.0
88.76	4.0
88.775	3.0
88.79	3.0
88.805	6.0
88.82	4.0
88.835	3.0
88.85	1.0
88.865	5.0
88.88	4.0
88.895	6.0
88.911	2.0
88.926	1.0
88.941	4.0
88.956	4.0
88.971	1.0
88.986	1.0
89.001	3.0
89.016	2.0
89.031	4.0
89.046	3.0
89.061	0.0
89.076	0.0
89.091	2.0
89.106	3.0
89.121	3.0
89.136	6.0
89.151	3.0
89.166	4.0
89.181	2.0
89.196	4.0
89.211	2.0
89.227	3.0
89.242	2.0
89.257	3.0
89.272	1.0
89.287	5.0
89.302	3.0
89.317	3.0
89.332	1.0
89.347	1.0
89.362	0.0
89.377	4.0
89.392	4.0
89.407	7.0
89.422	1.0
89.437	4.0
89.452	2.0
89.467	4.0
89.482	1.0
89.497	2.0
89.512	2.0
89.527	4.0
89.542	1.0
89.557	2.0
89.572	5.0
89.587	3.0
89.602	0.0
89.617	2.0
89.632	2.0
89.647	1.0
89.662	1.0
89.677	1.0
89.693	1.0
89.708	5.0
89.723	2.0
89.738	2.0
89.753	2.0
89.768	0.0
89.783	4.0
89.798	0.0
89.813	4.0
89.828	4.0
89.843	4.0
89.858	5.0
89.873	2.0
89.888	2.0
89.903	1.0
89.918	3.0
89.933	3.0
89.948	5.0
89.963	0.0
89.978	2.0
89.993	4.0
90.008	3.0
90.023	4.0
90.038	2.0
90.053	4.0
90.068	3.0
90.083	5.0
90.097	1.0
90.112	5.0
90.127	5.0
90.142	8.0
90.157	1.0
90.172	5.0
90.187	3.0
90.202	1.0
90.217	7.0
90.232	1.0
90.247	7.0
90.262	4.0
90.277	6.0
90.292	5.0
90.307	6.0
90.322	1.0
90.337	5.0
90.352	6.0
90.367	3.0
90.382	3.0
90.397	4.0
90.412	3.0
90.427	0.0
90.442	1.0
90.457	6.0
90.472	2.0
90.487	4.0
90.501	4.0
90.516	4.0
90.531	3.0
90.546	5.0
90.561	0.0
90.576	1.0
90.591	2.0
90.606	6.0
90.621	5.0
90.636	2.0
90.651	0.0
90.666	1.0
90.681	3.0
90.696	7.0
90.711	0.0
90.726	2.0
90.741	1.0
90.755	2.0
90.77	2.0
90.785	5.0
90.8	4.0
90.815	5.0
90.83	5.0
90.845	2.0
90.86	0.0
90.875	5.0
90.89	2.0
90.905	10.0
90.92	1.0
90.935	4.0
90.95	5.0
90.965	3.0
90.979	3.0
90.994	3.0
91.009	3.0
91.024	2.0
91.039	0.0
91.054	2.0
91.069	4.0
91.084	1.0
91.099	3.0
91.114	2.0
91.129	2.0
91.144	0.0
91.159	3.0
91.174	4.0
91.188	1.0
91.203	2.0
91.218	7.0
91.233	6.0
91.248	3.0
91.263	0.0
91.278	1.0
91.293	5.0
91.308	2.0
91.323	1.0
91.338	3.0
91.353	1.0
91.368	3.0
91.383	7.0
91.398	4.0
91.412	2.0
91.427	5.0
91.442	2.0
91.457	3.0
91.472	1.0
91.487	1.0
91.502	1.0
91.517	5.0
91.532	2.0
91.547	1.0
91.562	1.0
91.577	3.0
91.592	3.0
91.607	0.0
91.622	4.0
91.637	6.0
91.652	1.0
91.666	7.0
91.681	3.0
91.696	5.0
91.711	3.0
91.726	2.0
91.741	2.0
91.756	1.0
91.771	3.0
91.786	3.0
91.801	0.0
91.816	2.0
91.831	3.0
91.846	5.0
91.861	3.0
91.876	2.0
91.891	2.0
91.906	4.0
91.921	2.0
91.936	0.0
91.951	3.0
91.966	4.0
91.981	3.0
91.995	1.0
92.01	0.0
92.025	2.0
92.04	3.0
92.055	2.0
92.07	2.0
92.085	3.0
92.1	2.0
92.115	1.0
92.13	4.0
92.145	1.0
92.16	5.0
92.175	3.0
92.19	1.0
92.205	1.0
92.22	1.0
92.235	2.0
92.25	3.0
92.265	8.0
92.28	2.0
92.295	1.0
92.31	4.0
92.325	5.0
92.34	4.0
92.355	3.0
92.37	4.0
92.385	1.0
92.4	0.0
92.415	3.0
92.43	2.0
92.445	2.0
92.46	4.0
92.475	2.0
92.49	2.0
92.505	5.0
92.52	0.0
92.535	4.0
92.55	3.0
92.565	2.0
92.58	3.0
92.595	2.0
92.61	3.0
92.625	4.0
92.64	5.0
92.655	2.0
92.67	4.0
92.685	2.0
92.7	1.0
92.715	2.0
92.73	4.0
92.745	3.0
92.76	7.0
92.775	5.0
92.79	2.0
92.805	0.0
92.82	3.0
92.835	3.0
92.85	3.0
92.865	7.0
92.88	4.0
92.895	3.0
92.91	1.0
92.925	2.0
92.94	2.0
92.955	1.0
92.97	2.0
92.985	4.0
93.0	4.0
93.015	4.0
93.03	3.0
93.045	1.0
93.06	2.0
93.075	4.0
93.09	3.0
93.105	3.0
93.12	4.0
93.135	3.0
93.15	2.0
93.165	4.0
93.18	5.0
93.195	0.0
93.21	2.0
93.225	1.0
93.24	7.0
93.255	5.0
93.27	1.0
93.285	5.0
93.3	2.0
93.315	3.0
93.33	2.0
93.345	5.0
93.36	2.0
93.375	5.0
93.39	2.0
93.405	1.0
93.42	2.0
93.435	2.0
93.45	4.0
93.465	4.0
93.48	7.0
93.495	3.0
93.51	4.0
93.525	4.0
93.54	2.0
93.555	7.0
93.57	5.0
93.585	4.0
93.6	3.0
93.615	3.0
93.63	6.0
93.645	6.0
93.66	1.0
93.675	1.0
93.69	3.0
93.705	5.0
93.72	1.0
93.735	0.0
93.75	6.0
93.765	4.0
93.78	2.0
93.795	7.0
93.81	2.0
93.824	4.0
93.839	3.0
93.854	3.0
93.869	2.0
93.884	3.0
93.899	3.0
93.914	4.0
93.929	2.0
93.944	1.0
93.959	3.0
93.974	1.0
93.989	0.0
94.004	2.0
94.019	8.0
94.034	2.0
94.049	4.0
94.064	5.0
94.079	3.0
94.094	4.0
94.108	3.0
94.123	4.0
94.138	1.0
94.153	2.0
94.168	4.0
94.183	3.0
94.198	1.0
94.213	8.0
94.228	3.0
94.243	2.0
94.258	7.0
94.273	2.0
94.288	3.0
94.302	5.0
94.317	5.0
94.332	6.0
94.347	3.0
94.362	7.0
94.377	7.0
94.392	4.0
94.407	7.0
94.422	6.0
94.437	1.0
94.452	2.0
94.466	3.0
94.481	3.0
94.496	8.0
94.511	5.0
94.526	8.0
94.541	6.0
94.556	5.0
94.571	4.0
94.586	1.0
94.601	2.0
94.615	2.0
94.63	0.0
94.645	3.0
94.66	1.0
94.675	2.0
94.69	3.0
94.705	3.0
94.72	2.0
94.735	4.0
94.749	3.0
94.764	2.0
94.779	1.0
94.794	4.0
94.809	3.0
94.824	4.0
94.839	5.0
94.854	3.0
94.868	4.0
94.883	3.0
94.898	6.0
94.913	4.0
94.928	4.0
94.943	1.0
94.958	3.0
94.973	2.0
94.987	4.0
95.002	5.0
95.017	3.0
95.032	4.0
95.047	5.0
95.062	3.0
95.077	3.0
95.092	3.0
95.106	3.0
95.121	2.0
95.136	4.0
95.151	0.0
95.166	3.0
95.181	5.0
95.196	2.0
95.211	4.0
95.226	7.0
95.24	4.0
95.255	2.0
95.27	5.0
95.285	5.0
95.3	2.0
95.315	2.0
95.33	3.0
95.345	3.0
95.359	2.0
95.374	4.0
95.389	4.0
95.404	3.0
95.419	2.0
95.434	1.0
95.449	5.0
95.464	5.0
95.478	2.0
95.493	4.0
95.508	3.0
95.523	2.0
95.538	4.0
95.553	5.0
95.568	4.0
95.583	3.0
95.597	4.0
95.612	2.0
95.627	4.0
95.642	2.0
95.657	1.0
95.672	4.0
95.687	4.0
95.702	2.0
95.717	1.0
95.731	3.0
95.746	2.0
95.761	7.0
95.776	2.0
95.791	5.0
95.806	6.0
95.821	5.0
95.836	2.0
95.851	3.0
95.866	1.0
95.88	4.0
95.895	3.0
95.91	4.0
95.925	3.0
95.94	2.0
95.955	8.0
95.97	4.0
95.985	3.0
96.0	2.0
96.015	4.0
96.029	0.0
96.044	1.0
96.059	6.0
96.074	1.0
96.089	5.0
96.104	4.0
96.119	2.0
96.134	1.0
96.149	4.0
96.164	3.0
96.179	3.0
96.194	3.0
96.208	3.0
96.223	3.0
96.238	3.0
96.253	4.0
96.268	4.0
96.283	2.0
96.298	5.0
96.313	1.0
96.328	5.0
96.343	4.0
96.358	4.0
96.373	5.0
96.388	2.0
96.403	1.0
96.417	7.0
96.432	5.0
96.447	1.0
96.462	1.0
96.477	4.0
96.492	1.0
96.507	3.0
96.522	1.0
96.537	5.0
96.552	1.0
96.567	4.0
96.582	2.0
96.597	4.0
96.612	4.0
96.627	5.0
96.642	3.0
96.656	2.0
96.671	3.0
96.686	2.0
96.701	3.0
96.716	3.0
96.731	2.0
96.746	3.0
96.761	0.0
96.776	3.0
96.791	3.0
96.806	5.0
96.821	4.0
96.836	4.0
96.851	6.0
96.866	8.0
96.881	4.0
96.896	4.0
96.911	6.0
96.926	5.0
96.94	5.0
96.955	6.0
96.97	3.0
96.985	2.0
97.0	6.0
97.015	4.0
97.03	5.0
97.045	3.0
97.06	8.0
97.075	4.0
97.09	3.0
97.105	4.0
97.12	0.0
97.135	1.0
97.15	2.0
97.165	5.0
97.18	5.0
97.195	3.0
97.21	4.0
97.225	2.0
97.239	4.0
97.254	2.0
97.269	5.0
97.284	6.0
97.299	2.0
97.314	4.0
97.329	3.0
97.344	2.0
97.359	4.0
97.374	3.0
97.389	3.0
97.404	1.0
97.419	2.0
97.434	0.0
97.449	1.0
97.464	5.0
97.479	1.0
97.494	6.0
97.509	1.0
97.524	4.0
97.538	6.0
97.553	5.0
97.568	4.0
97.583	0.0
97.598	2.0
97.613	1.0
97.628	1.0
97.643	5.0
97.658	7.0
97.673	0.0
97.688	2.0
97.703	4.0
97.718	3.0
97.733	5.0
97.748	4.0
97.763	5.0
97.778	3.0
97.792	3.0
97.807	4.0
97.822	5.0
97.837	1.0
97.852	5.0
97.867	2.0
97.882	3.0
97.897	2.0
97.912	3.0
97.927	5.0
97.942	6.0
97.957	2.0
97.972	2.0
97.987	2.0
98.001	5.0
98.016	4.0
98.031	2.0
98.046	5.0
98.061	5.0
98.076	3.0
98.091	5.0
98.106	3.0
98.121	2.0
98.136	3.0
98.151	4.0
98.166	2.0
98.181	3.0
98.195	3.0
98.21	3.0
98.225	6.0
98.24	4.0
98.255	2.0
98.27	2.0
98.285	7.0
98.3	4.0
98.315	3.0
98.33	2.0
98.345	0.0
98.359	3.0
98.374	2.0
98.389	2.0
98.404	9.0
98.419	0.0
98.434	4.0
98.449	3.0
98.464	5.0
98.479	2.0
98.494	3.0
98.508	5.0
98.523	5.0
98.538	3.0
98.553	3.0
98.568	3.0
98.583	3.0
98.598	5.0
98.613	4.0
98.628	0.0
98.642	5.0
98.657	2.0
98.672	1.0
98.687	4.0
98.702	1.0
98.717	3.0
98.732	2.0
98.747	3.0
98.762	4.0
98.776	6.0
98.791	3.0
98.806	2.0
98.821	3.0
98.836	4.0
98.851	1.0
98.866	0.0
98.881	2.0
98.896	3.0
98.91	3.0
98.925	5.0
98.94	2.0
98.955	3.0
98.97	4.0
98.985	2.0
99.0	1.0
99.015	2.0
99.029	3.0
99.044	3.0
99.059	3.0
99.074	5.0
99.089	3.0
99.104	2.0
99.119	3.0
99.133	1.0
99.148	5.0
99.163	4.0
99.178	4.0
99.193	4.0
99.208	2.0
99.223	2.0
99.238	1.0
99.252	4.0
99.267	1.0
99.282	1.0
99.297	1.0
99.312	2.0
99.327	5.0
99.342	3.0
99.356	2.0
99.371	2.0
99.386	3.0
99.401	4.0
99.416	5.0
99.431	0.0
99.446	3.0
99.461	4.0
99.475	3.0
99.49	3.0
99.505	1.0
99.52	3.0
99.535	4.0
99.55	1.0
99.565	1.0
99.579	3.0
99.594	1.0
99.609	6.0
99.624	1.0
99.639	8.0
99.654	2.0
99.669	1.0
99.683	3.0
99.698	2.0
99.713	1.0
99.728	3.0
99.743	3.0
99.758	0.0
99.772	1.0
99.787	2.0
99.802	4.0
99.817	6.0
99.832	2.0
99.847	1.0
99.862	3.0
99.876	2.0
99.891	1.0
99.906	6.0
99.921	3.0
99.936	1.0
99.951	3.0
99.966	1.0
99.98	4.0
99.995	4.0
100.01	4.0
100.025	5.0
100.04	4.0
100.055	3.0
100.069	2.0
100.084	4.0
100.099	3.0
100.114	0.0
100.129	1.0
100.144	2.0
100.159	4.0
100.173	2.0
100.188	2.0
100.203	5.0
100.218	1.0
100.233	4.0
100.248	5.0
100.262	3.0
100.277	5.0
100.292	3.0
100.307	3.0
100.322	6.0
100.337	4.0
100.351	1.0
100.366	1.0
100.381	5.0
100.396	5.0
100.411	2.0
100.426	2.0
100.441	6.0
100.455	2.0
100.47	4.0
100.485	3.0
100.5	2.0
100.515	4.0
100.53	5.0
100.544	3.0
100.559	3.0
100.574	0.0
100.589	3.0
100.604	2.0
100.619	2.0
100.633	3.0
100.648	4.0
100.663	2.0
100.678	3.0
100.693	1.0
100.708	3.0
100.722	3.0
100.737	3.0
100.752	2.0
100.767	2.0
100.782	2.0
100.796	6.0
100.811	1.0
100.826	4.0
100.841	2.0
100.856	3.0
100.871	1.0
100.885	3.0
100.9	3.0
100.915	2.0
100.93	4.0
100.945	2.0
100.96	3.0
100.974	3.0
100.989	2.0
101.004	1.0
101.019	3.0
101.034	6.0
101.048	0.0
101.063	5.0
101.078	4.0
101.093	2.0
101.108	3.0
101.123	4.0
101.137	3.0
101.152	7.0
101.167	2.0
101.182	5.0
101.197	6.0
101.211	1.0
101.226	3.0
101.241	3.0
101.256	5.0
101.271	5.0
101.285	6.0
101.3	2.0
101.315	3.0
101.33	2.0
101.345	6.0
101.359	3.0
101.374	2.0
101.389	2.0
101.404	4.0
101.419	8.0
101.433	6.0
101.448	4.0
101.463	1.0
101.478	2.0
101.493	4.0
101.507	6.0
101.522	5.0
101.537	5.0
101.552	4.0
101.567	0.0
101.581	4.0
101.596	0.0
101.611	2.0
101.626	7.0
101.64	4.0
101.655	3.0
101.67	1.0
101.685	5.0
101.7	3.0
101.714	1.0
101.729	7.0
101.744	4.0
101.759	1.0
101.773	1.0
101.788	2.0
101.803	1.0
101.818	2.0
101.833	3.0
101.847	3.0
101.862	1.0
101.877	5.0
101.892	4.0
101.906	4.0
101.921	5.0
101.936	4.0
101.951	2.0
101.965	2.0
101.98	9.0
101.995	2.0
102.01	4.0
102.025	2.0
102.039	5.0
102.054	4.0
102.069	4.0
102.084	5.0
102.098	4.0
102.113	3.0
102.128	9.0
102.143	3.0
102.157	3.0
102.172	4.0
102.187	5.0
102.202	4.0
102.216	5.0
102.231	4.0
102.246	2.0
102.261	4.0
102.275	3.0
102.29	1.0
102.305	4.0
102.32	3.0
102.334	3.0
102.349	5.0
102.364	5.0
102.378	0.0
102.393	3.0
102.408	2.0
102.423	3.0
102.437	3.0
102.452	4.0
102.467	3.0
102.482	1.0
102.496	5.0
102.511	1.0
102.526	3.0
102.541	6.0
102.555	2.0
102.57	0.0
102.585	4.0
102.6	2.0
102.614	4.0
102.629	3.0
102.644	3.0
102.659	5.0
102.673	6.0
102.688	5.0
102.703	3.0
102.717	3.0
102.732	2.0
102.747	4.0
102.762	2.0
102.776	5.0
102.791	2.0
102.806	3.0
102.821	4.0
102.835	1.0
102.85	3.0
102.865	4.0
102.88	1.0
102.894	3.0
102.909	3.0
102.924	5.0
102.938	2.0
102.953	5.0
102.968	3.0
102.983	6.0
102.997	3.0
103.012	0.0
103.027	1.0
103.042	3.0
103.056	2.0
103.071	6.0
103.086	4.0
103.101	5.0
103.115	3.0
103.13	6.0
103.145	1.0
103.16	3.0
103.174	6.0
103.189	3.0
103.204	2.0
103.219	4.0
103.233	4.0
103.248	2.0
103.263	4.0
103.278	2.0
103.292	4.0
103.307	4.0
103.322	5.0
103.337	6.0
103.351	1.0
103.366	4.0
103.381	3.0
103.396	2.0
103.41	4.0
103.425	4.0
103.44	4.0
103.455	2.0
103.469	1.0
103.484	4.0
103.499	3.0
103.514	2.0
103.529	1.0
103.543	2.0
103.558	2.0
103.573	6.0
103.588	5.0
103.602	4.0
103.617	1.0
103.632	4.0
103.647	1.0
103.661	4.0
103.676	5.0
103.691	4.0
103.706	4.0
103.721	2.0
103.735	1.0
103.75	3.0
103.765	3.0
103.78	6.0
103.795	4.0
103.809	0.0
103.824	3.0
103.839	1.0
103.854	1.0
103.869	3.0
103.883	6.0
103.898	3.0
103.913	1.0
103.928	6.0
103.943	5.0
103.957	3.0
103.972	2.0
103.987	1.0
104.002	3.0
104.017	1.0
104.031	0.0
104.046	4.0
104.061	2.0
104.076	4.0
104.091	4.0
104.106	9.0
104.12	3.0
104.135	1.0
104.15	2.0
104.165	2.0
104.18	2.0
104.195	6.0
104.209	4.0
104.224	1.0
104.239	2.0
104.254	2.0
104.269	1.0
104.284	5.0
104.299	5.0
104.313	0.0
104.328	6.0
104.343	2.0
104.358	4.0
104.373	3.0
104.388	4.0
104.403	3.0
104.417	0.0
104.432	1.0
104.447	5.0
104.462	1.0
104.477	6.0
104.492	5.0
104.507	2.0
104.522	8.0
104.536	4.0
104.551	3.0
104.566	7.0
104.581	2.0
104.596	4.0
104.611	4.0
104.626	4.0
104.641	5.0
104.656	4.0
104.67	1.0
104.685	2.0
104.7	4.0
104.715	0.0
104.73	2.0
104.745	2.0
104.76	4.0
104.775	3.0
104.79	0.0
104.804	6.0
104.819	2.0
104.834	3.0
104.849	5.0
104.864	3.0
104.879	4.0
104.894	3.0
104.909	2.0
104.924	5.0
104.939	3.0
104.954	4.0
104.968	7.0
104.983	1.0
104.998	3.0
105.013	3.0
105.028	4.0
105.043	1.0
105.058	2.0
105.073	2.0
105.088	4.0
105.103	6.0
105.118	2.0
105.133	2.0
105.147	4.0
105.162	3.0
105.177	4.0
105.192	2.0
105.207	4.0
105.222	4.0
105.237	2.0
105.252	5.0
105.267	1.0
105.282	2.0
105.297	5.0
105.312	4.0
105.327	1.0
105.342	2.0
105.356	2.0
105.371	4.0
105.386	1.0
105.401	4.0
105.416	6.0
105.431	5.0
105.446	2.0
105.461	3.0
105.476	1.0
105.491	3.0
105.506	2.0
105.521	5.0
105.536	2.0
105.551	6.0
105.566	2.0
105.581	0.0
105.595	2.0
105.61	4.0
105.625	4.0
105.64	5.0
105.655	3.0
105.67	5.0
105.685	2.0
105.7	1.0
105.715	3.0
105.73	2.0
105.745	2.0
105.76	3.0
105.775	4.0
105.79	4.0
105.805	4.0
105.82	0.0
105.835	2.0
105.85	5.0
105.864	3.0
105.879	1.0
105.894	9.0
105.909	7.0
105.924	4.0
105.939	2.0
105.954	5.0
105.969	4.0
105.984	2.0
105.999	4.0
106.014	2.0
106.029	2.0
106.044	6.0
106.059	3.0
106.074	1.0
106.089	1.0
106.104	2.0
106.119	1.0
106.134	2.0
106.148	7.0
106.163	3.0
106.178	3.0
106.193	4.0
106.208	4.0
106.223	4.0
106.238	6.0
106.253	4.0
106.268	3.0
106.283	2.0
106.298	2.0
106.313	3.0
106.328	4.0
106.343	3.0
106.358	2.0
106.373	5.0
106.388	4.0
106.403	5.0
106.418	5.0
106.432	1.0
106.447	3.0
106.462	5.0
106.477	5.0
106.492	6.0
106.507	5.0
106.522	3.0
106.537	5.0
106.552	3.0
106.567	6.0
106.582	2.0
106.597	2.0
106.612	6.0
106.627	2.0
106.642	5.0
106.657	3.0
106.672	1.0
106.687	3.0
106.701	4.0
106.716	4.0
106.731	3.0
106.746	2.0
106.761	6.0
106.776	5.0
106.791	3.0
106.806	4.0
106.821	3.0
106.836	2.0
106.851	5.0
106.866	2.0
106.881	2.0
106.896	7.0
106.911	1.0
106.926	4.0
106.941	5.0
106.955	3.0
106.97	1.0
106.985	0.0
107.0	3.0
107.015	4.0
107.03	3.0
107.045	2.0
107.06	3.0
107.075	6.0
107.09	3.0
107.105	10.0
107.12	4.0
107.135	2.0
107.15	6.0
107.165	2.0
107.18	5.0
107.194	6.0
107.209	1.0
107.224	5.0
107.239	7.0
107.254	5.0
107.269	3.0
107.284	6.0
107.299	4.0
107.314	2.0
107.329	3.0
107.344	5.0
107.359	6.0
107.374	2.0
107.389	2.0
107.404	3.0
107.418	2.0
107.433	2.0
107.448	0.0
107.463	2.0
107.478	4.0
107.493	1.0
107.508	8.0
107.523	1.0
107.538	4.0
107.553	3.0
107.568	4.0
107.583	3.0
107.598	5.0
107.613	4.0
107.627	1.0
107.642	5.0
107.657	3.0
107.672	5.0
107.687	3.0
107.702	4.0
107.717	1.0
107.732	2.0
107.747	6.0
107.762	1.0
107.777	2.0
107.792	3.0
107.807	5.0
107.821	2.0
107.836	5.0
107.851	5.0
107.866	6.0
107.881	3.0
107.896	2.0
107.911	2.0
107.926	3.0
107.941	4.0
107.956	3.0
107.971	1.0
107.986	6.0
108.0	4.0
108.015	2.0
108.03	9.0
108.045	7.0
108.06	5.0
108.075	2.0
108.09	4.0
108.105	6.0
108.12	7.0
108.135	1.0
108.15	4.0
108.164	3.0
108.179	4.0
108.194	6.0
108.209	1.0
108.224	5.0
108.239	2.0
108.254	4.0
108.269	4.0
108.284	3.0
108.299	3.0
108.313	4.0
108.328	4.0
108.343	5.0
108.358	1.0
108.373	5.0
108.388	0.0
108.403	4.0
108.418	2.0
108.433	2.0
108.448	5.0
108.462	6.0
108.477	2.0
108.492	2.0
108.507	4.0
108.522	6.0
108.537	7.0
108.552	3.0
108.567	2.0
108.582	7.0
108.597	5.0
108.611	4.0
108.626	2.0
108.641	2.0
108.656	4.0
108.671	3.0
108.686	4.0
108.701	5.0
108.716	6.0
108.731	8.0
108.745	5.0
108.76	1.0
108.775	4.0
108.79	2.0
108.805	2.0
108.82	5.0
108.835	7.0
108.85	3.0
108.865	7.0
108.879	4.0
108.894	1.0
108.909	3.0
108.924	3.0
108.939	6.0
108.954	3.0
108.969	3.0
108.984	5.0
108.999	4.0
109.013	3.0
109.028	4.0
109.043	3.0
109.058	2.0
109.073	4.0
109.088	2.0
109.103	2.0
109.118	3.0
109.133	5.0
109.147	1.0
109.162	1.0
109.177	0.0
109.192	5.0
109.207	2.0
109.222	0.0
109.237	4.0
109.252	3.0
109.267	2.0
109.281	3.0
109.296	2.0
109.311	3.0
109.326	3.0
109.341	6.0
109.356	2.0
109.371	5.0
109.386	3.0
109.4	2.0
109.415	4.0
109.43	2.0
109.445	1.0
109.46	2.0
109.475	3.0
109.49	4.0
109.505	6.0
109.52	1.0
109.534	3.0
109.549	2.0
109.564	4.0
109.579	1.0
109.594	4.0
109.609	2.0
109.624	8.0
109.639	4.0
109.653	2.0
109.668	1.0
109.683	2.0
109.698	4.0
109.713	6.0
109.728	2.0
109.743	5.0
109.758	5.0
109.773	2.0
109.787	2.0
109.802	3.0
109.817	3.0
109.832	2.0
109.847	3.0
109.862	3.0
109.877	5.0
109.892	1.0
109.907	5.0
109.921	1.0
109.936	4.0
109.951	4.0
109.966	1.0
109.981	4.0
109.996	4.0
110.011	2.0
110.026	1.0
110.04	2.0
110.055	3.0
110.07	4.0
110.085	5.0
110.1	7.0
110.115	5.0
110.13	1.0
110.145	2.0
110.16	4.0
110.174	2.0
110.189	3.0
110.204	1.0
110.219	3.0
110.234	6.0
110.249	5.0
110.264	5.0
110.279	6.0
110.294	1.0
110.308	1.0
110.323	1.0
110.338	3.0
110.353	0.0
110.368	2.0
110.383	3.0
110.398	1.0
110.413	1.0
110.428	4.0
110.442	3.0
110.457	5.0
110.472	3.0
110.487	5.0
110.502	2.0
110.517	3.0
110.532	3.0
110.547	5.0
110.561	5.0
110.576	2.0
110.591	4.0
110.606	2.0
110.621	5.0
110.636	5.0
110.651	2.0
110.666	5.0
110.681	1.0
110.695	4.0
110.71	6.0
110.725	1.0
110.74	2.0
110.755	3.0
110.77	4.0
110.785	5.0
110.8	2.0
110.815	6.0
110.829	3.0
110.844	5.0
110.859	1.0
110.874	3.0
110.889	3.0
110.904	6.0
110.919	6.0
110.934	3.0
110.948	2.0
110.963	1.0
110.978	4.0
110.993	4.0
111.008	4.0
111.023	2.0
111.038	1.0
111.053	3.0
111.067	5.0
111.082	2.0
111.097	3.0
111.112	2.0
111.127	4.0
111.142	2.0
111.157	1.0
111.172	1.0
111.186	5.0
111.201	3.0
111.216	4.0
111.231	4.0
111.246	1.0
111.261	4.0
111.276	0.0
111.291	3.0
111.305	7.0
111.32	3.0
111.335	2.0
111.35	5.0
111.365	1.0
111.38	3.0
111.395	2.0
111.41	2.0
111.424	7.0
111.439	5.0
111.454	5.0
111.469	4.0
111.484	5.0
111.499	2.0
111.514	7.0
111.528	3.0
111.543	2.0
111.558	3.0
111.573	3.0
111.588	4.0
111.603	6.0
111.618	1.0
111.633	5.0
111.647	6.0
111.662	3.0
111.677	1.0
111.692	2.0
111.707	2.0
111.722	6.0
111.737	4.0
111.751	8.0
111.766	1.0
111.781	6.0
111.796	4.0
111.811	5.0
111.826	5.0
111.84	1.0
111.855	2.0
111.87	5.0
111.885	4.0
111.9	3.0
111.915	4.0
111.93	5.0
111.944	1.0
111.959	4.0
111.974	3.0
111.989	7.0
112.004	5.0
112.019	4.0
112.033	3.0
112.048	1.0
112.063	4.0
112.078	0.0
112.093	3.0
112.108	2.0
112.123	2.0
112.137	1.0
112.152	8.0
112.167	5.0
112.182	3.0
112.197	4.0
112.212	4.0
112.226	4.0
112.241	3.0
112.256	2.0
112.271	4.0
112.286	2.0
112.301	0.0
112.315	3.0
112.33	6.0
112.345	1.0
112.36	2.0
112.375	3.0
112.389	1.0
112.404	5.0
112.419	6.0
112.434	4.0
112.449	4.0
112.464	6.0
112.478	2.0
112.493	4.0
112.508	2.0
112.523	5.0
112.538	5.0
112.553	3.0
112.567	4.0
112.582	5.0
112.597	3.0
112.612	6.0
112.627	4.0
112.642	2.0
112.656	1.0
112.671	4.0
112.686	0.0
112.701	6.0
112.716	4.0
112.73	4.0
112.745	3.0
112.76	1.0
112.775	5.0
112.79	3.0
112.805	5.0
112.819	1.0
112.834	1.0
112.849	3.0
112.864	6.0
112.879	3.0
112.894	2.0
112.908	5.0
112.923	0.0
112.938	5.0
112.953	5.0
112.968	2.0
112.983	2.0
112.997	2.0
113.012	3.0
113.027	4.0
113.042	1.0
113.057	6.0
113.072	4.0
113.086	2.0
113.101	3.0
113.116	4.0
113.131	5.0
113.146	4.0
113.161	2.0
113.175	1.0
113.19	6.0
113.205	6.0
113.22	6.0
113.235	3.0
113.25	4.0
113.265	1.0
113.279	6.0
113.294	3.0
113.309	4.0
113.324	6.0
113.339	3.0
113.354	3.0
113.368	1.0
113.383	4.0
113.398	4.0
113.413	4.0
113.428	3.0
113.443	6.0
113.458	5.0
113.472	5.0
113.487	5.0
113.502	2.0
113.517	4.0
113.532	6.0
113.547	3.0
113.562	3.0
113.576	5.0
113.591	6.0
113.606	7.0
113.621	7.0
113.636	4.0
113.651	4.0
113.666	7.0
113.681	5.0
113.695	4.0
113.71	4.0
113.725	9.0
113.74	2.0
113.755	5.0
113.77	3.0
113.785	3.0
113.8	4.0
113.814	3.0
113.829	3.0
113.844	4.0
113.859	6.0
113.874	6.0
113.889	0.0
113.904	3.0
113.919	3.0
113.934	5.0
113.949	2.0
113.963	7.0
113.978	2.0
113.993	6.0
114.008	5.0
114.023	6.0
114.038	4.0
114.053	3.0
114.068	1.0
114.083	5.0
114.098	2.0
114.113	0.0
114.127	6.0
114.142	2.0
114.157	5.0
114.172	4.0
114.187	2.0
114.202	2.0
114.217	7.0
114.232	5.0
114.247	2.0
114.262	9.0
114.277	5.0
114.292	1.0
114.307	1.0
114.322	4.0
114.337	3.0
114.351	7.0
114.366	1.0
114.381	2.0
114.396	4.0
114.411	5.0
114.426	3.0
114.441	0.0
114.456	8.0
114.471	4.0
114.486	0.0
114.501	4.0
114.516	2.0
114.531	4.0
114.546	7.0
114.561	4.0
114.576	1.0
114.591	2.0
114.606	5.0
114.621	0.0
114.636	1.0
114.65	6.0
114.665	2.0
114.68	9.0
114.695	1.0
114.71	4.0
114.725	7.0
114.74	4.0
114.755	1.0
114.77	3.0
114.785	6.0
114.8	1.0
114.815	4.0
114.83	3.0
114.845	1.0
114.86	3.0
114.875	3.0
114.89	4.0
114.905	4.0
114.92	6.0
114.935	2.0
114.95	7.0
114.965	4.0
114.98	5.0
114.995	2.0
115.009	3.0
115.024	4.0
115.039	4.0
115.054	3.0
115.069	2.0
115.084	4.0
115.099	3.0
115.114	2.0
115.129	1.0
115.144	5.0
115.159	3.0
115.174	8.0
115.189	5.0
115.204	2.0
115.219	1.0
115.234	5.0
115.249	2.0
115.264	1.0
115.279	8.0
115.294	4.0
115.309	6.0
115.323	1.0
115.338	6.0
115.353	6.0
115.368	7.0
115.383	4.0
115.398	6.0
115.413	5.0
115.428	5.0
115.443	2.0
115.458	5.0
115.473	5.0
115.488	2.0
115.503	7.0
115.518	4.0
115.533	4.0
115.548	3.0
115.562	3.0
115.577	3.0
115.592	5.0
115.607	4.0
115.622	5.0
115.637	2.0
115.652	5.0
115.667	1.0
115.682	1.0
115.697	4.0
115.712	3.0
115.727	5.0
115.741	5.0
115.756	3.0
115.771	5.0
115.786	5.0
115.801	4.0
115.816	3.0
115.831	2.0
115.846	0.0
115.861	1.0
115.875	5.0
115.89	0.0
115.905	3.0
115.92	2.0
115.935	6.0
115.95	2.0
115.965	4.0
115.98	2.0
115.995	6.0
116.009	4.0
116.024	2.0
116.039	5.0
116.054	1.0
116.069	3.0
116.084	5.0
116.099	1.0
116.113	1.0
116.128	2.0
116.143	2.0
116.158	6.0
116.173	5.0
116.188	2.0
116.202	3.0
116.217	5.0
116.232	4.0
116.247	7.0
116.262	2.0
116.277	5.0
116.291	3.0
116.306	4.0
116.321	5.0
116.336	5.0
116.351	7.0
116.366	2.0
116.38	4.0
116.395	1.0
116.41	5.0
116.425	6.0
116.44	8.0
116.454	6.0
116.469	4.0
116.484	1.0
116.499	4.0
116.514	1.0
116.528	3.0
116.543	0.0
116.558	4.0
116.573	3.0
116.588	6.0
116.602	1.0
116.617	1.0
116.632	2.0
116.647	3.0
116.662	4.0
116.676	5.0
116.691	0.0
116.706	3.0
116.721	5.0
116.735	5.0
116.75	3.0
116.765	2.0
116.78	7.0
116.795	1.0
116.809	8.0
116.824	2.0
116.839	2.0
116.854	5.0
116.868	4.0
116.883	6.0
116.898	2.0
116.913	6.0
116.927	3.0
116.942	3.0
116.957	3.0
116.972	5.0
116.986	5.0
117.001	5.0
117.016	6.0
117.031	4.0
117.045	3.0
117.06	1.0
117.075	2.0
117.09	5.0
117.104	6.0
117.119	3.0
117.134	5.0
117.149	3.0
117.163	6.0
117.178	5.0
117.193	5.0
117.208	6.0
117.222	2.0
117.237	2.0
117.252	4.0
117.267	5.0
117.281	3.0
117.296	6.0
117.311	3.0
117.325	1.0
117.34	5.0
117.355	7.0
117.37	3.0
117.384	4.0
117.399	6.0
117.414	2.0
117.429	2.0
117.443	1.0
117.458	9.0
117.473	4.0
117.487	1.0
117.502	6.0
117.517	5.0
117.532	4.0
117.546	5.0
117.561	5.0
117.576	3.0
117.59	3.0
117.605	3.0
117.62	2.0
117.635	5.0
117.649	4.0
117.664	2.0
117.679	4.0
117.693	2.0
117.708	3.0
117.723	6.0
117.738	5.0
117.752	4.0
117.767	4.0
117.782	4.0
117.796	6.0
117.811	7.0
117.826	1.0
117.841	4.0
117.855	5.0
117.87	2.0
117.885	3.0
117.899	0.0
117.914	2.0
117.929	2.0
117.944	2.0
117.958	3.0
117.973	1.0
117.988	4.0
118.002	2.0
118.017	4.0
118.032	6.0
118.047	5.0
118.062	3.0
118.077	5.0
118.092	6.0
118.107	6.0
118.121	5.0
118.136	6.0
118.151	7.0
118.166	1.0
118.181	2.0
118.196	2.0
118.211	3.0
118.225	1.0
118.24	4.0
118.255	6.0
118.27	3.0
118.285	7.0
118.3	5.0
118.315	1.0
118.33	2.0
118.344	5.0
118.359	2.0
118.374	5.0
118.389	3.0
118.404	4.0
118.419	2.0
118.434	1.0
118.449	3.0
118.463	2.0
118.478	2.0
118.493	1.0
118.508	2.0
118.523	4.0
118.538	4.0
118.553	7.0
118.567	5.0
118.582	5.0
118.597	7.0
118.612	7.0
118.627	5.0
118.642	1.0
118.657	3.0
118.672	2.0
118.686	2.0
118.701	1.0
118.716	7.0
118.731	3.0
118.746	4.0
118.761	0.0
118.776	8.0
118.791	5.0
118.805	4.0
118.82	8.0
118.835	2.0
118.85	4.0
118.865	3.0
118.88	2.0
118.895	5.0
118.909	6.0
118.924	6.0
118.939	3.0
118.954	3.0
118.969	3.0
118.984	7.0
118.999	4.0
119.014	3.0
119.028	4.0
119.043	3.0
119.058	3.0
119.073	3.0
119.088	2.0
119.103	3.0
119.118	5.0
119.133	4.0
119.147	2.0
119.162	3.0
119.177	4.0
119.192	5.0
119.207	5.0
119.222	5.0
119.237	3.0
119.251	6.0
119.266	7.0
119.281	3.0
119.296	3.0
119.311	4.0
119.326	2.0
119.341	4.0
119.356	3.0
119.37	5.0
119.385	3.0
119.4	2.0
119.415	1.0
119.43	5.0
119.445	3.0
119.46	2.0
119.475	2.0
119.489	2.0
119.504	4.0
119.519	2.0
119.534	0.0
119.549	2.0
119.564	2.0
119.579	2.0
119.593	6.0
119.608	3.0
119.623	4.0
119.638	2.0
119.653	5.0
119.668	6.0
119.683	6.0
119.698	5.0
119.712	1.0
119.727	1.0
119.742	1.0
119.757	5.0
119.772	3.0
119.787	4.0
119.802	5.0
119.817	1.0
119.831	5.0
119.846	4.0
119.861	1.0
119.876	2.0
119.891	3.0
119.906	3.0
119.921	5.0
119.935	2.0
119.95	3.0
119.965	3.0
119.98	2.0
119.995	3.0
120.01	2.0
120.025	2.0
120.04	3.0
120.054	2.0
120.069	4.0
120.084	5.0
120.099	0.0
120.114	3.0
120.129	3.0
120.144	5.0
120.159	2.0
120.173	2.0
120.188	1.0
120.203	2.0
120.218	1.0
120.233	2.0
120.248	0.0
120.263	1.0
120.277	1.0
120.292	2.0
120.307	1.0
120.322	0.0
120.337	0.0
120.352	0.0
120.367	0.0
120.382	2.0
120.396	0.0
120.411	0.0
120.426	0.0
120.441	0.0
120.456	1.0
120.471	1.0
120.486	0.0
120.501	1.0
120.515	0.0
120.53	0.0
120.545	0.0
120.56	0.0
120.575	0.0
120.59	0.0
120.605	0.0
120.619	0.0
120.634	0.0
120.649	0.0
120.664	0.0
120.679	0.0
120.694	0.0
120.709	0.0
120.724	0.0
120.738	0.0
120.753	0.0
120.768	0.0
120.783	0.0
120.798	0.0
120.813	0.0
120.828	0.0
120.843	0.0
120.857	0.0
120.872	0.0
120.887	0.0
120.902	0.0
120.917	0.0
120.932	0.0
120.947	0.0
120.961	0.0
120.976	0.0
