-1.217	0.0
-1.202	0.0
-1.187	0.0
-1.172	0.0
-1.157	0.0
-1.142	0.0
-1.128	0.0
-1.113	0.0
-1.098	0.0
-1.083	0.0
-1.068	0.0
-1.054	0.0
-1.039	0.0
-1.024	0.0
-1.009	0.0
-0.994	0.0
-0.979	0.0
-0.965	0.0
-0.95	0.0
-0.935	0.0
-0.92	0.0
-0.905	0.0
-0.891	0.0
-0.876	0.0
-0.861	0.0
-0.846	0.0
-0.831	0.0
-0.816	0.0
-0.802	1.0
-0.787	0.0
-0.772	0.0
-0.757	0.0
-0.742	0.0
-0.728	0.0
-0.713	0.0
-0.698	0.0
-0.683	0.0
-0.668	0.0
-0.653	0.0
-0.639	0.0
-0.624	0.0
-0.609	0.0
-0.594	0.0
-0.579	0.0
-0.565	0.0
-0.55	0.0
-0.535	0.0
-0.52	0.0
-0.505	0.0
-0.49	0.0
-0.476	0.0
-0.461	0.0
-0.446	0.0
-0.431	0.0
-0.416	0.0
-0.401	0.0
-0.387	0.0
-0.372	0.0
-0.357	0.0
-0.342	0.0
-0.327	0.0
-0.313	0.0
-0.298	0.0
-0.283	0.0
-0.268	0.0
-0.253	0.0
-0.238	0.0
-0.224	0.0
-0.209	0.0
-0.194	0.0
-0.179	0.0
-0.164	0.0
-0.15	0.0
-0.135	0.0
-0.12	0.0
-0.105	0.0
-0.09	0.0
-0.075	0.0
-0.061	0.0
-0.046	0.0
-0.031	0.0
-0.016	0.0
-0.001	0.0
0.013	0.0
0.028	0.0
0.043	0.0
0.058	0.0
0.073	0.0
0.088	0.0
0.102	0.0
0.117	0.0
0.132	0.0
0.147	0.0
0.162	0.0
0.176	0.0
0.191	0.0
0.206	0.0
0.221	0.0
0.236	0.0
0.251	0.0
0.265	0.0
0.28	0.0
0.295	0.0
0.31	0.0
0.325	0.0
0.339	0.0
0.354	0.0
0.369	0.0
0.384	0.0
0.399	0.0
0.414	0.0
0.428	0.0
0.443	0.0
0.458	0.0
0.473	0.0
0.488	0.0
0.502	0.0
0.517	0.0
0.532	0.0
0.547	0.0
0.562	0.0
0.577	0.0
0.591	0.0
0.606	0.0
0.621	0.0
0.636	0.0
0.651	0.0
0.665	0.0
0.68	0.0
0.695	0.0
0.71	0.0
0.725	0.0
0.74	0.0
0.754	0.0
0.769	0.0
0.784	0.0
0.799	0.0
0.814	0.0
0.828	0.0
0.843	0.0
0.858	0.0
0.873	1.0
0.888	0.0
0.903	0.0
0.917	0.0
0.932	0.0
0.947	0.0
0.962	0.0
0.977	0.0
0.991	0.0
1.006	0.0
1.021	0.0
1.036	0.0
1.051	0.0
1.065	0.0
1.08	0.0
1.095	0.0
1.11	0.0
1.125	0.0
1.14	0.0
1.154	0.0
1.169	1.0
1.184	0.0
1.199	0.0
1.214	0.0
1.228	0.0
1.243	0.0
1.258	0.0
1.273	1.0
1.288	0.0
1.302	0.0
1.317	0.0
1.332	0.0
1.347	0.0
1.362	0.0
1.376	0.0
1.391	0.0
1.406	1.0
1.421	0.0
1.436	0.0
1.45	0.0
1.465	0.0
1.48	0.0
1.495	0.0
1.51	0.0
1.524	0.0
1.539	0.0
1.554	0.0
1.569	0.0
1.584	0.0
1.598	0.0
1.613	0.0
1.628	0.0
1.643	0.0
1.658	0.0
1.672	0.0
1.687	0.0
1.702	0.0
1.717	0.0
1.732	0.0
1.746	0.0
1.761	0.0
1.776	0.0
1.791	0.0
1.806	0.0
1.82	1.0
1.835	0.0
1.85	0.0
1.865	0.0
1.88	0.0
1.894	1.0
1.909	0.0
1.924	1.0
1.939	0.0
1.954	0.0
1.968	0.0
1.983	1.0
1.998	0.0
2.013	0.0
2.028	0.0
2.042	0.0
2.057	0.0
2.072	0.0
2.087	1.0
2.101	0.0
2.116	0.0
2.131	0.0
2.146	0.0
2.161	1.0
2.175	0.0
2.19	0.0
2.205	0.0
2.22	0.0
2.235	1.0
2.249	1.0
2.264	0.0
2.279	0.0
2.294	2.0
2.308	1.0
2.323	2.0
2.338	1.0
2.353	1.0
2.368	1.0
2.382	1.0
2.397	1.0
2.412	4.0
2.427	2.0
2.442	1.0
2.456	1.0
2.471	2.0
2.486	1.0
2.501	1.0
2.515	4.0
2.53	4.0
2.545	5.0
2.56	1.0
2.575	3.0
2.589	1.0
2.604	1.0
2.619	2.0
2.634	1.0
2.649	2.0
2.663	3.0
2.678	2.0
2.693	4.0
2.708	2.0
2.722	0.0
2.737	2.0
2.752	4.0
2.767	2.0
2.782	5.0
2.796	4.0
2.811	1.0
2.826	2.0
2.841	3.0
2.856	1.0
2.87	3.0
2.885	1.0
2.9	6.0
2.915	5.0
2.93	3.0
2.944	4.0
2.959	5.0
2.974	6.0
2.989	1.0
3.004	3.0
3.018	2.0
3.033	2.0
3.048	8.0
3.063	4.0
3.078	3.0
3.092	0.0
3.107	2.0
3.122	0.0
3.137	3.0
3.152	5.0
3.166	4.0
3.181	3.0
3.196	5.0
3.211	4.0
3.226	2.0
3.24	6.0
3.255	6.0
3.27	9.0
3.285	3.0
3.3	4.0
3.315	5.0
3.329	1.0
3.344	1.0
3.359	7.0
3.374	3.0
3.389	7.0
3.403	2.0
3.418	4.0
3.433	10.0
3.448	7.0
3.463	1.0
3.478	4.0
3.492	4.0
3.507	1.0
3.522	4.0
3.537	4.0
3.552	3.0
3.567	4.0
3.581	8.0
3.596	5.0
3.611	3.0
3.626	6.0
3.641	7.0
3.656	1.0
3.671	3.0
3.685	3.0
3.7	3.0
3.715	9.0
3.73	8.0
3.745	9.0
3.76	2.0
3.775	3.0
3.789	8.0
3.804	4.0
3.819	3.0
3.834	3.0
3.849	4.0
3.864	2.0
3.879	10.0
3.894	6.0
3.908	5.0
3.923	7.0
3.938	8.0
3.953	10.0
3.968	12.0
3.983	7.0
3.998	10.0
4.013	8.0
4.027	6.0
4.042	6.0
4.057	10.0
4.072	8.0
4.087	5.0
4.102	3.0
4.117	3.0
4.132	4.0
4.147	3.0
4.162	6.0
4.176	8.0
4.191	5.0
4.206	4.0
4.221	5.0
4.236	7.0
4.251	5.0
4.266	2.0
4.281	7.0
4.296	5.0
4.311	10.0
4.326	6.0
4.341	9.0
4.356	2.0
4.37	7.0
4.385	5.0
4.4	10.0
4.415	5.0
4.43	10.0
4.445	7.0
4.46	6.0
4.475	4.0
4.49	10.0
4.505	14.0
4.52	6.0
4.535	10.0
4.55	6.0
4.565	1.0
4.58	6.0
4.595	6.0
4.61	7.0
4.625	11.0
4.639	2.0
4.654	4.0
4.669	12.0
4.684	11.0
4.699	8.0
4.714	15.0
4.729	7.0
4.744	6.0
4.759	8.0
4.774	10.0
4.789	4.0
4.804	3.0
4.819	9.0
4.834	10.0
4.849	6.0
4.864	9.0
4.879	12.0
4.894	8.0
4.909	9.0
4.924	12.0
4.939	9.0
4.954	8.0
4.969	6.0
4.984	8.0
4.999	12.0
5.014	8.0
5.029	13.0
5.044	7.0
5.059	9.0
5.074	15.0
5.089	10.0
5.104	8.0
5.119	12.0
5.134	5.0
5.149	9.0
5.164	8.0
5.179	10.0
5.194	3.0
5.209	10.0
5.224	8.0
5.239	10.0
5.254	4.0
5.269	7.0
5.284	7.0
5.299	10.0
5.314	9.0
5.329	7.0
5.344	5.0
5.359	7.0
5.374	8.0
5.389	11.0
5.404	7.0
5.419	9.0
5.434	9.0
5.449	5.0
5.464	7.0
5.479	13.0
5.494	7.0
5.509	6.0
5.524	9.0
5.539	5.0
5.554	4.0
5.569	13.0
5.584	8.0
5.599	9.0
5.614	7.0
5.629	7.0
5.644	15.0
5.659	11.0
5.674	6.0
5.689	5.0
5.704	6.0
5.719	11.0
5.734	7.0
5.749	11.0
5.764	6.0
5.779	8.0
5.794	5.0
5.809	8.0
5.824	5.0
5.839	8.0
5.854	6.0
5.869	12.0
5.884	11.0
5.899	7.0
5.914	12.0
5.929	5.0
5.944	10.0
5.959	14.0
5.974	10.0
5.989	6.0
6.004	14.0
6.019	4.0
6.034	13.0
6.049	8.0
6.064	6.0
6.079	11.0
6.094	9.0
6.109	10.0
6.124	15.0
6.139	10.0
6.154	7.0
6.169	10.0
6.184	10.0
6.199	11.0
6.214	6.0
6.229	9.0
6.244	13.0
6.259	9.0
6.274	9.0
6.289	14.0
6.304	17.0
6.319	14.0
6.334	7.0
6.349	6.0
6.364	10.0
6.379	4.0
6.394	11.0
6.409	13.0
6.424	5.0
6.439	11.0
6.454	8.0
6.469	3.0
6.484	8.0
6.499	6.0
6.514	13.0
6.529	5.0
6.544	4.0
6.559	8.0
6.574	6.0
6.589	11.0
6.604	6.0
6.619	4.0
6.634	11.0
6.649	10.0
6.664	13.0
6.679	14.0
6.694	7.0
6.709	5.0
6.724	7.0
6.739	9.0
6.754	2.0
6.769	10.0
6.784	11.0
6.799	9.0
6.814	7.0
6.829	11.0
6.844	11.0
6.859	7.0
6.873	5.0
6.888	12.0
6.903	6.0
6.918	15.0
6.933	7.0
6.948	10.0
6.963	14.0
6.978	8.0
6.993	6.0
7.008	5.0
7.023	8.0
7.038	3.0
7.053	7.0
7.068	9.0
7.083	8.0
7.098	8.0
7.113	7.0
7.128	8.0
7.143	11.0
7.157	11.0
7.172	10.0
7.187	11.0
7.202	13.0
7.217	8.0
7.232	12.0
7.247	9.0
7.262	8.0
7.277	7.0
7.292	13.0
7.307	9.0
7.322	11.0
7.336	9.0
7.351	10.0
7.366	8.0
7.381	8.0
7.396	13.0
7.411	4.0
7.426	5.0
7.441	5.0
7.456	11.0
7.471	11.0
7.485	10.0
7.5	8.0
7.515	16.0
7.53	11.0
7.545	15.0
7.56	11.0
7.575	10.0
7.59	8.0
7.604	11.0
7.619	14.0
7.634	7.0
7.649	13.0
7.664	8.0
7.679	9.0
7.693	11.0
7.708	14.0
7.723	11.0
7.738	7.0
7.753	10.0
7.768	14.0
7.783	8.0
7.797	13.0
7.812	8.0
7.827	6.0
7.842	8.0
7.857	7.0
7.871	5.0
7.886	5.0
7.901	6.0
7.916	12.0
7.931	9.0
7.945	9.0
7.96	7.0
7.975	10.0
7.99	11.0
8.005	12.0
8.019	10.0
8.034	5.0
8.049	13.0
8.064	4.0
8.078	11.0
8.093	12.0
8.108	10.0
8.123	9.0
8.137	8.0
8.152	5.0
8.167	9.0
8.182	16.0
8.196	10.0
8.211	13.0
8.226	14.0
8.241	12.0
8.255	14.0
8.27	11.0
8.285	10.0
8.3	6.0
8.314	10.0
8.329	6.0
8.344	7.0
8.358	11.0
8.373	7.0
8.388	7.0
8.403	12.0
8.417	9.0
8.432	8.0
8.447	9.0
8.461	12.0
8.476	7.0
8.491	9.0
8.505	7.0
8.52	5.0
8.535	10.0
8.55	4.0
8.564	7.0
8.579	8.0
8.594	12.0
8.608	8.0
8.623	9.0
8.638	13.0
8.652	7.0
8.667	6.0
8.682	7.0
8.696	8.0
8.711	3.0
8.726	8.0
8.74	7.0
8.755	8.0
8.77	8.0
8.784	5.0
8.799	6.0
8.814	15.0
8.828	10.0
8.843	6.0
8.858	10.0
8.872	8.0
8.887	8.0
8.902	10.0
8.916	7.0
8.931	10.0
8.946	8.0
8.96	7.0
8.975	9.0
8.99	5.0
9.004	3.0
9.019	6.0
9.034	7.0
9.048	7.0
9.063	6.0
9.077	7.0
9.092	9.0
9.107	11.0
9.121	9.0
9.136	8.0
9.151	6.0
9.165	9.0
9.18	6.0
9.195	8.0
9.209	9.0
9.224	9.0
9.239	12.0
9.253	4.0
9.268	9.0
9.283	8.0
9.297	11.0
9.312	10.0
9.327	8.0
9.341	12.0
9.356	12.0
9.371	8.0
9.385	11.0
9.4	7.0
9.415	8.0
9.429	8.0
9.444	11.0
9.458	9.0
9.473	8.0
9.488	7.0
9.502	7.0
9.517	8.0
9.532	8.0
9.546	8.0
9.561	7.0
9.576	7.0
9.59	4.0
9.605	10.0
9.62	9.0
9.635	6.0
9.649	10.0
9.664	14.0
9.679	2.0
9.693	10.0
9.708	5.0
9.723	8.0
9.737	6.0
9.752	8.0
9.767	9.0
9.781	12.0
9.796	8.0
9.811	13.0
9.825	13.0
9.84	8.0
9.855	7.0
9.87	6.0
9.884	6.0
9.899	11.0
9.914	8.0
9.928	15.0
9.943	7.0
9.958	9.0
9.973	8.0
9.987	7.0
10.002	13.0
10.017	9.0
10.031	8.0
10.046	7.0
10.061	10.0
10.076	10.0
10.09	7.0
10.105	7.0
10.12	11.0
10.135	11.0
10.149	12.0
10.164	6.0
10.179	11.0
10.194	15.0
10.208	9.0
10.223	11.0
10.238	4.0
10.253	6.0
10.267	8.0
10.282	8.0
10.297	7.0
10.312	16.0
10.326	9.0
10.341	13.0
10.356	7.0
10.371	7.0
10.386	9.0
10.4	13.0
10.415	6.0
10.43	5.0
10.445	9.0
10.46	8.0
10.474	7.0
10.489	11.0
10.504	10.0
10.519	8.0
10.533	14.0
10.548	12.0
10.563	12.0
10.578	8.0
10.593	13.0
10.608	10.0
10.622	8.0
10.637	10.0
10.652	7.0
10.667	5.0
10.682	7.0
10.696	4.0
10.711	5.0
10.726	6.0
10.741	10.0
10.756	5.0
10.771	8.0
10.785	7.0
10.8	8.0
10.815	9.0
10.83	4.0
10.845	7.0
10.86	8.0
10.874	9.0
10.889	6.0
10.904	6.0
10.919	9.0
10.934	10.0
10.949	9.0
10.963	5.0
10.978	6.0
10.993	6.0
11.008	5.0
11.023	11.0
11.038	9.0
11.053	8.0
11.067	13.0
11.082	4.0
11.097	11.0
11.112	9.0
11.127	8.0
11.142	7.0
11.157	5.0
11.172	10.0
11.186	8.0
11.201	6.0
11.216	8.0
11.231	10.0
11.246	10.0
11.261	5.0
11.276	8.0
11.291	9.0
11.305	11.0
11.32	14.0
11.335	3.0
11.35	10.0
11.365	6.0
11.38	8.0
11.395	7.0
11.41	3.0
11.424	10.0
11.439	8.0
11.454	5.0
11.469	2.0
11.484	11.0
11.499	8.0
11.514	8.0
11.529	16.0
11.544	5.0
11.558	6.0
11.573	10.0
11.588	4.0
11.603	7.0
11.618	10.0
11.633	4.0
11.648	8.0
11.663	8.0
11.678	8.0
11.693	7.0
11.707	6.0
11.722	8.0
11.737	4.0
11.752	8.0
11.767	11.0
11.782	12.0
11.797	6.0
11.812	12.0
11.827	8.0
11.842	10.0
11.856	2.0
11.871	14.0
11.886	11.0
11.901	8.0
11.916	12.0
11.931	10.0
11.946	8.0
11.961	10.0
11.976	5.0
11.991	12.0
12.006	14.0
12.02	9.0
12.035	9.0
12.05	14.0
12.065	7.0
12.08	7.0
12.095	8.0
12.11	2.0
12.125	13.0
12.14	8.0
12.155	7.0
12.17	9.0
12.184	17.0
12.199	8.0
12.214	16.0
12.229	5.0
12.244	9.0
12.259	11.0
12.274	11.0
12.289	7.0
12.304	9.0
12.319	10.0
12.334	12.0
12.348	10.0
12.363	8.0
12.378	5.0
12.393	14.0
12.408	8.0
12.423	12.0
12.438	14.0
12.453	22.0
12.468	7.0
12.483	6.0
12.498	11.0
12.513	20.0
12.527	9.0
12.542	11.0
12.557	9.0
12.572	18.0
12.587	11.0
12.602	18.0
12.617	14.0
12.632	14.0
12.647	16.0
12.662	15.0
12.677	16.0
12.692	19.0
12.707	14.0
12.721	14.0
12.736	17.0
12.751	19.0
12.766	17.0
12.781	8.0
12.796	20.0
12.811	12.0
12.826	12.0
12.841	11.0
12.856	15.0
12.871	9.0
12.886	21.0
12.9	22.0
12.915	17.0
12.93	16.0
12.945	17.0
12.96	18.0
12.975	17.0
12.99	14.0
13.005	17.0
13.02	21.0
13.035	19.0
13.05	16.0
13.065	21.0
13.08	21.0
13.094	14.0
13.109	9.0
13.124	10.0
13.139	17.0
13.154	12.0
13.169	17.0
13.184	18.0
13.199	20.0
13.214	22.0
13.229	17.0
13.244	17.0
13.259	25.0
13.274	18.0
13.288	15.0
13.303	24.0
13.318	21.0
13.333	21.0
13.348	16.0
13.363	24.0
13.378	22.0
13.393	31.0
13.408	26.0
13.423	28.0
13.438	36.0
13.453	31.0
13.468	31.0
13.482	41.0
13.497	29.0
13.512	36.0
13.527	48.0
13.542	53.0
13.557	60.0
13.572	58.0
13.587	53.0
13.602	64.0
13.617	66.0
13.632	76.0
13.647	65.0
13.662	67.0
13.677	80.0
13.691	110.0
13.706	89.0
13.721	94.0
13.736	111.0
13.751	109.0
13.766	104.0
13.781	106.0
13.796	119.0
13.811	132.0
13.826	125.0
13.841	137.0
13.856	120.0
13.871	117.0
13.885	111.0
13.9	96.0
13.915	83.0
13.93	64.0
13.945	55.0
13.96	44.0
13.975	46.0
13.99	37.0
14.005	31.0
14.02	40.0
14.035	33.0
14.05	23.0
14.065	28.0
14.08	23.0
14.094	30.0
14.109	20.0
14.124	22.0
14.139	24.0
14.154	21.0
14.169	27.0
14.184	25.0
14.199	23.0
14.214	26.0
14.229	18.0
14.244	14.0
14.259	20.0
14.274	18.0
14.288	19.0
14.303	23.0
14.318	12.0
14.333	20.0
14.348	21.0
14.363	20.0
14.378	27.0
14.393	23.0
14.408	18.0
14.423	15.0
14.438	16.0
14.453	23.0
14.468	14.0
14.482	14.0
14.497	19.0
14.512	24.0
14.527	15.0
14.542	20.0
14.557	17.0
14.572	26.0
14.587	14.0
14.602	11.0
14.617	18.0
14.632	20.0
14.647	18.0
14.661	13.0
14.676	13.0
14.691	14.0
14.706	18.0
14.721	18.0
14.736	19.0
14.751	18.0
14.766	15.0
14.781	12.0
14.796	19.0
14.811	18.0
14.826	8.0
14.84	18.0
14.855	17.0
14.87	16.0
14.885	12.0
14.9	12.0
14.915	21.0
14.93	13.0
14.945	19.0
14.96	21.0
14.975	17.0
14.989	9.0
15.004	18.0
15.019	14.0
15.034	10.0
15.049	16.0
15.064	12.0
15.079	13.0
15.094	10.0
15.109	13.0
15.124	9.0
15.138	15.0
15.153	15.0
15.168	11.0
15.183	22.0
15.198	14.0
15.213	12.0
15.228	10.0
15.243	15.0
15.258	11.0
15.272	18.0
15.287	16.0
15.302	10.0
15.317	12.0
15.332	13.0
15.347	13.0
15.362	13.0
15.377	9.0
15.391	10.0
15.406	20.0
15.421	14.0
15.436	16.0
15.451	16.0
15.466	15.0
15.481	24.0
15.496	13.0
15.51	12.0
15.525	16.0
15.54	17.0
15.555	21.0
15.57	17.0
15.585	20.0
15.6	12.0
15.614	21.0
15.629	16.0
15.644	12.0
15.659	8.0
15.674	13.0
15.689	13.0
15.704	15.0
15.718	13.0
15.733	23.0
15.748	10.0
15.763	22.0
15.778	11.0
15.793	9.0
15.808	13.0
15.822	17.0
15.837	11.0
15.852	13.0
15.867	16.0
15.882	10.0
15.897	16.0
15.911	16.0
15.926	12.0
15.941	20.0
15.956	11.0
15.971	14.0
15.986	13.0
16.0	12.0
16.015	12.0
16.03	7.0
16.045	14.0
16.06	8.0
16.074	14.0
16.089	14.0
16.104	23.0
16.119	11.0
16.134	8.0
16.149	13.0
16.163	15.0
16.178	11.0
16.193	12.0
16.208	12.0
16.223	19.0
16.237	7.0
16.252	7.0
16.267	23.0
16.282	15.0
16.297	12.0
16.311	12.0
16.326	10.0
16.341	19.0
16.356	14.0
16.37	12.0
16.385	13.0
16.4	15.0
16.415	14.0
16.43	17.0
16.444	16.0
16.459	16.0
16.474	20.0
16.489	15.0
16.504	15.0
16.518	15.0
16.533	11.0
16.548	16.0
16.563	14.0
16.577	20.0
16.592	28.0
16.607	16.0
16.622	14.0
16.637	21.0
16.651	19.0
16.666	26.0
16.681	18.0
16.696	21.0
16.71	33.0
16.725	25.0
16.74	22.0
16.755	33.0
16.77	45.0
16.784	39.0
16.799	49.0
16.814	41.0
16.829	45.0
16.843	61.0
16.858	45.0
16.873	56.0
16.888	61.0
16.902	90.0
16.917	61.0
16.932	67.0
16.947	84.0
16.961	87.0
16.976	67.0
16.991	66.0
17.006	54.0
17.021	69.0
17.035	49.0
17.05	65.0
17.065	41.0
17.08	31.0
17.094	45.0
17.109	23.0
17.124	22.0
17.139	16.0
17.153	16.0
17.168	20.0
17.183	17.0
17.198	9.0
17.212	11.0
17.227	16.0
17.242	12.0
17.257	25.0
17.271	15.0
17.286	12.0
17.301	16.0
17.316	19.0
17.33	23.0
17.345	13.0
17.36	9.0
17.375	9.0
17.39	21.0
17.404	9.0
17.419	12.0
17.434	15.0
17.449	14.0
17.463	13.0
17.478	20.0
17.493	12.0
17.508	19.0
17.522	21.0
17.537	12.0
17.552	10.0
17.567	8.0
17.581	12.0
17.596	18.0
17.611	8.0
17.626	8.0
17.641	12.0
17.655	16.0
17.67	12.0
17.685	20.0
17.7	22.0
17.714	10.0
17.729	11.0
17.744	14.0
17.759	9.0
17.773	21.0
17.788	13.0
17.803	12.0
17.818	6.0
17.833	17.0
17.847	11.0
17.862	9.0
17.877	11.0
17.892	13.0
17.906	17.0
17.921	16.0
17.936	10.0
17.951	10.0
17.966	14.0
17.98	21.0
17.995	14.0
18.01	9.0
18.025	21.0
18.04	8.0
18.054	19.0
18.069	14.0
18.084	13.0
18.099	11.0
18.114	11.0
18.128	9.0
18.143	13.0
18.158	9.0
18.173	16.0
18.188	12.0
18.202	13.0
18.217	10.0
18.232	17.0
18.247	12.0
18.262	9.0
18.276	15.0
18.291	13.0
18.306	13.0
18.321	11.0
18.336	15.0
18.35	13.0
18.365	11.0
18.38	15.0
18.395	19.0
18.41	10.0
18.424	17.0
18.439	13.0
18.454	16.0
18.469	8.0
18.484	24.0
18.498	11.0
18.513	10.0
18.528	15.0
18.543	13.0
18.558	9.0
18.573	10.0
18.587	9.0
18.602	8.0
18.617	15.0
18.632	8.0
18.647	9.0
18.661	16.0
18.676	11.0
18.691	7.0
18.706	20.0
18.721	15.0
18.736	12.0
18.75	12.0
18.765	9.0
18.78	12.0
18.795	10.0
18.81	11.0
18.825	13.0
18.839	12.0
18.854	13.0
18.869	19.0
18.884	11.0
18.899	10.0
18.913	8.0
18.928	21.0
18.943	13.0
18.958	12.0
18.973	10.0
18.988	24.0
19.002	9.0
19.017	14.0
19.032	6.0
19.047	11.0
19.062	21.0
19.077	5.0
19.091	6.0
19.106	11.0
19.121	18.0
19.136	12.0
19.151	8.0
19.165	11.0
19.18	9.0
19.195	14.0
19.21	13.0
19.225	16.0
19.24	8.0
19.254	18.0
19.269	11.0
19.284	13.0
19.299	14.0
19.314	10.0
19.329	10.0
19.343	11.0
19.358	11.0
19.373	23.0
19.388	15.0
19.403	18.0
19.417	18.0
19.432	22.0
19.447	18.0
19.462	26.0
19.477	26.0
19.492	32.0
19.506	26.0
19.521	21.0
19.536	28.0
19.551	46.0
19.566	45.0
19.58	50.0
19.595	51.0
19.61	39.0
19.625	40.0
19.64	46.0
19.655	41.0
19.669	32.0
19.684	40.0
19.699	29.0
19.714	25.0
19.729	29.0
19.743	22.0
19.758	22.0
19.773	21.0
19.788	15.0
19.803	24.0
19.817	15.0
19.832	20.0
19.847	12.0
19.862	12.0
19.877	18.0
19.891	11.0
19.906	17.0
19.921	11.0
19.936	12.0
19.951	15.0
19.965	11.0
19.98	9.0
19.995	10.0
20.01	13.0
20.025	10.0
20.039	13.0
20.054	14.0
20.069	12.0
20.084	5.0
20.099	12.0
20.113	13.0
20.128	10.0
20.143	16.0
20.158	11.0
20.173	17.0
20.187	16.0
20.202	13.0
20.217	17.0
20.232	5.0
20.246	10.0
20.261	10.0
20.276	6.0
20.291	6.0
20.306	6.0
20.32	12.0
20.335	8.0
20.35	10.0
20.365	14.0
20.38	12.0
20.394	15.0
20.409	8.0
20.424	7.0
20.439	7.0
20.453	10.0
20.468	11.0
20.483	11.0
20.498	13.0
20.513	9.0
20.527	13.0
20.542	13.0
20.557	11.0
20.572	10.0
20.586	9.0
20.601	9.0
20.616	11.0
20.631	11.0
20.646	14.0
20.66	13.0
20.675	11.0
20.69	11.0
20.705	8.0
20.719	10.0
20.734	14.0
20.749	14.0
20.764	16.0
20.779	5.0
20.793	9.0
20.808	13.0
20.823	14.0
20.838	15.0
20.853	10.0
20.867	10.0
20.882	13.0
20.897	13.0
20.912	8.0
20.926	11.0
20.941	9.0
20.956	9.0
20.971	14.0
20.986	6.0
21.0	12.0
21.015	11.0
21.03	10.0
21.045	10.0
21.06	7.0
21.074	14.0
21.089	8.0
21.104	7.0
21.119	14.0
21.134	16.0
21.148	9.0
21.163	13.0
21.178	18.0
21.193	17.0
21.208	8.0
21.222	14.0
21.237	12.0
21.252	10.0
21.267	15.0
21.282	11.0
21.296	11.0
21.311	12.0
21.326	8.0
21.341	11.0
21.356	12.0
21.37	8.0
21.385	13.0
21.4	15.0
21.415	12.0
21.43	16.0
21.444	11.0
21.459	8.0
21.474	11.0
21.489	16.0
21.504	14.0
21.519	11.0
21.533	12.0
21.548	9.0
21.563	14.0
21.578	14.0
21.593	7.0
21.608	15.0
21.622	19.0
21.637	18.0
21.652	17.0
21.667	18.0
21.682	18.0
21.697	18.0
21.712	23.0
21.726	23.0
21.741	21.0
21.756	26.0
21.771	28.0
21.786	29.0
21.801	40.0
21.816	50.0
21.83	53.0
21.845	53.0
21.86	47.0
21.875	55.0
21.89	74.0
21.905	78.0
21.92	89.0
21.935	67.0
21.949	87.0
21.964	76.0
21.979	79.0
21.994	75.0
22.009	69.0
22.024	57.0
22.039	67.0
22.054	39.0
22.069	44.0
22.083	47.0
22.098	39.0
22.113	42.0
22.128	30.0
22.143	22.0
22.158	29.0
22.173	22.0
22.188	20.0
22.203	14.0
22.218	19.0
22.233	16.0
22.248	16.0
22.262	12.0
22.277	12.0
22.292	9.0
22.307	14.0
22.322	11.0
22.337	14.0
22.352	12.0
22.367	16.0
22.382	11.0
22.397	12.0
22.412	12.0
22.427	14.0
22.442	18.0
22.457	13.0
22.472	12.0
22.487	16.0
22.502	13.0
22.516	10.0
22.531	18.0
22.546	13.0
22.561	11.0
22.576	15.0
22.591	11.0
22.606	14.0
22.621	12.0
22.636	11.0
22.651	12.0
22.666	7.0
22.681	8.0
22.696	11.0
22.711	6.0
22.726	13.0
22.741	14.0
22.756	15.0
22.771	7.0
22.786	16.0
22.801	10.0
22.816	14.0
22.831	8.0
22.846	11.0
22.861	5.0
22.876	3.0
22.891	4.0
22.906	11.0
22.92	11.0
22.935	12.0
22.95	7.0
22.965	12.0
22.98	9.0
22.995	11.0
23.01	17.0
23.025	14.0
23.04	15.0
23.055	10.0
23.07	15.0
23.085	9.0
23.1	7.0
23.115	12.0
23.13	6.0
23.145	9.0
23.16	5.0
23.175	11.0
23.19	7.0
23.205	11.0
23.22	10.0
23.235	13.0
23.25	9.0
23.265	11.0
23.28	13.0
23.295	13.0
23.31	9.0
23.325	13.0
23.34	17.0
23.355	8.0
23.37	11.0
23.384	11.0
23.399	10.0
23.414	9.0
23.429	8.0
23.444	3.0
23.459	6.0
23.474	5.0
23.489	9.0
23.504	17.0
23.519	8.0
23.534	8.0
23.549	16.0
23.564	10.0
23.579	15.0
23.594	11.0
23.609	11.0
23.624	10.0
23.639	13.0
23.654	9.0
23.668	10.0
23.683	7.0
23.698	8.0
23.713	16.0
23.728	9.0
23.743	16.0
23.758	11.0
23.773	16.0
23.788	15.0
23.803	15.0
23.818	11.0
23.833	8.0
23.848	12.0
23.862	20.0
23.877	21.0
23.892	28.0
23.907	20.0
23.922	19.0
23.937	15.0
23.952	25.0
23.967	21.0
23.982	32.0
23.997	37.0
24.011	43.0
24.026	38.0
24.041	51.0
24.056	60.0
24.071	63.0
24.086	49.0
24.101	57.0
24.116	51.0
24.131	57.0
24.145	44.0
24.16	62.0
24.175	41.0
24.19	30.0
24.205	34.0
24.22	34.0
24.235	33.0
24.249	35.0
24.264	22.0
24.279	20.0
24.294	22.0
24.309	17.0
24.324	25.0
24.338	18.0
24.353	19.0
24.368	19.0
24.383	20.0
24.398	15.0
24.413	12.0
24.428	8.0
24.442	12.0
24.457	9.0
24.472	13.0
24.487	16.0
24.502	10.0
24.516	12.0
24.531	14.0
24.546	16.0
24.561	8.0
24.576	12.0
24.591	8.0
24.605	8.0
24.62	14.0
24.635	9.0
24.65	10.0
24.665	17.0
24.679	9.0
24.694	14.0
24.709	12.0
24.724	8.0
24.739	16.0
24.753	11.0
24.768	14.0
24.783	12.0
24.798	8.0
24.813	14.0
24.827	12.0
24.842	8.0
24.857	14.0
24.872	7.0
24.886	10.0
24.901	12.0
24.916	14.0
24.931	6.0
24.946	8.0
24.96	10.0
24.975	10.0
24.99	8.0
25.005	11.0
25.019	11.0
25.034	15.0
25.049	12.0
25.064	19.0
25.078	17.0
25.093	6.0
25.108	8.0
25.123	9.0
25.138	8.0
25.152	11.0
25.167	11.0
25.182	10.0
25.197	14.0
25.211	11.0
25.226	11.0
25.241	10.0
25.256	12.0
25.27	11.0
25.285	13.0
25.3	8.0
25.315	9.0
25.329	7.0
25.344	10.0
25.359	13.0
25.374	12.0
25.388	8.0
25.403	12.0
25.418	10.0
25.433	5.0
25.447	11.0
25.462	12.0
25.477	13.0
25.492	11.0
25.506	10.0
25.521	10.0
25.536	8.0
25.55	9.0
25.565	11.0
25.58	9.0
25.595	9.0
25.609	11.0
25.624	14.0
25.639	7.0
25.654	9.0
25.668	6.0
25.683	10.0
25.698	9.0
25.713	11.0
25.727	10.0
25.742	16.0
25.757	8.0
25.772	12.0
25.786	3.0
25.801	12.0
25.816	11.0
25.83	11.0
25.845	9.0
25.86	5.0
25.875	12.0
25.889	11.0
25.904	9.0
25.919	8.0
25.934	8.0
25.948	8.0
25.963	8.0
25.978	12.0
25.992	8.0
26.007	8.0
26.022	5.0
26.037	8.0
26.051	9.0
26.066	12.0
26.081	14.0
26.096	11.0
26.11	14.0
26.125	6.0
26.14	9.0
26.155	12.0
26.169	6.0
26.184	8.0
26.199	11.0
26.213	6.0
26.228	16.0
26.243	15.0
26.258	5.0
26.272	16.0
26.287	10.0
26.302	6.0
26.317	8.0
26.331	9.0
26.346	10.0
26.361	13.0
26.376	12.0
26.39	9.0
26.405	6.0
26.42	6.0
26.434	7.0
26.449	8.0
26.464	7.0
26.479	11.0
26.493	17.0
26.508	18.0
26.523	12.0
26.538	10.0
26.552	13.0
26.567	7.0
26.582	10.0
26.597	7.0
26.611	11.0
26.626	21.0
26.641	8.0
26.656	11.0
26.67	13.0
26.685	18.0
26.7	12.0
26.715	11.0
26.729	8.0
26.744	6.0
26.759	13.0
26.773	11.0
26.788	9.0
26.803	9.0
26.818	9.0
26.832	11.0
26.847	17.0
26.862	13.0
26.877	9.0
26.891	13.0
26.906	9.0
26.921	12.0
26.936	12.0
26.95	8.0
26.965	7.0
26.98	7.0
26.995	10.0
27.01	2.0
27.024	13.0
27.039	12.0
27.054	9.0
27.069	7.0
27.083	16.0
27.098	14.0
27.113	9.0
27.128	9.0
27.142	14.0
27.157	6.0
27.172	19.0
27.187	10.0
27.201	13.0
27.216	15.0
27.231	14.0
27.246	10.0
27.261	13.0
27.275	7.0
27.29	8.0
27.305	8.0
27.32	19.0
27.334	12.0
27.349	14.0
27.364	8.0
27.379	13.0
27.394	7.0
27.408	8.0
27.423	6.0
27.438	10.0
27.453	12.0
27.467	14.0
27.482	10.0
27.497	17.0
27.512	6.0
27.527	12.0
27.541	15.0
27.556	10.0
27.571	13.0
27.586	11.0
27.601	10.0
27.615	7.0
27.63	9.0
27.645	13.0
27.66	13.0
27.675	11.0
27.689	19.0
27.704	18.0
27.719	11.0
27.734	11.0
27.749	4.0
27.763	17.0
27.778	22.0
27.793	13.0
27.808	14.0
27.823	24.0
27.838	26.0
27.852	29.0
27.867	16.0
27.882	24.0
27.897	25.0
27.912	14.0
27.926	24.0
27.941	18.0
27.956	27.0
27.971	15.0
27.986	30.0
28.001	21.0
28.015	16.0
28.03	19.0
28.045	19.0
28.06	17.0
28.075	6.0
28.09	11.0
28.105	13.0
28.119	18.0
28.134	15.0
28.149	13.0
28.164	11.0
28.179	13.0
28.194	15.0
28.208	10.0
28.223	12.0
28.238	10.0
28.253	12.0
28.268	9.0
28.283	8.0
28.298	9.0
28.312	11.0
28.327	13.0
28.342	13.0
28.357	11.0
28.372	11.0
28.387	13.0
28.402	14.0
28.417	9.0
28.431	16.0
28.446	11.0
28.461	10.0
28.476	9.0
28.491	9.0
28.506	9.0
28.521	17.0
28.536	11.0
28.55	12.0
28.565	11.0
28.58	12.0
28.595	13.0
28.61	12.0
28.625	9.0
28.64	9.0
28.655	12.0
28.669	13.0
28.684	10.0
28.699	8.0
28.714	13.0
28.729	12.0
28.744	13.0
28.759	12.0
28.774	12.0
28.788	11.0
28.803	6.0
28.818	10.0
28.833	13.0
28.848	15.0
28.863	6.0
28.878	14.0
28.893	12.0
28.908	15.0
28.922	7.0
28.937	10.0
28.952	9.0
28.967	17.0
28.982	11.0
28.997	7.0
29.012	14.0
29.027	15.0
29.041	15.0
29.056	7.0
29.071	15.0
29.086	5.0
29.101	10.0
29.116	17.0
29.131	8.0
29.146	15.0
29.16	7.0
29.175	8.0
29.19	9.0
29.205	4.0
29.22	10.0
29.235	11.0
29.25	8.0
29.265	12.0
29.279	9.0
29.294	12.0
29.309	13.0
29.324	13.0
29.339	12.0
29.354	11.0
29.369	14.0
29.384	17.0
29.398	17.0
29.413	19.0
29.428	16.0
29.443	18.0
29.458	26.0
29.473	23.0
29.488	19.0
29.502	30.0
29.517	23.0
29.532	34.0
29.547	42.0
29.562	37.0
29.577	36.0
29.592	46.0
29.606	59.0
29.621	55.0
29.636	45.0
29.651	50.0
29.666	43.0
29.681	46.0
29.695	38.0
29.71	36.0
29.725	36.0
29.74	28.0
29.755	25.0
29.77	45.0
29.784	25.0
29.799	32.0
29.814	29.0
29.829	27.0
29.844	22.0
29.859	21.0
29.873	17.0
29.888	16.0
29.903	10.0
29.918	13.0
29.933	12.0
29.947	17.0
29.962	17.0
29.977	12.0
29.992	14.0
30.007	9.0
30.021	13.0
30.036	9.0
30.051	13.0
30.066	14.0
30.081	7.0
30.095	14.0
30.11	18.0
30.125	19.0
30.14	10.0
30.155	15.0
30.169	12.0
30.184	17.0
30.199	16.0
30.214	10.0
30.228	11.0
30.243	18.0
30.258	10.0
30.273	14.0
30.288	6.0
30.302	16.0
30.317	13.0
30.332	15.0
30.347	8.0
30.361	8.0
30.376	5.0
30.391	7.0
30.406	6.0
30.42	7.0
30.435	12.0
30.45	8.0
30.465	15.0
30.479	9.0
30.494	9.0
30.509	8.0
30.524	6.0
30.538	11.0
30.553	10.0
30.568	10.0
30.583	9.0
30.597	10.0
30.612	19.0
30.627	14.0
30.641	12.0
30.656	13.0
30.671	9.0
30.686	15.0
30.7	10.0
30.715	9.0
30.73	12.0
30.745	9.0
30.759	6.0
30.774	8.0
30.789	10.0
30.803	14.0
30.818	15.0
30.833	6.0
30.848	9.0
30.862	12.0
30.877	10.0
30.892	7.0
30.906	14.0
30.921	10.0
30.936	17.0
30.951	11.0
30.965	11.0
30.98	12.0
30.995	6.0
31.009	9.0
31.024	14.0
31.039	9.0
31.053	5.0
31.068	21.0
31.083	15.0
31.098	15.0
31.112	16.0
31.127	12.0
31.142	23.0
31.156	21.0
31.171	17.0
31.186	39.0
31.2	34.0
31.215	38.0
31.23	39.0
31.245	27.0
31.259	47.0
31.274	48.0
31.289	42.0
31.303	41.0
31.318	36.0
31.333	31.0
31.347	34.0
31.362	29.0
31.377	26.0
31.392	27.0
31.406	24.0
31.421	24.0
31.436	22.0
31.45	23.0
31.465	26.0
31.48	23.0
31.494	15.0
31.509	28.0
31.524	19.0
31.538	18.0
31.553	13.0
31.568	13.0
31.583	13.0
31.597	15.0
31.612	15.0
31.627	8.0
31.641	16.0
31.656	9.0
31.671	12.0
31.685	9.0
31.7	11.0
31.715	8.0
31.729	15.0
31.744	9.0
31.759	13.0
31.774	7.0
31.788	11.0
31.803	12.0
31.818	12.0
31.832	15.0
31.847	11.0
31.862	16.0
31.876	13.0
31.891	8.0
31.906	13.0
31.92	9.0
31.935	13.0
31.95	6.0
31.965	8.0
31.979	14.0
31.994	8.0
32.009	7.0
32.023	7.0
32.038	9.0
32.053	8.0
32.067	9.0
32.082	10.0
32.097	12.0
32.112	10.0
32.126	7.0
32.141	15.0
32.156	16.0
32.17	8.0
32.185	12.0
32.2	9.0
32.214	15.0
32.229	12.0
32.244	9.0
32.259	7.0
32.273	14.0
32.288	9.0
32.303	12.0
32.317	15.0
32.332	19.0
32.347	9.0
32.362	7.0
32.376	16.0
32.391	16.0
32.406	11.0
32.42	7.0
32.435	7.0
32.45	8.0
32.465	6.0
32.479	13.0
32.494	11.0
32.509	4.0
32.523	13.0
32.538	12.0
32.553	10.0
32.568	11.0
32.582	13.0
32.597	5.0
32.612	11.0
32.627	11.0
32.641	13.0
32.656	16.0
32.671	16.0
32.685	13.0
32.7	14.0
32.715	16.0
32.73	22.0
32.744	18.0
32.759	15.0
32.774	23.0
32.788	25.0
32.803	25.0
32.818	25.0
32.833	28.0
32.847	25.0
32.862	27.0
32.877	27.0
32.892	22.0
32.906	14.0
32.921	25.0
32.936	16.0
32.951	22.0
32.965	26.0
32.98	24.0
32.995	23.0
33.009	17.0
33.024	13.0
33.039	23.0
33.054	23.0
33.068	23.0
33.083	12.0
33.098	12.0
33.113	10.0
33.127	13.0
33.142	12.0
33.157	11.0
33.172	9.0
33.186	7.0
33.201	15.0
33.216	8.0
33.231	8.0
33.245	13.0
33.26	11.0
33.275	10.0
33.29	7.0
33.304	13.0
33.319	7.0
33.334	8.0
33.349	10.0
33.363	5.0
33.378	10.0
33.393	5.0
33.408	11.0
33.422	5.0
33.437	10.0
33.452	6.0
33.467	7.0
33.481	13.0
33.496	9.0
33.511	9.0
33.526	6.0
33.54	12.0
33.555	10.0
33.57	14.0
33.585	8.0
33.599	9.0
33.614	6.0
33.629	11.0
33.644	18.0
33.658	7.0
33.673	7.0
33.688	10.0
33.703	7.0
33.718	10.0
33.732	5.0
33.747	11.0
33.762	11.0
33.777	7.0
33.791	10.0
33.806	8.0
33.821	8.0
33.836	8.0
33.85	13.0
33.865	11.0
33.88	6.0
33.895	6.0
33.91	12.0
33.924	14.0
33.939	20.0
33.954	8.0
33.969	6.0
33.983	10.0
33.998	10.0
34.013	11.0
34.028	13.0
34.042	12.0
34.057	8.0
34.072	13.0
34.087	13.0
34.102	11.0
34.116	13.0
34.131	10.0
34.146	10.0
34.161	15.0
34.175	11.0
34.19	16.0
34.205	7.0
34.22	12.0
34.235	7.0
34.249	19.0
34.264	12.0
34.279	14.0
34.294	16.0
34.309	17.0
34.323	12.0
34.338	7.0
34.353	15.0
34.368	12.0
34.382	7.0
34.397	14.0
34.412	9.0
34.427	15.0
34.442	15.0
34.456	12.0
34.471	17.0
34.486	9.0
34.501	10.0
34.516	8.0
34.53	14.0
34.545	12.0
34.56	14.0
34.575	9.0
34.59	6.0
34.604	6.0
34.619	11.0
34.634	15.0
34.649	13.0
34.664	8.0
34.678	8.0
34.693	8.0
34.708	13.0
34.723	9.0
34.738	8.0
34.752	11.0
34.767	11.0
34.782	12.0
34.797	14.0
34.812	14.0
34.826	11.0
34.841	6.0
34.856	10.0
34.871	15.0
34.886	11.0
34.9	11.0
34.915	10.0
34.93	2.0
34.945	9.0
34.96	7.0
34.974	8.0
34.989	12.0
35.004	9.0
35.019	8.0
35.034	8.0
35.048	7.0
35.063	11.0
35.078	11.0
35.093	16.0
35.108	6.0
35.122	15.0
35.137	8.0
35.152	11.0
35.167	8.0
35.182	9.0
35.196	6.0
35.211	10.0
35.226	9.0
35.241	10.0
35.256	5.0
35.27	14.0
35.285	8.0
35.3	12.0
35.315	19.0
35.33	7.0
35.344	5.0
35.359	8.0
35.374	6.0
35.389	8.0
35.404	13.0
35.418	11.0
35.433	5.0
35.448	7.0
35.463	6.0
35.478	6.0
35.493	11.0
35.507	4.0
35.522	13.0
35.537	9.0
35.552	6.0
35.567	8.0
35.581	10.0
35.596	10.0
35.611	8.0
35.626	9.0
35.641	12.0
35.655	15.0
35.67	12.0
35.685	11.0
35.7	16.0
35.715	12.0
35.729	19.0
35.744	22.0
35.759	17.0
35.774	21.0
35.789	11.0
35.804	22.0
35.818	19.0
35.833	18.0
35.848	18.0
35.863	9.0
35.878	13.0
35.892	15.0
35.907	12.0
35.922	16.0
35.937	16.0
35.952	9.0
35.966	11.0
35.981	14.0
35.996	13.0
36.011	11.0
36.026	13.0
36.04	7.0
36.055	12.0
36.07	11.0
36.085	11.0
36.1	9.0
36.114	10.0
36.129	8.0
36.144	8.0
36.159	13.0
36.174	12.0
36.189	10.0
36.203	7.0
36.218	9.0
36.233	9.0
36.248	9.0
36.263	10.0
36.277	11.0
36.292	4.0
36.307	6.0
36.322	10.0
36.337	7.0
36.351	7.0
36.366	8.0
36.381	12.0
36.396	9.0
36.411	15.0
36.426	9.0
36.44	9.0
36.455	10.0
36.47	12.0
36.485	3.0
36.5	7.0
36.514	9.0
36.529	7.0
36.544	9.0
36.559	5.0
36.574	4.0
36.589	12.0
36.603	7.0
36.618	10.0
36.633	7.0
36.648	7.0
36.663	7.0
36.677	6.0
36.692	11.0
36.707	13.0
36.722	11.0
36.737	9.0
36.752	5.0
36.766	6.0
36.781	7.0
36.796	4.0
36.811	8.0
36.826	11.0
36.841	10.0
36.855	7.0
36.87	11.0
36.885	5.0
36.9	8.0
36.915	8.0
36.93	11.0
36.944	13.0
36.959	10.0
36.974	7.0
36.989	10.0
37.004	11.0
37.019	12.0
37.033	14.0
37.048	16.0
37.063	15.0
37.078	18.0
37.093	17.0
37.108	25.0
37.123	30.0
37.137	21.0
37.152	32.0
37.167	32.0
37.182	29.0
37.197	35.0
37.212	19.0
37.226	26.0
37.241	19.0
37.256	28.0
37.271	15.0
37.286	24.0
37.301	19.0
37.316	28.0
37.331	17.0
37.345	16.0
37.36	14.0
37.375	27.0
37.39	19.0
37.405	13.0
37.42	25.0
37.435	22.0
37.45	16.0
37.464	8.0
37.479	8.0
37.494	20.0
37.509	8.0
37.524	15.0
37.539	10.0
37.554	7.0
37.569	12.0
37.583	7.0
37.598	9.0
37.613	8.0
37.628	6.0
37.643	8.0
37.658	7.0
37.673	4.0
37.688	1.0
37.703	4.0
37.718	3.0
37.733	7.0
37.747	17.0
37.762	3.0
37.777	7.0
37.792	6.0
37.807	4.0
37.822	10.0
37.837	10.0
37.852	8.0
37.867	12.0
37.882	4.0
37.897	7.0
37.912	16.0
37.927	6.0
37.941	9.0
37.956	5.0
37.971	5.0
37.986	6.0
38.001	5.0
38.016	4.0
38.031	9.0
38.046	6.0
38.061	5.0
38.076	3.0
38.091	7.0
38.106	6.0
38.121	9.0
38.136	12.0
38.151	6.0
38.166	10.0
38.181	3.0
38.196	5.0
38.211	4.0
38.226	6.0
38.241	6.0
38.256	6.0
38.271	9.0
38.285	6.0
38.3	5.0
38.315	9.0
38.33	7.0
38.345	4.0
38.36	7.0
38.375	8.0
38.39	14.0
38.405	4.0
38.42	8.0
38.435	5.0
38.45	7.0
38.465	7.0
38.48	10.0
38.495	5.0
38.51	7.0
38.525	5.0
38.54	4.0
38.555	11.0
38.57	7.0
38.585	8.0
38.6	3.0
38.615	5.0
38.63	2.0
38.645	7.0
38.66	10.0
38.675	7.0
38.69	5.0
38.705	7.0
38.72	5.0
38.735	7.0
38.75	7.0
38.765	10.0
38.78	8.0
38.795	3.0
38.81	7.0
38.825	7.0
38.84	11.0
38.855	4.0
38.87	4.0
38.885	7.0
38.9	5.0
38.915	5.0
38.93	4.0
38.945	5.0
38.96	7.0
38.975	3.0
38.99	7.0
39.005	5.0
39.02	7.0
39.035	4.0
39.05	9.0
39.065	8.0
39.08	8.0
39.095	7.0
39.11	5.0
39.125	1.0
39.14	4.0
39.155	5.0
39.17	5.0
39.185	7.0
39.2	3.0
39.215	9.0
39.23	4.0
39.245	2.0
39.26	6.0
39.275	3.0
39.29	6.0
39.305	8.0
39.32	11.0
39.335	8.0
39.35	11.0
39.365	4.0
39.38	6.0
39.395	6.0
39.409	3.0
39.424	5.0
39.439	8.0
39.454	5.0
39.469	8.0
39.484	4.0
39.499	3.0
39.514	1.0
39.529	5.0
39.544	8.0
39.559	5.0
39.574	7.0
39.589	8.0
39.604	4.0
39.619	9.0
39.634	5.0
39.649	6.0
39.664	4.0
39.678	6.0
39.693	1.0
39.708	5.0
39.723	6.0
39.738	5.0
39.753	9.0
39.768	7.0
39.783	10.0
39.798	8.0
39.813	9.0
39.827	9.0
39.842	13.0
39.857	11.0
39.872	12.0
39.887	10.0
39.902	11.0
39.917	12.0
39.932	7.0
39.947	3.0
39.961	11.0
39.976	4.0
39.991	5.0
40.006	6.0
40.021	11.0
40.036	5.0
40.051	7.0
40.065	7.0
40.08	7.0
40.095	5.0
40.11	10.0
40.125	10.0
40.14	7.0
40.154	9.0
40.169	9.0
40.184	8.0
40.199	9.0
40.214	1.0
40.228	8.0
40.243	10.0
40.258	7.0
40.273	3.0
40.288	4.0
40.302	6.0
40.317	9.0
40.332	4.0
40.347	8.0
40.362	4.0
40.376	2.0
40.391	4.0
40.406	5.0
40.421	8.0
40.436	8.0
40.45	5.0
40.465	6.0
40.48	7.0
40.495	9.0
40.509	9.0
40.524	5.0
40.539	4.0
40.554	10.0
40.568	2.0
40.583	7.0
40.598	10.0
40.613	6.0
40.627	5.0
40.642	5.0
40.657	6.0
40.672	8.0
40.686	6.0
40.701	7.0
40.716	9.0
40.731	7.0
40.745	5.0
40.76	8.0
40.775	8.0
40.79	6.0
40.804	7.0
40.819	2.0
40.834	3.0
40.849	5.0
40.863	4.0
40.878	3.0
40.893	2.0
40.907	8.0
40.922	6.0
40.937	9.0
40.952	8.0
40.966	10.0
40.981	6.0
40.996	12.0
41.011	7.0
41.025	10.0
41.04	13.0
41.055	12.0
41.069	20.0
41.084	13.0
41.099	18.0
41.114	22.0
41.128	22.0
41.143	15.0
41.158	21.0
41.173	17.0
41.187	16.0
41.202	14.0
41.217	18.0
41.231	17.0
41.246	12.0
41.261	11.0
41.276	14.0
41.29	10.0
41.305	8.0
41.32	13.0
41.335	15.0
41.349	14.0
41.364	13.0
41.379	11.0
41.393	7.0
41.408	13.0
41.423	18.0
41.438	19.0
41.452	17.0
41.467	8.0
41.482	11.0
41.497	7.0
41.511	7.0
41.526	11.0
41.541	2.0
41.556	5.0
41.57	5.0
41.585	9.0
41.6	7.0
41.615	8.0
41.629	3.0
41.644	7.0
41.659	8.0
41.674	5.0
41.688	4.0
41.703	8.0
41.718	4.0
41.733	7.0
41.747	6.0
41.762	6.0
41.777	5.0
41.792	5.0
41.806	9.0
41.821	0.0
41.836	3.0
41.851	7.0
41.866	7.0
41.88	6.0
41.895	2.0
41.91	9.0
41.925	3.0
41.939	12.0
41.954	7.0
41.969	6.0
41.984	7.0
41.999	2.0
42.013	11.0
42.028	7.0
42.043	8.0
42.058	7.0
42.073	6.0
42.088	7.0
42.102	2.0
42.117	7.0
42.132	4.0
42.147	5.0
42.162	13.0
42.176	9.0
42.191	5.0
42.206	8.0
42.221	6.0
42.236	7.0
42.251	8.0
42.266	11.0
42.28	13.0
42.295	5.0
42.31	12.0
42.325	8.0
42.34	15.0
42.355	12.0
42.369	19.0
42.384	10.0
42.399	17.0
42.414	14.0
42.429	10.0
42.444	15.0
42.459	16.0
42.474	17.0
42.488	7.0
42.503	6.0
42.518	7.0
42.533	4.0
42.548	15.0
42.563	9.0
42.578	8.0
42.593	13.0
42.608	8.0
42.622	14.0
42.637	20.0
42.652	9.0
42.667	14.0
42.682	14.0
42.697	14.0
42.712	4.0
42.727	9.0
42.742	12.0
42.757	7.0
42.772	10.0
42.786	7.0
42.801	6.0
42.816	9.0
42.831	5.0
42.846	5.0
42.861	5.0
42.876	5.0
42.891	9.0
42.906	6.0
42.921	8.0
42.936	3.0
42.951	5.0
42.966	3.0
42.981	8.0
42.996	5.0
43.011	8.0
43.025	5.0
43.04	10.0
43.055	7.0
43.07	4.0
43.085	4.0
43.1	7.0
43.115	9.0
43.13	7.0
43.145	4.0
43.16	6.0
43.175	5.0
43.19	6.0
43.205	8.0
43.22	6.0
43.235	8.0
43.25	3.0
43.265	5.0
43.28	5.0
43.295	8.0
43.31	7.0
43.325	3.0
43.34	6.0
43.355	7.0
43.37	5.0
43.385	6.0
43.4	4.0
43.415	8.0
43.43	9.0
43.445	2.0
43.46	5.0
43.475	10.0
43.49	7.0
43.505	7.0
43.52	5.0
43.535	12.0
43.55	8.0
43.565	11.0
43.58	10.0
43.595	8.0
43.61	6.0
43.625	7.0
43.64	9.0
43.655	10.0
43.67	7.0
43.685	11.0
43.7	7.0
43.715	10.0
43.73	7.0
43.745	6.0
43.76	6.0
43.775	11.0
43.79	8.0
43.805	12.0
43.82	8.0
43.835	8.0
43.85	9.0
43.865	9.0
43.88	14.0
43.895	13.0
43.91	6.0
43.925	9.0
43.94	10.0
43.955	2.0
43.97	7.0
43.985	4.0
44.0	4.0
44.015	4.0
44.03	9.0
44.045	7.0
44.061	8.0
44.076	6.0
44.091	2.0
44.106	4.0
44.121	7.0
44.136	2.0
44.151	10.0
44.166	5.0
44.181	13.0
44.196	7.0
44.211	7.0
44.226	1.0
44.241	5.0
44.256	10.0
44.271	6.0
44.286	5.0
44.301	3.0
44.316	6.0
44.331	7.0
44.346	5.0
44.361	3.0
44.377	9.0
44.392	7.0
44.407	7.0
44.422	3.0
44.437	3.0
44.452	3.0
44.467	3.0
44.482	7.0
44.497	1.0
44.512	9.0
44.527	11.0
44.542	7.0
44.557	7.0
44.572	6.0
44.587	4.0
44.602	5.0
44.617	4.0
44.632	7.0
44.647	6.0
44.663	5.0
44.678	8.0
44.693	3.0
44.708	6.0
44.723	3.0
44.738	9.0
44.753	9.0
44.768	3.0
44.783	9.0
44.798	9.0
44.813	14.0
44.828	12.0
44.843	15.0
44.858	11.0
44.873	10.0
44.888	4.0
44.903	9.0
44.918	7.0
44.933	6.0
44.948	10.0
44.964	6.0
44.979	8.0
44.994	7.0
45.009	12.0
45.024	8.0
45.039	9.0
45.054	7.0
45.069	4.0
45.084	4.0
45.099	6.0
45.114	8.0
45.129	6.0
45.144	5.0
45.159	5.0
45.174	3.0
45.189	3.0
45.204	7.0
45.219	9.0
45.234	4.0
45.249	3.0
45.264	7.0
45.279	3.0
45.294	3.0
45.309	1.0
45.324	2.0
45.339	3.0
45.354	11.0
45.369	4.0
45.384	6.0
45.399	4.0
45.414	4.0
45.429	4.0
45.444	4.0
45.459	7.0
45.474	9.0
45.489	7.0
45.504	6.0
45.519	9.0
45.534	2.0
45.549	5.0
45.564	4.0
45.579	3.0
45.594	1.0
45.609	8.0
45.624	6.0
45.639	7.0
45.654	5.0
45.669	3.0
45.684	7.0
45.699	4.0
45.714	4.0
45.729	4.0
45.744	4.0
45.759	7.0
45.774	8.0
45.789	8.0
45.804	3.0
45.819	3.0
45.834	7.0
45.849	8.0
45.864	10.0
45.879	5.0
45.894	7.0
45.909	17.0
45.924	11.0
45.939	10.0
45.954	14.0
45.969	13.0
45.984	17.0
45.998	17.0
46.013	13.0
46.028	15.0
46.043	10.0
46.058	12.0
46.073	16.0
46.088	10.0
46.103	10.0
46.118	6.0
46.133	10.0
46.148	3.0
46.163	2.0
46.178	4.0
46.192	15.0
46.207	10.0
46.222	9.0
46.237	9.0
46.252	9.0
46.267	6.0
46.282	13.0
46.297	9.0
46.312	8.0
46.327	7.0
46.341	8.0
46.356	10.0
46.371	5.0
46.386	8.0
46.401	9.0
46.416	4.0
46.431	7.0
46.446	6.0
46.46	3.0
46.475	5.0
46.49	4.0
46.505	7.0
46.52	5.0
46.535	1.0
46.55	1.0
46.564	3.0
46.579	6.0
46.594	4.0
46.609	8.0
46.624	3.0
46.639	6.0
46.654	3.0
46.668	4.0
46.683	6.0
46.698	9.0
46.713	5.0
46.728	4.0
46.743	8.0
46.758	0.0
46.772	6.0
46.787	4.0
46.802	5.0
46.817	5.0
46.832	3.0
46.847	7.0
46.861	5.0
46.876	5.0
46.891	12.0
46.906	7.0
46.921	10.0
46.936	7.0
46.95	6.0
46.965	5.0
46.98	12.0
46.995	5.0
47.01	8.0
47.025	7.0
47.039	4.0
47.054	9.0
47.069	18.0
47.084	9.0
47.099	10.0
47.113	7.0
47.128	8.0
47.143	5.0
47.158	8.0
47.173	6.0
47.188	11.0
47.202	9.0
47.217	7.0
47.232	4.0
47.247	4.0
47.262	4.0
47.277	7.0
47.291	6.0
47.306	5.0
47.321	6.0
47.336	8.0
47.351	4.0
47.365	4.0
47.38	4.0
47.395	8.0
47.41	9.0
47.425	4.0
47.44	5.0
47.454	9.0
47.469	13.0
47.484	9.0
47.499	7.0
47.514	6.0
47.528	2.0
47.543	6.0
47.558	7.0
47.573	4.0
47.588	3.0
47.603	7.0
47.617	3.0
47.632	4.0
47.647	6.0
47.662	5.0
47.677	3.0
47.691	5.0
47.706	4.0
47.721	7.0
47.736	5.0
47.751	6.0
47.766	2.0
47.78	4.0
47.795	5.0
47.81	5.0
47.825	5.0
47.84	2.0
47.855	7.0
47.869	5.0
47.884	5.0
47.899	3.0
47.914	4.0
47.929	7.0
47.944	4.0
47.958	6.0
47.973	8.0
47.988	3.0
48.003	3.0
48.018	5.0
48.033	0.0
48.047	9.0
48.062	2.0
48.077	4.0
48.092	4.0
48.107	14.0
48.122	6.0
48.137	3.0
48.151	3.0
48.166	9.0
48.181	6.0
48.196	6.0
48.211	7.0
48.226	2.0
48.241	5.0
48.255	2.0
48.27	7.0
48.285	4.0
48.3	2.0
48.315	2.0
48.33	10.0
48.345	4.0
48.359	5.0
48.374	4.0
48.389	1.0
48.404	5.0
48.419	4.0
48.434	5.0
48.449	10.0
48.464	5.0
48.478	5.0
48.493	4.0
48.508	2.0
48.523	2.0
48.538	6.0
48.553	6.0
48.568	9.0
48.583	8.0
48.597	8.0
48.612	7.0
48.627	4.0
48.642	1.0
48.657	4.0
48.672	5.0
48.687	9.0
48.702	4.0
48.717	5.0
48.731	6.0
48.746	3.0
48.761	7.0
48.776	6.0
48.791	4.0
48.806	4.0
48.821	3.0
48.836	5.0
48.851	3.0
48.866	3.0
48.88	4.0
48.895	4.0
48.91	4.0
48.925	6.0
48.94	3.0
48.955	5.0
48.97	8.0
48.985	5.0
49.0	7.0
49.015	4.0
49.03	7.0
49.044	3.0
49.059	5.0
49.074	5.0
49.089	4.0
49.104	4.0
49.119	4.0
49.134	8.0
49.149	5.0
49.164	5.0
49.179	8.0
49.194	1.0
49.209	5.0
49.224	9.0
49.238	5.0
49.253	6.0
49.268	4.0
49.283	6.0
49.298	12.0
49.313	10.0
49.328	5.0
49.343	8.0
49.358	4.0
49.373	5.0
49.388	2.0
49.403	8.0
49.418	4.0
49.433	5.0
49.448	10.0
49.463	5.0
49.478	7.0
49.492	2.0
49.507	7.0
49.522	5.0
49.537	7.0
49.552	8.0
49.567	2.0
49.582	6.0
49.597	4.0
49.612	9.0
49.627	5.0
49.642	8.0
49.657	6.0
49.672	6.0
49.687	5.0
49.702	5.0
49.717	7.0
49.732	6.0
49.747	4.0
49.762	4.0
49.777	9.0
49.792	5.0
49.807	4.0
49.822	4.0
49.837	10.0
49.852	7.0
49.867	5.0
49.882	6.0
49.897	1.0
49.912	3.0
49.927	10.0
49.942	2.0
49.957	9.0
49.971	4.0
49.986	8.0
50.001	3.0
50.016	5.0
50.031	2.0
50.046	5.0
50.061	4.0
50.076	3.0
50.091	8.0
50.106	7.0
50.121	3.0
50.136	4.0
50.151	7.0
50.166	7.0
50.181	5.0
50.196	4.0
50.211	6.0
50.226	5.0
50.241	2.0
50.256	6.0
50.271	8.0
50.286	4.0
50.302	9.0
50.317	7.0
50.332	4.0
50.347	6.0
50.362	5.0
50.377	9.0
50.392	7.0
50.407	4.0
50.422	10.0
50.437	3.0
50.452	5.0
50.467	13.0
50.482	4.0
50.497	4.0
50.512	5.0
50.527	9.0
50.542	9.0
50.557	8.0
50.572	6.0
50.587	6.0
50.602	10.0
50.617	5.0
50.632	10.0
50.647	3.0
50.662	3.0
50.677	3.0
50.692	4.0
50.707	7.0
50.722	6.0
50.737	7.0
50.752	6.0
50.767	9.0
50.782	6.0
50.797	2.0
50.812	5.0
50.828	2.0
50.843	8.0
50.858	8.0
50.873	10.0
50.888	5.0
50.903	3.0
50.918	7.0
50.933	9.0
50.948	2.0
50.963	6.0
50.978	4.0
50.993	7.0
51.008	2.0
51.023	2.0
51.038	9.0
51.053	4.0
51.068	4.0
51.083	4.0
51.098	4.0
51.114	4.0
51.129	7.0
51.144	4.0
51.159	5.0
51.174	5.0
51.189	1.0
51.204	6.0
51.219	8.0
51.234	4.0
51.249	5.0
51.264	10.0
51.279	3.0
51.294	4.0
51.309	1.0
51.324	6.0
51.34	9.0
51.355	10.0
51.37	4.0
51.385	9.0
51.4	9.0
51.415	9.0
51.43	7.0
51.445	7.0
51.46	11.0
51.475	12.0
51.49	17.0
51.505	24.0
51.52	19.0
51.535	9.0
51.551	17.0
51.566	15.0
51.581	11.0
51.596	12.0
51.611	5.0
51.626	9.0
51.641	5.0
51.656	6.0
51.671	5.0
51.686	6.0
51.701	12.0
51.716	5.0
51.732	7.0
51.747	5.0
51.762	14.0
51.777	10.0
51.792	9.0
51.807	6.0
51.822	8.0
51.837	12.0
51.852	13.0
51.867	10.0
51.882	10.0
51.898	16.0
51.913	6.0
51.928	8.0
51.943	10.0
51.958	10.0
51.973	6.0
51.988	7.0
52.003	5.0
52.018	12.0
52.033	8.0
52.048	6.0
52.064	5.0
52.079	5.0
52.094	5.0
52.109	5.0
52.124	4.0
52.139	4.0
52.154	4.0
52.169	4.0
52.184	3.0
52.199	6.0
52.215	5.0
52.23	7.0
52.245	6.0
52.26	6.0
52.275	6.0
52.29	8.0
52.305	8.0
52.32	3.0
52.335	6.0
52.35	8.0
52.366	6.0
52.381	3.0
52.396	5.0
52.411	5.0
52.426	8.0
52.441	5.0
52.456	8.0
52.471	7.0
52.486	8.0
52.502	10.0
52.517	10.0
52.532	6.0
52.547	9.0
52.562	10.0
52.577	9.0
52.592	7.0
52.607	4.0
52.622	9.0
52.637	6.0
52.653	9.0
52.668	3.0
52.683	4.0
52.698	5.0
52.713	6.0
52.728	6.0
52.743	4.0
52.758	4.0
52.774	4.0
52.789	7.0
52.804	4.0
52.819	4.0
52.834	5.0
52.849	8.0
52.864	2.0
52.879	8.0
52.894	5.0
52.91	7.0
52.925	6.0
52.94	4.0
52.955	8.0
52.97	12.0
52.985	8.0
53.0	6.0
53.015	9.0
53.031	5.0
53.046	5.0
53.061	4.0
53.076	2.0
53.091	5.0
53.106	7.0
53.121	2.0
53.136	3.0
53.152	5.0
53.167	5.0
53.182	6.0
53.197	1.0
53.212	5.0
53.227	5.0
53.242	5.0
53.257	1.0
53.273	5.0
53.288	7.0
53.303	5.0
53.318	2.0
53.333	3.0
53.348	2.0
53.363	4.0
53.379	5.0
53.394	4.0
53.409	4.0
53.424	7.0
53.439	5.0
53.454	4.0
53.469	6.0
53.484	3.0
53.5	6.0
53.515	3.0
53.53	3.0
53.545	6.0
53.56	6.0
53.575	3.0
53.59	4.0
53.606	5.0
53.621	8.0
53.636	7.0
53.651	4.0
53.666	7.0
53.681	9.0
53.696	5.0
53.712	4.0
53.727	4.0
53.742	4.0
53.757	5.0
53.772	6.0
53.787	5.0
53.802	7.0
53.818	7.0
53.833	2.0
53.848	5.0
53.863	5.0
53.878	5.0
53.893	4.0
53.909	4.0
53.924	2.0
53.939	3.0
53.954	6.0
53.969	5.0
53.984	1.0
53.999	8.0
54.015	4.0
54.03	3.0
54.045	5.0
54.06	4.0
54.075	8.0
54.09	6.0
54.106	8.0
54.121	6.0
54.136	3.0
54.151	6.0
54.166	8.0
54.181	5.0
54.197	11.0
54.212	7.0
54.227	5.0
54.242	4.0
54.257	6.0
54.272	4.0
54.288	5.0
54.303	4.0
54.318	8.0
54.333	3.0
54.348	3.0
54.363	8.0
54.379	6.0
54.394	6.0
54.409	7.0
54.424	3.0
54.439	1.0
54.454	11.0
54.47	8.0
54.485	6.0
54.5	1.0
54.515	3.0
54.53	11.0
54.545	6.0
54.561	11.0
54.576	10.0
54.591	11.0
54.606	12.0
54.621	14.0
54.636	9.0
54.652	19.0
54.667	23.0
54.682	7.0
54.697	20.0
54.712	8.0
54.727	11.0
54.743	8.0
54.758	8.0
54.773	7.0
54.788	7.0
54.803	6.0
54.819	6.0
54.834	10.0
54.849	6.0
54.864	4.0
54.879	8.0
54.894	9.0
54.91	5.0
54.925	6.0
54.94	8.0
54.955	13.0
54.97	7.0
54.985	9.0
55.001	10.0
55.016	7.0
55.031	17.0
55.046	14.0
55.061	11.0
55.077	7.0
55.092	11.0
55.107	3.0
55.122	3.0
55.137	9.0
55.152	4.0
55.168	4.0
55.183	6.0
55.198	8.0
55.213	0.0
55.228	4.0
55.243	1.0
55.259	7.0
55.274	6.0
55.289	4.0
55.304	4.0
55.319	0.0
55.335	2.0
55.35	5.0
55.365	0.0
55.38	4.0
55.395	4.0
55.41	4.0
55.426	7.0
55.441	6.0
55.456	7.0
55.471	0.0
55.486	6.0
55.501	6.0
55.517	5.0
55.532	1.0
55.547	8.0
55.562	4.0
55.577	5.0
55.592	7.0
55.608	8.0
55.623	4.0
55.638	8.0
55.653	7.0
55.668	6.0
55.683	6.0
55.699	8.0
55.714	8.0
55.729	3.0
55.744	10.0
55.759	5.0
55.774	5.0
55.79	10.0
55.805	3.0
55.82	5.0
55.835	4.0
55.85	5.0
55.865	5.0
55.881	6.0
55.896	8.0
55.911	7.0
55.926	3.0
55.941	7.0
55.956	0.0
55.972	4.0
55.987	3.0
56.002	5.0
56.017	5.0
56.032	8.0
56.047	3.0
56.063	3.0
56.078	9.0
56.093	7.0
56.108	3.0
56.123	3.0
56.138	6.0
56.154	4.0
56.169	5.0
56.184	7.0
56.199	3.0
56.214	4.0
56.229	3.0
56.244	4.0
56.26	4.0
56.275	3.0
56.29	5.0
56.305	5.0
56.32	7.0
56.335	5.0
56.351	1.0
56.366	3.0
56.381	6.0
56.396	7.0
56.411	1.0
56.426	2.0
56.441	5.0
56.457	5.0
56.472	3.0
56.487	4.0
56.502	2.0
56.517	3.0
56.532	10.0
56.547	3.0
56.563	8.0
56.578	2.0
56.593	3.0
56.608	4.0
56.623	4.0
56.638	2.0
56.653	4.0
56.668	3.0
56.684	2.0
56.699	7.0
56.714	3.0
56.729	4.0
56.744	2.0
56.759	2.0
56.774	2.0
56.79	8.0
56.805	6.0
56.82	4.0
56.835	4.0
56.85	1.0
56.865	4.0
56.88	5.0
56.895	5.0
56.911	2.0
56.926	4.0
56.941	3.0
56.956	8.0
56.971	2.0
56.986	3.0
57.001	5.0
57.016	2.0
57.031	5.0
57.047	5.0
57.062	7.0
57.077	5.0
57.092	1.0
57.107	4.0
57.122	5.0
57.137	1.0
57.152	4.0
57.167	4.0
57.183	4.0
57.198	2.0
57.213	8.0
57.228	4.0
57.243	2.0
57.258	5.0
57.273	4.0
57.288	2.0
57.303	2.0
57.318	6.0
57.334	4.0
57.349	4.0
57.364	7.0
57.379	3.0
57.394	6.0
57.409	5.0
57.424	5.0
57.439	5.0
57.454	10.0
57.469	5.0
57.484	4.0
57.5	7.0
57.515	5.0
57.53	8.0
57.545	1.0
57.56	6.0
57.575	3.0
57.59	0.0
57.605	5.0
57.62	7.0
57.635	2.0
57.65	7.0
57.665	6.0
57.68	8.0
57.696	9.0
57.711	7.0
57.726	2.0
57.741	8.0
57.756	4.0
57.771	4.0
57.786	1.0
57.801	4.0
57.816	4.0
57.831	5.0
57.846	3.0
57.861	8.0
57.876	3.0
57.891	7.0
57.906	2.0
57.921	4.0
57.937	3.0
57.952	2.0
57.967	2.0
57.982	6.0
57.997	8.0
58.012	9.0
58.027	5.0
58.042	4.0
58.057	4.0
58.072	13.0
58.087	8.0
58.102	6.0
58.117	7.0
58.132	6.0
58.147	5.0
58.162	3.0
58.177	2.0
58.192	4.0
58.207	1.0
58.222	4.0
58.237	6.0
58.252	11.0
58.267	7.0
58.282	7.0
58.297	1.0
58.312	4.0
58.327	5.0
58.342	1.0
58.357	4.0
58.372	3.0
58.387	4.0
58.402	3.0
58.418	3.0
58.433	1.0
58.448	5.0
58.463	5.0
58.478	6.0
58.493	7.0
58.508	1.0
58.523	6.0
58.538	6.0
58.553	7.0
58.568	5.0
58.583	8.0
58.598	6.0
58.613	8.0
58.628	12.0
58.643	9.0
58.658	12.0
58.673	11.0
58.688	6.0
58.703	6.0
58.718	8.0
58.733	6.0
58.748	6.0
58.763	7.0
58.778	2.0
58.793	2.0
58.808	5.0
58.823	4.0
58.838	8.0
58.853	5.0
58.868	4.0
58.883	2.0
58.898	5.0
58.913	8.0
58.928	5.0
58.942	6.0
58.957	4.0
58.972	4.0
58.987	8.0
59.002	3.0
59.017	12.0
59.032	10.0
59.047	6.0
59.062	2.0
59.077	4.0
59.092	3.0
59.107	9.0
59.122	7.0
59.137	4.0
59.152	2.0
59.167	2.0
59.182	6.0
59.197	4.0
59.212	4.0
59.227	5.0
59.242	3.0
59.257	5.0
59.272	3.0
59.287	6.0
59.302	6.0
59.317	1.0
59.332	4.0
59.347	6.0
59.362	2.0
59.377	1.0
59.392	4.0
59.407	4.0
59.422	7.0
59.437	4.0
59.452	2.0
59.467	4.0
59.482	3.0
59.497	5.0
59.512	2.0
59.527	10.0
59.542	8.0
59.557	8.0
59.572	4.0
59.587	8.0
59.602	12.0
59.617	7.0
59.632	7.0
59.647	9.0
59.661	8.0
59.676	6.0
59.691	4.0
59.706	7.0
59.721	1.0
59.736	3.0
59.751	1.0
59.766	7.0
59.781	5.0
59.796	2.0
59.811	5.0
59.826	2.0
59.841	2.0
59.856	4.0
59.871	4.0
59.886	4.0
59.901	4.0
59.916	8.0
59.931	6.0
59.946	5.0
59.961	5.0
59.976	5.0
59.991	9.0
60.006	7.0
60.021	7.0
60.036	10.0
60.051	7.0
60.066	7.0
60.081	4.0
60.096	4.0
60.111	3.0
60.126	4.0
60.141	1.0
60.156	1.0
60.171	7.0
60.186	4.0
60.201	1.0
60.216	6.0
60.231	3.0
60.246	5.0
60.261	6.0
60.276	5.0
60.291	2.0
60.306	3.0
60.321	1.0
60.336	3.0
60.35	4.0
60.365	3.0
60.38	2.0
60.395	6.0
60.41	4.0
60.425	2.0
60.44	4.0
60.455	4.0
60.47	4.0
60.485	4.0
60.5	3.0
60.515	6.0
60.53	4.0
60.545	9.0
60.56	10.0
60.575	8.0
60.59	9.0
60.605	7.0
60.62	4.0
60.635	6.0
60.65	4.0
60.665	5.0
60.68	4.0
60.695	2.0
60.71	2.0
60.725	3.0
60.74	4.0
60.755	2.0
60.77	10.0
60.785	4.0
60.8	8.0
60.815	7.0
60.83	6.0
60.845	5.0
60.86	6.0
60.875	6.0
60.89	4.0
60.905	1.0
60.92	2.0
60.935	3.0
60.95	7.0
60.965	9.0
60.98	5.0
60.995	11.0
61.01	6.0
61.025	7.0
61.04	6.0
61.055	5.0
61.07	5.0
61.085	5.0
61.1	9.0
61.115	4.0
61.13	3.0
61.145	2.0
61.16	4.0
61.175	5.0
61.191	6.0
61.206	3.0
61.221	1.0
61.236	9.0
61.251	10.0
61.266	3.0
61.281	1.0
61.296	5.0
61.311	5.0
61.326	5.0
61.341	5.0
61.356	4.0
61.371	7.0
61.386	4.0
61.401	3.0
61.416	4.0
61.431	5.0
61.446	4.0
61.461	2.0
61.476	10.0
61.491	3.0
61.506	4.0
61.521	7.0
61.536	6.0
61.551	10.0
61.566	7.0
61.581	7.0
61.596	3.0
61.611	8.0
61.626	2.0
61.641	1.0
61.656	3.0
61.672	2.0
61.687	6.0
61.702	6.0
61.717	5.0
61.732	5.0
61.747	3.0
61.762	3.0
61.777	4.0
61.792	5.0
61.807	3.0
61.822	6.0
61.837	3.0
61.852	6.0
61.867	7.0
61.882	5.0
61.897	10.0
61.912	5.0
61.927	3.0
61.943	8.0
61.958	1.0
61.973	4.0
61.988	6.0
62.003	9.0
62.018	6.0
62.033	2.0
62.048	5.0
62.063	3.0
62.078	4.0
62.093	0.0
62.108	5.0
62.123	5.0
62.138	0.0
62.153	5.0
62.169	4.0
62.184	4.0
62.199	3.0
62.214	4.0
62.229	2.0
62.244	3.0
62.259	5.0
62.274	6.0
62.289	2.0
62.304	3.0
62.319	5.0
62.335	5.0
62.35	1.0
62.365	4.0
62.38	5.0
62.395	1.0
62.41	8.0
62.425	4.0
62.44	9.0
62.455	5.0
62.47	1.0
62.485	1.0
62.501	2.0
62.516	3.0
62.531	2.0
62.546	4.0
62.561	4.0
62.576	5.0
62.591	2.0
62.606	2.0
62.621	2.0
62.636	5.0
62.652	1.0
62.667	4.0
62.682	8.0
62.697	6.0
62.712	3.0
62.727	1.0
62.742	3.0
62.757	3.0
62.772	3.0
62.787	1.0
62.803	4.0
62.818	3.0
62.833	2.0
62.848	2.0
62.863	8.0
62.878	3.0
62.893	5.0
62.908	5.0
62.923	5.0
62.939	5.0
62.954	5.0
62.969	4.0
62.984	4.0
62.999	7.0
63.014	3.0
63.029	5.0
63.044	1.0
63.059	5.0
63.074	6.0
63.09	4.0
63.105	5.0
63.12	5.0
63.135	6.0
63.15	4.0
63.165	4.0
63.18	2.0
63.195	2.0
63.21	3.0
63.226	4.0
63.241	7.0
63.256	3.0
63.271	8.0
63.286	5.0
63.301	4.0
63.316	6.0
63.331	5.0
63.346	4.0
63.362	13.0
63.377	7.0
63.392	7.0
63.407	9.0
63.422	7.0
63.437	5.0
63.452	7.0
63.467	6.0
63.482	9.0
63.497	8.0
63.513	4.0
63.528	4.0
63.543	5.0
63.558	8.0
63.573	6.0
63.588	3.0
63.603	3.0
63.618	3.0
63.633	3.0
63.648	4.0
63.664	4.0
63.679	7.0
63.694	4.0
63.709	5.0
63.724	7.0
63.739	7.0
63.754	7.0
63.769	4.0
63.784	5.0
63.799	8.0
63.814	3.0
63.83	6.0
63.845	5.0
63.86	4.0
63.875	1.0
63.89	5.0
63.905	1.0
63.92	4.0
63.935	2.0
63.95	2.0
63.965	1.0
63.98	4.0
63.996	3.0
64.011	6.0
64.026	4.0
64.041	5.0
64.056	2.0
64.071	2.0
64.086	5.0
64.101	2.0
64.116	5.0
64.131	5.0
64.146	9.0
64.161	1.0
64.176	1.0
64.191	4.0
64.207	6.0
64.222	7.0
64.237	4.0
64.252	3.0
64.267	4.0
64.282	6.0
64.297	2.0
64.312	0.0
64.327	2.0
64.342	2.0
64.357	4.0
64.372	3.0
64.387	5.0
64.402	1.0
64.417	3.0
64.433	6.0
64.448	3.0
64.463	3.0
64.478	4.0
64.493	1.0
64.508	1.0
64.523	6.0
64.538	7.0
64.553	4.0
64.568	2.0
64.583	4.0
64.598	2.0
64.613	3.0
64.628	8.0
64.643	3.0
64.658	5.0
64.673	4.0
64.688	6.0
64.703	4.0
64.718	5.0
64.734	2.0
64.749	4.0
64.764	2.0
64.779	6.0
64.794	1.0
64.809	2.0
64.824	2.0
64.839	5.0
64.854	1.0
64.869	2.0
64.884	3.0
64.899	3.0
64.914	5.0
64.929	5.0
64.944	4.0
64.959	4.0
64.974	4.0
64.989	5.0
65.004	5.0
65.019	4.0
65.034	3.0
65.049	4.0
65.064	2.0
65.079	3.0
65.094	5.0
65.109	4.0
65.125	3.0
65.14	5.0
65.155	4.0
65.17	9.0
65.185	5.0
65.2	7.0
65.215	2.0
65.23	5.0
65.245	2.0
65.26	5.0
65.275	5.0
65.29	6.0
65.305	5.0
65.32	2.0
65.335	4.0
65.35	5.0
65.365	2.0
65.38	3.0
65.395	3.0
65.41	5.0
65.425	2.0
65.44	6.0
65.455	6.0
65.47	7.0
65.485	2.0
65.5	5.0
65.515	2.0
65.53	2.0
65.545	0.0
65.56	2.0
65.575	3.0
65.59	5.0
65.605	7.0
65.62	0.0
65.635	0.0
65.65	5.0
65.666	4.0
65.681	7.0
65.696	3.0
65.711	4.0
65.726	2.0
65.741	7.0
65.756	3.0
65.771	4.0
65.786	6.0
65.801	3.0
65.816	2.0
65.831	4.0
65.846	3.0
65.861	1.0
65.876	3.0
65.891	3.0
65.906	4.0
65.921	3.0
65.936	5.0
65.951	4.0
65.966	3.0
65.981	5.0
65.996	6.0
66.011	1.0
66.026	7.0
66.041	5.0
66.056	2.0
66.071	4.0
66.086	6.0
66.101	4.0
66.116	5.0
66.131	5.0
66.146	5.0
66.161	7.0
66.176	10.0
66.191	4.0
66.206	10.0
66.221	6.0
66.236	0.0
66.251	8.0
66.266	5.0
66.281	3.0
66.296	4.0
66.311	2.0
66.327	2.0
66.342	4.0
66.357	4.0
66.372	8.0
66.387	3.0
66.402	5.0
66.417	4.0
66.432	0.0
66.447	0.0
66.462	4.0
66.477	6.0
66.492	4.0
66.507	2.0
66.522	8.0
66.537	4.0
66.552	5.0
66.567	7.0
66.582	8.0
66.597	4.0
66.612	6.0
66.627	9.0
66.642	6.0
66.657	5.0
66.672	0.0
66.687	6.0
66.702	2.0
66.717	7.0
66.732	2.0
66.747	3.0
66.762	4.0
66.777	4.0
66.792	1.0
66.807	3.0
66.822	4.0
66.837	4.0
66.853	4.0
66.868	4.0
66.883	3.0
66.898	3.0
66.913	2.0
66.928	2.0
66.943	4.0
66.958	6.0
66.973	1.0
66.988	6.0
67.003	2.0
67.018	5.0
67.033	4.0
67.048	5.0
67.063	5.0
67.078	7.0
67.093	3.0
67.108	9.0
67.123	4.0
67.138	2.0
67.153	8.0
67.168	8.0
67.183	5.0
67.198	4.0
67.214	3.0
67.229	1.0
67.244	5.0
67.259	1.0
67.274	3.0
67.289	2.0
67.304	2.0
67.319	1.0
67.334	4.0
67.349	2.0
67.364	1.0
67.379	7.0
67.394	3.0
67.409	4.0
67.424	1.0
67.439	4.0
67.454	3.0
67.469	4.0
67.484	5.0
67.5	2.0
67.515	4.0
67.53	6.0
67.545	4.0
67.56	3.0
67.575	4.0
67.59	4.0
67.605	6.0
67.62	5.0
67.635	1.0
67.65	1.0
67.665	6.0
67.68	4.0
67.695	1.0
67.71	3.0
67.726	3.0
67.741	4.0
67.756	3.0
67.771	5.0
67.786	5.0
67.801	3.0
67.816	5.0
67.831	1.0
67.846	4.0
67.861	2.0
67.876	5.0
67.891	4.0
67.906	4.0
67.922	5.0
67.937	5.0
67.952	5.0
67.967	3.0
67.982	4.0
67.997	9.0
68.012	6.0
68.027	3.0
68.042	4.0
68.057	3.0
68.072	7.0
68.087	2.0
68.103	0.0
68.118	2.0
68.133	5.0
68.148	3.0
68.163	4.0
68.178	4.0
68.193	1.0
68.208	4.0
68.223	2.0
68.238	5.0
68.254	3.0
68.269	7.0
68.284	3.0
68.299	3.0
68.314	7.0
68.329	3.0
68.344	3.0
68.359	3.0
68.374	6.0
68.389	3.0
68.405	3.0
68.42	4.0
68.435	2.0
68.45	2.0
68.465	4.0
68.48	7.0
68.495	4.0
68.51	5.0
68.525	5.0
68.54	0.0
68.556	6.0
68.571	3.0
68.586	3.0
68.601	2.0
68.616	2.0
68.631	9.0
68.646	4.0
68.661	4.0
68.676	4.0
68.691	2.0
68.707	5.0
68.722	4.0
68.737	1.0
68.752	3.0
68.767	4.0
68.782	5.0
68.797	5.0
68.812	3.0
68.827	2.0
68.842	2.0
68.857	4.0
68.873	2.0
68.888	3.0
68.903	3.0
68.918	1.0
68.933	4.0
68.948	4.0
68.963	5.0
68.978	3.0
68.993	4.0
69.008	7.0
69.023	4.0
69.038	6.0
69.054	1.0
69.069	4.0
69.084	1.0
69.099	7.0
69.114	1.0
69.129	3.0
69.144	2.0
69.159	4.0
69.174	2.0
69.189	3.0
69.204	2.0
69.219	2.0
69.234	1.0
69.249	7.0
69.264	4.0
69.279	4.0
69.295	2.0
69.31	1.0
69.325	1.0
69.34	5.0
69.355	8.0
69.37	9.0
69.385	6.0
69.4	3.0
69.415	6.0
69.43	6.0
69.445	2.0
69.46	3.0
69.475	2.0
69.49	7.0
69.505	2.0
69.52	9.0
69.535	3.0
69.55	0.0
69.565	6.0
69.58	1.0
69.595	2.0
69.61	4.0
69.625	4.0
69.64	4.0
69.655	4.0
69.67	2.0
69.685	3.0
69.7	9.0
69.715	3.0
69.73	7.0
69.745	4.0
69.76	3.0
69.775	6.0
69.79	4.0
69.805	7.0
69.82	5.0
69.835	7.0
69.85	8.0
69.865	7.0
69.88	3.0
69.895	6.0
69.909	8.0
69.924	3.0
69.939	4.0
69.954	6.0
69.969	1.0
69.984	3.0
69.999	3.0
70.014	5.0
70.029	1.0
70.044	2.0
70.059	3.0
70.074	8.0
70.088	4.0
70.103	2.0
70.118	0.0
70.133	1.0
70.148	6.0
70.163	4.0
70.178	7.0
70.193	2.0
70.208	5.0
70.222	2.0
70.237	6.0
70.252	5.0
70.267	4.0
70.282	4.0
70.297	5.0
70.312	6.0
70.327	4.0
70.341	4.0
70.356	4.0
70.371	6.0
70.386	6.0
70.401	3.0
70.416	2.0
70.43	4.0
70.445	4.0
70.46	8.0
70.475	4.0
70.49	5.0
70.505	2.0
70.519	2.0
70.534	4.0
70.549	5.0
70.564	4.0
70.579	10.0
70.594	5.0
70.608	2.0
70.623	3.0
70.638	3.0
70.653	8.0
70.668	5.0
70.683	3.0
70.697	10.0
70.712	8.0
70.727	5.0
70.742	2.0
70.757	5.0
70.771	9.0
70.786	3.0
70.801	3.0
70.816	5.0
70.831	2.0
70.845	4.0
70.86	6.0
70.875	2.0
70.89	3.0
70.905	2.0
70.92	5.0
70.934	8.0
70.949	5.0
70.964	2.0
70.979	3.0
70.994	3.0
71.008	3.0
71.023	3.0
71.038	5.0
71.053	3.0
71.068	4.0
71.082	5.0
71.097	6.0
71.112	4.0
71.127	5.0
71.142	5.0
71.156	3.0
71.171	7.0
71.186	4.0
71.201	1.0
71.216	2.0
71.231	2.0
71.245	5.0
71.26	5.0
71.275	4.0
71.29	3.0
71.305	3.0
71.319	5.0
71.334	4.0
71.349	0.0
71.364	3.0
71.379	6.0
71.394	2.0
71.408	7.0
71.423	4.0
71.438	4.0
71.453	3.0
71.468	3.0
71.483	1.0
71.497	0.0
71.512	3.0
71.527	3.0
71.542	5.0
71.557	2.0
71.572	4.0
71.586	4.0
71.601	1.0
71.616	2.0
71.631	6.0
71.646	6.0
71.661	2.0
71.676	1.0
71.69	7.0
71.705	7.0
71.72	1.0
71.735	6.0
71.75	3.0
71.765	5.0
71.78	4.0
71.795	5.0
71.81	4.0
71.824	3.0
71.839	2.0
71.854	3.0
71.869	4.0
71.884	1.0
71.899	3.0
71.914	3.0
71.929	2.0
71.944	3.0
71.959	2.0
71.974	3.0
71.988	1.0
72.003	5.0
72.018	3.0
72.033	7.0
72.048	2.0
72.063	4.0
72.078	2.0
72.093	7.0
72.108	2.0
72.123	3.0
72.138	5.0
72.153	4.0
72.168	6.0
72.183	3.0
72.198	6.0
72.213	4.0
72.228	7.0
72.243	5.0
72.258	4.0
72.273	1.0
72.288	5.0
72.303	1.0
72.318	1.0
72.333	2.0
72.348	0.0
72.363	2.0
72.378	4.0
72.393	4.0
72.408	3.0
72.423	3.0
72.438	4.0
72.453	2.0
72.468	3.0
72.483	3.0
72.498	2.0
72.513	4.0
72.528	2.0
72.543	6.0
72.558	4.0
72.573	2.0
72.588	4.0
72.603	5.0
72.618	1.0
72.633	2.0
72.649	0.0
72.664	7.0
72.679	2.0
72.694	3.0
72.709	5.0
72.724	3.0
72.739	1.0
72.754	8.0
72.769	5.0
72.784	1.0
72.799	4.0
72.814	4.0
72.829	5.0
72.845	5.0
72.86	3.0
72.875	1.0
72.89	1.0
72.905	3.0
72.92	3.0
72.935	2.0
72.95	0.0
72.965	4.0
72.98	3.0
72.996	4.0
73.011	4.0
73.026	2.0
73.041	3.0
73.056	2.0
73.071	2.0
73.086	5.0
73.101	4.0
73.117	6.0
73.132	3.0
73.147	3.0
73.162	1.0
73.177	2.0
73.192	3.0
73.207	4.0
73.222	5.0
73.238	3.0
73.253	3.0
73.268	2.0
73.283	8.0
73.298	5.0
73.313	5.0
73.328	1.0
73.343	0.0
73.359	4.0
73.374	4.0
73.389	4.0
73.404	5.0
73.419	6.0
73.434	4.0
73.449	3.0
73.465	3.0
73.48	4.0
73.495	4.0
73.51	1.0
73.525	4.0
73.54	2.0
73.556	8.0
73.571	2.0
73.586	2.0
73.601	2.0
73.616	6.0
73.631	4.0
73.646	7.0
73.662	6.0
73.677	2.0
73.692	4.0
73.707	6.0
73.722	0.0
73.737	2.0
73.752	4.0
73.768	4.0
73.783	2.0
73.798	2.0
73.813	7.0
73.828	1.0
73.843	4.0
73.859	4.0
73.874	2.0
73.889	3.0
73.904	4.0
73.919	3.0
73.934	4.0
73.949	5.0
73.965	5.0
73.98	4.0
73.995	0.0
74.01	1.0
74.025	3.0
74.04	3.0
74.056	2.0
74.071	4.0
74.086	3.0
74.101	9.0
74.116	5.0
74.131	9.0
74.146	6.0
74.162	5.0
74.177	5.0
74.192	2.0
74.207	4.0
74.222	4.0
74.237	5.0
74.252	5.0
74.268	5.0
74.283	6.0
74.298	4.0
74.313	5.0
74.328	3.0
74.343	3.0
74.358	2.0
74.374	3.0
74.389	4.0
74.404	4.0
74.419	6.0
74.434	4.0
74.449	4.0
74.464	0.0
74.48	9.0
74.495	5.0
74.51	5.0
74.525	5.0
74.54	3.0
74.555	4.0
74.57	4.0
74.586	3.0
74.601	1.0
74.616	2.0
74.631	2.0
74.646	2.0
74.661	3.0
74.676	3.0
74.691	3.0
74.707	5.0
74.722	1.0
74.737	6.0
74.752	1.0
74.767	5.0
74.782	6.0
74.797	8.0
74.813	6.0
74.828	1.0
74.843	2.0
74.858	7.0
74.873	3.0
74.888	2.0
74.903	1.0
74.918	4.0
74.934	3.0
74.949	2.0
74.964	7.0
74.979	7.0
74.994	4.0
75.009	5.0
75.024	4.0
75.04	8.0
75.055	3.0
75.07	3.0
75.085	8.0
75.1	3.0
75.115	6.0
75.13	9.0
75.145	5.0
75.161	5.0
75.176	2.0
75.191	5.0
75.206	3.0
75.221	3.0
75.236	4.0
75.251	1.0
75.266	1.0
75.282	5.0
75.297	3.0
75.312	6.0
75.327	2.0
75.342	2.0
75.357	6.0
75.372	0.0
75.387	5.0
75.403	4.0
75.418	3.0
75.433	1.0
75.448	4.0
75.463	3.0
75.478	7.0
75.493	8.0
75.509	1.0
75.524	3.0
75.539	4.0
75.554	6.0
75.569	2.0
75.584	4.0
75.599	4.0
75.614	4.0
75.63	6.0
75.645	1.0
75.66	5.0
75.675	7.0
75.69	4.0
75.705	1.0
75.72	5.0
75.735	7.0
75.751	3.0
75.766	2.0
75.781	1.0
75.796	3.0
75.811	2.0
75.826	3.0
75.841	6.0
75.856	3.0
75.872	6.0
75.887	6.0
75.902	3.0
75.917	3.0
75.932	5.0
75.947	2.0
75.962	5.0
75.977	1.0
75.993	3.0
76.008	2.0
76.023	7.0
76.038	5.0
76.053	1.0
76.068	0.0
76.083	5.0
76.098	2.0
76.114	3.0
76.129	4.0
76.144	1.0
76.159	6.0
76.174	1.0
76.189	2.0
76.204	2.0
76.22	5.0
76.235	5.0
76.25	6.0
76.265	1.0
76.28	3.0
76.295	3.0
76.31	4.0
76.325	4.0
76.341	6.0
76.356	1.0
76.371	2.0
76.386	4.0
76.401	3.0
76.416	3.0
76.431	4.0
76.446	5.0
76.462	6.0
76.477	4.0
76.492	2.0
76.507	8.0
76.522	1.0
76.537	2.0
76.552	4.0
76.567	2.0
76.583	5.0
76.598	3.0
76.613	3.0
76.628	3.0
76.643	3.0
76.658	3.0
76.673	4.0
76.688	3.0
76.704	2.0
76.719	8.0
76.734	3.0
76.749	5.0
76.764	2.0
76.779	6.0
76.794	3.0
76.809	7.0
76.824	8.0
76.84	4.0
76.855	1.0
76.87	3.0
76.885	1.0
76.9	6.0
76.915	2.0
76.93	3.0
76.945	1.0
76.96	4.0
76.976	0.0
76.991	2.0
77.006	3.0
77.021	1.0
77.036	2.0
77.051	2.0
77.066	5.0
77.081	3.0
77.096	5.0
77.112	3.0
77.127	3.0
77.142	3.0
77.157	2.0
77.172	1.0
77.187	2.0
77.202	0.0
77.217	6.0
77.232	4.0
77.247	4.0
77.263	3.0
77.278	6.0
77.293	0.0
77.308	2.0
77.323	7.0
77.338	7.0
77.353	4.0
77.368	2.0
77.383	5.0
77.398	3.0
77.413	4.0
77.428	4.0
77.444	5.0
77.459	5.0
77.474	4.0
77.489	1.0
77.504	3.0
77.519	3.0
77.534	6.0
77.549	3.0
77.564	6.0
77.579	2.0
77.594	9.0
77.609	9.0
77.624	5.0
77.64	7.0
77.655	10.0
77.67	3.0
77.685	3.0
77.7	4.0
77.715	3.0
77.73	7.0
77.745	3.0
77.76	5.0
77.775	1.0
77.79	4.0
77.805	2.0
77.82	3.0
77.835	4.0
77.85	7.0
77.865	5.0
77.88	5.0
77.895	3.0
77.91	0.0
77.926	3.0
77.941	2.0
77.956	0.0
77.971	2.0
77.986	4.0
78.001	4.0
78.016	2.0
78.031	4.0
78.046	8.0
78.061	0.0
78.076	1.0
78.091	3.0
78.106	8.0
78.121	1.0
78.136	4.0
78.151	2.0
78.166	1.0
78.181	6.0
78.196	6.0
78.211	1.0
78.226	2.0
78.241	2.0
78.256	8.0
78.271	1.0
78.286	5.0
78.301	6.0
78.316	4.0
78.331	4.0
78.346	5.0
78.361	1.0
78.376	2.0
78.391	4.0
78.406	2.0
78.421	4.0
78.436	4.0
78.451	4.0
78.466	2.0
78.481	2.0
78.496	2.0
78.511	6.0
78.526	2.0
78.541	2.0
78.556	4.0
78.571	2.0
78.586	3.0
78.601	0.0
78.616	4.0
78.631	4.0
78.646	0.0
78.661	3.0
78.676	3.0
78.691	2.0
78.706	3.0
78.721	2.0
78.736	2.0
78.751	3.0
78.766	2.0
78.781	1.0
78.796	3.0
78.811	4.0
78.826	3.0
78.841	5.0
78.856	7.0
78.871	1.0
78.885	1.0
78.9	3.0
78.915	2.0
78.93	3.0
78.945	5.0
78.96	3.0
78.975	3.0
78.99	2.0
79.005	8.0
79.02	2.0
79.035	2.0
79.05	5.0
79.065	4.0
79.08	4.0
79.095	0.0
79.11	4.0
79.125	4.0
79.14	0.0
79.155	2.0
79.17	1.0
79.185	6.0
79.2	2.0
79.215	2.0
79.23	2.0
79.245	3.0
79.26	1.0
79.275	2.0
79.29	1.0
79.304	5.0
79.319	3.0
79.334	2.0
79.349	0.0
79.364	5.0
79.379	3.0
79.394	5.0
79.409	4.0
79.424	10.0
79.439	2.0
79.454	4.0
79.469	4.0
79.484	2.0
79.499	4.0
79.514	3.0
79.529	3.0
79.544	0.0
79.559	1.0
79.574	2.0
79.589	2.0
79.604	2.0
79.619	5.0
79.634	1.0
79.649	5.0
79.664	4.0
79.679	2.0
79.693	3.0
79.708	3.0
79.723	1.0
79.738	3.0
79.753	3.0
79.768	3.0
79.783	3.0
79.798	2.0
79.813	2.0
79.828	6.0
79.843	2.0
79.858	7.0
79.873	3.0
79.888	3.0
79.903	5.0
79.918	6.0
79.933	4.0
79.948	1.0
79.963	2.0
79.978	2.0
79.993	0.0
80.008	3.0
80.023	1.0
80.038	1.0
80.053	3.0
80.068	2.0
80.083	3.0
80.098	3.0
80.113	2.0
80.128	3.0
80.143	3.0
80.158	4.0
80.173	3.0
80.188	3.0
80.202	6.0
80.217	2.0
80.232	6.0
80.247	3.0
80.262	1.0
80.277	2.0
80.292	4.0
80.307	5.0
80.322	1.0
80.337	1.0
80.352	1.0
80.367	3.0
80.382	3.0
80.397	3.0
80.412	2.0
80.427	4.0
80.442	2.0
80.457	3.0
80.472	5.0
80.487	2.0
80.502	4.0
80.517	3.0
80.532	0.0
80.547	3.0
80.562	2.0
80.577	4.0
80.592	0.0
80.607	5.0
80.622	6.0
80.637	3.0
80.652	5.0
80.667	3.0
80.682	3.0
80.697	7.0
80.712	2.0
80.727	3.0
80.742	5.0
80.757	2.0
80.772	2.0
80.787	3.0
80.802	2.0
80.817	7.0
80.832	4.0
80.847	0.0
80.862	4.0
80.877	0.0
80.892	4.0
80.907	4.0
80.922	1.0
80.937	2.0
80.952	5.0
80.967	3.0
80.982	4.0
80.997	8.0
81.012	2.0
81.027	3.0
81.042	6.0
81.057	4.0
81.072	4.0
81.087	4.0
81.101	3.0
81.116	4.0
81.131	2.0
81.146	3.0
81.161	1.0
81.176	0.0
81.191	3.0
81.206	5.0
81.221	8.0
81.236	4.0
81.251	3.0
81.266	1.0
81.281	1.0
81.296	1.0
81.311	2.0
81.326	5.0
81.341	6.0
81.356	4.0
81.371	2.0
81.386	3.0
81.401	2.0
81.416	2.0
81.431	2.0
81.446	3.0
81.461	2.0
81.476	7.0
81.491	1.0
81.506	7.0
81.521	3.0
81.536	3.0
81.55	4.0
81.565	3.0
81.58	2.0
81.595	6.0
81.61	4.0
81.625	5.0
81.64	5.0
81.655	7.0
81.67	1.0
81.685	1.0
81.7	7.0
81.715	4.0
81.73	6.0
81.745	4.0
81.76	5.0
81.775	9.0
81.79	3.0
81.805	7.0
81.819	5.0
81.834	2.0
81.849	2.0
81.864	5.0
81.879	5.0
81.894	3.0
81.909	3.0
81.924	3.0
81.939	3.0
81.954	5.0
81.969	3.0
81.984	4.0
81.999	3.0
82.013	4.0
82.028	0.0
82.043	3.0
82.058	0.0
82.073	6.0
82.088	3.0
82.103	1.0
82.118	4.0
82.133	1.0
82.148	2.0
82.163	1.0
82.177	5.0
82.192	1.0
82.207	3.0
82.222	0.0
82.237	4.0
82.252	5.0
82.267	4.0
82.282	3.0
82.297	5.0
82.312	5.0
82.326	5.0
82.341	3.0
82.356	6.0
82.371	2.0
82.386	3.0
82.401	1.0
82.416	4.0
82.431	3.0
82.445	4.0
82.46	3.0
82.475	2.0
82.49	4.0
82.505	4.0
82.52	3.0
82.535	4.0
82.55	8.0
82.565	4.0
82.579	5.0
82.594	4.0
82.609	4.0
82.624	4.0
82.639	1.0
82.654	5.0
82.669	3.0
82.684	5.0
82.698	4.0
82.713	6.0
82.728	2.0
82.743	3.0
82.758	3.0
82.773	1.0
82.788	5.0
82.803	2.0
82.817	2.0
82.832	2.0
82.847	3.0
82.862	4.0
82.877	1.0
82.892	3.0
82.907	4.0
82.922	4.0
82.937	7.0
82.951	2.0
82.966	2.0
82.981	2.0
82.996	3.0
83.011	4.0
83.026	6.0
83.041	2.0
83.056	6.0
83.07	1.0
83.085	2.0
83.1	4.0
83.115	5.0
83.13	4.0
83.145	4.0
83.16	1.0
83.175	3.0
83.19	2.0
83.204	3.0
83.219	2.0
83.234	3.0
83.249	1.0
83.264	5.0
83.279	5.0
83.294	2.0
83.309	5.0
83.324	4.0
83.339	3.0
83.353	2.0
83.368	1.0
83.383	3.0
83.398	3.0
83.413	2.0
83.428	2.0
83.443	4.0
83.458	4.0
83.473	0.0
83.488	2.0
83.503	5.0
83.517	5.0
83.532	3.0
83.547	4.0
83.562	2.0
83.577	8.0
83.592	5.0
83.607	6.0
83.622	5.0
83.637	3.0
83.652	1.0
83.667	5.0
83.682	3.0
83.697	4.0
83.712	1.0
83.727	5.0
83.741	4.0
83.756	5.0
83.771	3.0
83.786	2.0
83.801	4.0
83.816	3.0
83.831	10.0
83.846	3.0
83.861	3.0
83.876	1.0
83.891	2.0
83.906	1.0
83.921	4.0
83.936	1.0
83.951	5.0
83.966	3.0
83.981	3.0
83.996	3.0
84.011	1.0
84.026	4.0
84.041	3.0
84.056	4.0
84.071	5.0
84.086	6.0
84.101	2.0
84.116	2.0
84.131	0.0
84.146	5.0
84.161	6.0
84.176	3.0
84.191	2.0
84.206	2.0
84.221	3.0
84.236	2.0
84.251	3.0
84.266	4.0
84.281	2.0
84.296	5.0
84.311	3.0
84.326	8.0
84.341	8.0
84.356	9.0
84.371	5.0
84.386	5.0
84.401	5.0
84.416	6.0
84.431	3.0
84.446	5.0
84.461	2.0
84.476	5.0
84.492	4.0
84.507	4.0
84.522	2.0
84.537	3.0
84.552	5.0
84.567	3.0
84.582	7.0
84.597	2.0
84.612	0.0
84.627	2.0
84.642	2.0
84.657	2.0
84.672	2.0
84.687	2.0
84.702	7.0
84.717	7.0
84.733	1.0
84.748	2.0
84.763	1.0
84.778	3.0
84.793	3.0
84.808	5.0
84.823	1.0
84.838	4.0
84.853	4.0
84.868	1.0
84.883	4.0
84.898	4.0
84.913	3.0
84.929	7.0
84.944	7.0
84.959	4.0
84.974	4.0
84.989	6.0
85.004	7.0
85.019	1.0
85.034	3.0
85.049	1.0
85.064	6.0
85.079	6.0
85.094	1.0
85.11	4.0
85.125	3.0
85.14	2.0
85.155	3.0
85.17	2.0
85.185	1.0
85.2	4.0
85.215	2.0
85.23	4.0
85.245	7.0
85.26	5.0
85.276	5.0
85.291	2.0
85.306	5.0
85.321	1.0
85.336	3.0
85.351	2.0
85.366	3.0
85.381	5.0
85.396	2.0
85.411	3.0
85.426	2.0
85.441	7.0
85.457	2.0
85.472	2.0
85.487	1.0
85.502	2.0
85.517	4.0
85.532	5.0
85.547	3.0
85.562	3.0
85.577	2.0
85.592	1.0
85.607	1.0
85.622	7.0
85.637	5.0
85.653	2.0
85.668	3.0
85.683	3.0
85.698	3.0
85.713	2.0
85.728	5.0
85.743	1.0
85.758	1.0
85.773	2.0
85.788	5.0
85.803	2.0
85.818	2.0
85.833	4.0
85.848	2.0
85.863	5.0
85.879	3.0
85.894	1.0
85.909	3.0
85.924	3.0
85.939	5.0
85.954	1.0
85.969	2.0
85.984	2.0
85.999	2.0
86.014	4.0
86.029	2.0
86.044	6.0
86.059	1.0
86.074	6.0
86.089	3.0
86.104	5.0
86.119	2.0
86.134	3.0
86.149	4.0
86.164	5.0
86.179	4.0
86.194	7.0
86.209	6.0
86.224	4.0
86.239	4.0
86.254	0.0
86.269	6.0
86.284	1.0
86.299	2.0
86.314	1.0
86.33	3.0
86.345	3.0
86.36	0.0
86.375	3.0
86.39	4.0
86.405	7.0
86.42	3.0
86.435	3.0
86.45	1.0
86.465	4.0
86.48	1.0
86.495	3.0
86.51	2.0
86.525	2.0
86.54	2.0
86.555	2.0
86.57	3.0
86.585	4.0
86.6	3.0
86.615	6.0
86.63	1.0
86.645	1.0
86.659	4.0
86.674	2.0
86.689	1.0
86.704	1.0
86.719	6.0
86.734	4.0
86.749	5.0
86.764	4.0
86.779	5.0
86.794	6.0
86.809	4.0
86.824	0.0
86.839	4.0
86.854	4.0
86.869	4.0
86.884	9.0
86.899	5.0
86.914	2.0
86.929	4.0
86.944	8.0
86.959	2.0
86.974	5.0
86.989	5.0
87.004	3.0
87.019	6.0
87.034	5.0
87.049	3.0
87.064	7.0
87.079	2.0
87.094	1.0
87.109	1.0
87.124	3.0
87.139	5.0
87.154	2.0
87.169	3.0
87.184	6.0
87.199	3.0
87.214	5.0
87.229	2.0
87.244	5.0
87.259	4.0
87.274	2.0
87.289	0.0
87.304	3.0
87.319	3.0
87.334	1.0
87.349	2.0
87.364	2.0
87.379	7.0
87.394	1.0
87.409	5.0
87.424	7.0
87.438	3.0
87.453	4.0
87.468	3.0
87.483	1.0
87.498	1.0
87.513	3.0
87.528	7.0
87.543	4.0
87.558	2.0
87.573	5.0
87.588	4.0
87.603	2.0
87.618	5.0
87.633	4.0
87.648	3.0
87.663	3.0
87.678	2.0
87.693	5.0
87.708	4.0
87.723	6.0
87.738	9.0
87.753	4.0
87.768	9.0
87.783	5.0
87.798	1.0
87.813	2.0
87.828	4.0
87.843	1.0
87.858	4.0
87.873	6.0
87.888	4.0
87.903	2.0
87.918	5.0
87.933	5.0
87.948	3.0
87.963	7.0
87.978	1.0
87.993	2.0
88.008	1.0
88.023	4.0
88.038	1.0
88.053	2.0
88.068	3.0
88.083	5.0
88.098	2.0
88.113	3.0
88.128	2.0
88.143	1.0
88.158	5.0
88.174	4.0
88.189	2.0
88.204	3.0
88.219	4.0
88.234	6.0
88.249	5.0
88.264	3.0
88.279	3.0
88.294	2.0
88.309	6.0
88.324	3.0
88.339	4.0
88.354	6.0
88.369	2.0
88.384	5.0
88.399	3.0
88.414	3.0
88.429	6.0
88.444	5.0
88.459	3.0
88.474	4.0
88.489	2.0
88.504	1.0
88.519	2.0
88.534	5.0
88.549	9.0
88.564	4.0
88.58	4.0
88.595	5.0
88.61	2.0
88.625	5.0
88.64	2.0
88.655	3.0
88.67	2.0
88.685	1.0
88.7	5.0
88.715	3.0
88.73	3.0
88.745	4.0
88.76	2.0
88.775	3.0
88.79	2.0
88.805	2.0
88.82	2.0
88.835	8.0
88.85	2.0
88.865	2.0
88.88	4.0
88.895	5.0
88.911	4.0
88.926	0.0
88.941	3.0
88.956	3.0
88.971	2.0
88.986	1.0
89.001	2.0
89.016	0.0
89.031	1.0
89.046	4.0
89.061	3.0
89.076	4.0
89.091	2.0
89.106	3.0
89.121	1.0
89.136	2.0
89.151	2.0
89.166	3.0
89.181	2.0
89.196	5.0
89.211	3.0
89.227	3.0
89.242	3.0
89.257	2.0
89.272	6.0
89.287	2.0
89.302	1.0
89.317	4.0
89.332	1.0
89.347	1.0
89.362	1.0
89.377	5.0
89.392	5.0
89.407	5.0
89.422	0.0
89.437	2.0
89.452	1.0
89.467	1.0
89.482	5.0
89.497	6.0
89.512	6.0
89.527	3.0
89.542	2.0
89.557	1.0
89.572	4.0
89.587	1.0
89.602	1.0
89.617	6.0
89.632	7.0
89.647	3.0
89.662	2.0
89.677	3.0
89.693	1.0
89.708	4.0
89.723	3.0
89.738	3.0
89.753	5.0
89.768	6.0
89.783	5.0
89.798	3.0
89.813	2.0
89.828	1.0
89.843	2.0
89.858	4.0
89.873	2.0
89.888	5.0
89.903	4.0
89.918	4.0
89.933	4.0
89.948	2.0
89.963	6.0
89.978	6.0
89.993	2.0
90.008	5.0
90.023	4.0
90.038	2.0
90.053	2.0
90.068	2.0
90.083	5.0
90.097	3.0
90.112	3.0
90.127	3.0
90.142	4.0
90.157	1.0
90.172	7.0
90.187	4.0
90.202	1.0
90.217	3.0
90.232	3.0
90.247	4.0
90.262	6.0
90.277	3.0
90.292	4.0
90.307	2.0
90.322	4.0
90.337	2.0
90.352	2.0
90.367	8.0
90.382	2.0
90.397	6.0
90.412	3.0
90.427	4.0
90.442	2.0
90.457	4.0
90.472	3.0
90.487	3.0
90.501	4.0
90.516	6.0
90.531	2.0
90.546	5.0
90.561	6.0
90.576	0.0
90.591	7.0
90.606	2.0
90.621	2.0
90.636	2.0
90.651	3.0
90.666	1.0
90.681	2.0
90.696	4.0
90.711	5.0
90.726	0.0
90.741	2.0
90.755	3.0
90.77	4.0
90.785	2.0
90.8	6.0
90.815	1.0
90.83	3.0
90.845	2.0
90.86	4.0
90.875	2.0
90.89	1.0
90.905	4.0
90.92	3.0
90.935	5.0
90.95	9.0
90.965	3.0
90.979	1.0
90.994	4.0
91.009	5.0
91.024	4.0
91.039	1.0
91.054	2.0
91.069	3.0
91.084	0.0
91.099	2.0
91.114	3.0
91.129	3.0
91.144	2.0
91.159	1.0
91.174	3.0
91.188	4.0
91.203	4.0
91.218	1.0
91.233	5.0
91.248	4.0
91.263	1.0
91.278	4.0
91.293	0.0
91.308	3.0
91.323	5.0
91.338	6.0
91.353	2.0
91.368	4.0
91.383	4.0
91.398	2.0
91.412	4.0
91.427	3.0
91.442	5.0
91.457	2.0
91.472	3.0
91.487	2.0
91.502	5.0
91.517	6.0
91.532	1.0
91.547	4.0
91.562	5.0
91.577	5.0
91.592	1.0
91.607	2.0
91.622	3.0
91.637	3.0
91.652	1.0
91.666	2.0
91.681	3.0
91.696	5.0
91.711	3.0
91.726	2.0
91.741	4.0
91.756	2.0
91.771	3.0
91.786	6.0
91.801	3.0
91.816	7.0
91.831	1.0
91.846	2.0
91.861	1.0
91.876	4.0
91.891	2.0
91.906	1.0
91.921	4.0
91.936	4.0
91.951	5.0
91.966	2.0
91.981	2.0
91.995	3.0
92.01	1.0
92.025	3.0
92.04	3.0
92.055	5.0
92.07	3.0
92.085	4.0
92.1	2.0
92.115	1.0
92.13	6.0
92.145	5.0
92.16	3.0
92.175	1.0
92.19	1.0
92.205	2.0
92.22	3.0
92.235	3.0
92.25	2.0
92.265	4.0
92.28	2.0
92.295	3.0
92.31	4.0
92.325	4.0
92.34	3.0
92.355	3.0
92.37	3.0
92.385	2.0
92.4	3.0
92.415	3.0
92.43	3.0
92.445	3.0
92.46	1.0
92.475	2.0
92.49	1.0
92.505	2.0
92.52	6.0
92.535	3.0
92.55	2.0
92.565	1.0
92.58	5.0
92.595	1.0
92.61	2.0
92.625	6.0
92.64	2.0
92.655	1.0
92.67	3.0
92.685	4.0
92.7	1.0
92.715	3.0
92.73	3.0
92.745	2.0
92.76	5.0
92.775	4.0
92.79	0.0
92.805	6.0
92.82	4.0
92.835	3.0
92.85	4.0
92.865	0.0
92.88	5.0
92.895	1.0
92.91	3.0
92.925	3.0
92.94	2.0
92.955	3.0
92.97	3.0
92.985	1.0
93.0	3.0
93.015	2.0
93.03	6.0
93.045	2.0
93.06	3.0
93.075	5.0
93.09	5.0
93.105	2.0
93.12	5.0
93.135	7.0
93.15	3.0
93.165	2.0
93.18	2.0
93.195	1.0
93.21	1.0
93.225	2.0
93.24	3.0
93.255	3.0
93.27	3.0
93.285	4.0
93.3	4.0
93.315	3.0
93.33	3.0
93.345	3.0
93.36	2.0
93.375	5.0
93.39	5.0
93.405	0.0
93.42	5.0
93.435	5.0
93.45	4.0
93.465	3.0
93.48	1.0
93.495	5.0
93.51	3.0
93.525	3.0
93.54	4.0
93.555	1.0
93.57	1.0
93.585	5.0
93.6	4.0
93.615	1.0
93.63	6.0
93.645	4.0
93.66	2.0
93.675	6.0
93.69	2.0
93.705	2.0
93.72	1.0
93.735	0.0
93.75	0.0
93.765	7.0
93.78	2.0
93.795	3.0
93.81	3.0
93.824	0.0
93.839	1.0
93.854	8.0
93.869	0.0
93.884	3.0
93.899	6.0
93.914	0.0
93.929	2.0
93.944	4.0
93.959	3.0
93.974	3.0
93.989	3.0
94.004	6.0
94.019	3.0
94.034	2.0
94.049	3.0
94.064	1.0
94.079	4.0
94.094	0.0
94.108	3.0
94.123	3.0
94.138	6.0
94.153	1.0
94.168	4.0
94.183	3.0
94.198	5.0
94.213	4.0
94.228	3.0
94.243	2.0
94.258	3.0
94.273	1.0
94.288	5.0
94.302	4.0
94.317	5.0
94.332	7.0
94.347	4.0
94.362	3.0
94.377	3.0
94.392	8.0
94.407	7.0
94.422	6.0
94.437	5.0
94.452	10.0
94.466	4.0
94.481	4.0
94.496	4.0
94.511	2.0
94.526	3.0
94.541	1.0
94.556	1.0
94.571	3.0
94.586	7.0
94.601	0.0
94.615	6.0
94.63	3.0
94.645	2.0
94.66	2.0
94.675	4.0
94.69	6.0
94.705	1.0
94.72	3.0
94.735	5.0
94.749	5.0
94.764	3.0
94.779	7.0
94.794	5.0
94.809	3.0
94.824	3.0
94.839	3.0
94.854	4.0
94.868	5.0
94.883	4.0
94.898	4.0
94.913	1.0
94.928	5.0
94.943	4.0
94.958	5.0
94.973	1.0
94.987	2.0
95.002	3.0
95.017	3.0
95.032	5.0
95.047	2.0
95.062	4.0
95.077	1.0
95.092	1.0
95.106	4.0
95.121	6.0
95.136	1.0
95.151	5.0
95.166	1.0
95.181	3.0
95.196	6.0
95.211	2.0
95.226	5.0
95.24	1.0
95.255	2.0
95.27	5.0
95.285	2.0
95.3	1.0
95.315	2.0
95.33	2.0
95.345	4.0
95.359	2.0
95.374	5.0
95.389	5.0
95.404	5.0
95.419	4.0
95.434	7.0
95.449	3.0
95.464	1.0
95.478	2.0
95.493	0.0
95.508	1.0
95.523	4.0
95.538	7.0
95.553	5.0
95.568	3.0
95.583	2.0
95.597	0.0
95.612	5.0
95.627	4.0
95.642	3.0
95.657	4.0
95.672	2.0
95.687	1.0
95.702	3.0
95.717	3.0
95.731	4.0
95.746	4.0
95.761	3.0
95.776	1.0
95.791	3.0
95.806	7.0
95.821	0.0
95.836	0.0
95.851	5.0
95.866	1.0
95.88	2.0
95.895	2.0
95.91	1.0
95.925	1.0
95.94	3.0
95.955	2.0
95.97	0.0
95.985	4.0
96.0	2.0
96.015	4.0
96.029	2.0
96.044	3.0
96.059	6.0
96.074	6.0
96.089	5.0
96.104	3.0
96.119	7.0
96.134	2.0
96.149	2.0
96.164	3.0
96.179	3.0
96.194	2.0
96.208	3.0
96.223	2.0
96.238	5.0
96.253	0.0
96.268	6.0
96.283	2.0
96.298	3.0
96.313	5.0
96.328	3.0
96.343	3.0
96.358	4.0
96.373	3.0
96.388	4.0
96.403	2.0
96.417	6.0
96.432	2.0
96.447	5.0
96.462	3.0
96.477	5.0
96.492	7.0
96.507	4.0
96.522	3.0
96.537	2.0
96.552	3.0
96.567	2.0
96.582	1.0
96.597	4.0
96.612	5.0
96.627	2.0
96.642	2.0
96.656	4.0
96.671	4.0
96.686	6.0
96.701	8.0
96.716	1.0
96.731	4.0
96.746	3.0
96.761	3.0
96.776	3.0
96.791	6.0
96.806	4.0
96.821	6.0
96.836	5.0
96.851	5.0
96.866	2.0
96.881	3.0
96.896	4.0
96.911	8.0
96.926	4.0
96.94	3.0
96.955	11.0
96.97	4.0
96.985	3.0
97.0	4.0
97.015	6.0
97.03	2.0
97.045	6.0
97.06	4.0
97.075	6.0
97.09	1.0
97.105	0.0
97.12	3.0
97.135	3.0
97.15	1.0
97.165	2.0
97.18	9.0
97.195	4.0
97.21	2.0
97.225	3.0
97.239	3.0
97.254	0.0
97.269	1.0
97.284	2.0
97.299	3.0
97.314	5.0
97.329	1.0
97.344	1.0
97.359	1.0
97.374	6.0
97.389	4.0
97.404	3.0
97.419	2.0
97.434	6.0
97.449	2.0
97.464	5.0
97.479	2.0
97.494	4.0
97.509	4.0
97.524	4.0
97.538	3.0
97.553	2.0
97.568	0.0
97.583	5.0
97.598	2.0
97.613	1.0
97.628	5.0
97.643	7.0
97.658	3.0
97.673	8.0
97.688	3.0
97.703	4.0
97.718	8.0
97.733	4.0
97.748	4.0
97.763	5.0
97.778	6.0
97.792	2.0
97.807	7.0
97.822	4.0
97.837	5.0
97.852	3.0
97.867	5.0
97.882	1.0
97.897	5.0
97.912	3.0
97.927	2.0
97.942	0.0
97.957	8.0
97.972	0.0
97.987	4.0
98.001	1.0
98.016	5.0
98.031	3.0
98.046	3.0
98.061	2.0
98.076	3.0
98.091	3.0
98.106	2.0
98.121	1.0
98.136	4.0
98.151	4.0
98.166	0.0
98.181	0.0
98.195	2.0
98.21	4.0
98.225	2.0
98.24	1.0
98.255	2.0
98.27	2.0
98.285	2.0
98.3	1.0
98.315	5.0
98.33	3.0
98.345	6.0
98.359	2.0
98.374	0.0
98.389	6.0
98.404	1.0
98.419	4.0
98.434	6.0
98.449	4.0
98.464	3.0
98.479	1.0
98.494	2.0
98.508	2.0
98.523	4.0
98.538	5.0
98.553	2.0
98.568	3.0
98.583	5.0
98.598	3.0
98.613	5.0
98.628	5.0
98.642	3.0
98.657	4.0
98.672	1.0
98.687	1.0
98.702	5.0
98.717	5.0
98.732	1.0
98.747	5.0
98.762	4.0
98.776	3.0
98.791	2.0
98.806	6.0
98.821	3.0
98.836	2.0
98.851	4.0
98.866	3.0
98.881	0.0
98.896	2.0
98.91	1.0
98.925	3.0
98.94	4.0
98.955	6.0
98.97	3.0
98.985	2.0
99.0	2.0
99.015	2.0
99.029	2.0
99.044	1.0
99.059	4.0
99.074	2.0
99.089	4.0
99.104	4.0
99.119	3.0
99.133	2.0
99.148	4.0
99.163	1.0
99.178	1.0
99.193	4.0
99.208	3.0
99.223	0.0
99.238	6.0
99.252	5.0
99.267	7.0
99.282	2.0
99.297	2.0
99.312	2.0
99.327	5.0
99.342	5.0
99.356	1.0
99.371	4.0
99.386	4.0
99.401	3.0
99.416	4.0
99.431	2.0
99.446	5.0
99.461	2.0
99.475	3.0
99.49	1.0
99.505	5.0
99.52	2.0
99.535	3.0
99.55	5.0
99.565	2.0
99.579	3.0
99.594	2.0
99.609	6.0
99.624	2.0
99.639	5.0
99.654	4.0
99.669	3.0
99.683	1.0
99.698	3.0
99.713	5.0
99.728	4.0
99.743	1.0
99.758	2.0
99.772	4.0
99.787	3.0
99.802	6.0
99.817	5.0
99.832	3.0
99.847	2.0
99.862	3.0
99.876	2.0
99.891	3.0
99.906	2.0
99.921	2.0
99.936	2.0
99.951	3.0
99.966	1.0
99.98	6.0
99.995	2.0
100.01	1.0
100.025	7.0
100.04	4.0
100.055	3.0
100.069	5.0
100.084	3.0
100.099	3.0
100.114	3.0
100.129	3.0
100.144	5.0
100.159	3.0
100.173	1.0
100.188	3.0
100.203	1.0
100.218	6.0
100.233	4.0
100.248	2.0
100.262	4.0
100.277	2.0
100.292	3.0
100.307	2.0
100.322	6.0
100.337	2.0
100.351	4.0
100.366	2.0
100.381	4.0
100.396	6.0
100.411	1.0
100.426	3.0
100.441	2.0
100.455	2.0
100.47	3.0
100.485	5.0
100.5	5.0
100.515	2.0
100.53	3.0
100.544	3.0
100.559	2.0
100.574	3.0
100.589	4.0
100.604	1.0
100.619	2.0
100.633	3.0
100.648	1.0
100.663	4.0
100.678	1.0
100.693	1.0
100.708	7.0
100.722	6.0
100.737	3.0
100.752	4.0
100.767	3.0
100.782	2.0
100.796	4.0
100.811	2.0
100.826	6.0
100.841	6.0
100.856	1.0
100.871	6.0
100.885	4.0
100.9	3.0
100.915	3.0
100.93	6.0
100.945	3.0
100.96	6.0
100.974	1.0
100.989	5.0
101.004	1.0
101.019	2.0
101.034	1.0
101.048	3.0
101.063	9.0
101.078	6.0
101.093	0.0
101.108	5.0
101.123	2.0
101.137	7.0
101.152	3.0
101.167	4.0
101.182	5.0
101.197	0.0
101.211	5.0
101.226	6.0
101.241	3.0
101.256	4.0
101.271	2.0
101.285	3.0
101.3	3.0
101.315	4.0
101.33	3.0
101.345	3.0
101.359	2.0
101.374	1.0
101.389	3.0
101.404	2.0
101.419	1.0
101.433	5.0
101.448	5.0
101.463	0.0
101.478	3.0
101.493	2.0
101.507	1.0
101.522	2.0
101.537	6.0
101.552	4.0
101.567	4.0
101.581	6.0
101.596	2.0
101.611	2.0
101.626	2.0
101.64	2.0
101.655	1.0
101.67	3.0
101.685	3.0
101.7	0.0
101.714	0.0
101.729	7.0
101.744	2.0
101.759	6.0
101.773	3.0
101.788	1.0
101.803	4.0
101.818	3.0
101.833	11.0
101.847	3.0
101.862	3.0
101.877	9.0
101.892	4.0
101.906	2.0
101.921	4.0
101.936	6.0
101.951	3.0
101.965	8.0
101.98	4.0
101.995	3.0
102.01	3.0
102.025	5.0
102.039	6.0
102.054	2.0
102.069	2.0
102.084	7.0
102.098	4.0
102.113	4.0
102.128	4.0
102.143	4.0
102.157	6.0
102.172	3.0
102.187	2.0
102.202	10.0
102.216	1.0
102.231	1.0
102.246	6.0
102.261	3.0
102.275	7.0
102.29	1.0
102.305	4.0
102.32	0.0
102.334	5.0
102.349	4.0
102.364	1.0
102.378	1.0
102.393	4.0
102.408	2.0
102.423	4.0
102.437	2.0
102.452	1.0
102.467	3.0
102.482	5.0
102.496	1.0
102.511	2.0
102.526	2.0
102.541	5.0
102.555	3.0
102.57	2.0
102.585	2.0
102.6	1.0
102.614	5.0
102.629	3.0
102.644	1.0
102.659	2.0
102.673	0.0
102.688	1.0
102.703	3.0
102.717	0.0
102.732	2.0
102.747	9.0
102.762	6.0
102.776	6.0
102.791	3.0
102.806	3.0
102.821	1.0
102.835	5.0
102.85	4.0
102.865	1.0
102.88	6.0
102.894	3.0
102.909	5.0
102.924	4.0
102.938	2.0
102.953	2.0
102.968	6.0
102.983	5.0
102.997	3.0
103.012	1.0
103.027	0.0
103.042	5.0
103.056	6.0
103.071	3.0
103.086	2.0
103.101	2.0
103.115	4.0
103.13	3.0
103.145	9.0
103.16	5.0
103.174	2.0
103.189	4.0
103.204	1.0
103.219	4.0
103.233	2.0
103.248	3.0
103.263	4.0
103.278	1.0
103.292	2.0
103.307	6.0
103.322	6.0
103.337	1.0
103.351	5.0
103.366	3.0
103.381	6.0
103.396	2.0
103.41	2.0
103.425	2.0
103.44	2.0
103.455	3.0
103.469	8.0
103.484	2.0
103.499	4.0
103.514	6.0
103.529	4.0
103.543	3.0
103.558	4.0
103.573	5.0
103.588	2.0
103.602	5.0
103.617	2.0
103.632	4.0
103.647	3.0
103.661	5.0
103.676	5.0
103.691	4.0
103.706	4.0
103.721	1.0
103.735	0.0
103.75	8.0
103.765	3.0
103.78	3.0
103.795	3.0
103.809	2.0
103.824	1.0
103.839	3.0
103.854	3.0
103.869	2.0
103.883	4.0
103.898	1.0
103.913	3.0
103.928	2.0
103.943	4.0
103.957	1.0
103.972	3.0
103.987	1.0
104.002	4.0
104.017	6.0
104.031	4.0
104.046	3.0
104.061	5.0
104.076	4.0
104.091	2.0
104.106	5.0
104.12	3.0
104.135	5.0
104.15	5.0
104.165	6.0
104.18	3.0
104.195	3.0
104.209	4.0
104.224	3.0
104.239	1.0
104.254	7.0
104.269	2.0
104.284	2.0
104.299	2.0
104.313	5.0
104.328	6.0
104.343	1.0
104.358	2.0
104.373	1.0
104.388	2.0
104.403	3.0
104.417	4.0
104.432	4.0
104.447	4.0
104.462	3.0
104.477	0.0
104.492	2.0
104.507	4.0
104.522	3.0
104.536	6.0
104.551	1.0
104.566	12.0
104.581	8.0
104.596	6.0
104.611	3.0
104.626	5.0
104.641	5.0
104.656	1.0
104.67	3.0
104.685	6.0
104.7	1.0
104.715	3.0
104.73	7.0
104.745	6.0
104.76	2.0
104.775	1.0
104.79	2.0
104.804	4.0
104.819	2.0
104.834	2.0
104.849	3.0
104.864	3.0
104.879	3.0
104.894	2.0
104.909	3.0
104.924	4.0
104.939	1.0
104.954	3.0
104.968	4.0
104.983	2.0
104.998	3.0
105.013	2.0
105.028	7.0
105.043	5.0
105.058	2.0
105.073	2.0
105.088	5.0
105.103	5.0
105.118	2.0
105.133	0.0
105.147	1.0
105.162	2.0
105.177	1.0
105.192	8.0
105.207	5.0
105.222	3.0
105.237	4.0
105.252	1.0
105.267	2.0
105.282	1.0
105.297	4.0
105.312	1.0
105.327	4.0
105.342	2.0
105.356	3.0
105.371	6.0
105.386	2.0
105.401	3.0
105.416	3.0
105.431	4.0
105.446	5.0
105.461	1.0
105.476	5.0
105.491	3.0
105.506	3.0
105.521	6.0
105.536	2.0
105.551	5.0
105.566	3.0
105.581	1.0
105.595	4.0
105.61	2.0
105.625	2.0
105.64	2.0
105.655	4.0
105.67	2.0
105.685	2.0
105.7	4.0
105.715	2.0
105.73	1.0
105.745	3.0
105.76	1.0
105.775	3.0
105.79	1.0
105.805	2.0
105.82	2.0
105.835	3.0
105.85	4.0
105.864	4.0
105.879	2.0
105.894	5.0
105.909	0.0
105.924	4.0
105.939	4.0
105.954	4.0
105.969	3.0
105.984	5.0
105.999	4.0
106.014	2.0
106.029	3.0
106.044	1.0
106.059	0.0
106.074	0.0
106.089	2.0
106.104	4.0
106.119	6.0
106.134	1.0
106.148	6.0
106.163	1.0
106.178	2.0
106.193	6.0
106.208	3.0
106.223	6.0
106.238	2.0
106.253	4.0
106.268	5.0
106.283	3.0
106.298	3.0
106.313	2.0
106.328	1.0
106.343	4.0
106.358	2.0
106.373	5.0
106.388	8.0
106.403	2.0
106.418	1.0
106.432	0.0
106.447	4.0
106.462	1.0
106.477	2.0
106.492	2.0
106.507	3.0
106.522	2.0
106.537	1.0
106.552	0.0
106.567	4.0
106.582	5.0
106.597	3.0
106.612	5.0
106.627	7.0
106.642	2.0
106.657	4.0
106.672	3.0
106.687	4.0
106.701	3.0
106.716	3.0
106.731	1.0
106.746	4.0
106.761	8.0
106.776	6.0
106.791	1.0
106.806	3.0
106.821	3.0
106.836	2.0
106.851	4.0
106.866	2.0
106.881	6.0
106.896	3.0
106.911	2.0
106.926	6.0
106.941	3.0
106.955	2.0
106.97	3.0
106.985	1.0
107.0	5.0
107.015	7.0
107.03	1.0
107.045	4.0
107.06	4.0
107.075	2.0
107.09	4.0
107.105	2.0
107.12	6.0
107.135	4.0
107.15	6.0
107.165	1.0
107.18	4.0
107.194	2.0
107.209	4.0
107.224	8.0
107.239	4.0
107.254	4.0
107.269	4.0
107.284	6.0
107.299	4.0
107.314	4.0
107.329	1.0
107.344	5.0
107.359	5.0
107.374	4.0
107.389	2.0
107.404	2.0
107.418	2.0
107.433	2.0
107.448	1.0
107.463	3.0
107.478	3.0
107.493	5.0
107.508	1.0
107.523	4.0
107.538	2.0
107.553	4.0
107.568	2.0
107.583	2.0
107.598	2.0
107.613	6.0
107.627	1.0
107.642	6.0
107.657	4.0
107.672	6.0
107.687	7.0
107.702	4.0
107.717	2.0
107.732	7.0
107.747	2.0
107.762	7.0
107.777	1.0
107.792	4.0
107.807	3.0
107.821	0.0
107.836	2.0
107.851	6.0
107.866	1.0
107.881	3.0
107.896	3.0
107.911	1.0
107.926	3.0
107.941	2.0
107.956	4.0
107.971	4.0
107.986	1.0
108.0	2.0
108.015	0.0
108.03	9.0
108.045	1.0
108.06	3.0
108.075	2.0
108.09	11.0
108.105	4.0
108.12	4.0
108.135	2.0
108.15	7.0
108.164	3.0
108.179	7.0
108.194	5.0
108.209	4.0
108.224	4.0
108.239	3.0
108.254	1.0
108.269	1.0
108.284	5.0
108.299	2.0
108.313	1.0
108.328	4.0
108.343	2.0
108.358	6.0
108.373	2.0
108.388	3.0
108.403	6.0
108.418	3.0
108.433	2.0
108.448	0.0
108.462	5.0
108.477	1.0
108.492	3.0
108.507	4.0
108.522	5.0
108.537	3.0
108.552	2.0
108.567	2.0
108.582	3.0
108.597	1.0
108.611	2.0
108.626	1.0
108.641	3.0
108.656	0.0
108.671	2.0
108.686	3.0
108.701	3.0
108.716	2.0
108.731	5.0
108.745	3.0
108.76	4.0
108.775	4.0
108.79	4.0
108.805	1.0
108.82	8.0
108.835	5.0
108.85	1.0
108.865	0.0
108.879	1.0
108.894	5.0
108.909	5.0
108.924	5.0
108.939	7.0
108.954	5.0
108.969	7.0
108.984	5.0
108.999	3.0
109.013	5.0
109.028	5.0
109.043	2.0
109.058	5.0
109.073	6.0
109.088	7.0
109.103	1.0
109.118	3.0
109.133	1.0
109.147	5.0
109.162	3.0
109.177	2.0
109.192	3.0
109.207	6.0
109.222	0.0
109.237	6.0
109.252	5.0
109.267	3.0
109.281	2.0
109.296	1.0
109.311	5.0
109.326	2.0
109.341	1.0
109.356	3.0
109.371	9.0
109.386	2.0
109.4	1.0
109.415	5.0
109.43	4.0
109.445	3.0
109.46	4.0
109.475	4.0
109.49	1.0
109.505	6.0
109.52	2.0
109.534	2.0
109.549	4.0
109.564	6.0
109.579	2.0
109.594	1.0
109.609	2.0
109.624	4.0
109.639	5.0
109.653	1.0
109.668	2.0
109.683	2.0
109.698	0.0
109.713	5.0
109.728	3.0
109.743	2.0
109.758	4.0
109.773	1.0
109.787	4.0
109.802	0.0
109.817	0.0
109.832	3.0
109.847	3.0
109.862	5.0
109.877	1.0
109.892	3.0
109.907	3.0
109.921	2.0
109.936	1.0
109.951	5.0
109.966	3.0
109.981	2.0
109.996	2.0
110.011	5.0
110.026	2.0
110.04	3.0
110.055	2.0
110.07	2.0
110.085	1.0
110.1	1.0
110.115	5.0
110.13	3.0
110.145	3.0
110.16	4.0
110.174	3.0
110.189	3.0
110.204	4.0
110.219	1.0
110.234	1.0
110.249	5.0
110.264	4.0
110.279	4.0
110.294	6.0
110.308	5.0
110.323	4.0
110.338	3.0
110.353	6.0
110.368	2.0
110.383	2.0
110.398	3.0
110.413	1.0
110.428	6.0
110.442	2.0
110.457	3.0
110.472	0.0
110.487	1.0
110.502	2.0
110.517	3.0
110.532	6.0
110.547	1.0
110.561	1.0
110.576	1.0
110.591	4.0
110.606	5.0
110.621	5.0
110.636	5.0
110.651	4.0
110.666	3.0
110.681	1.0
110.695	1.0
110.71	3.0
110.725	2.0
110.74	5.0
110.755	1.0
110.77	7.0
110.785	5.0
110.8	5.0
110.815	4.0
110.829	6.0
110.844	3.0
110.859	4.0
110.874	6.0
110.889	3.0
110.904	4.0
110.919	3.0
110.934	5.0
110.948	8.0
110.963	5.0
110.978	3.0
110.993	3.0
111.008	1.0
111.023	4.0
111.038	3.0
111.053	7.0
111.067	7.0
111.082	6.0
111.097	7.0
111.112	6.0
111.127	1.0
111.142	3.0
111.157	4.0
111.172	5.0
111.186	5.0
111.201	2.0
111.216	3.0
111.231	1.0
111.246	4.0
111.261	4.0
111.276	4.0
111.291	5.0
111.305	6.0
111.32	1.0
111.335	3.0
111.35	4.0
111.365	7.0
111.38	3.0
111.395	5.0
111.41	7.0
111.424	3.0
111.439	3.0
111.454	1.0
111.469	4.0
111.484	2.0
111.499	0.0
111.514	5.0
111.528	5.0
111.543	2.0
111.558	2.0
111.573	6.0
111.588	6.0
111.603	5.0
111.618	1.0
111.633	4.0
111.647	3.0
111.662	4.0
111.677	4.0
111.692	2.0
111.707	0.0
111.722	3.0
111.737	2.0
111.751	4.0
111.766	3.0
111.781	1.0
111.796	0.0
111.811	4.0
111.826	7.0
111.84	1.0
111.855	0.0
111.87	4.0
111.885	6.0
111.9	3.0
111.915	3.0
111.93	5.0
111.944	3.0
111.959	4.0
111.974	2.0
111.989	4.0
112.004	7.0
112.019	4.0
112.033	4.0
112.048	4.0
112.063	2.0
112.078	3.0
112.093	4.0
112.108	6.0
112.123	8.0
112.137	3.0
112.152	6.0
112.167	5.0
112.182	6.0
112.197	4.0
112.212	2.0
112.226	3.0
112.241	5.0
112.256	3.0
112.271	6.0
112.286	1.0
112.301	3.0
112.315	2.0
112.33	8.0
112.345	0.0
112.36	3.0
112.375	3.0
112.389	2.0
112.404	3.0
112.419	3.0
112.434	3.0
112.449	5.0
112.464	6.0
112.478	2.0
112.493	1.0
112.508	3.0
112.523	2.0
112.538	5.0
112.553	6.0
112.567	2.0
112.582	2.0
112.597	2.0
112.612	1.0
112.627	5.0
112.642	7.0
112.656	3.0
112.671	4.0
112.686	7.0
112.701	3.0
112.716	6.0
112.73	3.0
112.745	9.0
112.76	4.0
112.775	4.0
112.79	2.0
112.805	3.0
112.819	5.0
112.834	3.0
112.849	2.0
112.864	4.0
112.879	7.0
112.894	3.0
112.908	6.0
112.923	2.0
112.938	3.0
112.953	6.0
112.968	2.0
112.983	2.0
112.997	2.0
113.012	1.0
113.027	6.0
113.042	2.0
113.057	3.0
113.072	1.0
113.086	5.0
113.101	3.0
113.116	5.0
113.131	2.0
113.146	5.0
113.161	4.0
113.175	2.0
113.19	3.0
113.205	6.0
113.22	1.0
113.235	3.0
113.25	0.0
113.265	1.0
113.279	2.0
113.294	2.0
113.309	3.0
113.324	7.0
113.339	2.0
113.354	4.0
113.368	2.0
113.383	7.0
113.398	6.0
113.413	2.0
113.428	5.0
113.443	5.0
113.458	5.0
113.472	3.0
113.487	1.0
113.502	2.0
113.517	5.0
113.532	7.0
113.547	5.0
113.562	8.0
113.576	3.0
113.591	5.0
113.606	2.0
113.621	3.0
113.636	6.0
113.651	3.0
113.666	4.0
113.681	1.0
113.695	4.0
113.71	4.0
113.725	3.0
113.74	2.0
113.755	1.0
113.77	6.0
113.785	3.0
113.8	3.0
113.814	0.0
113.829	3.0
113.844	3.0
113.859	0.0
113.874	1.0
113.889	2.0
113.904	5.0
113.919	2.0
113.934	3.0
113.949	3.0
113.963	2.0
113.978	2.0
113.993	2.0
114.008	3.0
114.023	2.0
114.038	3.0
114.053	3.0
114.068	2.0
114.083	3.0
114.098	1.0
114.113	6.0
114.127	3.0
114.142	2.0
114.157	2.0
114.172	2.0
114.187	1.0
114.202	2.0
114.217	1.0
114.232	2.0
114.247	4.0
114.262	0.0
114.277	6.0
114.292	2.0
114.307	6.0
114.322	4.0
114.337	2.0
114.351	3.0
114.366	7.0
114.381	8.0
114.396	6.0
114.411	2.0
114.426	4.0
114.441	4.0
114.456	2.0
114.471	6.0
114.486	3.0
114.501	3.0
114.516	4.0
114.531	3.0
114.546	5.0
114.561	3.0
114.576	4.0
114.591	4.0
114.606	5.0
114.621	6.0
114.636	1.0
114.65	0.0
114.665	6.0
114.68	3.0
114.695	10.0
114.71	6.0
114.725	4.0
114.74	5.0
114.755	5.0
114.77	5.0
114.785	7.0
114.8	3.0
114.815	2.0
114.83	6.0
114.845	5.0
114.86	4.0
114.875	5.0
114.89	3.0
114.905	3.0
114.92	2.0
114.935	5.0
114.95	5.0
114.965	4.0
114.98	3.0
114.995	3.0
115.009	4.0
115.024	1.0
115.039	6.0
115.054	0.0
115.069	1.0
115.084	6.0
115.099	4.0
115.114	3.0
115.129	3.0
115.144	6.0
115.159	4.0
115.174	4.0
115.189	4.0
115.204	6.0
115.219	6.0
115.234	4.0
115.249	6.0
115.264	3.0
115.279	4.0
115.294	5.0
115.309	2.0
115.323	3.0
115.338	4.0
115.353	3.0
115.368	3.0
115.383	2.0
115.398	5.0
115.413	3.0
115.428	6.0
115.443	4.0
115.458	5.0
115.473	1.0
115.488	4.0
115.503	3.0
115.518	0.0
115.533	2.0
115.548	2.0
115.562	7.0
115.577	6.0
115.592	5.0
115.607	6.0
115.622	5.0
115.637	2.0
115.652	5.0
115.667	5.0
115.682	3.0
115.697	0.0
115.712	3.0
115.727	5.0
115.741	6.0
115.756	5.0
115.771	4.0
115.786	4.0
115.801	4.0
115.816	1.0
115.831	1.0
115.846	1.0
115.861	1.0
115.875	1.0
115.89	7.0
115.905	3.0
115.92	5.0
115.935	2.0
115.95	2.0
115.965	2.0
115.98	7.0
115.995	4.0
116.009	4.0
116.024	4.0
116.039	1.0
116.054	4.0
116.069	2.0
116.084	6.0
116.099	1.0
116.113	5.0
116.128	5.0
116.143	6.0
116.158	4.0
116.173	2.0
116.188	4.0
116.202	3.0
116.217	7.0
116.232	5.0
116.247	8.0
116.262	3.0
116.277	2.0
116.291	3.0
116.306	5.0
116.321	3.0
116.336	2.0
116.351	7.0
116.366	8.0
116.38	5.0
116.395	1.0
116.41	4.0
116.425	2.0
116.44	5.0
116.454	7.0
116.469	3.0
116.484	4.0
116.499	1.0
116.514	2.0
116.528	6.0
116.543	3.0
116.558	4.0
116.573	4.0
116.588	3.0
116.602	6.0
116.617	5.0
116.632	4.0
116.647	3.0
116.662	3.0
116.676	8.0
116.691	5.0
116.706	3.0
116.721	3.0
116.735	3.0
116.75	4.0
116.765	6.0
116.78	2.0
116.795	1.0
116.809	5.0
116.824	1.0
116.839	2.0
116.854	3.0
116.868	4.0
116.883	5.0
116.898	4.0
116.913	7.0
116.927	3.0
116.942	0.0
116.957	4.0
116.972	8.0
116.986	3.0
117.001	3.0
117.016	6.0
117.031	6.0
117.045	1.0
117.06	3.0
117.075	7.0
117.09	3.0
117.104	1.0
117.119	4.0
117.134	3.0
117.149	4.0
117.163	6.0
117.178	2.0
117.193	6.0
117.208	3.0
117.222	3.0
117.237	4.0
117.252	3.0
117.267	3.0
117.281	5.0
117.296	5.0
117.311	3.0
117.325	1.0
117.34	2.0
117.355	5.0
117.37	2.0
117.384	1.0
117.399	6.0
117.414	2.0
117.429	3.0
117.443	4.0
117.458	6.0
117.473	6.0
117.487	3.0
117.502	2.0
117.517	4.0
117.532	3.0
117.546	2.0
117.561	2.0
117.576	5.0
117.59	5.0
117.605	5.0
117.62	0.0
117.635	5.0
117.649	5.0
117.664	1.0
117.679	1.0
117.693	1.0
117.708	3.0
117.723	3.0
117.738	8.0
117.752	5.0
117.767	6.0
117.782	6.0
117.796	2.0
117.811	5.0
117.826	4.0
117.841	4.0
117.855	6.0
117.87	4.0
117.885	3.0
117.899	4.0
117.914	5.0
117.929	5.0
117.944	2.0
117.958	3.0
117.973	5.0
117.988	3.0
118.002	2.0
118.017	4.0
118.032	4.0
118.047	6.0
118.062	7.0
118.077	8.0
118.092	6.0
118.107	2.0
118.121	8.0
118.136	2.0
118.151	1.0
118.166	5.0
118.181	4.0
118.196	2.0
118.211	3.0
118.225	3.0
118.24	3.0
118.255	3.0
118.27	3.0
118.285	3.0
118.3	3.0
118.315	4.0
118.33	2.0
118.344	3.0
118.359	3.0
118.374	1.0
118.389	5.0
118.404	6.0
118.419	6.0
118.434	4.0
118.449	3.0
118.463	5.0
118.478	5.0
118.493	6.0
118.508	3.0
118.523	4.0
118.538	2.0
118.553	3.0
118.567	6.0
118.582	3.0
118.597	4.0
118.612	5.0
118.627	0.0
118.642	1.0
118.657	5.0
118.672	4.0
118.686	3.0
118.701	1.0
118.716	4.0
118.731	9.0
118.746	5.0
118.761	7.0
118.776	3.0
118.791	6.0
118.805	10.0
118.82	9.0
118.835	5.0
118.85	3.0
118.865	4.0
118.88	6.0
118.895	2.0
118.909	1.0
118.924	3.0
118.939	3.0
118.954	3.0
118.969	5.0
118.984	4.0
118.999	4.0
119.014	2.0
119.028	1.0
119.043	2.0
119.058	2.0
119.073	3.0
119.088	3.0
119.103	4.0
119.118	1.0
119.133	4.0
119.147	4.0
119.162	1.0
119.177	3.0
119.192	7.0
119.207	5.0
119.222	3.0
119.237	7.0
119.251	2.0
119.266	3.0
119.281	5.0
119.296	3.0
119.311	6.0
119.326	3.0
119.341	2.0
119.356	3.0
119.37	4.0
119.385	4.0
119.4	3.0
119.415	4.0
119.43	3.0
119.445	2.0
119.46	6.0
119.475	4.0
119.489	4.0
119.504	7.0
119.519	4.0
119.534	7.0
119.549	7.0
119.564	5.0
119.579	6.0
119.593	3.0
119.608	5.0
119.623	3.0
119.638	1.0
119.653	2.0
119.668	3.0
119.683	3.0
119.698	4.0
119.712	1.0
119.727	4.0
119.742	7.0
119.757	3.0
119.772	1.0
119.787	4.0
119.802	4.0
119.817	2.0
119.831	5.0
119.846	2.0
119.861	3.0
119.876	2.0
119.891	1.0
119.906	3.0
119.921	3.0
119.935	2.0
119.95	0.0
119.965	1.0
119.98	4.0
119.995	3.0
120.01	2.0
120.025	3.0
120.04	2.0
120.054	4.0
120.069	2.0
120.084	1.0
120.099	3.0
120.114	1.0
120.129	2.0
120.144	2.0
120.159	0.0
120.173	2.0
120.188	3.0
120.203	0.0
120.218	2.0
120.233	2.0
120.248	0.0
120.263	2.0
120.277	1.0
120.292	0.0
120.307	0.0
120.322	0.0
120.337	0.0
120.352	0.0
120.367	2.0
120.382	0.0
120.396	0.0
120.411	0.0
120.426	0.0
120.441	0.0
120.456	0.0
120.471	0.0
120.486	1.0
120.501	0.0
120.515	0.0
120.53	0.0
120.545	0.0
120.56	0.0
120.575	0.0
120.59	0.0
120.605	0.0
120.619	0.0
120.634	0.0
120.649	0.0
120.664	0.0
120.679	0.0
120.694	0.0
120.709	0.0
120.724	0.0
120.738	1.0
120.753	0.0
120.768	0.0
120.783	0.0
120.798	1.0
120.813	0.0
120.828	0.0
120.843	0.0
120.857	0.0
120.872	0.0
120.887	0.0
120.902	0.0
120.917	0.0
120.932	0.0
120.947	0.0
120.961	0.0
120.976	0.0
