-1.217	0.0
-1.202	0.0
-1.187	0.0
-1.172	0.0
-1.157	0.0
-1.142	0.0
-1.128	0.0
-1.113	0.0
-1.098	0.0
-1.083	0.0
-1.068	0.0
-1.054	0.0
-1.039	0.0
-1.024	0.0
-1.009	0.0
-0.994	0.0
-0.979	0.0
-0.965	0.0
-0.95	0.0
-0.935	0.0
-0.92	1.0
-0.905	0.0
-0.891	0.0
-0.876	0.0
-0.861	0.0
-0.846	0.0
-0.831	0.0
-0.816	0.0
-0.802	0.0
-0.787	0.0
-0.772	0.0
-0.757	0.0
-0.742	0.0
-0.728	0.0
-0.713	0.0
-0.698	0.0
-0.683	0.0
-0.668	0.0
-0.653	0.0
-0.639	0.0
-0.624	0.0
-0.609	0.0
-0.594	0.0
-0.579	0.0
-0.565	0.0
-0.55	0.0
-0.535	0.0
-0.52	0.0
-0.505	0.0
-0.49	0.0
-0.476	0.0
-0.461	0.0
-0.446	0.0
-0.431	0.0
-0.416	0.0
-0.401	0.0
-0.387	0.0
-0.372	0.0
-0.357	0.0
-0.342	0.0
-0.327	0.0
-0.313	0.0
-0.298	0.0
-0.283	0.0
-0.268	0.0
-0.253	0.0
-0.238	0.0
-0.224	0.0
-0.209	0.0
-0.194	0.0
-0.179	0.0
-0.164	0.0
-0.15	0.0
-0.135	0.0
-0.12	0.0
-0.105	0.0
-0.09	0.0
-0.075	0.0
-0.061	0.0
-0.046	0.0
-0.031	0.0
-0.016	0.0
-0.001	0.0
0.013	0.0
0.028	0.0
0.043	0.0
0.058	0.0
0.073	0.0
0.088	0.0
0.102	0.0
0.117	0.0
0.132	0.0
0.147	0.0
0.162	0.0
0.176	0.0
0.191	0.0
0.206	0.0
0.221	0.0
0.236	0.0
0.251	0.0
0.265	0.0
0.28	0.0
0.295	0.0
0.31	0.0
0.325	0.0
0.339	0.0
0.354	0.0
0.369	0.0
0.384	0.0
0.399	0.0
0.414	0.0
0.428	0.0
0.443	0.0
0.458	0.0
0.473	0.0
0.488	0.0
0.502	0.0
0.517	0.0
0.532	0.0
0.547	0.0
0.562	0.0
0.577	0.0
0.591	0.0
0.606	0.0
0.621	0.0
0.636	1.0
0.651	0.0
0.665	0.0
0.68	0.0
0.695	0.0
0.71	0.0
0.725	0.0
0.74	0.0
0.754	0.0
0.769	0.0
0.784	0.0
0.799	0.0
0.814	0.0
0.828	0.0
0.843	0.0
0.858	0.0
0.873	0.0
0.888	0.0
0.903	0.0
0.917	0.0
0.932	0.0
0.947	0.0
0.962	0.0
0.977	1.0
0.991	0.0
1.006	0.0
1.021	0.0
1.036	0.0
1.051	0.0
1.065	0.0
1.08	0.0
1.095	0.0
1.11	0.0
1.125	0.0
1.14	0.0
1.154	0.0
1.169	1.0
1.184	1.0
1.199	0.0
1.214	0.0
1.228	0.0
1.243	0.0
1.258	0.0
1.273	1.0
1.288	0.0
1.302	0.0
1.317	0.0
1.332	0.0
1.347	0.0
1.362	0.0
1.376	0.0
1.391	0.0
1.406	1.0
1.421	0.0
1.436	1.0
1.45	0.0
1.465	0.0
1.48	0.0
1.495	0.0
1.51	0.0
1.524	1.0
1.539	0.0
1.554	0.0
1.569	0.0
1.584	0.0
1.598	0.0
1.613	1.0
1.628	0.0
1.643	0.0
1.658	1.0
1.672	0.0
1.687	0.0
1.702	0.0
1.717	0.0
1.732	0.0
1.746	0.0
1.761	0.0
1.776	0.0
1.791	0.0
1.806	1.0
1.82	0.0
1.835	0.0
1.85	0.0
1.865	0.0
1.88	0.0
1.894	0.0
1.909	0.0
1.924	0.0
1.939	0.0
1.954	0.0
1.968	0.0
1.983	0.0
1.998	1.0
2.013	0.0
2.028	0.0
2.042	0.0
2.057	0.0
2.072	0.0
2.087	0.0
2.101	0.0
2.116	0.0
2.131	0.0
2.146	0.0
2.161	1.0
2.175	0.0
2.19	0.0
2.205	1.0
2.22	0.0
2.235	0.0
2.249	0.0
2.264	0.0
2.279	0.0
2.294	1.0
2.308	0.0
2.323	5.0
2.338	2.0
2.353	1.0
2.368	3.0
2.382	1.0
2.397	0.0
2.412	1.0
2.427	2.0
2.442	1.0
2.456	3.0
2.471	3.0
2.486	1.0
2.501	0.0
2.515	4.0
2.53	0.0
2.545	0.0
2.56	2.0
2.575	1.0
2.589	3.0
2.604	2.0
2.619	6.0
2.634	4.0
2.649	1.0
2.663	4.0
2.678	1.0
2.693	3.0
2.708	0.0
2.722	2.0
2.737	1.0
2.752	2.0
2.767	2.0
2.782	1.0
2.796	1.0
2.811	3.0
2.826	2.0
2.841	1.0
2.856	3.0
2.87	2.0
2.885	0.0
2.9	4.0
2.915	9.0
2.93	6.0
2.944	7.0
2.959	1.0
2.974	2.0
2.989	2.0
3.004	2.0
3.018	4.0
3.033	2.0
3.048	3.0
3.063	4.0
3.078	4.0
3.092	5.0
3.107	4.0
3.122	5.0
3.137	2.0
3.152	1.0
3.166	4.0
3.181	5.0
3.196	7.0
3.211	4.0
3.226	3.0
3.24	2.0
3.255	5.0
3.27	3.0
3.285	4.0
3.3	8.0
3.315	6.0
3.329	1.0
3.344	2.0
3.359	3.0
3.374	4.0
3.389	4.0
3.403	8.0
3.418	8.0
3.433	4.0
3.448	9.0
3.463	3.0
3.478	3.0
3.492	2.0
3.507	3.0
3.522	3.0
3.537	6.0
3.552	4.0
3.567	7.0
3.581	4.0
3.596	5.0
3.611	4.0
3.626	9.0
3.641	5.0
3.656	4.0
3.671	8.0
3.685	8.0
3.7	6.0
3.715	9.0
3.73	7.0
3.745	6.0
3.76	8.0
3.775	3.0
3.789	5.0
3.804	4.0
3.819	6.0
3.834	5.0
3.849	5.0
3.864	5.0
3.879	6.0
3.894	8.0
3.908	10.0
3.923	2.0
3.938	8.0
3.953	2.0
3.968	8.0
3.983	8.0
3.998	8.0
4.013	4.0
4.027	12.0
4.042	10.0
4.057	4.0
4.072	8.0
4.087	3.0
4.102	7.0
4.117	13.0
4.132	7.0
4.147	8.0
4.162	10.0
4.176	5.0
4.191	5.0
4.206	9.0
4.221	2.0
4.236	2.0
4.251	4.0
4.266	10.0
4.281	8.0
4.296	3.0
4.311	7.0
4.326	7.0
4.341	7.0
4.356	4.0
4.37	10.0
4.385	9.0
4.4	6.0
4.415	9.0
4.43	9.0
4.445	3.0
4.46	2.0
4.475	0.0
4.49	6.0
4.505	8.0
4.52	5.0
4.535	3.0
4.55	5.0
4.565	9.0
4.58	10.0
4.595	8.0
4.61	9.0
4.625	3.0
4.639	6.0
4.654	6.0
4.669	7.0
4.684	6.0
4.699	8.0
4.714	9.0
4.729	12.0
4.744	9.0
4.759	9.0
4.774	7.0
4.789	9.0
4.804	5.0
4.819	5.0
4.834	8.0
4.849	12.0
4.864	4.0
4.879	7.0
4.894	13.0
4.909	8.0
4.924	3.0
4.939	5.0
4.954	7.0
4.969	4.0
4.984	9.0
4.999	8.0
5.014	10.0
5.029	9.0
5.044	5.0
5.059	5.0
5.074	4.0
5.089	8.0
5.104	5.0
5.119	14.0
5.134	10.0
5.149	9.0
5.164	9.0
5.179	9.0
5.194	4.0
5.209	7.0
5.224	3.0
5.239	8.0
5.254	6.0
5.269	15.0
5.284	4.0
5.299	10.0
5.314	11.0
5.329	9.0
5.344	9.0
5.359	6.0
5.374	5.0
5.389	8.0
5.404	10.0
5.419	6.0
5.434	6.0
5.449	7.0
5.464	7.0
5.479	6.0
5.494	13.0
5.509	11.0
5.524	10.0
5.539	8.0
5.554	11.0
5.569	6.0
5.584	11.0
5.599	10.0
5.614	9.0
5.629	9.0
5.644	7.0
5.659	6.0
5.674	8.0
5.689	10.0
5.704	2.0
5.719	6.0
5.734	7.0
5.749	8.0
5.764	6.0
5.779	7.0
5.794	3.0
5.809	9.0
5.824	7.0
5.839	6.0
5.854	7.0
5.869	14.0
5.884	8.0
5.899	13.0
5.914	18.0
5.929	7.0
5.944	8.0
5.959	7.0
5.974	8.0
5.989	9.0
6.004	9.0
6.019	5.0
6.034	6.0
6.049	10.0
6.064	11.0
6.079	11.0
6.094	16.0
6.109	8.0
6.124	14.0
6.139	6.0
6.154	6.0
6.169	8.0
6.184	13.0
6.199	4.0
6.214	4.0
6.229	9.0
6.244	11.0
6.259	7.0
6.274	5.0
6.289	14.0
6.304	4.0
6.319	9.0
6.334	8.0
6.349	11.0
6.364	9.0
6.379	5.0
6.394	10.0
6.409	10.0
6.424	9.0
6.439	13.0
6.454	7.0
6.469	14.0
6.484	5.0
6.499	12.0
6.514	7.0
6.529	4.0
6.544	7.0
6.559	9.0
6.574	12.0
6.589	10.0
6.604	4.0
6.619	12.0
6.634	12.0
6.649	9.0
6.664	8.0
6.679	10.0
6.694	9.0
6.709	7.0
6.724	9.0
6.739	9.0
6.754	9.0
6.769	13.0
6.784	10.0
6.799	11.0
6.814	11.0
6.829	11.0
6.844	11.0
6.859	7.0
6.873	9.0
6.888	9.0
6.903	11.0
6.918	4.0
6.933	9.0
6.948	11.0
6.963	5.0
6.978	7.0
6.993	10.0
7.008	6.0
7.023	6.0
7.038	13.0
7.053	10.0
7.068	5.0
7.083	9.0
7.098	9.0
7.113	9.0
7.128	5.0
7.143	3.0
7.157	8.0
7.172	11.0
7.187	6.0
7.202	10.0
7.217	18.0
7.232	10.0
7.247	11.0
7.262	5.0
7.277	11.0
7.292	9.0
7.307	10.0
7.322	9.0
7.336	3.0
7.351	10.0
7.366	13.0
7.381	8.0
7.396	6.0
7.411	12.0
7.426	2.0
7.441	10.0
7.456	4.0
7.471	9.0
7.485	7.0
7.5	18.0
7.515	7.0
7.53	7.0
7.545	11.0
7.56	11.0
7.575	10.0
7.59	5.0
7.604	9.0
7.619	19.0
7.634	8.0
7.649	4.0
7.664	10.0
7.679	10.0
7.693	10.0
7.708	12.0
7.723	8.0
7.738	6.0
7.753	8.0
7.768	9.0
7.783	11.0
7.797	5.0
7.812	5.0
7.827	8.0
7.842	9.0
7.857	6.0
7.871	3.0
7.886	8.0
7.901	14.0
7.916	13.0
7.931	5.0
7.945	10.0
7.96	7.0
7.975	14.0
7.99	10.0
8.005	9.0
8.019	9.0
8.034	9.0
8.049	7.0
8.064	6.0
8.078	13.0
8.093	8.0
8.108	7.0
8.123	7.0
8.137	9.0
8.152	4.0
8.167	5.0
8.182	8.0
8.196	13.0
8.211	4.0
8.226	9.0
8.241	9.0
8.255	8.0
8.27	12.0
8.285	6.0
8.3	18.0
8.314	9.0
8.329	6.0
8.344	8.0
8.358	3.0
8.373	6.0
8.388	11.0
8.403	9.0
8.417	10.0
8.432	6.0
8.447	9.0
8.461	10.0
8.476	6.0
8.491	9.0
8.505	14.0
8.52	2.0
8.535	12.0
8.55	7.0
8.564	7.0
8.579	7.0
8.594	7.0
8.608	5.0
8.623	8.0
8.638	7.0
8.652	5.0
8.667	18.0
8.682	6.0
8.696	7.0
8.711	7.0
8.726	9.0
8.74	10.0
8.755	8.0
8.77	12.0
8.784	6.0
8.799	7.0
8.814	9.0
8.828	9.0
8.843	13.0
8.858	12.0
8.872	8.0
8.887	10.0
8.902	8.0
8.916	16.0
8.931	4.0
8.946	6.0
8.96	8.0
8.975	11.0
8.99	9.0
9.004	8.0
9.019	9.0
9.034	8.0
9.048	6.0
9.063	4.0
9.077	11.0
9.092	8.0
9.107	8.0
9.121	6.0
9.136	14.0
9.151	8.0
9.165	8.0
9.18	11.0
9.195	7.0
9.209	11.0
9.224	11.0
9.239	12.0
9.253	14.0
9.268	7.0
9.283	7.0
9.297	10.0
9.312	12.0
9.327	8.0
9.341	4.0
9.356	6.0
9.371	13.0
9.385	6.0
9.4	2.0
9.415	8.0
9.429	10.0
9.444	11.0
9.458	7.0
9.473	4.0
9.488	6.0
9.502	9.0
9.517	6.0
9.532	7.0
9.546	5.0
9.561	2.0
9.576	15.0
9.59	8.0
9.605	5.0
9.62	7.0
9.635	10.0
9.649	6.0
9.664	11.0
9.679	8.0
9.693	6.0
9.708	13.0
9.723	13.0
9.737	11.0
9.752	5.0
9.767	9.0
9.781	8.0
9.796	10.0
9.811	7.0
9.825	14.0
9.84	7.0
9.855	9.0
9.87	9.0
9.884	5.0
9.899	5.0
9.914	6.0
9.928	7.0
9.943	4.0
9.958	8.0
9.973	11.0
9.987	9.0
10.002	11.0
10.017	14.0
10.031	10.0
10.046	6.0
10.061	12.0
10.076	8.0
10.09	6.0
10.105	11.0
10.12	9.0
10.135	6.0
10.149	8.0
10.164	6.0
10.179	7.0
10.194	8.0
10.208	18.0
10.223	4.0
10.238	9.0
10.253	8.0
10.267	8.0
10.282	11.0
10.297	10.0
10.312	11.0
10.326	9.0
10.341	8.0
10.356	10.0
10.371	9.0
10.386	12.0
10.4	5.0
10.415	15.0
10.43	14.0
10.445	10.0
10.46	8.0
10.474	7.0
10.489	5.0
10.504	9.0
10.519	9.0
10.533	9.0
10.548	7.0
10.563	9.0
10.578	6.0
10.593	9.0
10.608	7.0
10.622	9.0
10.637	8.0
10.652	11.0
10.667	14.0
10.682	9.0
10.696	12.0
10.711	9.0
10.726	8.0
10.741	4.0
10.756	12.0
10.771	18.0
10.785	5.0
10.8	6.0
10.815	5.0
10.83	5.0
10.845	6.0
10.86	6.0
10.874	10.0
10.889	10.0
10.904	10.0
10.919	11.0
10.934	12.0
10.949	8.0
10.963	6.0
10.978	8.0
10.993	4.0
11.008	10.0
11.023	5.0
11.038	7.0
11.053	7.0
11.067	8.0
11.082	7.0
11.097	10.0
11.112	9.0
11.127	7.0
11.142	4.0
11.157	9.0
11.172	5.0
11.186	8.0
11.201	5.0
11.216	12.0
11.231	7.0
11.246	1.0
11.261	7.0
11.276	11.0
11.291	5.0
11.305	9.0
11.32	7.0
11.335	11.0
11.35	14.0
11.365	8.0
11.38	9.0
11.395	9.0
11.41	9.0
11.424	12.0
11.439	10.0
11.454	8.0
11.469	8.0
11.484	9.0
11.499	10.0
11.514	9.0
11.529	4.0
11.544	9.0
11.558	5.0
11.573	11.0
11.588	8.0
11.603	8.0
11.618	7.0
11.633	9.0
11.648	10.0
11.663	5.0
11.678	6.0
11.693	8.0
11.707	9.0
11.722	6.0
11.737	7.0
11.752	9.0
11.767	10.0
11.782	6.0
11.797	4.0
11.812	3.0
11.827	10.0
11.842	12.0
11.856	12.0
11.871	5.0
11.886	9.0
11.901	8.0
11.916	8.0
11.931	5.0
11.946	13.0
11.961	3.0
11.976	6.0
11.991	12.0
12.006	7.0
12.02	9.0
12.035	14.0
12.05	10.0
12.065	13.0
12.08	14.0
12.095	8.0
12.11	7.0
12.125	11.0
12.14	11.0
12.155	8.0
12.17	11.0
12.184	17.0
12.199	11.0
12.214	11.0
12.229	16.0
12.244	10.0
12.259	7.0
12.274	9.0
12.289	11.0
12.304	13.0
12.319	12.0
12.334	11.0
12.348	9.0
12.363	13.0
12.378	17.0
12.393	8.0
12.408	18.0
12.423	6.0
12.438	12.0
12.453	18.0
12.468	15.0
12.483	14.0
12.498	14.0
12.513	14.0
12.527	6.0
12.542	19.0
12.557	15.0
12.572	9.0
12.587	15.0
12.602	10.0
12.617	15.0
12.632	13.0
12.647	16.0
12.662	22.0
12.677	16.0
12.692	13.0
12.707	12.0
12.721	4.0
12.736	16.0
12.751	14.0
12.766	23.0
12.781	15.0
12.796	10.0
12.811	13.0
12.826	11.0
12.841	18.0
12.856	14.0
12.871	13.0
12.886	19.0
12.9	17.0
12.915	12.0
12.93	12.0
12.945	23.0
12.96	24.0
12.975	20.0
12.99	17.0
13.005	15.0
13.02	20.0
13.035	14.0
13.05	18.0
13.065	18.0
13.08	15.0
13.094	20.0
13.109	22.0
13.124	20.0
13.139	13.0
13.154	19.0
13.169	19.0
13.184	29.0
13.199	23.0
13.214	16.0
13.229	15.0
13.244	21.0
13.259	17.0
13.274	26.0
13.288	19.0
13.303	26.0
13.318	17.0
13.333	22.0
13.348	23.0
13.363	19.0
13.378	23.0
13.393	29.0
13.408	20.0
13.423	27.0
13.438	22.0
13.453	26.0
13.468	32.0
13.482	36.0
13.497	32.0
13.512	54.0
13.527	53.0
13.542	44.0
13.557	45.0
13.572	36.0
13.587	47.0
13.602	63.0
13.617	67.0
13.632	71.0
13.647	85.0
13.662	73.0
13.677	90.0
13.691	90.0
13.706	99.0
13.721	92.0
13.736	98.0
13.751	97.0
13.766	97.0
13.781	111.0
13.796	121.0
13.811	142.0
13.826	154.0
13.841	137.0
13.856	135.0
13.871	124.0
13.885	100.0
13.9	89.0
13.915	91.0
13.93	67.0
13.945	48.0
13.96	63.0
13.975	43.0
13.99	46.0
14.005	36.0
14.02	36.0
14.035	39.0
14.05	17.0
14.065	24.0
14.08	21.0
14.094	30.0
14.109	23.0
14.124	20.0
14.139	20.0
14.154	20.0
14.169	26.0
14.184	19.0
14.199	24.0
14.214	23.0
14.229	27.0
14.244	20.0
14.259	17.0
14.274	21.0
14.288	12.0
14.303	20.0
14.318	22.0
14.333	16.0
14.348	17.0
14.363	18.0
14.378	16.0
14.393	20.0
14.408	17.0
14.423	16.0
14.438	12.0
14.453	15.0
14.468	22.0
14.482	15.0
14.497	12.0
14.512	13.0
14.527	18.0
14.542	18.0
14.557	22.0
14.572	25.0
14.587	16.0
14.602	10.0
14.617	13.0
14.632	22.0
14.647	14.0
14.661	13.0
14.676	13.0
14.691	18.0
14.706	19.0
14.721	19.0
14.736	17.0
14.751	15.0
14.766	23.0
14.781	14.0
14.796	20.0
14.811	9.0
14.826	15.0
14.84	16.0
14.855	17.0
14.87	14.0
14.885	18.0
14.9	17.0
14.915	10.0
14.93	20.0
14.945	14.0
14.96	15.0
14.975	16.0
14.989	16.0
15.004	17.0
15.019	8.0
15.034	13.0
15.049	10.0
15.064	15.0
15.079	10.0
15.094	12.0
15.109	22.0
15.124	17.0
15.138	19.0
15.153	15.0
15.168	11.0
15.183	19.0
15.198	18.0
15.213	23.0
15.228	19.0
15.243	11.0
15.258	10.0
15.272	13.0
15.287	9.0
15.302	16.0
15.317	18.0
15.332	21.0
15.347	20.0
15.362	16.0
15.377	17.0
15.391	15.0
15.406	7.0
15.421	19.0
15.436	21.0
15.451	17.0
15.466	22.0
15.481	18.0
15.496	11.0
15.51	19.0
15.525	14.0
15.54	18.0
15.555	7.0
15.57	24.0
15.585	13.0
15.6	14.0
15.614	7.0
15.629	11.0
15.644	14.0
15.659	8.0
15.674	15.0
15.689	11.0
15.704	12.0
15.718	13.0
15.733	6.0
15.748	14.0
15.763	18.0
15.778	11.0
15.793	15.0
15.808	15.0
15.822	9.0
15.837	13.0
15.852	16.0
15.867	9.0
15.882	13.0
15.897	12.0
15.911	8.0
15.926	10.0
15.941	19.0
15.956	16.0
15.971	26.0
15.986	15.0
16.0	17.0
16.015	18.0
16.03	12.0
16.045	15.0
16.06	11.0
16.074	17.0
16.089	15.0
16.104	5.0
16.119	14.0
16.134	9.0
16.149	10.0
16.163	10.0
16.178	13.0
16.193	12.0
16.208	17.0
16.223	18.0
16.237	13.0
16.252	16.0
16.267	10.0
16.282	10.0
16.297	21.0
16.311	6.0
16.326	14.0
16.341	14.0
16.356	11.0
16.37	11.0
16.385	15.0
16.4	8.0
16.415	16.0
16.43	18.0
16.444	12.0
16.459	16.0
16.474	13.0
16.489	19.0
16.504	18.0
16.518	23.0
16.533	16.0
16.548	14.0
16.563	15.0
16.577	16.0
16.592	10.0
16.607	25.0
16.622	15.0
16.637	18.0
16.651	22.0
16.666	26.0
16.681	24.0
16.696	29.0
16.71	38.0
16.725	22.0
16.74	36.0
16.755	27.0
16.77	27.0
16.784	36.0
16.799	48.0
16.814	35.0
16.829	39.0
16.843	51.0
16.858	48.0
16.873	66.0
16.888	68.0
16.902	53.0
16.917	60.0
16.932	84.0
16.947	78.0
16.961	90.0
16.976	78.0
16.991	83.0
17.006	54.0
17.021	58.0
17.035	49.0
17.05	43.0
17.065	36.0
17.08	38.0
17.094	20.0
17.109	37.0
17.124	34.0
17.139	27.0
17.153	19.0
17.168	17.0
17.183	20.0
17.198	14.0
17.212	16.0
17.227	16.0
17.242	18.0
17.257	16.0
17.271	19.0
17.286	13.0
17.301	21.0
17.316	19.0
17.33	21.0
17.345	11.0
17.36	12.0
17.375	12.0
17.39	15.0
17.404	11.0
17.419	21.0
17.434	15.0
17.449	15.0
17.463	17.0
17.478	12.0
17.493	11.0
17.508	6.0
17.522	8.0
17.537	13.0
17.552	15.0
17.567	10.0
17.581	15.0
17.596	19.0
17.611	14.0
17.626	18.0
17.641	17.0
17.655	12.0
17.67	13.0
17.685	10.0
17.7	7.0
17.714	7.0
17.729	15.0
17.744	15.0
17.759	10.0
17.773	16.0
17.788	17.0
17.803	9.0
17.818	9.0
17.833	9.0
17.847	12.0
17.862	20.0
17.877	21.0
17.892	14.0
17.906	10.0
17.921	16.0
17.936	8.0
17.951	17.0
17.966	17.0
17.98	12.0
17.995	10.0
18.01	16.0
18.025	10.0
18.04	14.0
18.054	14.0
18.069	6.0
18.084	11.0
18.099	10.0
18.114	15.0
18.128	14.0
18.143	16.0
18.158	6.0
18.173	12.0
18.188	13.0
18.202	14.0
18.217	16.0
18.232	11.0
18.247	8.0
18.262	10.0
18.276	14.0
18.291	6.0
18.306	7.0
18.321	11.0
18.336	12.0
18.35	12.0
18.365	18.0
18.38	12.0
18.395	14.0
18.41	14.0
18.424	11.0
18.439	14.0
18.454	13.0
18.469	11.0
18.484	11.0
18.498	20.0
18.513	13.0
18.528	11.0
18.543	10.0
18.558	14.0
18.573	7.0
18.587	22.0
18.602	6.0
18.617	11.0
18.632	11.0
18.647	11.0
18.661	16.0
18.676	12.0
18.691	12.0
18.706	8.0
18.721	17.0
18.736	14.0
18.75	9.0
18.765	13.0
18.78	11.0
18.795	8.0
18.81	4.0
18.825	8.0
18.839	12.0
18.854	11.0
18.869	12.0
18.884	5.0
18.899	14.0
18.913	14.0
18.928	16.0
18.943	10.0
18.958	10.0
18.973	12.0
18.988	12.0
19.002	10.0
19.017	9.0
19.032	11.0
19.047	11.0
19.062	13.0
19.077	22.0
19.091	11.0
19.106	13.0
19.121	14.0
19.136	13.0
19.151	11.0
19.165	11.0
19.18	9.0
19.195	8.0
19.21	16.0
19.225	7.0
19.24	14.0
19.254	14.0
19.269	14.0
19.284	15.0
19.299	11.0
19.314	20.0
19.329	12.0
19.343	19.0
19.358	15.0
19.373	17.0
19.388	26.0
19.403	17.0
19.417	21.0
19.432	24.0
19.447	21.0
19.462	23.0
19.477	25.0
19.492	21.0
19.506	31.0
19.521	26.0
19.536	32.0
19.551	37.0
19.566	33.0
19.58	46.0
19.595	39.0
19.61	50.0
19.625	30.0
19.64	40.0
19.655	55.0
19.669	33.0
19.684	32.0
19.699	35.0
19.714	37.0
19.729	33.0
19.743	22.0
19.758	33.0
19.773	26.0
19.788	23.0
19.803	24.0
19.817	24.0
19.832	14.0
19.847	20.0
19.862	18.0
19.877	13.0
19.891	17.0
19.906	13.0
19.921	11.0
19.936	5.0
19.951	14.0
19.965	13.0
19.98	15.0
19.995	15.0
20.01	6.0
20.025	8.0
20.039	16.0
20.054	16.0
20.069	14.0
20.084	8.0
20.099	8.0
20.113	10.0
20.128	9.0
20.143	8.0
20.158	16.0
20.173	19.0
20.187	16.0
20.202	8.0
20.217	15.0
20.232	14.0
20.246	4.0
20.261	11.0
20.276	16.0
20.291	14.0
20.306	10.0
20.32	11.0
20.335	15.0
20.35	8.0
20.365	6.0
20.38	12.0
20.394	8.0
20.409	11.0
20.424	8.0
20.439	12.0
20.453	11.0
20.468	14.0
20.483	10.0
20.498	16.0
20.513	12.0
20.527	12.0
20.542	13.0
20.557	21.0
20.572	12.0
20.586	7.0
20.601	10.0
20.616	19.0
20.631	8.0
20.646	6.0
20.66	11.0
20.675	14.0
20.69	6.0
20.705	12.0
20.719	11.0
20.734	12.0
20.749	11.0
20.764	22.0
20.779	8.0
20.793	8.0
20.808	12.0
20.823	8.0
20.838	13.0
20.853	9.0
20.867	14.0
20.882	11.0
20.897	12.0
20.912	17.0
20.926	9.0
20.941	7.0
20.956	9.0
20.971	13.0
20.986	15.0
21.0	8.0
21.015	11.0
21.03	13.0
21.045	10.0
21.06	7.0
21.074	9.0
21.089	6.0
21.104	12.0
21.119	14.0
21.134	11.0
21.148	13.0
21.163	10.0
21.178	11.0
21.193	14.0
21.208	9.0
21.222	12.0
21.237	15.0
21.252	9.0
21.267	7.0
21.282	13.0
21.296	9.0
21.311	10.0
21.326	18.0
21.341	9.0
21.356	6.0
21.37	13.0
21.385	19.0
21.4	7.0
21.415	9.0
21.43	7.0
21.444	11.0
21.459	13.0
21.474	7.0
21.489	11.0
21.504	15.0
21.519	7.0
21.533	19.0
21.548	17.0
21.563	19.0
21.578	18.0
21.593	12.0
21.608	8.0
21.622	19.0
21.637	11.0
21.652	23.0
21.667	18.0
21.682	18.0
21.697	16.0
21.712	23.0
21.726	18.0
21.741	26.0
21.756	34.0
21.771	38.0
21.786	40.0
21.801	39.0
21.816	43.0
21.83	27.0
21.845	42.0
21.86	58.0
21.875	53.0
21.89	61.0
21.905	89.0
21.92	71.0
21.935	99.0
21.949	75.0
21.964	95.0
21.979	90.0
21.994	81.0
22.009	72.0
22.024	68.0
22.039	51.0
22.054	50.0
22.069	60.0
22.083	41.0
22.098	45.0
22.113	38.0
22.128	27.0
22.143	30.0
22.158	23.0
22.173	22.0
22.188	21.0
22.203	24.0
22.218	16.0
22.233	19.0
22.248	9.0
22.262	9.0
22.277	16.0
22.292	15.0
22.307	11.0
22.322	14.0
22.337	12.0
22.352	6.0
22.367	13.0
22.382	11.0
22.397	15.0
22.412	10.0
22.427	12.0
22.442	8.0
22.457	11.0
22.472	10.0
22.487	15.0
22.502	9.0
22.516	6.0
22.531	18.0
22.546	9.0
22.561	15.0
22.576	9.0
22.591	9.0
22.606	13.0
22.621	10.0
22.636	15.0
22.651	12.0
22.666	11.0
22.681	14.0
22.696	10.0
22.711	11.0
22.726	13.0
22.741	14.0
22.756	11.0
22.771	11.0
22.786	7.0
22.801	9.0
22.816	10.0
22.831	13.0
22.846	11.0
22.861	13.0
22.876	18.0
22.891	9.0
22.906	12.0
22.92	5.0
22.935	16.0
22.95	17.0
22.965	11.0
22.98	13.0
22.995	10.0
23.01	10.0
23.025	8.0
23.04	18.0
23.055	7.0
23.07	11.0
23.085	5.0
23.1	12.0
23.115	10.0
23.13	5.0
23.145	4.0
23.16	14.0
23.175	10.0
23.19	6.0
23.205	15.0
23.22	11.0
23.235	11.0
23.25	6.0
23.265	7.0
23.28	12.0
23.295	13.0
23.31	13.0
23.325	11.0
23.34	10.0
23.355	8.0
23.37	8.0
23.384	7.0
23.399	10.0
23.414	11.0
23.429	14.0
23.444	6.0
23.459	11.0
23.474	10.0
23.489	15.0
23.504	7.0
23.519	10.0
23.534	9.0
23.549	13.0
23.564	11.0
23.579	9.0
23.594	13.0
23.609	7.0
23.624	10.0
23.639	16.0
23.654	8.0
23.668	11.0
23.683	13.0
23.698	6.0
23.713	10.0
23.728	6.0
23.743	10.0
23.758	12.0
23.773	10.0
23.788	11.0
23.803	21.0
23.818	7.0
23.833	22.0
23.848	14.0
23.862	16.0
23.877	25.0
23.892	16.0
23.907	24.0
23.922	33.0
23.937	29.0
23.952	25.0
23.967	29.0
23.982	36.0
23.997	29.0
24.011	34.0
24.026	33.0
24.041	39.0
24.056	49.0
24.071	44.0
24.086	50.0
24.101	48.0
24.116	40.0
24.131	38.0
24.145	58.0
24.16	33.0
24.175	40.0
24.19	41.0
24.205	35.0
24.22	24.0
24.235	28.0
24.249	36.0
24.264	27.0
24.279	23.0
24.294	21.0
24.309	22.0
24.324	15.0
24.338	12.0
24.353	16.0
24.368	21.0
24.383	5.0
24.398	11.0
24.413	12.0
24.428	9.0
24.442	15.0
24.457	10.0
24.472	9.0
24.487	11.0
24.502	12.0
24.516	10.0
24.531	13.0
24.546	10.0
24.561	12.0
24.576	9.0
24.591	8.0
24.605	10.0
24.62	10.0
24.635	14.0
24.65	13.0
24.665	10.0
24.679	15.0
24.694	15.0
24.709	11.0
24.724	6.0
24.739	16.0
24.753	8.0
24.768	15.0
24.783	6.0
24.798	17.0
24.813	14.0
24.827	11.0
24.842	11.0
24.857	11.0
24.872	12.0
24.886	16.0
24.901	12.0
24.916	11.0
24.931	15.0
24.946	8.0
24.96	16.0
24.975	7.0
24.99	15.0
25.005	8.0
25.019	12.0
25.034	7.0
25.049	12.0
25.064	10.0
25.078	7.0
25.093	9.0
25.108	12.0
25.123	11.0
25.138	11.0
25.152	12.0
25.167	6.0
25.182	11.0
25.197	7.0
25.211	15.0
25.226	7.0
25.241	5.0
25.256	15.0
25.27	9.0
25.285	6.0
25.3	9.0
25.315	9.0
25.329	8.0
25.344	15.0
25.359	11.0
25.374	9.0
25.388	5.0
25.403	6.0
25.418	10.0
25.433	6.0
25.447	8.0
25.462	8.0
25.477	13.0
25.492	8.0
25.506	8.0
25.521	6.0
25.536	9.0
25.55	9.0
25.565	10.0
25.58	8.0
25.595	8.0
25.609	8.0
25.624	11.0
25.639	8.0
25.654	14.0
25.668	11.0
25.683	5.0
25.698	9.0
25.713	7.0
25.727	17.0
25.742	4.0
25.757	12.0
25.772	8.0
25.786	11.0
25.801	4.0
25.816	8.0
25.83	12.0
25.845	12.0
25.86	14.0
25.875	14.0
25.889	10.0
25.904	10.0
25.919	10.0
25.934	7.0
25.948	8.0
25.963	6.0
25.978	15.0
25.992	10.0
26.007	8.0
26.022	11.0
26.037	8.0
26.051	11.0
26.066	7.0
26.081	12.0
26.096	18.0
26.11	8.0
26.125	6.0
26.14	16.0
26.155	13.0
26.169	7.0
26.184	15.0
26.199	11.0
26.213	8.0
26.228	14.0
26.243	8.0
26.258	8.0
26.272	11.0
26.287	15.0
26.302	11.0
26.317	14.0
26.331	8.0
26.346	14.0
26.361	17.0
26.376	11.0
26.39	5.0
26.405	2.0
26.42	11.0
26.434	13.0
26.449	10.0
26.464	14.0
26.479	10.0
26.493	4.0
26.508	11.0
26.523	7.0
26.538	9.0
26.552	11.0
26.567	4.0
26.582	11.0
26.597	5.0
26.611	12.0
26.626	8.0
26.641	9.0
26.656	8.0
26.67	9.0
26.685	12.0
26.7	13.0
26.715	12.0
26.729	10.0
26.744	5.0
26.759	13.0
26.773	5.0
26.788	6.0
26.803	9.0
26.818	11.0
26.832	9.0
26.847	8.0
26.862	8.0
26.877	14.0
26.891	4.0
26.906	10.0
26.921	7.0
26.936	8.0
26.95	9.0
26.965	12.0
26.98	11.0
26.995	10.0
27.01	9.0
27.024	15.0
27.039	10.0
27.054	15.0
27.069	17.0
27.083	4.0
27.098	11.0
27.113	6.0
27.128	20.0
27.142	14.0
27.157	12.0
27.172	5.0
27.187	13.0
27.201	9.0
27.216	6.0
27.231	2.0
27.246	5.0
27.261	15.0
27.275	14.0
27.29	11.0
27.305	14.0
27.32	7.0
27.334	10.0
27.349	5.0
27.364	7.0
27.379	3.0
27.394	15.0
27.408	11.0
27.423	12.0
27.438	13.0
27.453	12.0
27.467	10.0
27.482	13.0
27.497	12.0
27.512	15.0
27.527	11.0
27.541	7.0
27.556	7.0
27.571	6.0
27.586	9.0
27.601	14.0
27.615	11.0
27.63	10.0
27.645	14.0
27.66	15.0
27.675	11.0
27.689	16.0
27.704	20.0
27.719	14.0
27.734	14.0
27.749	21.0
27.763	15.0
27.778	26.0
27.793	19.0
27.808	26.0
27.823	22.0
27.838	24.0
27.852	21.0
27.867	19.0
27.882	32.0
27.897	20.0
27.912	24.0
27.926	27.0
27.941	17.0
27.956	21.0
27.971	21.0
27.986	21.0
28.001	25.0
28.015	17.0
28.03	30.0
28.045	17.0
28.06	13.0
28.075	20.0
28.09	12.0
28.105	17.0
28.119	14.0
28.134	11.0
28.149	19.0
28.164	11.0
28.179	7.0
28.194	9.0
28.208	8.0
28.223	12.0
28.238	14.0
28.253	13.0
28.268	4.0
28.283	10.0
28.298	13.0
28.312	17.0
28.327	11.0
28.342	6.0
28.357	7.0
28.372	8.0
28.387	9.0
28.402	12.0
28.417	12.0
28.431	10.0
28.446	12.0
28.461	12.0
28.476	11.0
28.491	15.0
28.506	6.0
28.521	11.0
28.536	9.0
28.55	10.0
28.565	5.0
28.58	9.0
28.595	13.0
28.61	11.0
28.625	12.0
28.64	11.0
28.655	8.0
28.669	13.0
28.684	9.0
28.699	6.0
28.714	14.0
28.729	10.0
28.744	17.0
28.759	4.0
28.774	11.0
28.788	10.0
28.803	14.0
28.818	19.0
28.833	12.0
28.848	7.0
28.863	10.0
28.878	8.0
28.893	8.0
28.908	13.0
28.922	5.0
28.937	10.0
28.952	6.0
28.967	8.0
28.982	14.0
28.997	10.0
29.012	12.0
29.027	9.0
29.041	14.0
29.056	9.0
29.071	11.0
29.086	13.0
29.101	6.0
29.116	9.0
29.131	8.0
29.146	11.0
29.16	9.0
29.175	14.0
29.19	11.0
29.205	13.0
29.22	8.0
29.235	16.0
29.25	9.0
29.265	10.0
29.279	8.0
29.294	9.0
29.309	13.0
29.324	10.0
29.339	10.0
29.354	10.0
29.369	10.0
29.384	9.0
29.398	12.0
29.413	18.0
29.428	10.0
29.443	20.0
29.458	20.0
29.473	16.0
29.488	32.0
29.502	35.0
29.517	36.0
29.532	34.0
29.547	44.0
29.562	40.0
29.577	45.0
29.592	53.0
29.606	57.0
29.621	51.0
29.636	51.0
29.651	47.0
29.666	54.0
29.681	42.0
29.695	24.0
29.71	32.0
29.725	28.0
29.74	36.0
29.755	34.0
29.77	31.0
29.784	24.0
29.799	35.0
29.814	34.0
29.829	26.0
29.844	27.0
29.859	21.0
29.873	23.0
29.888	22.0
29.903	11.0
29.918	18.0
29.933	8.0
29.947	16.0
29.962	7.0
29.977	10.0
29.992	12.0
30.007	9.0
30.021	10.0
30.036	12.0
30.051	12.0
30.066	7.0
30.081	9.0
30.095	10.0
30.11	12.0
30.125	21.0
30.14	7.0
30.155	10.0
30.169	16.0
30.184	14.0
30.199	12.0
30.214	9.0
30.228	8.0
30.243	15.0
30.258	14.0
30.273	10.0
30.288	9.0
30.302	10.0
30.317	15.0
30.332	12.0
30.347	7.0
30.361	12.0
30.376	12.0
30.391	8.0
30.406	13.0
30.42	9.0
30.435	11.0
30.45	9.0
30.465	17.0
30.479	4.0
30.494	15.0
30.509	17.0
30.524	10.0
30.538	7.0
30.553	13.0
30.568	10.0
30.583	6.0
30.597	8.0
30.612	7.0
30.627	5.0
30.641	10.0
30.656	10.0
30.671	10.0
30.686	15.0
30.7	15.0
30.715	8.0
30.73	15.0
30.745	13.0
30.759	7.0
30.774	7.0
30.789	10.0
30.803	4.0
30.818	13.0
30.833	18.0
30.848	12.0
30.862	22.0
30.877	14.0
30.892	8.0
30.906	13.0
30.921	15.0
30.936	9.0
30.951	11.0
30.965	11.0
30.98	10.0
30.995	8.0
31.009	10.0
31.024	20.0
31.039	12.0
31.053	11.0
31.068	11.0
31.083	20.0
31.098	16.0
31.112	22.0
31.127	26.0
31.142	31.0
31.156	26.0
31.171	32.0
31.186	21.0
31.2	39.0
31.215	44.0
31.23	33.0
31.245	32.0
31.259	41.0
31.274	35.0
31.289	42.0
31.303	32.0
31.318	37.0
31.333	37.0
31.347	29.0
31.362	20.0
31.377	39.0
31.392	26.0
31.406	24.0
31.421	42.0
31.436	27.0
31.45	33.0
31.465	19.0
31.48	19.0
31.494	12.0
31.509	26.0
31.524	17.0
31.538	22.0
31.553	20.0
31.568	8.0
31.583	11.0
31.597	18.0
31.612	4.0
31.627	12.0
31.641	19.0
31.656	11.0
31.671	11.0
31.685	8.0
31.7	8.0
31.715	14.0
31.729	15.0
31.744	14.0
31.759	10.0
31.774	16.0
31.788	15.0
31.803	11.0
31.818	6.0
31.832	7.0
31.847	11.0
31.862	15.0
31.876	6.0
31.891	6.0
31.906	5.0
31.92	9.0
31.935	16.0
31.95	13.0
31.965	17.0
31.979	7.0
31.994	7.0
32.009	9.0
32.023	8.0
32.038	8.0
32.053	10.0
32.067	8.0
32.082	13.0
32.097	6.0
32.112	9.0
32.126	10.0
32.141	13.0
32.156	11.0
32.17	7.0
32.185	12.0
32.2	14.0
32.214	9.0
32.229	6.0
32.244	8.0
32.259	6.0
32.273	8.0
32.288	11.0
32.303	9.0
32.317	6.0
32.332	7.0
32.347	13.0
32.362	7.0
32.376	10.0
32.391	8.0
32.406	7.0
32.42	13.0
32.435	9.0
32.45	6.0
32.465	7.0
32.479	6.0
32.494	12.0
32.509	12.0
32.523	13.0
32.538	9.0
32.553	8.0
32.568	22.0
32.582	11.0
32.597	14.0
32.612	10.0
32.627	10.0
32.641	13.0
32.656	10.0
32.671	12.0
32.685	17.0
32.7	16.0
32.715	21.0
32.73	14.0
32.744	25.0
32.759	16.0
32.774	15.0
32.788	16.0
32.803	26.0
32.818	21.0
32.833	22.0
32.847	39.0
32.862	21.0
32.877	25.0
32.892	27.0
32.906	17.0
32.921	20.0
32.936	20.0
32.951	23.0
32.965	17.0
32.98	25.0
32.995	26.0
33.009	24.0
33.024	20.0
33.039	19.0
33.054	14.0
33.068	11.0
33.083	18.0
33.098	14.0
33.113	17.0
33.127	13.0
33.142	10.0
33.157	9.0
33.172	10.0
33.186	5.0
33.201	11.0
33.216	12.0
33.231	10.0
33.245	16.0
33.26	14.0
33.275	11.0
33.29	10.0
33.304	9.0
33.319	10.0
33.334	6.0
33.349	16.0
33.363	13.0
33.378	11.0
33.393	8.0
33.408	7.0
33.422	4.0
33.437	6.0
33.452	14.0
33.467	6.0
33.481	9.0
33.496	7.0
33.511	9.0
33.526	7.0
33.54	13.0
33.555	8.0
33.57	11.0
33.585	14.0
33.599	11.0
33.614	7.0
33.629	13.0
33.644	14.0
33.658	7.0
33.673	12.0
33.688	8.0
33.703	9.0
33.718	5.0
33.732	10.0
33.747	8.0
33.762	9.0
33.777	12.0
33.791	7.0
33.806	14.0
33.821	9.0
33.836	4.0
33.85	10.0
33.865	7.0
33.88	6.0
33.895	17.0
33.91	10.0
33.924	6.0
33.939	8.0
33.954	7.0
33.969	6.0
33.983	13.0
33.998	7.0
34.013	11.0
34.028	9.0
34.042	14.0
34.057	11.0
34.072	13.0
34.087	10.0
34.102	7.0
34.116	12.0
34.131	8.0
34.146	6.0
34.161	8.0
34.175	9.0
34.19	14.0
34.205	8.0
34.22	14.0
34.235	16.0
34.249	8.0
34.264	14.0
34.279	16.0
34.294	16.0
34.309	15.0
34.323	14.0
34.338	8.0
34.353	9.0
34.368	25.0
34.382	22.0
34.397	14.0
34.412	8.0
34.427	10.0
34.442	12.0
34.456	21.0
34.471	14.0
34.486	9.0
34.501	10.0
34.516	9.0
34.53	8.0
34.545	11.0
34.56	10.0
34.575	10.0
34.59	9.0
34.604	8.0
34.619	6.0
34.634	4.0
34.649	12.0
34.664	11.0
34.678	13.0
34.693	17.0
34.708	9.0
34.723	10.0
34.738	9.0
34.752	11.0
34.767	12.0
34.782	8.0
34.797	11.0
34.812	9.0
34.826	12.0
34.841	11.0
34.856	13.0
34.871	19.0
34.886	6.0
34.9	9.0
34.915	9.0
34.93	7.0
34.945	9.0
34.96	8.0
34.974	6.0
34.989	11.0
35.004	10.0
35.019	12.0
35.034	8.0
35.048	11.0
35.063	7.0
35.078	7.0
35.093	8.0
35.108	10.0
35.122	7.0
35.137	7.0
35.152	11.0
35.167	13.0
35.182	9.0
35.196	8.0
35.211	11.0
35.226	9.0
35.241	10.0
35.256	12.0
35.27	8.0
35.285	1.0
35.3	7.0
35.315	7.0
35.33	9.0
35.344	10.0
35.359	8.0
35.374	6.0
35.389	3.0
35.404	6.0
35.418	7.0
35.433	10.0
35.448	10.0
35.463	9.0
35.478	10.0
35.493	10.0
35.507	10.0
35.522	8.0
35.537	7.0
35.552	11.0
35.567	9.0
35.581	7.0
35.596	10.0
35.611	10.0
35.626	7.0
35.641	14.0
35.655	18.0
35.67	10.0
35.685	10.0
35.7	23.0
35.715	16.0
35.729	21.0
35.744	19.0
35.759	19.0
35.774	20.0
35.789	17.0
35.804	22.0
35.818	19.0
35.833	18.0
35.848	17.0
35.863	11.0
35.878	10.0
35.892	15.0
35.907	15.0
35.922	11.0
35.937	11.0
35.952	6.0
35.966	24.0
35.981	9.0
35.996	12.0
36.011	15.0
36.026	14.0
36.04	13.0
36.055	17.0
36.07	18.0
36.085	13.0
36.1	7.0
36.114	9.0
36.129	17.0
36.144	10.0
36.159	8.0
36.174	6.0
36.189	12.0
36.203	2.0
36.218	7.0
36.233	4.0
36.248	9.0
36.263	6.0
36.277	13.0
36.292	11.0
36.307	5.0
36.322	7.0
36.337	6.0
36.351	5.0
36.366	5.0
36.381	7.0
36.396	13.0
36.411	9.0
36.426	14.0
36.44	6.0
36.455	12.0
36.47	6.0
36.485	5.0
36.5	12.0
36.514	11.0
36.529	11.0
36.544	12.0
36.559	5.0
36.574	5.0
36.589	7.0
36.603	7.0
36.618	7.0
36.633	10.0
36.648	9.0
36.663	8.0
36.677	7.0
36.692	5.0
36.707	7.0
36.722	8.0
36.737	6.0
36.752	5.0
36.766	7.0
36.781	6.0
36.796	10.0
36.811	6.0
36.826	6.0
36.841	10.0
36.855	9.0
36.87	7.0
36.885	15.0
36.9	17.0
36.915	13.0
36.93	8.0
36.944	8.0
36.959	14.0
36.974	9.0
36.989	10.0
37.004	5.0
37.019	11.0
37.033	14.0
37.048	18.0
37.063	14.0
37.078	17.0
37.093	25.0
37.108	23.0
37.123	32.0
37.137	27.0
37.152	29.0
37.167	26.0
37.182	34.0
37.197	26.0
37.212	30.0
37.226	26.0
37.241	27.0
37.256	32.0
37.271	20.0
37.286	24.0
37.301	12.0
37.316	19.0
37.331	15.0
37.345	16.0
37.36	14.0
37.375	21.0
37.39	25.0
37.405	13.0
37.42	22.0
37.435	16.0
37.45	17.0
37.464	11.0
37.479	14.0
37.494	6.0
37.509	11.0
37.524	5.0
37.539	8.0
37.554	13.0
37.569	7.0
37.583	6.0
37.598	8.0
37.613	4.0
37.628	6.0
37.643	9.0
37.658	8.0
37.673	8.0
37.688	4.0
37.703	6.0
37.718	9.0
37.733	8.0
37.747	7.0
37.762	2.0
37.777	10.0
37.792	9.0
37.807	10.0
37.822	9.0
37.837	11.0
37.852	12.0
37.867	7.0
37.882	3.0
37.897	8.0
37.912	6.0
37.927	8.0
37.941	12.0
37.956	5.0
37.971	6.0
37.986	9.0
38.001	6.0
38.016	6.0
38.031	9.0
38.046	5.0
38.061	8.0
38.076	9.0
38.091	9.0
38.106	6.0
38.121	6.0
38.136	3.0
38.151	5.0
38.166	5.0
38.181	7.0
38.196	13.0
38.211	2.0
38.226	5.0
38.241	7.0
38.256	6.0
38.271	7.0
38.285	5.0
38.3	4.0
38.315	8.0
38.33	6.0
38.345	7.0
38.36	7.0
38.375	10.0
38.39	1.0
38.405	9.0
38.42	9.0
38.435	7.0
38.45	8.0
38.465	5.0
38.48	7.0
38.495	8.0
38.51	8.0
38.525	3.0
38.54	12.0
38.555	5.0
38.57	4.0
38.585	5.0
38.6	9.0
38.615	7.0
38.63	10.0
38.645	8.0
38.66	4.0
38.675	5.0
38.69	8.0
38.705	7.0
38.72	6.0
38.735	10.0
38.75	6.0
38.765	4.0
38.78	7.0
38.795	4.0
38.81	7.0
38.825	10.0
38.84	3.0
38.855	6.0
38.87	5.0
38.885	10.0
38.9	8.0
38.915	1.0
38.93	5.0
38.945	5.0
38.96	10.0
38.975	9.0
38.99	3.0
39.005	7.0
39.02	5.0
39.035	6.0
39.05	6.0
39.065	7.0
39.08	10.0
39.095	4.0
39.11	7.0
39.125	9.0
39.14	8.0
39.155	5.0
39.17	4.0
39.185	5.0
39.2	13.0
39.215	5.0
39.23	7.0
39.245	7.0
39.26	4.0
39.275	8.0
39.29	8.0
39.305	5.0
39.32	7.0
39.335	8.0
39.35	7.0
39.365	10.0
39.38	6.0
39.395	10.0
39.409	9.0
39.424	4.0
39.439	7.0
39.454	6.0
39.469	7.0
39.484	10.0
39.499	7.0
39.514	11.0
39.529	11.0
39.544	11.0
39.559	6.0
39.574	7.0
39.589	4.0
39.604	8.0
39.619	8.0
39.634	5.0
39.649	6.0
39.664	7.0
39.678	8.0
39.693	5.0
39.708	5.0
39.723	4.0
39.738	7.0
39.753	8.0
39.768	11.0
39.783	8.0
39.798	8.0
39.813	3.0
39.827	7.0
39.842	7.0
39.857	6.0
39.872	10.0
39.887	8.0
39.902	3.0
39.917	9.0
39.932	11.0
39.947	4.0
39.961	4.0
39.976	10.0
39.991	14.0
40.006	5.0
40.021	6.0
40.036	8.0
40.051	8.0
40.065	6.0
40.08	9.0
40.095	10.0
40.11	4.0
40.125	9.0
40.14	11.0
40.154	10.0
40.169	3.0
40.184	10.0
40.199	8.0
40.214	7.0
40.228	9.0
40.243	6.0
40.258	2.0
40.273	4.0
40.288	2.0
40.302	6.0
40.317	9.0
40.332	8.0
40.347	5.0
40.362	6.0
40.376	9.0
40.391	7.0
40.406	7.0
40.421	4.0
40.436	6.0
40.45	4.0
40.465	4.0
40.48	10.0
40.495	6.0
40.509	9.0
40.524	7.0
40.539	8.0
40.554	5.0
40.568	4.0
40.583	8.0
40.598	8.0
40.613	6.0
40.627	9.0
40.642	4.0
40.657	4.0
40.672	10.0
40.686	5.0
40.701	3.0
40.716	5.0
40.731	4.0
40.745	8.0
40.76	7.0
40.775	4.0
40.79	6.0
40.804	11.0
40.819	11.0
40.834	0.0
40.849	4.0
40.863	3.0
40.878	6.0
40.893	11.0
40.907	6.0
40.922	7.0
40.937	11.0
40.952	7.0
40.966	3.0
40.981	5.0
40.996	9.0
41.011	11.0
41.025	16.0
41.04	14.0
41.055	10.0
41.069	21.0
41.084	16.0
41.099	26.0
41.114	24.0
41.128	20.0
41.143	19.0
41.158	23.0
41.173	20.0
41.187	27.0
41.202	10.0
41.217	14.0
41.231	13.0
41.246	16.0
41.261	16.0
41.276	10.0
41.29	16.0
41.305	10.0
41.32	13.0
41.335	11.0
41.349	13.0
41.364	12.0
41.379	10.0
41.393	11.0
41.408	17.0
41.423	8.0
41.438	11.0
41.452	15.0
41.467	16.0
41.482	14.0
41.497	15.0
41.511	11.0
41.526	6.0
41.541	11.0
41.556	4.0
41.57	5.0
41.585	12.0
41.6	8.0
41.615	4.0
41.629	4.0
41.644	8.0
41.659	6.0
41.674	5.0
41.688	4.0
41.703	11.0
41.718	3.0
41.733	14.0
41.747	4.0
41.762	6.0
41.777	8.0
41.792	5.0
41.806	7.0
41.821	0.0
41.836	3.0
41.851	7.0
41.866	5.0
41.88	6.0
41.895	4.0
41.91	10.0
41.925	4.0
41.939	6.0
41.954	4.0
41.969	9.0
41.984	4.0
41.999	5.0
42.013	10.0
42.028	3.0
42.043	6.0
42.058	5.0
42.073	4.0
42.088	11.0
42.102	7.0
42.117	6.0
42.132	4.0
42.147	8.0
42.162	8.0
42.176	9.0
42.191	4.0
42.206	5.0
42.221	5.0
42.236	9.0
42.251	6.0
42.266	8.0
42.28	11.0
42.295	11.0
42.31	13.0
42.325	15.0
42.34	9.0
42.355	14.0
42.369	20.0
42.384	21.0
42.399	24.0
42.414	15.0
42.429	11.0
42.444	16.0
42.459	16.0
42.474	15.0
42.488	18.0
42.503	16.0
42.518	19.0
42.533	6.0
42.548	17.0
42.563	8.0
42.578	7.0
42.593	11.0
42.608	7.0
42.622	13.0
42.637	12.0
42.652	12.0
42.667	21.0
42.682	10.0
42.697	6.0
42.712	12.0
42.727	12.0
42.742	13.0
42.757	12.0
42.772	6.0
42.786	5.0
42.801	11.0
42.816	9.0
42.831	4.0
42.846	4.0
42.861	10.0
42.876	13.0
42.891	6.0
42.906	1.0
42.921	5.0
42.936	7.0
42.951	6.0
42.966	7.0
42.981	1.0
42.996	1.0
43.011	3.0
43.025	5.0
43.04	5.0
43.055	5.0
43.07	5.0
43.085	8.0
43.1	6.0
43.115	2.0
43.13	2.0
43.145	3.0
43.16	3.0
43.175	6.0
43.19	7.0
43.205	3.0
43.22	5.0
43.235	6.0
43.25	4.0
43.265	3.0
43.28	4.0
43.295	11.0
43.31	3.0
43.325	4.0
43.34	4.0
43.355	5.0
43.37	3.0
43.385	6.0
43.4	6.0
43.415	8.0
43.43	8.0
43.445	6.0
43.46	5.0
43.475	7.0
43.49	6.0
43.505	4.0
43.52	6.0
43.535	7.0
43.55	11.0
43.565	5.0
43.58	7.0
43.595	7.0
43.61	11.0
43.625	5.0
43.64	10.0
43.655	9.0
43.67	4.0
43.685	11.0
43.7	8.0
43.715	1.0
43.73	3.0
43.745	7.0
43.76	8.0
43.775	5.0
43.79	6.0
43.805	3.0
43.82	10.0
43.835	5.0
43.85	4.0
43.865	5.0
43.88	10.0
43.895	9.0
43.91	9.0
43.925	7.0
43.94	5.0
43.955	6.0
43.97	6.0
43.985	6.0
44.0	2.0
44.015	8.0
44.03	4.0
44.045	4.0
44.061	0.0
44.076	4.0
44.091	10.0
44.106	5.0
44.121	4.0
44.136	7.0
44.151	2.0
44.166	7.0
44.181	6.0
44.196	5.0
44.211	2.0
44.226	6.0
44.241	2.0
44.256	4.0
44.271	4.0
44.286	6.0
44.301	3.0
44.316	1.0
44.331	2.0
44.346	4.0
44.361	8.0
44.377	7.0
44.392	2.0
44.407	6.0
44.422	4.0
44.437	3.0
44.452	5.0
44.467	5.0
44.482	2.0
44.497	6.0
44.512	5.0
44.527	6.0
44.542	5.0
44.557	3.0
44.572	3.0
44.587	7.0
44.602	6.0
44.617	9.0
44.632	7.0
44.647	12.0
44.663	9.0
44.678	11.0
44.693	6.0
44.708	8.0
44.723	7.0
44.738	8.0
44.753	11.0
44.768	13.0
44.783	12.0
44.798	13.0
44.813	10.0
44.828	4.0
44.843	12.0
44.858	12.0
44.873	5.0
44.888	11.0
44.903	8.0
44.918	11.0
44.933	2.0
44.948	7.0
44.964	10.0
44.979	5.0
44.994	5.0
45.009	7.0
45.024	7.0
45.039	7.0
45.054	6.0
45.069	5.0
45.084	8.0
45.099	11.0
45.114	14.0
45.129	8.0
45.144	10.0
45.159	14.0
45.174	4.0
45.189	3.0
45.204	3.0
45.219	8.0
45.234	8.0
45.249	4.0
45.264	3.0
45.279	3.0
45.294	5.0
45.309	6.0
45.324	4.0
45.339	7.0
45.354	3.0
45.369	7.0
45.384	8.0
45.399	3.0
45.414	6.0
45.429	7.0
45.444	2.0
45.459	3.0
45.474	4.0
45.489	5.0
45.504	5.0
45.519	4.0
45.534	3.0
45.549	7.0
45.564	3.0
45.579	7.0
45.594	3.0
45.609	6.0
45.624	9.0
45.639	5.0
45.654	4.0
45.669	8.0
45.684	6.0
45.699	6.0
45.714	4.0
45.729	3.0
45.744	4.0
45.759	5.0
45.774	5.0
45.789	6.0
45.804	6.0
45.819	7.0
45.834	4.0
45.849	3.0
45.864	7.0
45.879	3.0
45.894	8.0
45.909	16.0
45.924	18.0
45.939	15.0
45.954	10.0
45.969	9.0
45.984	13.0
45.998	17.0
46.013	20.0
46.028	11.0
46.043	11.0
46.058	7.0
46.073	15.0
46.088	11.0
46.103	2.0
46.118	12.0
46.133	12.0
46.148	4.0
46.163	8.0
46.178	6.0
46.192	15.0
46.207	9.0
46.222	13.0
46.237	13.0
46.252	10.0
46.267	10.0
46.282	7.0
46.297	15.0
46.312	7.0
46.327	6.0
46.341	8.0
46.356	6.0
46.371	9.0
46.386	5.0
46.401	7.0
46.416	8.0
46.431	2.0
46.446	2.0
46.46	4.0
46.475	2.0
46.49	3.0
46.505	6.0
46.52	4.0
46.535	3.0
46.55	3.0
46.564	2.0
46.579	4.0
46.594	3.0
46.609	4.0
46.624	5.0
46.639	5.0
46.654	6.0
46.668	5.0
46.683	6.0
46.698	4.0
46.713	8.0
46.728	8.0
46.743	4.0
46.758	10.0
46.772	6.0
46.787	7.0
46.802	6.0
46.817	9.0
46.832	2.0
46.847	3.0
46.861	5.0
46.876	2.0
46.891	7.0
46.906	4.0
46.921	8.0
46.936	5.0
46.95	5.0
46.965	8.0
46.98	3.0
46.995	5.0
47.01	7.0
47.025	5.0
47.039	7.0
47.054	8.0
47.069	12.0
47.084	7.0
47.099	14.0
47.113	7.0
47.128	5.0
47.143	13.0
47.158	16.0
47.173	8.0
47.188	5.0
47.202	12.0
47.217	8.0
47.232	3.0
47.247	5.0
47.262	5.0
47.277	7.0
47.291	5.0
47.306	4.0
47.321	5.0
47.336	5.0
47.351	7.0
47.365	9.0
47.38	6.0
47.395	18.0
47.41	6.0
47.425	8.0
47.44	8.0
47.454	7.0
47.469	7.0
47.484	5.0
47.499	3.0
47.514	8.0
47.528	2.0
47.543	12.0
47.558	7.0
47.573	7.0
47.588	2.0
47.603	5.0
47.617	0.0
47.632	2.0
47.647	2.0
47.662	2.0
47.677	6.0
47.691	4.0
47.706	5.0
47.721	5.0
47.736	7.0
47.751	6.0
47.766	3.0
47.78	9.0
47.795	3.0
47.81	6.0
47.825	3.0
47.84	5.0
47.855	4.0
47.869	5.0
47.884	4.0
47.899	3.0
47.914	4.0
47.929	5.0
47.944	9.0
47.958	7.0
47.973	4.0
47.988	5.0
48.003	4.0
48.018	5.0
48.033	7.0
48.047	3.0
48.062	5.0
48.077	8.0
48.092	8.0
48.107	7.0
48.122	5.0
48.137	3.0
48.151	4.0
48.166	4.0
48.181	6.0
48.196	8.0
48.211	8.0
48.226	5.0
48.241	5.0
48.255	5.0
48.27	5.0
48.285	5.0
48.3	5.0
48.315	2.0
48.33	6.0
48.345	9.0
48.359	7.0
48.374	4.0
48.389	4.0
48.404	5.0
48.419	10.0
48.434	4.0
48.449	4.0
48.464	2.0
48.478	2.0
48.493	3.0
48.508	0.0
48.523	5.0
48.538	8.0
48.553	1.0
48.568	3.0
48.583	3.0
48.597	4.0
48.612	4.0
48.627	5.0
48.642	10.0
48.657	5.0
48.672	3.0
48.687	8.0
48.702	7.0
48.717	2.0
48.731	10.0
48.746	3.0
48.761	6.0
48.776	2.0
48.791	2.0
48.806	7.0
48.821	4.0
48.836	5.0
48.851	3.0
48.866	3.0
48.88	4.0
48.895	2.0
48.91	6.0
48.925	2.0
48.94	7.0
48.955	6.0
48.97	5.0
48.985	5.0
49.0	4.0
49.015	3.0
49.03	10.0
49.044	7.0
49.059	2.0
49.074	7.0
49.089	4.0
49.104	3.0
49.119	7.0
49.134	5.0
49.149	3.0
49.164	2.0
49.179	4.0
49.194	6.0
49.209	8.0
49.224	6.0
49.238	4.0
49.253	8.0
49.268	4.0
49.283	4.0
49.298	6.0
49.313	4.0
49.328	9.0
49.343	2.0
49.358	7.0
49.373	9.0
49.388	5.0
49.403	13.0
49.418	3.0
49.433	7.0
49.448	8.0
49.463	5.0
49.478	7.0
49.492	3.0
49.507	6.0
49.522	4.0
49.537	5.0
49.552	5.0
49.567	6.0
49.582	9.0
49.597	10.0
49.612	6.0
49.627	5.0
49.642	2.0
49.657	7.0
49.672	10.0
49.687	6.0
49.702	3.0
49.717	1.0
49.732	12.0
49.747	6.0
49.762	3.0
49.777	3.0
49.792	4.0
49.807	2.0
49.822	3.0
49.837	7.0
49.852	8.0
49.867	5.0
49.882	7.0
49.897	6.0
49.912	3.0
49.927	10.0
49.942	8.0
49.957	8.0
49.971	3.0
49.986	6.0
50.001	6.0
50.016	3.0
50.031	5.0
50.046	6.0
50.061	5.0
50.076	5.0
50.091	6.0
50.106	3.0
50.121	6.0
50.136	3.0
50.151	6.0
50.166	2.0
50.181	5.0
50.196	7.0
50.211	5.0
50.226	7.0
50.241	2.0
50.256	7.0
50.271	2.0
50.286	6.0
50.302	4.0
50.317	5.0
50.332	9.0
50.347	5.0
50.362	9.0
50.377	8.0
50.392	6.0
50.407	4.0
50.422	11.0
50.437	10.0
50.452	9.0
50.467	6.0
50.482	8.0
50.497	11.0
50.512	10.0
50.527	5.0
50.542	7.0
50.557	12.0
50.572	5.0
50.587	7.0
50.602	6.0
50.617	6.0
50.632	9.0
50.647	6.0
50.662	7.0
50.677	2.0
50.692	9.0
50.707	4.0
50.722	9.0
50.737	4.0
50.752	4.0
50.767	9.0
50.782	9.0
50.797	8.0
50.812	4.0
50.828	5.0
50.843	11.0
50.858	7.0
50.873	2.0
50.888	8.0
50.903	5.0
50.918	2.0
50.933	1.0
50.948	5.0
50.963	5.0
50.978	5.0
50.993	5.0
51.008	6.0
51.023	4.0
51.038	4.0
51.053	7.0
51.068	9.0
51.083	6.0
51.098	7.0
51.114	2.0
51.129	3.0
51.144	4.0
51.159	6.0
51.174	2.0
51.189	3.0
51.204	9.0
51.219	5.0
51.234	2.0
51.249	5.0
51.264	3.0
51.279	2.0
51.294	5.0
51.309	4.0
51.324	5.0
51.34	4.0
51.355	4.0
51.37	5.0
51.385	6.0
51.4	12.0
51.415	4.0
51.43	12.0
51.445	11.0
51.46	12.0
51.475	16.0
51.49	12.0
51.505	19.0
51.52	14.0
51.535	16.0
51.551	16.0
51.566	15.0
51.581	10.0
51.596	15.0
51.611	9.0
51.626	12.0
51.641	5.0
51.656	4.0
51.671	14.0
51.686	8.0
51.701	8.0
51.716	12.0
51.732	4.0
51.747	6.0
51.762	7.0
51.777	6.0
51.792	11.0
51.807	11.0
51.822	16.0
51.837	8.0
51.852	7.0
51.867	9.0
51.882	12.0
51.898	7.0
51.913	11.0
51.928	6.0
51.943	12.0
51.958	3.0
51.973	9.0
51.988	6.0
52.003	9.0
52.018	4.0
52.033	7.0
52.048	5.0
52.064	3.0
52.079	3.0
52.094	6.0
52.109	3.0
52.124	6.0
52.139	3.0
52.154	8.0
52.169	2.0
52.184	4.0
52.199	6.0
52.215	2.0
52.23	8.0
52.245	4.0
52.26	4.0
52.275	4.0
52.29	6.0
52.305	8.0
52.32	10.0
52.335	4.0
52.35	7.0
52.366	4.0
52.381	8.0
52.396	8.0
52.411	4.0
52.426	8.0
52.441	7.0
52.456	7.0
52.471	8.0
52.486	7.0
52.502	6.0
52.517	7.0
52.532	7.0
52.547	8.0
52.562	15.0
52.577	7.0
52.592	11.0
52.607	8.0
52.622	13.0
52.637	11.0
52.653	9.0
52.668	6.0
52.683	8.0
52.698	6.0
52.713	4.0
52.728	6.0
52.743	4.0
52.758	8.0
52.774	3.0
52.789	6.0
52.804	3.0
52.819	7.0
52.834	6.0
52.849	7.0
52.864	7.0
52.879	4.0
52.894	6.0
52.91	9.0
52.925	6.0
52.94	10.0
52.955	10.0
52.97	4.0
52.985	8.0
53.0	8.0
53.015	4.0
53.031	6.0
53.046	7.0
53.061	3.0
53.076	5.0
53.091	1.0
53.106	5.0
53.121	6.0
53.136	9.0
53.152	6.0
53.167	4.0
53.182	6.0
53.197	2.0
53.212	1.0
53.227	6.0
53.242	4.0
53.257	6.0
53.273	5.0
53.288	1.0
53.303	8.0
53.318	4.0
53.333	1.0
53.348	4.0
53.363	6.0
53.379	2.0
53.394	7.0
53.409	4.0
53.424	5.0
53.439	7.0
53.454	5.0
53.469	1.0
53.484	8.0
53.5	6.0
53.515	3.0
53.53	5.0
53.545	3.0
53.56	5.0
53.575	4.0
53.59	4.0
53.606	6.0
53.621	3.0
53.636	3.0
53.651	9.0
53.666	4.0
53.681	7.0
53.696	10.0
53.712	3.0
53.727	3.0
53.742	5.0
53.757	7.0
53.772	1.0
53.787	5.0
53.802	9.0
53.818	6.0
53.833	4.0
53.848	5.0
53.863	6.0
53.878	6.0
53.893	8.0
53.909	2.0
53.924	3.0
53.939	5.0
53.954	4.0
53.969	3.0
53.984	2.0
53.999	5.0
54.015	4.0
54.03	3.0
54.045	0.0
54.06	2.0
54.075	7.0
54.09	6.0
54.106	5.0
54.121	3.0
54.136	5.0
54.151	6.0
54.166	3.0
54.181	4.0
54.197	9.0
54.212	4.0
54.227	9.0
54.242	4.0
54.257	6.0
54.272	7.0
54.288	1.0
54.303	6.0
54.318	4.0
54.333	6.0
54.348	5.0
54.363	9.0
54.379	2.0
54.394	6.0
54.409	5.0
54.424	4.0
54.439	1.0
54.454	9.0
54.47	10.0
54.485	9.0
54.5	4.0
54.515	2.0
54.53	10.0
54.545	3.0
54.561	9.0
54.576	7.0
54.591	13.0
54.606	9.0
54.621	12.0
54.636	13.0
54.652	11.0
54.667	7.0
54.682	8.0
54.697	6.0
54.712	10.0
54.727	14.0
54.743	15.0
54.758	7.0
54.773	9.0
54.788	9.0
54.803	5.0
54.819	5.0
54.834	11.0
54.849	3.0
54.864	8.0
54.879	3.0
54.894	11.0
54.91	7.0
54.925	10.0
54.94	12.0
54.955	12.0
54.97	10.0
54.985	4.0
55.001	9.0
55.016	4.0
55.031	9.0
55.046	9.0
55.061	12.0
55.077	6.0
55.092	6.0
55.107	7.0
55.122	5.0
55.137	4.0
55.152	8.0
55.168	3.0
55.183	4.0
55.198	6.0
55.213	6.0
55.228	3.0
55.243	8.0
55.259	3.0
55.274	3.0
55.289	5.0
55.304	3.0
55.319	4.0
55.335	1.0
55.35	8.0
55.365	3.0
55.38	4.0
55.395	5.0
55.41	4.0
55.426	9.0
55.441	4.0
55.456	7.0
55.471	3.0
55.486	6.0
55.501	1.0
55.517	5.0
55.532	6.0
55.547	5.0
55.562	6.0
55.577	4.0
55.592	5.0
55.608	4.0
55.623	6.0
55.638	6.0
55.653	9.0
55.668	15.0
55.683	12.0
55.699	8.0
55.714	8.0
55.729	5.0
55.744	6.0
55.759	7.0
55.774	8.0
55.79	6.0
55.805	4.0
55.82	3.0
55.835	3.0
55.85	1.0
55.865	5.0
55.881	1.0
55.896	5.0
55.911	6.0
55.926	8.0
55.941	8.0
55.956	6.0
55.972	5.0
55.987	6.0
56.002	4.0
56.017	6.0
56.032	5.0
56.047	6.0
56.063	6.0
56.078	5.0
56.093	5.0
56.108	6.0
56.123	7.0
56.138	3.0
56.154	7.0
56.169	4.0
56.184	4.0
56.199	4.0
56.214	4.0
56.229	1.0
56.244	9.0
56.26	5.0
56.275	8.0
56.29	3.0
56.305	6.0
56.32	7.0
56.335	5.0
56.351	5.0
56.366	3.0
56.381	3.0
56.396	3.0
56.411	9.0
56.426	3.0
56.441	6.0
56.457	3.0
56.472	2.0
56.487	2.0
56.502	4.0
56.517	4.0
56.532	3.0
56.547	3.0
56.563	2.0
56.578	3.0
56.593	4.0
56.608	7.0
56.623	1.0
56.638	5.0
56.653	3.0
56.668	9.0
56.684	2.0
56.699	3.0
56.714	6.0
56.729	8.0
56.744	8.0
56.759	2.0
56.774	5.0
56.79	4.0
56.805	5.0
56.82	6.0
56.835	5.0
56.85	5.0
56.865	5.0
56.88	5.0
56.895	1.0
56.911	6.0
56.926	5.0
56.941	5.0
56.956	7.0
56.971	2.0
56.986	4.0
57.001	6.0
57.016	1.0
57.031	7.0
57.047	2.0
57.062	11.0
57.077	4.0
57.092	4.0
57.107	1.0
57.122	6.0
57.137	5.0
57.152	1.0
57.167	3.0
57.183	2.0
57.198	4.0
57.213	3.0
57.228	4.0
57.243	1.0
57.258	2.0
57.273	6.0
57.288	2.0
57.303	4.0
57.318	3.0
57.334	5.0
57.349	4.0
57.364	6.0
57.379	4.0
57.394	6.0
57.409	3.0
57.424	4.0
57.439	4.0
57.454	5.0
57.469	6.0
57.484	5.0
57.5	1.0
57.515	3.0
57.53	4.0
57.545	6.0
57.56	7.0
57.575	5.0
57.59	2.0
57.605	0.0
57.62	6.0
57.635	16.0
57.65	6.0
57.665	5.0
57.68	6.0
57.696	5.0
57.711	6.0
57.726	6.0
57.741	2.0
57.756	6.0
57.771	2.0
57.786	3.0
57.801	3.0
57.816	7.0
57.831	4.0
57.846	7.0
57.861	2.0
57.876	3.0
57.891	7.0
57.906	5.0
57.921	2.0
57.937	4.0
57.952	11.0
57.967	2.0
57.982	3.0
57.997	8.0
58.012	5.0
58.027	7.0
58.042	7.0
58.057	6.0
58.072	7.0
58.087	3.0
58.102	4.0
58.117	3.0
58.132	2.0
58.147	10.0
58.162	4.0
58.177	5.0
58.192	4.0
58.207	3.0
58.222	5.0
58.237	7.0
58.252	7.0
58.267	7.0
58.282	7.0
58.297	3.0
58.312	7.0
58.327	4.0
58.342	4.0
58.357	2.0
58.372	1.0
58.387	6.0
58.402	10.0
58.418	6.0
58.433	5.0
58.448	4.0
58.463	6.0
58.478	3.0
58.493	5.0
58.508	4.0
58.523	6.0
58.538	11.0
58.553	6.0
58.568	3.0
58.583	8.0
58.598	14.0
58.613	6.0
58.628	6.0
58.643	7.0
58.658	10.0
58.673	10.0
58.688	11.0
58.703	7.0
58.718	6.0
58.733	10.0
58.748	4.0
58.763	5.0
58.778	4.0
58.793	2.0
58.808	4.0
58.823	5.0
58.838	2.0
58.853	8.0
58.868	4.0
58.883	3.0
58.898	4.0
58.913	10.0
58.928	5.0
58.942	2.0
58.957	4.0
58.972	8.0
58.987	6.0
59.002	8.0
59.017	7.0
59.032	4.0
59.047	9.0
59.062	6.0
59.077	7.0
59.092	7.0
59.107	4.0
59.122	8.0
59.137	5.0
59.152	5.0
59.167	8.0
59.182	6.0
59.197	2.0
59.212	5.0
59.227	2.0
59.242	0.0
59.257	7.0
59.272	4.0
59.287	2.0
59.302	3.0
59.317	1.0
59.332	5.0
59.347	7.0
59.362	6.0
59.377	3.0
59.392	3.0
59.407	4.0
59.422	3.0
59.437	6.0
59.452	3.0
59.467	4.0
59.482	3.0
59.497	3.0
59.512	6.0
59.527	5.0
59.542	4.0
59.557	6.0
59.572	12.0
59.587	13.0
59.602	14.0
59.617	12.0
59.632	8.0
59.647	9.0
59.661	7.0
59.676	9.0
59.691	6.0
59.706	8.0
59.721	3.0
59.736	3.0
59.751	6.0
59.766	4.0
59.781	4.0
59.796	3.0
59.811	4.0
59.826	2.0
59.841	4.0
59.856	3.0
59.871	4.0
59.886	4.0
59.901	4.0
59.916	7.0
59.931	1.0
59.946	2.0
59.961	8.0
59.976	5.0
59.991	5.0
60.006	3.0
60.021	6.0
60.036	4.0
60.051	6.0
60.066	3.0
60.081	5.0
60.096	4.0
60.111	3.0
60.126	4.0
60.141	6.0
60.156	7.0
60.171	4.0
60.186	5.0
60.201	5.0
60.216	3.0
60.231	3.0
60.246	1.0
60.261	3.0
60.276	2.0
60.291	2.0
60.306	4.0
60.321	3.0
60.336	6.0
60.35	5.0
60.365	8.0
60.38	5.0
60.395	7.0
60.41	4.0
60.425	7.0
60.44	7.0
60.455	3.0
60.47	5.0
60.485	6.0
60.5	4.0
60.515	10.0
60.53	9.0
60.545	9.0
60.56	6.0
60.575	6.0
60.59	12.0
60.605	6.0
60.62	6.0
60.635	6.0
60.65	5.0
60.665	3.0
60.68	6.0
60.695	6.0
60.71	3.0
60.725	5.0
60.74	7.0
60.755	7.0
60.77	1.0
60.785	3.0
60.8	3.0
60.815	3.0
60.83	3.0
60.845	7.0
60.86	4.0
60.875	2.0
60.89	1.0
60.905	6.0
60.92	6.0
60.935	3.0
60.95	4.0
60.965	7.0
60.98	7.0
60.995	6.0
61.01	1.0
61.025	9.0
61.04	4.0
61.055	3.0
61.07	6.0
61.085	2.0
61.1	3.0
61.115	2.0
61.13	5.0
61.145	3.0
61.16	8.0
61.175	6.0
61.191	1.0
61.206	1.0
61.221	6.0
61.236	5.0
61.251	3.0
61.266	4.0
61.281	7.0
61.296	6.0
61.311	5.0
61.326	6.0
61.341	8.0
61.356	0.0
61.371	7.0
61.386	2.0
61.401	8.0
61.416	5.0
61.431	3.0
61.446	5.0
61.461	5.0
61.476	5.0
61.491	3.0
61.506	4.0
61.521	8.0
61.536	7.0
61.551	9.0
61.566	9.0
61.581	5.0
61.596	3.0
61.611	2.0
61.626	5.0
61.641	7.0
61.656	4.0
61.672	5.0
61.687	4.0
61.702	4.0
61.717	4.0
61.732	0.0
61.747	3.0
61.762	7.0
61.777	3.0
61.792	2.0
61.807	8.0
61.822	4.0
61.837	4.0
61.852	2.0
61.867	5.0
61.882	8.0
61.897	0.0
61.912	4.0
61.927	6.0
61.943	3.0
61.958	3.0
61.973	4.0
61.988	8.0
62.003	8.0
62.018	2.0
62.033	6.0
62.048	5.0
62.063	4.0
62.078	6.0
62.093	1.0
62.108	3.0
62.123	5.0
62.138	3.0
62.153	2.0
62.169	2.0
62.184	3.0
62.199	7.0
62.214	4.0
62.229	5.0
62.244	2.0
62.259	4.0
62.274	3.0
62.289	6.0
62.304	1.0
62.319	5.0
62.335	2.0
62.35	2.0
62.365	1.0
62.38	4.0
62.395	4.0
62.41	4.0
62.425	6.0
62.44	2.0
62.455	4.0
62.47	9.0
62.485	6.0
62.501	4.0
62.516	7.0
62.531	10.0
62.546	4.0
62.561	1.0
62.576	6.0
62.591	4.0
62.606	2.0
62.621	3.0
62.636	1.0
62.652	6.0
62.667	0.0
62.682	3.0
62.697	4.0
62.712	5.0
62.727	3.0
62.742	3.0
62.757	5.0
62.772	2.0
62.787	3.0
62.803	3.0
62.818	7.0
62.833	6.0
62.848	7.0
62.863	3.0
62.878	4.0
62.893	6.0
62.908	4.0
62.923	4.0
62.939	4.0
62.954	0.0
62.969	8.0
62.984	4.0
62.999	3.0
63.014	3.0
63.029	8.0
63.044	2.0
63.059	6.0
63.074	5.0
63.09	4.0
63.105	6.0
63.12	4.0
63.135	1.0
63.15	5.0
63.165	3.0
63.18	3.0
63.195	4.0
63.21	3.0
63.226	8.0
63.241	4.0
63.256	3.0
63.271	3.0
63.286	5.0
63.301	3.0
63.316	9.0
63.331	2.0
63.346	6.0
63.362	6.0
63.377	7.0
63.392	4.0
63.407	4.0
63.422	6.0
63.437	6.0
63.452	10.0
63.467	6.0
63.482	5.0
63.497	3.0
63.513	8.0
63.528	7.0
63.543	3.0
63.558	3.0
63.573	1.0
63.588	4.0
63.603	2.0
63.618	3.0
63.633	1.0
63.648	3.0
63.664	5.0
63.679	0.0
63.694	2.0
63.709	4.0
63.724	6.0
63.739	7.0
63.754	6.0
63.769	3.0
63.784	6.0
63.799	6.0
63.814	6.0
63.83	6.0
63.845	5.0
63.86	7.0
63.875	4.0
63.89	4.0
63.905	10.0
63.92	8.0
63.935	7.0
63.95	1.0
63.965	3.0
63.98	2.0
63.996	9.0
64.011	2.0
64.026	3.0
64.041	4.0
64.056	3.0
64.071	4.0
64.086	2.0
64.101	5.0
64.116	2.0
64.131	2.0
64.146	4.0
64.161	5.0
64.176	8.0
64.191	2.0
64.207	9.0
64.222	8.0
64.237	6.0
64.252	4.0
64.267	3.0
64.282	3.0
64.297	3.0
64.312	1.0
64.327	4.0
64.342	3.0
64.357	8.0
64.372	4.0
64.387	2.0
64.402	6.0
64.417	4.0
64.433	4.0
64.448	3.0
64.463	4.0
64.478	4.0
64.493	3.0
64.508	4.0
64.523	3.0
64.538	3.0
64.553	6.0
64.568	3.0
64.583	3.0
64.598	3.0
64.613	1.0
64.628	4.0
64.643	4.0
64.658	3.0
64.673	3.0
64.688	5.0
64.703	3.0
64.718	4.0
64.734	5.0
64.749	1.0
64.764	4.0
64.779	8.0
64.794	3.0
64.809	5.0
64.824	2.0
64.839	6.0
64.854	3.0
64.869	4.0
64.884	2.0
64.899	4.0
64.914	3.0
64.929	4.0
64.944	3.0
64.959	0.0
64.974	2.0
64.989	4.0
65.004	4.0
65.019	7.0
65.034	0.0
65.049	2.0
65.064	3.0
65.079	3.0
65.094	3.0
65.109	4.0
65.125	6.0
65.14	3.0
65.155	2.0
65.17	2.0
65.185	4.0
65.2	2.0
65.215	1.0
65.23	5.0
65.245	0.0
65.26	5.0
65.275	7.0
65.29	4.0
65.305	6.0
65.32	2.0
65.335	9.0
65.35	5.0
65.365	6.0
65.38	3.0
65.395	6.0
65.41	5.0
65.425	3.0
65.44	4.0
65.455	3.0
65.47	5.0
65.485	3.0
65.5	3.0
65.515	5.0
65.53	5.0
65.545	2.0
65.56	4.0
65.575	7.0
65.59	4.0
65.605	4.0
65.62	2.0
65.635	2.0
65.65	5.0
65.666	7.0
65.681	5.0
65.696	12.0
65.711	4.0
65.726	4.0
65.741	4.0
65.756	2.0
65.771	5.0
65.786	7.0
65.801	5.0
65.816	4.0
65.831	4.0
65.846	5.0
65.861	5.0
65.876	4.0
65.891	1.0
65.906	3.0
65.921	5.0
65.936	4.0
65.951	4.0
65.966	2.0
65.981	6.0
65.996	5.0
66.011	6.0
66.026	5.0
66.041	5.0
66.056	8.0
66.071	6.0
66.086	6.0
66.101	5.0
66.116	3.0
66.131	2.0
66.146	1.0
66.161	3.0
66.176	8.0
66.191	5.0
66.206	10.0
66.221	8.0
66.236	6.0
66.251	11.0
66.266	5.0
66.281	7.0
66.296	2.0
66.311	2.0
66.327	4.0
66.342	2.0
66.357	1.0
66.372	5.0
66.387	3.0
66.402	7.0
66.417	0.0
66.432	5.0
66.447	7.0
66.462	5.0
66.477	3.0
66.492	5.0
66.507	3.0
66.522	2.0
66.537	8.0
66.552	5.0
66.567	5.0
66.582	6.0
66.597	6.0
66.612	9.0
66.627	8.0
66.642	9.0
66.657	9.0
66.672	9.0
66.687	7.0
66.702	2.0
66.717	4.0
66.732	2.0
66.747	4.0
66.762	7.0
66.777	3.0
66.792	7.0
66.807	3.0
66.822	2.0
66.837	9.0
66.853	2.0
66.868	4.0
66.883	4.0
66.898	5.0
66.913	1.0
66.928	3.0
66.943	4.0
66.958	6.0
66.973	5.0
66.988	2.0
67.003	3.0
67.018	7.0
67.033	5.0
67.048	9.0
67.063	7.0
67.078	2.0
67.093	4.0
67.108	4.0
67.123	4.0
67.138	10.0
67.153	1.0
67.168	8.0
67.183	6.0
67.198	6.0
67.214	4.0
67.229	6.0
67.244	0.0
67.259	5.0
67.274	4.0
67.289	2.0
67.304	3.0
67.319	3.0
67.334	2.0
67.349	5.0
67.364	1.0
67.379	7.0
67.394	9.0
67.409	5.0
67.424	4.0
67.439	1.0
67.454	5.0
67.469	5.0
67.484	6.0
67.5	3.0
67.515	4.0
67.53	1.0
67.545	5.0
67.56	4.0
67.575	3.0
67.59	4.0
67.605	11.0
67.62	7.0
67.635	3.0
67.65	2.0
67.665	2.0
67.68	6.0
67.695	10.0
67.71	5.0
67.726	5.0
67.741	1.0
67.756	2.0
67.771	7.0
67.786	9.0
67.801	2.0
67.816	2.0
67.831	3.0
67.846	7.0
67.861	5.0
67.876	2.0
67.891	2.0
67.906	2.0
67.922	1.0
67.937	3.0
67.952	7.0
67.967	5.0
67.982	7.0
67.997	3.0
68.012	6.0
68.027	1.0
68.042	1.0
68.057	7.0
68.072	6.0
68.087	4.0
68.103	0.0
68.118	7.0
68.133	4.0
68.148	0.0
68.163	1.0
68.178	1.0
68.193	3.0
68.208	2.0
68.223	4.0
68.238	0.0
68.254	6.0
68.269	3.0
68.284	3.0
68.299	5.0
68.314	3.0
68.329	7.0
68.344	5.0
68.359	7.0
68.374	4.0
68.389	3.0
68.405	3.0
68.42	1.0
68.435	5.0
68.45	5.0
68.465	1.0
68.48	5.0
68.495	0.0
68.51	3.0
68.525	4.0
68.54	4.0
68.556	4.0
68.571	5.0
68.586	4.0
68.601	2.0
68.616	5.0
68.631	3.0
68.646	2.0
68.661	2.0
68.676	0.0
68.691	7.0
68.707	1.0
68.722	1.0
68.737	4.0
68.752	1.0
68.767	1.0
68.782	9.0
68.797	4.0
68.812	9.0
68.827	3.0
68.842	4.0
68.857	0.0
68.873	4.0
68.888	2.0
68.903	3.0
68.918	7.0
68.933	2.0
68.948	8.0
68.963	2.0
68.978	3.0
68.993	0.0
69.008	4.0
69.023	2.0
69.038	5.0
69.054	8.0
69.069	8.0
69.084	2.0
69.099	3.0
69.114	2.0
69.129	6.0
69.144	4.0
69.159	3.0
69.174	8.0
69.189	0.0
69.204	1.0
69.219	2.0
69.234	3.0
69.249	4.0
69.264	7.0
69.279	6.0
69.295	7.0
69.31	5.0
69.325	7.0
69.34	3.0
69.355	2.0
69.37	6.0
69.385	7.0
69.4	2.0
69.415	6.0
69.43	2.0
69.445	1.0
69.46	6.0
69.475	2.0
69.49	4.0
69.505	4.0
69.52	4.0
69.535	2.0
69.55	3.0
69.565	3.0
69.58	2.0
69.595	3.0
69.61	3.0
69.625	4.0
69.64	3.0
69.655	3.0
69.67	3.0
69.685	3.0
69.7	2.0
69.715	6.0
69.73	6.0
69.745	6.0
69.76	6.0
69.775	9.0
69.79	16.0
69.805	12.0
69.82	10.0
69.835	8.0
69.85	3.0
69.865	4.0
69.88	4.0
69.895	7.0
69.909	3.0
69.924	3.0
69.939	5.0
69.954	2.0
69.969	4.0
69.984	4.0
69.999	2.0
70.014	4.0
70.029	1.0
70.044	5.0
70.059	6.0
70.074	4.0
70.088	2.0
70.103	5.0
70.118	2.0
70.133	4.0
70.148	5.0
70.163	5.0
70.178	4.0
70.193	5.0
70.208	4.0
70.222	6.0
70.237	10.0
70.252	2.0
70.267	6.0
70.282	8.0
70.297	8.0
70.312	3.0
70.327	3.0
70.341	6.0
70.356	2.0
70.371	3.0
70.386	7.0
70.401	2.0
70.416	4.0
70.43	3.0
70.445	4.0
70.46	4.0
70.475	2.0
70.49	5.0
70.505	7.0
70.519	0.0
70.534	2.0
70.549	5.0
70.564	3.0
70.579	2.0
70.594	3.0
70.608	6.0
70.623	6.0
70.638	4.0
70.653	10.0
70.668	11.0
70.683	3.0
70.697	1.0
70.712	5.0
70.727	2.0
70.742	5.0
70.757	6.0
70.771	9.0
70.786	3.0
70.801	5.0
70.816	3.0
70.831	7.0
70.845	4.0
70.86	2.0
70.875	7.0
70.89	3.0
70.905	2.0
70.92	3.0
70.934	0.0
70.949	4.0
70.964	2.0
70.979	7.0
70.994	4.0
71.008	2.0
71.023	3.0
71.038	4.0
71.053	6.0
71.068	6.0
71.082	2.0
71.097	6.0
71.112	5.0
71.127	2.0
71.142	3.0
71.156	4.0
71.171	1.0
71.186	9.0
71.201	5.0
71.216	2.0
71.231	6.0
71.245	3.0
71.26	5.0
71.275	4.0
71.29	2.0
71.305	2.0
71.319	3.0
71.334	2.0
71.349	5.0
71.364	4.0
71.379	5.0
71.394	3.0
71.408	4.0
71.423	4.0
71.438	3.0
71.453	2.0
71.468	5.0
71.483	1.0
71.497	6.0
71.512	3.0
71.527	3.0
71.542	6.0
71.557	3.0
71.572	5.0
71.586	8.0
71.601	4.0
71.616	4.0
71.631	1.0
71.646	3.0
71.661	0.0
71.676	2.0
71.69	1.0
71.705	2.0
71.72	2.0
71.735	6.0
71.75	4.0
71.765	1.0
71.78	0.0
71.795	0.0
71.81	3.0
71.824	4.0
71.839	4.0
71.854	0.0
71.869	7.0
71.884	2.0
71.899	4.0
71.914	2.0
71.929	1.0
71.944	4.0
71.959	3.0
71.974	7.0
71.988	2.0
72.003	0.0
72.018	3.0
72.033	4.0
72.048	5.0
72.063	1.0
72.078	1.0
72.093	3.0
72.108	3.0
72.123	4.0
72.138	2.0
72.153	1.0
72.168	4.0
72.183	2.0
72.198	3.0
72.213	3.0
72.228	4.0
72.243	5.0
72.258	0.0
72.273	2.0
72.288	2.0
72.303	4.0
72.318	1.0
72.333	3.0
72.348	2.0
72.363	1.0
72.378	7.0
72.393	1.0
72.408	5.0
72.423	5.0
72.438	3.0
72.453	7.0
72.468	4.0
72.483	5.0
72.498	6.0
72.513	3.0
72.528	3.0
72.543	0.0
72.558	7.0
72.573	4.0
72.588	5.0
72.603	1.0
72.618	4.0
72.633	6.0
72.649	1.0
72.664	4.0
72.679	2.0
72.694	6.0
72.709	6.0
72.724	1.0
72.739	3.0
72.754	5.0
72.769	4.0
72.784	4.0
72.799	5.0
72.814	2.0
72.829	6.0
72.845	2.0
72.86	6.0
72.875	2.0
72.89	2.0
72.905	2.0
72.92	2.0
72.935	2.0
72.95	6.0
72.965	1.0
72.98	4.0
72.996	4.0
73.011	4.0
73.026	4.0
73.041	2.0
73.056	5.0
73.071	4.0
73.086	6.0
73.101	4.0
73.117	3.0
73.132	2.0
73.147	2.0
73.162	2.0
73.177	2.0
73.192	5.0
73.207	4.0
73.222	5.0
73.238	4.0
73.253	3.0
73.268	3.0
73.283	4.0
73.298	4.0
73.313	2.0
73.328	4.0
73.343	9.0
73.359	5.0
73.374	6.0
73.389	3.0
73.404	5.0
73.419	4.0
73.434	3.0
73.449	1.0
73.465	5.0
73.48	1.0
73.495	5.0
73.51	3.0
73.525	6.0
73.54	3.0
73.556	2.0
73.571	4.0
73.586	6.0
73.601	4.0
73.616	5.0
73.631	7.0
73.646	3.0
73.662	4.0
73.677	2.0
73.692	1.0
73.707	4.0
73.722	5.0
73.737	4.0
73.752	3.0
73.768	3.0
73.783	4.0
73.798	4.0
73.813	2.0
73.828	1.0
73.843	0.0
73.859	3.0
73.874	1.0
73.889	5.0
73.904	3.0
73.919	4.0
73.934	2.0
73.949	5.0
73.965	5.0
73.98	1.0
73.995	6.0
74.01	2.0
74.025	3.0
74.04	1.0
74.056	5.0
74.071	3.0
74.086	2.0
74.101	2.0
74.116	6.0
74.131	2.0
74.146	4.0
74.162	3.0
74.177	5.0
74.192	6.0
74.207	4.0
74.222	6.0
74.237	11.0
74.252	6.0
74.268	2.0
74.283	3.0
74.298	7.0
74.313	1.0
74.328	6.0
74.343	7.0
74.358	5.0
74.374	1.0
74.389	4.0
74.404	2.0
74.419	3.0
74.434	2.0
74.449	5.0
74.464	2.0
74.48	1.0
74.495	0.0
74.51	3.0
74.525	3.0
74.54	3.0
74.555	3.0
74.57	3.0
74.586	2.0
74.601	4.0
74.616	5.0
74.631	5.0
74.646	6.0
74.661	5.0
74.676	2.0
74.691	3.0
74.707	2.0
74.722	7.0
74.737	8.0
74.752	5.0
74.767	5.0
74.782	4.0
74.797	3.0
74.813	5.0
74.828	2.0
74.843	2.0
74.858	7.0
74.873	1.0
74.888	4.0
74.903	3.0
74.918	0.0
74.934	8.0
74.949	3.0
74.964	3.0
74.979	4.0
74.994	1.0
75.009	9.0
75.024	3.0
75.04	3.0
75.055	5.0
75.07	5.0
75.085	4.0
75.1	4.0
75.115	2.0
75.13	8.0
75.145	5.0
75.161	5.0
75.176	2.0
75.191	4.0
75.206	2.0
75.221	4.0
75.236	2.0
75.251	5.0
75.266	2.0
75.282	4.0
75.297	2.0
75.312	6.0
75.327	3.0
75.342	5.0
75.357	4.0
75.372	2.0
75.387	4.0
75.403	1.0
75.418	3.0
75.433	1.0
75.448	1.0
75.463	4.0
75.478	3.0
75.493	3.0
75.509	1.0
75.524	1.0
75.539	2.0
75.554	2.0
75.569	6.0
75.584	4.0
75.599	3.0
75.614	3.0
75.63	4.0
75.645	2.0
75.66	4.0
75.675	6.0
75.69	3.0
75.705	4.0
75.72	3.0
75.735	1.0
75.751	4.0
75.766	4.0
75.781	3.0
75.796	3.0
75.811	1.0
75.826	5.0
75.841	9.0
75.856	0.0
75.872	2.0
75.887	5.0
75.902	5.0
75.917	6.0
75.932	2.0
75.947	2.0
75.962	5.0
75.977	3.0
75.993	4.0
76.008	2.0
76.023	5.0
76.038	1.0
76.053	5.0
76.068	1.0
76.083	5.0
76.098	5.0
76.114	4.0
76.129	5.0
76.144	4.0
76.159	5.0
76.174	4.0
76.189	3.0
76.204	7.0
76.22	2.0
76.235	7.0
76.25	7.0
76.265	3.0
76.28	3.0
76.295	6.0
76.31	5.0
76.325	3.0
76.341	3.0
76.356	5.0
76.371	4.0
76.386	6.0
76.401	1.0
76.416	4.0
76.431	5.0
76.446	3.0
76.462	0.0
76.477	5.0
76.492	7.0
76.507	4.0
76.522	1.0
76.537	4.0
76.552	3.0
76.567	6.0
76.583	4.0
76.598	3.0
76.613	4.0
76.628	4.0
76.643	4.0
76.658	1.0
76.673	4.0
76.688	2.0
76.704	2.0
76.719	4.0
76.734	7.0
76.749	2.0
76.764	8.0
76.779	9.0
76.794	5.0
76.809	5.0
76.824	2.0
76.84	8.0
76.855	8.0
76.87	10.0
76.885	3.0
76.9	8.0
76.915	1.0
76.93	4.0
76.945	3.0
76.96	5.0
76.976	4.0
76.991	2.0
77.006	2.0
77.021	1.0
77.036	7.0
77.051	2.0
77.066	4.0
77.081	3.0
77.096	2.0
77.112	2.0
77.127	4.0
77.142	1.0
77.157	5.0
77.172	3.0
77.187	5.0
77.202	4.0
77.217	2.0
77.232	4.0
77.247	2.0
77.263	0.0
77.278	4.0
77.293	3.0
77.308	4.0
77.323	3.0
77.338	3.0
77.353	4.0
77.368	4.0
77.383	2.0
77.398	2.0
77.413	2.0
77.428	3.0
77.444	5.0
77.459	0.0
77.474	3.0
77.489	3.0
77.504	8.0
77.519	3.0
77.534	5.0
77.549	8.0
77.564	3.0
77.579	4.0
77.594	7.0
77.609	4.0
77.624	7.0
77.64	5.0
77.655	4.0
77.67	3.0
77.685	7.0
77.7	2.0
77.715	4.0
77.73	2.0
77.745	1.0
77.76	1.0
77.775	6.0
77.79	6.0
77.805	2.0
77.82	4.0
77.835	5.0
77.85	7.0
77.865	3.0
77.88	6.0
77.895	5.0
77.91	0.0
77.926	4.0
77.941	3.0
77.956	4.0
77.971	4.0
77.986	6.0
78.001	2.0
78.016	1.0
78.031	1.0
78.046	3.0
78.061	2.0
78.076	5.0
78.091	2.0
78.106	3.0
78.121	6.0
78.136	2.0
78.151	1.0
78.166	1.0
78.181	4.0
78.196	5.0
78.211	4.0
78.226	3.0
78.241	2.0
78.256	4.0
78.271	4.0
78.286	6.0
78.301	1.0
78.316	2.0
78.331	5.0
78.346	3.0
78.361	4.0
78.376	1.0
78.391	5.0
78.406	5.0
78.421	2.0
78.436	1.0
78.451	1.0
78.466	4.0
78.481	4.0
78.496	4.0
78.511	1.0
78.526	3.0
78.541	3.0
78.556	2.0
78.571	6.0
78.586	1.0
78.601	4.0
78.616	2.0
78.631	6.0
78.646	3.0
78.661	1.0
78.676	2.0
78.691	2.0
78.706	3.0
78.721	3.0
78.736	1.0
78.751	1.0
78.766	1.0
78.781	1.0
78.796	1.0
78.811	2.0
78.826	0.0
78.841	2.0
78.856	4.0
78.871	1.0
78.885	4.0
78.9	4.0
78.915	7.0
78.93	3.0
78.945	1.0
78.96	1.0
78.975	5.0
78.99	3.0
79.005	0.0
79.02	4.0
79.035	2.0
79.05	8.0
79.065	3.0
79.08	3.0
79.095	0.0
79.11	2.0
79.125	2.0
79.14	3.0
79.155	4.0
79.17	6.0
79.185	5.0
79.2	2.0
79.215	3.0
79.23	3.0
79.245	6.0
79.26	5.0
79.275	4.0
79.29	2.0
79.304	8.0
79.319	4.0
79.334	1.0
79.349	4.0
79.364	2.0
79.379	4.0
79.394	2.0
79.409	7.0
79.424	3.0
79.439	3.0
79.454	5.0
79.469	3.0
79.484	2.0
79.499	5.0
79.514	1.0
79.529	2.0
79.544	3.0
79.559	4.0
79.574	6.0
79.589	2.0
79.604	4.0
79.619	1.0
79.634	4.0
79.649	3.0
79.664	1.0
79.679	3.0
79.693	7.0
79.708	4.0
79.723	3.0
79.738	2.0
79.753	2.0
79.768	2.0
79.783	4.0
79.798	3.0
79.813	2.0
79.828	5.0
79.843	7.0
79.858	1.0
79.873	3.0
79.888	4.0
79.903	8.0
79.918	6.0
79.933	5.0
79.948	2.0
79.963	3.0
79.978	1.0
79.993	0.0
80.008	2.0
80.023	6.0
80.038	3.0
80.053	4.0
80.068	2.0
80.083	3.0
80.098	5.0
80.113	2.0
80.128	3.0
80.143	4.0
80.158	1.0
80.173	3.0
80.188	2.0
80.202	4.0
80.217	5.0
80.232	0.0
80.247	7.0
80.262	3.0
80.277	5.0
80.292	5.0
80.307	3.0
80.322	2.0
80.337	3.0
80.352	6.0
80.367	3.0
80.382	2.0
80.397	3.0
80.412	0.0
80.427	3.0
80.442	0.0
80.457	4.0
80.472	3.0
80.487	1.0
80.502	4.0
80.517	3.0
80.532	1.0
80.547	3.0
80.562	1.0
80.577	0.0
80.592	4.0
80.607	3.0
80.622	4.0
80.637	0.0
80.652	3.0
80.667	7.0
80.682	2.0
80.697	3.0
80.712	0.0
80.727	3.0
80.742	5.0
80.757	3.0
80.772	2.0
80.787	3.0
80.802	8.0
80.817	4.0
80.832	3.0
80.847	0.0
80.862	4.0
80.877	2.0
80.892	5.0
80.907	4.0
80.922	3.0
80.937	1.0
80.952	3.0
80.967	1.0
80.982	3.0
80.997	1.0
81.012	3.0
81.027	2.0
81.042	5.0
81.057	11.0
81.072	4.0
81.087	2.0
81.101	2.0
81.116	3.0
81.131	4.0
81.146	2.0
81.161	4.0
81.176	2.0
81.191	4.0
81.206	1.0
81.221	0.0
81.236	4.0
81.251	5.0
81.266	0.0
81.281	2.0
81.296	4.0
81.311	4.0
81.326	4.0
81.341	1.0
81.356	0.0
81.371	3.0
81.386	2.0
81.401	3.0
81.416	2.0
81.431	2.0
81.446	3.0
81.461	5.0
81.476	1.0
81.491	3.0
81.506	1.0
81.521	6.0
81.536	5.0
81.55	3.0
81.565	2.0
81.58	5.0
81.595	7.0
81.61	7.0
81.625	2.0
81.64	2.0
81.655	7.0
81.67	0.0
81.685	5.0
81.7	3.0
81.715	1.0
81.73	5.0
81.745	5.0
81.76	5.0
81.775	2.0
81.79	3.0
81.805	5.0
81.819	2.0
81.834	3.0
81.849	10.0
81.864	4.0
81.879	5.0
81.894	4.0
81.909	5.0
81.924	4.0
81.939	4.0
81.954	4.0
81.969	4.0
81.984	4.0
81.999	5.0
82.013	5.0
82.028	3.0
82.043	1.0
82.058	2.0
82.073	6.0
82.088	1.0
82.103	3.0
82.118	1.0
82.133	3.0
82.148	3.0
82.163	2.0
82.177	4.0
82.192	2.0
82.207	4.0
82.222	3.0
82.237	0.0
82.252	4.0
82.267	5.0
82.282	4.0
82.297	2.0
82.312	4.0
82.326	2.0
82.341	2.0
82.356	7.0
82.371	4.0
82.386	0.0
82.401	4.0
82.416	1.0
82.431	1.0
82.445	3.0
82.46	6.0
82.475	4.0
82.49	7.0
82.505	6.0
82.52	5.0
82.535	1.0
82.55	3.0
82.565	2.0
82.579	3.0
82.594	6.0
82.609	4.0
82.624	2.0
82.639	5.0
82.654	1.0
82.669	1.0
82.684	2.0
82.698	7.0
82.713	3.0
82.728	2.0
82.743	6.0
82.758	3.0
82.773	6.0
82.788	1.0
82.803	5.0
82.817	2.0
82.832	2.0
82.847	2.0
82.862	1.0
82.877	0.0
82.892	0.0
82.907	2.0
82.922	2.0
82.937	5.0
82.951	5.0
82.966	1.0
82.981	2.0
82.996	3.0
83.011	2.0
83.026	2.0
83.041	1.0
83.056	1.0
83.07	5.0
83.085	1.0
83.1	2.0
83.115	3.0
83.13	1.0
83.145	1.0
83.16	4.0
83.175	1.0
83.19	5.0
83.204	4.0
83.219	5.0
83.234	2.0
83.249	1.0
83.264	2.0
83.279	0.0
83.294	3.0
83.309	2.0
83.324	2.0
83.339	3.0
83.353	2.0
83.368	3.0
83.383	6.0
83.398	2.0
83.413	2.0
83.428	1.0
83.443	2.0
83.458	7.0
83.473	3.0
83.488	3.0
83.503	4.0
83.517	4.0
83.532	6.0
83.547	2.0
83.562	2.0
83.577	2.0
83.592	3.0
83.607	1.0
83.622	0.0
83.637	6.0
83.652	1.0
83.667	0.0
83.682	2.0
83.697	3.0
83.712	3.0
83.727	6.0
83.741	1.0
83.756	5.0
83.771	2.0
83.786	5.0
83.801	2.0
83.816	3.0
83.831	3.0
83.846	3.0
83.861	4.0
83.876	3.0
83.891	1.0
83.906	3.0
83.921	7.0
83.936	3.0
83.951	4.0
83.966	2.0
83.981	5.0
83.996	1.0
84.011	5.0
84.026	2.0
84.041	3.0
84.056	2.0
84.071	4.0
84.086	6.0
84.101	4.0
84.116	7.0
84.131	3.0
84.146	1.0
84.161	5.0
84.176	5.0
84.191	4.0
84.206	3.0
84.221	5.0
84.236	5.0
84.251	5.0
84.266	1.0
84.281	2.0
84.296	6.0
84.311	5.0
84.326	3.0
84.341	6.0
84.356	2.0
84.371	2.0
84.386	3.0
84.401	6.0
84.416	6.0
84.431	3.0
84.446	3.0
84.461	3.0
84.476	3.0
84.492	5.0
84.507	4.0
84.522	3.0
84.537	3.0
84.552	6.0
84.567	3.0
84.582	1.0
84.597	2.0
84.612	2.0
84.627	5.0
84.642	3.0
84.657	4.0
84.672	3.0
84.687	2.0
84.702	7.0
84.717	2.0
84.733	3.0
84.748	3.0
84.763	4.0
84.778	1.0
84.793	1.0
84.808	3.0
84.823	5.0
84.838	3.0
84.853	6.0
84.868	4.0
84.883	2.0
84.898	2.0
84.913	5.0
84.929	2.0
84.944	4.0
84.959	3.0
84.974	5.0
84.989	5.0
85.004	4.0
85.019	3.0
85.034	2.0
85.049	4.0
85.064	5.0
85.079	3.0
85.094	0.0
85.11	3.0
85.125	3.0
85.14	2.0
85.155	4.0
85.17	6.0
85.185	4.0
85.2	4.0
85.215	3.0
85.23	1.0
85.245	4.0
85.26	2.0
85.276	3.0
85.291	4.0
85.306	3.0
85.321	2.0
85.336	1.0
85.351	2.0
85.366	4.0
85.381	1.0
85.396	1.0
85.411	2.0
85.426	2.0
85.441	3.0
85.457	4.0
85.472	1.0
85.487	6.0
85.502	2.0
85.517	1.0
85.532	0.0
85.547	3.0
85.562	2.0
85.577	6.0
85.592	2.0
85.607	8.0
85.622	1.0
85.637	1.0
85.653	2.0
85.668	4.0
85.683	0.0
85.698	3.0
85.713	1.0
85.728	5.0
85.743	7.0
85.758	2.0
85.773	5.0
85.788	3.0
85.803	1.0
85.818	4.0
85.833	4.0
85.848	1.0
85.863	3.0
85.879	1.0
85.894	4.0
85.909	4.0
85.924	1.0
85.939	3.0
85.954	3.0
85.969	5.0
85.984	2.0
85.999	5.0
86.014	1.0
86.029	2.0
86.044	5.0
86.059	5.0
86.074	6.0
86.089	1.0
86.104	2.0
86.119	1.0
86.134	4.0
86.149	3.0
86.164	1.0
86.179	1.0
86.194	2.0
86.209	2.0
86.224	2.0
86.239	1.0
86.254	4.0
86.269	3.0
86.284	1.0
86.299	2.0
86.314	2.0
86.33	4.0
86.345	1.0
86.36	5.0
86.375	2.0
86.39	2.0
86.405	0.0
86.42	3.0
86.435	1.0
86.45	4.0
86.465	5.0
86.48	3.0
86.495	1.0
86.51	5.0
86.525	6.0
86.54	1.0
86.555	4.0
86.57	5.0
86.585	3.0
86.6	6.0
86.615	4.0
86.63	3.0
86.645	3.0
86.659	2.0
86.674	3.0
86.689	7.0
86.704	4.0
86.719	2.0
86.734	4.0
86.749	7.0
86.764	2.0
86.779	5.0
86.794	1.0
86.809	2.0
86.824	3.0
86.839	3.0
86.854	3.0
86.869	3.0
86.884	4.0
86.899	3.0
86.914	7.0
86.929	3.0
86.944	4.0
86.959	2.0
86.974	3.0
86.989	6.0
87.004	3.0
87.019	3.0
87.034	2.0
87.049	3.0
87.064	5.0
87.079	3.0
87.094	1.0
87.109	1.0
87.124	1.0
87.139	2.0
87.154	2.0
87.169	2.0
87.184	3.0
87.199	4.0
87.214	2.0
87.229	3.0
87.244	3.0
87.259	6.0
87.274	3.0
87.289	0.0
87.304	3.0
87.319	4.0
87.334	4.0
87.349	3.0
87.364	2.0
87.379	4.0
87.394	1.0
87.409	4.0
87.424	5.0
87.438	5.0
87.453	4.0
87.468	3.0
87.483	6.0
87.498	4.0
87.513	7.0
87.528	3.0
87.543	2.0
87.558	4.0
87.573	7.0
87.588	2.0
87.603	6.0
87.618	3.0
87.633	6.0
87.648	3.0
87.663	6.0
87.678	12.0
87.693	8.0
87.708	2.0
87.723	6.0
87.738	5.0
87.753	5.0
87.768	2.0
87.783	4.0
87.798	6.0
87.813	3.0
87.828	5.0
87.843	4.0
87.858	4.0
87.873	0.0
87.888	5.0
87.903	5.0
87.918	2.0
87.933	2.0
87.948	5.0
87.963	2.0
87.978	2.0
87.993	4.0
88.008	3.0
88.023	1.0
88.038	3.0
88.053	4.0
88.068	2.0
88.083	1.0
88.098	2.0
88.113	2.0
88.128	0.0
88.143	0.0
88.158	1.0
88.174	4.0
88.189	3.0
88.204	4.0
88.219	4.0
88.234	0.0
88.249	5.0
88.264	4.0
88.279	2.0
88.294	5.0
88.309	3.0
88.324	7.0
88.339	9.0
88.354	1.0
88.369	2.0
88.384	0.0
88.399	4.0
88.414	2.0
88.429	5.0
88.444	7.0
88.459	6.0
88.474	1.0
88.489	6.0
88.504	5.0
88.519	3.0
88.534	5.0
88.549	3.0
88.564	2.0
88.58	4.0
88.595	4.0
88.61	4.0
88.625	4.0
88.64	3.0
88.655	3.0
88.67	1.0
88.685	4.0
88.7	1.0
88.715	2.0
88.73	6.0
88.745	4.0
88.76	4.0
88.775	2.0
88.79	3.0
88.805	3.0
88.82	1.0
88.835	2.0
88.85	6.0
88.865	3.0
88.88	0.0
88.895	4.0
88.911	4.0
88.926	3.0
88.941	2.0
88.956	4.0
88.971	4.0
88.986	2.0
89.001	4.0
89.016	2.0
89.031	5.0
89.046	4.0
89.061	6.0
89.076	3.0
89.091	0.0
89.106	3.0
89.121	3.0
89.136	4.0
89.151	1.0
89.166	4.0
89.181	2.0
89.196	7.0
89.211	1.0
89.227	1.0
89.242	4.0
89.257	3.0
89.272	2.0
89.287	4.0
89.302	1.0
89.317	2.0
89.332	4.0
89.347	4.0
89.362	2.0
89.377	4.0
89.392	2.0
89.407	6.0
89.422	5.0
89.437	1.0
89.452	3.0
89.467	5.0
89.482	4.0
89.497	2.0
89.512	2.0
89.527	0.0
89.542	2.0
89.557	5.0
89.572	3.0
89.587	3.0
89.602	5.0
89.617	7.0
89.632	6.0
89.647	1.0
89.662	3.0
89.677	4.0
89.693	4.0
89.708	3.0
89.723	6.0
89.738	6.0
89.753	2.0
89.768	4.0
89.783	6.0
89.798	3.0
89.813	6.0
89.828	3.0
89.843	2.0
89.858	6.0
89.873	1.0
89.888	3.0
89.903	3.0
89.918	3.0
89.933	5.0
89.948	1.0
89.963	2.0
89.978	1.0
89.993	3.0
90.008	1.0
90.023	2.0
90.038	3.0
90.053	4.0
90.068	5.0
90.083	7.0
90.097	2.0
90.112	0.0
90.127	4.0
90.142	2.0
90.157	6.0
90.172	5.0
90.187	2.0
90.202	4.0
90.217	3.0
90.232	5.0
90.247	4.0
90.262	4.0
90.277	5.0
90.292	6.0
90.307	7.0
90.322	7.0
90.337	4.0
90.352	5.0
90.367	3.0
90.382	3.0
90.397	3.0
90.412	4.0
90.427	5.0
90.442	5.0
90.457	1.0
90.472	1.0
90.487	3.0
90.501	3.0
90.516	1.0
90.531	3.0
90.546	1.0
90.561	6.0
90.576	3.0
90.591	2.0
90.606	1.0
90.621	5.0
90.636	3.0
90.651	2.0
90.666	3.0
90.681	6.0
90.696	1.0
90.711	2.0
90.726	0.0
90.741	3.0
90.755	2.0
90.77	3.0
90.785	6.0
90.8	2.0
90.815	1.0
90.83	2.0
90.845	2.0
90.86	4.0
90.875	4.0
90.89	3.0
90.905	4.0
90.92	4.0
90.935	1.0
90.95	4.0
90.965	3.0
90.979	4.0
90.994	1.0
91.009	1.0
91.024	3.0
91.039	6.0
91.054	1.0
91.069	6.0
91.084	7.0
91.099	4.0
91.114	5.0
91.129	6.0
91.144	4.0
91.159	5.0
91.174	1.0
91.188	3.0
91.203	1.0
91.218	5.0
91.233	4.0
91.248	7.0
91.263	3.0
91.278	1.0
91.293	3.0
91.308	3.0
91.323	4.0
91.338	4.0
91.353	6.0
91.368	2.0
91.383	7.0
91.398	2.0
91.412	2.0
91.427	3.0
91.442	3.0
91.457	3.0
91.472	3.0
91.487	1.0
91.502	2.0
91.517	2.0
91.532	3.0
91.547	3.0
91.562	4.0
91.577	1.0
91.592	2.0
91.607	1.0
91.622	2.0
91.637	0.0
91.652	7.0
91.666	2.0
91.681	1.0
91.696	4.0
91.711	4.0
91.726	3.0
91.741	4.0
91.756	8.0
91.771	5.0
91.786	4.0
91.801	3.0
91.816	2.0
91.831	3.0
91.846	1.0
91.861	3.0
91.876	2.0
91.891	6.0
91.906	2.0
91.921	3.0
91.936	6.0
91.951	2.0
91.966	4.0
91.981	2.0
91.995	3.0
92.01	4.0
92.025	4.0
92.04	1.0
92.055	1.0
92.07	3.0
92.085	3.0
92.1	1.0
92.115	1.0
92.13	4.0
92.145	2.0
92.16	1.0
92.175	4.0
92.19	3.0
92.205	4.0
92.22	5.0
92.235	2.0
92.25	2.0
92.265	2.0
92.28	4.0
92.295	0.0
92.31	2.0
92.325	5.0
92.34	1.0
92.355	3.0
92.37	1.0
92.385	6.0
92.4	4.0
92.415	2.0
92.43	3.0
92.445	1.0
92.46	6.0
92.475	2.0
92.49	1.0
92.505	3.0
92.52	8.0
92.535	7.0
92.55	1.0
92.565	1.0
92.58	4.0
92.595	2.0
92.61	1.0
92.625	3.0
92.64	7.0
92.655	5.0
92.67	2.0
92.685	6.0
92.7	3.0
92.715	8.0
92.73	0.0
92.745	4.0
92.76	4.0
92.775	4.0
92.79	4.0
92.805	1.0
92.82	4.0
92.835	4.0
92.85	2.0
92.865	4.0
92.88	5.0
92.895	3.0
92.91	4.0
92.925	7.0
92.94	3.0
92.955	3.0
92.97	2.0
92.985	4.0
93.0	4.0
93.015	3.0
93.03	4.0
93.045	2.0
93.06	6.0
93.075	3.0
93.09	5.0
93.105	5.0
93.12	0.0
93.135	6.0
93.15	3.0
93.165	4.0
93.18	2.0
93.195	2.0
93.21	3.0
93.225	6.0
93.24	3.0
93.255	6.0
93.27	2.0
93.285	1.0
93.3	3.0
93.315	5.0
93.33	1.0
93.345	6.0
93.36	4.0
93.375	3.0
93.39	1.0
93.405	1.0
93.42	1.0
93.435	0.0
93.45	4.0
93.465	3.0
93.48	5.0
93.495	4.0
93.51	2.0
93.525	3.0
93.54	6.0
93.555	6.0
93.57	7.0
93.585	2.0
93.6	6.0
93.615	4.0
93.63	4.0
93.645	3.0
93.66	1.0
93.675	2.0
93.69	2.0
93.705	2.0
93.72	0.0
93.735	4.0
93.75	1.0
93.765	2.0
93.78	3.0
93.795	4.0
93.81	8.0
93.824	5.0
93.839	7.0
93.854	3.0
93.869	1.0
93.884	2.0
93.899	2.0
93.914	5.0
93.929	5.0
93.944	2.0
93.959	2.0
93.974	8.0
93.989	3.0
94.004	2.0
94.019	6.0
94.034	5.0
94.049	3.0
94.064	6.0
94.079	5.0
94.094	3.0
94.108	5.0
94.123	3.0
94.138	4.0
94.153	2.0
94.168	3.0
94.183	3.0
94.198	3.0
94.213	2.0
94.228	4.0
94.243	1.0
94.258	1.0
94.273	6.0
94.288	3.0
94.302	6.0
94.317	3.0
94.332	5.0
94.347	3.0
94.362	5.0
94.377	5.0
94.392	5.0
94.407	7.0
94.422	2.0
94.437	6.0
94.452	16.0
94.466	3.0
94.481	3.0
94.496	5.0
94.511	4.0
94.526	1.0
94.541	4.0
94.556	1.0
94.571	3.0
94.586	2.0
94.601	1.0
94.615	5.0
94.63	5.0
94.645	2.0
94.66	4.0
94.675	2.0
94.69	3.0
94.705	3.0
94.72	2.0
94.735	3.0
94.749	2.0
94.764	5.0
94.779	0.0
94.794	1.0
94.809	2.0
94.824	1.0
94.839	3.0
94.854	4.0
94.868	3.0
94.883	6.0
94.898	1.0
94.913	6.0
94.928	4.0
94.943	3.0
94.958	5.0
94.973	5.0
94.987	0.0
95.002	2.0
95.017	5.0
95.032	2.0
95.047	3.0
95.062	2.0
95.077	3.0
95.092	2.0
95.106	2.0
95.121	2.0
95.136	0.0
95.151	5.0
95.166	1.0
95.181	3.0
95.196	5.0
95.211	5.0
95.226	5.0
95.24	8.0
95.255	2.0
95.27	4.0
95.285	6.0
95.3	5.0
95.315	5.0
95.33	3.0
95.345	3.0
95.359	3.0
95.374	2.0
95.389	1.0
95.404	2.0
95.419	5.0
95.434	5.0
95.449	3.0
95.464	3.0
95.478	2.0
95.493	2.0
95.508	1.0
95.523	3.0
95.538	4.0
95.553	7.0
95.568	4.0
95.583	3.0
95.597	2.0
95.612	3.0
95.627	2.0
95.642	3.0
95.657	1.0
95.672	3.0
95.687	3.0
95.702	4.0
95.717	4.0
95.731	2.0
95.746	6.0
95.761	2.0
95.776	4.0
95.791	5.0
95.806	5.0
95.821	3.0
95.836	8.0
95.851	5.0
95.866	4.0
95.88	1.0
95.895	2.0
95.91	3.0
95.925	2.0
95.94	4.0
95.955	6.0
95.97	2.0
95.985	8.0
96.0	6.0
96.015	4.0
96.029	8.0
96.044	3.0
96.059	3.0
96.074	3.0
96.089	2.0
96.104	8.0
96.119	4.0
96.134	4.0
96.149	4.0
96.164	6.0
96.179	2.0
96.194	2.0
96.208	4.0
96.223	3.0
96.238	6.0
96.253	8.0
96.268	2.0
96.283	0.0
96.298	0.0
96.313	4.0
96.328	6.0
96.343	3.0
96.358	1.0
96.373	4.0
96.388	1.0
96.403	3.0
96.417	1.0
96.432	2.0
96.447	1.0
96.462	1.0
96.477	3.0
96.492	1.0
96.507	4.0
96.522	2.0
96.537	2.0
96.552	0.0
96.567	3.0
96.582	3.0
96.597	4.0
96.612	2.0
96.627	3.0
96.642	2.0
96.656	1.0
96.671	3.0
96.686	9.0
96.701	6.0
96.716	5.0
96.731	4.0
96.746	2.0
96.761	5.0
96.776	4.0
96.791	4.0
96.806	3.0
96.821	2.0
96.836	3.0
96.851	3.0
96.866	0.0
96.881	7.0
96.896	6.0
96.911	6.0
96.926	4.0
96.94	5.0
96.955	5.0
96.97	2.0
96.985	6.0
97.0	5.0
97.015	4.0
97.03	4.0
97.045	3.0
97.06	5.0
97.075	2.0
97.09	3.0
97.105	1.0
97.12	2.0
97.135	0.0
97.15	2.0
97.165	2.0
97.18	5.0
97.195	4.0
97.21	5.0
97.225	3.0
97.239	4.0
97.254	2.0
97.269	4.0
97.284	2.0
97.299	1.0
97.314	2.0
97.329	1.0
97.344	5.0
97.359	3.0
97.374	5.0
97.389	4.0
97.404	5.0
97.419	0.0
97.434	5.0
97.449	3.0
97.464	6.0
97.479	2.0
97.494	8.0
97.509	1.0
97.524	0.0
97.538	4.0
97.553	3.0
97.568	3.0
97.583	2.0
97.598	5.0
97.613	3.0
97.628	1.0
97.643	0.0
97.658	0.0
97.673	3.0
97.688	2.0
97.703	2.0
97.718	4.0
97.733	4.0
97.748	6.0
97.763	5.0
97.778	7.0
97.792	4.0
97.807	4.0
97.822	4.0
97.837	2.0
97.852	3.0
97.867	1.0
97.882	2.0
97.897	2.0
97.912	2.0
97.927	1.0
97.942	0.0
97.957	4.0
97.972	5.0
97.987	3.0
98.001	3.0
98.016	4.0
98.031	1.0
98.046	4.0
98.061	3.0
98.076	3.0
98.091	4.0
98.106	3.0
98.121	4.0
98.136	6.0
98.151	0.0
98.166	0.0
98.181	5.0
98.195	2.0
98.21	6.0
98.225	4.0
98.24	0.0
98.255	1.0
98.27	4.0
98.285	4.0
98.3	5.0
98.315	1.0
98.33	4.0
98.345	5.0
98.359	0.0
98.374	1.0
98.389	7.0
98.404	1.0
98.419	2.0
98.434	7.0
98.449	2.0
98.464	0.0
98.479	5.0
98.494	4.0
98.508	3.0
98.523	1.0
98.538	2.0
98.553	5.0
98.568	4.0
98.583	3.0
98.598	2.0
98.613	4.0
98.628	5.0
98.642	3.0
98.657	5.0
98.672	2.0
98.687	0.0
98.702	1.0
98.717	2.0
98.732	4.0
98.747	3.0
98.762	7.0
98.776	1.0
98.791	6.0
98.806	2.0
98.821	4.0
98.836	4.0
98.851	4.0
98.866	5.0
98.881	5.0
98.896	6.0
98.91	1.0
98.925	5.0
98.94	3.0
98.955	2.0
98.97	0.0
98.985	2.0
99.0	2.0
99.015	0.0
99.029	7.0
99.044	5.0
99.059	5.0
99.074	5.0
99.089	6.0
99.104	4.0
99.119	3.0
99.133	7.0
99.148	2.0
99.163	3.0
99.178	4.0
99.193	5.0
99.208	5.0
99.223	1.0
99.238	6.0
99.252	1.0
99.267	5.0
99.282	6.0
99.297	3.0
99.312	2.0
99.327	3.0
99.342	1.0
99.356	1.0
99.371	7.0
99.386	5.0
99.401	5.0
99.416	4.0
99.431	6.0
99.446	3.0
99.461	4.0
99.475	3.0
99.49	3.0
99.505	2.0
99.52	4.0
99.535	6.0
99.55	1.0
99.565	2.0
99.579	3.0
99.594	2.0
99.609	4.0
99.624	2.0
99.639	4.0
99.654	5.0
99.669	1.0
99.683	1.0
99.698	2.0
99.713	3.0
99.728	1.0
99.743	5.0
99.758	1.0
99.772	2.0
99.787	4.0
99.802	1.0
99.817	7.0
99.832	3.0
99.847	2.0
99.862	1.0
99.876	2.0
99.891	8.0
99.906	4.0
99.921	0.0
99.936	3.0
99.951	1.0
99.966	7.0
99.98	5.0
99.995	5.0
100.01	1.0
100.025	2.0
100.04	3.0
100.055	2.0
100.069	5.0
100.084	0.0
100.099	4.0
100.114	3.0
100.129	2.0
100.144	6.0
100.159	6.0
100.173	1.0
100.188	3.0
100.203	0.0
100.218	4.0
100.233	4.0
100.248	8.0
100.262	4.0
100.277	4.0
100.292	4.0
100.307	6.0
100.322	2.0
100.337	1.0
100.351	6.0
100.366	5.0
100.381	3.0
100.396	5.0
100.411	4.0
100.426	5.0
100.441	5.0
100.455	1.0
100.47	3.0
100.485	3.0
100.5	1.0
100.515	5.0
100.53	1.0
100.544	1.0
100.559	4.0
100.574	1.0
100.589	2.0
100.604	3.0
100.619	5.0
100.633	2.0
100.648	5.0
100.663	2.0
100.678	0.0
100.693	3.0
100.708	2.0
100.722	3.0
100.737	3.0
100.752	1.0
100.767	3.0
100.782	0.0
100.796	2.0
100.811	3.0
100.826	5.0
100.841	6.0
100.856	1.0
100.871	4.0
100.885	4.0
100.9	1.0
100.915	3.0
100.93	0.0
100.945	1.0
100.96	2.0
100.974	1.0
100.989	2.0
101.004	2.0
101.019	8.0
101.034	1.0
101.048	6.0
101.063	2.0
101.078	3.0
101.093	3.0
101.108	5.0
101.123	3.0
101.137	2.0
101.152	6.0
101.167	6.0
101.182	2.0
101.197	4.0
101.211	4.0
101.226	1.0
101.241	7.0
101.256	2.0
101.271	5.0
101.285	3.0
101.3	0.0
101.315	4.0
101.33	0.0
101.345	1.0
101.359	5.0
101.374	7.0
101.389	5.0
101.404	5.0
101.419	4.0
101.433	3.0
101.448	1.0
101.463	4.0
101.478	2.0
101.493	5.0
101.507	2.0
101.522	2.0
101.537	4.0
101.552	2.0
101.567	1.0
101.581	1.0
101.596	3.0
101.611	7.0
101.626	1.0
101.64	1.0
101.655	3.0
101.67	6.0
101.685	4.0
101.7	6.0
101.714	6.0
101.729	4.0
101.744	5.0
101.759	5.0
101.773	3.0
101.788	4.0
101.803	2.0
101.818	0.0
101.833	7.0
101.847	1.0
101.862	1.0
101.877	4.0
101.892	3.0
101.906	4.0
101.921	5.0
101.936	7.0
101.951	1.0
101.965	5.0
101.98	2.0
101.995	3.0
102.01	4.0
102.025	5.0
102.039	6.0
102.054	5.0
102.069	2.0
102.084	2.0
102.098	1.0
102.113	1.0
102.128	4.0
102.143	1.0
102.157	4.0
102.172	2.0
102.187	3.0
102.202	2.0
102.216	3.0
102.231	0.0
102.246	2.0
102.261	3.0
102.275	6.0
102.29	4.0
102.305	1.0
102.32	2.0
102.334	2.0
102.349	1.0
102.364	3.0
102.378	2.0
102.393	4.0
102.408	5.0
102.423	6.0
102.437	0.0
102.452	1.0
102.467	0.0
102.482	3.0
102.496	0.0
102.511	2.0
102.526	4.0
102.541	3.0
102.555	2.0
102.57	4.0
102.585	3.0
102.6	4.0
102.614	3.0
102.629	6.0
102.644	3.0
102.659	2.0
102.673	6.0
102.688	1.0
102.703	1.0
102.717	3.0
102.732	6.0
102.747	2.0
102.762	5.0
102.776	3.0
102.791	5.0
102.806	3.0
102.821	4.0
102.835	4.0
102.85	2.0
102.865	5.0
102.88	4.0
102.894	3.0
102.909	4.0
102.924	4.0
102.938	4.0
102.953	4.0
102.968	4.0
102.983	4.0
102.997	4.0
103.012	4.0
103.027	1.0
103.042	4.0
103.056	4.0
103.071	4.0
103.086	4.0
103.101	1.0
103.115	3.0
103.13	1.0
103.145	4.0
103.16	4.0
103.174	0.0
103.189	8.0
103.204	4.0
103.219	3.0
103.233	2.0
103.248	4.0
103.263	6.0
103.278	2.0
103.292	2.0
103.307	6.0
103.322	6.0
103.337	1.0
103.351	2.0
103.366	2.0
103.381	1.0
103.396	4.0
103.41	5.0
103.425	3.0
103.44	7.0
103.455	2.0
103.469	4.0
103.484	2.0
103.499	4.0
103.514	2.0
103.529	2.0
103.543	5.0
103.558	1.0
103.573	2.0
103.588	4.0
103.602	2.0
103.617	3.0
103.632	5.0
103.647	3.0
103.661	0.0
103.676	6.0
103.691	4.0
103.706	2.0
103.721	4.0
103.735	2.0
103.75	1.0
103.765	5.0
103.78	2.0
103.795	5.0
103.809	6.0
103.824	3.0
103.839	3.0
103.854	2.0
103.869	2.0
103.883	4.0
103.898	2.0
103.913	2.0
103.928	4.0
103.943	1.0
103.957	1.0
103.972	3.0
103.987	5.0
104.002	4.0
104.017	4.0
104.031	5.0
104.046	2.0
104.061	3.0
104.076	3.0
104.091	3.0
104.106	2.0
104.12	1.0
104.135	4.0
104.15	3.0
104.165	1.0
104.18	2.0
104.195	1.0
104.209	3.0
104.224	4.0
104.239	3.0
104.254	5.0
104.269	3.0
104.284	4.0
104.299	3.0
104.313	0.0
104.328	2.0
104.343	3.0
104.358	5.0
104.373	2.0
104.388	2.0
104.403	3.0
104.417	3.0
104.432	3.0
104.447	2.0
104.462	4.0
104.477	2.0
104.492	3.0
104.507	3.0
104.522	6.0
104.536	7.0
104.551	5.0
104.566	2.0
104.581	5.0
104.596	3.0
104.611	5.0
104.626	4.0
104.641	4.0
104.656	6.0
104.67	4.0
104.685	2.0
104.7	2.0
104.715	3.0
104.73	3.0
104.745	2.0
104.76	2.0
104.775	4.0
104.79	3.0
104.804	4.0
104.819	4.0
104.834	2.0
104.849	3.0
104.864	6.0
104.879	3.0
104.894	3.0
104.909	5.0
104.924	5.0
104.939	1.0
104.954	3.0
104.968	3.0
104.983	3.0
104.998	2.0
105.013	4.0
105.028	0.0
105.043	2.0
105.058	4.0
105.073	4.0
105.088	3.0
105.103	7.0
105.118	2.0
105.133	2.0
105.147	3.0
105.162	4.0
105.177	6.0
105.192	2.0
105.207	4.0
105.222	5.0
105.237	2.0
105.252	6.0
105.267	3.0
105.282	5.0
105.297	4.0
105.312	2.0
105.327	1.0
105.342	1.0
105.356	1.0
105.371	5.0
105.386	2.0
105.401	1.0
105.416	7.0
105.431	2.0
105.446	3.0
105.461	8.0
105.476	2.0
105.491	3.0
105.506	1.0
105.521	4.0
105.536	6.0
105.551	3.0
105.566	1.0
105.581	5.0
105.595	2.0
105.61	4.0
105.625	3.0
105.64	4.0
105.655	0.0
105.67	1.0
105.685	1.0
105.7	2.0
105.715	3.0
105.73	3.0
105.745	1.0
105.76	4.0
105.775	3.0
105.79	2.0
105.805	4.0
105.82	2.0
105.835	2.0
105.85	2.0
105.864	5.0
105.879	1.0
105.894	2.0
105.909	2.0
105.924	3.0
105.939	2.0
105.954	3.0
105.969	2.0
105.984	3.0
105.999	6.0
106.014	1.0
106.029	5.0
106.044	1.0
106.059	1.0
106.074	2.0
106.089	6.0
106.104	4.0
106.119	2.0
106.134	2.0
106.148	5.0
106.163	2.0
106.178	0.0
106.193	0.0
106.208	1.0
106.223	0.0
106.238	5.0
106.253	6.0
106.268	0.0
106.283	3.0
106.298	1.0
106.313	3.0
106.328	2.0
106.343	7.0
106.358	4.0
106.373	2.0
106.388	2.0
106.403	2.0
106.418	3.0
106.432	4.0
106.447	3.0
106.462	4.0
106.477	2.0
106.492	1.0
106.507	3.0
106.522	2.0
106.537	4.0
106.552	3.0
106.567	3.0
106.582	10.0
106.597	2.0
106.612	4.0
106.627	1.0
106.642	1.0
106.657	1.0
106.672	3.0
106.687	5.0
106.701	4.0
106.716	2.0
106.731	1.0
106.746	3.0
106.761	7.0
106.776	3.0
106.791	0.0
106.806	1.0
106.821	4.0
106.836	1.0
106.851	2.0
106.866	1.0
106.881	1.0
106.896	5.0
106.911	1.0
106.926	2.0
106.941	2.0
106.955	3.0
106.97	2.0
106.985	4.0
107.0	5.0
107.015	5.0
107.03	4.0
107.045	2.0
107.06	3.0
107.075	2.0
107.09	5.0
107.105	3.0
107.12	3.0
107.135	3.0
107.15	2.0
107.165	7.0
107.18	6.0
107.194	2.0
107.209	5.0
107.224	5.0
107.239	8.0
107.254	5.0
107.269	4.0
107.284	5.0
107.299	5.0
107.314	6.0
107.329	5.0
107.344	4.0
107.359	3.0
107.374	4.0
107.389	3.0
107.404	2.0
107.418	3.0
107.433	2.0
107.448	1.0
107.463	6.0
107.478	2.0
107.493	4.0
107.508	3.0
107.523	1.0
107.538	1.0
107.553	3.0
107.568	1.0
107.583	4.0
107.598	3.0
107.613	4.0
107.627	1.0
107.642	2.0
107.657	4.0
107.672	2.0
107.687	9.0
107.702	2.0
107.717	4.0
107.732	2.0
107.747	4.0
107.762	2.0
107.777	5.0
107.792	4.0
107.807	5.0
107.821	2.0
107.836	7.0
107.851	6.0
107.866	3.0
107.881	5.0
107.896	4.0
107.911	3.0
107.926	4.0
107.941	4.0
107.956	4.0
107.971	7.0
107.986	3.0
108.0	2.0
108.015	8.0
108.03	2.0
108.045	3.0
108.06	4.0
108.075	9.0
108.09	3.0
108.105	3.0
108.12	6.0
108.135	1.0
108.15	2.0
108.164	4.0
108.179	5.0
108.194	5.0
108.209	1.0
108.224	1.0
108.239	3.0
108.254	3.0
108.269	3.0
108.284	4.0
108.299	6.0
108.313	2.0
108.328	6.0
108.343	2.0
108.358	5.0
108.373	4.0
108.388	2.0
108.403	2.0
108.418	2.0
108.433	2.0
108.448	5.0
108.462	1.0
108.477	4.0
108.492	5.0
108.507	3.0
108.522	4.0
108.537	3.0
108.552	1.0
108.567	3.0
108.582	0.0
108.597	4.0
108.611	0.0
108.626	5.0
108.641	1.0
108.656	5.0
108.671	1.0
108.686	1.0
108.701	3.0
108.716	3.0
108.731	5.0
108.745	2.0
108.76	4.0
108.775	3.0
108.79	7.0
108.805	4.0
108.82	8.0
108.835	2.0
108.85	4.0
108.865	4.0
108.879	2.0
108.894	3.0
108.909	6.0
108.924	3.0
108.939	0.0
108.954	2.0
108.969	4.0
108.984	3.0
108.999	2.0
109.013	7.0
109.028	5.0
109.043	4.0
109.058	6.0
109.073	1.0
109.088	4.0
109.103	2.0
109.118	5.0
109.133	7.0
109.147	3.0
109.162	3.0
109.177	1.0
109.192	7.0
109.207	1.0
109.222	2.0
109.237	7.0
109.252	7.0
109.267	1.0
109.281	3.0
109.296	5.0
109.311	1.0
109.326	5.0
109.341	2.0
109.356	2.0
109.371	3.0
109.386	3.0
109.4	1.0
109.415	6.0
109.43	3.0
109.445	5.0
109.46	5.0
109.475	2.0
109.49	3.0
109.505	4.0
109.52	3.0
109.534	2.0
109.549	1.0
109.564	2.0
109.579	4.0
109.594	1.0
109.609	4.0
109.624	2.0
109.639	3.0
109.653	2.0
109.668	3.0
109.683	4.0
109.698	3.0
109.713	3.0
109.728	2.0
109.743	4.0
109.758	3.0
109.773	6.0
109.787	5.0
109.802	6.0
109.817	4.0
109.832	3.0
109.847	3.0
109.862	2.0
109.877	7.0
109.892	6.0
109.907	3.0
109.921	4.0
109.936	1.0
109.951	5.0
109.966	3.0
109.981	4.0
109.996	2.0
110.011	2.0
110.026	1.0
110.04	3.0
110.055	3.0
110.07	3.0
110.085	3.0
110.1	3.0
110.115	4.0
110.13	0.0
110.145	1.0
110.16	5.0
110.174	5.0
110.189	1.0
110.204	1.0
110.219	3.0
110.234	0.0
110.249	1.0
110.264	4.0
110.279	5.0
110.294	6.0
110.308	3.0
110.323	4.0
110.338	3.0
110.353	2.0
110.368	4.0
110.383	2.0
110.398	3.0
110.413	6.0
110.428	3.0
110.442	2.0
110.457	7.0
110.472	6.0
110.487	4.0
110.502	0.0
110.517	1.0
110.532	5.0
110.547	3.0
110.561	5.0
110.576	2.0
110.591	2.0
110.606	0.0
110.621	7.0
110.636	2.0
110.651	5.0
110.666	2.0
110.681	4.0
110.695	2.0
110.71	4.0
110.725	4.0
110.74	5.0
110.755	2.0
110.77	2.0
110.785	2.0
110.8	7.0
110.815	3.0
110.829	4.0
110.844	3.0
110.859	3.0
110.874	1.0
110.889	4.0
110.904	3.0
110.919	3.0
110.934	4.0
110.948	3.0
110.963	3.0
110.978	4.0
110.993	5.0
111.008	2.0
111.023	4.0
111.038	4.0
111.053	0.0
111.067	3.0
111.082	8.0
111.097	1.0
111.112	2.0
111.127	2.0
111.142	4.0
111.157	1.0
111.172	5.0
111.186	3.0
111.201	4.0
111.216	3.0
111.231	6.0
111.246	2.0
111.261	2.0
111.276	2.0
111.291	3.0
111.305	3.0
111.32	3.0
111.335	2.0
111.35	3.0
111.365	2.0
111.38	4.0
111.395	2.0
111.41	2.0
111.424	2.0
111.439	4.0
111.454	3.0
111.469	5.0
111.484	2.0
111.499	2.0
111.514	7.0
111.528	1.0
111.543	3.0
111.558	4.0
111.573	2.0
111.588	3.0
111.603	3.0
111.618	6.0
111.633	7.0
111.647	3.0
111.662	4.0
111.677	6.0
111.692	7.0
111.707	6.0
111.722	5.0
111.737	5.0
111.751	3.0
111.766	2.0
111.781	2.0
111.796	2.0
111.811	2.0
111.826	7.0
111.84	0.0
111.855	2.0
111.87	9.0
111.885	3.0
111.9	4.0
111.915	5.0
111.93	2.0
111.944	3.0
111.959	1.0
111.974	3.0
111.989	2.0
112.004	3.0
112.019	4.0
112.033	1.0
112.048	2.0
112.063	3.0
112.078	6.0
112.093	2.0
112.108	1.0
112.123	3.0
112.137	4.0
112.152	3.0
112.167	3.0
112.182	4.0
112.197	5.0
112.212	1.0
112.226	1.0
112.241	2.0
112.256	5.0
112.271	6.0
112.286	7.0
112.301	1.0
112.315	4.0
112.33	2.0
112.345	4.0
112.36	3.0
112.375	3.0
112.389	1.0
112.404	3.0
112.419	6.0
112.434	2.0
112.449	1.0
112.464	2.0
112.478	4.0
112.493	2.0
112.508	4.0
112.523	1.0
112.538	6.0
112.553	2.0
112.567	5.0
112.582	4.0
112.597	3.0
112.612	3.0
112.627	3.0
112.642	4.0
112.656	1.0
112.671	2.0
112.686	2.0
112.701	4.0
112.716	4.0
112.73	3.0
112.745	3.0
112.76	5.0
112.775	3.0
112.79	5.0
112.805	6.0
112.819	1.0
112.834	5.0
112.849	5.0
112.864	2.0
112.879	5.0
112.894	3.0
112.908	4.0
112.923	7.0
112.938	2.0
112.953	1.0
112.968	1.0
112.983	5.0
112.997	9.0
113.012	4.0
113.027	3.0
113.042	4.0
113.057	8.0
113.072	6.0
113.086	5.0
113.101	4.0
113.116	4.0
113.131	4.0
113.146	5.0
113.161	8.0
113.175	5.0
113.19	3.0
113.205	3.0
113.22	2.0
113.235	2.0
113.25	6.0
113.265	6.0
113.279	3.0
113.294	3.0
113.309	1.0
113.324	4.0
113.339	2.0
113.354	2.0
113.368	1.0
113.383	5.0
113.398	5.0
113.413	2.0
113.428	5.0
113.443	5.0
113.458	4.0
113.472	6.0
113.487	1.0
113.502	1.0
113.517	3.0
113.532	2.0
113.547	2.0
113.562	5.0
113.576	1.0
113.591	4.0
113.606	3.0
113.621	3.0
113.636	4.0
113.651	5.0
113.666	5.0
113.681	3.0
113.695	4.0
113.71	0.0
113.725	2.0
113.74	4.0
113.755	1.0
113.77	3.0
113.785	1.0
113.8	0.0
113.814	8.0
113.829	1.0
113.844	1.0
113.859	2.0
113.874	5.0
113.889	1.0
113.904	3.0
113.919	7.0
113.934	4.0
113.949	0.0
113.963	2.0
113.978	5.0
113.993	1.0
114.008	2.0
114.023	2.0
114.038	2.0
114.053	1.0
114.068	4.0
114.083	5.0
114.098	4.0
114.113	1.0
114.127	2.0
114.142	4.0
114.157	2.0
114.172	2.0
114.187	1.0
114.202	8.0
114.217	4.0
114.232	5.0
114.247	6.0
114.262	2.0
114.277	2.0
114.292	3.0
114.307	5.0
114.322	5.0
114.337	4.0
114.351	2.0
114.366	4.0
114.381	5.0
114.396	7.0
114.411	2.0
114.426	5.0
114.441	3.0
114.456	9.0
114.471	1.0
114.486	5.0
114.501	3.0
114.516	2.0
114.531	6.0
114.546	2.0
114.561	2.0
114.576	3.0
114.591	1.0
114.606	3.0
114.621	3.0
114.636	1.0
114.65	3.0
114.665	2.0
114.68	10.0
114.695	4.0
114.71	1.0
114.725	2.0
114.74	4.0
114.755	2.0
114.77	2.0
114.785	4.0
114.8	4.0
114.815	3.0
114.83	3.0
114.845	4.0
114.86	5.0
114.875	10.0
114.89	3.0
114.905	1.0
114.92	3.0
114.935	3.0
114.95	2.0
114.965	3.0
114.98	5.0
114.995	2.0
115.009	4.0
115.024	3.0
115.039	2.0
115.054	5.0
115.069	3.0
115.084	0.0
115.099	1.0
115.114	1.0
115.129	2.0
115.144	3.0
115.159	3.0
115.174	10.0
115.189	3.0
115.204	3.0
115.219	3.0
115.234	2.0
115.249	2.0
115.264	4.0
115.279	5.0
115.294	4.0
115.309	5.0
115.323	2.0
115.338	5.0
115.353	5.0
115.368	0.0
115.383	5.0
115.398	1.0
115.413	2.0
115.428	2.0
115.443	3.0
115.458	2.0
115.473	4.0
115.488	4.0
115.503	4.0
115.518	1.0
115.533	5.0
115.548	2.0
115.562	2.0
115.577	2.0
115.592	2.0
115.607	3.0
115.622	6.0
115.637	3.0
115.652	2.0
115.667	4.0
115.682	2.0
115.697	2.0
115.712	1.0
115.727	3.0
115.741	4.0
115.756	4.0
115.771	3.0
115.786	3.0
115.801	2.0
115.816	2.0
115.831	5.0
115.846	2.0
115.861	4.0
115.875	3.0
115.89	4.0
115.905	6.0
115.92	6.0
115.935	3.0
115.95	3.0
115.965	6.0
115.98	3.0
115.995	4.0
116.009	3.0
116.024	3.0
116.039	5.0
116.054	7.0
116.069	4.0
116.084	5.0
116.099	2.0
116.113	4.0
116.128	4.0
116.143	3.0
116.158	5.0
116.173	2.0
116.188	5.0
116.202	3.0
116.217	3.0
116.232	4.0
116.247	7.0
116.262	2.0
116.277	4.0
116.291	4.0
116.306	5.0
116.321	6.0
116.336	5.0
116.351	4.0
116.366	5.0
116.38	4.0
116.395	2.0
116.41	3.0
116.425	4.0
116.44	3.0
116.454	1.0
116.469	2.0
116.484	2.0
116.499	5.0
116.514	6.0
116.528	3.0
116.543	0.0
116.558	6.0
116.573	5.0
116.588	3.0
116.602	2.0
116.617	5.0
116.632	3.0
116.647	1.0
116.662	3.0
116.676	4.0
116.691	2.0
116.706	4.0
116.721	1.0
116.735	6.0
116.75	2.0
116.765	1.0
116.78	4.0
116.795	5.0
116.809	5.0
116.824	1.0
116.839	3.0
116.854	6.0
116.868	3.0
116.883	4.0
116.898	5.0
116.913	2.0
116.927	6.0
116.942	3.0
116.957	4.0
116.972	1.0
116.986	2.0
117.001	2.0
117.016	3.0
117.031	7.0
117.045	3.0
117.06	2.0
117.075	8.0
117.09	0.0
117.104	5.0
117.119	7.0
117.134	6.0
117.149	7.0
117.163	2.0
117.178	4.0
117.193	3.0
117.208	6.0
117.222	5.0
117.237	2.0
117.252	5.0
117.267	2.0
117.281	1.0
117.296	4.0
117.311	5.0
117.325	2.0
117.34	5.0
117.355	9.0
117.37	4.0
117.384	2.0
117.399	3.0
117.414	5.0
117.429	8.0
117.443	4.0
117.458	9.0
117.473	8.0
117.487	3.0
117.502	4.0
117.517	7.0
117.532	4.0
117.546	6.0
117.561	2.0
117.576	0.0
117.59	5.0
117.605	3.0
117.62	4.0
117.635	4.0
117.649	1.0
117.664	5.0
117.679	5.0
117.693	2.0
117.708	1.0
117.723	1.0
117.738	4.0
117.752	4.0
117.767	4.0
117.782	5.0
117.796	2.0
117.811	4.0
117.826	7.0
117.841	5.0
117.855	3.0
117.87	6.0
117.885	2.0
117.899	3.0
117.914	7.0
117.929	5.0
117.944	3.0
117.958	4.0
117.973	2.0
117.988	2.0
118.002	3.0
118.017	2.0
118.032	3.0
118.047	5.0
118.062	5.0
118.077	4.0
118.092	4.0
118.107	5.0
118.121	6.0
118.136	2.0
118.151	4.0
118.166	3.0
118.181	6.0
118.196	4.0
118.211	4.0
118.225	7.0
118.24	1.0
118.255	5.0
118.27	6.0
118.285	1.0
118.3	3.0
118.315	3.0
118.33	4.0
118.344	4.0
118.359	6.0
118.374	3.0
118.389	5.0
118.404	4.0
118.419	0.0
118.434	3.0
118.449	2.0
118.463	1.0
118.478	5.0
118.493	6.0
118.508	5.0
118.523	1.0
118.538	2.0
118.553	2.0
118.567	2.0
118.582	4.0
118.597	1.0
118.612	2.0
118.627	4.0
118.642	3.0
118.657	1.0
118.672	0.0
118.686	3.0
118.701	3.0
118.716	4.0
118.731	3.0
118.746	1.0
118.761	5.0
118.776	1.0
118.791	1.0
118.805	1.0
118.82	3.0
118.835	3.0
118.85	1.0
118.865	1.0
118.88	3.0
118.895	1.0
118.909	3.0
118.924	4.0
118.939	5.0
118.954	3.0
118.969	4.0
118.984	4.0
118.999	5.0
119.014	4.0
119.028	2.0
119.043	6.0
119.058	1.0
119.073	4.0
119.088	3.0
119.103	3.0
119.118	3.0
119.133	3.0
119.147	3.0
119.162	4.0
119.177	5.0
119.192	3.0
119.207	9.0
119.222	2.0
119.237	5.0
119.251	4.0
119.266	1.0
119.281	4.0
119.296	1.0
119.311	6.0
119.326	1.0
119.341	3.0
119.356	7.0
119.37	4.0
119.385	3.0
119.4	5.0
119.415	4.0
119.43	4.0
119.445	3.0
119.46	3.0
119.475	4.0
119.489	3.0
119.504	3.0
119.519	5.0
119.534	1.0
119.549	4.0
119.564	3.0
119.579	3.0
119.593	4.0
119.608	2.0
119.623	2.0
119.638	0.0
119.653	1.0
119.668	4.0
119.683	4.0
119.698	1.0
119.712	2.0
119.727	5.0
119.742	3.0
119.757	5.0
119.772	5.0
119.787	2.0
119.802	1.0
119.817	3.0
119.831	3.0
119.846	1.0
119.861	5.0
119.876	4.0
119.891	1.0
119.906	2.0
119.921	2.0
119.935	2.0
119.95	3.0
119.965	3.0
119.98	0.0
119.995	1.0
120.01	3.0
120.025	2.0
120.04	3.0
120.054	3.0
120.069	4.0
120.084	1.0
120.099	0.0
120.114	1.0
120.129	1.0
120.144	2.0
120.159	1.0
120.173	2.0
120.188	1.0
120.203	2.0
120.218	0.0
120.233	2.0
120.248	0.0
120.263	2.0
120.277	1.0
120.292	0.0
120.307	0.0
120.322	0.0
120.337	2.0
120.352	0.0
120.367	0.0
120.382	0.0
120.396	0.0
120.411	0.0
120.426	1.0
120.441	1.0
120.456	0.0
120.471	0.0
120.486	0.0
120.501	0.0
120.515	0.0
120.53	0.0
120.545	0.0
120.56	0.0
120.575	0.0
120.59	0.0
120.605	0.0
120.619	0.0
120.634	0.0
120.649	0.0
120.664	0.0
120.679	1.0
120.694	0.0
120.709	0.0
120.724	0.0
120.738	1.0
120.753	1.0
120.768	0.0
120.783	0.0
120.798	0.0
120.813	0.0
120.828	0.0
120.843	0.0
120.857	0.0
120.872	0.0
120.887	0.0
120.902	0.0
120.917	0.0
120.932	0.0
120.947	0.0
120.961	0.0
120.976	0.0
