-1.217	0.0
-1.202	0.0
-1.187	0.0
-1.172	0.0
-1.157	0.0
-1.142	0.0
-1.128	0.0
-1.113	0.0
-1.098	0.0
-1.083	0.0
-1.068	0.0
-1.054	0.0
-1.039	0.0
-1.024	0.0
-1.009	0.0
-0.994	0.0
-0.979	0.0
-0.965	0.0
-0.95	0.0
-0.935	0.0
-0.92	0.0
-0.905	0.0
-0.891	0.0
-0.876	0.0
-0.861	0.0
-0.846	0.0
-0.831	0.0
-0.816	0.0
-0.802	0.0
-0.787	0.0
-0.772	0.0
-0.757	0.0
-0.742	0.0
-0.728	0.0
-0.713	0.0
-0.698	0.0
-0.683	0.0
-0.668	0.0
-0.653	0.0
-0.639	0.0
-0.624	0.0
-0.609	0.0
-0.594	0.0
-0.579	0.0
-0.565	0.0
-0.55	0.0
-0.535	0.0
-0.52	0.0
-0.505	0.0
-0.49	0.0
-0.476	0.0
-0.461	0.0
-0.446	0.0
-0.431	0.0
-0.416	0.0
-0.401	0.0
-0.387	0.0
-0.372	0.0
-0.357	0.0
-0.342	0.0
-0.327	0.0
-0.313	0.0
-0.298	0.0
-0.283	0.0
-0.268	0.0
-0.253	0.0
-0.238	0.0
-0.224	0.0
-0.209	0.0
-0.194	0.0
-0.179	0.0
-0.164	0.0
-0.15	0.0
-0.135	0.0
-0.12	0.0
-0.105	0.0
-0.09	0.0
-0.075	0.0
-0.061	0.0
-0.046	0.0
-0.031	0.0
-0.016	0.0
-0.001	0.0
0.013	0.0
0.028	0.0
0.043	0.0
0.058	0.0
0.073	0.0
0.088	1.0
0.102	0.0
0.117	0.0
0.132	0.0
0.147	0.0
0.162	0.0
0.176	0.0
0.191	0.0
0.206	0.0
0.221	0.0
0.236	0.0
0.251	0.0
0.265	0.0
0.28	0.0
0.295	0.0
0.31	0.0
0.325	1.0
0.339	0.0
0.354	0.0
0.369	0.0
0.384	0.0
0.399	0.0
0.414	0.0
0.428	0.0
0.443	0.0
0.458	0.0
0.473	0.0
0.488	0.0
0.502	0.0
0.517	0.0
0.532	0.0
0.547	0.0
0.562	0.0
0.577	0.0
0.591	0.0
0.606	0.0
0.621	0.0
0.636	0.0
0.651	0.0
0.665	0.0
0.68	0.0
0.695	0.0
0.71	1.0
0.725	0.0
0.74	0.0
0.754	0.0
0.769	0.0
0.784	0.0
0.799	0.0
0.814	0.0
0.828	0.0
0.843	0.0
0.858	0.0
0.873	0.0
0.888	0.0
0.903	0.0
0.917	0.0
0.932	0.0
0.947	0.0
0.962	0.0
0.977	0.0
0.991	0.0
1.006	0.0
1.021	0.0
1.036	0.0
1.051	0.0
1.065	0.0
1.08	0.0
1.095	0.0
1.11	1.0
1.125	0.0
1.14	0.0
1.154	0.0
1.169	0.0
1.184	0.0
1.199	0.0
1.214	0.0
1.228	0.0
1.243	0.0
1.258	0.0
1.273	0.0
1.288	0.0
1.302	0.0
1.317	0.0
1.332	0.0
1.347	0.0
1.362	0.0
1.376	0.0
1.391	0.0
1.406	0.0
1.421	0.0
1.436	0.0
1.45	0.0
1.465	0.0
1.48	0.0
1.495	0.0
1.51	1.0
1.524	0.0
1.539	0.0
1.554	0.0
1.569	0.0
1.584	0.0
1.598	0.0
1.613	0.0
1.628	0.0
1.643	0.0
1.658	0.0
1.672	0.0
1.687	0.0
1.702	0.0
1.717	0.0
1.732	0.0
1.746	0.0
1.761	0.0
1.776	0.0
1.791	0.0
1.806	0.0
1.82	0.0
1.835	0.0
1.85	0.0
1.865	0.0
1.88	0.0
1.894	0.0
1.909	0.0
1.924	0.0
1.939	0.0
1.954	0.0
1.968	0.0
1.983	1.0
1.998	0.0
2.013	0.0
2.028	1.0
2.042	0.0
2.057	0.0
2.072	2.0
2.087	0.0
2.101	0.0
2.116	0.0
2.131	0.0
2.146	0.0
2.161	1.0
2.175	0.0
2.19	0.0
2.205	0.0
2.22	0.0
2.235	0.0
2.249	1.0
2.264	1.0
2.279	0.0
2.294	0.0
2.308	0.0
2.323	1.0
2.338	2.0
2.353	1.0
2.368	0.0
2.382	1.0
2.397	0.0
2.412	1.0
2.427	2.0
2.442	2.0
2.456	0.0
2.471	1.0
2.486	2.0
2.501	2.0
2.515	2.0
2.53	3.0
2.545	0.0
2.56	3.0
2.575	1.0
2.589	3.0
2.604	10.0
2.619	0.0
2.634	3.0
2.649	0.0
2.663	5.0
2.678	3.0
2.693	1.0
2.708	2.0
2.722	6.0
2.737	3.0
2.752	3.0
2.767	2.0
2.782	2.0
2.796	2.0
2.811	3.0
2.826	2.0
2.841	1.0
2.856	2.0
2.87	2.0
2.885	3.0
2.9	3.0
2.915	0.0
2.93	1.0
2.944	3.0
2.959	9.0
2.974	3.0
2.989	3.0
3.004	5.0
3.018	4.0
3.033	2.0
3.048	4.0
3.063	4.0
3.078	3.0
3.092	8.0
3.107	4.0
3.122	1.0
3.137	7.0
3.152	3.0
3.166	4.0
3.181	4.0
3.196	7.0
3.211	2.0
3.226	4.0
3.24	4.0
3.255	3.0
3.27	6.0
3.285	4.0
3.3	2.0
3.315	5.0
3.329	3.0
3.344	5.0
3.359	2.0
3.374	6.0
3.389	8.0
3.403	1.0
3.418	5.0
3.433	3.0
3.448	9.0
3.463	9.0
3.478	6.0
3.492	3.0
3.507	5.0
3.522	4.0
3.537	6.0
3.552	7.0
3.567	6.0
3.581	2.0
3.596	7.0
3.611	5.0
3.626	4.0
3.641	2.0
3.656	10.0
3.671	5.0
3.685	9.0
3.7	3.0
3.715	4.0
3.73	6.0
3.745	4.0
3.76	4.0
3.775	2.0
3.789	9.0
3.804	6.0
3.819	8.0
3.834	6.0
3.849	1.0
3.864	1.0
3.879	9.0
3.894	5.0
3.908	7.0
3.923	4.0
3.938	6.0
3.953	7.0
3.968	5.0
3.983	7.0
3.998	7.0
4.013	7.0
4.027	10.0
4.042	8.0
4.057	8.0
4.072	5.0
4.087	10.0
4.102	6.0
4.117	4.0
4.132	8.0
4.147	9.0
4.162	1.0
4.176	6.0
4.191	10.0
4.206	4.0
4.221	10.0
4.236	7.0
4.251	4.0
4.266	5.0
4.281	7.0
4.296	8.0
4.311	4.0
4.326	4.0
4.341	6.0
4.356	6.0
4.37	10.0
4.385	7.0
4.4	7.0
4.415	4.0
4.43	5.0
4.445	6.0
4.46	7.0
4.475	5.0
4.49	6.0
4.505	8.0
4.52	3.0
4.535	6.0
4.55	7.0
4.565	6.0
4.58	6.0
4.595	10.0
4.61	8.0
4.625	6.0
4.639	9.0
4.654	5.0
4.669	9.0
4.684	6.0
4.699	10.0
4.714	7.0
4.729	10.0
4.744	5.0
4.759	5.0
4.774	7.0
4.789	7.0
4.804	7.0
4.819	5.0
4.834	6.0
4.849	9.0
4.864	5.0
4.879	9.0
4.894	12.0
4.909	4.0
4.924	8.0
4.939	7.0
4.954	9.0
4.969	4.0
4.984	9.0
4.999	6.0
5.014	7.0
5.029	6.0
5.044	3.0
5.059	9.0
5.074	10.0
5.089	8.0
5.104	4.0
5.119	13.0
5.134	9.0
5.149	9.0
5.164	10.0
5.179	6.0
5.194	8.0
5.209	12.0
5.224	9.0
5.239	8.0
5.254	7.0
5.269	10.0
5.284	7.0
5.299	5.0
5.314	13.0
5.329	9.0
5.344	8.0
5.359	9.0
5.374	7.0
5.389	4.0
5.404	12.0
5.419	8.0
5.434	7.0
5.449	6.0
5.464	4.0
5.479	3.0
5.494	13.0
5.509	12.0
5.524	8.0
5.539	17.0
5.554	7.0
5.569	5.0
5.584	8.0
5.599	5.0
5.614	11.0
5.629	9.0
5.644	5.0
5.659	8.0
5.674	13.0
5.689	8.0
5.704	3.0
5.719	7.0
5.734	6.0
5.749	9.0
5.764	10.0
5.779	7.0
5.794	6.0
5.809	12.0
5.824	6.0
5.839	8.0
5.854	5.0
5.869	6.0
5.884	3.0
5.899	8.0
5.914	4.0
5.929	12.0
5.944	2.0
5.959	9.0
5.974	15.0
5.989	14.0
6.004	4.0
6.019	4.0
6.034	10.0
6.049	8.0
6.064	9.0
6.079	18.0
6.094	7.0
6.109	8.0
6.124	9.0
6.139	5.0
6.154	5.0
6.169	4.0
6.184	3.0
6.199	4.0
6.214	11.0
6.229	8.0
6.244	6.0
6.259	6.0
6.274	7.0
6.289	6.0
6.304	15.0
6.319	11.0
6.334	10.0
6.349	15.0
6.364	7.0
6.379	4.0
6.394	7.0
6.409	14.0
6.424	12.0
6.439	8.0
6.454	7.0
6.469	8.0
6.484	4.0
6.499	6.0
6.514	5.0
6.529	8.0
6.544	8.0
6.559	10.0
6.574	10.0
6.589	4.0
6.604	9.0
6.619	6.0
6.634	5.0
6.649	3.0
6.664	8.0
6.679	11.0
6.694	10.0
6.709	9.0
6.724	10.0
6.739	5.0
6.754	15.0
6.769	8.0
6.784	7.0
6.799	5.0
6.814	7.0
6.829	7.0
6.844	8.0
6.859	6.0
6.873	5.0
6.888	14.0
6.903	8.0
6.918	9.0
6.933	8.0
6.948	6.0
6.963	9.0
6.978	10.0
6.993	10.0
7.008	7.0
7.023	12.0
7.038	6.0
7.053	10.0
7.068	9.0
7.083	8.0
7.098	19.0
7.113	11.0
7.128	6.0
7.143	12.0
7.157	9.0
7.172	9.0
7.187	7.0
7.202	5.0
7.217	8.0
7.232	6.0
7.247	5.0
7.262	8.0
7.277	7.0
7.292	9.0
7.307	15.0
7.322	6.0
7.336	3.0
7.351	9.0
7.366	3.0
7.381	9.0
7.396	8.0
7.411	13.0
7.426	4.0
7.441	5.0
7.456	9.0
7.471	8.0
7.485	6.0
7.5	3.0
7.515	7.0
7.53	7.0
7.545	12.0
7.56	10.0
7.575	3.0
7.59	11.0
7.604	6.0
7.619	12.0
7.634	3.0
7.649	13.0
7.664	7.0
7.679	12.0
7.693	9.0
7.708	3.0
7.723	15.0
7.738	6.0
7.753	4.0
7.768	6.0
7.783	10.0
7.797	9.0
7.812	13.0
7.827	12.0
7.842	6.0
7.857	7.0
7.871	7.0
7.886	6.0
7.901	7.0
7.916	9.0
7.931	9.0
7.945	12.0
7.96	4.0
7.975	16.0
7.99	9.0
8.005	4.0
8.019	6.0
8.034	14.0
8.049	7.0
8.064	12.0
8.078	6.0
8.093	6.0
8.108	6.0
8.123	2.0
8.137	7.0
8.152	5.0
8.167	8.0
8.182	5.0
8.196	7.0
8.211	10.0
8.226	9.0
8.241	9.0
8.255	7.0
8.27	15.0
8.285	5.0
8.3	9.0
8.314	5.0
8.329	6.0
8.344	8.0
8.358	9.0
8.373	6.0
8.388	6.0
8.403	8.0
8.417	8.0
8.432	9.0
8.447	12.0
8.461	10.0
8.476	8.0
8.491	6.0
8.505	4.0
8.52	9.0
8.535	10.0
8.55	11.0
8.564	3.0
8.579	6.0
8.594	4.0
8.608	6.0
8.623	12.0
8.638	8.0
8.652	11.0
8.667	11.0
8.682	10.0
8.696	12.0
8.711	11.0
8.726	4.0
8.74	7.0
8.755	5.0
8.77	11.0
8.784	8.0
8.799	5.0
8.814	5.0
8.828	6.0
8.843	7.0
8.858	10.0
8.872	9.0
8.887	5.0
8.902	7.0
8.916	5.0
8.931	5.0
8.946	7.0
8.96	9.0
8.975	10.0
8.99	4.0
9.004	10.0
9.019	7.0
9.034	3.0
9.048	9.0
9.063	17.0
9.077	11.0
9.092	7.0
9.107	13.0
9.121	10.0
9.136	9.0
9.151	9.0
9.165	7.0
9.18	4.0
9.195	7.0
9.209	10.0
9.224	6.0
9.239	4.0
9.253	11.0
9.268	10.0
9.283	9.0
9.297	10.0
9.312	8.0
9.327	5.0
9.341	7.0
9.356	10.0
9.371	14.0
9.385	12.0
9.4	8.0
9.415	3.0
9.429	3.0
9.444	11.0
9.458	5.0
9.473	15.0
9.488	6.0
9.502	4.0
9.517	4.0
9.532	9.0
9.546	14.0
9.561	12.0
9.576	5.0
9.59	3.0
9.605	8.0
9.62	6.0
9.635	8.0
9.649	10.0
9.664	8.0
9.679	2.0
9.693	12.0
9.708	12.0
9.723	5.0
9.737	8.0
9.752	10.0
9.767	9.0
9.781	5.0
9.796	4.0
9.811	5.0
9.825	10.0
9.84	9.0
9.855	7.0
9.87	6.0
9.884	15.0
9.899	13.0
9.914	8.0
9.928	11.0
9.943	10.0
9.958	10.0
9.973	6.0
9.987	4.0
10.002	5.0
10.017	7.0
10.031	7.0
10.046	6.0
10.061	9.0
10.076	12.0
10.09	15.0
10.105	7.0
10.12	10.0
10.135	9.0
10.149	8.0
10.164	6.0
10.179	6.0
10.194	12.0
10.208	8.0
10.223	7.0
10.238	4.0
10.253	13.0
10.267	8.0
10.282	3.0
10.297	7.0
10.312	11.0
10.326	8.0
10.341	7.0
10.356	5.0
10.371	10.0
10.386	6.0
10.4	7.0
10.415	8.0
10.43	4.0
10.445	2.0
10.46	12.0
10.474	8.0
10.489	7.0
10.504	7.0
10.519	9.0
10.533	10.0
10.548	10.0
10.563	7.0
10.578	6.0
10.593	14.0
10.608	6.0
10.622	4.0
10.637	8.0
10.652	6.0
10.667	7.0
10.682	10.0
10.696	5.0
10.711	8.0
10.726	7.0
10.741	9.0
10.756	13.0
10.771	8.0
10.785	8.0
10.8	5.0
10.815	11.0
10.83	3.0
10.845	7.0
10.86	12.0
10.874	12.0
10.889	5.0
10.904	9.0
10.919	6.0
10.934	6.0
10.949	6.0
10.963	9.0
10.978	7.0
10.993	9.0
11.008	4.0
11.023	7.0
11.038	11.0
11.053	6.0
11.067	6.0
11.082	9.0
11.097	10.0
11.112	11.0
11.127	9.0
11.142	9.0
11.157	8.0
11.172	7.0
11.186	9.0
11.201	10.0
11.216	9.0
11.231	6.0
11.246	8.0
11.261	7.0
11.276	9.0
11.291	6.0
11.305	9.0
11.32	6.0
11.335	7.0
11.35	4.0
11.365	7.0
11.38	6.0
11.395	5.0
11.41	7.0
11.424	6.0
11.439	11.0
11.454	8.0
11.469	6.0
11.484	5.0
11.499	7.0
11.514	9.0
11.529	12.0
11.544	7.0
11.558	5.0
11.573	6.0
11.588	6.0
11.603	8.0
11.618	8.0
11.633	10.0
11.648	7.0
11.663	2.0
11.678	9.0
11.693	9.0
11.707	8.0
11.722	12.0
11.737	8.0
11.752	5.0
11.767	8.0
11.782	8.0
11.797	7.0
11.812	13.0
11.827	9.0
11.842	10.0
11.856	6.0
11.871	4.0
11.886	11.0
11.901	7.0
11.916	5.0
11.931	13.0
11.946	14.0
11.961	18.0
11.976	7.0
11.991	8.0
12.006	9.0
12.02	9.0
12.035	7.0
12.05	12.0
12.065	9.0
12.08	7.0
12.095	6.0
12.11	8.0
12.125	7.0
12.14	12.0
12.155	9.0
12.17	14.0
12.184	5.0
12.199	12.0
12.214	17.0
12.229	8.0
12.244	8.0
12.259	12.0
12.274	9.0
12.289	10.0
12.304	11.0
12.319	8.0
12.334	7.0
12.348	11.0
12.363	13.0
12.378	11.0
12.393	15.0
12.408	12.0
12.423	8.0
12.438	12.0
12.453	12.0
12.468	9.0
12.483	15.0
12.498	11.0
12.513	8.0
12.527	9.0
12.542	12.0
12.557	8.0
12.572	17.0
12.587	14.0
12.602	19.0
12.617	7.0
12.632	15.0
12.647	17.0
12.662	11.0
12.677	14.0
12.692	13.0
12.707	12.0
12.721	10.0
12.736	11.0
12.751	11.0
12.766	11.0
12.781	17.0
12.796	18.0
12.811	12.0
12.826	15.0
12.841	15.0
12.856	18.0
12.871	18.0
12.886	22.0
12.9	21.0
12.915	9.0
12.93	18.0
12.945	22.0
12.96	21.0
12.975	17.0
12.99	20.0
13.005	18.0
13.02	10.0
13.035	10.0
13.05	18.0
13.065	16.0
13.08	16.0
13.094	12.0
13.109	16.0
13.124	9.0
13.139	16.0
13.154	16.0
13.169	17.0
13.184	18.0
13.199	19.0
13.214	22.0
13.229	7.0
13.244	11.0
13.259	27.0
13.274	19.0
13.288	18.0
13.303	24.0
13.318	23.0
13.333	17.0
13.348	29.0
13.363	14.0
13.378	33.0
13.393	28.0
13.408	24.0
13.423	30.0
13.438	32.0
13.453	29.0
13.468	25.0
13.482	38.0
13.497	42.0
13.512	39.0
13.527	35.0
13.542	46.0
13.557	55.0
13.572	49.0
13.587	62.0
13.602	60.0
13.617	72.0
13.632	66.0
13.647	71.0
13.662	70.0
13.677	84.0
13.691	86.0
13.706	96.0
13.721	110.0
13.736	92.0
13.751	97.0
13.766	128.0
13.781	126.0
13.796	126.0
13.811	129.0
13.826	124.0
13.841	132.0
13.856	109.0
13.871	95.0
13.885	111.0
13.9	92.0
13.915	58.0
13.93	65.0
13.945	57.0
13.96	50.0
13.975	37.0
13.99	46.0
14.005	39.0
14.02	44.0
14.035	32.0
14.05	25.0
14.065	22.0
14.08	27.0
14.094	20.0
14.109	14.0
14.124	27.0
14.139	32.0
14.154	27.0
14.169	22.0
14.184	30.0
14.199	23.0
14.214	13.0
14.229	21.0
14.244	27.0
14.259	26.0
14.274	19.0
14.288	27.0
14.303	15.0
14.318	25.0
14.333	11.0
14.348	17.0
14.363	14.0
14.378	15.0
14.393	19.0
14.408	17.0
14.423	20.0
14.438	15.0
14.453	15.0
14.468	21.0
14.482	12.0
14.497	25.0
14.512	23.0
14.527	18.0
14.542	14.0
14.557	17.0
14.572	12.0
14.587	18.0
14.602	17.0
14.617	18.0
14.632	17.0
14.647	19.0
14.661	14.0
14.676	20.0
14.691	13.0
14.706	14.0
14.721	11.0
14.736	15.0
14.751	11.0
14.766	23.0
14.781	20.0
14.796	15.0
14.811	15.0
14.826	18.0
14.84	18.0
14.855	14.0
14.87	14.0
14.885	15.0
14.9	22.0
14.915	22.0
14.93	19.0
14.945	17.0
14.96	15.0
14.975	17.0
14.989	12.0
15.004	12.0
15.019	11.0
15.034	15.0
15.049	14.0
15.064	12.0
15.079	18.0
15.094	9.0
15.109	21.0
15.124	16.0
15.138	14.0
15.153	14.0
15.168	20.0
15.183	18.0
15.198	14.0
15.213	14.0
15.228	18.0
15.243	18.0
15.258	15.0
15.272	9.0
15.287	17.0
15.302	19.0
15.317	15.0
15.332	14.0
15.347	11.0
15.362	17.0
15.377	15.0
15.391	12.0
15.406	7.0
15.421	12.0
15.436	17.0
15.451	15.0
15.466	17.0
15.481	5.0
15.496	19.0
15.51	16.0
15.525	13.0
15.54	11.0
15.555	19.0
15.57	13.0
15.585	19.0
15.6	16.0
15.614	13.0
15.629	15.0
15.644	15.0
15.659	14.0
15.674	6.0
15.689	5.0
15.704	16.0
15.718	10.0
15.733	16.0
15.748	14.0
15.763	13.0
15.778	16.0
15.793	9.0
15.808	16.0
15.822	14.0
15.837	15.0
15.852	9.0
15.867	11.0
15.882	13.0
15.897	8.0
15.911	14.0
15.926	13.0
15.941	8.0
15.956	13.0
15.971	15.0
15.986	18.0
16.0	10.0
16.015	17.0
16.03	9.0
16.045	9.0
16.06	17.0
16.074	11.0
16.089	26.0
16.104	11.0
16.119	11.0
16.134	15.0
16.149	22.0
16.163	15.0
16.178	15.0
16.193	9.0
16.208	16.0
16.223	23.0
16.237	14.0
16.252	13.0
16.267	18.0
16.282	14.0
16.297	18.0
16.311	20.0
16.326	18.0
16.341	15.0
16.356	17.0
16.37	8.0
16.385	12.0
16.4	15.0
16.415	19.0
16.43	11.0
16.444	14.0
16.459	12.0
16.474	15.0
16.489	10.0
16.504	18.0
16.518	15.0
16.533	15.0
16.548	18.0
16.563	17.0
16.577	23.0
16.592	18.0
16.607	26.0
16.622	23.0
16.637	23.0
16.651	13.0
16.666	23.0
16.681	19.0
16.696	22.0
16.71	25.0
16.725	36.0
16.74	21.0
16.755	35.0
16.77	34.0
16.784	44.0
16.799	37.0
16.814	55.0
16.829	55.0
16.843	61.0
16.858	47.0
16.873	58.0
16.888	64.0
16.902	67.0
16.917	86.0
16.932	56.0
16.947	64.0
16.961	72.0
16.976	80.0
16.991	81.0
17.006	77.0
17.021	60.0
17.035	50.0
17.05	43.0
17.065	45.0
17.08	45.0
17.094	37.0
17.109	27.0
17.124	24.0
17.139	25.0
17.153	24.0
17.168	25.0
17.183	13.0
17.198	14.0
17.212	16.0
17.227	19.0
17.242	14.0
17.257	16.0
17.271	23.0
17.286	10.0
17.301	17.0
17.316	14.0
17.33	15.0
17.345	12.0
17.36	13.0
17.375	18.0
17.39	20.0
17.404	11.0
17.419	17.0
17.434	11.0
17.449	12.0
17.463	9.0
17.478	16.0
17.493	14.0
17.508	22.0
17.522	13.0
17.537	9.0
17.552	8.0
17.567	14.0
17.581	14.0
17.596	11.0
17.611	24.0
17.626	17.0
17.641	10.0
17.655	10.0
17.67	15.0
17.685	12.0
17.7	5.0
17.714	14.0
17.729	11.0
17.744	14.0
17.759	4.0
17.773	11.0
17.788	13.0
17.803	8.0
17.818	11.0
17.833	17.0
17.847	13.0
17.862	5.0
17.877	16.0
17.892	9.0
17.906	7.0
17.921	10.0
17.936	13.0
17.951	4.0
17.966	13.0
17.98	7.0
17.995	8.0
18.01	8.0
18.025	11.0
18.04	14.0
18.054	8.0
18.069	13.0
18.084	9.0
18.099	14.0
18.114	8.0
18.128	16.0
18.143	10.0
18.158	10.0
18.173	8.0
18.188	17.0
18.202	7.0
18.217	17.0
18.232	14.0
18.247	8.0
18.262	14.0
18.276	13.0
18.291	12.0
18.306	10.0
18.321	11.0
18.336	9.0
18.35	15.0
18.365	11.0
18.38	11.0
18.395	10.0
18.41	4.0
18.424	7.0
18.439	6.0
18.454	15.0
18.469	13.0
18.484	18.0
18.498	8.0
18.513	10.0
18.528	13.0
18.543	12.0
18.558	17.0
18.573	8.0
18.587	10.0
18.602	13.0
18.617	10.0
18.632	11.0
18.647	14.0
18.661	13.0
18.676	10.0
18.691	16.0
18.706	8.0
18.721	9.0
18.736	8.0
18.75	11.0
18.765	7.0
18.78	11.0
18.795	8.0
18.81	11.0
18.825	13.0
18.839	12.0
18.854	11.0
18.869	10.0
18.884	16.0
18.899	13.0
18.913	9.0
18.928	16.0
18.943	11.0
18.958	8.0
18.973	12.0
18.988	14.0
19.002	12.0
19.017	5.0
19.032	20.0
19.047	11.0
19.062	13.0
19.077	11.0
19.091	12.0
19.106	15.0
19.121	14.0
19.136	6.0
19.151	10.0
19.165	10.0
19.18	9.0
19.195	11.0
19.21	14.0
19.225	14.0
19.24	22.0
19.254	5.0
19.269	10.0
19.284	24.0
19.299	17.0
19.314	13.0
19.329	12.0
19.343	17.0
19.358	15.0
19.373	18.0
19.388	12.0
19.403	20.0
19.417	24.0
19.432	14.0
19.447	21.0
19.462	33.0
19.477	39.0
19.492	19.0
19.506	37.0
19.521	37.0
19.536	37.0
19.551	30.0
19.566	42.0
19.58	37.0
19.595	39.0
19.61	52.0
19.625	37.0
19.64	32.0
19.655	42.0
19.669	46.0
19.684	25.0
19.699	35.0
19.714	19.0
19.729	19.0
19.743	21.0
19.758	15.0
19.773	16.0
19.788	18.0
19.803	23.0
19.817	12.0
19.832	13.0
19.847	16.0
19.862	18.0
19.877	16.0
19.891	11.0
19.906	13.0
19.921	11.0
19.936	13.0
19.951	8.0
19.965	8.0
19.98	9.0
19.995	11.0
20.01	10.0
20.025	13.0
20.039	14.0
20.054	13.0
20.069	5.0
20.084	11.0
20.099	14.0
20.113	9.0
20.128	10.0
20.143	19.0
20.158	16.0
20.173	7.0
20.187	14.0
20.202	8.0
20.217	13.0
20.232	8.0
20.246	11.0
20.261	13.0
20.276	9.0
20.291	6.0
20.306	13.0
20.32	12.0
20.335	13.0
20.35	8.0
20.365	13.0
20.38	10.0
20.394	13.0
20.409	12.0
20.424	12.0
20.439	8.0
20.453	10.0
20.468	11.0
20.483	9.0
20.498	7.0
20.513	12.0
20.527	9.0
20.542	12.0
20.557	7.0
20.572	5.0
20.586	12.0
20.601	13.0
20.616	15.0
20.631	14.0
20.646	14.0
20.66	6.0
20.675	6.0
20.69	9.0
20.705	17.0
20.719	12.0
20.734	10.0
20.749	12.0
20.764	10.0
20.779	17.0
20.793	11.0
20.808	11.0
20.823	10.0
20.838	13.0
20.853	11.0
20.867	12.0
20.882	6.0
20.897	7.0
20.912	8.0
20.926	9.0
20.941	9.0
20.956	5.0
20.971	11.0
20.986	8.0
21.0	8.0
21.015	11.0
21.03	13.0
21.045	10.0
21.06	14.0
21.074	6.0
21.089	14.0
21.104	11.0
21.119	13.0
21.134	10.0
21.148	9.0
21.163	5.0
21.178	10.0
21.193	10.0
21.208	12.0
21.222	11.0
21.237	12.0
21.252	14.0
21.267	14.0
21.282	22.0
21.296	15.0
21.311	10.0
21.326	12.0
21.341	13.0
21.356	10.0
21.37	10.0
21.385	7.0
21.4	8.0
21.415	9.0
21.43	11.0
21.444	14.0
21.459	9.0
21.474	9.0
21.489	10.0
21.504	12.0
21.519	14.0
21.533	13.0
21.548	9.0
21.563	12.0
21.578	16.0
21.593	15.0
21.608	13.0
21.622	9.0
21.637	14.0
21.652	14.0
21.667	21.0
21.682	14.0
21.697	25.0
21.712	23.0
21.726	24.0
21.741	17.0
21.756	29.0
21.771	32.0
21.786	32.0
21.801	31.0
21.816	42.0
21.83	45.0
21.845	46.0
21.86	52.0
21.875	63.0
21.89	75.0
21.905	70.0
21.92	70.0
21.935	75.0
21.949	86.0
21.964	64.0
21.979	58.0
21.994	64.0
22.009	57.0
22.024	68.0
22.039	64.0
22.054	58.0
22.069	58.0
22.083	58.0
22.098	52.0
22.113	36.0
22.128	28.0
22.143	26.0
22.158	26.0
22.173	26.0
22.188	19.0
22.203	22.0
22.218	19.0
22.233	24.0
22.248	9.0
22.262	9.0
22.277	10.0
22.292	15.0
22.307	14.0
22.322	12.0
22.337	7.0
22.352	13.0
22.367	12.0
22.382	16.0
22.397	14.0
22.412	9.0
22.427	14.0
22.442	12.0
22.457	10.0
22.472	14.0
22.487	11.0
22.502	9.0
22.516	11.0
22.531	10.0
22.546	19.0
22.561	17.0
22.576	9.0
22.591	11.0
22.606	11.0
22.621	9.0
22.636	15.0
22.651	12.0
22.666	10.0
22.681	7.0
22.696	12.0
22.711	12.0
22.726	13.0
22.741	7.0
22.756	16.0
22.771	7.0
22.786	7.0
22.801	7.0
22.816	6.0
22.831	13.0
22.846	11.0
22.861	13.0
22.876	7.0
22.891	9.0
22.906	9.0
22.92	6.0
22.935	9.0
22.95	10.0
22.965	10.0
22.98	9.0
22.995	10.0
23.01	15.0
23.025	13.0
23.04	12.0
23.055	13.0
23.07	6.0
23.085	10.0
23.1	11.0
23.115	10.0
23.13	10.0
23.145	6.0
23.16	7.0
23.175	8.0
23.19	9.0
23.205	11.0
23.22	15.0
23.235	9.0
23.25	14.0
23.265	11.0
23.28	8.0
23.295	15.0
23.31	10.0
23.325	10.0
23.34	14.0
23.355	9.0
23.37	9.0
23.384	7.0
23.399	12.0
23.414	14.0
23.429	21.0
23.444	5.0
23.459	10.0
23.474	10.0
23.489	8.0
23.504	9.0
23.519	15.0
23.534	7.0
23.549	4.0
23.564	8.0
23.579	11.0
23.594	4.0
23.609	10.0
23.624	9.0
23.639	12.0
23.654	15.0
23.668	11.0
23.683	5.0
23.698	10.0
23.713	12.0
23.728	8.0
23.743	15.0
23.758	12.0
23.773	11.0
23.788	16.0
23.803	13.0
23.818	16.0
23.833	11.0
23.848	13.0
23.862	13.0
23.877	22.0
23.892	16.0
23.907	19.0
23.922	16.0
23.937	20.0
23.952	23.0
23.967	27.0
23.982	32.0
23.997	40.0
24.011	35.0
24.026	49.0
24.041	48.0
24.056	59.0
24.071	47.0
24.086	54.0
24.101	56.0
24.116	46.0
24.131	48.0
24.145	39.0
24.16	44.0
24.175	45.0
24.19	33.0
24.205	44.0
24.22	31.0
24.235	31.0
24.249	25.0
24.264	34.0
24.279	18.0
24.294	17.0
24.309	18.0
24.324	16.0
24.338	15.0
24.353	10.0
24.368	6.0
24.383	18.0
24.398	20.0
24.413	5.0
24.428	11.0
24.442	8.0
24.457	15.0
24.472	13.0
24.487	11.0
24.502	9.0
24.516	10.0
24.531	3.0
24.546	4.0
24.561	15.0
24.576	13.0
24.591	8.0
24.605	7.0
24.62	8.0
24.635	6.0
24.65	10.0
24.665	5.0
24.679	7.0
24.694	11.0
24.709	7.0
24.724	9.0
24.739	5.0
24.753	16.0
24.768	13.0
24.783	17.0
24.798	11.0
24.813	8.0
24.827	11.0
24.842	11.0
24.857	9.0
24.872	10.0
24.886	7.0
24.901	8.0
24.916	6.0
24.931	6.0
24.946	8.0
24.96	6.0
24.975	13.0
24.99	7.0
25.005	8.0
25.019	11.0
25.034	10.0
25.049	10.0
25.064	12.0
25.078	10.0
25.093	14.0
25.108	7.0
25.123	10.0
25.138	12.0
25.152	13.0
25.167	9.0
25.182	7.0
25.197	8.0
25.211	6.0
25.226	12.0
25.241	9.0
25.256	11.0
25.27	11.0
25.285	13.0
25.3	10.0
25.315	11.0
25.329	6.0
25.344	8.0
25.359	5.0
25.374	5.0
25.388	9.0
25.403	14.0
25.418	8.0
25.433	7.0
25.447	14.0
25.462	6.0
25.477	6.0
25.492	6.0
25.506	10.0
25.521	5.0
25.536	8.0
25.55	7.0
25.565	12.0
25.58	8.0
25.595	7.0
25.609	4.0
25.624	10.0
25.639	9.0
25.654	12.0
25.668	10.0
25.683	6.0
25.698	6.0
25.713	9.0
25.727	4.0
25.742	8.0
25.757	11.0
25.772	5.0
25.786	9.0
25.801	8.0
25.816	9.0
25.83	12.0
25.845	9.0
25.86	10.0
25.875	7.0
25.889	7.0
25.904	11.0
25.919	7.0
25.934	7.0
25.948	10.0
25.963	9.0
25.978	9.0
25.992	14.0
26.007	11.0
26.022	5.0
26.037	9.0
26.051	7.0
26.066	7.0
26.081	15.0
26.096	10.0
26.11	8.0
26.125	8.0
26.14	7.0
26.155	11.0
26.169	9.0
26.184	9.0
26.199	11.0
26.213	6.0
26.228	10.0
26.243	8.0
26.258	5.0
26.272	8.0
26.287	14.0
26.302	4.0
26.317	17.0
26.331	9.0
26.346	8.0
26.361	9.0
26.376	14.0
26.39	7.0
26.405	11.0
26.42	12.0
26.434	16.0
26.449	12.0
26.464	8.0
26.479	8.0
26.493	12.0
26.508	15.0
26.523	9.0
26.538	11.0
26.552	12.0
26.567	7.0
26.582	4.0
26.597	9.0
26.611	10.0
26.626	4.0
26.641	6.0
26.656	7.0
26.67	7.0
26.685	15.0
26.7	10.0
26.715	12.0
26.729	9.0
26.744	12.0
26.759	5.0
26.773	4.0
26.788	10.0
26.803	8.0
26.818	7.0
26.832	12.0
26.847	17.0
26.862	6.0
26.877	8.0
26.891	11.0
26.906	6.0
26.921	11.0
26.936	10.0
26.95	7.0
26.965	9.0
26.98	15.0
26.995	8.0
27.01	12.0
27.024	5.0
27.039	7.0
27.054	14.0
27.069	6.0
27.083	8.0
27.098	10.0
27.113	16.0
27.128	11.0
27.142	4.0
27.157	12.0
27.172	4.0
27.187	8.0
27.201	11.0
27.216	15.0
27.231	7.0
27.246	14.0
27.261	8.0
27.275	11.0
27.29	10.0
27.305	14.0
27.32	6.0
27.334	9.0
27.349	7.0
27.364	6.0
27.379	8.0
27.394	9.0
27.408	14.0
27.423	13.0
27.438	10.0
27.453	12.0
27.467	9.0
27.482	8.0
27.497	12.0
27.512	6.0
27.527	11.0
27.541	9.0
27.556	8.0
27.571	12.0
27.586	6.0
27.601	16.0
27.615	10.0
27.63	13.0
27.645	11.0
27.66	13.0
27.675	18.0
27.689	9.0
27.704	16.0
27.719	23.0
27.734	8.0
27.749	17.0
27.763	16.0
27.778	8.0
27.793	21.0
27.808	23.0
27.823	14.0
27.838	29.0
27.852	22.0
27.867	19.0
27.882	27.0
27.897	25.0
27.912	22.0
27.926	16.0
27.941	18.0
27.956	20.0
27.971	17.0
27.986	12.0
28.001	17.0
28.015	18.0
28.03	18.0
28.045	19.0
28.06	12.0
28.075	20.0
28.09	19.0
28.105	13.0
28.119	14.0
28.134	21.0
28.149	14.0
28.164	6.0
28.179	16.0
28.194	11.0
28.208	12.0
28.223	9.0
28.238	9.0
28.253	1.0
28.268	6.0
28.283	5.0
28.298	10.0
28.312	16.0
28.327	7.0
28.342	13.0
28.357	6.0
28.372	9.0
28.387	8.0
28.402	9.0
28.417	11.0
28.431	9.0
28.446	15.0
28.461	12.0
28.476	5.0
28.491	15.0
28.506	8.0
28.521	9.0
28.536	7.0
28.55	8.0
28.565	14.0
28.58	16.0
28.595	13.0
28.61	19.0
28.625	16.0
28.64	14.0
28.655	12.0
28.669	9.0
28.684	16.0
28.699	7.0
28.714	12.0
28.729	11.0
28.744	9.0
28.759	12.0
28.774	7.0
28.788	14.0
28.803	12.0
28.818	11.0
28.833	9.0
28.848	18.0
28.863	10.0
28.878	8.0
28.893	15.0
28.908	8.0
28.922	10.0
28.937	9.0
28.952	10.0
28.967	10.0
28.982	9.0
28.997	11.0
29.012	10.0
29.027	8.0
29.041	18.0
29.056	11.0
29.071	18.0
29.086	14.0
29.101	16.0
29.116	8.0
29.131	10.0
29.146	12.0
29.16	7.0
29.175	8.0
29.19	5.0
29.205	9.0
29.22	16.0
29.235	7.0
29.25	12.0
29.265	9.0
29.279	7.0
29.294	20.0
29.309	11.0
29.324	11.0
29.339	22.0
29.354	14.0
29.369	14.0
29.384	16.0
29.398	11.0
29.413	17.0
29.428	24.0
29.443	32.0
29.458	29.0
29.473	26.0
29.488	18.0
29.502	26.0
29.517	21.0
29.532	31.0
29.547	44.0
29.562	52.0
29.577	40.0
29.592	40.0
29.606	43.0
29.621	48.0
29.636	53.0
29.651	36.0
29.666	47.0
29.681	43.0
29.695	39.0
29.71	48.0
29.725	34.0
29.74	37.0
29.755	31.0
29.77	37.0
29.784	33.0
29.799	28.0
29.814	34.0
29.829	20.0
29.844	28.0
29.859	18.0
29.873	16.0
29.888	16.0
29.903	13.0
29.918	14.0
29.933	12.0
29.947	14.0
29.962	8.0
29.977	12.0
29.992	14.0
30.007	7.0
30.021	10.0
30.036	9.0
30.051	6.0
30.066	9.0
30.081	17.0
30.095	9.0
30.11	9.0
30.125	7.0
30.14	13.0
30.155	7.0
30.169	8.0
30.184	13.0
30.199	8.0
30.214	12.0
30.228	10.0
30.243	11.0
30.258	7.0
30.273	13.0
30.288	9.0
30.302	13.0
30.317	15.0
30.332	15.0
30.347	11.0
30.361	15.0
30.376	13.0
30.391	15.0
30.406	12.0
30.42	10.0
30.435	12.0
30.45	10.0
30.465	10.0
30.479	13.0
30.494	9.0
30.509	18.0
30.524	11.0
30.538	8.0
30.553	13.0
30.568	12.0
30.583	11.0
30.597	8.0
30.612	15.0
30.627	6.0
30.641	16.0
30.656	13.0
30.671	9.0
30.686	3.0
30.7	10.0
30.715	12.0
30.73	9.0
30.745	16.0
30.759	12.0
30.774	15.0
30.789	11.0
30.803	10.0
30.818	17.0
30.833	8.0
30.848	17.0
30.862	7.0
30.877	12.0
30.892	11.0
30.906	9.0
30.921	11.0
30.936	15.0
30.951	13.0
30.965	10.0
30.98	4.0
30.995	13.0
31.009	4.0
31.024	13.0
31.039	10.0
31.053	8.0
31.068	13.0
31.083	25.0
31.098	17.0
31.112	21.0
31.127	23.0
31.142	15.0
31.156	28.0
31.171	25.0
31.186	30.0
31.2	43.0
31.215	24.0
31.23	26.0
31.245	44.0
31.259	45.0
31.274	34.0
31.289	28.0
31.303	34.0
31.318	37.0
31.333	41.0
31.347	32.0
31.362	25.0
31.377	22.0
31.392	36.0
31.406	25.0
31.421	26.0
31.436	16.0
31.45	26.0
31.465	19.0
31.48	25.0
31.494	17.0
31.509	19.0
31.524	15.0
31.538	19.0
31.553	18.0
31.568	11.0
31.583	17.0
31.597	12.0
31.612	11.0
31.627	9.0
31.641	14.0
31.656	10.0
31.671	13.0
31.685	13.0
31.7	8.0
31.715	13.0
31.729	13.0
31.744	12.0
31.759	16.0
31.774	11.0
31.788	17.0
31.803	8.0
31.818	5.0
31.832	10.0
31.847	11.0
31.862	8.0
31.876	9.0
31.891	8.0
31.906	6.0
31.92	17.0
31.935	12.0
31.95	10.0
31.965	6.0
31.979	11.0
31.994	5.0
32.009	8.0
32.023	13.0
32.038	5.0
32.053	11.0
32.067	11.0
32.082	14.0
32.097	10.0
32.112	9.0
32.126	4.0
32.141	15.0
32.156	16.0
32.17	12.0
32.185	13.0
32.2	9.0
32.214	12.0
32.229	11.0
32.244	11.0
32.259	4.0
32.273	12.0
32.288	6.0
32.303	15.0
32.317	10.0
32.332	10.0
32.347	8.0
32.362	9.0
32.376	13.0
32.391	7.0
32.406	9.0
32.42	12.0
32.435	10.0
32.45	11.0
32.465	12.0
32.479	8.0
32.494	10.0
32.509	5.0
32.523	10.0
32.538	8.0
32.553	14.0
32.568	5.0
32.582	11.0
32.597	15.0
32.612	7.0
32.627	9.0
32.641	12.0
32.656	11.0
32.671	12.0
32.685	17.0
32.7	14.0
32.715	14.0
32.73	11.0
32.744	25.0
32.759	26.0
32.774	25.0
32.788	29.0
32.803	27.0
32.818	24.0
32.833	20.0
32.847	28.0
32.862	30.0
32.877	17.0
32.892	22.0
32.906	29.0
32.921	15.0
32.936	23.0
32.951	26.0
32.965	24.0
32.98	21.0
32.995	16.0
33.009	21.0
33.024	9.0
33.039	17.0
33.054	16.0
33.068	23.0
33.083	11.0
33.098	11.0
33.113	9.0
33.127	12.0
33.142	5.0
33.157	16.0
33.172	15.0
33.186	8.0
33.201	9.0
33.216	15.0
33.231	18.0
33.245	15.0
33.26	7.0
33.275	9.0
33.29	5.0
33.304	14.0
33.319	14.0
33.334	13.0
33.349	5.0
33.363	6.0
33.378	6.0
33.393	7.0
33.408	8.0
33.422	9.0
33.437	4.0
33.452	11.0
33.467	7.0
33.481	12.0
33.496	14.0
33.511	7.0
33.526	10.0
33.54	10.0
33.555	12.0
33.57	13.0
33.585	13.0
33.599	7.0
33.614	7.0
33.629	7.0
33.644	15.0
33.658	5.0
33.673	6.0
33.688	13.0
33.703	9.0
33.718	6.0
33.732	10.0
33.747	9.0
33.762	6.0
33.777	13.0
33.791	7.0
33.806	10.0
33.821	9.0
33.836	8.0
33.85	4.0
33.865	6.0
33.88	4.0
33.895	7.0
33.91	9.0
33.924	8.0
33.939	9.0
33.954	12.0
33.969	16.0
33.983	9.0
33.998	9.0
34.013	8.0
34.028	10.0
34.042	14.0
34.057	15.0
34.072	9.0
34.087	8.0
34.102	5.0
34.116	7.0
34.131	13.0
34.146	16.0
34.161	14.0
34.175	8.0
34.19	10.0
34.205	10.0
34.22	19.0
34.235	13.0
34.249	8.0
34.264	15.0
34.279	12.0
34.294	21.0
34.309	16.0
34.323	10.0
34.338	13.0
34.353	14.0
34.368	10.0
34.382	22.0
34.397	11.0
34.412	20.0
34.427	6.0
34.442	10.0
34.456	13.0
34.471	12.0
34.486	9.0
34.501	7.0
34.516	6.0
34.53	9.0
34.545	10.0
34.56	11.0
34.575	13.0
34.59	9.0
34.604	11.0
34.619	4.0
34.634	11.0
34.649	12.0
34.664	13.0
34.678	14.0
34.693	7.0
34.708	10.0
34.723	14.0
34.738	6.0
34.752	11.0
34.767	11.0
34.782	10.0
34.797	9.0
34.812	12.0
34.826	14.0
34.841	7.0
34.856	9.0
34.871	14.0
34.886	8.0
34.9	12.0
34.915	9.0
34.93	5.0
34.945	10.0
34.96	10.0
34.974	4.0
34.989	10.0
35.004	4.0
35.019	15.0
35.034	3.0
35.048	9.0
35.063	7.0
35.078	9.0
35.093	9.0
35.108	12.0
35.122	7.0
35.137	13.0
35.152	16.0
35.167	8.0
35.182	9.0
35.196	9.0
35.211	11.0
35.226	7.0
35.241	11.0
35.256	8.0
35.27	12.0
35.285	12.0
35.3	12.0
35.315	6.0
35.33	10.0
35.344	6.0
35.359	10.0
35.374	10.0
35.389	7.0
35.404	12.0
35.418	1.0
35.433	5.0
35.448	9.0
35.463	15.0
35.478	9.0
35.493	3.0
35.507	7.0
35.522	6.0
35.537	8.0
35.552	7.0
35.567	7.0
35.581	11.0
35.596	10.0
35.611	11.0
35.626	12.0
35.641	10.0
35.655	8.0
35.67	16.0
35.685	18.0
35.7	23.0
35.715	18.0
35.729	20.0
35.744	16.0
35.759	23.0
35.774	13.0
35.789	11.0
35.804	18.0
35.818	13.0
35.833	20.0
35.848	24.0
35.863	22.0
35.878	13.0
35.892	19.0
35.907	11.0
35.922	17.0
35.937	17.0
35.952	14.0
35.966	14.0
35.981	13.0
35.996	14.0
36.011	13.0
36.026	15.0
36.04	17.0
36.055	8.0
36.07	10.0
36.085	12.0
36.1	8.0
36.114	8.0
36.129	7.0
36.144	8.0
36.159	10.0
36.174	6.0
36.189	8.0
36.203	7.0
36.218	11.0
36.233	9.0
36.248	11.0
36.263	8.0
36.277	10.0
36.292	7.0
36.307	7.0
36.322	12.0
36.337	8.0
36.351	3.0
36.366	8.0
36.381	8.0
36.396	9.0
36.411	10.0
36.426	8.0
36.44	11.0
36.455	7.0
36.47	3.0
36.485	12.0
36.5	8.0
36.514	5.0
36.529	7.0
36.544	12.0
36.559	12.0
36.574	10.0
36.589	9.0
36.603	10.0
36.618	5.0
36.633	10.0
36.648	9.0
36.663	10.0
36.677	9.0
36.692	4.0
36.707	6.0
36.722	8.0
36.737	7.0
36.752	5.0
36.766	9.0
36.781	7.0
36.796	11.0
36.811	3.0
36.826	5.0
36.841	10.0
36.855	6.0
36.87	8.0
36.885	5.0
36.9	7.0
36.915	4.0
36.93	13.0
36.944	4.0
36.959	9.0
36.974	8.0
36.989	7.0
37.004	10.0
37.019	8.0
37.033	8.0
37.048	12.0
37.063	20.0
37.078	9.0
37.093	18.0
37.108	10.0
37.123	25.0
37.137	25.0
37.152	30.0
37.167	30.0
37.182	41.0
37.197	22.0
37.212	22.0
37.226	40.0
37.241	28.0
37.256	18.0
37.271	26.0
37.286	20.0
37.301	14.0
37.316	14.0
37.331	28.0
37.345	14.0
37.36	22.0
37.375	14.0
37.39	22.0
37.405	17.0
37.42	17.0
37.435	20.0
37.45	16.0
37.464	17.0
37.479	18.0
37.494	7.0
37.509	15.0
37.524	13.0
37.539	9.0
37.554	9.0
37.569	4.0
37.583	10.0
37.598	6.0
37.613	5.0
37.628	3.0
37.643	10.0
37.658	5.0
37.673	7.0
37.688	4.0
37.703	5.0
37.718	7.0
37.733	10.0
37.747	5.0
37.762	10.0
37.777	5.0
37.792	10.0
37.807	7.0
37.822	6.0
37.837	12.0
37.852	10.0
37.867	6.0
37.882	7.0
37.897	7.0
37.912	8.0
37.927	5.0
37.941	9.0
37.956	5.0
37.971	10.0
37.986	4.0
38.001	5.0
38.016	3.0
38.031	6.0
38.046	7.0
38.061	7.0
38.076	10.0
38.091	7.0
38.106	3.0
38.121	6.0
38.136	8.0
38.151	6.0
38.166	12.0
38.181	5.0
38.196	3.0
38.211	4.0
38.226	8.0
38.241	9.0
38.256	8.0
38.271	6.0
38.285	6.0
38.3	8.0
38.315	8.0
38.33	7.0
38.345	7.0
38.36	6.0
38.375	10.0
38.39	6.0
38.405	8.0
38.42	7.0
38.435	7.0
38.45	6.0
38.465	9.0
38.48	3.0
38.495	10.0
38.51	14.0
38.525	6.0
38.54	8.0
38.555	10.0
38.57	5.0
38.585	6.0
38.6	6.0
38.615	4.0
38.63	5.0
38.645	5.0
38.66	10.0
38.675	4.0
38.69	7.0
38.705	12.0
38.72	1.0
38.735	4.0
38.75	11.0
38.765	5.0
38.78	5.0
38.795	5.0
38.81	3.0
38.825	7.0
38.84	7.0
38.855	6.0
38.87	7.0
38.885	11.0
38.9	5.0
38.915	6.0
38.93	6.0
38.945	6.0
38.96	7.0
38.975	7.0
38.99	6.0
39.005	5.0
39.02	5.0
39.035	8.0
39.05	7.0
39.065	6.0
39.08	6.0
39.095	8.0
39.11	6.0
39.125	3.0
39.14	9.0
39.155	5.0
39.17	7.0
39.185	5.0
39.2	7.0
39.215	5.0
39.23	5.0
39.245	3.0
39.26	9.0
39.275	4.0
39.29	8.0
39.305	6.0
39.32	2.0
39.335	6.0
39.35	7.0
39.365	14.0
39.38	2.0
39.395	5.0
39.409	7.0
39.424	8.0
39.439	6.0
39.454	4.0
39.469	5.0
39.484	7.0
39.499	5.0
39.514	11.0
39.529	3.0
39.544	8.0
39.559	3.0
39.574	4.0
39.589	7.0
39.604	9.0
39.619	3.0
39.634	7.0
39.649	3.0
39.664	9.0
39.678	5.0
39.693	8.0
39.708	5.0
39.723	7.0
39.738	5.0
39.753	10.0
39.768	3.0
39.783	4.0
39.798	7.0
39.813	11.0
39.827	12.0
39.842	2.0
39.857	12.0
39.872	7.0
39.887	9.0
39.902	6.0
39.917	4.0
39.932	8.0
39.947	6.0
39.961	9.0
39.976	4.0
39.991	9.0
40.006	9.0
40.021	6.0
40.036	8.0
40.051	5.0
40.065	7.0
40.08	6.0
40.095	6.0
40.11	12.0
40.125	9.0
40.14	7.0
40.154	7.0
40.169	6.0
40.184	4.0
40.199	6.0
40.214	5.0
40.228	5.0
40.243	7.0
40.258	6.0
40.273	5.0
40.288	6.0
40.302	3.0
40.317	3.0
40.332	5.0
40.347	7.0
40.362	7.0
40.376	5.0
40.391	5.0
40.406	4.0
40.421	5.0
40.436	4.0
40.45	5.0
40.465	3.0
40.48	6.0
40.495	6.0
40.509	7.0
40.524	8.0
40.539	2.0
40.554	4.0
40.568	4.0
40.583	3.0
40.598	5.0
40.613	10.0
40.627	6.0
40.642	4.0
40.657	3.0
40.672	8.0
40.686	2.0
40.701	7.0
40.716	4.0
40.731	5.0
40.745	3.0
40.76	6.0
40.775	7.0
40.79	3.0
40.804	3.0
40.819	7.0
40.834	6.0
40.849	7.0
40.863	8.0
40.878	4.0
40.893	7.0
40.907	7.0
40.922	9.0
40.937	9.0
40.952	7.0
40.966	7.0
40.981	1.0
40.996	8.0
41.011	12.0
41.025	10.0
41.04	11.0
41.055	15.0
41.069	18.0
41.084	19.0
41.099	13.0
41.114	23.0
41.128	17.0
41.143	12.0
41.158	16.0
41.173	19.0
41.187	13.0
41.202	16.0
41.217	14.0
41.231	7.0
41.246	14.0
41.261	19.0
41.276	7.0
41.29	8.0
41.305	9.0
41.32	7.0
41.335	14.0
41.349	9.0
41.364	13.0
41.379	12.0
41.393	16.0
41.408	6.0
41.423	17.0
41.438	13.0
41.452	13.0
41.467	7.0
41.482	12.0
41.497	14.0
41.511	6.0
41.526	13.0
41.541	4.0
41.556	6.0
41.57	14.0
41.585	3.0
41.6	7.0
41.615	3.0
41.629	8.0
41.644	5.0
41.659	4.0
41.674	9.0
41.688	6.0
41.703	7.0
41.718	8.0
41.733	7.0
41.747	9.0
41.762	6.0
41.777	5.0
41.792	2.0
41.806	3.0
41.821	5.0
41.836	1.0
41.851	8.0
41.866	8.0
41.88	3.0
41.895	4.0
41.91	6.0
41.925	9.0
41.939	11.0
41.954	8.0
41.969	10.0
41.984	6.0
41.999	7.0
42.013	12.0
42.028	8.0
42.043	2.0
42.058	4.0
42.073	5.0
42.088	8.0
42.102	4.0
42.117	5.0
42.132	3.0
42.147	7.0
42.162	5.0
42.176	5.0
42.191	9.0
42.206	5.0
42.221	7.0
42.236	8.0
42.251	7.0
42.266	12.0
42.28	10.0
42.295	19.0
42.31	14.0
42.325	9.0
42.34	12.0
42.355	8.0
42.369	15.0
42.384	19.0
42.399	19.0
42.414	19.0
42.429	16.0
42.444	18.0
42.459	18.0
42.474	18.0
42.488	13.0
42.503	10.0
42.518	11.0
42.533	10.0
42.548	8.0
42.563	7.0
42.578	8.0
42.593	13.0
42.608	10.0
42.622	11.0
42.637	13.0
42.652	13.0
42.667	12.0
42.682	14.0
42.697	15.0
42.712	7.0
42.727	7.0
42.742	4.0
42.757	5.0
42.772	9.0
42.786	5.0
42.801	2.0
42.816	4.0
42.831	7.0
42.846	12.0
42.861	5.0
42.876	6.0
42.891	1.0
42.906	7.0
42.921	4.0
42.936	6.0
42.951	7.0
42.966	3.0
42.981	6.0
42.996	9.0
43.011	5.0
43.025	2.0
43.04	6.0
43.055	7.0
43.07	5.0
43.085	13.0
43.1	11.0
43.115	5.0
43.13	4.0
43.145	6.0
43.16	5.0
43.175	6.0
43.19	3.0
43.205	10.0
43.22	2.0
43.235	7.0
43.25	2.0
43.265	6.0
43.28	7.0
43.295	4.0
43.31	4.0
43.325	4.0
43.34	4.0
43.355	5.0
43.37	8.0
43.385	3.0
43.4	7.0
43.415	5.0
43.43	7.0
43.445	7.0
43.46	9.0
43.475	1.0
43.49	6.0
43.505	9.0
43.52	7.0
43.535	5.0
43.55	5.0
43.565	6.0
43.58	13.0
43.595	9.0
43.61	12.0
43.625	7.0
43.64	8.0
43.655	10.0
43.67	9.0
43.685	4.0
43.7	3.0
43.715	10.0
43.73	10.0
43.745	3.0
43.76	5.0
43.775	6.0
43.79	6.0
43.805	10.0
43.82	4.0
43.835	7.0
43.85	6.0
43.865	6.0
43.88	4.0
43.895	8.0
43.91	4.0
43.925	8.0
43.94	6.0
43.955	3.0
43.97	5.0
43.985	7.0
44.0	5.0
44.015	3.0
44.03	10.0
44.045	9.0
44.061	7.0
44.076	4.0
44.091	7.0
44.106	6.0
44.121	6.0
44.136	6.0
44.151	8.0
44.166	5.0
44.181	3.0
44.196	8.0
44.211	6.0
44.226	11.0
44.241	5.0
44.256	7.0
44.271	6.0
44.286	3.0
44.301	6.0
44.316	4.0
44.331	0.0
44.346	13.0
44.361	4.0
44.377	3.0
44.392	5.0
44.407	4.0
44.422	5.0
44.437	6.0
44.452	3.0
44.467	4.0
44.482	5.0
44.497	9.0
44.512	5.0
44.527	2.0
44.542	2.0
44.557	1.0
44.572	8.0
44.587	6.0
44.602	6.0
44.617	6.0
44.632	8.0
44.647	6.0
44.663	6.0
44.678	9.0
44.693	6.0
44.708	4.0
44.723	9.0
44.738	9.0
44.753	5.0
44.768	14.0
44.783	6.0
44.798	4.0
44.813	11.0
44.828	13.0
44.843	8.0
44.858	10.0
44.873	12.0
44.888	7.0
44.903	9.0
44.918	6.0
44.933	3.0
44.948	6.0
44.964	8.0
44.979	9.0
44.994	3.0
45.009	6.0
45.024	7.0
45.039	13.0
45.054	4.0
45.069	2.0
45.084	12.0
45.099	2.0
45.114	8.0
45.129	10.0
45.144	12.0
45.159	4.0
45.174	5.0
45.189	9.0
45.204	5.0
45.219	5.0
45.234	4.0
45.249	3.0
45.264	7.0
45.279	6.0
45.294	2.0
45.309	6.0
45.324	2.0
45.339	4.0
45.354	9.0
45.369	7.0
45.384	7.0
45.399	6.0
45.414	6.0
45.429	5.0
45.444	7.0
45.459	6.0
45.474	3.0
45.489	5.0
45.504	5.0
45.519	2.0
45.534	4.0
45.549	5.0
45.564	4.0
45.579	3.0
45.594	4.0
45.609	4.0
45.624	5.0
45.639	4.0
45.654	5.0
45.669	9.0
45.684	5.0
45.699	8.0
45.714	6.0
45.729	8.0
45.744	4.0
45.759	4.0
45.774	5.0
45.789	5.0
45.804	9.0
45.819	7.0
45.834	9.0
45.849	5.0
45.864	4.0
45.879	10.0
45.894	10.0
45.909	5.0
45.924	16.0
45.939	22.0
45.954	19.0
45.969	13.0
45.984	15.0
45.998	17.0
46.013	17.0
46.028	11.0
46.043	12.0
46.058	8.0
46.073	12.0
46.088	13.0
46.103	5.0
46.118	9.0
46.133	2.0
46.148	10.0
46.163	8.0
46.178	9.0
46.192	3.0
46.207	11.0
46.222	10.0
46.237	10.0
46.252	15.0
46.267	13.0
46.282	8.0
46.297	18.0
46.312	7.0
46.327	11.0
46.341	13.0
46.356	8.0
46.371	9.0
46.386	5.0
46.401	6.0
46.416	2.0
46.431	5.0
46.446	7.0
46.46	9.0
46.475	7.0
46.49	5.0
46.505	4.0
46.52	5.0
46.535	6.0
46.55	5.0
46.564	6.0
46.579	7.0
46.594	1.0
46.609	5.0
46.624	8.0
46.639	3.0
46.654	4.0
46.668	4.0
46.683	3.0
46.698	4.0
46.713	9.0
46.728	6.0
46.743	4.0
46.758	5.0
46.772	6.0
46.787	7.0
46.802	4.0
46.817	2.0
46.832	1.0
46.847	6.0
46.861	3.0
46.876	4.0
46.891	9.0
46.906	6.0
46.921	7.0
46.936	6.0
46.95	4.0
46.965	5.0
46.98	9.0
46.995	9.0
47.01	9.0
47.025	4.0
47.039	7.0
47.054	7.0
47.069	9.0
47.084	2.0
47.099	12.0
47.113	11.0
47.128	10.0
47.143	11.0
47.158	9.0
47.173	10.0
47.188	3.0
47.202	7.0
47.217	9.0
47.232	4.0
47.247	8.0
47.262	6.0
47.277	5.0
47.291	6.0
47.306	6.0
47.321	4.0
47.336	9.0
47.351	8.0
47.365	5.0
47.38	9.0
47.395	6.0
47.41	9.0
47.425	5.0
47.44	10.0
47.454	6.0
47.469	6.0
47.484	4.0
47.499	4.0
47.514	2.0
47.528	9.0
47.543	3.0
47.558	3.0
47.573	5.0
47.588	2.0
47.603	1.0
47.617	6.0
47.632	8.0
47.647	9.0
47.662	2.0
47.677	2.0
47.691	0.0
47.706	4.0
47.721	4.0
47.736	3.0
47.751	4.0
47.766	4.0
47.78	5.0
47.795	6.0
47.81	3.0
47.825	4.0
47.84	5.0
47.855	5.0
47.869	4.0
47.884	6.0
47.899	2.0
47.914	8.0
47.929	7.0
47.944	5.0
47.958	5.0
47.973	6.0
47.988	2.0
48.003	2.0
48.018	6.0
48.033	7.0
48.047	9.0
48.062	3.0
48.077	7.0
48.092	7.0
48.107	5.0
48.122	3.0
48.137	8.0
48.151	5.0
48.166	2.0
48.181	7.0
48.196	5.0
48.211	4.0
48.226	5.0
48.241	4.0
48.255	3.0
48.27	1.0
48.285	5.0
48.3	4.0
48.315	1.0
48.33	3.0
48.345	3.0
48.359	8.0
48.374	5.0
48.389	6.0
48.404	3.0
48.419	7.0
48.434	8.0
48.449	6.0
48.464	6.0
48.478	5.0
48.493	3.0
48.508	5.0
48.523	5.0
48.538	2.0
48.553	6.0
48.568	3.0
48.583	2.0
48.597	5.0
48.612	5.0
48.627	7.0
48.642	5.0
48.657	6.0
48.672	2.0
48.687	6.0
48.702	6.0
48.717	2.0
48.731	3.0
48.746	8.0
48.761	5.0
48.776	5.0
48.791	6.0
48.806	3.0
48.821	5.0
48.836	1.0
48.851	3.0
48.866	3.0
48.88	2.0
48.895	2.0
48.91	4.0
48.925	4.0
48.94	6.0
48.955	4.0
48.97	7.0
48.985	4.0
49.0	5.0
49.015	4.0
49.03	2.0
49.044	5.0
49.059	2.0
49.074	8.0
49.089	7.0
49.104	4.0
49.119	2.0
49.134	5.0
49.149	9.0
49.164	4.0
49.179	4.0
49.194	4.0
49.209	8.0
49.224	5.0
49.238	4.0
49.253	5.0
49.268	6.0
49.283	5.0
49.298	8.0
49.313	8.0
49.328	2.0
49.343	3.0
49.358	9.0
49.373	11.0
49.388	7.0
49.403	4.0
49.418	7.0
49.433	2.0
49.448	5.0
49.463	5.0
49.478	3.0
49.492	5.0
49.507	6.0
49.522	3.0
49.537	6.0
49.552	6.0
49.567	4.0
49.582	7.0
49.597	3.0
49.612	5.0
49.627	9.0
49.642	5.0
49.657	3.0
49.672	10.0
49.687	2.0
49.702	4.0
49.717	2.0
49.732	5.0
49.747	7.0
49.762	4.0
49.777	4.0
49.792	4.0
49.807	4.0
49.822	2.0
49.837	9.0
49.852	3.0
49.867	3.0
49.882	7.0
49.897	4.0
49.912	2.0
49.927	7.0
49.942	9.0
49.957	5.0
49.971	3.0
49.986	1.0
50.001	3.0
50.016	6.0
50.031	5.0
50.046	3.0
50.061	2.0
50.076	6.0
50.091	1.0
50.106	6.0
50.121	4.0
50.136	3.0
50.151	9.0
50.166	6.0
50.181	6.0
50.196	2.0
50.211	6.0
50.226	6.0
50.241	5.0
50.256	5.0
50.271	2.0
50.286	8.0
50.302	6.0
50.317	5.0
50.332	7.0
50.347	6.0
50.362	4.0
50.377	4.0
50.392	13.0
50.407	7.0
50.422	11.0
50.437	9.0
50.452	10.0
50.467	8.0
50.482	8.0
50.497	17.0
50.512	7.0
50.527	12.0
50.542	4.0
50.557	4.0
50.572	1.0
50.587	9.0
50.602	6.0
50.617	6.0
50.632	5.0
50.647	7.0
50.662	4.0
50.677	11.0
50.692	7.0
50.707	5.0
50.722	7.0
50.737	6.0
50.752	5.0
50.767	2.0
50.782	7.0
50.797	9.0
50.812	10.0
50.828	5.0
50.843	5.0
50.858	6.0
50.873	3.0
50.888	4.0
50.903	3.0
50.918	2.0
50.933	3.0
50.948	5.0
50.963	7.0
50.978	4.0
50.993	3.0
51.008	6.0
51.023	3.0
51.038	3.0
51.053	8.0
51.068	7.0
51.083	4.0
51.098	12.0
51.114	2.0
51.129	1.0
51.144	5.0
51.159	6.0
51.174	10.0
51.189	7.0
51.204	3.0
51.219	7.0
51.234	6.0
51.249	5.0
51.264	4.0
51.279	4.0
51.294	4.0
51.309	2.0
51.324	5.0
51.34	11.0
51.355	5.0
51.37	6.0
51.385	5.0
51.4	8.0
51.415	9.0
51.43	7.0
51.445	5.0
51.46	7.0
51.475	14.0
51.49	14.0
51.505	17.0
51.52	17.0
51.535	22.0
51.551	19.0
51.566	16.0
51.581	12.0
51.596	4.0
51.611	8.0
51.626	10.0
51.641	13.0
51.656	5.0
51.671	12.0
51.686	2.0
51.701	7.0
51.716	3.0
51.732	4.0
51.747	6.0
51.762	10.0
51.777	6.0
51.792	8.0
51.807	5.0
51.822	8.0
51.837	10.0
51.852	12.0
51.867	11.0
51.882	7.0
51.898	7.0
51.913	13.0
51.928	9.0
51.943	9.0
51.958	11.0
51.973	7.0
51.988	2.0
52.003	4.0
52.018	5.0
52.033	5.0
52.048	8.0
52.064	4.0
52.079	9.0
52.094	2.0
52.109	7.0
52.124	11.0
52.139	3.0
52.154	5.0
52.169	3.0
52.184	3.0
52.199	4.0
52.215	2.0
52.23	4.0
52.245	4.0
52.26	4.0
52.275	4.0
52.29	7.0
52.305	2.0
52.32	4.0
52.335	6.0
52.35	3.0
52.366	10.0
52.381	4.0
52.396	4.0
52.411	1.0
52.426	5.0
52.441	3.0
52.456	4.0
52.471	3.0
52.486	6.0
52.502	7.0
52.517	5.0
52.532	7.0
52.547	3.0
52.562	14.0
52.577	7.0
52.592	5.0
52.607	13.0
52.622	12.0
52.637	6.0
52.653	3.0
52.668	10.0
52.683	8.0
52.698	8.0
52.713	3.0
52.728	8.0
52.743	5.0
52.758	2.0
52.774	3.0
52.789	10.0
52.804	4.0
52.819	10.0
52.834	4.0
52.849	7.0
52.864	5.0
52.879	10.0
52.894	6.0
52.91	7.0
52.925	5.0
52.94	10.0
52.955	3.0
52.97	6.0
52.985	11.0
53.0	7.0
53.015	9.0
53.031	5.0
53.046	2.0
53.061	4.0
53.076	5.0
53.091	2.0
53.106	5.0
53.121	3.0
53.136	5.0
53.152	3.0
53.167	5.0
53.182	1.0
53.197	5.0
53.212	2.0
53.227	6.0
53.242	5.0
53.257	9.0
53.273	6.0
53.288	3.0
53.303	7.0
53.318	7.0
53.333	4.0
53.348	5.0
53.363	4.0
53.379	4.0
53.394	5.0
53.409	4.0
53.424	3.0
53.439	2.0
53.454	1.0
53.469	4.0
53.484	5.0
53.5	4.0
53.515	7.0
53.53	6.0
53.545	4.0
53.56	1.0
53.575	7.0
53.59	7.0
53.606	6.0
53.621	3.0
53.636	7.0
53.651	0.0
53.666	7.0
53.681	6.0
53.696	5.0
53.712	5.0
53.727	3.0
53.742	1.0
53.757	3.0
53.772	4.0
53.787	4.0
53.802	6.0
53.818	4.0
53.833	4.0
53.848	3.0
53.863	4.0
53.878	4.0
53.893	7.0
53.909	3.0
53.924	3.0
53.939	4.0
53.954	4.0
53.969	4.0
53.984	4.0
53.999	6.0
54.015	0.0
54.03	7.0
54.045	4.0
54.06	5.0
54.075	9.0
54.09	3.0
54.106	1.0
54.121	8.0
54.136	3.0
54.151	6.0
54.166	4.0
54.181	5.0
54.197	8.0
54.212	7.0
54.227	5.0
54.242	4.0
54.257	6.0
54.272	8.0
54.288	3.0
54.303	6.0
54.318	5.0
54.333	1.0
54.348	3.0
54.363	9.0
54.379	1.0
54.394	8.0
54.409	5.0
54.424	6.0
54.439	4.0
54.454	6.0
54.47	4.0
54.485	6.0
54.5	5.0
54.515	5.0
54.53	2.0
54.545	5.0
54.561	10.0
54.576	7.0
54.591	7.0
54.606	9.0
54.621	7.0
54.636	11.0
54.652	22.0
54.667	17.0
54.682	13.0
54.697	8.0
54.712	10.0
54.727	7.0
54.743	9.0
54.758	8.0
54.773	9.0
54.788	3.0
54.803	10.0
54.819	4.0
54.834	6.0
54.849	4.0
54.864	7.0
54.879	6.0
54.894	8.0
54.91	9.0
54.925	9.0
54.94	11.0
54.955	4.0
54.97	4.0
54.985	12.0
55.001	11.0
55.016	5.0
55.031	11.0
55.046	6.0
55.061	8.0
55.077	8.0
55.092	11.0
55.107	4.0
55.122	6.0
55.137	5.0
55.152	9.0
55.168	4.0
55.183	8.0
55.198	6.0
55.213	5.0
55.228	3.0
55.243	6.0
55.259	2.0
55.274	4.0
55.289	6.0
55.304	2.0
55.319	4.0
55.335	4.0
55.35	6.0
55.365	5.0
55.38	7.0
55.395	5.0
55.41	4.0
55.426	5.0
55.441	10.0
55.456	9.0
55.471	4.0
55.486	6.0
55.501	7.0
55.517	3.0
55.532	5.0
55.547	8.0
55.562	4.0
55.577	4.0
55.592	6.0
55.608	6.0
55.623	5.0
55.638	7.0
55.653	7.0
55.668	12.0
55.683	8.0
55.699	5.0
55.714	7.0
55.729	7.0
55.744	10.0
55.759	3.0
55.774	3.0
55.79	8.0
55.805	5.0
55.82	5.0
55.835	3.0
55.85	7.0
55.865	6.0
55.881	2.0
55.896	5.0
55.911	2.0
55.926	5.0
55.941	6.0
55.956	5.0
55.972	6.0
55.987	5.0
56.002	3.0
56.017	3.0
56.032	5.0
56.047	5.0
56.063	7.0
56.078	7.0
56.093	3.0
56.108	2.0
56.123	7.0
56.138	8.0
56.154	5.0
56.169	5.0
56.184	2.0
56.199	7.0
56.214	3.0
56.229	6.0
56.244	3.0
56.26	3.0
56.275	4.0
56.29	4.0
56.305	5.0
56.32	4.0
56.335	4.0
56.351	5.0
56.366	3.0
56.381	5.0
56.396	4.0
56.411	6.0
56.426	3.0
56.441	4.0
56.457	4.0
56.472	6.0
56.487	3.0
56.502	10.0
56.517	1.0
56.532	3.0
56.547	2.0
56.563	7.0
56.578	5.0
56.593	3.0
56.608	2.0
56.623	3.0
56.638	4.0
56.653	4.0
56.668	4.0
56.684	10.0
56.699	4.0
56.714	6.0
56.729	2.0
56.744	3.0
56.759	7.0
56.774	1.0
56.79	6.0
56.805	4.0
56.82	5.0
56.835	3.0
56.85	3.0
56.865	5.0
56.88	4.0
56.895	3.0
56.911	7.0
56.926	2.0
56.941	1.0
56.956	2.0
56.971	1.0
56.986	4.0
57.001	4.0
57.016	4.0
57.031	3.0
57.047	6.0
57.062	5.0
57.077	4.0
57.092	3.0
57.107	7.0
57.122	2.0
57.137	3.0
57.152	6.0
57.167	2.0
57.183	6.0
57.198	7.0
57.213	3.0
57.228	7.0
57.243	5.0
57.258	3.0
57.273	5.0
57.288	4.0
57.303	10.0
57.318	9.0
57.334	3.0
57.349	2.0
57.364	3.0
57.379	3.0
57.394	4.0
57.409	3.0
57.424	2.0
57.439	4.0
57.454	5.0
57.469	3.0
57.484	4.0
57.5	7.0
57.515	3.0
57.53	1.0
57.545	3.0
57.56	3.0
57.575	4.0
57.59	4.0
57.605	7.0
57.62	2.0
57.635	3.0
57.65	7.0
57.665	2.0
57.68	12.0
57.696	4.0
57.711	5.0
57.726	11.0
57.741	6.0
57.756	4.0
57.771	5.0
57.786	5.0
57.801	1.0
57.816	4.0
57.831	7.0
57.846	0.0
57.861	5.0
57.876	5.0
57.891	9.0
57.906	3.0
57.921	6.0
57.937	4.0
57.952	2.0
57.967	2.0
57.982	6.0
57.997	6.0
58.012	3.0
58.027	8.0
58.042	4.0
58.057	5.0
58.072	8.0
58.087	7.0
58.102	2.0
58.117	3.0
58.132	2.0
58.147	2.0
58.162	3.0
58.177	4.0
58.192	3.0
58.207	9.0
58.222	1.0
58.237	3.0
58.252	5.0
58.267	5.0
58.282	5.0
58.297	5.0
58.312	3.0
58.327	3.0
58.342	4.0
58.357	4.0
58.372	4.0
58.387	4.0
58.402	6.0
58.418	5.0
58.433	6.0
58.448	3.0
58.463	6.0
58.478	9.0
58.493	4.0
58.508	7.0
58.523	3.0
58.538	3.0
58.553	10.0
58.568	2.0
58.583	17.0
58.598	6.0
58.613	6.0
58.628	14.0
58.643	9.0
58.658	2.0
58.673	6.0
58.688	5.0
58.703	5.0
58.718	8.0
58.733	6.0
58.748	4.0
58.763	2.0
58.778	5.0
58.793	4.0
58.808	6.0
58.823	6.0
58.838	3.0
58.853	2.0
58.868	3.0
58.883	3.0
58.898	5.0
58.913	6.0
58.928	3.0
58.942	11.0
58.957	6.0
58.972	5.0
58.987	7.0
59.002	4.0
59.017	6.0
59.032	9.0
59.047	5.0
59.062	6.0
59.077	7.0
59.092	11.0
59.107	7.0
59.122	3.0
59.137	2.0
59.152	3.0
59.167	2.0
59.182	6.0
59.197	5.0
59.212	1.0
59.227	5.0
59.242	4.0
59.257	1.0
59.272	4.0
59.287	3.0
59.302	1.0
59.317	5.0
59.332	4.0
59.347	1.0
59.362	5.0
59.377	5.0
59.392	6.0
59.407	4.0
59.422	5.0
59.437	5.0
59.452	3.0
59.467	7.0
59.482	9.0
59.497	5.0
59.512	3.0
59.527	4.0
59.542	7.0
59.557	8.0
59.572	8.0
59.587	10.0
59.602	7.0
59.617	8.0
59.632	5.0
59.647	7.0
59.661	9.0
59.676	7.0
59.691	6.0
59.706	5.0
59.721	6.0
59.736	3.0
59.751	5.0
59.766	12.0
59.781	5.0
59.796	2.0
59.811	7.0
59.826	4.0
59.841	5.0
59.856	5.0
59.871	4.0
59.886	3.0
59.901	8.0
59.916	5.0
59.931	11.0
59.946	6.0
59.961	7.0
59.976	5.0
59.991	4.0
60.006	9.0
60.021	12.0
60.036	5.0
60.051	5.0
60.066	6.0
60.081	9.0
60.096	11.0
60.111	4.0
60.126	2.0
60.141	3.0
60.156	6.0
60.171	6.0
60.186	5.0
60.201	5.0
60.216	1.0
60.231	3.0
60.246	5.0
60.261	1.0
60.276	2.0
60.291	1.0
60.306	2.0
60.321	6.0
60.336	3.0
60.35	3.0
60.365	3.0
60.38	5.0
60.395	2.0
60.41	3.0
60.425	6.0
60.44	2.0
60.455	7.0
60.47	6.0
60.485	1.0
60.5	7.0
60.515	6.0
60.53	7.0
60.545	6.0
60.56	5.0
60.575	6.0
60.59	8.0
60.605	10.0
60.62	13.0
60.635	15.0
60.65	3.0
60.665	3.0
60.68	4.0
60.695	7.0
60.71	4.0
60.725	3.0
60.74	5.0
60.755	5.0
60.77	5.0
60.785	6.0
60.8	4.0
60.815	4.0
60.83	5.0
60.845	2.0
60.86	5.0
60.875	3.0
60.89	4.0
60.905	6.0
60.92	5.0
60.935	4.0
60.95	7.0
60.965	3.0
60.98	8.0
60.995	2.0
61.01	4.0
61.025	7.0
61.04	8.0
61.055	5.0
61.07	6.0
61.085	2.0
61.1	4.0
61.115	2.0
61.13	3.0
61.145	4.0
61.16	1.0
61.175	6.0
61.191	3.0
61.206	1.0
61.221	4.0
61.236	3.0
61.251	6.0
61.266	0.0
61.281	2.0
61.296	3.0
61.311	6.0
61.326	1.0
61.341	1.0
61.356	8.0
61.371	5.0
61.386	3.0
61.401	5.0
61.416	3.0
61.431	3.0
61.446	5.0
61.461	7.0
61.476	6.0
61.491	4.0
61.506	7.0
61.521	7.0
61.536	6.0
61.551	4.0
61.566	4.0
61.581	5.0
61.596	5.0
61.611	3.0
61.626	4.0
61.641	8.0
61.656	5.0
61.672	4.0
61.687	7.0
61.702	3.0
61.717	4.0
61.732	1.0
61.747	6.0
61.762	3.0
61.777	4.0
61.792	7.0
61.807	6.0
61.822	6.0
61.837	5.0
61.852	1.0
61.867	2.0
61.882	9.0
61.897	7.0
61.912	3.0
61.927	2.0
61.943	4.0
61.958	10.0
61.973	6.0
61.988	3.0
62.003	5.0
62.018	9.0
62.033	4.0
62.048	3.0
62.063	5.0
62.078	5.0
62.093	3.0
62.108	1.0
62.123	7.0
62.138	0.0
62.153	3.0
62.169	4.0
62.184	3.0
62.199	2.0
62.214	4.0
62.229	7.0
62.244	6.0
62.259	5.0
62.274	3.0
62.289	2.0
62.304	4.0
62.319	2.0
62.335	5.0
62.35	6.0
62.365	4.0
62.38	5.0
62.395	3.0
62.41	3.0
62.425	1.0
62.44	2.0
62.455	9.0
62.47	2.0
62.485	7.0
62.501	3.0
62.516	8.0
62.531	3.0
62.546	3.0
62.561	3.0
62.576	3.0
62.591	3.0
62.606	5.0
62.621	4.0
62.636	7.0
62.652	2.0
62.667	5.0
62.682	4.0
62.697	8.0
62.712	2.0
62.727	10.0
62.742	4.0
62.757	6.0
62.772	2.0
62.787	3.0
62.803	4.0
62.818	2.0
62.833	4.0
62.848	4.0
62.863	6.0
62.878	6.0
62.893	4.0
62.908	5.0
62.923	3.0
62.939	1.0
62.954	3.0
62.969	4.0
62.984	7.0
62.999	0.0
63.014	6.0
63.029	5.0
63.044	5.0
63.059	5.0
63.074	3.0
63.09	3.0
63.105	11.0
63.12	5.0
63.135	6.0
63.15	5.0
63.165	5.0
63.18	2.0
63.195	4.0
63.21	2.0
63.226	4.0
63.241	3.0
63.256	1.0
63.271	4.0
63.286	6.0
63.301	5.0
63.316	5.0
63.331	11.0
63.346	3.0
63.362	2.0
63.377	8.0
63.392	4.0
63.407	3.0
63.422	7.0
63.437	7.0
63.452	5.0
63.467	2.0
63.482	7.0
63.497	3.0
63.513	6.0
63.528	2.0
63.543	3.0
63.558	5.0
63.573	2.0
63.588	3.0
63.603	4.0
63.618	5.0
63.633	2.0
63.648	3.0
63.664	2.0
63.679	3.0
63.694	7.0
63.709	6.0
63.724	2.0
63.739	3.0
63.754	3.0
63.769	6.0
63.784	7.0
63.799	8.0
63.814	2.0
63.83	7.0
63.845	7.0
63.86	6.0
63.875	3.0
63.89	2.0
63.905	5.0
63.92	3.0
63.935	8.0
63.95	5.0
63.965	4.0
63.98	2.0
63.996	3.0
64.011	7.0
64.026	7.0
64.041	2.0
64.056	3.0
64.071	2.0
64.086	5.0
64.101	5.0
64.116	2.0
64.131	3.0
64.146	3.0
64.161	5.0
64.176	6.0
64.191	5.0
64.207	3.0
64.222	1.0
64.237	1.0
64.252	2.0
64.267	5.0
64.282	1.0
64.297	5.0
64.312	0.0
64.327	2.0
64.342	5.0
64.357	4.0
64.372	3.0
64.387	1.0
64.402	5.0
64.417	2.0
64.433	3.0
64.448	6.0
64.463	4.0
64.478	6.0
64.493	6.0
64.508	3.0
64.523	4.0
64.538	5.0
64.553	6.0
64.568	3.0
64.583	0.0
64.598	4.0
64.613	5.0
64.628	3.0
64.643	2.0
64.658	1.0
64.673	3.0
64.688	2.0
64.703	2.0
64.718	4.0
64.734	1.0
64.749	3.0
64.764	1.0
64.779	8.0
64.794	4.0
64.809	5.0
64.824	8.0
64.839	5.0
64.854	6.0
64.869	2.0
64.884	2.0
64.899	3.0
64.914	3.0
64.929	1.0
64.944	6.0
64.959	1.0
64.974	4.0
64.989	3.0
65.004	5.0
65.019	2.0
65.034	2.0
65.049	2.0
65.064	5.0
65.079	6.0
65.094	5.0
65.109	1.0
65.125	3.0
65.14	9.0
65.155	5.0
65.17	3.0
65.185	4.0
65.2	1.0
65.215	7.0
65.23	5.0
65.245	5.0
65.26	8.0
65.275	5.0
65.29	4.0
65.305	8.0
65.32	4.0
65.335	6.0
65.35	5.0
65.365	2.0
65.38	6.0
65.395	1.0
65.41	5.0
65.425	7.0
65.44	4.0
65.455	3.0
65.47	4.0
65.485	5.0
65.5	2.0
65.515	1.0
65.53	7.0
65.545	4.0
65.56	7.0
65.575	1.0
65.59	8.0
65.605	4.0
65.62	2.0
65.635	5.0
65.65	1.0
65.666	3.0
65.681	3.0
65.696	1.0
65.711	4.0
65.726	4.0
65.741	3.0
65.756	6.0
65.771	7.0
65.786	4.0
65.801	5.0
65.816	6.0
65.831	4.0
65.846	5.0
65.861	5.0
65.876	6.0
65.891	3.0
65.906	3.0
65.921	5.0
65.936	2.0
65.951	5.0
65.966	4.0
65.981	4.0
65.996	1.0
66.011	5.0
66.026	8.0
66.041	5.0
66.056	2.0
66.071	4.0
66.086	6.0
66.101	5.0
66.116	3.0
66.131	5.0
66.146	9.0
66.161	3.0
66.176	7.0
66.191	12.0
66.206	8.0
66.221	11.0
66.236	5.0
66.251	10.0
66.266	11.0
66.281	5.0
66.296	3.0
66.311	3.0
66.327	3.0
66.342	6.0
66.357	4.0
66.372	3.0
66.387	6.0
66.402	1.0
66.417	0.0
66.432	1.0
66.447	4.0
66.462	3.0
66.477	8.0
66.492	5.0
66.507	2.0
66.522	3.0
66.537	3.0
66.552	6.0
66.567	3.0
66.582	5.0
66.597	8.0
66.612	4.0
66.627	9.0
66.642	4.0
66.657	5.0
66.672	6.0
66.687	4.0
66.702	2.0
66.717	8.0
66.732	1.0
66.747	4.0
66.762	3.0
66.777	2.0
66.792	0.0
66.807	3.0
66.822	3.0
66.837	3.0
66.853	6.0
66.868	2.0
66.883	5.0
66.898	3.0
66.913	3.0
66.928	3.0
66.943	4.0
66.958	1.0
66.973	5.0
66.988	3.0
67.003	1.0
67.018	2.0
67.033	2.0
67.048	6.0
67.063	4.0
67.078	5.0
67.093	2.0
67.108	3.0
67.123	1.0
67.138	6.0
67.153	2.0
67.168	2.0
67.183	3.0
67.198	4.0
67.214	1.0
67.229	3.0
67.244	2.0
67.259	3.0
67.274	3.0
67.289	4.0
67.304	5.0
67.319	2.0
67.334	4.0
67.349	2.0
67.364	6.0
67.379	4.0
67.394	5.0
67.409	5.0
67.424	3.0
67.439	5.0
67.454	5.0
67.469	4.0
67.484	3.0
67.5	5.0
67.515	2.0
67.53	1.0
67.545	4.0
67.56	8.0
67.575	5.0
67.59	3.0
67.605	9.0
67.62	0.0
67.635	3.0
67.65	1.0
67.665	3.0
67.68	2.0
67.695	3.0
67.71	4.0
67.726	2.0
67.741	4.0
67.756	5.0
67.771	2.0
67.786	4.0
67.801	5.0
67.816	4.0
67.831	2.0
67.846	0.0
67.861	3.0
67.876	5.0
67.891	6.0
67.906	4.0
67.922	2.0
67.937	3.0
67.952	4.0
67.967	6.0
67.982	2.0
67.997	5.0
68.012	3.0
68.027	3.0
68.042	3.0
68.057	8.0
68.072	7.0
68.087	2.0
68.103	3.0
68.118	4.0
68.133	2.0
68.148	1.0
68.163	4.0
68.178	2.0
68.193	4.0
68.208	5.0
68.223	4.0
68.238	5.0
68.254	1.0
68.269	4.0
68.284	2.0
68.299	7.0
68.314	5.0
68.329	5.0
68.344	6.0
68.359	3.0
68.374	4.0
68.389	5.0
68.405	5.0
68.42	3.0
68.435	4.0
68.45	3.0
68.465	1.0
68.48	2.0
68.495	6.0
68.51	5.0
68.525	5.0
68.54	4.0
68.556	4.0
68.571	5.0
68.586	1.0
68.601	4.0
68.616	4.0
68.631	5.0
68.646	4.0
68.661	6.0
68.676	5.0
68.691	4.0
68.707	1.0
68.722	2.0
68.737	4.0
68.752	3.0
68.767	3.0
68.782	9.0
68.797	7.0
68.812	3.0
68.827	5.0
68.842	5.0
68.857	5.0
68.873	5.0
68.888	2.0
68.903	3.0
68.918	3.0
68.933	2.0
68.948	6.0
68.963	1.0
68.978	2.0
68.993	6.0
69.008	5.0
69.023	4.0
69.038	1.0
69.054	3.0
69.069	2.0
69.084	4.0
69.099	0.0
69.114	4.0
69.129	5.0
69.144	1.0
69.159	4.0
69.174	1.0
69.189	3.0
69.204	3.0
69.219	2.0
69.234	4.0
69.249	2.0
69.264	5.0
69.279	4.0
69.295	3.0
69.31	5.0
69.325	7.0
69.34	4.0
69.355	2.0
69.37	2.0
69.385	4.0
69.4	3.0
69.415	3.0
69.43	3.0
69.445	3.0
69.46	5.0
69.475	3.0
69.49	3.0
69.505	5.0
69.52	4.0
69.535	1.0
69.55	4.0
69.565	2.0
69.58	2.0
69.595	4.0
69.61	3.0
69.625	3.0
69.64	2.0
69.655	3.0
69.67	7.0
69.685	3.0
69.7	2.0
69.715	4.0
69.73	7.0
69.745	4.0
69.76	6.0
69.775	10.0
69.79	2.0
69.805	3.0
69.82	8.0
69.835	4.0
69.85	3.0
69.865	4.0
69.88	4.0
69.895	5.0
69.909	5.0
69.924	2.0
69.939	4.0
69.954	5.0
69.969	3.0
69.984	5.0
69.999	7.0
70.014	4.0
70.029	3.0
70.044	1.0
70.059	0.0
70.074	2.0
70.088	2.0
70.103	4.0
70.118	3.0
70.133	10.0
70.148	5.0
70.163	4.0
70.178	6.0
70.193	7.0
70.208	3.0
70.222	1.0
70.237	3.0
70.252	7.0
70.267	6.0
70.282	5.0
70.297	3.0
70.312	3.0
70.327	8.0
70.341	1.0
70.356	1.0
70.371	2.0
70.386	5.0
70.401	1.0
70.416	2.0
70.43	3.0
70.445	4.0
70.46	3.0
70.475	2.0
70.49	4.0
70.505	3.0
70.519	4.0
70.534	4.0
70.549	4.0
70.564	4.0
70.579	5.0
70.594	2.0
70.608	7.0
70.623	3.0
70.638	6.0
70.653	9.0
70.668	7.0
70.683	6.0
70.697	4.0
70.712	9.0
70.727	7.0
70.742	5.0
70.757	3.0
70.771	3.0
70.786	2.0
70.801	6.0
70.816	6.0
70.831	6.0
70.845	2.0
70.86	1.0
70.875	4.0
70.89	3.0
70.905	7.0
70.92	4.0
70.934	4.0
70.949	6.0
70.964	4.0
70.979	2.0
70.994	3.0
71.008	4.0
71.023	1.0
71.038	4.0
71.053	2.0
71.068	3.0
71.082	5.0
71.097	5.0
71.112	6.0
71.127	4.0
71.142	5.0
71.156	8.0
71.171	3.0
71.186	5.0
71.201	5.0
71.216	2.0
71.231	4.0
71.245	12.0
71.26	6.0
71.275	2.0
71.29	5.0
71.305	0.0
71.319	5.0
71.334	5.0
71.349	3.0
71.364	3.0
71.379	1.0
71.394	1.0
71.408	6.0
71.423	7.0
71.438	3.0
71.453	2.0
71.468	1.0
71.483	3.0
71.497	1.0
71.512	5.0
71.527	3.0
71.542	6.0
71.557	1.0
71.572	0.0
71.586	3.0
71.601	4.0
71.616	2.0
71.631	4.0
71.646	4.0
71.661	3.0
71.676	3.0
71.69	4.0
71.705	2.0
71.72	4.0
71.735	3.0
71.75	5.0
71.765	1.0
71.78	3.0
71.795	3.0
71.81	2.0
71.824	1.0
71.839	1.0
71.854	2.0
71.869	6.0
71.884	2.0
71.899	8.0
71.914	4.0
71.929	1.0
71.944	5.0
71.959	6.0
71.974	4.0
71.988	5.0
72.003	11.0
72.018	2.0
72.033	3.0
72.048	4.0
72.063	3.0
72.078	2.0
72.093	5.0
72.108	5.0
72.123	4.0
72.138	5.0
72.153	0.0
72.168	0.0
72.183	1.0
72.198	1.0
72.213	4.0
72.228	5.0
72.243	2.0
72.258	4.0
72.273	2.0
72.288	3.0
72.303	5.0
72.318	1.0
72.333	5.0
72.348	3.0
72.363	8.0
72.378	3.0
72.393	3.0
72.408	2.0
72.423	4.0
72.438	5.0
72.453	4.0
72.468	1.0
72.483	2.0
72.498	4.0
72.513	3.0
72.528	2.0
72.543	2.0
72.558	3.0
72.573	5.0
72.588	4.0
72.603	5.0
72.618	5.0
72.633	6.0
72.649	6.0
72.664	4.0
72.679	4.0
72.694	5.0
72.709	4.0
72.724	2.0
72.739	5.0
72.754	4.0
72.769	3.0
72.784	2.0
72.799	3.0
72.814	6.0
72.829	3.0
72.845	1.0
72.86	6.0
72.875	2.0
72.89	7.0
72.905	3.0
72.92	4.0
72.935	4.0
72.95	4.0
72.965	4.0
72.98	2.0
72.996	3.0
73.011	7.0
73.026	1.0
73.041	2.0
73.056	3.0
73.071	1.0
73.086	2.0
73.101	2.0
73.117	3.0
73.132	1.0
73.147	2.0
73.162	4.0
73.177	3.0
73.192	4.0
73.207	4.0
73.222	7.0
73.238	3.0
73.253	5.0
73.268	3.0
73.283	4.0
73.298	2.0
73.313	3.0
73.328	1.0
73.343	5.0
73.359	3.0
73.374	6.0
73.389	7.0
73.404	4.0
73.419	1.0
73.434	4.0
73.449	3.0
73.465	7.0
73.48	5.0
73.495	1.0
73.51	1.0
73.525	1.0
73.54	1.0
73.556	1.0
73.571	0.0
73.586	0.0
73.601	2.0
73.616	4.0
73.631	4.0
73.646	5.0
73.662	5.0
73.677	4.0
73.692	3.0
73.707	4.0
73.722	4.0
73.737	6.0
73.752	5.0
73.768	1.0
73.783	4.0
73.798	9.0
73.813	8.0
73.828	5.0
73.843	8.0
73.859	3.0
73.874	2.0
73.889	10.0
73.904	7.0
73.919	0.0
73.934	6.0
73.949	3.0
73.965	1.0
73.98	5.0
73.995	3.0
74.01	4.0
74.025	3.0
74.04	4.0
74.056	2.0
74.071	3.0
74.086	4.0
74.101	6.0
74.116	5.0
74.131	4.0
74.146	6.0
74.162	2.0
74.177	3.0
74.192	5.0
74.207	6.0
74.222	2.0
74.237	8.0
74.252	2.0
74.268	5.0
74.283	7.0
74.298	0.0
74.313	5.0
74.328	1.0
74.343	3.0
74.358	6.0
74.374	4.0
74.389	2.0
74.404	1.0
74.419	2.0
74.434	3.0
74.449	2.0
74.464	2.0
74.48	2.0
74.495	5.0
74.51	6.0
74.525	2.0
74.54	3.0
74.555	7.0
74.57	3.0
74.586	1.0
74.601	2.0
74.616	3.0
74.631	5.0
74.646	5.0
74.661	3.0
74.676	4.0
74.691	4.0
74.707	2.0
74.722	10.0
74.737	2.0
74.752	6.0
74.767	5.0
74.782	4.0
74.797	0.0
74.813	3.0
74.828	3.0
74.843	4.0
74.858	4.0
74.873	1.0
74.888	5.0
74.903	2.0
74.918	3.0
74.934	7.0
74.949	3.0
74.964	5.0
74.979	5.0
74.994	6.0
75.009	8.0
75.024	3.0
75.04	7.0
75.055	8.0
75.07	2.0
75.085	3.0
75.1	7.0
75.115	7.0
75.13	4.0
75.145	2.0
75.161	5.0
75.176	4.0
75.191	2.0
75.206	2.0
75.221	5.0
75.236	4.0
75.251	5.0
75.266	1.0
75.282	5.0
75.297	4.0
75.312	4.0
75.327	5.0
75.342	1.0
75.357	4.0
75.372	4.0
75.387	6.0
75.403	4.0
75.418	2.0
75.433	3.0
75.448	3.0
75.463	4.0
75.478	5.0
75.493	4.0
75.509	3.0
75.524	3.0
75.539	1.0
75.554	3.0
75.569	6.0
75.584	4.0
75.599	10.0
75.614	2.0
75.63	0.0
75.645	1.0
75.66	3.0
75.675	6.0
75.69	3.0
75.705	5.0
75.72	2.0
75.735	0.0
75.751	4.0
75.766	4.0
75.781	4.0
75.796	2.0
75.811	5.0
75.826	7.0
75.841	4.0
75.856	2.0
75.872	6.0
75.887	2.0
75.902	3.0
75.917	1.0
75.932	3.0
75.947	5.0
75.962	1.0
75.977	2.0
75.993	3.0
76.008	7.0
76.023	2.0
76.038	8.0
76.053	6.0
76.068	3.0
76.083	4.0
76.098	5.0
76.114	2.0
76.129	5.0
76.144	1.0
76.159	4.0
76.174	3.0
76.189	5.0
76.204	1.0
76.22	2.0
76.235	1.0
76.25	2.0
76.265	2.0
76.28	2.0
76.295	6.0
76.31	8.0
76.325	2.0
76.341	2.0
76.356	0.0
76.371	1.0
76.386	2.0
76.401	1.0
76.416	4.0
76.431	5.0
76.446	4.0
76.462	1.0
76.477	6.0
76.492	5.0
76.507	2.0
76.522	2.0
76.537	4.0
76.552	3.0
76.567	1.0
76.583	1.0
76.598	4.0
76.613	3.0
76.628	5.0
76.643	5.0
76.658	5.0
76.673	5.0
76.688	4.0
76.704	7.0
76.719	3.0
76.734	2.0
76.749	0.0
76.764	4.0
76.779	4.0
76.794	2.0
76.809	8.0
76.824	4.0
76.84	3.0
76.855	8.0
76.87	4.0
76.885	10.0
76.9	5.0
76.915	4.0
76.93	1.0
76.945	0.0
76.96	1.0
76.976	6.0
76.991	6.0
77.006	3.0
77.021	2.0
77.036	2.0
77.051	2.0
77.066	0.0
77.081	0.0
77.096	0.0
77.112	2.0
77.127	4.0
77.142	0.0
77.157	2.0
77.172	3.0
77.187	3.0
77.202	3.0
77.217	2.0
77.232	2.0
77.247	2.0
77.263	6.0
77.278	4.0
77.293	5.0
77.308	4.0
77.323	5.0
77.338	5.0
77.353	8.0
77.368	5.0
77.383	6.0
77.398	8.0
77.413	4.0
77.428	7.0
77.444	3.0
77.459	6.0
77.474	2.0
77.489	4.0
77.504	3.0
77.519	5.0
77.534	1.0
77.549	4.0
77.564	7.0
77.579	2.0
77.594	6.0
77.609	8.0
77.624	1.0
77.64	1.0
77.655	3.0
77.67	3.0
77.685	2.0
77.7	3.0
77.715	2.0
77.73	1.0
77.745	4.0
77.76	1.0
77.775	4.0
77.79	9.0
77.805	0.0
77.82	2.0
77.835	5.0
77.85	1.0
77.865	1.0
77.88	1.0
77.895	3.0
77.91	3.0
77.926	4.0
77.941	4.0
77.956	1.0
77.971	0.0
77.986	2.0
78.001	4.0
78.016	2.0
78.031	7.0
78.046	1.0
78.061	5.0
78.076	3.0
78.091	4.0
78.106	4.0
78.121	1.0
78.136	2.0
78.151	9.0
78.166	2.0
78.181	3.0
78.196	5.0
78.211	3.0
78.226	2.0
78.241	2.0
78.256	2.0
78.271	3.0
78.286	3.0
78.301	1.0
78.316	4.0
78.331	3.0
78.346	3.0
78.361	4.0
78.376	2.0
78.391	2.0
78.406	3.0
78.421	1.0
78.436	5.0
78.451	3.0
78.466	4.0
78.481	0.0
78.496	1.0
78.511	4.0
78.526	3.0
78.541	2.0
78.556	5.0
78.571	7.0
78.586	4.0
78.601	3.0
78.616	4.0
78.631	5.0
78.646	3.0
78.661	1.0
78.676	4.0
78.691	3.0
78.706	3.0
78.721	0.0
78.736	2.0
78.751	2.0
78.766	3.0
78.781	2.0
78.796	2.0
78.811	0.0
78.826	2.0
78.841	1.0
78.856	2.0
78.871	4.0
78.885	3.0
78.9	3.0
78.915	3.0
78.93	2.0
78.945	4.0
78.96	1.0
78.975	4.0
78.99	3.0
79.005	5.0
79.02	5.0
79.035	0.0
79.05	2.0
79.065	0.0
79.08	2.0
79.095	4.0
79.11	3.0
79.125	3.0
79.14	3.0
79.155	1.0
79.17	1.0
79.185	2.0
79.2	7.0
79.215	5.0
79.23	3.0
79.245	2.0
79.26	3.0
79.275	7.0
79.29	5.0
79.304	5.0
79.319	2.0
79.334	8.0
79.349	3.0
79.364	1.0
79.379	2.0
79.394	1.0
79.409	5.0
79.424	5.0
79.439	3.0
79.454	6.0
79.469	0.0
79.484	1.0
79.499	5.0
79.514	2.0
79.529	3.0
79.544	2.0
79.559	2.0
79.574	1.0
79.589	3.0
79.604	2.0
79.619	4.0
79.634	6.0
79.649	5.0
79.664	3.0
79.679	5.0
79.693	1.0
79.708	7.0
79.723	3.0
79.738	5.0
79.753	2.0
79.768	1.0
79.783	5.0
79.798	5.0
79.813	2.0
79.828	2.0
79.843	5.0
79.858	5.0
79.873	0.0
79.888	2.0
79.903	1.0
79.918	2.0
79.933	3.0
79.948	5.0
79.963	6.0
79.978	4.0
79.993	2.0
80.008	7.0
80.023	2.0
80.038	4.0
80.053	2.0
80.068	0.0
80.083	1.0
80.098	4.0
80.113	2.0
80.128	3.0
80.143	4.0
80.158	4.0
80.173	4.0
80.188	1.0
80.202	6.0
80.217	4.0
80.232	5.0
80.247	2.0
80.262	5.0
80.277	3.0
80.292	2.0
80.307	1.0
80.322	3.0
80.337	3.0
80.352	4.0
80.367	2.0
80.382	1.0
80.397	5.0
80.412	2.0
80.427	5.0
80.442	2.0
80.457	3.0
80.472	2.0
80.487	5.0
80.502	2.0
80.517	3.0
80.532	3.0
80.547	0.0
80.562	3.0
80.577	1.0
80.592	4.0
80.607	1.0
80.622	4.0
80.637	3.0
80.652	2.0
80.667	3.0
80.682	3.0
80.697	5.0
80.712	7.0
80.727	1.0
80.742	5.0
80.757	5.0
80.772	3.0
80.787	3.0
80.802	2.0
80.817	7.0
80.832	3.0
80.847	5.0
80.862	3.0
80.877	4.0
80.892	0.0
80.907	2.0
80.922	4.0
80.937	7.0
80.952	2.0
80.967	2.0
80.982	2.0
80.997	2.0
81.012	1.0
81.027	3.0
81.042	2.0
81.057	3.0
81.072	2.0
81.087	2.0
81.101	6.0
81.116	3.0
81.131	3.0
81.146	2.0
81.161	7.0
81.176	5.0
81.191	4.0
81.206	4.0
81.221	3.0
81.236	3.0
81.251	2.0
81.266	1.0
81.281	4.0
81.296	2.0
81.311	2.0
81.326	3.0
81.341	2.0
81.356	4.0
81.371	0.0
81.386	3.0
81.401	2.0
81.416	0.0
81.431	2.0
81.446	0.0
81.461	5.0
81.476	3.0
81.491	2.0
81.506	3.0
81.521	2.0
81.536	6.0
81.55	5.0
81.565	5.0
81.58	7.0
81.595	1.0
81.61	2.0
81.625	1.0
81.64	2.0
81.655	2.0
81.67	2.0
81.685	5.0
81.7	6.0
81.715	2.0
81.73	4.0
81.745	4.0
81.76	4.0
81.775	3.0
81.79	3.0
81.805	2.0
81.819	2.0
81.834	5.0
81.849	2.0
81.864	6.0
81.879	7.0
81.894	3.0
81.909	4.0
81.924	5.0
81.939	5.0
81.954	2.0
81.969	2.0
81.984	3.0
81.999	4.0
82.013	4.0
82.028	4.0
82.043	2.0
82.058	2.0
82.073	3.0
82.088	3.0
82.103	2.0
82.118	3.0
82.133	1.0
82.148	3.0
82.163	5.0
82.177	3.0
82.192	3.0
82.207	0.0
82.222	4.0
82.237	1.0
82.252	5.0
82.267	5.0
82.282	1.0
82.297	5.0
82.312	4.0
82.326	4.0
82.341	2.0
82.356	5.0
82.371	0.0
82.386	4.0
82.401	2.0
82.416	4.0
82.431	4.0
82.445	3.0
82.46	5.0
82.475	2.0
82.49	1.0
82.505	4.0
82.52	3.0
82.535	2.0
82.55	1.0
82.565	1.0
82.579	5.0
82.594	2.0
82.609	1.0
82.624	0.0
82.639	5.0
82.654	1.0
82.669	4.0
82.684	3.0
82.698	1.0
82.713	3.0
82.728	3.0
82.743	1.0
82.758	2.0
82.773	5.0
82.788	2.0
82.803	3.0
82.817	2.0
82.832	3.0
82.847	1.0
82.862	2.0
82.877	1.0
82.892	4.0
82.907	4.0
82.922	2.0
82.937	3.0
82.951	4.0
82.966	3.0
82.981	4.0
82.996	3.0
83.011	1.0
83.026	2.0
83.041	3.0
83.056	2.0
83.07	4.0
83.085	3.0
83.1	1.0
83.115	3.0
83.13	2.0
83.145	1.0
83.16	1.0
83.175	3.0
83.19	3.0
83.204	4.0
83.219	2.0
83.234	4.0
83.249	5.0
83.264	2.0
83.279	1.0
83.294	2.0
83.309	3.0
83.324	4.0
83.339	3.0
83.353	3.0
83.368	4.0
83.383	4.0
83.398	4.0
83.413	3.0
83.428	1.0
83.443	1.0
83.458	5.0
83.473	3.0
83.488	2.0
83.503	2.0
83.517	1.0
83.532	3.0
83.547	3.0
83.562	4.0
83.577	1.0
83.592	5.0
83.607	3.0
83.622	4.0
83.637	3.0
83.652	2.0
83.667	1.0
83.682	3.0
83.697	3.0
83.712	4.0
83.727	4.0
83.741	5.0
83.756	3.0
83.771	2.0
83.786	2.0
83.801	1.0
83.816	2.0
83.831	3.0
83.846	4.0
83.861	4.0
83.876	2.0
83.891	5.0
83.906	5.0
83.921	2.0
83.936	4.0
83.951	3.0
83.966	1.0
83.981	1.0
83.996	2.0
84.011	5.0
84.026	2.0
84.041	2.0
84.056	5.0
84.071	3.0
84.086	6.0
84.101	5.0
84.116	4.0
84.131	6.0
84.146	6.0
84.161	2.0
84.176	0.0
84.191	2.0
84.206	2.0
84.221	5.0
84.236	3.0
84.251	1.0
84.266	5.0
84.281	6.0
84.296	2.0
84.311	1.0
84.326	2.0
84.341	2.0
84.356	5.0
84.371	3.0
84.386	4.0
84.401	2.0
84.416	3.0
84.431	7.0
84.446	5.0
84.461	6.0
84.476	5.0
84.492	4.0
84.507	3.0
84.522	1.0
84.537	1.0
84.552	2.0
84.567	1.0
84.582	3.0
84.597	4.0
84.612	2.0
84.627	1.0
84.642	4.0
84.657	4.0
84.672	8.0
84.687	3.0
84.702	1.0
84.717	1.0
84.733	4.0
84.748	4.0
84.763	2.0
84.778	4.0
84.793	0.0
84.808	3.0
84.823	2.0
84.838	6.0
84.853	2.0
84.868	1.0
84.883	1.0
84.898	2.0
84.913	2.0
84.929	3.0
84.944	1.0
84.959	0.0
84.974	3.0
84.989	7.0
85.004	2.0
85.019	3.0
85.034	3.0
85.049	1.0
85.064	1.0
85.079	2.0
85.094	4.0
85.11	1.0
85.125	4.0
85.14	1.0
85.155	6.0
85.17	3.0
85.185	2.0
85.2	3.0
85.215	1.0
85.23	5.0
85.245	2.0
85.26	6.0
85.276	2.0
85.291	0.0
85.306	2.0
85.321	2.0
85.336	2.0
85.351	3.0
85.366	3.0
85.381	5.0
85.396	3.0
85.411	4.0
85.426	4.0
85.441	1.0
85.457	4.0
85.472	4.0
85.487	3.0
85.502	5.0
85.517	4.0
85.532	5.0
85.547	6.0
85.562	2.0
85.577	4.0
85.592	3.0
85.607	2.0
85.622	6.0
85.637	1.0
85.653	3.0
85.668	3.0
85.683	4.0
85.698	3.0
85.713	4.0
85.728	1.0
85.743	3.0
85.758	5.0
85.773	1.0
85.788	2.0
85.803	1.0
85.818	4.0
85.833	4.0
85.848	2.0
85.863	0.0
85.879	3.0
85.894	7.0
85.909	1.0
85.924	0.0
85.939	3.0
85.954	4.0
85.969	4.0
85.984	6.0
85.999	1.0
86.014	2.0
86.029	4.0
86.044	3.0
86.059	2.0
86.074	0.0
86.089	5.0
86.104	1.0
86.119	2.0
86.134	6.0
86.149	5.0
86.164	3.0
86.179	2.0
86.194	3.0
86.209	4.0
86.224	5.0
86.239	3.0
86.254	3.0
86.269	2.0
86.284	3.0
86.299	4.0
86.314	4.0
86.33	3.0
86.345	6.0
86.36	2.0
86.375	0.0
86.39	3.0
86.405	3.0
86.42	2.0
86.435	3.0
86.45	3.0
86.465	2.0
86.48	1.0
86.495	4.0
86.51	3.0
86.525	2.0
86.54	4.0
86.555	4.0
86.57	2.0
86.585	2.0
86.6	1.0
86.615	3.0
86.63	4.0
86.645	1.0
86.659	1.0
86.674	2.0
86.689	3.0
86.704	7.0
86.719	3.0
86.734	4.0
86.749	4.0
86.764	2.0
86.779	6.0
86.794	0.0
86.809	4.0
86.824	7.0
86.839	2.0
86.854	3.0
86.869	7.0
86.884	9.0
86.899	8.0
86.914	1.0
86.929	7.0
86.944	5.0
86.959	5.0
86.974	3.0
86.989	3.0
87.004	4.0
87.019	3.0
87.034	3.0
87.049	3.0
87.064	0.0
87.079	2.0
87.094	3.0
87.109	1.0
87.124	3.0
87.139	3.0
87.154	5.0
87.169	2.0
87.184	1.0
87.199	3.0
87.214	2.0
87.229	3.0
87.244	3.0
87.259	1.0
87.274	2.0
87.289	4.0
87.304	2.0
87.319	5.0
87.334	4.0
87.349	2.0
87.364	2.0
87.379	3.0
87.394	2.0
87.409	4.0
87.424	3.0
87.438	4.0
87.453	2.0
87.468	7.0
87.483	4.0
87.498	3.0
87.513	2.0
87.528	2.0
87.543	2.0
87.558	7.0
87.573	4.0
87.588	2.0
87.603	6.0
87.618	6.0
87.633	4.0
87.648	3.0
87.663	6.0
87.678	7.0
87.693	3.0
87.708	3.0
87.723	4.0
87.738	1.0
87.753	1.0
87.768	6.0
87.783	4.0
87.798	3.0
87.813	5.0
87.828	2.0
87.843	4.0
87.858	3.0
87.873	1.0
87.888	3.0
87.903	2.0
87.918	4.0
87.933	2.0
87.948	7.0
87.963	4.0
87.978	4.0
87.993	0.0
88.008	3.0
88.023	4.0
88.038	3.0
88.053	5.0
88.068	2.0
88.083	1.0
88.098	1.0
88.113	4.0
88.128	4.0
88.143	4.0
88.158	4.0
88.174	2.0
88.189	0.0
88.204	3.0
88.219	1.0
88.234	4.0
88.249	2.0
88.264	4.0
88.279	3.0
88.294	5.0
88.309	3.0
88.324	3.0
88.339	4.0
88.354	1.0
88.369	1.0
88.384	2.0
88.399	5.0
88.414	2.0
88.429	2.0
88.444	7.0
88.459	5.0
88.474	2.0
88.489	4.0
88.504	5.0
88.519	3.0
88.534	4.0
88.549	2.0
88.564	2.0
88.58	3.0
88.595	6.0
88.61	5.0
88.625	1.0
88.64	4.0
88.655	2.0
88.67	5.0
88.685	3.0
88.7	2.0
88.715	2.0
88.73	1.0
88.745	4.0
88.76	3.0
88.775	6.0
88.79	2.0
88.805	3.0
88.82	3.0
88.835	6.0
88.85	1.0
88.865	2.0
88.88	2.0
88.895	3.0
88.911	4.0
88.926	4.0
88.941	1.0
88.956	1.0
88.971	4.0
88.986	4.0
89.001	0.0
89.016	1.0
89.031	2.0
89.046	1.0
89.061	2.0
89.076	5.0
89.091	5.0
89.106	2.0
89.121	5.0
89.136	5.0
89.151	5.0
89.166	1.0
89.181	4.0
89.196	3.0
89.211	1.0
89.227	7.0
89.242	4.0
89.257	1.0
89.272	4.0
89.287	2.0
89.302	3.0
89.317	6.0
89.332	2.0
89.347	2.0
89.362	4.0
89.377	2.0
89.392	3.0
89.407	1.0
89.422	8.0
89.437	2.0
89.452	3.0
89.467	3.0
89.482	2.0
89.497	3.0
89.512	4.0
89.527	2.0
89.542	2.0
89.557	3.0
89.572	0.0
89.587	2.0
89.602	1.0
89.617	1.0
89.632	3.0
89.647	3.0
89.662	2.0
89.677	2.0
89.693	6.0
89.708	1.0
89.723	0.0
89.738	1.0
89.753	4.0
89.768	2.0
89.783	2.0
89.798	5.0
89.813	1.0
89.828	3.0
89.843	2.0
89.858	3.0
89.873	1.0
89.888	4.0
89.903	4.0
89.918	4.0
89.933	4.0
89.948	1.0
89.963	4.0
89.978	3.0
89.993	2.0
90.008	3.0
90.023	3.0
90.038	5.0
90.053	3.0
90.068	1.0
90.083	3.0
90.097	3.0
90.112	4.0
90.127	4.0
90.142	2.0
90.157	5.0
90.172	4.0
90.187	6.0
90.202	3.0
90.217	5.0
90.232	4.0
90.247	6.0
90.262	5.0
90.277	6.0
90.292	2.0
90.307	2.0
90.322	8.0
90.337	1.0
90.352	5.0
90.367	4.0
90.382	2.0
90.397	3.0
90.412	1.0
90.427	3.0
90.442	4.0
90.457	4.0
90.472	5.0
90.487	2.0
90.501	1.0
90.516	2.0
90.531	2.0
90.546	2.0
90.561	3.0
90.576	2.0
90.591	1.0
90.606	1.0
90.621	4.0
90.636	4.0
90.651	4.0
90.666	4.0
90.681	4.0
90.696	5.0
90.711	5.0
90.726	4.0
90.741	7.0
90.755	0.0
90.77	5.0
90.785	0.0
90.8	1.0
90.815	4.0
90.83	2.0
90.845	3.0
90.86	0.0
90.875	6.0
90.89	4.0
90.905	5.0
90.92	3.0
90.935	4.0
90.95	7.0
90.965	4.0
90.979	4.0
90.994	0.0
91.009	6.0
91.024	6.0
91.039	6.0
91.054	3.0
91.069	5.0
91.084	4.0
91.099	2.0
91.114	5.0
91.129	2.0
91.144	4.0
91.159	3.0
91.174	3.0
91.188	7.0
91.203	3.0
91.218	3.0
91.233	3.0
91.248	6.0
91.263	1.0
91.278	3.0
91.293	4.0
91.308	1.0
91.323	5.0
91.338	0.0
91.353	2.0
91.368	1.0
91.383	5.0
91.398	3.0
91.412	2.0
91.427	0.0
91.442	0.0
91.457	4.0
91.472	5.0
91.487	1.0
91.502	4.0
91.517	4.0
91.532	1.0
91.547	3.0
91.562	4.0
91.577	2.0
91.592	2.0
91.607	0.0
91.622	5.0
91.637	2.0
91.652	2.0
91.666	3.0
91.681	5.0
91.696	3.0
91.711	2.0
91.726	1.0
91.741	7.0
91.756	2.0
91.771	6.0
91.786	1.0
91.801	0.0
91.816	0.0
91.831	2.0
91.846	3.0
91.861	5.0
91.876	2.0
91.891	1.0
91.906	2.0
91.921	0.0
91.936	4.0
91.951	3.0
91.966	2.0
91.981	2.0
91.995	4.0
92.01	5.0
92.025	8.0
92.04	2.0
92.055	5.0
92.07	5.0
92.085	1.0
92.1	2.0
92.115	3.0
92.13	3.0
92.145	2.0
92.16	2.0
92.175	2.0
92.19	3.0
92.205	1.0
92.22	1.0
92.235	1.0
92.25	5.0
92.265	4.0
92.28	4.0
92.295	1.0
92.31	3.0
92.325	2.0
92.34	2.0
92.355	5.0
92.37	3.0
92.385	4.0
92.4	3.0
92.415	3.0
92.43	3.0
92.445	1.0
92.46	1.0
92.475	5.0
92.49	4.0
92.505	2.0
92.52	3.0
92.535	1.0
92.55	3.0
92.565	8.0
92.58	2.0
92.595	4.0
92.61	2.0
92.625	3.0
92.64	2.0
92.655	4.0
92.67	2.0
92.685	1.0
92.7	7.0
92.715	2.0
92.73	5.0
92.745	3.0
92.76	2.0
92.775	4.0
92.79	3.0
92.805	2.0
92.82	3.0
92.835	3.0
92.85	2.0
92.865	3.0
92.88	2.0
92.895	4.0
92.91	3.0
92.925	2.0
92.94	3.0
92.955	3.0
92.97	6.0
92.985	2.0
93.0	4.0
93.015	5.0
93.03	4.0
93.045	2.0
93.06	3.0
93.075	4.0
93.09	3.0
93.105	0.0
93.12	4.0
93.135	4.0
93.15	1.0
93.165	1.0
93.18	0.0
93.195	4.0
93.21	4.0
93.225	2.0
93.24	4.0
93.255	1.0
93.27	4.0
93.285	2.0
93.3	3.0
93.315	2.0
93.33	3.0
93.345	2.0
93.36	1.0
93.375	6.0
93.39	1.0
93.405	3.0
93.42	0.0
93.435	4.0
93.45	5.0
93.465	3.0
93.48	6.0
93.495	1.0
93.51	1.0
93.525	3.0
93.54	4.0
93.555	3.0
93.57	2.0
93.585	7.0
93.6	3.0
93.615	2.0
93.63	5.0
93.645	3.0
93.66	2.0
93.675	3.0
93.69	7.0
93.705	4.0
93.72	0.0
93.735	4.0
93.75	1.0
93.765	0.0
93.78	3.0
93.795	0.0
93.81	1.0
93.824	3.0
93.839	5.0
93.854	4.0
93.869	4.0
93.884	3.0
93.899	1.0
93.914	2.0
93.929	3.0
93.944	1.0
93.959	2.0
93.974	3.0
93.989	2.0
94.004	6.0
94.019	3.0
94.034	3.0
94.049	0.0
94.064	3.0
94.079	4.0
94.094	3.0
94.108	3.0
94.123	4.0
94.138	2.0
94.153	7.0
94.168	1.0
94.183	7.0
94.198	3.0
94.213	5.0
94.228	1.0
94.243	2.0
94.258	1.0
94.273	3.0
94.288	2.0
94.302	6.0
94.317	4.0
94.332	4.0
94.347	3.0
94.362	7.0
94.377	6.0
94.392	2.0
94.407	6.0
94.422	1.0
94.437	4.0
94.452	1.0
94.466	5.0
94.481	7.0
94.496	6.0
94.511	3.0
94.526	1.0
94.541	5.0
94.556	2.0
94.571	1.0
94.586	1.0
94.601	4.0
94.615	6.0
94.63	3.0
94.645	3.0
94.66	3.0
94.675	3.0
94.69	1.0
94.705	2.0
94.72	3.0
94.735	6.0
94.749	2.0
94.764	5.0
94.779	2.0
94.794	2.0
94.809	5.0
94.824	4.0
94.839	3.0
94.854	2.0
94.868	3.0
94.883	4.0
94.898	3.0
94.913	2.0
94.928	3.0
94.943	1.0
94.958	1.0
94.973	2.0
94.987	2.0
95.002	1.0
95.017	4.0
95.032	5.0
95.047	5.0
95.062	4.0
95.077	8.0
95.092	5.0
95.106	2.0
95.121	1.0
95.136	3.0
95.151	2.0
95.166	3.0
95.181	6.0
95.196	3.0
95.211	5.0
95.226	6.0
95.24	4.0
95.255	3.0
95.27	2.0
95.285	3.0
95.3	1.0
95.315	2.0
95.33	2.0
95.345	2.0
95.359	5.0
95.374	1.0
95.389	0.0
95.404	2.0
95.419	2.0
95.434	2.0
95.449	3.0
95.464	2.0
95.478	0.0
95.493	1.0
95.508	3.0
95.523	2.0
95.538	4.0
95.553	2.0
95.568	5.0
95.583	0.0
95.597	8.0
95.612	3.0
95.627	2.0
95.642	6.0
95.657	3.0
95.672	3.0
95.687	3.0
95.702	0.0
95.717	2.0
95.731	5.0
95.746	3.0
95.761	1.0
95.776	2.0
95.791	5.0
95.806	2.0
95.821	3.0
95.836	0.0
95.851	4.0
95.866	2.0
95.88	2.0
95.895	4.0
95.91	4.0
95.925	2.0
95.94	7.0
95.955	4.0
95.97	1.0
95.985	4.0
96.0	5.0
96.015	7.0
96.029	1.0
96.044	2.0
96.059	1.0
96.074	3.0
96.089	4.0
96.104	6.0
96.119	2.0
96.134	2.0
96.149	3.0
96.164	3.0
96.179	3.0
96.194	2.0
96.208	3.0
96.223	5.0
96.238	2.0
96.253	4.0
96.268	5.0
96.283	2.0
96.298	5.0
96.313	3.0
96.328	1.0
96.343	5.0
96.358	4.0
96.373	3.0
96.388	5.0
96.403	1.0
96.417	2.0
96.432	7.0
96.447	2.0
96.462	2.0
96.477	7.0
96.492	3.0
96.507	5.0
96.522	2.0
96.537	2.0
96.552	4.0
96.567	2.0
96.582	2.0
96.597	0.0
96.612	2.0
96.627	3.0
96.642	2.0
96.656	6.0
96.671	1.0
96.686	4.0
96.701	2.0
96.716	0.0
96.731	1.0
96.746	2.0
96.761	0.0
96.776	3.0
96.791	6.0
96.806	1.0
96.821	5.0
96.836	2.0
96.851	2.0
96.866	3.0
96.881	6.0
96.896	7.0
96.911	2.0
96.926	3.0
96.94	5.0
96.955	2.0
96.97	6.0
96.985	2.0
97.0	5.0
97.015	4.0
97.03	5.0
97.045	2.0
97.06	4.0
97.075	5.0
97.09	5.0
97.105	4.0
97.12	5.0
97.135	4.0
97.15	4.0
97.165	5.0
97.18	2.0
97.195	1.0
97.21	2.0
97.225	2.0
97.239	5.0
97.254	0.0
97.269	2.0
97.284	1.0
97.299	0.0
97.314	3.0
97.329	2.0
97.344	4.0
97.359	6.0
97.374	3.0
97.389	2.0
97.404	1.0
97.419	0.0
97.434	0.0
97.449	2.0
97.464	2.0
97.479	2.0
97.494	2.0
97.509	2.0
97.524	7.0
97.538	7.0
97.553	1.0
97.568	2.0
97.583	1.0
97.598	4.0
97.613	1.0
97.628	1.0
97.643	3.0
97.658	6.0
97.673	8.0
97.688	4.0
97.703	3.0
97.718	5.0
97.733	3.0
97.748	4.0
97.763	1.0
97.778	4.0
97.792	2.0
97.807	5.0
97.822	4.0
97.837	1.0
97.852	5.0
97.867	4.0
97.882	2.0
97.897	7.0
97.912	4.0
97.927	0.0
97.942	1.0
97.957	2.0
97.972	1.0
97.987	1.0
98.001	2.0
98.016	0.0
98.031	1.0
98.046	3.0
98.061	5.0
98.076	2.0
98.091	5.0
98.106	1.0
98.121	5.0
98.136	4.0
98.151	1.0
98.166	2.0
98.181	1.0
98.195	4.0
98.21	1.0
98.225	5.0
98.24	5.0
98.255	3.0
98.27	2.0
98.285	4.0
98.3	4.0
98.315	1.0
98.33	2.0
98.345	6.0
98.359	5.0
98.374	2.0
98.389	4.0
98.404	4.0
98.419	4.0
98.434	2.0
98.449	3.0
98.464	6.0
98.479	4.0
98.494	2.0
98.508	0.0
98.523	5.0
98.538	6.0
98.553	2.0
98.568	3.0
98.583	4.0
98.598	3.0
98.613	6.0
98.628	1.0
98.642	3.0
98.657	4.0
98.672	2.0
98.687	5.0
98.702	3.0
98.717	3.0
98.732	3.0
98.747	3.0
98.762	7.0
98.776	0.0
98.791	6.0
98.806	2.0
98.821	6.0
98.836	1.0
98.851	2.0
98.866	3.0
98.881	5.0
98.896	2.0
98.91	4.0
98.925	3.0
98.94	5.0
98.955	3.0
98.97	6.0
98.985	4.0
99.0	5.0
99.015	0.0
99.029	5.0
99.044	2.0
99.059	4.0
99.074	3.0
99.089	5.0
99.104	1.0
99.119	4.0
99.133	1.0
99.148	1.0
99.163	3.0
99.178	6.0
99.193	2.0
99.208	1.0
99.223	3.0
99.238	4.0
99.252	2.0
99.267	3.0
99.282	3.0
99.297	4.0
99.312	1.0
99.327	3.0
99.342	5.0
99.356	1.0
99.371	5.0
99.386	4.0
99.401	0.0
99.416	3.0
99.431	2.0
99.446	4.0
99.461	3.0
99.475	2.0
99.49	3.0
99.505	2.0
99.52	3.0
99.535	4.0
99.55	1.0
99.565	2.0
99.579	4.0
99.594	5.0
99.609	5.0
99.624	4.0
99.639	2.0
99.654	3.0
99.669	1.0
99.683	2.0
99.698	5.0
99.713	1.0
99.728	5.0
99.743	0.0
99.758	3.0
99.772	1.0
99.787	3.0
99.802	2.0
99.817	5.0
99.832	2.0
99.847	6.0
99.862	2.0
99.876	3.0
99.891	3.0
99.906	3.0
99.921	5.0
99.936	2.0
99.951	1.0
99.966	7.0
99.98	2.0
99.995	2.0
100.01	3.0
100.025	2.0
100.04	3.0
100.055	2.0
100.069	4.0
100.084	2.0
100.099	6.0
100.114	2.0
100.129	5.0
100.144	4.0
100.159	7.0
100.173	1.0
100.188	3.0
100.203	2.0
100.218	2.0
100.233	3.0
100.248	0.0
100.262	3.0
100.277	4.0
100.292	4.0
100.307	9.0
100.322	10.0
100.337	2.0
100.351	5.0
100.366	3.0
100.381	4.0
100.396	7.0
100.411	1.0
100.426	7.0
100.441	3.0
100.455	0.0
100.47	2.0
100.485	3.0
100.5	2.0
100.515	3.0
100.53	5.0
100.544	3.0
100.559	4.0
100.574	3.0
100.589	4.0
100.604	3.0
100.619	1.0
100.633	3.0
100.648	3.0
100.663	2.0
100.678	4.0
100.693	3.0
100.708	1.0
100.722	0.0
100.737	0.0
100.752	5.0
100.767	3.0
100.782	7.0
100.796	1.0
100.811	4.0
100.826	1.0
100.841	5.0
100.856	4.0
100.871	3.0
100.885	3.0
100.9	4.0
100.915	4.0
100.93	3.0
100.945	1.0
100.96	6.0
100.974	4.0
100.989	6.0
101.004	3.0
101.019	3.0
101.034	2.0
101.048	6.0
101.063	0.0
101.078	4.0
101.093	0.0
101.108	4.0
101.123	3.0
101.137	5.0
101.152	4.0
101.167	3.0
101.182	2.0
101.197	4.0
101.211	5.0
101.226	3.0
101.241	4.0
101.256	3.0
101.271	7.0
101.285	5.0
101.3	2.0
101.315	3.0
101.33	5.0
101.345	2.0
101.359	5.0
101.374	1.0
101.389	4.0
101.404	1.0
101.419	2.0
101.433	4.0
101.448	2.0
101.463	1.0
101.478	2.0
101.493	2.0
101.507	4.0
101.522	1.0
101.537	8.0
101.552	4.0
101.567	6.0
101.581	4.0
101.596	2.0
101.611	1.0
101.626	2.0
101.64	4.0
101.655	2.0
101.67	1.0
101.685	3.0
101.7	4.0
101.714	2.0
101.729	4.0
101.744	2.0
101.759	4.0
101.773	1.0
101.788	2.0
101.803	3.0
101.818	4.0
101.833	1.0
101.847	3.0
101.862	3.0
101.877	6.0
101.892	3.0
101.906	3.0
101.921	7.0
101.936	2.0
101.951	3.0
101.965	2.0
101.98	5.0
101.995	6.0
102.01	4.0
102.025	6.0
102.039	3.0
102.054	4.0
102.069	3.0
102.084	6.0
102.098	7.0
102.113	8.0
102.128	2.0
102.143	2.0
102.157	1.0
102.172	1.0
102.187	1.0
102.202	2.0
102.216	4.0
102.231	3.0
102.246	5.0
102.261	4.0
102.275	3.0
102.29	4.0
102.305	7.0
102.32	3.0
102.334	1.0
102.349	0.0
102.364	2.0
102.378	3.0
102.393	1.0
102.408	2.0
102.423	5.0
102.437	4.0
102.452	1.0
102.467	2.0
102.482	1.0
102.496	3.0
102.511	4.0
102.526	2.0
102.541	3.0
102.555	3.0
102.57	5.0
102.585	4.0
102.6	3.0
102.614	4.0
102.629	1.0
102.644	1.0
102.659	0.0
102.673	7.0
102.688	1.0
102.703	0.0
102.717	1.0
102.732	0.0
102.747	1.0
102.762	2.0
102.776	5.0
102.791	4.0
102.806	7.0
102.821	4.0
102.835	4.0
102.85	7.0
102.865	5.0
102.88	4.0
102.894	1.0
102.909	3.0
102.924	2.0
102.938	6.0
102.953	2.0
102.968	6.0
102.983	2.0
102.997	1.0
103.012	3.0
103.027	0.0
103.042	2.0
103.056	6.0
103.071	4.0
103.086	3.0
103.101	4.0
103.115	3.0
103.13	3.0
103.145	2.0
103.16	3.0
103.174	3.0
103.189	1.0
103.204	3.0
103.219	3.0
103.233	2.0
103.248	5.0
103.263	2.0
103.278	1.0
103.292	3.0
103.307	1.0
103.322	4.0
103.337	2.0
103.351	4.0
103.366	2.0
103.381	5.0
103.396	2.0
103.41	2.0
103.425	3.0
103.44	2.0
103.455	1.0
103.469	2.0
103.484	1.0
103.499	7.0
103.514	3.0
103.529	4.0
103.543	3.0
103.558	3.0
103.573	7.0
103.588	2.0
103.602	6.0
103.617	4.0
103.632	4.0
103.647	4.0
103.661	3.0
103.676	6.0
103.691	5.0
103.706	2.0
103.721	3.0
103.735	1.0
103.75	6.0
103.765	2.0
103.78	3.0
103.795	5.0
103.809	3.0
103.824	1.0
103.839	4.0
103.854	4.0
103.869	3.0
103.883	3.0
103.898	3.0
103.913	5.0
103.928	2.0
103.943	1.0
103.957	6.0
103.972	4.0
103.987	4.0
104.002	1.0
104.017	2.0
104.031	6.0
104.046	2.0
104.061	5.0
104.076	0.0
104.091	4.0
104.106	4.0
104.12	1.0
104.135	4.0
104.15	4.0
104.165	1.0
104.18	5.0
104.195	4.0
104.209	6.0
104.224	3.0
104.239	3.0
104.254	0.0
104.269	3.0
104.284	4.0
104.299	2.0
104.313	5.0
104.328	3.0
104.343	3.0
104.358	3.0
104.373	4.0
104.388	0.0
104.403	5.0
104.417	6.0
104.432	6.0
104.447	4.0
104.462	3.0
104.477	0.0
104.492	5.0
104.507	3.0
104.522	5.0
104.536	2.0
104.551	5.0
104.566	5.0
104.581	7.0
104.596	3.0
104.611	2.0
104.626	2.0
104.641	4.0
104.656	3.0
104.67	1.0
104.685	4.0
104.7	4.0
104.715	0.0
104.73	1.0
104.745	0.0
104.76	3.0
104.775	3.0
104.79	2.0
104.804	2.0
104.819	2.0
104.834	1.0
104.849	2.0
104.864	3.0
104.879	7.0
104.894	3.0
104.909	5.0
104.924	1.0
104.939	6.0
104.954	1.0
104.968	6.0
104.983	4.0
104.998	0.0
105.013	3.0
105.028	2.0
105.043	4.0
105.058	3.0
105.073	0.0
105.088	1.0
105.103	1.0
105.118	4.0
105.133	1.0
105.147	4.0
105.162	2.0
105.177	5.0
105.192	2.0
105.207	7.0
105.222	4.0
105.237	3.0
105.252	2.0
105.267	2.0
105.282	1.0
105.297	4.0
105.312	4.0
105.327	5.0
105.342	4.0
105.356	2.0
105.371	1.0
105.386	2.0
105.401	4.0
105.416	8.0
105.431	4.0
105.446	3.0
105.461	5.0
105.476	4.0
105.491	4.0
105.506	4.0
105.521	2.0
105.536	3.0
105.551	7.0
105.566	9.0
105.581	2.0
105.595	2.0
105.61	2.0
105.625	3.0
105.64	4.0
105.655	1.0
105.67	6.0
105.685	2.0
105.7	2.0
105.715	3.0
105.73	2.0
105.745	3.0
105.76	4.0
105.775	2.0
105.79	3.0
105.805	2.0
105.82	2.0
105.835	3.0
105.85	4.0
105.864	3.0
105.879	1.0
105.894	2.0
105.909	3.0
105.924	2.0
105.939	2.0
105.954	4.0
105.969	2.0
105.984	3.0
105.999	3.0
106.014	2.0
106.029	1.0
106.044	7.0
106.059	5.0
106.074	4.0
106.089	1.0
106.104	6.0
106.119	1.0
106.134	4.0
106.148	3.0
106.163	1.0
106.178	1.0
106.193	3.0
106.208	4.0
106.223	2.0
106.238	2.0
106.253	2.0
106.268	4.0
106.283	2.0
106.298	5.0
106.313	3.0
106.328	2.0
106.343	2.0
106.358	4.0
106.373	3.0
106.388	2.0
106.403	4.0
106.418	2.0
106.432	3.0
106.447	2.0
106.462	3.0
106.477	4.0
106.492	0.0
106.507	7.0
106.522	4.0
106.537	2.0
106.552	2.0
106.567	1.0
106.582	2.0
106.597	4.0
106.612	2.0
106.627	1.0
106.642	2.0
106.657	3.0
106.672	1.0
106.687	2.0
106.701	4.0
106.716	3.0
106.731	0.0
106.746	1.0
106.761	0.0
106.776	4.0
106.791	1.0
106.806	3.0
106.821	2.0
106.836	4.0
106.851	4.0
106.866	5.0
106.881	6.0
106.896	3.0
106.911	2.0
106.926	2.0
106.941	2.0
106.955	1.0
106.97	2.0
106.985	4.0
107.0	2.0
107.015	1.0
107.03	5.0
107.045	5.0
107.06	6.0
107.075	6.0
107.09	3.0
107.105	4.0
107.12	3.0
107.135	3.0
107.15	4.0
107.165	3.0
107.18	4.0
107.194	7.0
107.209	8.0
107.224	7.0
107.239	4.0
107.254	2.0
107.269	1.0
107.284	6.0
107.299	4.0
107.314	2.0
107.329	4.0
107.344	1.0
107.359	5.0
107.374	4.0
107.389	4.0
107.404	3.0
107.418	4.0
107.433	1.0
107.448	0.0
107.463	5.0
107.478	6.0
107.493	5.0
107.508	3.0
107.523	1.0
107.538	1.0
107.553	4.0
107.568	3.0
107.583	0.0
107.598	1.0
107.613	2.0
107.627	5.0
107.642	2.0
107.657	1.0
107.672	3.0
107.687	2.0
107.702	2.0
107.717	4.0
107.732	8.0
107.747	3.0
107.762	3.0
107.777	1.0
107.792	1.0
107.807	3.0
107.821	2.0
107.836	3.0
107.851	5.0
107.866	3.0
107.881	2.0
107.896	2.0
107.911	3.0
107.926	5.0
107.941	3.0
107.956	4.0
107.971	5.0
107.986	2.0
108.0	2.0
108.015	3.0
108.03	3.0
108.045	2.0
108.06	1.0
108.075	6.0
108.09	3.0
108.105	5.0
108.12	0.0
108.135	3.0
108.15	2.0
108.164	4.0
108.179	4.0
108.194	3.0
108.209	3.0
108.224	2.0
108.239	4.0
108.254	6.0
108.269	2.0
108.284	1.0
108.299	5.0
108.313	6.0
108.328	1.0
108.343	1.0
108.358	3.0
108.373	1.0
108.388	2.0
108.403	1.0
108.418	3.0
108.433	3.0
108.448	7.0
108.462	3.0
108.477	1.0
108.492	1.0
108.507	4.0
108.522	4.0
108.537	4.0
108.552	3.0
108.567	4.0
108.582	5.0
108.597	4.0
108.611	3.0
108.626	4.0
108.641	3.0
108.656	2.0
108.671	7.0
108.686	4.0
108.701	4.0
108.716	4.0
108.731	1.0
108.745	1.0
108.76	3.0
108.775	2.0
108.79	3.0
108.805	5.0
108.82	4.0
108.835	3.0
108.85	1.0
108.865	6.0
108.879	4.0
108.894	2.0
108.909	2.0
108.924	5.0
108.939	1.0
108.954	2.0
108.969	4.0
108.984	3.0
108.999	7.0
109.013	6.0
109.028	6.0
109.043	3.0
109.058	3.0
109.073	5.0
109.088	5.0
109.103	2.0
109.118	3.0
109.133	4.0
109.147	2.0
109.162	3.0
109.177	3.0
109.192	4.0
109.207	6.0
109.222	2.0
109.237	3.0
109.252	4.0
109.267	2.0
109.281	3.0
109.296	2.0
109.311	1.0
109.326	4.0
109.341	1.0
109.356	6.0
109.371	1.0
109.386	3.0
109.4	2.0
109.415	2.0
109.43	2.0
109.445	4.0
109.46	2.0
109.475	2.0
109.49	1.0
109.505	0.0
109.52	4.0
109.534	5.0
109.549	3.0
109.564	3.0
109.579	2.0
109.594	1.0
109.609	3.0
109.624	2.0
109.639	4.0
109.653	8.0
109.668	6.0
109.683	2.0
109.698	1.0
109.713	6.0
109.728	2.0
109.743	1.0
109.758	2.0
109.773	2.0
109.787	3.0
109.802	5.0
109.817	5.0
109.832	7.0
109.847	3.0
109.862	2.0
109.877	4.0
109.892	1.0
109.907	4.0
109.921	7.0
109.936	5.0
109.951	4.0
109.966	2.0
109.981	4.0
109.996	3.0
110.011	3.0
110.026	2.0
110.04	4.0
110.055	2.0
110.07	6.0
110.085	0.0
110.1	1.0
110.115	4.0
110.13	1.0
110.145	2.0
110.16	3.0
110.174	3.0
110.189	5.0
110.204	2.0
110.219	0.0
110.234	5.0
110.249	2.0
110.264	4.0
110.279	3.0
110.294	1.0
110.308	3.0
110.323	1.0
110.338	4.0
110.353	0.0
110.368	1.0
110.383	3.0
110.398	3.0
110.413	1.0
110.428	3.0
110.442	2.0
110.457	1.0
110.472	2.0
110.487	1.0
110.502	6.0
110.517	5.0
110.532	2.0
110.547	3.0
110.561	3.0
110.576	4.0
110.591	8.0
110.606	0.0
110.621	3.0
110.636	1.0
110.651	4.0
110.666	2.0
110.681	6.0
110.695	3.0
110.71	5.0
110.725	6.0
110.74	3.0
110.755	5.0
110.77	3.0
110.785	2.0
110.8	3.0
110.815	1.0
110.829	2.0
110.844	1.0
110.859	4.0
110.874	4.0
110.889	5.0
110.904	2.0
110.919	2.0
110.934	3.0
110.948	1.0
110.963	3.0
110.978	5.0
110.993	2.0
111.008	2.0
111.023	3.0
111.038	2.0
111.053	5.0
111.067	3.0
111.082	5.0
111.097	2.0
111.112	1.0
111.127	3.0
111.142	4.0
111.157	4.0
111.172	1.0
111.186	4.0
111.201	3.0
111.216	3.0
111.231	4.0
111.246	2.0
111.261	4.0
111.276	4.0
111.291	3.0
111.305	3.0
111.32	2.0
111.335	2.0
111.35	4.0
111.365	3.0
111.38	4.0
111.395	1.0
111.41	4.0
111.424	4.0
111.439	5.0
111.454	3.0
111.469	4.0
111.484	3.0
111.499	1.0
111.514	5.0
111.528	3.0
111.543	1.0
111.558	6.0
111.573	4.0
111.588	6.0
111.603	3.0
111.618	6.0
111.633	5.0
111.647	4.0
111.662	6.0
111.677	4.0
111.692	1.0
111.707	6.0
111.722	3.0
111.737	4.0
111.751	3.0
111.766	4.0
111.781	5.0
111.796	3.0
111.811	2.0
111.826	3.0
111.84	4.0
111.855	4.0
111.87	2.0
111.885	5.0
111.9	3.0
111.915	1.0
111.93	2.0
111.944	4.0
111.959	2.0
111.974	5.0
111.989	2.0
112.004	1.0
112.019	5.0
112.033	4.0
112.048	2.0
112.063	3.0
112.078	2.0
112.093	3.0
112.108	5.0
112.123	1.0
112.137	5.0
112.152	4.0
112.167	2.0
112.182	2.0
112.197	1.0
112.212	2.0
112.226	2.0
112.241	5.0
112.256	0.0
112.271	5.0
112.286	5.0
112.301	3.0
112.315	5.0
112.33	4.0
112.345	3.0
112.36	3.0
112.375	2.0
112.389	7.0
112.404	5.0
112.419	3.0
112.434	6.0
112.449	2.0
112.464	2.0
112.478	7.0
112.493	4.0
112.508	2.0
112.523	2.0
112.538	6.0
112.553	1.0
112.567	2.0
112.582	1.0
112.597	3.0
112.612	8.0
112.627	2.0
112.642	5.0
112.656	3.0
112.671	3.0
112.686	3.0
112.701	6.0
112.716	2.0
112.73	8.0
112.745	6.0
112.76	4.0
112.775	3.0
112.79	1.0
112.805	5.0
112.819	2.0
112.834	0.0
112.849	2.0
112.864	5.0
112.879	4.0
112.894	2.0
112.908	4.0
112.923	6.0
112.938	2.0
112.953	6.0
112.968	3.0
112.983	2.0
112.997	5.0
113.012	5.0
113.027	5.0
113.042	3.0
113.057	3.0
113.072	2.0
113.086	1.0
113.101	8.0
113.116	1.0
113.131	3.0
113.146	1.0
113.161	3.0
113.175	5.0
113.19	5.0
113.205	2.0
113.22	4.0
113.235	4.0
113.25	2.0
113.265	1.0
113.279	4.0
113.294	8.0
113.309	4.0
113.324	4.0
113.339	6.0
113.354	6.0
113.368	5.0
113.383	5.0
113.398	5.0
113.413	3.0
113.428	3.0
113.443	6.0
113.458	6.0
113.472	2.0
113.487	5.0
113.502	3.0
113.517	2.0
113.532	5.0
113.547	1.0
113.562	5.0
113.576	5.0
113.591	3.0
113.606	4.0
113.621	2.0
113.636	5.0
113.651	2.0
113.666	6.0
113.681	1.0
113.695	6.0
113.71	3.0
113.725	2.0
113.74	5.0
113.755	6.0
113.77	2.0
113.785	5.0
113.8	2.0
113.814	6.0
113.829	5.0
113.844	6.0
113.859	3.0
113.874	2.0
113.889	7.0
113.904	4.0
113.919	1.0
113.934	2.0
113.949	3.0
113.963	6.0
113.978	3.0
113.993	6.0
114.008	2.0
114.023	6.0
114.038	4.0
114.053	5.0
114.068	3.0
114.083	3.0
114.098	7.0
114.113	2.0
114.127	2.0
114.142	3.0
114.157	3.0
114.172	6.0
114.187	4.0
114.202	6.0
114.217	2.0
114.232	3.0
114.247	4.0
114.262	4.0
114.277	2.0
114.292	5.0
114.307	4.0
114.322	3.0
114.337	3.0
114.351	3.0
114.366	5.0
114.381	5.0
114.396	6.0
114.411	3.0
114.426	2.0
114.441	4.0
114.456	2.0
114.471	4.0
114.486	4.0
114.501	5.0
114.516	5.0
114.531	6.0
114.546	1.0
114.561	2.0
114.576	6.0
114.591	3.0
114.606	3.0
114.621	2.0
114.636	3.0
114.65	8.0
114.665	6.0
114.68	3.0
114.695	2.0
114.71	4.0
114.725	1.0
114.74	2.0
114.755	2.0
114.77	4.0
114.785	5.0
114.8	4.0
114.815	8.0
114.83	2.0
114.845	4.0
114.86	4.0
114.875	5.0
114.89	3.0
114.905	1.0
114.92	2.0
114.935	7.0
114.95	4.0
114.965	3.0
114.98	3.0
114.995	4.0
115.009	2.0
115.024	2.0
115.039	4.0
115.054	3.0
115.069	2.0
115.084	1.0
115.099	5.0
115.114	8.0
115.129	2.0
115.144	5.0
115.159	1.0
115.174	4.0
115.189	2.0
115.204	0.0
115.219	0.0
115.234	5.0
115.249	1.0
115.264	4.0
115.279	6.0
115.294	3.0
115.309	2.0
115.323	3.0
115.338	3.0
115.353	4.0
115.368	2.0
115.383	2.0
115.398	3.0
115.413	4.0
115.428	1.0
115.443	4.0
115.458	2.0
115.473	5.0
115.488	2.0
115.503	4.0
115.518	5.0
115.533	3.0
115.548	6.0
115.562	6.0
115.577	4.0
115.592	5.0
115.607	2.0
115.622	5.0
115.637	6.0
115.652	2.0
115.667	3.0
115.682	5.0
115.697	3.0
115.712	6.0
115.727	3.0
115.741	3.0
115.756	1.0
115.771	3.0
115.786	2.0
115.801	5.0
115.816	3.0
115.831	4.0
115.846	3.0
115.861	3.0
115.875	3.0
115.89	5.0
115.905	5.0
115.92	3.0
115.935	3.0
115.95	3.0
115.965	6.0
115.98	1.0
115.995	6.0
116.009	2.0
116.024	4.0
116.039	4.0
116.054	8.0
116.069	2.0
116.084	4.0
116.099	2.0
116.113	3.0
116.128	3.0
116.143	3.0
116.158	3.0
116.173	6.0
116.188	2.0
116.202	4.0
116.217	4.0
116.232	6.0
116.247	7.0
116.262	4.0
116.277	2.0
116.291	0.0
116.306	5.0
116.321	7.0
116.336	3.0
116.351	2.0
116.366	4.0
116.38	3.0
116.395	5.0
116.41	4.0
116.425	4.0
116.44	4.0
116.454	2.0
116.469	2.0
116.484	6.0
116.499	4.0
116.514	5.0
116.528	4.0
116.543	2.0
116.558	2.0
116.573	1.0
116.588	4.0
116.602	3.0
116.617	3.0
116.632	4.0
116.647	5.0
116.662	4.0
116.676	2.0
116.691	5.0
116.706	2.0
116.721	4.0
116.735	4.0
116.75	4.0
116.765	4.0
116.78	4.0
116.795	4.0
116.809	4.0
116.824	1.0
116.839	1.0
116.854	3.0
116.868	3.0
116.883	0.0
116.898	0.0
116.913	4.0
116.927	3.0
116.942	2.0
116.957	5.0
116.972	0.0
116.986	1.0
117.001	3.0
117.016	5.0
117.031	3.0
117.045	4.0
117.06	2.0
117.075	3.0
117.09	4.0
117.104	0.0
117.119	6.0
117.134	3.0
117.149	4.0
117.163	1.0
117.178	1.0
117.193	5.0
117.208	4.0
117.222	2.0
117.237	4.0
117.252	4.0
117.267	3.0
117.281	2.0
117.296	3.0
117.311	5.0
117.325	6.0
117.34	5.0
117.355	2.0
117.37	3.0
117.384	3.0
117.399	2.0
117.414	4.0
117.429	4.0
117.443	5.0
117.458	4.0
117.473	2.0
117.487	2.0
117.502	5.0
117.517	1.0
117.532	3.0
117.546	3.0
117.561	2.0
117.576	2.0
117.59	1.0
117.605	0.0
117.62	9.0
117.635	5.0
117.649	3.0
117.664	2.0
117.679	3.0
117.693	4.0
117.708	4.0
117.723	7.0
117.738	1.0
117.752	3.0
117.767	7.0
117.782	2.0
117.796	6.0
117.811	3.0
117.826	2.0
117.841	7.0
117.855	1.0
117.87	4.0
117.885	3.0
117.899	0.0
117.914	5.0
117.929	6.0
117.944	1.0
117.958	6.0
117.973	4.0
117.988	4.0
118.002	5.0
118.017	4.0
118.032	6.0
118.047	7.0
118.062	4.0
118.077	2.0
118.092	5.0
118.107	3.0
118.121	5.0
118.136	4.0
118.151	2.0
118.166	9.0
118.181	5.0
118.196	0.0
118.211	5.0
118.225	6.0
118.24	5.0
118.255	3.0
118.27	1.0
118.285	4.0
118.3	5.0
118.315	3.0
118.33	2.0
118.344	3.0
118.359	2.0
118.374	0.0
118.389	1.0
118.404	4.0
118.419	1.0
118.434	3.0
118.449	5.0
118.463	4.0
118.478	4.0
118.493	3.0
118.508	4.0
118.523	3.0
118.538	6.0
118.553	5.0
118.567	8.0
118.582	2.0
118.597	0.0
118.612	4.0
118.627	3.0
118.642	2.0
118.657	5.0
118.672	2.0
118.686	2.0
118.701	3.0
118.716	3.0
118.731	2.0
118.746	2.0
118.761	1.0
118.776	3.0
118.791	6.0
118.805	4.0
118.82	8.0
118.835	4.0
118.85	6.0
118.865	4.0
118.88	4.0
118.895	5.0
118.909	4.0
118.924	5.0
118.939	5.0
118.954	6.0
118.969	0.0
118.984	6.0
118.999	8.0
119.014	5.0
119.028	2.0
119.043	7.0
119.058	5.0
119.073	5.0
119.088	3.0
119.103	3.0
119.118	5.0
119.133	4.0
119.147	4.0
119.162	4.0
119.177	0.0
119.192	3.0
119.207	4.0
119.222	2.0
119.237	4.0
119.251	2.0
119.266	5.0
119.281	3.0
119.296	4.0
119.311	4.0
119.326	0.0
119.341	3.0
119.356	3.0
119.37	3.0
119.385	4.0
119.4	4.0
119.415	5.0
119.43	3.0
119.445	3.0
119.46	8.0
119.475	1.0
119.489	2.0
119.504	8.0
119.519	3.0
119.534	6.0
119.549	1.0
119.564	5.0
119.579	8.0
119.593	4.0
119.608	9.0
119.623	4.0
119.638	1.0
119.653	0.0
119.668	2.0
119.683	3.0
119.698	1.0
119.712	0.0
119.727	2.0
119.742	3.0
119.757	6.0
119.772	3.0
119.787	4.0
119.802	1.0
119.817	5.0
119.831	3.0
119.846	2.0
119.861	1.0
119.876	4.0
119.891	1.0
119.906	2.0
119.921	7.0
119.935	4.0
119.95	2.0
119.965	1.0
119.98	1.0
119.995	2.0
120.01	1.0
120.025	1.0
120.04	2.0
120.054	1.0
120.069	4.0
120.084	5.0
120.099	1.0
120.114	1.0
120.129	2.0
120.144	2.0
120.159	1.0
120.173	1.0
120.188	0.0
120.203	1.0
120.218	1.0
120.233	1.0
120.248	0.0
120.263	0.0
120.277	0.0
120.292	0.0
120.307	0.0
120.322	0.0
120.337	0.0
120.352	1.0
120.367	1.0
120.382	0.0
120.396	0.0
120.411	0.0
120.426	0.0
120.441	0.0
120.456	0.0
120.471	0.0
120.486	0.0
120.501	0.0
120.515	0.0
120.53	0.0
120.545	0.0
120.56	0.0
120.575	0.0
120.59	0.0
120.605	0.0
120.619	0.0
120.634	0.0
120.649	0.0
120.664	0.0
120.679	0.0
120.694	0.0
120.709	0.0
120.724	0.0
120.738	0.0
120.753	0.0
120.768	0.0
120.783	0.0
120.798	0.0
120.813	0.0
120.828	0.0
120.843	0.0
120.857	0.0
120.872	0.0
120.887	0.0
120.902	0.0
120.917	0.0
120.932	0.0
120.947	0.0
120.961	0.0
120.976	0.0
