-1.217	0.0
-1.202	1.0
-1.187	0.0
-1.172	1.0
-1.157	0.0
-1.142	0.0
-1.128	0.0
-1.113	0.0
-1.098	0.0
-1.083	0.0
-1.068	0.0
-1.054	1.0
-1.039	0.0
-1.024	0.0
-1.009	0.0
-0.994	0.0
-0.979	0.0
-0.965	0.0
-0.95	0.0
-0.935	0.0
-0.92	0.0
-0.905	0.0
-0.891	0.0
-0.876	0.0
-0.861	0.0
-0.846	0.0
-0.831	0.0
-0.816	0.0
-0.802	0.0
-0.787	0.0
-0.772	0.0
-0.757	0.0
-0.742	0.0
-0.728	0.0
-0.713	0.0
-0.698	0.0
-0.683	0.0
-0.668	1.0
-0.653	0.0
-0.639	0.0
-0.624	0.0
-0.609	0.0
-0.594	0.0
-0.579	0.0
-0.565	0.0
-0.55	0.0
-0.535	0.0
-0.52	0.0
-0.505	0.0
-0.49	0.0
-0.476	0.0
-0.461	0.0
-0.446	0.0
-0.431	0.0
-0.416	0.0
-0.401	0.0
-0.387	0.0
-0.372	0.0
-0.357	0.0
-0.342	0.0
-0.327	0.0
-0.313	0.0
-0.298	1.0
-0.283	0.0
-0.268	0.0
-0.253	0.0
-0.238	0.0
-0.224	0.0
-0.209	0.0
-0.194	0.0
-0.179	0.0
-0.164	0.0
-0.15	0.0
-0.135	0.0
-0.12	0.0
-0.105	0.0
-0.09	0.0
-0.075	0.0
-0.061	0.0
-0.046	0.0
-0.031	0.0
-0.016	0.0
-0.001	0.0
0.013	0.0
0.028	0.0
0.043	0.0
0.058	0.0
0.073	0.0
0.088	0.0
0.102	0.0
0.117	0.0
0.132	0.0
0.147	0.0
0.162	0.0
0.176	0.0
0.191	0.0
0.206	0.0
0.221	0.0
0.236	0.0
0.251	0.0
0.265	0.0
0.28	0.0
0.295	0.0
0.31	0.0
0.325	0.0
0.339	0.0
0.354	0.0
0.369	0.0
0.384	0.0
0.399	0.0
0.414	0.0
0.428	0.0
0.443	0.0
0.458	0.0
0.473	0.0
0.488	0.0
0.502	0.0
0.517	0.0
0.532	0.0
0.547	0.0
0.562	0.0
0.577	0.0
0.591	0.0
0.606	0.0
0.621	0.0
0.636	0.0
0.651	0.0
0.665	0.0
0.68	0.0
0.695	0.0
0.71	0.0
0.725	0.0
0.74	0.0
0.754	0.0
0.769	0.0
0.784	0.0
0.799	0.0
0.814	0.0
0.828	0.0
0.843	1.0
0.858	0.0
0.873	0.0
0.888	0.0
0.903	0.0
0.917	0.0
0.932	0.0
0.947	0.0
0.962	0.0
0.977	0.0
0.991	0.0
1.006	0.0
1.021	0.0
1.036	0.0
1.051	0.0
1.065	0.0
1.08	0.0
1.095	0.0
1.11	0.0
1.125	0.0
1.14	1.0
1.154	0.0
1.169	0.0
1.184	0.0
1.199	0.0
1.214	0.0
1.228	0.0
1.243	0.0
1.258	0.0
1.273	0.0
1.288	0.0
1.302	0.0
1.317	0.0
1.332	0.0
1.347	0.0
1.362	0.0
1.376	0.0
1.391	0.0
1.406	0.0
1.421	0.0
1.436	0.0
1.45	0.0
1.465	0.0
1.48	0.0
1.495	0.0
1.51	0.0
1.524	1.0
1.539	0.0
1.554	0.0
1.569	1.0
1.584	0.0
1.598	1.0
1.613	0.0
1.628	0.0
1.643	1.0
1.658	0.0
1.672	0.0
1.687	0.0
1.702	0.0
1.717	0.0
1.732	0.0
1.746	0.0
1.761	0.0
1.776	0.0
1.791	0.0
1.806	0.0
1.82	0.0
1.835	0.0
1.85	0.0
1.865	0.0
1.88	0.0
1.894	0.0
1.909	0.0
1.924	0.0
1.939	0.0
1.954	1.0
1.968	0.0
1.983	0.0
1.998	0.0
2.013	0.0
2.028	0.0
2.042	0.0
2.057	0.0
2.072	0.0
2.087	0.0
2.101	1.0
2.116	0.0
2.131	1.0
2.146	0.0
2.161	0.0
2.175	0.0
2.19	0.0
2.205	0.0
2.22	0.0
2.235	0.0
2.249	0.0
2.264	0.0
2.279	0.0
2.294	0.0
2.308	2.0
2.323	0.0
2.338	0.0
2.353	1.0
2.368	0.0
2.382	1.0
2.397	0.0
2.412	1.0
2.427	5.0
2.442	2.0
2.456	0.0
2.471	0.0
2.486	2.0
2.501	3.0
2.515	2.0
2.53	1.0
2.545	4.0
2.56	3.0
2.575	2.0
2.589	2.0
2.604	0.0
2.619	1.0
2.634	2.0
2.649	3.0
2.663	0.0
2.678	3.0
2.693	4.0
2.708	2.0
2.722	2.0
2.737	1.0
2.752	6.0
2.767	6.0
2.782	1.0
2.796	6.0
2.811	3.0
2.826	2.0
2.841	3.0
2.856	3.0
2.87	4.0
2.885	3.0
2.9	4.0
2.915	5.0
2.93	0.0
2.944	3.0
2.959	2.0
2.974	1.0
2.989	3.0
3.004	3.0
3.018	1.0
3.033	3.0
3.048	5.0
3.063	3.0
3.078	4.0
3.092	6.0
3.107	7.0
3.122	3.0
3.137	5.0
3.152	3.0
3.166	3.0
3.181	3.0
3.196	6.0
3.211	4.0
3.226	1.0
3.24	5.0
3.255	6.0
3.27	7.0
3.285	1.0
3.3	6.0
3.315	4.0
3.329	7.0
3.344	4.0
3.359	3.0
3.374	3.0
3.389	3.0
3.403	2.0
3.418	6.0
3.433	6.0
3.448	3.0
3.463	5.0
3.478	7.0
3.492	3.0
3.507	2.0
3.522	5.0
3.537	2.0
3.552	5.0
3.567	6.0
3.581	7.0
3.596	4.0
3.611	7.0
3.626	6.0
3.641	6.0
3.656	8.0
3.671	6.0
3.685	6.0
3.7	7.0
3.715	6.0
3.73	4.0
3.745	1.0
3.76	5.0
3.775	3.0
3.789	5.0
3.804	10.0
3.819	7.0
3.834	2.0
3.849	6.0
3.864	6.0
3.879	6.0
3.894	5.0
3.908	2.0
3.923	4.0
3.938	5.0
3.953	4.0
3.968	10.0
3.983	4.0
3.998	12.0
4.013	4.0
4.027	8.0
4.042	3.0
4.057	4.0
4.072	3.0
4.087	8.0
4.102	6.0
4.117	5.0
4.132	7.0
4.147	3.0
4.162	3.0
4.176	10.0
4.191	3.0
4.206	3.0
4.221	4.0
4.236	7.0
4.251	5.0
4.266	6.0
4.281	8.0
4.296	3.0
4.311	8.0
4.326	6.0
4.341	3.0
4.356	7.0
4.37	10.0
4.385	7.0
4.4	10.0
4.415	7.0
4.43	9.0
4.445	9.0
4.46	7.0
4.475	7.0
4.49	9.0
4.505	6.0
4.52	5.0
4.535	6.0
4.55	4.0
4.565	5.0
4.58	4.0
4.595	12.0
4.61	7.0
4.625	9.0
4.639	5.0
4.654	7.0
4.669	11.0
4.684	7.0
4.699	9.0
4.714	7.0
4.729	7.0
4.744	9.0
4.759	7.0
4.774	4.0
4.789	8.0
4.804	8.0
4.819	10.0
4.834	9.0
4.849	8.0
4.864	9.0
4.879	8.0
4.894	8.0
4.909	8.0
4.924	6.0
4.939	14.0
4.954	12.0
4.969	6.0
4.984	9.0
4.999	7.0
5.014	6.0
5.029	6.0
5.044	12.0
5.059	7.0
5.074	2.0
5.089	8.0
5.104	4.0
5.119	4.0
5.134	10.0
5.149	7.0
5.164	4.0
5.179	4.0
5.194	16.0
5.209	5.0
5.224	9.0
5.239	9.0
5.254	5.0
5.269	14.0
5.284	7.0
5.299	8.0
5.314	12.0
5.329	6.0
5.344	10.0
5.359	5.0
5.374	9.0
5.389	10.0
5.404	8.0
5.419	9.0
5.434	7.0
5.449	9.0
5.464	7.0
5.479	15.0
5.494	10.0
5.509	7.0
5.524	8.0
5.539	2.0
5.554	6.0
5.569	13.0
5.584	12.0
5.599	12.0
5.614	12.0
5.629	6.0
5.644	10.0
5.659	10.0
5.674	10.0
5.689	12.0
5.704	11.0
5.719	4.0
5.734	8.0
5.749	6.0
5.764	4.0
5.779	6.0
5.794	8.0
5.809	6.0
5.824	6.0
5.839	5.0
5.854	11.0
5.869	8.0
5.884	8.0
5.899	12.0
5.914	4.0
5.929	9.0
5.944	11.0
5.959	9.0
5.974	10.0
5.989	9.0
6.004	11.0
6.019	8.0
6.034	13.0
6.049	5.0
6.064	6.0
6.079	8.0
6.094	11.0
6.109	12.0
6.124	5.0
6.139	7.0
6.154	13.0
6.169	8.0
6.184	7.0
6.199	7.0
6.214	8.0
6.229	3.0
6.244	10.0
6.259	13.0
6.274	10.0
6.289	10.0
6.304	14.0
6.319	2.0
6.334	8.0
6.349	7.0
6.364	6.0
6.379	11.0
6.394	8.0
6.409	5.0
6.424	13.0
6.439	10.0
6.454	7.0
6.469	12.0
6.484	6.0
6.499	13.0
6.514	13.0
6.529	4.0
6.544	11.0
6.559	10.0
6.574	12.0
6.589	8.0
6.604	6.0
6.619	9.0
6.634	5.0
6.649	10.0
6.664	10.0
6.679	7.0
6.694	10.0
6.709	11.0
6.724	13.0
6.739	15.0
6.754	14.0
6.769	8.0
6.784	12.0
6.799	8.0
6.814	9.0
6.829	7.0
6.844	14.0
6.859	14.0
6.873	9.0
6.888	15.0
6.903	9.0
6.918	12.0
6.933	10.0
6.948	7.0
6.963	8.0
6.978	5.0
6.993	4.0
7.008	4.0
7.023	10.0
7.038	11.0
7.053	6.0
7.068	6.0
7.083	6.0
7.098	7.0
7.113	9.0
7.128	11.0
7.143	11.0
7.157	12.0
7.172	7.0
7.187	7.0
7.202	4.0
7.217	7.0
7.232	17.0
7.247	12.0
7.262	10.0
7.277	6.0
7.292	11.0
7.307	9.0
7.322	12.0
7.336	5.0
7.351	8.0
7.366	8.0
7.381	11.0
7.396	6.0
7.411	12.0
7.426	8.0
7.441	7.0
7.456	4.0
7.471	3.0
7.485	6.0
7.5	9.0
7.515	8.0
7.53	8.0
7.545	9.0
7.56	6.0
7.575	12.0
7.59	10.0
7.604	13.0
7.619	9.0
7.634	10.0
7.649	3.0
7.664	6.0
7.679	7.0
7.693	10.0
7.708	8.0
7.723	7.0
7.738	12.0
7.753	6.0
7.768	6.0
7.783	10.0
7.797	10.0
7.812	11.0
7.827	5.0
7.842	11.0
7.857	4.0
7.871	8.0
7.886	14.0
7.901	5.0
7.916	9.0
7.931	10.0
7.945	15.0
7.96	6.0
7.975	6.0
7.99	9.0
8.005	11.0
8.019	6.0
8.034	9.0
8.049	7.0
8.064	14.0
8.078	12.0
8.093	11.0
8.108	7.0
8.123	12.0
8.137	8.0
8.152	13.0
8.167	10.0
8.182	5.0
8.196	11.0
8.211	12.0
8.226	9.0
8.241	8.0
8.255	6.0
8.27	12.0
8.285	17.0
8.3	6.0
8.314	11.0
8.329	6.0
8.344	5.0
8.358	10.0
8.373	6.0
8.388	4.0
8.403	9.0
8.417	8.0
8.432	12.0
8.447	4.0
8.461	9.0
8.476	3.0
8.491	8.0
8.505	9.0
8.52	14.0
8.535	10.0
8.55	6.0
8.564	6.0
8.579	6.0
8.594	13.0
8.608	7.0
8.623	11.0
8.638	3.0
8.652	7.0
8.667	6.0
8.682	12.0
8.696	13.0
8.711	8.0
8.726	10.0
8.74	12.0
8.755	9.0
8.77	6.0
8.784	6.0
8.799	10.0
8.814	9.0
8.828	9.0
8.843	8.0
8.858	7.0
8.872	6.0
8.887	9.0
8.902	9.0
8.916	2.0
8.931	10.0
8.946	10.0
8.96	14.0
8.975	5.0
8.99	9.0
9.004	7.0
9.019	6.0
9.034	7.0
9.048	9.0
9.063	10.0
9.077	2.0
9.092	4.0
9.107	11.0
9.121	8.0
9.136	11.0
9.151	6.0
9.165	13.0
9.18	7.0
9.195	8.0
9.209	3.0
9.224	11.0
9.239	10.0
9.253	8.0
9.268	7.0
9.283	13.0
9.297	10.0
9.312	7.0
9.327	7.0
9.341	5.0
9.356	10.0
9.371	13.0
9.385	10.0
9.4	8.0
9.415	7.0
9.429	8.0
9.444	6.0
9.458	9.0
9.473	12.0
9.488	6.0
9.502	5.0
9.517	7.0
9.532	12.0
9.546	6.0
9.561	12.0
9.576	12.0
9.59	6.0
9.605	8.0
9.62	13.0
9.635	2.0
9.649	3.0
9.664	11.0
9.679	8.0
9.693	9.0
9.708	7.0
9.723	11.0
9.737	13.0
9.752	3.0
9.767	10.0
9.781	4.0
9.796	11.0
9.811	5.0
9.825	13.0
9.84	4.0
9.855	8.0
9.87	5.0
9.884	7.0
9.899	8.0
9.914	10.0
9.928	9.0
9.943	7.0
9.958	11.0
9.973	8.0
9.987	5.0
10.002	4.0
10.017	7.0
10.031	7.0
10.046	8.0
10.061	6.0
10.076	14.0
10.09	12.0
10.105	8.0
10.12	8.0
10.135	7.0
10.149	11.0
10.164	9.0
10.179	3.0
10.194	7.0
10.208	7.0
10.223	6.0
10.238	10.0
10.253	10.0
10.267	6.0
10.282	10.0
10.297	5.0
10.312	8.0
10.326	8.0
10.341	12.0
10.356	7.0
10.371	7.0
10.386	5.0
10.4	10.0
10.415	8.0
10.43	5.0
10.445	8.0
10.46	8.0
10.474	16.0
10.489	11.0
10.504	7.0
10.519	8.0
10.533	9.0
10.548	7.0
10.563	7.0
10.578	4.0
10.593	13.0
10.608	9.0
10.622	4.0
10.637	6.0
10.652	6.0
10.667	9.0
10.682	6.0
10.696	6.0
10.711	5.0
10.726	13.0
10.741	4.0
10.756	11.0
10.771	4.0
10.785	8.0
10.8	8.0
10.815	9.0
10.83	5.0
10.845	4.0
10.86	11.0
10.874	8.0
10.889	9.0
10.904	7.0
10.919	10.0
10.934	9.0
10.949	6.0
10.963	8.0
10.978	3.0
10.993	8.0
11.008	5.0
11.023	6.0
11.038	11.0
11.053	5.0
11.067	8.0
11.082	15.0
11.097	10.0
11.112	8.0
11.127	9.0
11.142	7.0
11.157	6.0
11.172	11.0
11.186	5.0
11.201	8.0
11.216	5.0
11.231	6.0
11.246	5.0
11.261	11.0
11.276	10.0
11.291	6.0
11.305	7.0
11.32	14.0
11.335	7.0
11.35	11.0
11.365	9.0
11.38	6.0
11.395	14.0
11.41	6.0
11.424	6.0
11.439	8.0
11.454	8.0
11.469	5.0
11.484	4.0
11.499	6.0
11.514	6.0
11.529	6.0
11.544	11.0
11.558	9.0
11.573	9.0
11.588	4.0
11.603	5.0
11.618	7.0
11.633	7.0
11.648	6.0
11.663	9.0
11.678	5.0
11.693	15.0
11.707	5.0
11.722	6.0
11.737	6.0
11.752	8.0
11.767	9.0
11.782	9.0
11.797	12.0
11.812	6.0
11.827	16.0
11.842	7.0
11.856	12.0
11.871	8.0
11.886	7.0
11.901	9.0
11.916	13.0
11.931	7.0
11.946	12.0
11.961	6.0
11.976	6.0
11.991	8.0
12.006	10.0
12.02	6.0
12.035	12.0
12.05	14.0
12.065	14.0
12.08	5.0
12.095	8.0
12.11	6.0
12.125	17.0
12.14	8.0
12.155	7.0
12.17	10.0
12.184	10.0
12.199	7.0
12.214	12.0
12.229	21.0
12.244	8.0
12.259	8.0
12.274	13.0
12.289	14.0
12.304	14.0
12.319	10.0
12.334	11.0
12.348	13.0
12.363	12.0
12.378	9.0
12.393	9.0
12.408	16.0
12.423	13.0
12.438	12.0
12.453	13.0
12.468	13.0
12.483	11.0
12.498	17.0
12.513	11.0
12.527	20.0
12.542	19.0
12.557	10.0
12.572	10.0
12.587	12.0
12.602	9.0
12.617	7.0
12.632	11.0
12.647	10.0
12.662	15.0
12.677	12.0
12.692	18.0
12.707	18.0
12.721	11.0
12.736	20.0
12.751	5.0
12.766	14.0
12.781	11.0
12.796	22.0
12.811	5.0
12.826	11.0
12.841	15.0
12.856	19.0
12.871	15.0
12.886	11.0
12.9	16.0
12.915	15.0
12.93	13.0
12.945	20.0
12.96	17.0
12.975	16.0
12.99	17.0
13.005	16.0
13.02	15.0
13.035	15.0
13.05	16.0
13.065	21.0
13.08	14.0
13.094	14.0
13.109	22.0
13.124	19.0
13.139	14.0
13.154	17.0
13.169	15.0
13.184	14.0
13.199	12.0
13.214	12.0
13.229	23.0
13.244	11.0
13.259	16.0
13.274	23.0
13.288	14.0
13.303	22.0
13.318	25.0
13.333	24.0
13.348	17.0
13.363	28.0
13.378	21.0
13.393	31.0
13.408	26.0
13.423	32.0
13.438	22.0
13.453	28.0
13.468	28.0
13.482	36.0
13.497	35.0
13.512	29.0
13.527	31.0
13.542	48.0
13.557	53.0
13.572	43.0
13.587	52.0
13.602	64.0
13.617	75.0
13.632	83.0
13.647	74.0
13.662	63.0
13.677	74.0
13.691	91.0
13.706	100.0
13.721	99.0
13.736	101.0
13.751	119.0
13.766	117.0
13.781	109.0
13.796	110.0
13.811	122.0
13.826	155.0
13.841	125.0
13.856	103.0
13.871	130.0
13.885	101.0
13.9	93.0
13.915	81.0
13.93	72.0
13.945	63.0
13.96	52.0
13.975	47.0
13.99	37.0
14.005	27.0
14.02	27.0
14.035	25.0
14.05	24.0
14.065	20.0
14.08	22.0
14.094	31.0
14.109	31.0
14.124	23.0
14.139	14.0
14.154	17.0
14.169	24.0
14.184	15.0
14.199	29.0
14.214	23.0
14.229	20.0
14.244	24.0
14.259	17.0
14.274	19.0
14.288	23.0
14.303	21.0
14.318	21.0
14.333	24.0
14.348	22.0
14.363	21.0
14.378	18.0
14.393	16.0
14.408	20.0
14.423	15.0
14.438	20.0
14.453	14.0
14.468	18.0
14.482	18.0
14.497	20.0
14.512	20.0
14.527	14.0
14.542	8.0
14.557	16.0
14.572	15.0
14.587	19.0
14.602	15.0
14.617	18.0
14.632	9.0
14.647	15.0
14.661	18.0
14.676	16.0
14.691	21.0
14.706	13.0
14.721	14.0
14.736	20.0
14.751	12.0
14.766	13.0
14.781	13.0
14.796	22.0
14.811	20.0
14.826	7.0
14.84	6.0
14.855	14.0
14.87	16.0
14.885	22.0
14.9	20.0
14.915	15.0
14.93	14.0
14.945	11.0
14.96	10.0
14.975	18.0
14.989	11.0
15.004	16.0
15.019	14.0
15.034	20.0
15.049	17.0
15.064	12.0
15.079	13.0
15.094	17.0
15.109	20.0
15.124	20.0
15.138	23.0
15.153	12.0
15.168	20.0
15.183	10.0
15.198	14.0
15.213	17.0
15.228	21.0
15.243	24.0
15.258	12.0
15.272	11.0
15.287	13.0
15.302	12.0
15.317	14.0
15.332	18.0
15.347	18.0
15.362	9.0
15.377	17.0
15.391	14.0
15.406	15.0
15.421	12.0
15.436	22.0
15.451	20.0
15.466	14.0
15.481	14.0
15.496	11.0
15.51	10.0
15.525	14.0
15.54	9.0
15.555	18.0
15.57	17.0
15.585	12.0
15.6	11.0
15.614	17.0
15.629	9.0
15.644	13.0
15.659	13.0
15.674	13.0
15.689	19.0
15.704	16.0
15.718	17.0
15.733	13.0
15.748	20.0
15.763	22.0
15.778	16.0
15.793	15.0
15.808	18.0
15.822	21.0
15.837	11.0
15.852	11.0
15.867	14.0
15.882	13.0
15.897	10.0
15.911	13.0
15.926	12.0
15.941	11.0
15.956	13.0
15.971	7.0
15.986	9.0
16.0	17.0
16.015	10.0
16.03	17.0
16.045	13.0
16.06	11.0
16.074	15.0
16.089	11.0
16.104	13.0
16.119	16.0
16.134	19.0
16.149	13.0
16.163	17.0
16.178	11.0
16.193	21.0
16.208	13.0
16.223	8.0
16.237	15.0
16.252	14.0
16.267	12.0
16.282	20.0
16.297	15.0
16.311	12.0
16.326	20.0
16.341	16.0
16.356	8.0
16.37	11.0
16.385	11.0
16.4	15.0
16.415	11.0
16.43	19.0
16.444	12.0
16.459	20.0
16.474	20.0
16.489	18.0
16.504	11.0
16.518	17.0
16.533	19.0
16.548	9.0
16.563	22.0
16.577	14.0
16.592	15.0
16.607	11.0
16.622	16.0
16.637	19.0
16.651	32.0
16.666	20.0
16.681	29.0
16.696	31.0
16.71	14.0
16.725	27.0
16.74	22.0
16.755	25.0
16.77	44.0
16.784	29.0
16.799	36.0
16.814	43.0
16.829	39.0
16.843	40.0
16.858	53.0
16.873	58.0
16.888	61.0
16.902	59.0
16.917	65.0
16.932	68.0
16.947	64.0
16.961	70.0
16.976	71.0
16.991	74.0
17.006	57.0
17.021	52.0
17.035	56.0
17.05	55.0
17.065	42.0
17.08	44.0
17.094	38.0
17.109	30.0
17.124	30.0
17.139	18.0
17.153	14.0
17.168	15.0
17.183	15.0
17.198	12.0
17.212	20.0
17.227	20.0
17.242	11.0
17.257	17.0
17.271	17.0
17.286	10.0
17.301	18.0
17.316	8.0
17.33	19.0
17.345	18.0
17.36	9.0
17.375	18.0
17.39	10.0
17.404	11.0
17.419	24.0
17.434	12.0
17.449	19.0
17.463	17.0
17.478	17.0
17.493	11.0
17.508	14.0
17.522	14.0
17.537	19.0
17.552	10.0
17.567	16.0
17.581	12.0
17.596	13.0
17.611	15.0
17.626	13.0
17.641	13.0
17.655	13.0
17.67	13.0
17.685	12.0
17.7	11.0
17.714	8.0
17.729	8.0
17.744	8.0
17.759	14.0
17.773	12.0
17.788	14.0
17.803	13.0
17.818	7.0
17.833	6.0
17.847	10.0
17.862	9.0
17.877	13.0
17.892	12.0
17.906	14.0
17.921	8.0
17.936	26.0
17.951	13.0
17.966	15.0
17.98	9.0
17.995	15.0
18.01	8.0
18.025	15.0
18.04	6.0
18.054	6.0
18.069	12.0
18.084	13.0
18.099	11.0
18.114	7.0
18.128	11.0
18.143	11.0
18.158	10.0
18.173	10.0
18.188	16.0
18.202	20.0
18.217	8.0
18.232	9.0
18.247	12.0
18.262	15.0
18.276	11.0
18.291	8.0
18.306	7.0
18.321	13.0
18.336	9.0
18.35	11.0
18.365	8.0
18.38	12.0
18.395	11.0
18.41	5.0
18.424	12.0
18.439	11.0
18.454	8.0
18.469	9.0
18.484	14.0
18.498	7.0
18.513	10.0
18.528	14.0
18.543	9.0
18.558	11.0
18.573	14.0
18.587	10.0
18.602	14.0
18.617	12.0
18.632	12.0
18.647	14.0
18.661	11.0
18.676	12.0
18.691	13.0
18.706	9.0
18.721	13.0
18.736	16.0
18.75	9.0
18.765	16.0
18.78	19.0
18.795	11.0
18.81	18.0
18.825	12.0
18.839	12.0
18.854	11.0
18.869	9.0
18.884	7.0
18.899	9.0
18.913	10.0
18.928	13.0
18.943	9.0
18.958	8.0
18.973	10.0
18.988	9.0
19.002	9.0
19.017	7.0
19.032	18.0
19.047	8.0
19.062	13.0
19.077	15.0
19.091	13.0
19.106	10.0
19.121	12.0
19.136	10.0
19.151	12.0
19.165	14.0
19.18	10.0
19.195	11.0
19.21	15.0
19.225	15.0
19.24	13.0
19.254	12.0
19.269	16.0
19.284	10.0
19.299	16.0
19.314	13.0
19.329	10.0
19.343	8.0
19.358	20.0
19.373	19.0
19.388	10.0
19.403	11.0
19.417	20.0
19.432	12.0
19.447	19.0
19.462	24.0
19.477	30.0
19.492	25.0
19.506	29.0
19.521	27.0
19.536	35.0
19.551	39.0
19.566	35.0
19.58	40.0
19.595	41.0
19.61	36.0
19.625	40.0
19.64	33.0
19.655	42.0
19.669	24.0
19.684	30.0
19.699	27.0
19.714	37.0
19.729	30.0
19.743	22.0
19.758	34.0
19.773	17.0
19.788	20.0
19.803	17.0
19.817	15.0
19.832	18.0
19.847	18.0
19.862	12.0
19.877	11.0
19.891	11.0
19.906	20.0
19.921	10.0
19.936	10.0
19.951	9.0
19.965	13.0
19.98	14.0
19.995	10.0
20.01	6.0
20.025	13.0
20.039	16.0
20.054	10.0
20.069	16.0
20.084	13.0
20.099	5.0
20.113	9.0
20.128	9.0
20.143	6.0
20.158	9.0
20.173	12.0
20.187	5.0
20.202	15.0
20.217	18.0
20.232	5.0
20.246	10.0
20.261	13.0
20.276	15.0
20.291	9.0
20.306	10.0
20.32	11.0
20.335	19.0
20.35	8.0
20.365	13.0
20.38	12.0
20.394	15.0
20.409	8.0
20.424	8.0
20.439	8.0
20.453	7.0
20.468	4.0
20.483	3.0
20.498	9.0
20.513	4.0
20.527	18.0
20.542	15.0
20.557	8.0
20.572	8.0
20.586	4.0
20.601	6.0
20.616	13.0
20.631	12.0
20.646	7.0
20.66	10.0
20.675	5.0
20.69	12.0
20.705	11.0
20.719	16.0
20.734	14.0
20.749	9.0
20.764	7.0
20.779	11.0
20.793	9.0
20.808	11.0
20.823	15.0
20.838	9.0
20.853	9.0
20.867	13.0
20.882	9.0
20.897	11.0
20.912	11.0
20.926	4.0
20.941	10.0
20.956	22.0
20.971	14.0
20.986	15.0
21.0	9.0
21.015	7.0
21.03	15.0
21.045	13.0
21.06	12.0
21.074	10.0
21.089	7.0
21.104	19.0
21.119	8.0
21.134	10.0
21.148	14.0
21.163	10.0
21.178	9.0
21.193	9.0
21.208	14.0
21.222	16.0
21.237	9.0
21.252	12.0
21.267	12.0
21.282	8.0
21.296	11.0
21.311	11.0
21.326	9.0
21.341	8.0
21.356	14.0
21.37	17.0
21.385	14.0
21.4	10.0
21.415	14.0
21.43	14.0
21.444	10.0
21.459	14.0
21.474	12.0
21.489	14.0
21.504	13.0
21.519	10.0
21.533	11.0
21.548	12.0
21.563	16.0
21.578	17.0
21.593	19.0
21.608	11.0
21.622	18.0
21.637	8.0
21.652	12.0
21.667	22.0
21.682	13.0
21.697	23.0
21.712	20.0
21.726	19.0
21.741	29.0
21.756	30.0
21.771	34.0
21.786	19.0
21.801	42.0
21.816	33.0
21.83	43.0
21.845	57.0
21.86	51.0
21.875	50.0
21.89	76.0
21.905	67.0
21.92	67.0
21.935	76.0
21.949	56.0
21.964	79.0
21.979	84.0
21.994	81.0
22.009	67.0
22.024	47.0
22.039	53.0
22.054	53.0
22.069	46.0
22.083	45.0
22.098	49.0
22.113	47.0
22.128	40.0
22.143	31.0
22.158	27.0
22.173	24.0
22.188	15.0
22.203	13.0
22.218	18.0
22.233	10.0
22.248	14.0
22.262	12.0
22.277	12.0
22.292	14.0
22.307	16.0
22.322	15.0
22.337	15.0
22.352	11.0
22.367	16.0
22.382	12.0
22.397	17.0
22.412	13.0
22.427	6.0
22.442	14.0
22.457	10.0
22.472	19.0
22.487	17.0
22.502	10.0
22.516	13.0
22.531	8.0
22.546	10.0
22.561	15.0
22.576	14.0
22.591	12.0
22.606	10.0
22.621	12.0
22.636	7.0
22.651	13.0
22.666	9.0
22.681	7.0
22.696	12.0
22.711	5.0
22.726	7.0
22.741	11.0
22.756	13.0
22.771	9.0
22.786	15.0
22.801	7.0
22.816	12.0
22.831	13.0
22.846	10.0
22.861	4.0
22.876	7.0
22.891	6.0
22.906	11.0
22.92	12.0
22.935	9.0
22.95	10.0
22.965	10.0
22.98	11.0
22.995	17.0
23.01	5.0
23.025	6.0
23.04	2.0
23.055	10.0
23.07	10.0
23.085	9.0
23.1	7.0
23.115	10.0
23.13	13.0
23.145	8.0
23.16	15.0
23.175	11.0
23.19	4.0
23.205	11.0
23.22	5.0
23.235	14.0
23.25	9.0
23.265	8.0
23.28	14.0
23.295	10.0
23.31	7.0
23.325	9.0
23.34	13.0
23.355	5.0
23.37	11.0
23.384	9.0
23.399	12.0
23.414	10.0
23.429	9.0
23.444	13.0
23.459	8.0
23.474	11.0
23.489	7.0
23.504	10.0
23.519	9.0
23.534	11.0
23.549	16.0
23.564	14.0
23.579	8.0
23.594	15.0
23.609	9.0
23.624	10.0
23.639	15.0
23.654	12.0
23.668	11.0
23.683	19.0
23.698	4.0
23.713	8.0
23.728	7.0
23.743	10.0
23.758	11.0
23.773	10.0
23.788	8.0
23.803	18.0
23.818	22.0
23.833	16.0
23.848	14.0
23.862	15.0
23.877	19.0
23.892	16.0
23.907	20.0
23.922	31.0
23.937	28.0
23.952	23.0
23.967	26.0
23.982	28.0
23.997	30.0
24.011	31.0
24.026	48.0
24.041	42.0
24.056	53.0
24.071	47.0
24.086	48.0
24.101	46.0
24.116	51.0
24.131	44.0
24.145	43.0
24.16	41.0
24.175	42.0
24.19	31.0
24.205	30.0
24.22	42.0
24.235	19.0
24.249	28.0
24.264	34.0
24.279	25.0
24.294	26.0
24.309	25.0
24.324	23.0
24.338	12.0
24.353	15.0
24.368	10.0
24.383	15.0
24.398	14.0
24.413	13.0
24.428	11.0
24.442	10.0
24.457	18.0
24.472	16.0
24.487	9.0
24.502	12.0
24.516	12.0
24.531	12.0
24.546	16.0
24.561	13.0
24.576	11.0
24.591	11.0
24.605	5.0
24.62	13.0
24.635	13.0
24.65	8.0
24.665	9.0
24.679	9.0
24.694	13.0
24.709	12.0
24.724	10.0
24.739	14.0
24.753	7.0
24.768	5.0
24.783	11.0
24.798	12.0
24.813	5.0
24.827	13.0
24.842	14.0
24.857	14.0
24.872	10.0
24.886	7.0
24.901	10.0
24.916	8.0
24.931	12.0
24.946	9.0
24.96	13.0
24.975	12.0
24.99	16.0
25.005	8.0
25.019	12.0
25.034	5.0
25.049	7.0
25.064	6.0
25.078	14.0
25.093	14.0
25.108	6.0
25.123	7.0
25.138	6.0
25.152	12.0
25.167	5.0
25.182	18.0
25.197	7.0
25.211	7.0
25.226	16.0
25.241	14.0
25.256	20.0
25.27	12.0
25.285	8.0
25.3	8.0
25.315	9.0
25.329	12.0
25.344	11.0
25.359	5.0
25.374	11.0
25.388	11.0
25.403	14.0
25.418	7.0
25.433	10.0
25.447	4.0
25.462	7.0
25.477	9.0
25.492	10.0
25.506	8.0
25.521	7.0
25.536	10.0
25.55	4.0
25.565	3.0
25.58	6.0
25.595	8.0
25.609	13.0
25.624	7.0
25.639	8.0
25.654	13.0
25.668	10.0
25.683	12.0
25.698	7.0
25.713	10.0
25.727	4.0
25.742	8.0
25.757	11.0
25.772	10.0
25.786	5.0
25.801	6.0
25.816	10.0
25.83	10.0
25.845	8.0
25.86	4.0
25.875	10.0
25.889	5.0
25.904	8.0
25.919	7.0
25.934	13.0
25.948	13.0
25.963	16.0
25.978	10.0
25.992	12.0
26.007	7.0
26.022	8.0
26.037	14.0
26.051	12.0
26.066	11.0
26.081	13.0
26.096	6.0
26.11	10.0
26.125	10.0
26.14	12.0
26.155	8.0
26.169	10.0
26.184	10.0
26.199	17.0
26.213	8.0
26.228	14.0
26.243	7.0
26.258	4.0
26.272	12.0
26.287	13.0
26.302	12.0
26.317	13.0
26.331	10.0
26.346	6.0
26.361	11.0
26.376	10.0
26.39	10.0
26.405	10.0
26.42	7.0
26.434	7.0
26.449	8.0
26.464	7.0
26.479	12.0
26.493	9.0
26.508	10.0
26.523	14.0
26.538	9.0
26.552	9.0
26.567	7.0
26.582	9.0
26.597	8.0
26.611	7.0
26.626	5.0
26.641	13.0
26.656	13.0
26.67	8.0
26.685	14.0
26.7	7.0
26.715	9.0
26.729	8.0
26.744	13.0
26.759	7.0
26.773	10.0
26.788	8.0
26.803	6.0
26.818	14.0
26.832	11.0
26.847	9.0
26.862	12.0
26.877	8.0
26.891	12.0
26.906	4.0
26.921	16.0
26.936	3.0
26.95	11.0
26.965	11.0
26.98	7.0
26.995	10.0
27.01	5.0
27.024	9.0
27.039	10.0
27.054	15.0
27.069	11.0
27.083	6.0
27.098	8.0
27.113	8.0
27.128	17.0
27.142	14.0
27.157	4.0
27.172	8.0
27.187	11.0
27.201	9.0
27.216	9.0
27.231	6.0
27.246	10.0
27.261	14.0
27.275	6.0
27.29	9.0
27.305	9.0
27.32	10.0
27.334	9.0
27.349	14.0
27.364	8.0
27.379	6.0
27.394	10.0
27.408	12.0
27.423	6.0
27.438	9.0
27.453	10.0
27.467	10.0
27.482	10.0
27.497	12.0
27.512	11.0
27.527	13.0
27.541	14.0
27.556	9.0
27.571	8.0
27.586	10.0
27.601	9.0
27.615	9.0
27.63	9.0
27.645	10.0
27.66	10.0
27.675	18.0
27.689	12.0
27.704	13.0
27.719	15.0
27.734	11.0
27.749	22.0
27.763	21.0
27.778	15.0
27.793	14.0
27.808	14.0
27.823	26.0
27.838	27.0
27.852	22.0
27.867	23.0
27.882	36.0
27.897	30.0
27.912	25.0
27.926	19.0
27.941	17.0
27.956	21.0
27.971	14.0
27.986	16.0
28.001	18.0
28.015	21.0
28.03	16.0
28.045	15.0
28.06	17.0
28.075	14.0
28.09	16.0
28.105	16.0
28.119	18.0
28.134	7.0
28.149	20.0
28.164	9.0
28.179	9.0
28.194	6.0
28.208	10.0
28.223	13.0
28.238	14.0
28.253	12.0
28.268	14.0
28.283	10.0
28.298	8.0
28.312	13.0
28.327	15.0
28.342	12.0
28.357	9.0
28.372	11.0
28.387	6.0
28.402	15.0
28.417	12.0
28.431	7.0
28.446	6.0
28.461	18.0
28.476	12.0
28.491	4.0
28.506	16.0
28.521	11.0
28.536	7.0
28.55	8.0
28.565	7.0
28.58	10.0
28.595	10.0
28.61	7.0
28.625	11.0
28.64	11.0
28.655	10.0
28.669	4.0
28.684	14.0
28.699	12.0
28.714	10.0
28.729	9.0
28.744	14.0
28.759	14.0
28.774	17.0
28.788	14.0
28.803	3.0
28.818	11.0
28.833	13.0
28.848	5.0
28.863	11.0
28.878	10.0
28.893	12.0
28.908	10.0
28.922	8.0
28.937	11.0
28.952	10.0
28.967	10.0
28.982	13.0
28.997	9.0
29.012	10.0
29.027	13.0
29.041	6.0
29.056	11.0
29.071	7.0
29.086	10.0
29.101	12.0
29.116	10.0
29.131	10.0
29.146	17.0
29.16	11.0
29.175	20.0
29.19	9.0
29.205	16.0
29.22	14.0
29.235	12.0
29.25	19.0
29.265	16.0
29.279	7.0
29.294	11.0
29.309	11.0
29.324	11.0
29.339	13.0
29.354	18.0
29.369	14.0
29.384	10.0
29.398	20.0
29.413	20.0
29.428	20.0
29.443	18.0
29.458	23.0
29.473	28.0
29.488	33.0
29.502	34.0
29.517	27.0
29.532	33.0
29.547	47.0
29.562	46.0
29.577	48.0
29.592	52.0
29.606	39.0
29.621	52.0
29.636	53.0
29.651	45.0
29.666	42.0
29.681	47.0
29.695	42.0
29.71	35.0
29.725	26.0
29.74	32.0
29.755	22.0
29.77	42.0
29.784	27.0
29.799	38.0
29.814	32.0
29.829	25.0
29.844	28.0
29.859	21.0
29.873	28.0
29.888	20.0
29.903	17.0
29.918	14.0
29.933	7.0
29.947	14.0
29.962	14.0
29.977	14.0
29.992	11.0
30.007	9.0
30.021	10.0
30.036	12.0
30.051	9.0
30.066	17.0
30.081	13.0
30.095	5.0
30.11	10.0
30.125	10.0
30.14	5.0
30.155	6.0
30.169	4.0
30.184	9.0
30.199	9.0
30.214	7.0
30.228	7.0
30.243	13.0
30.258	8.0
30.273	14.0
30.288	7.0
30.302	13.0
30.317	7.0
30.332	11.0
30.347	15.0
30.361	12.0
30.376	10.0
30.391	6.0
30.406	12.0
30.42	10.0
30.435	14.0
30.45	17.0
30.465	13.0
30.479	6.0
30.494	10.0
30.509	6.0
30.524	7.0
30.538	12.0
30.553	10.0
30.568	7.0
30.583	16.0
30.597	10.0
30.612	8.0
30.627	4.0
30.641	11.0
30.656	14.0
30.671	8.0
30.686	10.0
30.7	17.0
30.715	13.0
30.73	8.0
30.745	11.0
30.759	17.0
30.774	5.0
30.789	12.0
30.803	15.0
30.818	14.0
30.833	7.0
30.848	8.0
30.862	13.0
30.877	7.0
30.892	16.0
30.906	15.0
30.921	5.0
30.936	17.0
30.951	11.0
30.965	6.0
30.98	14.0
30.995	10.0
31.009	10.0
31.024	14.0
31.039	13.0
31.053	13.0
31.068	12.0
31.083	14.0
31.098	21.0
31.112	18.0
31.127	22.0
31.142	25.0
31.156	23.0
31.171	18.0
31.186	20.0
31.2	28.0
31.215	36.0
31.23	40.0
31.245	37.0
31.259	35.0
31.274	40.0
31.289	36.0
31.303	45.0
31.318	34.0
31.333	30.0
31.347	26.0
31.362	26.0
31.377	32.0
31.392	35.0
31.406	22.0
31.421	31.0
31.436	27.0
31.45	33.0
31.465	22.0
31.48	18.0
31.494	22.0
31.509	16.0
31.524	19.0
31.538	12.0
31.553	17.0
31.568	20.0
31.583	13.0
31.597	6.0
31.612	16.0
31.627	12.0
31.641	7.0
31.656	8.0
31.671	14.0
31.685	11.0
31.7	10.0
31.715	8.0
31.729	10.0
31.744	8.0
31.759	6.0
31.774	10.0
31.788	9.0
31.803	8.0
31.818	8.0
31.832	8.0
31.847	13.0
31.862	10.0
31.876	12.0
31.891	9.0
31.906	15.0
31.92	7.0
31.935	11.0
31.95	12.0
31.965	11.0
31.979	10.0
31.994	9.0
32.009	8.0
32.023	12.0
32.038	11.0
32.053	8.0
32.067	13.0
32.082	8.0
32.097	12.0
32.112	6.0
32.126	14.0
32.141	12.0
32.156	8.0
32.17	10.0
32.185	5.0
32.2	10.0
32.214	14.0
32.229	17.0
32.244	9.0
32.259	8.0
32.273	5.0
32.288	10.0
32.303	8.0
32.317	8.0
32.332	11.0
32.347	10.0
32.362	14.0
32.376	16.0
32.391	16.0
32.406	9.0
32.42	18.0
32.435	13.0
32.45	7.0
32.465	11.0
32.479	11.0
32.494	11.0
32.509	8.0
32.523	14.0
32.538	11.0
32.553	12.0
32.568	11.0
32.582	8.0
32.597	12.0
32.612	14.0
32.627	14.0
32.641	14.0
32.656	8.0
32.671	12.0
32.685	19.0
32.7	18.0
32.715	13.0
32.73	17.0
32.744	27.0
32.759	25.0
32.774	27.0
32.788	25.0
32.803	17.0
32.818	35.0
32.833	32.0
32.847	43.0
32.862	18.0
32.877	22.0
32.892	18.0
32.906	28.0
32.921	20.0
32.936	22.0
32.951	26.0
32.965	17.0
32.98	16.0
32.995	14.0
33.009	21.0
33.024	14.0
33.039	29.0
33.054	17.0
33.068	16.0
33.083	21.0
33.098	21.0
33.113	12.0
33.127	12.0
33.142	11.0
33.157	9.0
33.172	8.0
33.186	11.0
33.201	9.0
33.216	7.0
33.231	12.0
33.245	8.0
33.26	6.0
33.275	12.0
33.29	6.0
33.304	12.0
33.319	6.0
33.334	9.0
33.349	10.0
33.363	10.0
33.378	10.0
33.393	16.0
33.408	9.0
33.422	11.0
33.437	12.0
33.452	14.0
33.467	7.0
33.481	6.0
33.496	11.0
33.511	7.0
33.526	9.0
33.54	4.0
33.555	11.0
33.57	8.0
33.585	10.0
33.599	11.0
33.614	14.0
33.629	15.0
33.644	7.0
33.658	9.0
33.673	6.0
33.688	7.0
33.703	11.0
33.718	9.0
33.732	8.0
33.747	16.0
33.762	2.0
33.777	7.0
33.791	11.0
33.806	6.0
33.821	3.0
33.836	7.0
33.85	7.0
33.865	10.0
33.88	11.0
33.895	9.0
33.91	13.0
33.924	8.0
33.939	11.0
33.954	13.0
33.969	12.0
33.983	10.0
33.998	11.0
34.013	8.0
34.028	15.0
34.042	12.0
34.057	10.0
34.072	6.0
34.087	9.0
34.102	10.0
34.116	15.0
34.131	12.0
34.146	4.0
34.161	12.0
34.175	19.0
34.19	13.0
34.205	12.0
34.22	18.0
34.235	10.0
34.249	10.0
34.264	16.0
34.279	12.0
34.294	9.0
34.309	8.0
34.323	7.0
34.338	19.0
34.353	14.0
34.368	17.0
34.382	13.0
34.397	13.0
34.412	19.0
34.427	15.0
34.442	14.0
34.456	10.0
34.471	10.0
34.486	11.0
34.501	11.0
34.516	9.0
34.53	12.0
34.545	8.0
34.56	6.0
34.575	15.0
34.59	11.0
34.604	7.0
34.619	7.0
34.634	14.0
34.649	12.0
34.664	9.0
34.678	10.0
34.693	5.0
34.708	17.0
34.723	7.0
34.738	18.0
34.752	6.0
34.767	6.0
34.782	12.0
34.797	6.0
34.812	4.0
34.826	11.0
34.841	4.0
34.856	10.0
34.871	9.0
34.886	12.0
34.9	5.0
34.915	7.0
34.93	10.0
34.945	9.0
34.96	7.0
34.974	8.0
34.989	9.0
35.004	11.0
35.019	14.0
35.034	11.0
35.048	11.0
35.063	8.0
35.078	6.0
35.093	11.0
35.108	7.0
35.122	7.0
35.137	8.0
35.152	11.0
35.167	11.0
35.182	6.0
35.196	9.0
35.211	11.0
35.226	6.0
35.241	8.0
35.256	10.0
35.27	18.0
35.285	8.0
35.3	10.0
35.315	9.0
35.33	6.0
35.344	16.0
35.359	8.0
35.374	6.0
35.389	23.0
35.404	11.0
35.418	10.0
35.433	6.0
35.448	7.0
35.463	13.0
35.478	14.0
35.493	10.0
35.507	9.0
35.522	6.0
35.537	4.0
35.552	11.0
35.567	11.0
35.581	10.0
35.596	12.0
35.611	15.0
35.626	14.0
35.641	11.0
35.655	9.0
35.67	9.0
35.685	12.0
35.7	17.0
35.715	14.0
35.729	20.0
35.744	17.0
35.759	26.0
35.774	21.0
35.789	18.0
35.804	21.0
35.818	20.0
35.833	13.0
35.848	23.0
35.863	24.0
35.878	21.0
35.892	10.0
35.907	13.0
35.922	13.0
35.937	11.0
35.952	19.0
35.966	15.0
35.981	22.0
35.996	12.0
36.011	13.0
36.026	8.0
36.04	8.0
36.055	12.0
36.07	18.0
36.085	13.0
36.1	5.0
36.114	12.0
36.129	10.0
36.144	13.0
36.159	3.0
36.174	9.0
36.189	13.0
36.203	5.0
36.218	5.0
36.233	4.0
36.248	5.0
36.263	11.0
36.277	8.0
36.292	9.0
36.307	11.0
36.322	2.0
36.337	8.0
36.351	12.0
36.366	12.0
36.381	10.0
36.396	7.0
36.411	9.0
36.426	8.0
36.44	7.0
36.455	11.0
36.47	5.0
36.485	12.0
36.5	6.0
36.514	7.0
36.529	7.0
36.544	5.0
36.559	9.0
36.574	3.0
36.589	9.0
36.603	11.0
36.618	6.0
36.633	6.0
36.648	11.0
36.663	9.0
36.677	8.0
36.692	6.0
36.707	8.0
36.722	14.0
36.737	6.0
36.752	11.0
36.766	7.0
36.781	5.0
36.796	4.0
36.811	6.0
36.826	8.0
36.841	11.0
36.855	7.0
36.87	6.0
36.885	11.0
36.9	6.0
36.915	5.0
36.93	13.0
36.944	6.0
36.959	7.0
36.974	9.0
36.989	11.0
37.004	10.0
37.019	14.0
37.033	8.0
37.048	18.0
37.063	19.0
37.078	20.0
37.093	22.0
37.108	23.0
37.123	25.0
37.137	31.0
37.152	25.0
37.167	28.0
37.182	27.0
37.197	39.0
37.212	39.0
37.226	30.0
37.241	33.0
37.256	26.0
37.271	21.0
37.286	20.0
37.301	17.0
37.316	14.0
37.331	14.0
37.345	25.0
37.36	19.0
37.375	21.0
37.39	18.0
37.405	14.0
37.42	17.0
37.435	15.0
37.45	13.0
37.464	14.0
37.479	10.0
37.494	9.0
37.509	9.0
37.524	8.0
37.539	6.0
37.554	7.0
37.569	12.0
37.583	11.0
37.598	9.0
37.613	3.0
37.628	1.0
37.643	15.0
37.658	8.0
37.673	5.0
37.688	8.0
37.703	4.0
37.718	11.0
37.733	6.0
37.747	6.0
37.762	9.0
37.777	5.0
37.792	11.0
37.807	7.0
37.822	10.0
37.837	3.0
37.852	6.0
37.867	4.0
37.882	5.0
37.897	2.0
37.912	5.0
37.927	13.0
37.941	6.0
37.956	8.0
37.971	8.0
37.986	4.0
38.001	9.0
38.016	12.0
38.031	3.0
38.046	6.0
38.061	3.0
38.076	8.0
38.091	8.0
38.106	5.0
38.121	6.0
38.136	6.0
38.151	5.0
38.166	11.0
38.181	10.0
38.196	8.0
38.211	9.0
38.226	2.0
38.241	6.0
38.256	3.0
38.271	6.0
38.285	3.0
38.3	3.0
38.315	5.0
38.33	10.0
38.345	5.0
38.36	8.0
38.375	6.0
38.39	13.0
38.405	7.0
38.42	14.0
38.435	6.0
38.45	8.0
38.465	3.0
38.48	3.0
38.495	6.0
38.51	7.0
38.525	14.0
38.54	5.0
38.555	9.0
38.57	7.0
38.585	3.0
38.6	4.0
38.615	2.0
38.63	6.0
38.645	9.0
38.66	4.0
38.675	9.0
38.69	2.0
38.705	6.0
38.72	7.0
38.735	5.0
38.75	13.0
38.765	7.0
38.78	2.0
38.795	2.0
38.81	3.0
38.825	6.0
38.84	9.0
38.855	7.0
38.87	5.0
38.885	5.0
38.9	6.0
38.915	4.0
38.93	7.0
38.945	6.0
38.96	8.0
38.975	7.0
38.99	7.0
39.005	6.0
39.02	8.0
39.035	7.0
39.05	5.0
39.065	9.0
39.08	3.0
39.095	9.0
39.11	5.0
39.125	4.0
39.14	8.0
39.155	5.0
39.17	4.0
39.185	7.0
39.2	7.0
39.215	9.0
39.23	7.0
39.245	11.0
39.26	5.0
39.275	3.0
39.29	8.0
39.305	5.0
39.32	1.0
39.335	8.0
39.35	1.0
39.365	2.0
39.38	6.0
39.395	5.0
39.409	7.0
39.424	6.0
39.439	6.0
39.454	11.0
39.469	10.0
39.484	5.0
39.499	6.0
39.514	3.0
39.529	4.0
39.544	4.0
39.559	8.0
39.574	2.0
39.589	6.0
39.604	7.0
39.619	8.0
39.634	8.0
39.649	6.0
39.664	5.0
39.678	4.0
39.693	3.0
39.708	7.0
39.723	6.0
39.738	9.0
39.753	3.0
39.768	11.0
39.783	11.0
39.798	9.0
39.813	9.0
39.827	8.0
39.842	11.0
39.857	7.0
39.872	10.0
39.887	17.0
39.902	6.0
39.917	5.0
39.932	4.0
39.947	9.0
39.961	6.0
39.976	6.0
39.991	5.0
40.006	10.0
40.021	5.0
40.036	7.0
40.051	9.0
40.065	4.0
40.08	3.0
40.095	7.0
40.11	7.0
40.125	9.0
40.14	8.0
40.154	6.0
40.169	7.0
40.184	3.0
40.199	5.0
40.214	4.0
40.228	8.0
40.243	8.0
40.258	3.0
40.273	4.0
40.288	5.0
40.302	2.0
40.317	8.0
40.332	2.0
40.347	3.0
40.362	5.0
40.376	5.0
40.391	7.0
40.406	3.0
40.421	4.0
40.436	4.0
40.45	9.0
40.465	1.0
40.48	3.0
40.495	8.0
40.509	5.0
40.524	5.0
40.539	8.0
40.554	5.0
40.568	7.0
40.583	3.0
40.598	7.0
40.613	5.0
40.627	7.0
40.642	6.0
40.657	4.0
40.672	7.0
40.686	5.0
40.701	5.0
40.716	11.0
40.731	6.0
40.745	7.0
40.76	4.0
40.775	2.0
40.79	5.0
40.804	7.0
40.819	5.0
40.834	7.0
40.849	5.0
40.863	6.0
40.878	5.0
40.893	5.0
40.907	5.0
40.922	7.0
40.937	5.0
40.952	12.0
40.966	5.0
40.981	10.0
40.996	10.0
41.011	8.0
41.025	12.0
41.04	10.0
41.055	10.0
41.069	19.0
41.084	11.0
41.099	15.0
41.114	17.0
41.128	17.0
41.143	22.0
41.158	29.0
41.173	23.0
41.187	16.0
41.202	23.0
41.217	11.0
41.231	12.0
41.246	12.0
41.261	8.0
41.276	11.0
41.29	9.0
41.305	15.0
41.32	11.0
41.335	11.0
41.349	16.0
41.364	11.0
41.379	18.0
41.393	21.0
41.408	11.0
41.423	16.0
41.438	13.0
41.452	13.0
41.467	6.0
41.482	8.0
41.497	9.0
41.511	7.0
41.526	13.0
41.541	6.0
41.556	7.0
41.57	12.0
41.585	8.0
41.6	7.0
41.615	7.0
41.629	4.0
41.644	7.0
41.659	6.0
41.674	7.0
41.688	7.0
41.703	3.0
41.718	10.0
41.733	5.0
41.747	4.0
41.762	11.0
41.777	5.0
41.792	1.0
41.806	4.0
41.821	8.0
41.836	7.0
41.851	5.0
41.866	7.0
41.88	9.0
41.895	8.0
41.91	3.0
41.925	3.0
41.939	4.0
41.954	5.0
41.969	8.0
41.984	5.0
41.999	4.0
42.013	10.0
42.028	5.0
42.043	8.0
42.058	6.0
42.073	6.0
42.088	9.0
42.102	8.0
42.117	6.0
42.132	3.0
42.147	8.0
42.162	6.0
42.176	4.0
42.191	5.0
42.206	6.0
42.221	8.0
42.236	8.0
42.251	8.0
42.266	7.0
42.28	4.0
42.295	8.0
42.31	13.0
42.325	18.0
42.34	12.0
42.355	21.0
42.369	18.0
42.384	12.0
42.399	11.0
42.414	18.0
42.429	19.0
42.444	14.0
42.459	16.0
42.474	14.0
42.488	15.0
42.503	5.0
42.518	5.0
42.533	14.0
42.548	8.0
42.563	5.0
42.578	11.0
42.593	13.0
42.608	7.0
42.622	10.0
42.637	11.0
42.652	9.0
42.667	14.0
42.682	12.0
42.697	12.0
42.712	13.0
42.727	13.0
42.742	7.0
42.757	8.0
42.772	5.0
42.786	5.0
42.801	10.0
42.816	6.0
42.831	7.0
42.846	5.0
42.861	3.0
42.876	8.0
42.891	3.0
42.906	3.0
42.921	7.0
42.936	7.0
42.951	5.0
42.966	7.0
42.981	8.0
42.996	6.0
43.011	8.0
43.025	8.0
43.04	10.0
43.055	5.0
43.07	5.0
43.085	7.0
43.1	4.0
43.115	5.0
43.13	1.0
43.145	6.0
43.16	12.0
43.175	5.0
43.19	4.0
43.205	8.0
43.22	1.0
43.235	5.0
43.25	6.0
43.265	3.0
43.28	5.0
43.295	8.0
43.31	9.0
43.325	5.0
43.34	3.0
43.355	6.0
43.37	1.0
43.385	8.0
43.4	7.0
43.415	6.0
43.43	9.0
43.445	7.0
43.46	8.0
43.475	6.0
43.49	10.0
43.505	3.0
43.52	7.0
43.535	8.0
43.55	7.0
43.565	10.0
43.58	10.0
43.595	9.0
43.61	11.0
43.625	11.0
43.64	13.0
43.655	9.0
43.67	11.0
43.685	8.0
43.7	8.0
43.715	6.0
43.73	6.0
43.745	7.0
43.76	1.0
43.775	4.0
43.79	11.0
43.805	7.0
43.82	9.0
43.835	6.0
43.85	13.0
43.865	12.0
43.88	7.0
43.895	5.0
43.91	6.0
43.925	7.0
43.94	1.0
43.955	6.0
43.97	5.0
43.985	5.0
44.0	3.0
44.015	5.0
44.03	6.0
44.045	3.0
44.061	4.0
44.076	6.0
44.091	4.0
44.106	4.0
44.121	5.0
44.136	5.0
44.151	5.0
44.166	5.0
44.181	5.0
44.196	8.0
44.211	7.0
44.226	7.0
44.241	5.0
44.256	6.0
44.271	7.0
44.286	5.0
44.301	1.0
44.316	3.0
44.331	5.0
44.346	5.0
44.361	2.0
44.377	7.0
44.392	4.0
44.407	8.0
44.422	6.0
44.437	7.0
44.452	6.0
44.467	8.0
44.482	4.0
44.497	7.0
44.512	5.0
44.527	6.0
44.542	4.0
44.557	6.0
44.572	6.0
44.587	5.0
44.602	6.0
44.617	4.0
44.632	6.0
44.647	6.0
44.663	8.0
44.678	6.0
44.693	7.0
44.708	12.0
44.723	7.0
44.738	8.0
44.753	11.0
44.768	10.0
44.783	8.0
44.798	12.0
44.813	13.0
44.828	10.0
44.843	7.0
44.858	7.0
44.873	9.0
44.888	11.0
44.903	12.0
44.918	10.0
44.933	4.0
44.948	5.0
44.964	7.0
44.979	7.0
44.994	5.0
45.009	2.0
45.024	12.0
45.039	10.0
45.054	12.0
45.069	8.0
45.084	10.0
45.099	11.0
45.114	7.0
45.129	8.0
45.144	3.0
45.159	5.0
45.174	7.0
45.189	13.0
45.204	3.0
45.219	6.0
45.234	5.0
45.249	3.0
45.264	4.0
45.279	4.0
45.294	7.0
45.309	8.0
45.324	4.0
45.339	3.0
45.354	4.0
45.369	2.0
45.384	5.0
45.399	4.0
45.414	2.0
45.429	2.0
45.444	4.0
45.459	6.0
45.474	6.0
45.489	3.0
45.504	7.0
45.519	3.0
45.534	3.0
45.549	8.0
45.564	5.0
45.579	4.0
45.594	7.0
45.609	7.0
45.624	8.0
45.639	7.0
45.654	6.0
45.669	4.0
45.684	6.0
45.699	4.0
45.714	6.0
45.729	4.0
45.744	5.0
45.759	3.0
45.774	6.0
45.789	2.0
45.804	5.0
45.819	8.0
45.834	7.0
45.849	3.0
45.864	5.0
45.879	5.0
45.894	10.0
45.909	10.0
45.924	13.0
45.939	7.0
45.954	11.0
45.969	13.0
45.984	23.0
45.998	21.0
46.013	16.0
46.028	15.0
46.043	12.0
46.058	14.0
46.073	8.0
46.088	5.0
46.103	12.0
46.118	7.0
46.133	5.0
46.148	3.0
46.163	6.0
46.178	6.0
46.192	17.0
46.207	8.0
46.222	16.0
46.237	13.0
46.252	10.0
46.267	12.0
46.282	6.0
46.297	12.0
46.312	13.0
46.327	13.0
46.341	9.0
46.356	9.0
46.371	4.0
46.386	6.0
46.401	8.0
46.416	7.0
46.431	4.0
46.446	8.0
46.46	8.0
46.475	4.0
46.49	4.0
46.505	4.0
46.52	3.0
46.535	3.0
46.55	6.0
46.564	3.0
46.579	2.0
46.594	9.0
46.609	5.0
46.624	1.0
46.639	2.0
46.654	3.0
46.668	4.0
46.683	5.0
46.698	3.0
46.713	4.0
46.728	9.0
46.743	4.0
46.758	4.0
46.772	5.0
46.787	3.0
46.802	8.0
46.817	4.0
46.832	6.0
46.847	4.0
46.861	10.0
46.876	5.0
46.891	7.0
46.906	6.0
46.921	7.0
46.936	4.0
46.95	6.0
46.965	9.0
46.98	4.0
46.995	7.0
47.01	5.0
47.025	7.0
47.039	12.0
47.054	6.0
47.069	7.0
47.084	7.0
47.099	13.0
47.113	10.0
47.128	7.0
47.143	6.0
47.158	6.0
47.173	11.0
47.188	8.0
47.202	6.0
47.217	6.0
47.232	7.0
47.247	4.0
47.262	6.0
47.277	3.0
47.291	6.0
47.306	3.0
47.321	3.0
47.336	9.0
47.351	4.0
47.365	6.0
47.38	9.0
47.395	5.0
47.41	6.0
47.425	6.0
47.44	5.0
47.454	6.0
47.469	9.0
47.484	5.0
47.499	10.0
47.514	7.0
47.528	3.0
47.543	3.0
47.558	8.0
47.573	11.0
47.588	5.0
47.603	5.0
47.617	2.0
47.632	4.0
47.647	2.0
47.662	5.0
47.677	6.0
47.691	3.0
47.706	6.0
47.721	1.0
47.736	3.0
47.751	2.0
47.766	3.0
47.78	3.0
47.795	6.0
47.81	4.0
47.825	9.0
47.84	6.0
47.855	6.0
47.869	4.0
47.884	3.0
47.899	3.0
47.914	5.0
47.929	4.0
47.944	2.0
47.958	7.0
47.973	4.0
47.988	5.0
48.003	7.0
48.018	9.0
48.033	5.0
48.047	4.0
48.062	6.0
48.077	3.0
48.092	9.0
48.107	3.0
48.122	1.0
48.137	6.0
48.151	5.0
48.166	7.0
48.181	9.0
48.196	3.0
48.211	5.0
48.226	4.0
48.241	3.0
48.255	4.0
48.27	4.0
48.285	4.0
48.3	4.0
48.315	4.0
48.33	10.0
48.345	3.0
48.359	3.0
48.374	3.0
48.389	4.0
48.404	3.0
48.419	6.0
48.434	3.0
48.449	3.0
48.464	6.0
48.478	3.0
48.493	2.0
48.508	1.0
48.523	4.0
48.538	5.0
48.553	5.0
48.568	5.0
48.583	7.0
48.597	7.0
48.612	4.0
48.627	4.0
48.642	3.0
48.657	1.0
48.672	4.0
48.687	2.0
48.702	5.0
48.717	5.0
48.731	4.0
48.746	7.0
48.761	8.0
48.776	2.0
48.791	5.0
48.806	2.0
48.821	5.0
48.836	6.0
48.851	4.0
48.866	1.0
48.88	3.0
48.895	6.0
48.91	5.0
48.925	5.0
48.94	8.0
48.955	8.0
48.97	3.0
48.985	1.0
49.0	3.0
49.015	3.0
49.03	4.0
49.044	6.0
49.059	4.0
49.074	7.0
49.089	3.0
49.104	7.0
49.119	5.0
49.134	1.0
49.149	3.0
49.164	4.0
49.179	4.0
49.194	6.0
49.209	7.0
49.224	6.0
49.238	9.0
49.253	4.0
49.268	7.0
49.283	8.0
49.298	7.0
49.313	5.0
49.328	5.0
49.343	5.0
49.358	4.0
49.373	8.0
49.388	6.0
49.403	4.0
49.418	6.0
49.433	12.0
49.448	7.0
49.463	6.0
49.478	7.0
49.492	3.0
49.507	5.0
49.522	6.0
49.537	1.0
49.552	6.0
49.567	11.0
49.582	3.0
49.597	7.0
49.612	5.0
49.627	9.0
49.642	8.0
49.657	6.0
49.672	3.0
49.687	5.0
49.702	7.0
49.717	5.0
49.732	11.0
49.747	9.0
49.762	6.0
49.777	4.0
49.792	1.0
49.807	11.0
49.822	3.0
49.837	4.0
49.852	5.0
49.867	5.0
49.882	4.0
49.897	5.0
49.912	6.0
49.927	2.0
49.942	8.0
49.957	4.0
49.971	4.0
49.986	10.0
50.001	3.0
50.016	5.0
50.031	8.0
50.046	3.0
50.061	4.0
50.076	6.0
50.091	7.0
50.106	1.0
50.121	2.0
50.136	1.0
50.151	5.0
50.166	5.0
50.181	2.0
50.196	6.0
50.211	2.0
50.226	5.0
50.241	6.0
50.256	5.0
50.271	9.0
50.286	4.0
50.302	2.0
50.317	8.0
50.332	7.0
50.347	6.0
50.362	11.0
50.377	5.0
50.392	8.0
50.407	6.0
50.422	2.0
50.437	5.0
50.452	7.0
50.467	5.0
50.482	5.0
50.497	7.0
50.512	8.0
50.527	4.0
50.542	0.0
50.557	3.0
50.572	8.0
50.587	6.0
50.602	5.0
50.617	2.0
50.632	2.0
50.647	9.0
50.662	6.0
50.677	3.0
50.692	3.0
50.707	3.0
50.722	5.0
50.737	8.0
50.752	4.0
50.767	3.0
50.782	6.0
50.797	10.0
50.812	7.0
50.828	9.0
50.843	3.0
50.858	8.0
50.873	4.0
50.888	3.0
50.903	8.0
50.918	4.0
50.933	4.0
50.948	6.0
50.963	3.0
50.978	7.0
50.993	5.0
51.008	5.0
51.023	5.0
51.038	4.0
51.053	10.0
51.068	6.0
51.083	3.0
51.098	0.0
51.114	7.0
51.129	5.0
51.144	3.0
51.159	4.0
51.174	3.0
51.189	5.0
51.204	4.0
51.219	5.0
51.234	2.0
51.249	9.0
51.264	3.0
51.279	4.0
51.294	7.0
51.309	6.0
51.324	3.0
51.34	6.0
51.355	3.0
51.37	9.0
51.385	6.0
51.4	10.0
51.415	14.0
51.43	7.0
51.445	12.0
51.46	7.0
51.475	12.0
51.49	16.0
51.505	24.0
51.52	12.0
51.535	15.0
51.551	20.0
51.566	18.0
51.581	9.0
51.596	9.0
51.611	10.0
51.626	6.0
51.641	14.0
51.656	11.0
51.671	6.0
51.686	5.0
51.701	8.0
51.716	1.0
51.732	10.0
51.747	5.0
51.762	12.0
51.777	11.0
51.792	8.0
51.807	17.0
51.822	15.0
51.837	10.0
51.852	7.0
51.867	10.0
51.882	11.0
51.898	11.0
51.913	7.0
51.928	5.0
51.943	12.0
51.958	4.0
51.973	3.0
51.988	3.0
52.003	5.0
52.018	5.0
52.033	5.0
52.048	2.0
52.064	5.0
52.079	4.0
52.094	8.0
52.109	3.0
52.124	4.0
52.139	5.0
52.154	7.0
52.169	7.0
52.184	2.0
52.199	9.0
52.215	3.0
52.23	3.0
52.245	5.0
52.26	15.0
52.275	3.0
52.29	5.0
52.305	6.0
52.32	5.0
52.335	7.0
52.35	3.0
52.366	2.0
52.381	5.0
52.396	2.0
52.411	4.0
52.426	2.0
52.441	6.0
52.456	5.0
52.471	7.0
52.486	7.0
52.502	5.0
52.517	10.0
52.532	11.0
52.547	9.0
52.562	10.0
52.577	6.0
52.592	10.0
52.607	5.0
52.622	6.0
52.637	9.0
52.653	15.0
52.668	13.0
52.683	1.0
52.698	3.0
52.713	2.0
52.728	7.0
52.743	6.0
52.758	2.0
52.774	3.0
52.789	5.0
52.804	6.0
52.819	8.0
52.834	7.0
52.849	5.0
52.864	12.0
52.879	5.0
52.894	8.0
52.91	8.0
52.925	8.0
52.94	3.0
52.955	4.0
52.97	10.0
52.985	9.0
53.0	4.0
53.015	7.0
53.031	4.0
53.046	5.0
53.061	4.0
53.076	7.0
53.091	2.0
53.106	4.0
53.121	8.0
53.136	3.0
53.152	7.0
53.167	7.0
53.182	4.0
53.197	5.0
53.212	3.0
53.227	4.0
53.242	8.0
53.257	2.0
53.273	9.0
53.288	7.0
53.303	8.0
53.318	1.0
53.333	4.0
53.348	3.0
53.363	4.0
53.379	4.0
53.394	6.0
53.409	2.0
53.424	2.0
53.439	5.0
53.454	4.0
53.469	5.0
53.484	6.0
53.5	6.0
53.515	5.0
53.53	6.0
53.545	4.0
53.56	4.0
53.575	5.0
53.59	4.0
53.606	7.0
53.621	3.0
53.636	4.0
53.651	2.0
53.666	4.0
53.681	7.0
53.696	6.0
53.712	4.0
53.727	6.0
53.742	5.0
53.757	4.0
53.772	2.0
53.787	8.0
53.802	6.0
53.818	5.0
53.833	5.0
53.848	4.0
53.863	7.0
53.878	5.0
53.893	4.0
53.909	4.0
53.924	6.0
53.939	5.0
53.954	4.0
53.969	5.0
53.984	8.0
53.999	4.0
54.015	0.0
54.03	2.0
54.045	8.0
54.06	4.0
54.075	5.0
54.09	7.0
54.106	6.0
54.121	6.0
54.136	5.0
54.151	4.0
54.166	4.0
54.181	2.0
54.197	5.0
54.212	5.0
54.227	5.0
54.242	11.0
54.257	9.0
54.272	5.0
54.288	3.0
54.303	3.0
54.318	5.0
54.333	2.0
54.348	4.0
54.363	3.0
54.379	4.0
54.394	4.0
54.409	4.0
54.424	4.0
54.439	3.0
54.454	2.0
54.47	3.0
54.485	4.0
54.5	10.0
54.515	5.0
54.53	8.0
54.545	12.0
54.561	7.0
54.576	8.0
54.591	9.0
54.606	5.0
54.621	10.0
54.636	14.0
54.652	17.0
54.667	16.0
54.682	10.0
54.697	10.0
54.712	16.0
54.727	11.0
54.743	8.0
54.758	13.0
54.773	12.0
54.788	6.0
54.803	1.0
54.819	7.0
54.834	8.0
54.849	7.0
54.864	6.0
54.879	8.0
54.894	2.0
54.91	7.0
54.925	7.0
54.94	3.0
54.955	8.0
54.97	8.0
54.985	7.0
55.001	1.0
55.016	6.0
55.031	11.0
55.046	9.0
55.061	7.0
55.077	7.0
55.092	5.0
55.107	5.0
55.122	8.0
55.137	5.0
55.152	4.0
55.168	8.0
55.183	8.0
55.198	5.0
55.213	4.0
55.228	6.0
55.243	1.0
55.259	6.0
55.274	6.0
55.289	3.0
55.304	3.0
55.319	5.0
55.335	4.0
55.35	6.0
55.365	7.0
55.38	3.0
55.395	5.0
55.41	2.0
55.426	2.0
55.441	4.0
55.456	2.0
55.471	4.0
55.486	3.0
55.501	10.0
55.517	3.0
55.532	6.0
55.547	5.0
55.562	3.0
55.577	3.0
55.592	4.0
55.608	7.0
55.623	6.0
55.638	10.0
55.653	5.0
55.668	5.0
55.683	7.0
55.699	11.0
55.714	10.0
55.729	8.0
55.744	3.0
55.759	5.0
55.774	6.0
55.79	9.0
55.805	6.0
55.82	3.0
55.835	5.0
55.85	5.0
55.865	3.0
55.881	4.0
55.896	7.0
55.911	6.0
55.926	4.0
55.941	5.0
55.956	8.0
55.972	7.0
55.987	2.0
56.002	5.0
56.017	6.0
56.032	7.0
56.047	4.0
56.063	5.0
56.078	4.0
56.093	6.0
56.108	3.0
56.123	5.0
56.138	6.0
56.154	10.0
56.169	9.0
56.184	1.0
56.199	3.0
56.214	6.0
56.229	4.0
56.244	4.0
56.26	8.0
56.275	2.0
56.29	2.0
56.305	4.0
56.32	4.0
56.335	3.0
56.351	5.0
56.366	3.0
56.381	6.0
56.396	6.0
56.411	7.0
56.426	2.0
56.441	5.0
56.457	4.0
56.472	2.0
56.487	6.0
56.502	4.0
56.517	6.0
56.532	8.0
56.547	5.0
56.563	6.0
56.578	5.0
56.593	3.0
56.608	3.0
56.623	7.0
56.638	4.0
56.653	3.0
56.668	4.0
56.684	4.0
56.699	5.0
56.714	5.0
56.729	5.0
56.744	9.0
56.759	8.0
56.774	4.0
56.79	7.0
56.805	8.0
56.82	5.0
56.835	2.0
56.85	2.0
56.865	1.0
56.88	8.0
56.895	6.0
56.911	5.0
56.926	4.0
56.941	5.0
56.956	5.0
56.971	7.0
56.986	3.0
57.001	3.0
57.016	3.0
57.031	3.0
57.047	3.0
57.062	4.0
57.077	4.0
57.092	3.0
57.107	3.0
57.122	4.0
57.137	7.0
57.152	0.0
57.167	6.0
57.183	2.0
57.198	3.0
57.213	3.0
57.228	8.0
57.243	2.0
57.258	4.0
57.273	5.0
57.288	4.0
57.303	6.0
57.318	8.0
57.334	2.0
57.349	6.0
57.364	5.0
57.379	7.0
57.394	6.0
57.409	4.0
57.424	5.0
57.439	2.0
57.454	3.0
57.469	1.0
57.484	5.0
57.5	8.0
57.515	4.0
57.53	5.0
57.545	5.0
57.56	5.0
57.575	6.0
57.59	4.0
57.605	4.0
57.62	3.0
57.635	3.0
57.65	6.0
57.665	4.0
57.68	4.0
57.696	2.0
57.711	10.0
57.726	4.0
57.741	5.0
57.756	8.0
57.771	3.0
57.786	6.0
57.801	4.0
57.816	6.0
57.831	4.0
57.846	3.0
57.861	7.0
57.876	1.0
57.891	6.0
57.906	3.0
57.921	6.0
57.937	5.0
57.952	3.0
57.967	6.0
57.982	3.0
57.997	0.0
58.012	2.0
58.027	6.0
58.042	4.0
58.057	8.0
58.072	4.0
58.087	4.0
58.102	5.0
58.117	3.0
58.132	3.0
58.147	3.0
58.162	5.0
58.177	4.0
58.192	2.0
58.207	6.0
58.222	2.0
58.237	3.0
58.252	2.0
58.267	3.0
58.282	2.0
58.297	3.0
58.312	5.0
58.327	5.0
58.342	4.0
58.357	3.0
58.372	3.0
58.387	8.0
58.402	2.0
58.418	11.0
58.433	4.0
58.448	4.0
58.463	5.0
58.478	1.0
58.493	8.0
58.508	9.0
58.523	6.0
58.538	4.0
58.553	5.0
58.568	6.0
58.583	4.0
58.598	8.0
58.613	9.0
58.628	8.0
58.643	12.0
58.658	9.0
58.673	13.0
58.688	13.0
58.703	8.0
58.718	9.0
58.733	6.0
58.748	11.0
58.763	7.0
58.778	4.0
58.793	3.0
58.808	6.0
58.823	4.0
58.838	4.0
58.853	3.0
58.868	4.0
58.883	6.0
58.898	5.0
58.913	3.0
58.928	9.0
58.942	4.0
58.957	8.0
58.972	4.0
58.987	8.0
59.002	6.0
59.017	5.0
59.032	11.0
59.047	5.0
59.062	8.0
59.077	4.0
59.092	3.0
59.107	6.0
59.122	4.0
59.137	5.0
59.152	0.0
59.167	5.0
59.182	3.0
59.197	5.0
59.212	4.0
59.227	2.0
59.242	2.0
59.257	3.0
59.272	4.0
59.287	3.0
59.302	4.0
59.317	2.0
59.332	4.0
59.347	1.0
59.362	7.0
59.377	4.0
59.392	6.0
59.407	2.0
59.422	5.0
59.437	6.0
59.452	2.0
59.467	0.0
59.482	1.0
59.497	7.0
59.512	8.0
59.527	12.0
59.542	5.0
59.557	7.0
59.572	7.0
59.587	10.0
59.602	11.0
59.617	10.0
59.632	12.0
59.647	9.0
59.661	7.0
59.676	10.0
59.691	14.0
59.706	7.0
59.721	3.0
59.736	3.0
59.751	7.0
59.766	2.0
59.781	2.0
59.796	3.0
59.811	2.0
59.826	3.0
59.841	5.0
59.856	10.0
59.871	7.0
59.886	4.0
59.901	5.0
59.916	5.0
59.931	11.0
59.946	8.0
59.961	10.0
59.976	8.0
59.991	3.0
60.006	3.0
60.021	7.0
60.036	7.0
60.051	2.0
60.066	5.0
60.081	5.0
60.096	4.0
60.111	6.0
60.126	7.0
60.141	7.0
60.156	5.0
60.171	2.0
60.186	2.0
60.201	3.0
60.216	2.0
60.231	6.0
60.246	7.0
60.261	3.0
60.276	1.0
60.291	7.0
60.306	5.0
60.321	1.0
60.336	1.0
60.35	4.0
60.365	3.0
60.38	2.0
60.395	7.0
60.41	4.0
60.425	8.0
60.44	3.0
60.455	3.0
60.47	3.0
60.485	5.0
60.5	4.0
60.515	6.0
60.53	4.0
60.545	5.0
60.56	8.0
60.575	8.0
60.59	5.0
60.605	10.0
60.62	6.0
60.635	8.0
60.65	11.0
60.665	5.0
60.68	5.0
60.695	6.0
60.71	3.0
60.725	5.0
60.74	6.0
60.755	4.0
60.77	4.0
60.785	3.0
60.8	2.0
60.815	6.0
60.83	5.0
60.845	1.0
60.86	7.0
60.875	10.0
60.89	4.0
60.905	4.0
60.92	8.0
60.935	8.0
60.95	7.0
60.965	5.0
60.98	4.0
60.995	4.0
61.01	8.0
61.025	5.0
61.04	2.0
61.055	6.0
61.07	4.0
61.085	3.0
61.1	5.0
61.115	4.0
61.13	5.0
61.145	0.0
61.16	3.0
61.175	3.0
61.191	4.0
61.206	4.0
61.221	5.0
61.236	5.0
61.251	3.0
61.266	3.0
61.281	3.0
61.296	4.0
61.311	4.0
61.326	2.0
61.341	3.0
61.356	3.0
61.371	3.0
61.386	2.0
61.401	4.0
61.416	2.0
61.431	6.0
61.446	3.0
61.461	5.0
61.476	10.0
61.491	6.0
61.506	4.0
61.521	12.0
61.536	10.0
61.551	4.0
61.566	2.0
61.581	8.0
61.596	5.0
61.611	7.0
61.626	3.0
61.641	3.0
61.656	1.0
61.672	3.0
61.687	4.0
61.702	3.0
61.717	11.0
61.732	5.0
61.747	5.0
61.762	3.0
61.777	5.0
61.792	3.0
61.807	1.0
61.822	3.0
61.837	3.0
61.852	4.0
61.867	1.0
61.882	4.0
61.897	1.0
61.912	3.0
61.927	8.0
61.943	2.0
61.958	5.0
61.973	6.0
61.988	5.0
62.003	7.0
62.018	3.0
62.033	5.0
62.048	5.0
62.063	7.0
62.078	3.0
62.093	2.0
62.108	3.0
62.123	3.0
62.138	3.0
62.153	5.0
62.169	4.0
62.184	5.0
62.199	0.0
62.214	2.0
62.229	6.0
62.244	5.0
62.259	6.0
62.274	5.0
62.289	4.0
62.304	3.0
62.319	3.0
62.335	5.0
62.35	4.0
62.365	9.0
62.38	1.0
62.395	3.0
62.41	4.0
62.425	6.0
62.44	6.0
62.455	3.0
62.47	8.0
62.485	7.0
62.501	5.0
62.516	5.0
62.531	6.0
62.546	4.0
62.561	6.0
62.576	4.0
62.591	3.0
62.606	3.0
62.621	3.0
62.636	7.0
62.652	4.0
62.667	5.0
62.682	1.0
62.697	3.0
62.712	4.0
62.727	3.0
62.742	6.0
62.757	2.0
62.772	4.0
62.787	4.0
62.803	3.0
62.818	3.0
62.833	2.0
62.848	2.0
62.863	6.0
62.878	2.0
62.893	2.0
62.908	7.0
62.923	8.0
62.939	7.0
62.954	5.0
62.969	1.0
62.984	4.0
62.999	4.0
63.014	5.0
63.029	6.0
63.044	3.0
63.059	1.0
63.074	2.0
63.09	0.0
63.105	2.0
63.12	2.0
63.135	1.0
63.15	5.0
63.165	3.0
63.18	3.0
63.195	2.0
63.21	4.0
63.226	8.0
63.241	4.0
63.256	5.0
63.271	5.0
63.286	5.0
63.301	3.0
63.316	5.0
63.331	7.0
63.346	5.0
63.362	3.0
63.377	3.0
63.392	7.0
63.407	6.0
63.422	7.0
63.437	5.0
63.452	3.0
63.467	6.0
63.482	2.0
63.497	2.0
63.513	1.0
63.528	4.0
63.543	3.0
63.558	2.0
63.573	4.0
63.588	1.0
63.603	5.0
63.618	2.0
63.633	7.0
63.648	6.0
63.664	2.0
63.679	5.0
63.694	6.0
63.709	3.0
63.724	3.0
63.739	3.0
63.754	5.0
63.769	4.0
63.784	8.0
63.799	2.0
63.814	6.0
63.83	7.0
63.845	3.0
63.86	5.0
63.875	9.0
63.89	9.0
63.905	5.0
63.92	4.0
63.935	3.0
63.95	5.0
63.965	3.0
63.98	4.0
63.996	4.0
64.011	3.0
64.026	6.0
64.041	1.0
64.056	2.0
64.071	1.0
64.086	5.0
64.101	4.0
64.116	10.0
64.131	3.0
64.146	6.0
64.161	4.0
64.176	1.0
64.191	2.0
64.207	1.0
64.222	3.0
64.237	4.0
64.252	6.0
64.267	1.0
64.282	1.0
64.297	5.0
64.312	4.0
64.327	7.0
64.342	5.0
64.357	3.0
64.372	3.0
64.387	7.0
64.402	3.0
64.417	3.0
64.433	6.0
64.448	2.0
64.463	2.0
64.478	2.0
64.493	0.0
64.508	5.0
64.523	2.0
64.538	4.0
64.553	4.0
64.568	5.0
64.583	7.0
64.598	5.0
64.613	4.0
64.628	5.0
64.643	6.0
64.658	3.0
64.673	2.0
64.688	3.0
64.703	6.0
64.718	2.0
64.734	3.0
64.749	3.0
64.764	3.0
64.779	3.0
64.794	5.0
64.809	4.0
64.824	5.0
64.839	5.0
64.854	5.0
64.869	3.0
64.884	1.0
64.899	4.0
64.914	2.0
64.929	6.0
64.944	5.0
64.959	3.0
64.974	3.0
64.989	4.0
65.004	2.0
65.019	4.0
65.034	2.0
65.049	3.0
65.064	3.0
65.079	2.0
65.094	2.0
65.109	2.0
65.125	6.0
65.14	3.0
65.155	0.0
65.17	1.0
65.185	5.0
65.2	2.0
65.215	4.0
65.23	3.0
65.245	7.0
65.26	5.0
65.275	5.0
65.29	5.0
65.305	7.0
65.32	4.0
65.335	3.0
65.35	5.0
65.365	2.0
65.38	2.0
65.395	3.0
65.41	6.0
65.425	6.0
65.44	2.0
65.455	6.0
65.47	0.0
65.485	5.0
65.5	2.0
65.515	1.0
65.53	1.0
65.545	4.0
65.56	4.0
65.575	5.0
65.59	2.0
65.605	2.0
65.62	2.0
65.635	4.0
65.65	2.0
65.666	6.0
65.681	2.0
65.696	5.0
65.711	4.0
65.726	2.0
65.741	5.0
65.756	1.0
65.771	3.0
65.786	5.0
65.801	1.0
65.816	4.0
65.831	5.0
65.846	6.0
65.861	4.0
65.876	3.0
65.891	3.0
65.906	1.0
65.921	11.0
65.936	4.0
65.951	5.0
65.966	3.0
65.981	2.0
65.996	5.0
66.011	4.0
66.026	5.0
66.041	1.0
66.056	5.0
66.071	4.0
66.086	1.0
66.101	2.0
66.116	6.0
66.131	10.0
66.146	8.0
66.161	4.0
66.176	6.0
66.191	7.0
66.206	7.0
66.221	14.0
66.236	6.0
66.251	6.0
66.266	5.0
66.281	3.0
66.296	3.0
66.311	12.0
66.327	2.0
66.342	2.0
66.357	1.0
66.372	5.0
66.387	6.0
66.402	2.0
66.417	5.0
66.432	5.0
66.447	3.0
66.462	5.0
66.477	2.0
66.492	2.0
66.507	7.0
66.522	5.0
66.537	1.0
66.552	5.0
66.567	3.0
66.582	4.0
66.597	6.0
66.612	6.0
66.627	9.0
66.642	8.0
66.657	4.0
66.672	2.0
66.687	8.0
66.702	6.0
66.717	3.0
66.732	4.0
66.747	3.0
66.762	4.0
66.777	6.0
66.792	5.0
66.807	4.0
66.822	3.0
66.837	7.0
66.853	4.0
66.868	3.0
66.883	4.0
66.898	6.0
66.913	6.0
66.928	5.0
66.943	5.0
66.958	1.0
66.973	7.0
66.988	8.0
67.003	1.0
67.018	6.0
67.033	3.0
67.048	2.0
67.063	5.0
67.078	10.0
67.093	4.0
67.108	7.0
67.123	4.0
67.138	3.0
67.153	7.0
67.168	6.0
67.183	6.0
67.198	2.0
67.214	8.0
67.229	3.0
67.244	4.0
67.259	1.0
67.274	0.0
67.289	5.0
67.304	3.0
67.319	3.0
67.334	5.0
67.349	4.0
67.364	6.0
67.379	4.0
67.394	7.0
67.409	2.0
67.424	4.0
67.439	5.0
67.454	5.0
67.469	4.0
67.484	3.0
67.5	4.0
67.515	3.0
67.53	4.0
67.545	3.0
67.56	4.0
67.575	1.0
67.59	5.0
67.605	3.0
67.62	3.0
67.635	6.0
67.65	6.0
67.665	4.0
67.68	2.0
67.695	3.0
67.71	3.0
67.726	4.0
67.741	2.0
67.756	6.0
67.771	2.0
67.786	3.0
67.801	5.0
67.816	4.0
67.831	4.0
67.846	4.0
67.861	4.0
67.876	6.0
67.891	1.0
67.906	5.0
67.922	2.0
67.937	4.0
67.952	6.0
67.967	3.0
67.982	0.0
67.997	5.0
68.012	3.0
68.027	6.0
68.042	5.0
68.057	2.0
68.072	5.0
68.087	3.0
68.103	2.0
68.118	4.0
68.133	2.0
68.148	3.0
68.163	5.0
68.178	3.0
68.193	7.0
68.208	5.0
68.223	1.0
68.238	4.0
68.254	2.0
68.269	3.0
68.284	4.0
68.299	2.0
68.314	2.0
68.329	4.0
68.344	2.0
68.359	3.0
68.374	3.0
68.389	6.0
68.405	3.0
68.42	6.0
68.435	5.0
68.45	4.0
68.465	1.0
68.48	5.0
68.495	3.0
68.51	1.0
68.525	1.0
68.54	1.0
68.556	3.0
68.571	5.0
68.586	2.0
68.601	6.0
68.616	3.0
68.631	2.0
68.646	3.0
68.661	3.0
68.676	6.0
68.691	5.0
68.707	4.0
68.722	5.0
68.737	2.0
68.752	3.0
68.767	4.0
68.782	4.0
68.797	5.0
68.812	1.0
68.827	4.0
68.842	4.0
68.857	1.0
68.873	5.0
68.888	6.0
68.903	3.0
68.918	7.0
68.933	6.0
68.948	5.0
68.963	7.0
68.978	5.0
68.993	3.0
69.008	4.0
69.023	7.0
69.038	2.0
69.054	1.0
69.069	2.0
69.084	5.0
69.099	5.0
69.114	6.0
69.129	2.0
69.144	3.0
69.159	7.0
69.174	4.0
69.189	2.0
69.204	5.0
69.219	1.0
69.234	1.0
69.249	7.0
69.264	3.0
69.279	2.0
69.295	5.0
69.31	10.0
69.325	2.0
69.34	6.0
69.355	4.0
69.37	4.0
69.385	4.0
69.4	5.0
69.415	6.0
69.43	5.0
69.445	0.0
69.46	8.0
69.475	5.0
69.49	6.0
69.505	1.0
69.52	5.0
69.535	2.0
69.55	1.0
69.565	6.0
69.58	9.0
69.595	2.0
69.61	4.0
69.625	2.0
69.64	4.0
69.655	5.0
69.67	5.0
69.685	4.0
69.7	6.0
69.715	7.0
69.73	1.0
69.745	6.0
69.76	5.0
69.775	3.0
69.79	8.0
69.805	7.0
69.82	6.0
69.835	9.0
69.85	6.0
69.865	5.0
69.88	6.0
69.895	3.0
69.909	5.0
69.924	5.0
69.939	5.0
69.954	4.0
69.969	2.0
69.984	0.0
69.999	6.0
70.014	5.0
70.029	3.0
70.044	3.0
70.059	3.0
70.074	1.0
70.088	3.0
70.103	5.0
70.118	5.0
70.133	6.0
70.148	4.0
70.163	3.0
70.178	3.0
70.193	1.0
70.208	8.0
70.222	5.0
70.237	5.0
70.252	5.0
70.267	3.0
70.282	3.0
70.297	7.0
70.312	3.0
70.327	7.0
70.341	4.0
70.356	4.0
70.371	6.0
70.386	2.0
70.401	4.0
70.416	1.0
70.43	4.0
70.445	1.0
70.46	1.0
70.475	2.0
70.49	4.0
70.505	5.0
70.519	6.0
70.534	3.0
70.549	9.0
70.564	2.0
70.579	1.0
70.594	2.0
70.608	6.0
70.623	4.0
70.638	5.0
70.653	5.0
70.668	8.0
70.683	9.0
70.697	4.0
70.712	8.0
70.727	6.0
70.742	4.0
70.757	4.0
70.771	5.0
70.786	8.0
70.801	4.0
70.816	4.0
70.831	4.0
70.845	5.0
70.86	3.0
70.875	5.0
70.89	1.0
70.905	2.0
70.92	2.0
70.934	2.0
70.949	1.0
70.964	3.0
70.979	4.0
70.994	2.0
71.008	7.0
71.023	6.0
71.038	3.0
71.053	1.0
71.068	3.0
71.082	8.0
71.097	4.0
71.112	5.0
71.127	3.0
71.142	4.0
71.156	2.0
71.171	7.0
71.186	6.0
71.201	6.0
71.216	3.0
71.231	4.0
71.245	4.0
71.26	1.0
71.275	2.0
71.29	4.0
71.305	2.0
71.319	5.0
71.334	6.0
71.349	4.0
71.364	5.0
71.379	1.0
71.394	4.0
71.408	2.0
71.423	6.0
71.438	3.0
71.453	1.0
71.468	4.0
71.483	2.0
71.497	4.0
71.512	2.0
71.527	3.0
71.542	1.0
71.557	4.0
71.572	3.0
71.586	3.0
71.601	2.0
71.616	2.0
71.631	0.0
71.646	2.0
71.661	2.0
71.676	3.0
71.69	5.0
71.705	2.0
71.72	1.0
71.735	5.0
71.75	3.0
71.765	2.0
71.78	3.0
71.795	2.0
71.81	4.0
71.824	4.0
71.839	4.0
71.854	0.0
71.869	3.0
71.884	2.0
71.899	2.0
71.914	4.0
71.929	3.0
71.944	0.0
71.959	4.0
71.974	4.0
71.988	2.0
72.003	3.0
72.018	2.0
72.033	5.0
72.048	4.0
72.063	4.0
72.078	5.0
72.093	5.0
72.108	6.0
72.123	2.0
72.138	4.0
72.153	2.0
72.168	5.0
72.183	4.0
72.198	3.0
72.213	1.0
72.228	6.0
72.243	3.0
72.258	4.0
72.273	4.0
72.288	5.0
72.303	3.0
72.318	5.0
72.333	2.0
72.348	5.0
72.363	5.0
72.378	5.0
72.393	3.0
72.408	2.0
72.423	2.0
72.438	8.0
72.453	3.0
72.468	5.0
72.483	2.0
72.498	4.0
72.513	0.0
72.528	3.0
72.543	5.0
72.558	6.0
72.573	5.0
72.588	0.0
72.603	0.0
72.618	0.0
72.633	3.0
72.649	5.0
72.664	2.0
72.679	3.0
72.694	4.0
72.709	4.0
72.724	2.0
72.739	4.0
72.754	0.0
72.769	3.0
72.784	1.0
72.799	1.0
72.814	3.0
72.829	3.0
72.845	4.0
72.86	2.0
72.875	3.0
72.89	6.0
72.905	3.0
72.92	3.0
72.935	2.0
72.95	3.0
72.965	4.0
72.98	4.0
72.996	3.0
73.011	5.0
73.026	3.0
73.041	1.0
73.056	3.0
73.071	3.0
73.086	3.0
73.101	2.0
73.117	3.0
73.132	3.0
73.147	2.0
73.162	3.0
73.177	3.0
73.192	4.0
73.207	4.0
73.222	2.0
73.238	4.0
73.253	3.0
73.268	1.0
73.283	2.0
73.298	3.0
73.313	5.0
73.328	3.0
73.343	3.0
73.359	0.0
73.374	5.0
73.389	6.0
73.404	4.0
73.419	5.0
73.434	3.0
73.449	6.0
73.465	2.0
73.48	7.0
73.495	3.0
73.51	4.0
73.525	2.0
73.54	3.0
73.556	6.0
73.571	3.0
73.586	2.0
73.601	4.0
73.616	3.0
73.631	2.0
73.646	3.0
73.662	4.0
73.677	2.0
73.692	4.0
73.707	3.0
73.722	7.0
73.737	2.0
73.752	0.0
73.768	4.0
73.783	5.0
73.798	6.0
73.813	1.0
73.828	3.0
73.843	4.0
73.859	8.0
73.874	2.0
73.889	2.0
73.904	1.0
73.919	5.0
73.934	2.0
73.949	3.0
73.965	4.0
73.98	4.0
73.995	4.0
74.01	3.0
74.025	1.0
74.04	4.0
74.056	3.0
74.071	9.0
74.086	2.0
74.101	4.0
74.116	5.0
74.131	5.0
74.146	6.0
74.162	4.0
74.177	4.0
74.192	3.0
74.207	6.0
74.222	6.0
74.237	9.0
74.252	6.0
74.268	8.0
74.283	2.0
74.298	4.0
74.313	3.0
74.328	4.0
74.343	3.0
74.358	0.0
74.374	3.0
74.389	4.0
74.404	1.0
74.419	2.0
74.434	1.0
74.449	4.0
74.464	3.0
74.48	3.0
74.495	1.0
74.51	2.0
74.525	3.0
74.54	5.0
74.555	5.0
74.57	7.0
74.586	12.0
74.601	3.0
74.616	2.0
74.631	2.0
74.646	3.0
74.661	4.0
74.676	6.0
74.691	2.0
74.707	6.0
74.722	4.0
74.737	3.0
74.752	7.0
74.767	5.0
74.782	3.0
74.797	3.0
74.813	7.0
74.828	2.0
74.843	3.0
74.858	0.0
74.873	1.0
74.888	1.0
74.903	1.0
74.918	2.0
74.934	2.0
74.949	4.0
74.964	3.0
74.979	2.0
74.994	5.0
75.009	4.0
75.024	4.0
75.04	1.0
75.055	5.0
75.07	7.0
75.085	7.0
75.1	2.0
75.115	6.0
75.13	4.0
75.145	7.0
75.161	1.0
75.176	1.0
75.191	2.0
75.206	2.0
75.221	0.0
75.236	4.0
75.251	4.0
75.266	3.0
75.282	5.0
75.297	6.0
75.312	9.0
75.327	4.0
75.342	8.0
75.357	4.0
75.372	1.0
75.387	0.0
75.403	2.0
75.418	3.0
75.433	7.0
75.448	1.0
75.463	6.0
75.478	4.0
75.493	2.0
75.509	2.0
75.524	4.0
75.539	5.0
75.554	1.0
75.569	4.0
75.584	1.0
75.599	2.0
75.614	4.0
75.63	1.0
75.645	3.0
75.66	3.0
75.675	7.0
75.69	1.0
75.705	3.0
75.72	2.0
75.735	3.0
75.751	5.0
75.766	2.0
75.781	2.0
75.796	5.0
75.811	2.0
75.826	2.0
75.841	4.0
75.856	8.0
75.872	5.0
75.887	3.0
75.902	6.0
75.917	4.0
75.932	5.0
75.947	5.0
75.962	1.0
75.977	4.0
75.993	4.0
76.008	6.0
76.023	4.0
76.038	9.0
76.053	5.0
76.068	2.0
76.083	5.0
76.098	0.0
76.114	4.0
76.129	4.0
76.144	2.0
76.159	1.0
76.174	2.0
76.189	1.0
76.204	4.0
76.22	3.0
76.235	2.0
76.25	6.0
76.265	4.0
76.28	2.0
76.295	1.0
76.31	5.0
76.325	3.0
76.341	6.0
76.356	2.0
76.371	3.0
76.386	3.0
76.401	4.0
76.416	6.0
76.431	1.0
76.446	1.0
76.462	3.0
76.477	1.0
76.492	7.0
76.507	3.0
76.522	3.0
76.537	0.0
76.552	3.0
76.567	6.0
76.583	5.0
76.598	5.0
76.613	5.0
76.628	3.0
76.643	4.0
76.658	5.0
76.673	3.0
76.688	6.0
76.704	3.0
76.719	7.0
76.734	2.0
76.749	6.0
76.764	10.0
76.779	2.0
76.794	2.0
76.809	4.0
76.824	5.0
76.84	3.0
76.855	0.0
76.87	1.0
76.885	3.0
76.9	3.0
76.915	3.0
76.93	5.0
76.945	3.0
76.96	3.0
76.976	1.0
76.991	3.0
77.006	4.0
77.021	4.0
77.036	2.0
77.051	2.0
77.066	6.0
77.081	1.0
77.096	0.0
77.112	2.0
77.127	5.0
77.142	0.0
77.157	2.0
77.172	7.0
77.187	3.0
77.202	3.0
77.217	3.0
77.232	6.0
77.247	2.0
77.263	3.0
77.278	2.0
77.293	6.0
77.308	5.0
77.323	3.0
77.338	2.0
77.353	3.0
77.368	7.0
77.383	8.0
77.398	3.0
77.413	5.0
77.428	3.0
77.444	5.0
77.459	5.0
77.474	4.0
77.489	3.0
77.504	2.0
77.519	4.0
77.534	4.0
77.549	2.0
77.564	3.0
77.579	2.0
77.594	2.0
77.609	4.0
77.624	7.0
77.64	6.0
77.655	4.0
77.67	7.0
77.685	5.0
77.7	1.0
77.715	3.0
77.73	5.0
77.745	4.0
77.76	3.0
77.775	3.0
77.79	2.0
77.805	4.0
77.82	3.0
77.835	2.0
77.85	4.0
77.865	7.0
77.88	1.0
77.895	2.0
77.91	5.0
77.926	2.0
77.941	2.0
77.956	2.0
77.971	3.0
77.986	2.0
78.001	2.0
78.016	2.0
78.031	1.0
78.046	1.0
78.061	4.0
78.076	5.0
78.091	4.0
78.106	3.0
78.121	2.0
78.136	3.0
78.151	6.0
78.166	6.0
78.181	4.0
78.196	6.0
78.211	5.0
78.226	2.0
78.241	5.0
78.256	5.0
78.271	3.0
78.286	5.0
78.301	4.0
78.316	4.0
78.331	3.0
78.346	1.0
78.361	6.0
78.376	3.0
78.391	3.0
78.406	5.0
78.421	3.0
78.436	2.0
78.451	4.0
78.466	5.0
78.481	4.0
78.496	4.0
78.511	4.0
78.526	2.0
78.541	2.0
78.556	4.0
78.571	1.0
78.586	2.0
78.601	2.0
78.616	4.0
78.631	0.0
78.646	4.0
78.661	3.0
78.676	6.0
78.691	0.0
78.706	3.0
78.721	2.0
78.736	6.0
78.751	3.0
78.766	2.0
78.781	3.0
78.796	3.0
78.811	3.0
78.826	6.0
78.841	9.0
78.856	2.0
78.871	1.0
78.885	2.0
78.9	3.0
78.915	1.0
78.93	5.0
78.945	0.0
78.96	3.0
78.975	3.0
78.99	1.0
79.005	2.0
79.02	3.0
79.035	3.0
79.05	6.0
79.065	0.0
79.08	4.0
79.095	1.0
79.11	5.0
79.125	4.0
79.14	4.0
79.155	1.0
79.17	2.0
79.185	3.0
79.2	9.0
79.215	3.0
79.23	2.0
79.245	4.0
79.26	2.0
79.275	4.0
79.29	7.0
79.304	2.0
79.319	2.0
79.334	5.0
79.349	3.0
79.364	5.0
79.379	0.0
79.394	3.0
79.409	1.0
79.424	5.0
79.439	4.0
79.454	6.0
79.469	2.0
79.484	3.0
79.499	2.0
79.514	2.0
79.529	8.0
79.544	3.0
79.559	1.0
79.574	4.0
79.589	2.0
79.604	5.0
79.619	7.0
79.634	2.0
79.649	2.0
79.664	2.0
79.679	2.0
79.693	1.0
79.708	4.0
79.723	1.0
79.738	1.0
79.753	2.0
79.768	1.0
79.783	1.0
79.798	1.0
79.813	2.0
79.828	6.0
79.843	4.0
79.858	4.0
79.873	5.0
79.888	5.0
79.903	2.0
79.918	2.0
79.933	6.0
79.948	4.0
79.963	5.0
79.978	3.0
79.993	2.0
80.008	2.0
80.023	6.0
80.038	3.0
80.053	2.0
80.068	2.0
80.083	2.0
80.098	4.0
80.113	2.0
80.128	2.0
80.143	4.0
80.158	5.0
80.173	3.0
80.188	7.0
80.202	4.0
80.217	3.0
80.232	3.0
80.247	4.0
80.262	5.0
80.277	6.0
80.292	2.0
80.307	4.0
80.322	4.0
80.337	4.0
80.352	1.0
80.367	3.0
80.382	4.0
80.397	0.0
80.412	4.0
80.427	4.0
80.442	1.0
80.457	4.0
80.472	7.0
80.487	0.0
80.502	3.0
80.517	3.0
80.532	2.0
80.547	3.0
80.562	1.0
80.577	6.0
80.592	8.0
80.607	2.0
80.622	1.0
80.637	2.0
80.652	4.0
80.667	2.0
80.682	2.0
80.697	1.0
80.712	3.0
80.727	2.0
80.742	4.0
80.757	7.0
80.772	5.0
80.787	2.0
80.802	4.0
80.817	4.0
80.832	2.0
80.847	7.0
80.862	3.0
80.877	1.0
80.892	3.0
80.907	4.0
80.922	6.0
80.937	4.0
80.952	2.0
80.967	8.0
80.982	5.0
80.997	3.0
81.012	2.0
81.027	5.0
81.042	1.0
81.057	3.0
81.072	4.0
81.087	3.0
81.101	2.0
81.116	3.0
81.131	5.0
81.146	2.0
81.161	0.0
81.176	1.0
81.191	1.0
81.206	4.0
81.221	3.0
81.236	2.0
81.251	1.0
81.266	6.0
81.281	0.0
81.296	5.0
81.311	6.0
81.326	6.0
81.341	5.0
81.356	3.0
81.371	1.0
81.386	4.0
81.401	4.0
81.416	3.0
81.431	2.0
81.446	1.0
81.461	4.0
81.476	3.0
81.491	7.0
81.506	4.0
81.521	2.0
81.536	3.0
81.55	3.0
81.565	1.0
81.58	3.0
81.595	2.0
81.61	1.0
81.625	3.0
81.64	4.0
81.655	2.0
81.67	4.0
81.685	2.0
81.7	6.0
81.715	6.0
81.73	0.0
81.745	5.0
81.76	4.0
81.775	3.0
81.79	2.0
81.805	2.0
81.819	5.0
81.834	4.0
81.849	5.0
81.864	4.0
81.879	2.0
81.894	5.0
81.909	4.0
81.924	2.0
81.939	7.0
81.954	6.0
81.969	3.0
81.984	4.0
81.999	7.0
82.013	5.0
82.028	4.0
82.043	3.0
82.058	3.0
82.073	3.0
82.088	3.0
82.103	2.0
82.118	4.0
82.133	3.0
82.148	8.0
82.163	4.0
82.177	2.0
82.192	5.0
82.207	1.0
82.222	5.0
82.237	4.0
82.252	2.0
82.267	1.0
82.282	2.0
82.297	4.0
82.312	2.0
82.326	0.0
82.341	0.0
82.356	3.0
82.371	2.0
82.386	2.0
82.401	5.0
82.416	0.0
82.431	2.0
82.445	3.0
82.46	8.0
82.475	2.0
82.49	5.0
82.505	8.0
82.52	1.0
82.535	7.0
82.55	4.0
82.565	0.0
82.579	4.0
82.594	1.0
82.609	5.0
82.624	2.0
82.639	3.0
82.654	2.0
82.669	3.0
82.684	3.0
82.698	5.0
82.713	2.0
82.728	4.0
82.743	1.0
82.758	1.0
82.773	1.0
82.788	4.0
82.803	3.0
82.817	2.0
82.832	6.0
82.847	1.0
82.862	2.0
82.877	4.0
82.892	6.0
82.907	4.0
82.922	4.0
82.937	2.0
82.951	3.0
82.966	5.0
82.981	2.0
82.996	0.0
83.011	3.0
83.026	3.0
83.041	5.0
83.056	2.0
83.07	1.0
83.085	4.0
83.1	1.0
83.115	1.0
83.13	1.0
83.145	5.0
83.16	4.0
83.175	5.0
83.19	1.0
83.204	1.0
83.219	4.0
83.234	4.0
83.249	3.0
83.264	2.0
83.279	1.0
83.294	3.0
83.309	4.0
83.324	0.0
83.339	2.0
83.353	3.0
83.368	2.0
83.383	9.0
83.398	0.0
83.413	1.0
83.428	2.0
83.443	2.0
83.458	3.0
83.473	1.0
83.488	2.0
83.503	9.0
83.517	1.0
83.532	5.0
83.547	3.0
83.562	10.0
83.577	4.0
83.592	5.0
83.607	6.0
83.622	2.0
83.637	4.0
83.652	1.0
83.667	1.0
83.682	2.0
83.697	3.0
83.712	6.0
83.727	0.0
83.741	4.0
83.756	6.0
83.771	2.0
83.786	3.0
83.801	5.0
83.816	3.0
83.831	4.0
83.846	4.0
83.861	5.0
83.876	2.0
83.891	2.0
83.906	4.0
83.921	2.0
83.936	3.0
83.951	3.0
83.966	2.0
83.981	3.0
83.996	2.0
84.011	2.0
84.026	1.0
84.041	0.0
84.056	2.0
84.071	2.0
84.086	4.0
84.101	2.0
84.116	5.0
84.131	1.0
84.146	2.0
84.161	3.0
84.176	4.0
84.191	3.0
84.206	1.0
84.221	6.0
84.236	7.0
84.251	2.0
84.266	2.0
84.281	6.0
84.296	5.0
84.311	3.0
84.326	5.0
84.341	5.0
84.356	5.0
84.371	5.0
84.386	9.0
84.401	5.0
84.416	6.0
84.431	4.0
84.446	1.0
84.461	4.0
84.476	4.0
84.492	4.0
84.507	2.0
84.522	3.0
84.537	5.0
84.552	3.0
84.567	1.0
84.582	4.0
84.597	2.0
84.612	1.0
84.627	5.0
84.642	7.0
84.657	4.0
84.672	0.0
84.687	2.0
84.702	2.0
84.717	0.0
84.733	6.0
84.748	4.0
84.763	1.0
84.778	7.0
84.793	4.0
84.808	7.0
84.823	3.0
84.838	3.0
84.853	4.0
84.868	4.0
84.883	5.0
84.898	3.0
84.913	2.0
84.929	1.0
84.944	2.0
84.959	3.0
84.974	3.0
84.989	5.0
85.004	2.0
85.019	4.0
85.034	6.0
85.049	8.0
85.064	5.0
85.079	5.0
85.094	3.0
85.11	2.0
85.125	3.0
85.14	1.0
85.155	4.0
85.17	9.0
85.185	4.0
85.2	3.0
85.215	0.0
85.23	2.0
85.245	6.0
85.26	1.0
85.276	5.0
85.291	5.0
85.306	3.0
85.321	2.0
85.336	4.0
85.351	3.0
85.366	2.0
85.381	3.0
85.396	1.0
85.411	4.0
85.426	5.0
85.441	4.0
85.457	4.0
85.472	5.0
85.487	2.0
85.502	4.0
85.517	2.0
85.532	1.0
85.547	2.0
85.562	3.0
85.577	5.0
85.592	1.0
85.607	1.0
85.622	4.0
85.637	3.0
85.653	3.0
85.668	3.0
85.683	4.0
85.698	2.0
85.713	2.0
85.728	3.0
85.743	3.0
85.758	1.0
85.773	3.0
85.788	1.0
85.803	4.0
85.818	3.0
85.833	0.0
85.848	3.0
85.863	7.0
85.879	5.0
85.894	5.0
85.909	2.0
85.924	3.0
85.939	5.0
85.954	5.0
85.969	2.0
85.984	2.0
85.999	2.0
86.014	2.0
86.029	4.0
86.044	0.0
86.059	4.0
86.074	1.0
86.089	0.0
86.104	3.0
86.119	5.0
86.134	4.0
86.149	4.0
86.164	3.0
86.179	2.0
86.194	4.0
86.209	3.0
86.224	2.0
86.239	6.0
86.254	4.0
86.269	2.0
86.284	5.0
86.299	6.0
86.314	3.0
86.33	4.0
86.345	5.0
86.36	3.0
86.375	1.0
86.39	4.0
86.405	2.0
86.42	2.0
86.435	2.0
86.45	2.0
86.465	3.0
86.48	3.0
86.495	6.0
86.51	3.0
86.525	4.0
86.54	1.0
86.555	1.0
86.57	3.0
86.585	3.0
86.6	3.0
86.615	4.0
86.63	6.0
86.645	1.0
86.659	1.0
86.674	2.0
86.689	6.0
86.704	5.0
86.719	3.0
86.734	6.0
86.749	4.0
86.764	1.0
86.779	2.0
86.794	6.0
86.809	5.0
86.824	5.0
86.839	5.0
86.854	3.0
86.869	4.0
86.884	1.0
86.899	4.0
86.914	7.0
86.929	4.0
86.944	3.0
86.959	2.0
86.974	0.0
86.989	1.0
87.004	4.0
87.019	10.0
87.034	2.0
87.049	1.0
87.064	7.0
87.079	2.0
87.094	2.0
87.109	7.0
87.124	5.0
87.139	3.0
87.154	6.0
87.169	4.0
87.184	3.0
87.199	4.0
87.214	2.0
87.229	5.0
87.244	2.0
87.259	2.0
87.274	4.0
87.289	1.0
87.304	2.0
87.319	2.0
87.334	3.0
87.349	2.0
87.364	1.0
87.379	3.0
87.394	2.0
87.409	5.0
87.424	1.0
87.438	4.0
87.453	5.0
87.468	3.0
87.483	3.0
87.498	5.0
87.513	3.0
87.528	2.0
87.543	3.0
87.558	3.0
87.573	2.0
87.588	4.0
87.603	3.0
87.618	1.0
87.633	4.0
87.648	5.0
87.663	7.0
87.678	3.0
87.693	5.0
87.708	7.0
87.723	7.0
87.738	2.0
87.753	6.0
87.768	1.0
87.783	5.0
87.798	2.0
87.813	2.0
87.828	3.0
87.843	3.0
87.858	2.0
87.873	3.0
87.888	1.0
87.903	6.0
87.918	5.0
87.933	3.0
87.948	4.0
87.963	3.0
87.978	3.0
87.993	2.0
88.008	1.0
88.023	7.0
88.038	1.0
88.053	3.0
88.068	1.0
88.083	3.0
88.098	4.0
88.113	0.0
88.128	2.0
88.143	5.0
88.158	7.0
88.174	2.0
88.189	2.0
88.204	1.0
88.219	2.0
88.234	1.0
88.249	2.0
88.264	6.0
88.279	3.0
88.294	4.0
88.309	4.0
88.324	4.0
88.339	4.0
88.354	3.0
88.369	5.0
88.384	1.0
88.399	5.0
88.414	2.0
88.429	8.0
88.444	2.0
88.459	6.0
88.474	3.0
88.489	2.0
88.504	5.0
88.519	0.0
88.534	3.0
88.549	3.0
88.564	4.0
88.58	2.0
88.595	4.0
88.61	4.0
88.625	9.0
88.64	4.0
88.655	2.0
88.67	3.0
88.685	4.0
88.7	4.0
88.715	2.0
88.73	1.0
88.745	3.0
88.76	3.0
88.775	4.0
88.79	4.0
88.805	7.0
88.82	3.0
88.835	4.0
88.85	3.0
88.865	3.0
88.88	4.0
88.895	5.0
88.911	1.0
88.926	7.0
88.941	3.0
88.956	2.0
88.971	2.0
88.986	3.0
89.001	3.0
89.016	3.0
89.031	1.0
89.046	5.0
89.061	2.0
89.076	5.0
89.091	2.0
89.106	2.0
89.121	2.0
89.136	2.0
89.151	1.0
89.166	3.0
89.181	0.0
89.196	2.0
89.211	5.0
89.227	1.0
89.242	2.0
89.257	2.0
89.272	0.0
89.287	3.0
89.302	3.0
89.317	4.0
89.332	5.0
89.347	6.0
89.362	3.0
89.377	4.0
89.392	4.0
89.407	2.0
89.422	6.0
89.437	4.0
89.452	1.0
89.467	4.0
89.482	6.0
89.497	2.0
89.512	6.0
89.527	3.0
89.542	1.0
89.557	3.0
89.572	3.0
89.587	1.0
89.602	3.0
89.617	5.0
89.632	5.0
89.647	3.0
89.662	3.0
89.677	3.0
89.693	3.0
89.708	4.0
89.723	4.0
89.738	4.0
89.753	4.0
89.768	6.0
89.783	3.0
89.798	0.0
89.813	5.0
89.828	4.0
89.843	2.0
89.858	6.0
89.873	7.0
89.888	3.0
89.903	3.0
89.918	6.0
89.933	4.0
89.948	2.0
89.963	4.0
89.978	2.0
89.993	2.0
90.008	3.0
90.023	1.0
90.038	5.0
90.053	3.0
90.068	3.0
90.083	1.0
90.097	0.0
90.112	7.0
90.127	3.0
90.142	5.0
90.157	2.0
90.172	2.0
90.187	5.0
90.202	4.0
90.217	2.0
90.232	3.0
90.247	8.0
90.262	1.0
90.277	6.0
90.292	4.0
90.307	4.0
90.322	2.0
90.337	3.0
90.352	5.0
90.367	5.0
90.382	2.0
90.397	2.0
90.412	1.0
90.427	4.0
90.442	2.0
90.457	3.0
90.472	3.0
90.487	5.0
90.501	2.0
90.516	3.0
90.531	4.0
90.546	2.0
90.561	2.0
90.576	1.0
90.591	5.0
90.606	3.0
90.621	2.0
90.636	3.0
90.651	7.0
90.666	3.0
90.681	1.0
90.696	6.0
90.711	1.0
90.726	2.0
90.741	2.0
90.755	4.0
90.77	1.0
90.785	6.0
90.8	2.0
90.815	4.0
90.83	4.0
90.845	4.0
90.86	3.0
90.875	5.0
90.89	5.0
90.905	1.0
90.92	4.0
90.935	2.0
90.95	3.0
90.965	2.0
90.979	2.0
90.994	4.0
91.009	2.0
91.024	6.0
91.039	3.0
91.054	7.0
91.069	6.0
91.084	3.0
91.099	3.0
91.114	3.0
91.129	6.0
91.144	3.0
91.159	2.0
91.174	3.0
91.188	4.0
91.203	3.0
91.218	6.0
91.233	4.0
91.248	2.0
91.263	1.0
91.278	2.0
91.293	1.0
91.308	5.0
91.323	3.0
91.338	7.0
91.353	2.0
91.368	4.0
91.383	3.0
91.398	2.0
91.412	3.0
91.427	3.0
91.442	3.0
91.457	2.0
91.472	0.0
91.487	4.0
91.502	2.0
91.517	5.0
91.532	3.0
91.547	3.0
91.562	5.0
91.577	2.0
91.592	4.0
91.607	1.0
91.622	4.0
91.637	3.0
91.652	3.0
91.666	1.0
91.681	4.0
91.696	6.0
91.711	1.0
91.726	6.0
91.741	2.0
91.756	1.0
91.771	2.0
91.786	5.0
91.801	2.0
91.816	3.0
91.831	2.0
91.846	4.0
91.861	4.0
91.876	0.0
91.891	1.0
91.906	4.0
91.921	1.0
91.936	5.0
91.951	5.0
91.966	2.0
91.981	1.0
91.995	2.0
92.01	3.0
92.025	3.0
92.04	4.0
92.055	3.0
92.07	2.0
92.085	0.0
92.1	2.0
92.115	1.0
92.13	3.0
92.145	1.0
92.16	4.0
92.175	3.0
92.19	6.0
92.205	2.0
92.22	0.0
92.235	6.0
92.25	5.0
92.265	1.0
92.28	1.0
92.295	5.0
92.31	2.0
92.325	3.0
92.34	4.0
92.355	5.0
92.37	4.0
92.385	3.0
92.4	3.0
92.415	6.0
92.43	1.0
92.445	3.0
92.46	2.0
92.475	0.0
92.49	2.0
92.505	2.0
92.52	3.0
92.535	2.0
92.55	4.0
92.565	3.0
92.58	7.0
92.595	2.0
92.61	3.0
92.625	2.0
92.64	4.0
92.655	5.0
92.67	2.0
92.685	0.0
92.7	5.0
92.715	2.0
92.73	5.0
92.745	3.0
92.76	4.0
92.775	1.0
92.79	2.0
92.805	0.0
92.82	1.0
92.835	1.0
92.85	2.0
92.865	6.0
92.88	3.0
92.895	5.0
92.91	4.0
92.925	1.0
92.94	7.0
92.955	2.0
92.97	5.0
92.985	3.0
93.0	1.0
93.015	4.0
93.03	1.0
93.045	2.0
93.06	2.0
93.075	2.0
93.09	2.0
93.105	3.0
93.12	5.0
93.135	3.0
93.15	6.0
93.165	2.0
93.18	1.0
93.195	1.0
93.21	6.0
93.225	1.0
93.24	3.0
93.255	5.0
93.27	4.0
93.285	2.0
93.3	9.0
93.315	2.0
93.33	5.0
93.345	6.0
93.36	4.0
93.375	2.0
93.39	4.0
93.405	3.0
93.42	3.0
93.435	5.0
93.45	2.0
93.465	3.0
93.48	2.0
93.495	5.0
93.51	1.0
93.525	1.0
93.54	4.0
93.555	3.0
93.57	3.0
93.585	11.0
93.6	1.0
93.615	0.0
93.63	1.0
93.645	4.0
93.66	3.0
93.675	2.0
93.69	6.0
93.705	6.0
93.72	3.0
93.735	2.0
93.75	3.0
93.765	1.0
93.78	5.0
93.795	5.0
93.81	2.0
93.824	1.0
93.839	2.0
93.854	1.0
93.869	2.0
93.884	5.0
93.899	2.0
93.914	3.0
93.929	3.0
93.944	5.0
93.959	1.0
93.974	4.0
93.989	2.0
94.004	4.0
94.019	2.0
94.034	2.0
94.049	1.0
94.064	4.0
94.079	4.0
94.094	1.0
94.108	6.0
94.123	4.0
94.138	3.0
94.153	4.0
94.168	2.0
94.183	1.0
94.198	4.0
94.213	2.0
94.228	2.0
94.243	2.0
94.258	5.0
94.273	2.0
94.288	3.0
94.302	2.0
94.317	4.0
94.332	2.0
94.347	2.0
94.362	2.0
94.377	10.0
94.392	2.0
94.407	7.0
94.422	2.0
94.437	7.0
94.452	6.0
94.466	3.0
94.481	2.0
94.496	3.0
94.511	9.0
94.526	1.0
94.541	5.0
94.556	1.0
94.571	6.0
94.586	2.0
94.601	3.0
94.615	6.0
94.63	4.0
94.645	5.0
94.66	6.0
94.675	2.0
94.69	5.0
94.705	3.0
94.72	3.0
94.735	0.0
94.749	2.0
94.764	4.0
94.779	1.0
94.794	1.0
94.809	1.0
94.824	5.0
94.839	5.0
94.854	3.0
94.868	2.0
94.883	6.0
94.898	5.0
94.913	3.0
94.928	1.0
94.943	6.0
94.958	4.0
94.973	3.0
94.987	3.0
95.002	5.0
95.017	3.0
95.032	2.0
95.047	3.0
95.062	1.0
95.077	2.0
95.092	7.0
95.106	4.0
95.121	8.0
95.136	5.0
95.151	2.0
95.166	3.0
95.181	3.0
95.196	4.0
95.211	3.0
95.226	1.0
95.24	6.0
95.255	5.0
95.27	4.0
95.285	6.0
95.3	8.0
95.315	5.0
95.33	5.0
95.345	1.0
95.359	2.0
95.374	5.0
95.389	3.0
95.404	1.0
95.419	5.0
95.434	2.0
95.449	3.0
95.464	7.0
95.478	2.0
95.493	3.0
95.508	1.0
95.523	4.0
95.538	5.0
95.553	3.0
95.568	3.0
95.583	4.0
95.597	5.0
95.612	2.0
95.627	3.0
95.642	3.0
95.657	3.0
95.672	5.0
95.687	3.0
95.702	1.0
95.717	0.0
95.731	4.0
95.746	3.0
95.761	4.0
95.776	0.0
95.791	1.0
95.806	1.0
95.821	3.0
95.836	5.0
95.851	2.0
95.866	7.0
95.88	0.0
95.895	4.0
95.91	4.0
95.925	10.0
95.94	3.0
95.955	0.0
95.97	1.0
95.985	6.0
96.0	3.0
96.015	4.0
96.029	2.0
96.044	3.0
96.059	3.0
96.074	6.0
96.089	3.0
96.104	4.0
96.119	4.0
96.134	1.0
96.149	3.0
96.164	1.0
96.179	1.0
96.194	4.0
96.208	1.0
96.223	2.0
96.238	7.0
96.253	3.0
96.268	0.0
96.283	2.0
96.298	1.0
96.313	3.0
96.328	3.0
96.343	2.0
96.358	1.0
96.373	7.0
96.388	6.0
96.403	4.0
96.417	2.0
96.432	1.0
96.447	5.0
96.462	4.0
96.477	5.0
96.492	3.0
96.507	6.0
96.522	3.0
96.537	6.0
96.552	6.0
96.567	4.0
96.582	6.0
96.597	1.0
96.612	4.0
96.627	3.0
96.642	2.0
96.656	1.0
96.671	2.0
96.686	3.0
96.701	3.0
96.716	2.0
96.731	1.0
96.746	1.0
96.761	7.0
96.776	2.0
96.791	2.0
96.806	1.0
96.821	2.0
96.836	4.0
96.851	4.0
96.866	1.0
96.881	5.0
96.896	3.0
96.911	5.0
96.926	7.0
96.94	2.0
96.955	6.0
96.97	6.0
96.985	3.0
97.0	8.0
97.015	1.0
97.03	4.0
97.045	4.0
97.06	6.0
97.075	5.0
97.09	2.0
97.105	1.0
97.12	3.0
97.135	6.0
97.15	1.0
97.165	2.0
97.18	5.0
97.195	1.0
97.21	3.0
97.225	3.0
97.239	1.0
97.254	1.0
97.269	0.0
97.284	6.0
97.299	3.0
97.314	5.0
97.329	2.0
97.344	2.0
97.359	3.0
97.374	1.0
97.389	2.0
97.404	3.0
97.419	1.0
97.434	1.0
97.449	1.0
97.464	1.0
97.479	5.0
97.494	1.0
97.509	4.0
97.524	0.0
97.538	2.0
97.553	1.0
97.568	3.0
97.583	1.0
97.598	4.0
97.613	1.0
97.628	2.0
97.643	3.0
97.658	6.0
97.673	4.0
97.688	3.0
97.703	5.0
97.718	3.0
97.733	2.0
97.748	5.0
97.763	3.0
97.778	6.0
97.792	4.0
97.807	7.0
97.822	3.0
97.837	3.0
97.852	2.0
97.867	4.0
97.882	1.0
97.897	4.0
97.912	5.0
97.927	6.0
97.942	1.0
97.957	2.0
97.972	6.0
97.987	2.0
98.001	3.0
98.016	4.0
98.031	1.0
98.046	5.0
98.061	3.0
98.076	6.0
98.091	2.0
98.106	0.0
98.121	4.0
98.136	6.0
98.151	3.0
98.166	1.0
98.181	2.0
98.195	4.0
98.21	2.0
98.225	6.0
98.24	1.0
98.255	5.0
98.27	0.0
98.285	4.0
98.3	4.0
98.315	5.0
98.33	3.0
98.345	2.0
98.359	2.0
98.374	4.0
98.389	2.0
98.404	3.0
98.419	3.0
98.434	3.0
98.449	2.0
98.464	1.0
98.479	1.0
98.494	3.0
98.508	5.0
98.523	1.0
98.538	2.0
98.553	4.0
98.568	1.0
98.583	0.0
98.598	1.0
98.613	4.0
98.628	3.0
98.642	5.0
98.657	5.0
98.672	6.0
98.687	4.0
98.702	1.0
98.717	3.0
98.732	2.0
98.747	1.0
98.762	3.0
98.776	2.0
98.791	1.0
98.806	3.0
98.821	2.0
98.836	4.0
98.851	2.0
98.866	2.0
98.881	0.0
98.896	1.0
98.91	6.0
98.925	2.0
98.94	2.0
98.955	5.0
98.97	6.0
98.985	1.0
99.0	3.0
99.015	0.0
99.029	5.0
99.044	2.0
99.059	4.0
99.074	7.0
99.089	4.0
99.104	3.0
99.119	2.0
99.133	6.0
99.148	4.0
99.163	4.0
99.178	2.0
99.193	2.0
99.208	5.0
99.223	1.0
99.238	0.0
99.252	2.0
99.267	2.0
99.282	2.0
99.297	3.0
99.312	1.0
99.327	4.0
99.342	3.0
99.356	3.0
99.371	4.0
99.386	3.0
99.401	1.0
99.416	6.0
99.431	6.0
99.446	0.0
99.461	7.0
99.475	1.0
99.49	3.0
99.505	4.0
99.52	3.0
99.535	2.0
99.55	4.0
99.565	1.0
99.579	7.0
99.594	3.0
99.609	2.0
99.624	4.0
99.639	2.0
99.654	5.0
99.669	3.0
99.683	3.0
99.698	2.0
99.713	2.0
99.728	4.0
99.743	3.0
99.758	4.0
99.772	4.0
99.787	3.0
99.802	2.0
99.817	2.0
99.832	3.0
99.847	8.0
99.862	5.0
99.876	4.0
99.891	2.0
99.906	5.0
99.921	4.0
99.936	4.0
99.951	1.0
99.966	2.0
99.98	4.0
99.995	1.0
100.01	6.0
100.025	2.0
100.04	7.0
100.055	3.0
100.069	3.0
100.084	2.0
100.099	5.0
100.114	1.0
100.129	5.0
100.144	3.0
100.159	5.0
100.173	3.0
100.188	0.0
100.203	2.0
100.218	1.0
100.233	1.0
100.248	6.0
100.262	5.0
100.277	7.0
100.292	6.0
100.307	5.0
100.322	4.0
100.337	3.0
100.351	3.0
100.366	8.0
100.381	6.0
100.396	1.0
100.411	5.0
100.426	5.0
100.441	3.0
100.455	8.0
100.47	1.0
100.485	4.0
100.5	4.0
100.515	4.0
100.53	6.0
100.544	4.0
100.559	2.0
100.574	3.0
100.589	1.0
100.604	3.0
100.619	1.0
100.633	3.0
100.648	1.0
100.663	4.0
100.678	3.0
100.693	5.0
100.708	1.0
100.722	3.0
100.737	2.0
100.752	5.0
100.767	3.0
100.782	5.0
100.796	7.0
100.811	3.0
100.826	1.0
100.841	3.0
100.856	4.0
100.871	1.0
100.885	4.0
100.9	4.0
100.915	4.0
100.93	5.0
100.945	3.0
100.96	1.0
100.974	2.0
100.989	3.0
101.004	2.0
101.019	5.0
101.034	4.0
101.048	3.0
101.063	4.0
101.078	4.0
101.093	3.0
101.108	4.0
101.123	4.0
101.137	4.0
101.152	4.0
101.167	6.0
101.182	3.0
101.197	4.0
101.211	4.0
101.226	4.0
101.241	2.0
101.256	5.0
101.271	2.0
101.285	2.0
101.3	5.0
101.315	4.0
101.33	2.0
101.345	2.0
101.359	6.0
101.374	1.0
101.389	1.0
101.404	7.0
101.419	2.0
101.433	3.0
101.448	1.0
101.463	5.0
101.478	2.0
101.493	4.0
101.507	3.0
101.522	2.0
101.537	3.0
101.552	0.0
101.567	2.0
101.581	6.0
101.596	5.0
101.611	2.0
101.626	6.0
101.64	1.0
101.655	2.0
101.67	2.0
101.685	4.0
101.7	0.0
101.714	2.0
101.729	2.0
101.744	7.0
101.759	3.0
101.773	4.0
101.788	3.0
101.803	4.0
101.818	3.0
101.833	4.0
101.847	4.0
101.862	3.0
101.877	6.0
101.892	2.0
101.906	3.0
101.921	4.0
101.936	5.0
101.951	1.0
101.965	6.0
101.98	2.0
101.995	4.0
102.01	3.0
102.025	7.0
102.039	3.0
102.054	4.0
102.069	2.0
102.084	1.0
102.098	7.0
102.113	5.0
102.128	2.0
102.143	4.0
102.157	2.0
102.172	7.0
102.187	5.0
102.202	6.0
102.216	2.0
102.231	4.0
102.246	2.0
102.261	8.0
102.275	1.0
102.29	5.0
102.305	0.0
102.32	5.0
102.334	1.0
102.349	0.0
102.364	3.0
102.378	4.0
102.393	7.0
102.408	6.0
102.423	3.0
102.437	2.0
102.452	5.0
102.467	5.0
102.482	5.0
102.496	8.0
102.511	2.0
102.526	1.0
102.541	2.0
102.555	4.0
102.57	2.0
102.585	8.0
102.6	1.0
102.614	3.0
102.629	1.0
102.644	3.0
102.659	6.0
102.673	4.0
102.688	3.0
102.703	3.0
102.717	6.0
102.732	2.0
102.747	4.0
102.762	3.0
102.776	7.0
102.791	5.0
102.806	0.0
102.821	5.0
102.835	5.0
102.85	2.0
102.865	3.0
102.88	1.0
102.894	3.0
102.909	11.0
102.924	7.0
102.938	2.0
102.953	2.0
102.968	5.0
102.983	6.0
102.997	5.0
103.012	4.0
103.027	7.0
103.042	3.0
103.056	6.0
103.071	4.0
103.086	2.0
103.101	4.0
103.115	1.0
103.13	3.0
103.145	2.0
103.16	5.0
103.174	6.0
103.189	6.0
103.204	3.0
103.219	0.0
103.233	3.0
103.248	4.0
103.263	4.0
103.278	5.0
103.292	5.0
103.307	4.0
103.322	2.0
103.337	5.0
103.351	4.0
103.366	4.0
103.381	6.0
103.396	2.0
103.41	2.0
103.425	2.0
103.44	2.0
103.455	6.0
103.469	3.0
103.484	5.0
103.499	3.0
103.514	2.0
103.529	1.0
103.543	3.0
103.558	3.0
103.573	2.0
103.588	2.0
103.602	3.0
103.617	6.0
103.632	0.0
103.647	3.0
103.661	3.0
103.676	3.0
103.691	0.0
103.706	1.0
103.721	5.0
103.735	1.0
103.75	4.0
103.765	2.0
103.78	1.0
103.795	4.0
103.809	4.0
103.824	4.0
103.839	3.0
103.854	2.0
103.869	1.0
103.883	7.0
103.898	0.0
103.913	5.0
103.928	1.0
103.943	1.0
103.957	0.0
103.972	4.0
103.987	6.0
104.002	3.0
104.017	1.0
104.031	3.0
104.046	4.0
104.061	3.0
104.076	2.0
104.091	3.0
104.106	2.0
104.12	1.0
104.135	0.0
104.15	5.0
104.165	4.0
104.18	4.0
104.195	5.0
104.209	0.0
104.224	3.0
104.239	1.0
104.254	1.0
104.269	3.0
104.284	2.0
104.299	2.0
104.313	4.0
104.328	1.0
104.343	2.0
104.358	11.0
104.373	2.0
104.388	0.0
104.403	3.0
104.417	3.0
104.432	1.0
104.447	1.0
104.462	3.0
104.477	1.0
104.492	2.0
104.507	7.0
104.522	4.0
104.536	3.0
104.551	6.0
104.566	3.0
104.581	3.0
104.596	5.0
104.611	5.0
104.626	7.0
104.641	4.0
104.656	3.0
104.67	0.0
104.685	4.0
104.7	4.0
104.715	3.0
104.73	2.0
104.745	3.0
104.76	3.0
104.775	6.0
104.79	2.0
104.804	3.0
104.819	5.0
104.834	3.0
104.849	1.0
104.864	4.0
104.879	2.0
104.894	4.0
104.909	5.0
104.924	4.0
104.939	1.0
104.954	1.0
104.968	5.0
104.983	2.0
104.998	2.0
105.013	5.0
105.028	1.0
105.043	1.0
105.058	3.0
105.073	4.0
105.088	5.0
105.103	5.0
105.118	1.0
105.133	2.0
105.147	1.0
105.162	4.0
105.177	2.0
105.192	2.0
105.207	1.0
105.222	4.0
105.237	1.0
105.252	2.0
105.267	2.0
105.282	3.0
105.297	3.0
105.312	4.0
105.327	1.0
105.342	4.0
105.356	2.0
105.371	3.0
105.386	2.0
105.401	0.0
105.416	2.0
105.431	4.0
105.446	2.0
105.461	2.0
105.476	1.0
105.491	2.0
105.506	1.0
105.521	1.0
105.536	2.0
105.551	3.0
105.566	2.0
105.581	5.0
105.595	3.0
105.61	5.0
105.625	3.0
105.64	4.0
105.655	5.0
105.67	2.0
105.685	5.0
105.7	0.0
105.715	4.0
105.73	1.0
105.745	1.0
105.76	2.0
105.775	3.0
105.79	4.0
105.805	4.0
105.82	2.0
105.835	2.0
105.85	2.0
105.864	2.0
105.879	3.0
105.894	3.0
105.909	3.0
105.924	3.0
105.939	3.0
105.954	0.0
105.969	4.0
105.984	3.0
105.999	2.0
106.014	4.0
106.029	3.0
106.044	1.0
106.059	7.0
106.074	4.0
106.089	6.0
106.104	3.0
106.119	6.0
106.134	1.0
106.148	2.0
106.163	2.0
106.178	6.0
106.193	2.0
106.208	2.0
106.223	5.0
106.238	4.0
106.253	4.0
106.268	4.0
106.283	1.0
106.298	3.0
106.313	1.0
106.328	2.0
106.343	5.0
106.358	2.0
106.373	6.0
106.388	5.0
106.403	3.0
106.418	3.0
106.432	3.0
106.447	2.0
106.462	4.0
106.477	2.0
106.492	3.0
106.507	4.0
106.522	1.0
106.537	1.0
106.552	3.0
106.567	1.0
106.582	4.0
106.597	3.0
106.612	4.0
106.627	2.0
106.642	2.0
106.657	3.0
106.672	3.0
106.687	2.0
106.701	4.0
106.716	1.0
106.731	0.0
106.746	1.0
106.761	3.0
106.776	2.0
106.791	8.0
106.806	1.0
106.821	4.0
106.836	5.0
106.851	1.0
106.866	4.0
106.881	3.0
106.896	3.0
106.911	5.0
106.926	5.0
106.941	1.0
106.955	4.0
106.97	5.0
106.985	3.0
107.0	4.0
107.015	7.0
107.03	4.0
107.045	3.0
107.06	9.0
107.075	3.0
107.09	2.0
107.105	4.0
107.12	2.0
107.135	1.0
107.15	3.0
107.165	8.0
107.18	6.0
107.194	5.0
107.209	6.0
107.224	4.0
107.239	4.0
107.254	5.0
107.269	5.0
107.284	4.0
107.299	2.0
107.314	3.0
107.329	5.0
107.344	3.0
107.359	5.0
107.374	5.0
107.389	3.0
107.404	4.0
107.418	6.0
107.433	3.0
107.448	5.0
107.463	0.0
107.478	3.0
107.493	4.0
107.508	3.0
107.523	1.0
107.538	3.0
107.553	5.0
107.568	9.0
107.583	2.0
107.598	3.0
107.613	7.0
107.627	3.0
107.642	4.0
107.657	5.0
107.672	4.0
107.687	5.0
107.702	2.0
107.717	1.0
107.732	2.0
107.747	1.0
107.762	7.0
107.777	0.0
107.792	2.0
107.807	4.0
107.821	5.0
107.836	3.0
107.851	5.0
107.866	5.0
107.881	3.0
107.896	3.0
107.911	4.0
107.926	1.0
107.941	1.0
107.956	3.0
107.971	7.0
107.986	2.0
108.0	6.0
108.015	3.0
108.03	5.0
108.045	5.0
108.06	6.0
108.075	5.0
108.09	8.0
108.105	3.0
108.12	7.0
108.135	6.0
108.15	3.0
108.164	2.0
108.179	4.0
108.194	7.0
108.209	1.0
108.224	2.0
108.239	2.0
108.254	2.0
108.269	5.0
108.284	6.0
108.299	3.0
108.313	2.0
108.328	4.0
108.343	5.0
108.358	4.0
108.373	4.0
108.388	2.0
108.403	1.0
108.418	2.0
108.433	3.0
108.448	4.0
108.462	0.0
108.477	5.0
108.492	5.0
108.507	4.0
108.522	5.0
108.537	2.0
108.552	4.0
108.567	4.0
108.582	1.0
108.597	4.0
108.611	2.0
108.626	2.0
108.641	3.0
108.656	3.0
108.671	6.0
108.686	3.0
108.701	3.0
108.716	5.0
108.731	3.0
108.745	4.0
108.76	2.0
108.775	4.0
108.79	2.0
108.805	3.0
108.82	3.0
108.835	4.0
108.85	3.0
108.865	5.0
108.879	4.0
108.894	2.0
108.909	5.0
108.924	5.0
108.939	4.0
108.954	0.0
108.969	6.0
108.984	4.0
108.999	3.0
109.013	2.0
109.028	5.0
109.043	3.0
109.058	6.0
109.073	4.0
109.088	4.0
109.103	2.0
109.118	3.0
109.133	1.0
109.147	3.0
109.162	3.0
109.177	6.0
109.192	2.0
109.207	3.0
109.222	3.0
109.237	1.0
109.252	6.0
109.267	3.0
109.281	3.0
109.296	4.0
109.311	2.0
109.326	2.0
109.341	2.0
109.356	2.0
109.371	1.0
109.386	2.0
109.4	5.0
109.415	3.0
109.43	4.0
109.445	5.0
109.46	4.0
109.475	2.0
109.49	4.0
109.505	1.0
109.52	1.0
109.534	1.0
109.549	4.0
109.564	7.0
109.579	4.0
109.594	2.0
109.609	4.0
109.624	5.0
109.639	4.0
109.653	2.0
109.668	1.0
109.683	3.0
109.698	2.0
109.713	3.0
109.728	1.0
109.743	3.0
109.758	1.0
109.773	1.0
109.787	0.0
109.802	2.0
109.817	4.0
109.832	8.0
109.847	4.0
109.862	4.0
109.877	4.0
109.892	4.0
109.907	5.0
109.921	1.0
109.936	3.0
109.951	2.0
109.966	4.0
109.981	2.0
109.996	4.0
110.011	2.0
110.026	7.0
110.04	1.0
110.055	2.0
110.07	5.0
110.085	2.0
110.1	2.0
110.115	2.0
110.13	1.0
110.145	1.0
110.16	3.0
110.174	4.0
110.189	2.0
110.204	2.0
110.219	4.0
110.234	4.0
110.249	3.0
110.264	4.0
110.279	4.0
110.294	5.0
110.308	2.0
110.323	0.0
110.338	4.0
110.353	4.0
110.368	1.0
110.383	2.0
110.398	1.0
110.413	4.0
110.428	5.0
110.442	5.0
110.457	3.0
110.472	4.0
110.487	5.0
110.502	2.0
110.517	7.0
110.532	2.0
110.547	4.0
110.561	4.0
110.576	2.0
110.591	4.0
110.606	5.0
110.621	2.0
110.636	2.0
110.651	4.0
110.666	5.0
110.681	4.0
110.695	1.0
110.71	4.0
110.725	8.0
110.74	3.0
110.755	3.0
110.77	4.0
110.785	4.0
110.8	4.0
110.815	2.0
110.829	1.0
110.844	3.0
110.859	3.0
110.874	3.0
110.889	5.0
110.904	1.0
110.919	3.0
110.934	1.0
110.948	1.0
110.963	2.0
110.978	3.0
110.993	1.0
111.008	0.0
111.023	4.0
111.038	4.0
111.053	7.0
111.067	1.0
111.082	3.0
111.097	2.0
111.112	3.0
111.127	3.0
111.142	5.0
111.157	5.0
111.172	1.0
111.186	2.0
111.201	5.0
111.216	3.0
111.231	6.0
111.246	2.0
111.261	3.0
111.276	2.0
111.291	4.0
111.305	6.0
111.32	5.0
111.335	6.0
111.35	2.0
111.365	3.0
111.38	3.0
111.395	2.0
111.41	5.0
111.424	2.0
111.439	4.0
111.454	4.0
111.469	2.0
111.484	3.0
111.499	5.0
111.514	1.0
111.528	1.0
111.543	3.0
111.558	5.0
111.573	5.0
111.588	5.0
111.603	7.0
111.618	5.0
111.633	5.0
111.647	3.0
111.662	4.0
111.677	4.0
111.692	2.0
111.707	2.0
111.722	5.0
111.737	5.0
111.751	3.0
111.766	5.0
111.781	4.0
111.796	2.0
111.811	2.0
111.826	1.0
111.84	6.0
111.855	3.0
111.87	4.0
111.885	3.0
111.9	0.0
111.915	5.0
111.93	1.0
111.944	6.0
111.959	3.0
111.974	3.0
111.989	1.0
112.004	3.0
112.019	1.0
112.033	4.0
112.048	1.0
112.063	2.0
112.078	3.0
112.093	2.0
112.108	4.0
112.123	5.0
112.137	1.0
112.152	5.0
112.167	1.0
112.182	1.0
112.197	4.0
112.212	1.0
112.226	2.0
112.241	3.0
112.256	5.0
112.271	2.0
112.286	2.0
112.301	3.0
112.315	5.0
112.33	3.0
112.345	5.0
112.36	4.0
112.375	0.0
112.389	4.0
112.404	4.0
112.419	2.0
112.434	2.0
112.449	1.0
112.464	4.0
112.478	5.0
112.493	8.0
112.508	5.0
112.523	3.0
112.538	2.0
112.553	3.0
112.567	6.0
112.582	3.0
112.597	3.0
112.612	1.0
112.627	1.0
112.642	4.0
112.656	1.0
112.671	5.0
112.686	3.0
112.701	6.0
112.716	3.0
112.73	2.0
112.745	4.0
112.76	1.0
112.775	5.0
112.79	8.0
112.805	2.0
112.819	2.0
112.834	3.0
112.849	3.0
112.864	4.0
112.879	4.0
112.894	2.0
112.908	2.0
112.923	4.0
112.938	1.0
112.953	7.0
112.968	2.0
112.983	1.0
112.997	3.0
113.012	4.0
113.027	2.0
113.042	4.0
113.057	1.0
113.072	5.0
113.086	4.0
113.101	0.0
113.116	2.0
113.131	2.0
113.146	3.0
113.161	8.0
113.175	5.0
113.19	4.0
113.205	1.0
113.22	3.0
113.235	6.0
113.25	7.0
113.265	0.0
113.279	6.0
113.294	0.0
113.309	1.0
113.324	1.0
113.339	1.0
113.354	4.0
113.368	5.0
113.383	1.0
113.398	7.0
113.413	1.0
113.428	9.0
113.443	7.0
113.458	5.0
113.472	1.0
113.487	2.0
113.502	3.0
113.517	2.0
113.532	4.0
113.547	2.0
113.562	4.0
113.576	2.0
113.591	4.0
113.606	3.0
113.621	3.0
113.636	5.0
113.651	2.0
113.666	9.0
113.681	4.0
113.695	4.0
113.71	1.0
113.725	4.0
113.74	5.0
113.755	7.0
113.77	5.0
113.785	1.0
113.8	4.0
113.814	2.0
113.829	5.0
113.844	8.0
113.859	1.0
113.874	3.0
113.889	5.0
113.904	3.0
113.919	4.0
113.934	1.0
113.949	4.0
113.963	4.0
113.978	3.0
113.993	5.0
114.008	4.0
114.023	2.0
114.038	2.0
114.053	1.0
114.068	5.0
114.083	3.0
114.098	3.0
114.113	0.0
114.127	4.0
114.142	3.0
114.157	3.0
114.172	5.0
114.187	3.0
114.202	3.0
114.217	6.0
114.232	1.0
114.247	4.0
114.262	4.0
114.277	2.0
114.292	3.0
114.307	1.0
114.322	3.0
114.337	3.0
114.351	3.0
114.366	3.0
114.381	7.0
114.396	3.0
114.411	3.0
114.426	3.0
114.441	3.0
114.456	5.0
114.471	8.0
114.486	3.0
114.501	4.0
114.516	0.0
114.531	1.0
114.546	5.0
114.561	2.0
114.576	2.0
114.591	2.0
114.606	6.0
114.621	5.0
114.636	3.0
114.65	6.0
114.665	4.0
114.68	1.0
114.695	2.0
114.71	3.0
114.725	8.0
114.74	3.0
114.755	4.0
114.77	4.0
114.785	2.0
114.8	2.0
114.815	2.0
114.83	2.0
114.845	2.0
114.86	6.0
114.875	3.0
114.89	3.0
114.905	2.0
114.92	2.0
114.935	5.0
114.95	0.0
114.965	1.0
114.98	4.0
114.995	3.0
115.009	5.0
115.024	4.0
115.039	2.0
115.054	4.0
115.069	5.0
115.084	0.0
115.099	4.0
115.114	2.0
115.129	2.0
115.144	5.0
115.159	2.0
115.174	6.0
115.189	3.0
115.204	8.0
115.219	3.0
115.234	8.0
115.249	2.0
115.264	2.0
115.279	3.0
115.294	3.0
115.309	1.0
115.323	1.0
115.338	7.0
115.353	5.0
115.368	3.0
115.383	5.0
115.398	7.0
115.413	4.0
115.428	4.0
115.443	4.0
115.458	6.0
115.473	2.0
115.488	4.0
115.503	1.0
115.518	5.0
115.533	3.0
115.548	4.0
115.562	4.0
115.577	1.0
115.592	6.0
115.607	5.0
115.622	2.0
115.637	2.0
115.652	2.0
115.667	4.0
115.682	4.0
115.697	2.0
115.712	3.0
115.727	4.0
115.741	4.0
115.756	0.0
115.771	4.0
115.786	3.0
115.801	5.0
115.816	2.0
115.831	3.0
115.846	3.0
115.861	5.0
115.875	4.0
115.89	2.0
115.905	4.0
115.92	3.0
115.935	4.0
115.95	1.0
115.965	6.0
115.98	4.0
115.995	1.0
116.009	4.0
116.024	2.0
116.039	4.0
116.054	2.0
116.069	4.0
116.084	4.0
116.099	3.0
116.113	6.0
116.128	5.0
116.143	3.0
116.158	6.0
116.173	1.0
116.188	2.0
116.202	1.0
116.217	2.0
116.232	5.0
116.247	3.0
116.262	4.0
116.277	3.0
116.291	5.0
116.306	3.0
116.321	9.0
116.336	7.0
116.351	2.0
116.366	3.0
116.38	5.0
116.395	5.0
116.41	4.0
116.425	0.0
116.44	6.0
116.454	3.0
116.469	6.0
116.484	1.0
116.499	3.0
116.514	3.0
116.528	1.0
116.543	5.0
116.558	1.0
116.573	3.0
116.588	2.0
116.602	6.0
116.617	2.0
116.632	2.0
116.647	5.0
116.662	2.0
116.676	1.0
116.691	5.0
116.706	6.0
116.721	6.0
116.735	5.0
116.75	4.0
116.765	4.0
116.78	1.0
116.795	1.0
116.809	6.0
116.824	3.0
116.839	3.0
116.854	4.0
116.868	2.0
116.883	4.0
116.898	4.0
116.913	0.0
116.927	3.0
116.942	5.0
116.957	0.0
116.972	9.0
116.986	5.0
117.001	2.0
117.016	2.0
117.031	5.0
117.045	5.0
117.06	3.0
117.075	2.0
117.09	9.0
117.104	5.0
117.119	3.0
117.134	2.0
117.149	2.0
117.163	5.0
117.178	7.0
117.193	3.0
117.208	5.0
117.222	1.0
117.237	5.0
117.252	1.0
117.267	2.0
117.281	5.0
117.296	6.0
117.311	8.0
117.325	4.0
117.34	5.0
117.355	3.0
117.37	5.0
117.384	3.0
117.399	6.0
117.414	4.0
117.429	3.0
117.443	4.0
117.458	4.0
117.473	3.0
117.487	5.0
117.502	2.0
117.517	5.0
117.532	2.0
117.546	5.0
117.561	5.0
117.576	6.0
117.59	2.0
117.605	3.0
117.62	5.0
117.635	10.0
117.649	7.0
117.664	1.0
117.679	3.0
117.693	4.0
117.708	1.0
117.723	2.0
117.738	2.0
117.752	1.0
117.767	2.0
117.782	3.0
117.796	3.0
117.811	3.0
117.826	5.0
117.841	3.0
117.855	7.0
117.87	1.0
117.885	1.0
117.899	5.0
117.914	2.0
117.929	3.0
117.944	4.0
117.958	2.0
117.973	6.0
117.988	2.0
118.002	3.0
118.017	0.0
118.032	2.0
118.047	4.0
118.062	4.0
118.077	4.0
118.092	5.0
118.107	6.0
118.121	4.0
118.136	6.0
118.151	3.0
118.166	3.0
118.181	5.0
118.196	4.0
118.211	5.0
118.225	3.0
118.24	6.0
118.255	3.0
118.27	5.0
118.285	4.0
118.3	6.0
118.315	5.0
118.33	1.0
118.344	4.0
118.359	4.0
118.374	3.0
118.389	4.0
118.404	2.0
118.419	1.0
118.434	2.0
118.449	4.0
118.463	2.0
118.478	5.0
118.493	2.0
118.508	2.0
118.523	3.0
118.538	2.0
118.553	2.0
118.567	1.0
118.582	4.0
118.597	2.0
118.612	5.0
118.627	3.0
118.642	1.0
118.657	1.0
118.672	3.0
118.686	5.0
118.701	3.0
118.716	2.0
118.731	3.0
118.746	4.0
118.761	0.0
118.776	3.0
118.791	3.0
118.805	3.0
118.82	4.0
118.835	0.0
118.85	2.0
118.865	2.0
118.88	2.0
118.895	1.0
118.909	4.0
118.924	3.0
118.939	6.0
118.954	4.0
118.969	1.0
118.984	2.0
118.999	5.0
119.014	4.0
119.028	2.0
119.043	3.0
119.058	1.0
119.073	5.0
119.088	2.0
119.103	4.0
119.118	3.0
119.133	3.0
119.147	1.0
119.162	3.0
119.177	4.0
119.192	2.0
119.207	4.0
119.222	3.0
119.237	5.0
119.251	4.0
119.266	5.0
119.281	1.0
119.296	1.0
119.311	2.0
119.326	5.0
119.341	9.0
119.356	3.0
119.37	10.0
119.385	8.0
119.4	4.0
119.415	3.0
119.43	3.0
119.445	6.0
119.46	6.0
119.475	4.0
119.489	7.0
119.504	5.0
119.519	5.0
119.534	7.0
119.549	5.0
119.564	3.0
119.579	2.0
119.593	4.0
119.608	2.0
119.623	2.0
119.638	8.0
119.653	2.0
119.668	3.0
119.683	4.0
119.698	3.0
119.712	2.0
119.727	2.0
119.742	7.0
119.757	1.0
119.772	8.0
119.787	0.0
119.802	0.0
119.817	5.0
119.831	3.0
119.846	2.0
119.861	0.0
119.876	2.0
119.891	3.0
119.906	4.0
119.921	2.0
119.935	3.0
119.95	2.0
119.965	4.0
119.98	4.0
119.995	2.0
120.01	2.0
120.025	3.0
120.04	3.0
120.054	0.0
120.069	0.0
120.084	1.0
120.099	0.0
120.114	3.0
120.129	0.0
120.144	0.0
120.159	4.0
120.173	2.0
120.188	1.0
120.203	3.0
120.218	3.0
120.233	2.0
120.248	0.0
120.263	0.0
120.277	0.0
120.292	1.0
120.307	0.0
120.322	0.0
120.337	0.0
120.352	0.0
120.367	0.0
120.382	0.0
120.396	0.0
120.411	0.0
120.426	0.0
120.441	0.0
120.456	0.0
120.471	0.0
120.486	1.0
120.501	0.0
120.515	0.0
120.53	0.0
120.545	0.0
120.56	0.0
120.575	0.0
120.59	0.0
120.605	0.0
120.619	0.0
120.634	0.0
120.649	0.0
120.664	1.0
120.679	0.0
120.694	1.0
120.709	0.0
120.724	0.0
120.738	0.0
120.753	0.0
120.768	0.0
120.783	1.0
120.798	0.0
120.813	0.0
120.828	0.0
120.843	0.0
120.857	0.0
120.872	0.0
120.887	0.0
120.902	0.0
120.917	0.0
120.932	0.0
120.947	0.0
120.961	0.0
120.976	0.0
