-1.217	1.0
-1.202	0.0
-1.187	0.0
-1.172	0.0
-1.157	0.0
-1.142	0.0
-1.128	0.0
-1.113	0.0
-1.098	0.0
-1.083	0.0
-1.068	0.0
-1.054	0.0
-1.039	0.0
-1.024	0.0
-1.009	0.0
-0.994	0.0
-0.979	0.0
-0.965	0.0
-0.95	0.0
-0.935	0.0
-0.92	0.0
-0.905	0.0
-0.891	0.0
-0.876	0.0
-0.861	0.0
-0.846	0.0
-0.831	0.0
-0.816	0.0
-0.802	0.0
-0.787	0.0
-0.772	1.0
-0.757	0.0
-0.742	0.0
-0.728	0.0
-0.713	0.0
-0.698	0.0
-0.683	0.0
-0.668	0.0
-0.653	0.0
-0.639	0.0
-0.624	0.0
-0.609	0.0
-0.594	0.0
-0.579	0.0
-0.565	0.0
-0.55	0.0
-0.535	0.0
-0.52	0.0
-0.505	0.0
-0.49	0.0
-0.476	0.0
-0.461	0.0
-0.446	0.0
-0.431	0.0
-0.416	0.0
-0.401	0.0
-0.387	0.0
-0.372	0.0
-0.357	0.0
-0.342	1.0
-0.327	0.0
-0.313	0.0
-0.298	0.0
-0.283	0.0
-0.268	0.0
-0.253	0.0
-0.238	0.0
-0.224	0.0
-0.209	0.0
-0.194	0.0
-0.179	0.0
-0.164	0.0
-0.15	0.0
-0.135	0.0
-0.12	0.0
-0.105	0.0
-0.09	0.0
-0.075	0.0
-0.061	0.0
-0.046	0.0
-0.031	0.0
-0.016	0.0
-0.001	0.0
0.013	0.0
0.028	0.0
0.043	0.0
0.058	0.0
0.073	0.0
0.088	0.0
0.102	0.0
0.117	0.0
0.132	0.0
0.147	0.0
0.162	0.0
0.176	0.0
0.191	0.0
0.206	0.0
0.221	0.0
0.236	0.0
0.251	0.0
0.265	0.0
0.28	0.0
0.295	0.0
0.31	0.0
0.325	1.0
0.339	0.0
0.354	0.0
0.369	0.0
0.384	0.0
0.399	0.0
0.414	0.0
0.428	0.0
0.443	0.0
0.458	0.0
0.473	0.0
0.488	0.0
0.502	0.0
0.517	0.0
0.532	0.0
0.547	0.0
0.562	0.0
0.577	0.0
0.591	0.0
0.606	0.0
0.621	0.0
0.636	0.0
0.651	0.0
0.665	0.0
0.68	0.0
0.695	0.0
0.71	0.0
0.725	0.0
0.74	0.0
0.754	0.0
0.769	0.0
0.784	0.0
0.799	0.0
0.814	0.0
0.828	0.0
0.843	0.0
0.858	0.0
0.873	0.0
0.888	0.0
0.903	0.0
0.917	0.0
0.932	0.0
0.947	1.0
0.962	0.0
0.977	1.0
0.991	0.0
1.006	0.0
1.021	0.0
1.036	0.0
1.051	1.0
1.065	0.0
1.08	0.0
1.095	0.0
1.11	0.0
1.125	0.0
1.14	0.0
1.154	0.0
1.169	0.0
1.184	0.0
1.199	0.0
1.214	0.0
1.228	0.0
1.243	0.0
1.258	0.0
1.273	0.0
1.288	0.0
1.302	0.0
1.317	0.0
1.332	0.0
1.347	0.0
1.362	0.0
1.376	0.0
1.391	0.0
1.406	0.0
1.421	0.0
1.436	0.0
1.45	0.0
1.465	0.0
1.48	0.0
1.495	0.0
1.51	0.0
1.524	1.0
1.539	0.0
1.554	1.0
1.569	0.0
1.584	0.0
1.598	0.0
1.613	0.0
1.628	0.0
1.643	0.0
1.658	0.0
1.672	0.0
1.687	0.0
1.702	0.0
1.717	0.0
1.732	0.0
1.746	0.0
1.761	0.0
1.776	0.0
1.791	1.0
1.806	0.0
1.82	0.0
1.835	0.0
1.85	1.0
1.865	0.0
1.88	0.0
1.894	0.0
1.909	0.0
1.924	0.0
1.939	0.0
1.954	0.0
1.968	1.0
1.983	0.0
1.998	0.0
2.013	0.0
2.028	0.0
2.042	0.0
2.057	0.0
2.072	1.0
2.087	1.0
2.101	0.0
2.116	1.0
2.131	0.0
2.146	1.0
2.161	0.0
2.175	0.0
2.19	0.0
2.205	0.0
2.22	0.0
2.235	0.0
2.249	1.0
2.264	2.0
2.279	1.0
2.294	1.0
2.308	2.0
2.323	1.0
2.338	1.0
2.353	0.0
2.368	2.0
2.382	1.0
2.397	0.0
2.412	1.0
2.427	1.0
2.442	1.0
2.456	0.0
2.471	1.0
2.486	2.0
2.501	2.0
2.515	4.0
2.53	0.0
2.545	3.0
2.56	0.0
2.575	4.0
2.589	2.0
2.604	6.0
2.619	1.0
2.634	0.0
2.649	2.0
2.663	4.0
2.678	5.0
2.693	4.0
2.708	4.0
2.722	4.0
2.737	3.0
2.752	4.0
2.767	3.0
2.782	1.0
2.796	2.0
2.811	3.0
2.826	1.0
2.841	1.0
2.856	4.0
2.87	3.0
2.885	5.0
2.9	7.0
2.915	3.0
2.93	0.0
2.944	3.0
2.959	2.0
2.974	1.0
2.989	3.0
3.004	5.0
3.018	4.0
3.033	3.0
3.048	4.0
3.063	2.0
3.078	3.0
3.092	5.0
3.107	3.0
3.122	5.0
3.137	6.0
3.152	4.0
3.166	14.0
3.181	3.0
3.196	6.0
3.211	3.0
3.226	4.0
3.24	5.0
3.255	5.0
3.27	5.0
3.285	5.0
3.3	3.0
3.315	5.0
3.329	6.0
3.344	6.0
3.359	3.0
3.374	5.0
3.389	3.0
3.403	6.0
3.418	7.0
3.433	10.0
3.448	6.0
3.463	5.0
3.478	4.0
3.492	6.0
3.507	8.0
3.522	8.0
3.537	5.0
3.552	8.0
3.567	10.0
3.581	8.0
3.596	10.0
3.611	5.0
3.626	5.0
3.641	3.0
3.656	7.0
3.671	6.0
3.685	6.0
3.7	4.0
3.715	5.0
3.73	5.0
3.745	5.0
3.76	6.0
3.775	5.0
3.789	3.0
3.804	6.0
3.819	5.0
3.834	7.0
3.849	7.0
3.864	4.0
3.879	4.0
3.894	5.0
3.908	5.0
3.923	7.0
3.938	10.0
3.953	3.0
3.968	5.0
3.983	7.0
3.998	9.0
4.013	2.0
4.027	6.0
4.042	8.0
4.057	10.0
4.072	7.0
4.087	9.0
4.102	4.0
4.117	4.0
4.132	8.0
4.147	5.0
4.162	4.0
4.176	6.0
4.191	7.0
4.206	4.0
4.221	5.0
4.236	7.0
4.251	5.0
4.266	7.0
4.281	10.0
4.296	9.0
4.311	7.0
4.326	3.0
4.341	6.0
4.356	5.0
4.37	5.0
4.385	4.0
4.4	8.0
4.415	4.0
4.43	4.0
4.445	7.0
4.46	6.0
4.475	7.0
4.49	15.0
4.505	5.0
4.52	9.0
4.535	7.0
4.55	8.0
4.565	12.0
4.58	6.0
4.595	8.0
4.61	4.0
4.625	10.0
4.639	3.0
4.654	8.0
4.669	9.0
4.684	1.0
4.699	10.0
4.714	8.0
4.729	6.0
4.744	7.0
4.759	7.0
4.774	10.0
4.789	5.0
4.804	6.0
4.819	4.0
4.834	10.0
4.849	5.0
4.864	10.0
4.879	11.0
4.894	7.0
4.909	6.0
4.924	4.0
4.939	6.0
4.954	5.0
4.969	10.0
4.984	7.0
4.999	5.0
5.014	6.0
5.029	2.0
5.044	7.0
5.059	7.0
5.074	8.0
5.089	7.0
5.104	9.0
5.119	13.0
5.134	3.0
5.149	9.0
5.164	7.0
5.179	7.0
5.194	6.0
5.209	5.0
5.224	7.0
5.239	11.0
5.254	10.0
5.269	9.0
5.284	12.0
5.299	6.0
5.314	7.0
5.329	13.0
5.344	7.0
5.359	2.0
5.374	10.0
5.389	4.0
5.404	11.0
5.419	6.0
5.434	7.0
5.449	11.0
5.464	14.0
5.479	15.0
5.494	5.0
5.509	5.0
5.524	10.0
5.539	9.0
5.554	10.0
5.569	6.0
5.584	11.0
5.599	10.0
5.614	6.0
5.629	5.0
5.644	12.0
5.659	11.0
5.674	11.0
5.689	8.0
5.704	6.0
5.719	8.0
5.734	11.0
5.749	8.0
5.764	9.0
5.779	6.0
5.794	14.0
5.809	8.0
5.824	10.0
5.839	8.0
5.854	5.0
5.869	15.0
5.884	8.0
5.899	6.0
5.914	7.0
5.929	6.0
5.944	10.0
5.959	9.0
5.974	11.0
5.989	11.0
6.004	3.0
6.019	10.0
6.034	6.0
6.049	9.0
6.064	4.0
6.079	10.0
6.094	5.0
6.109	10.0
6.124	6.0
6.139	2.0
6.154	5.0
6.169	6.0
6.184	12.0
6.199	15.0
6.214	6.0
6.229	11.0
6.244	6.0
6.259	10.0
6.274	7.0
6.289	9.0
6.304	5.0
6.319	9.0
6.334	8.0
6.349	8.0
6.364	7.0
6.379	6.0
6.394	11.0
6.409	3.0
6.424	11.0
6.439	14.0
6.454	8.0
6.469	13.0
6.484	13.0
6.499	14.0
6.514	11.0
6.529	8.0
6.544	8.0
6.559	8.0
6.574	11.0
6.589	3.0
6.604	6.0
6.619	6.0
6.634	8.0
6.649	12.0
6.664	12.0
6.679	6.0
6.694	8.0
6.709	5.0
6.724	4.0
6.739	14.0
6.754	8.0
6.769	9.0
6.784	9.0
6.799	9.0
6.814	12.0
6.829	5.0
6.844	8.0
6.859	9.0
6.873	9.0
6.888	13.0
6.903	3.0
6.918	11.0
6.933	4.0
6.948	13.0
6.963	9.0
6.978	12.0
6.993	12.0
7.008	5.0
7.023	9.0
7.038	8.0
7.053	6.0
7.068	8.0
7.083	8.0
7.098	9.0
7.113	7.0
7.128	10.0
7.143	11.0
7.157	13.0
7.172	8.0
7.187	5.0
7.202	13.0
7.217	3.0
7.232	15.0
7.247	8.0
7.262	8.0
7.277	11.0
7.292	12.0
7.307	12.0
7.322	7.0
7.336	9.0
7.351	10.0
7.366	15.0
7.381	6.0
7.396	11.0
7.411	15.0
7.426	11.0
7.441	5.0
7.456	11.0
7.471	14.0
7.485	10.0
7.5	9.0
7.515	6.0
7.53	12.0
7.545	9.0
7.56	16.0
7.575	11.0
7.59	15.0
7.604	5.0
7.619	8.0
7.634	13.0
7.649	7.0
7.664	12.0
7.679	12.0
7.693	12.0
7.708	10.0
7.723	8.0
7.738	9.0
7.753	10.0
7.768	3.0
7.783	5.0
7.797	14.0
7.812	8.0
7.827	6.0
7.842	10.0
7.857	9.0
7.871	8.0
7.886	11.0
7.901	9.0
7.916	12.0
7.931	11.0
7.945	8.0
7.96	8.0
7.975	12.0
7.99	3.0
8.005	15.0
8.019	5.0
8.034	7.0
8.049	4.0
8.064	9.0
8.078	7.0
8.093	7.0
8.108	8.0
8.123	6.0
8.137	11.0
8.152	13.0
8.167	9.0
8.182	10.0
8.196	6.0
8.211	9.0
8.226	5.0
8.241	5.0
8.255	10.0
8.27	13.0
8.285	10.0
8.3	11.0
8.314	11.0
8.329	8.0
8.344	11.0
8.358	9.0
8.373	8.0
8.388	7.0
8.403	6.0
8.417	9.0
8.432	9.0
8.447	11.0
8.461	6.0
8.476	9.0
8.491	7.0
8.505	11.0
8.52	10.0
8.535	9.0
8.55	7.0
8.564	8.0
8.579	8.0
8.594	6.0
8.608	10.0
8.623	15.0
8.638	14.0
8.652	4.0
8.667	12.0
8.682	3.0
8.696	8.0
8.711	15.0
8.726	4.0
8.74	11.0
8.755	8.0
8.77	10.0
8.784	6.0
8.799	14.0
8.814	10.0
8.828	9.0
8.843	4.0
8.858	7.0
8.872	10.0
8.887	5.0
8.902	11.0
8.916	8.0
8.931	8.0
8.946	6.0
8.96	11.0
8.975	6.0
8.99	10.0
9.004	11.0
9.019	3.0
9.034	9.0
9.048	14.0
9.063	5.0
9.077	8.0
9.092	13.0
9.107	10.0
9.121	7.0
9.136	4.0
9.151	9.0
9.165	12.0
9.18	9.0
9.195	12.0
9.209	8.0
9.224	12.0
9.239	13.0
9.253	14.0
9.268	5.0
9.283	7.0
9.297	4.0
9.312	10.0
9.327	12.0
9.341	5.0
9.356	10.0
9.371	8.0
9.385	6.0
9.4	8.0
9.415	12.0
9.429	10.0
9.444	7.0
9.458	4.0
9.473	6.0
9.488	8.0
9.502	12.0
9.517	8.0
9.532	12.0
9.546	10.0
9.561	7.0
9.576	5.0
9.59	9.0
9.605	12.0
9.62	13.0
9.635	5.0
9.649	7.0
9.664	13.0
9.679	14.0
9.693	10.0
9.708	11.0
9.723	9.0
9.737	13.0
9.752	6.0
9.767	13.0
9.781	4.0
9.796	4.0
9.811	8.0
9.825	9.0
9.84	10.0
9.855	11.0
9.87	2.0
9.884	6.0
9.899	10.0
9.914	8.0
9.928	9.0
9.943	9.0
9.958	7.0
9.973	5.0
9.987	9.0
10.002	11.0
10.017	8.0
10.031	8.0
10.046	10.0
10.061	2.0
10.076	10.0
10.09	7.0
10.105	15.0
10.12	8.0
10.135	5.0
10.149	11.0
10.164	9.0
10.179	8.0
10.194	5.0
10.208	10.0
10.223	7.0
10.238	8.0
10.253	10.0
10.267	3.0
10.282	12.0
10.297	8.0
10.312	6.0
10.326	7.0
10.341	9.0
10.356	8.0
10.371	8.0
10.386	6.0
10.4	12.0
10.415	7.0
10.43	6.0
10.445	6.0
10.46	6.0
10.474	9.0
10.489	7.0
10.504	8.0
10.519	12.0
10.533	8.0
10.548	7.0
10.563	8.0
10.578	6.0
10.593	9.0
10.608	6.0
10.622	11.0
10.637	5.0
10.652	6.0
10.667	10.0
10.682	7.0
10.696	8.0
10.711	8.0
10.726	5.0
10.741	11.0
10.756	7.0
10.771	7.0
10.785	6.0
10.8	9.0
10.815	14.0
10.83	13.0
10.845	5.0
10.86	6.0
10.874	10.0
10.889	7.0
10.904	6.0
10.919	5.0
10.934	11.0
10.949	5.0
10.963	8.0
10.978	8.0
10.993	10.0
11.008	11.0
11.023	6.0
11.038	11.0
11.053	5.0
11.067	12.0
11.082	8.0
11.097	9.0
11.112	8.0
11.127	13.0
11.142	4.0
11.157	5.0
11.172	4.0
11.186	7.0
11.201	13.0
11.216	3.0
11.231	10.0
11.246	6.0
11.261	7.0
11.276	6.0
11.291	6.0
11.305	5.0
11.32	2.0
11.335	4.0
11.35	7.0
11.365	13.0
11.38	4.0
11.395	8.0
11.41	8.0
11.424	11.0
11.439	9.0
11.454	12.0
11.469	6.0
11.484	5.0
11.499	11.0
11.514	5.0
11.529	7.0
11.544	6.0
11.558	9.0
11.573	5.0
11.588	11.0
11.603	12.0
11.618	9.0
11.633	6.0
11.648	12.0
11.663	6.0
11.678	6.0
11.693	2.0
11.707	7.0
11.722	6.0
11.737	10.0
11.752	13.0
11.767	8.0
11.782	9.0
11.797	6.0
11.812	8.0
11.827	7.0
11.842	8.0
11.856	13.0
11.871	8.0
11.886	8.0
11.901	12.0
11.916	11.0
11.931	7.0
11.946	9.0
11.961	8.0
11.976	8.0
11.991	7.0
12.006	10.0
12.02	8.0
12.035	9.0
12.05	15.0
12.065	7.0
12.08	10.0
12.095	14.0
12.11	6.0
12.125	5.0
12.14	7.0
12.155	16.0
12.17	9.0
12.184	8.0
12.199	13.0
12.214	14.0
12.229	10.0
12.244	8.0
12.259	16.0
12.274	10.0
12.289	10.0
12.304	13.0
12.319	9.0
12.334	14.0
12.348	10.0
12.363	13.0
12.378	7.0
12.393	14.0
12.408	16.0
12.423	9.0
12.438	10.0
12.453	10.0
12.468	14.0
12.483	15.0
12.498	12.0
12.513	13.0
12.527	16.0
12.542	12.0
12.557	12.0
12.572	14.0
12.587	16.0
12.602	7.0
12.617	14.0
12.632	9.0
12.647	13.0
12.662	10.0
12.677	17.0
12.692	9.0
12.707	16.0
12.721	7.0
12.736	12.0
12.751	19.0
12.766	17.0
12.781	17.0
12.796	11.0
12.811	13.0
12.826	18.0
12.841	13.0
12.856	17.0
12.871	18.0
12.886	18.0
12.9	10.0
12.915	16.0
12.93	15.0
12.945	19.0
12.96	14.0
12.975	15.0
12.99	14.0
13.005	17.0
13.02	14.0
13.035	19.0
13.05	12.0
13.065	9.0
13.08	13.0
13.094	23.0
13.109	18.0
13.124	11.0
13.139	16.0
13.154	23.0
13.169	16.0
13.184	16.0
13.199	22.0
13.214	18.0
13.229	16.0
13.244	16.0
13.259	14.0
13.274	20.0
13.288	22.0
13.303	22.0
13.318	27.0
13.333	23.0
13.348	24.0
13.363	27.0
13.378	29.0
13.393	27.0
13.408	29.0
13.423	21.0
13.438	29.0
13.453	30.0
13.468	36.0
13.482	44.0
13.497	36.0
13.512	34.0
13.527	51.0
13.542	30.0
13.557	48.0
13.572	55.0
13.587	65.0
13.602	52.0
13.617	58.0
13.632	71.0
13.647	83.0
13.662	68.0
13.677	80.0
13.691	96.0
13.706	85.0
13.721	95.0
13.736	95.0
13.751	93.0
13.766	122.0
13.781	112.0
13.796	122.0
13.811	133.0
13.826	144.0
13.841	111.0
13.856	111.0
13.871	122.0
13.885	114.0
13.9	86.0
13.915	74.0
13.93	62.0
13.945	57.0
13.96	58.0
13.975	42.0
13.99	30.0
14.005	34.0
14.02	18.0
14.035	26.0
14.05	28.0
14.065	31.0
14.08	25.0
14.094	27.0
14.109	24.0
14.124	25.0
14.139	16.0
14.154	35.0
14.169	22.0
14.184	28.0
14.199	27.0
14.214	22.0
14.229	24.0
14.244	21.0
14.259	18.0
14.274	20.0
14.288	14.0
14.303	24.0
14.318	17.0
14.333	15.0
14.348	22.0
14.363	18.0
14.378	14.0
14.393	15.0
14.408	16.0
14.423	10.0
14.438	16.0
14.453	20.0
14.468	16.0
14.482	20.0
14.497	14.0
14.512	15.0
14.527	22.0
14.542	16.0
14.557	14.0
14.572	19.0
14.587	19.0
14.602	15.0
14.617	18.0
14.632	20.0
14.647	10.0
14.661	14.0
14.676	17.0
14.691	13.0
14.706	15.0
14.721	23.0
14.736	23.0
14.751	17.0
14.766	15.0
14.781	15.0
14.796	16.0
14.811	10.0
14.826	13.0
14.84	16.0
14.855	20.0
14.87	22.0
14.885	17.0
14.9	20.0
14.915	13.0
14.93	19.0
14.945	14.0
14.96	15.0
14.975	17.0
14.989	15.0
15.004	19.0
15.019	22.0
15.034	13.0
15.049	15.0
15.064	14.0
15.079	6.0
15.094	17.0
15.109	14.0
15.124	17.0
15.138	17.0
15.153	14.0
15.168	22.0
15.183	20.0
15.198	12.0
15.213	20.0
15.228	14.0
15.243	15.0
15.258	15.0
15.272	15.0
15.287	11.0
15.302	16.0
15.317	10.0
15.332	15.0
15.347	15.0
15.362	14.0
15.377	15.0
15.391	14.0
15.406	11.0
15.421	14.0
15.436	11.0
15.451	17.0
15.466	21.0
15.481	20.0
15.496	18.0
15.51	12.0
15.525	6.0
15.54	16.0
15.555	13.0
15.57	14.0
15.585	18.0
15.6	7.0
15.614	22.0
15.629	12.0
15.644	15.0
15.659	13.0
15.674	13.0
15.689	12.0
15.704	12.0
15.718	23.0
15.733	18.0
15.748	18.0
15.763	23.0
15.778	9.0
15.793	20.0
15.808	16.0
15.822	12.0
15.837	12.0
15.852	10.0
15.867	11.0
15.882	11.0
15.897	12.0
15.911	22.0
15.926	6.0
15.941	17.0
15.956	19.0
15.971	15.0
15.986	14.0
16.0	13.0
16.015	10.0
16.03	17.0
16.045	14.0
16.06	23.0
16.074	11.0
16.089	14.0
16.104	21.0
16.119	14.0
16.134	13.0
16.149	21.0
16.163	14.0
16.178	14.0
16.193	16.0
16.208	16.0
16.223	17.0
16.237	16.0
16.252	13.0
16.267	19.0
16.282	13.0
16.297	22.0
16.311	8.0
16.326	11.0
16.341	18.0
16.356	25.0
16.37	10.0
16.385	12.0
16.4	11.0
16.415	14.0
16.43	17.0
16.444	18.0
16.459	15.0
16.474	21.0
16.489	18.0
16.504	16.0
16.518	14.0
16.533	16.0
16.548	11.0
16.563	17.0
16.577	16.0
16.592	14.0
16.607	15.0
16.622	11.0
16.637	20.0
16.651	12.0
16.666	13.0
16.681	18.0
16.696	16.0
16.71	22.0
16.725	29.0
16.74	22.0
16.755	30.0
16.77	39.0
16.784	36.0
16.799	25.0
16.814	38.0
16.829	35.0
16.843	47.0
16.858	49.0
16.873	68.0
16.888	72.0
16.902	72.0
16.917	64.0
16.932	60.0
16.947	78.0
16.961	67.0
16.976	64.0
16.991	72.0
17.006	71.0
17.021	56.0
17.035	57.0
17.05	48.0
17.065	50.0
17.08	42.0
17.094	37.0
17.109	28.0
17.124	28.0
17.139	22.0
17.153	32.0
17.168	19.0
17.183	20.0
17.198	19.0
17.212	18.0
17.227	20.0
17.242	21.0
17.257	18.0
17.271	17.0
17.286	18.0
17.301	19.0
17.316	20.0
17.33	23.0
17.345	20.0
17.36	18.0
17.375	10.0
17.39	11.0
17.404	19.0
17.419	15.0
17.434	14.0
17.449	19.0
17.463	16.0
17.478	19.0
17.493	20.0
17.508	14.0
17.522	17.0
17.537	10.0
17.552	24.0
17.567	11.0
17.581	13.0
17.596	10.0
17.611	11.0
17.626	9.0
17.641	13.0
17.655	15.0
17.67	15.0
17.685	16.0
17.7	11.0
17.714	13.0
17.729	15.0
17.744	16.0
17.759	16.0
17.773	7.0
17.788	24.0
17.803	16.0
17.818	9.0
17.833	13.0
17.847	11.0
17.862	8.0
17.877	15.0
17.892	12.0
17.906	9.0
17.921	10.0
17.936	12.0
17.951	15.0
17.966	10.0
17.98	11.0
17.995	8.0
18.01	13.0
18.025	12.0
18.04	8.0
18.054	20.0
18.069	7.0
18.084	9.0
18.099	5.0
18.114	13.0
18.128	13.0
18.143	11.0
18.158	13.0
18.173	10.0
18.188	13.0
18.202	10.0
18.217	12.0
18.232	11.0
18.247	11.0
18.262	22.0
18.276	7.0
18.291	6.0
18.306	11.0
18.321	10.0
18.336	23.0
18.35	9.0
18.365	11.0
18.38	12.0
18.395	11.0
18.41	14.0
18.424	11.0
18.439	12.0
18.454	8.0
18.469	6.0
18.484	14.0
18.498	13.0
18.513	12.0
18.528	14.0
18.543	11.0
18.558	11.0
18.573	7.0
18.587	12.0
18.602	11.0
18.617	7.0
18.632	10.0
18.647	15.0
18.661	9.0
18.676	9.0
18.691	13.0
18.706	8.0
18.721	13.0
18.736	14.0
18.75	16.0
18.765	14.0
18.78	10.0
18.795	13.0
18.81	13.0
18.825	13.0
18.839	13.0
18.854	16.0
18.869	4.0
18.884	17.0
18.899	11.0
18.913	9.0
18.928	11.0
18.943	14.0
18.958	11.0
18.973	14.0
18.988	8.0
19.002	11.0
19.017	9.0
19.032	7.0
19.047	9.0
19.062	11.0
19.077	10.0
19.091	15.0
19.106	8.0
19.121	16.0
19.136	9.0
19.151	11.0
19.165	10.0
19.18	7.0
19.195	16.0
19.21	12.0
19.225	12.0
19.24	10.0
19.254	23.0
19.269	14.0
19.284	17.0
19.299	12.0
19.314	13.0
19.329	15.0
19.343	13.0
19.358	14.0
19.373	21.0
19.388	16.0
19.403	18.0
19.417	25.0
19.432	19.0
19.447	21.0
19.462	22.0
19.477	29.0
19.492	33.0
19.506	23.0
19.521	37.0
19.536	39.0
19.551	39.0
19.566	44.0
19.58	57.0
19.595	40.0
19.61	37.0
19.625	36.0
19.64	42.0
19.655	44.0
19.669	40.0
19.684	19.0
19.699	26.0
19.714	25.0
19.729	30.0
19.743	28.0
19.758	17.0
19.773	16.0
19.788	22.0
19.803	12.0
19.817	23.0
19.832	17.0
19.847	19.0
19.862	14.0
19.877	8.0
19.891	13.0
19.906	13.0
19.921	18.0
19.936	8.0
19.951	16.0
19.965	3.0
19.98	17.0
19.995	13.0
20.01	9.0
20.025	17.0
20.039	8.0
20.054	10.0
20.069	11.0
20.084	17.0
20.099	8.0
20.113	11.0
20.128	7.0
20.143	15.0
20.158	15.0
20.173	17.0
20.187	13.0
20.202	12.0
20.217	10.0
20.232	10.0
20.246	12.0
20.261	12.0
20.276	16.0
20.291	10.0
20.306	10.0
20.32	6.0
20.335	7.0
20.35	8.0
20.365	12.0
20.38	11.0
20.394	13.0
20.409	14.0
20.424	10.0
20.439	13.0
20.453	7.0
20.468	12.0
20.483	10.0
20.498	11.0
20.513	8.0
20.527	12.0
20.542	12.0
20.557	6.0
20.572	12.0
20.586	11.0
20.601	14.0
20.616	12.0
20.631	12.0
20.646	15.0
20.66	8.0
20.675	6.0
20.69	8.0
20.705	12.0
20.719	10.0
20.734	8.0
20.749	6.0
20.764	10.0
20.779	9.0
20.793	11.0
20.808	15.0
20.823	18.0
20.838	7.0
20.853	8.0
20.867	9.0
20.882	12.0
20.897	12.0
20.912	10.0
20.926	16.0
20.941	14.0
20.956	9.0
20.971	12.0
20.986	10.0
21.0	15.0
21.015	8.0
21.03	9.0
21.045	7.0
21.06	13.0
21.074	7.0
21.089	10.0
21.104	12.0
21.119	8.0
21.134	18.0
21.148	9.0
21.163	14.0
21.178	14.0
21.193	11.0
21.208	16.0
21.222	10.0
21.237	14.0
21.252	11.0
21.267	13.0
21.282	12.0
21.296	8.0
21.311	14.0
21.326	8.0
21.341	15.0
21.356	13.0
21.37	9.0
21.385	8.0
21.4	13.0
21.415	12.0
21.43	16.0
21.444	10.0
21.459	12.0
21.474	8.0
21.489	17.0
21.504	11.0
21.519	18.0
21.533	18.0
21.548	10.0
21.563	8.0
21.578	16.0
21.593	13.0
21.608	12.0
21.622	20.0
21.637	19.0
21.652	16.0
21.667	14.0
21.682	24.0
21.697	16.0
21.712	17.0
21.726	23.0
21.741	21.0
21.756	31.0
21.771	32.0
21.786	29.0
21.801	36.0
21.816	39.0
21.83	43.0
21.845	50.0
21.86	63.0
21.875	54.0
21.89	79.0
21.905	71.0
21.92	77.0
21.935	67.0
21.949	80.0
21.964	81.0
21.979	76.0
21.994	67.0
22.009	71.0
22.024	50.0
22.039	57.0
22.054	52.0
22.069	55.0
22.083	36.0
22.098	40.0
22.113	38.0
22.128	39.0
22.143	31.0
22.158	24.0
22.173	21.0
22.188	14.0
22.203	17.0
22.218	10.0
22.233	16.0
22.248	15.0
22.262	15.0
22.277	12.0
22.292	13.0
22.307	23.0
22.322	9.0
22.337	11.0
22.352	10.0
22.367	8.0
22.382	13.0
22.397	10.0
22.412	8.0
22.427	19.0
22.442	15.0
22.457	9.0
22.472	12.0
22.487	16.0
22.502	9.0
22.516	11.0
22.531	20.0
22.546	6.0
22.561	8.0
22.576	17.0
22.591	15.0
22.606	9.0
22.621	8.0
22.636	10.0
22.651	14.0
22.666	8.0
22.681	11.0
22.696	12.0
22.711	15.0
22.726	6.0
22.741	9.0
22.756	14.0
22.771	8.0
22.786	14.0
22.801	8.0
22.816	11.0
22.831	14.0
22.846	11.0
22.861	10.0
22.876	8.0
22.891	17.0
22.906	16.0
22.92	8.0
22.935	7.0
22.95	8.0
22.965	8.0
22.98	8.0
22.995	11.0
23.01	15.0
23.025	11.0
23.04	6.0
23.055	11.0
23.07	14.0
23.085	12.0
23.1	7.0
23.115	7.0
23.13	7.0
23.145	10.0
23.16	11.0
23.175	12.0
23.19	9.0
23.205	8.0
23.22	10.0
23.235	9.0
23.25	10.0
23.265	15.0
23.28	9.0
23.295	13.0
23.31	11.0
23.325	12.0
23.34	8.0
23.355	7.0
23.37	10.0
23.384	11.0
23.399	10.0
23.414	12.0
23.429	10.0
23.444	8.0
23.459	9.0
23.474	20.0
23.489	10.0
23.504	8.0
23.519	12.0
23.534	10.0
23.549	14.0
23.564	14.0
23.579	11.0
23.594	16.0
23.609	9.0
23.624	16.0
23.639	13.0
23.654	13.0
23.668	13.0
23.683	9.0
23.698	11.0
23.713	8.0
23.728	15.0
23.743	9.0
23.758	6.0
23.773	10.0
23.788	11.0
23.803	14.0
23.818	11.0
23.833	14.0
23.848	10.0
23.862	21.0
23.877	24.0
23.892	30.0
23.907	15.0
23.922	13.0
23.937	19.0
23.952	31.0
23.967	31.0
23.982	35.0
23.997	49.0
24.011	43.0
24.026	50.0
24.041	45.0
24.056	55.0
24.071	48.0
24.086	56.0
24.101	50.0
24.116	56.0
24.131	51.0
24.145	50.0
24.16	33.0
24.175	46.0
24.19	35.0
24.205	32.0
24.22	35.0
24.235	32.0
24.249	32.0
24.264	24.0
24.279	31.0
24.294	22.0
24.309	18.0
24.324	17.0
24.338	17.0
24.353	10.0
24.368	24.0
24.383	13.0
24.398	16.0
24.413	7.0
24.428	11.0
24.442	12.0
24.457	9.0
24.472	11.0
24.487	19.0
24.502	10.0
24.516	13.0
24.531	9.0
24.546	13.0
24.561	17.0
24.576	9.0
24.591	13.0
24.605	9.0
24.62	9.0
24.635	7.0
24.65	8.0
24.665	13.0
24.679	14.0
24.694	3.0
24.709	10.0
24.724	13.0
24.739	12.0
24.753	11.0
24.768	10.0
24.783	13.0
24.798	18.0
24.813	10.0
24.827	12.0
24.842	11.0
24.857	5.0
24.872	8.0
24.886	12.0
24.901	9.0
24.916	3.0
24.931	8.0
24.946	11.0
24.96	9.0
24.975	8.0
24.99	12.0
25.005	11.0
25.019	9.0
25.034	6.0
25.049	5.0
25.064	12.0
25.078	10.0
25.093	10.0
25.108	16.0
25.123	12.0
25.138	8.0
25.152	8.0
25.167	7.0
25.182	6.0
25.197	12.0
25.211	11.0
25.226	10.0
25.241	8.0
25.256	10.0
25.27	10.0
25.285	5.0
25.3	8.0
25.315	16.0
25.329	10.0
25.344	12.0
25.359	11.0
25.374	8.0
25.388	6.0
25.403	14.0
25.418	5.0
25.433	11.0
25.447	11.0
25.462	3.0
25.477	7.0
25.492	5.0
25.506	7.0
25.521	11.0
25.536	8.0
25.55	7.0
25.565	15.0
25.58	4.0
25.595	4.0
25.609	14.0
25.624	6.0
25.639	11.0
25.654	12.0
25.668	4.0
25.683	7.0
25.698	5.0
25.713	5.0
25.727	6.0
25.742	9.0
25.757	18.0
25.772	6.0
25.786	8.0
25.801	7.0
25.816	8.0
25.83	8.0
25.845	6.0
25.86	9.0
25.875	8.0
25.889	12.0
25.904	11.0
25.919	10.0
25.934	8.0
25.948	10.0
25.963	12.0
25.978	9.0
25.992	6.0
26.007	16.0
26.022	11.0
26.037	7.0
26.051	8.0
26.066	12.0
26.081	9.0
26.096	5.0
26.11	9.0
26.125	12.0
26.14	12.0
26.155	17.0
26.169	7.0
26.184	15.0
26.199	9.0
26.213	10.0
26.228	7.0
26.243	7.0
26.258	4.0
26.272	10.0
26.287	8.0
26.302	7.0
26.317	13.0
26.331	12.0
26.346	8.0
26.361	10.0
26.376	15.0
26.39	14.0
26.405	6.0
26.42	12.0
26.434	11.0
26.449	11.0
26.464	14.0
26.479	6.0
26.493	5.0
26.508	9.0
26.523	11.0
26.538	10.0
26.552	10.0
26.567	15.0
26.582	9.0
26.597	13.0
26.611	6.0
26.626	12.0
26.641	14.0
26.656	6.0
26.67	12.0
26.685	9.0
26.7	10.0
26.715	9.0
26.729	11.0
26.744	6.0
26.759	5.0
26.773	9.0
26.788	16.0
26.803	8.0
26.818	11.0
26.832	7.0
26.847	11.0
26.862	11.0
26.877	9.0
26.891	10.0
26.906	6.0
26.921	9.0
26.936	13.0
26.95	11.0
26.965	4.0
26.98	10.0
26.995	12.0
27.01	8.0
27.024	8.0
27.039	17.0
27.054	9.0
27.069	11.0
27.083	11.0
27.098	3.0
27.113	13.0
27.128	10.0
27.142	5.0
27.157	10.0
27.172	10.0
27.187	10.0
27.201	14.0
27.216	6.0
27.231	8.0
27.246	2.0
27.261	8.0
27.275	15.0
27.29	10.0
27.305	7.0
27.32	10.0
27.334	8.0
27.349	12.0
27.364	10.0
27.379	6.0
27.394	5.0
27.408	8.0
27.423	11.0
27.438	7.0
27.453	11.0
27.467	12.0
27.482	7.0
27.497	6.0
27.512	11.0
27.527	6.0
27.541	15.0
27.556	9.0
27.571	9.0
27.586	13.0
27.601	11.0
27.615	12.0
27.63	14.0
27.645	16.0
27.66	13.0
27.675	15.0
27.689	12.0
27.704	9.0
27.719	12.0
27.734	21.0
27.749	15.0
27.763	17.0
27.778	20.0
27.793	21.0
27.808	22.0
27.823	22.0
27.838	22.0
27.852	23.0
27.867	19.0
27.882	19.0
27.897	23.0
27.912	32.0
27.926	28.0
27.941	20.0
27.956	24.0
27.971	25.0
27.986	14.0
28.001	14.0
28.015	15.0
28.03	11.0
28.045	16.0
28.06	21.0
28.075	19.0
28.09	16.0
28.105	12.0
28.119	12.0
28.134	11.0
28.149	13.0
28.164	12.0
28.179	17.0
28.194	12.0
28.208	14.0
28.223	11.0
28.238	6.0
28.253	10.0
28.268	12.0
28.283	14.0
28.298	14.0
28.312	8.0
28.327	10.0
28.342	9.0
28.357	4.0
28.372	12.0
28.387	11.0
28.402	7.0
28.417	11.0
28.431	11.0
28.446	12.0
28.461	13.0
28.476	10.0
28.491	17.0
28.506	13.0
28.521	15.0
28.536	15.0
28.55	15.0
28.565	9.0
28.58	9.0
28.595	6.0
28.61	8.0
28.625	18.0
28.64	9.0
28.655	12.0
28.669	17.0
28.684	18.0
28.699	8.0
28.714	5.0
28.729	12.0
28.744	4.0
28.759	12.0
28.774	15.0
28.788	8.0
28.803	12.0
28.818	13.0
28.833	10.0
28.848	14.0
28.863	6.0
28.878	14.0
28.893	11.0
28.908	10.0
28.922	9.0
28.937	14.0
28.952	7.0
28.967	8.0
28.982	12.0
28.997	11.0
29.012	12.0
29.027	11.0
29.041	10.0
29.056	7.0
29.071	10.0
29.086	17.0
29.101	13.0
29.116	7.0
29.131	14.0
29.146	12.0
29.16	8.0
29.175	9.0
29.19	10.0
29.205	11.0
29.22	11.0
29.235	11.0
29.25	13.0
29.265	13.0
29.279	16.0
29.294	10.0
29.309	10.0
29.324	12.0
29.339	13.0
29.354	13.0
29.369	18.0
29.384	8.0
29.398	13.0
29.413	28.0
29.428	18.0
29.443	22.0
29.458	21.0
29.473	23.0
29.488	20.0
29.502	23.0
29.517	34.0
29.532	36.0
29.547	41.0
29.562	34.0
29.577	44.0
29.592	50.0
29.606	49.0
29.621	46.0
29.636	47.0
29.651	38.0
29.666	41.0
29.681	33.0
29.695	42.0
29.71	46.0
29.725	30.0
29.74	40.0
29.755	34.0
29.77	32.0
29.784	32.0
29.799	36.0
29.814	29.0
29.829	30.0
29.844	24.0
29.859	24.0
29.873	19.0
29.888	24.0
29.903	12.0
29.918	17.0
29.933	14.0
29.947	13.0
29.962	19.0
29.977	11.0
29.992	7.0
30.007	13.0
30.021	14.0
30.036	11.0
30.051	15.0
30.066	11.0
30.081	17.0
30.095	9.0
30.11	11.0
30.125	5.0
30.14	10.0
30.155	9.0
30.169	16.0
30.184	18.0
30.199	9.0
30.214	11.0
30.228	16.0
30.243	3.0
30.258	6.0
30.273	10.0
30.288	12.0
30.302	7.0
30.317	10.0
30.332	9.0
30.347	13.0
30.361	8.0
30.376	16.0
30.391	13.0
30.406	8.0
30.42	7.0
30.435	15.0
30.45	10.0
30.465	14.0
30.479	12.0
30.494	11.0
30.509	12.0
30.524	13.0
30.538	9.0
30.553	15.0
30.568	9.0
30.583	6.0
30.597	14.0
30.612	9.0
30.627	7.0
30.641	11.0
30.656	8.0
30.671	9.0
30.686	13.0
30.7	9.0
30.715	9.0
30.73	8.0
30.745	13.0
30.759	5.0
30.774	10.0
30.789	11.0
30.803	10.0
30.818	6.0
30.833	10.0
30.848	16.0
30.862	11.0
30.877	18.0
30.892	7.0
30.906	8.0
30.921	7.0
30.936	9.0
30.951	9.0
30.965	13.0
30.98	9.0
30.995	11.0
31.009	18.0
31.024	15.0
31.039	11.0
31.053	13.0
31.068	12.0
31.083	12.0
31.098	13.0
31.112	15.0
31.127	17.0
31.142	19.0
31.156	18.0
31.171	28.0
31.186	26.0
31.2	35.0
31.215	35.0
31.23	26.0
31.245	39.0
31.259	43.0
31.274	51.0
31.289	31.0
31.303	42.0
31.318	31.0
31.333	32.0
31.347	33.0
31.362	27.0
31.377	26.0
31.392	26.0
31.406	24.0
31.421	33.0
31.436	18.0
31.45	24.0
31.465	25.0
31.48	19.0
31.494	26.0
31.509	20.0
31.524	23.0
31.538	15.0
31.553	14.0
31.568	23.0
31.583	14.0
31.597	14.0
31.612	13.0
31.627	9.0
31.641	13.0
31.656	18.0
31.671	8.0
31.685	7.0
31.7	10.0
31.715	9.0
31.729	10.0
31.744	13.0
31.759	14.0
31.774	11.0
31.788	13.0
31.803	12.0
31.818	9.0
31.832	8.0
31.847	13.0
31.862	10.0
31.876	13.0
31.891	11.0
31.906	7.0
31.92	9.0
31.935	10.0
31.95	6.0
31.965	10.0
31.979	12.0
31.994	14.0
32.009	5.0
32.023	9.0
32.038	15.0
32.053	6.0
32.067	8.0
32.082	13.0
32.097	10.0
32.112	14.0
32.126	14.0
32.141	9.0
32.156	14.0
32.17	9.0
32.185	10.0
32.2	5.0
32.214	13.0
32.229	8.0
32.244	16.0
32.259	8.0
32.273	10.0
32.288	8.0
32.303	16.0
32.317	13.0
32.332	14.0
32.347	6.0
32.362	11.0
32.376	11.0
32.391	7.0
32.406	10.0
32.42	10.0
32.435	9.0
32.45	8.0
32.465	12.0
32.479	8.0
32.494	11.0
32.509	10.0
32.523	10.0
32.538	10.0
32.553	13.0
32.568	12.0
32.582	12.0
32.597	13.0
32.612	12.0
32.627	10.0
32.641	18.0
32.656	12.0
32.671	15.0
32.685	18.0
32.7	19.0
32.715	14.0
32.73	20.0
32.744	24.0
32.759	13.0
32.774	29.0
32.788	23.0
32.803	16.0
32.818	28.0
32.833	22.0
32.847	36.0
32.862	31.0
32.877	17.0
32.892	33.0
32.906	19.0
32.921	20.0
32.936	23.0
32.951	17.0
32.965	15.0
32.98	21.0
32.995	20.0
33.009	21.0
33.024	29.0
33.039	21.0
33.054	19.0
33.068	20.0
33.083	18.0
33.098	13.0
33.113	18.0
33.127	17.0
33.142	12.0
33.157	11.0
33.172	9.0
33.186	12.0
33.201	16.0
33.216	11.0
33.231	9.0
33.245	13.0
33.26	10.0
33.275	13.0
33.29	7.0
33.304	14.0
33.319	10.0
33.334	11.0
33.349	9.0
33.363	7.0
33.378	7.0
33.393	11.0
33.408	11.0
33.422	10.0
33.437	11.0
33.452	6.0
33.467	14.0
33.481	10.0
33.496	11.0
33.511	9.0
33.526	11.0
33.54	12.0
33.555	8.0
33.57	14.0
33.585	11.0
33.599	10.0
33.614	7.0
33.629	12.0
33.644	8.0
33.658	10.0
33.673	5.0
33.688	10.0
33.703	11.0
33.718	10.0
33.732	9.0
33.747	8.0
33.762	17.0
33.777	4.0
33.791	8.0
33.806	8.0
33.821	13.0
33.836	8.0
33.85	10.0
33.865	7.0
33.88	7.0
33.895	11.0
33.91	13.0
33.924	8.0
33.939	9.0
33.954	11.0
33.969	10.0
33.983	9.0
33.998	13.0
34.013	14.0
34.028	7.0
34.042	9.0
34.057	9.0
34.072	10.0
34.087	5.0
34.102	14.0
34.116	13.0
34.131	11.0
34.146	13.0
34.161	16.0
34.175	15.0
34.19	13.0
34.205	10.0
34.22	9.0
34.235	11.0
34.249	8.0
34.264	9.0
34.279	13.0
34.294	12.0
34.309	21.0
34.323	11.0
34.338	16.0
34.353	9.0
34.368	11.0
34.382	15.0
34.397	15.0
34.412	7.0
34.427	9.0
34.442	10.0
34.456	11.0
34.471	10.0
34.486	9.0
34.501	12.0
34.516	14.0
34.53	13.0
34.545	12.0
34.56	9.0
34.575	10.0
34.59	6.0
34.604	8.0
34.619	9.0
34.634	7.0
34.649	8.0
34.664	10.0
34.678	9.0
34.693	6.0
34.708	6.0
34.723	12.0
34.738	4.0
34.752	6.0
34.767	8.0
34.782	5.0
34.797	7.0
34.812	8.0
34.826	10.0
34.841	10.0
34.856	16.0
34.871	8.0
34.886	5.0
34.9	11.0
34.915	13.0
34.93	7.0
34.945	14.0
34.96	12.0
34.974	6.0
34.989	9.0
35.004	11.0
35.019	5.0
35.034	7.0
35.048	11.0
35.063	8.0
35.078	11.0
35.093	5.0
35.108	15.0
35.122	13.0
35.137	10.0
35.152	7.0
35.167	4.0
35.182	13.0
35.196	8.0
35.211	13.0
35.226	8.0
35.241	7.0
35.256	10.0
35.27	7.0
35.285	7.0
35.3	10.0
35.315	6.0
35.33	7.0
35.344	7.0
35.359	9.0
35.374	7.0
35.389	2.0
35.404	3.0
35.418	6.0
35.433	5.0
35.448	9.0
35.463	11.0
35.478	4.0
35.493	14.0
35.507	8.0
35.522	7.0
35.537	4.0
35.552	6.0
35.567	5.0
35.581	11.0
35.596	11.0
35.611	12.0
35.626	6.0
35.641	15.0
35.655	11.0
35.67	12.0
35.685	18.0
35.7	16.0
35.715	20.0
35.729	12.0
35.744	23.0
35.759	23.0
35.774	21.0
35.789	25.0
35.804	27.0
35.818	20.0
35.833	20.0
35.848	17.0
35.863	14.0
35.878	17.0
35.892	13.0
35.907	14.0
35.922	17.0
35.937	11.0
35.952	9.0
35.966	21.0
35.981	18.0
35.996	22.0
36.011	14.0
36.026	5.0
36.04	12.0
36.055	11.0
36.07	13.0
36.085	10.0
36.1	11.0
36.114	10.0
36.129	8.0
36.144	4.0
36.159	9.0
36.174	7.0
36.189	8.0
36.203	9.0
36.218	6.0
36.233	6.0
36.248	8.0
36.263	14.0
36.277	8.0
36.292	8.0
36.307	12.0
36.322	8.0
36.337	6.0
36.351	10.0
36.366	14.0
36.381	14.0
36.396	6.0
36.411	8.0
36.426	3.0
36.44	5.0
36.455	5.0
36.47	8.0
36.485	8.0
36.5	9.0
36.514	5.0
36.529	10.0
36.544	6.0
36.559	7.0
36.574	8.0
36.589	7.0
36.603	13.0
36.618	9.0
36.633	10.0
36.648	5.0
36.663	9.0
36.677	8.0
36.692	5.0
36.707	7.0
36.722	6.0
36.737	8.0
36.752	4.0
36.766	8.0
36.781	9.0
36.796	8.0
36.811	9.0
36.826	8.0
36.841	11.0
36.855	8.0
36.87	11.0
36.885	9.0
36.9	8.0
36.915	5.0
36.93	7.0
36.944	8.0
36.959	11.0
36.974	12.0
36.989	7.0
37.004	8.0
37.019	8.0
37.033	9.0
37.048	18.0
37.063	11.0
37.078	19.0
37.093	21.0
37.108	19.0
37.123	17.0
37.137	32.0
37.152	25.0
37.167	19.0
37.182	21.0
37.197	34.0
37.212	24.0
37.226	22.0
37.241	25.0
37.256	22.0
37.271	18.0
37.286	21.0
37.301	10.0
37.316	15.0
37.331	12.0
37.345	17.0
37.36	21.0
37.375	17.0
37.39	20.0
37.405	17.0
37.42	21.0
37.435	19.0
37.45	13.0
37.464	22.0
37.479	6.0
37.494	12.0
37.509	13.0
37.524	12.0
37.539	12.0
37.554	8.0
37.569	4.0
37.583	5.0
37.598	8.0
37.613	8.0
37.628	5.0
37.643	5.0
37.658	14.0
37.673	9.0
37.688	6.0
37.703	10.0
37.718	6.0
37.733	4.0
37.747	6.0
37.762	9.0
37.777	4.0
37.792	12.0
37.807	4.0
37.822	10.0
37.837	8.0
37.852	8.0
37.867	5.0
37.882	7.0
37.897	7.0
37.912	8.0
37.927	8.0
37.941	6.0
37.956	7.0
37.971	9.0
37.986	8.0
38.001	6.0
38.016	5.0
38.031	8.0
38.046	3.0
38.061	7.0
38.076	8.0
38.091	11.0
38.106	9.0
38.121	9.0
38.136	8.0
38.151	4.0
38.166	5.0
38.181	6.0
38.196	12.0
38.211	9.0
38.226	7.0
38.241	8.0
38.256	3.0
38.271	7.0
38.285	2.0
38.3	7.0
38.315	7.0
38.33	7.0
38.345	4.0
38.36	8.0
38.375	7.0
38.39	8.0
38.405	10.0
38.42	5.0
38.435	8.0
38.45	1.0
38.465	4.0
38.48	10.0
38.495	7.0
38.51	7.0
38.525	7.0
38.54	3.0
38.555	4.0
38.57	5.0
38.585	11.0
38.6	6.0
38.615	8.0
38.63	3.0
38.645	7.0
38.66	6.0
38.675	6.0
38.69	8.0
38.705	8.0
38.72	8.0
38.735	2.0
38.75	9.0
38.765	5.0
38.78	8.0
38.795	4.0
38.81	8.0
38.825	4.0
38.84	5.0
38.855	6.0
38.87	8.0
38.885	11.0
38.9	2.0
38.915	7.0
38.93	6.0
38.945	6.0
38.96	5.0
38.975	2.0
38.99	4.0
39.005	8.0
39.02	7.0
39.035	8.0
39.05	3.0
39.065	5.0
39.08	3.0
39.095	5.0
39.11	7.0
39.125	13.0
39.14	7.0
39.155	4.0
39.17	3.0
39.185	7.0
39.2	3.0
39.215	5.0
39.23	10.0
39.245	6.0
39.26	6.0
39.275	3.0
39.29	5.0
39.305	7.0
39.32	7.0
39.335	8.0
39.35	6.0
39.365	6.0
39.38	8.0
39.395	3.0
39.409	10.0
39.424	3.0
39.439	8.0
39.454	1.0
39.469	8.0
39.484	5.0
39.499	9.0
39.514	6.0
39.529	8.0
39.544	6.0
39.559	9.0
39.574	4.0
39.589	5.0
39.604	13.0
39.619	1.0
39.634	6.0
39.649	7.0
39.664	8.0
39.678	4.0
39.693	5.0
39.708	8.0
39.723	7.0
39.738	4.0
39.753	7.0
39.768	9.0
39.783	4.0
39.798	9.0
39.813	6.0
39.827	9.0
39.842	12.0
39.857	9.0
39.872	6.0
39.887	16.0
39.902	7.0
39.917	6.0
39.932	8.0
39.947	10.0
39.961	15.0
39.976	6.0
39.991	5.0
40.006	3.0
40.021	9.0
40.036	10.0
40.051	6.0
40.065	8.0
40.08	13.0
40.095	10.0
40.11	11.0
40.125	11.0
40.14	8.0
40.154	6.0
40.169	7.0
40.184	7.0
40.199	4.0
40.214	8.0
40.228	11.0
40.243	3.0
40.258	5.0
40.273	3.0
40.288	5.0
40.302	8.0
40.317	2.0
40.332	2.0
40.347	6.0
40.362	2.0
40.376	3.0
40.391	4.0
40.406	8.0
40.421	9.0
40.436	6.0
40.45	5.0
40.465	5.0
40.48	3.0
40.495	4.0
40.509	4.0
40.524	0.0
40.539	5.0
40.554	4.0
40.568	7.0
40.583	5.0
40.598	3.0
40.613	3.0
40.627	3.0
40.642	5.0
40.657	4.0
40.672	5.0
40.686	8.0
40.701	3.0
40.716	4.0
40.731	7.0
40.745	7.0
40.76	7.0
40.775	10.0
40.79	10.0
40.804	2.0
40.819	5.0
40.834	8.0
40.849	4.0
40.863	12.0
40.878	4.0
40.893	2.0
40.907	6.0
40.922	8.0
40.937	9.0
40.952	8.0
40.966	6.0
40.981	3.0
40.996	8.0
41.011	10.0
41.025	5.0
41.04	19.0
41.055	7.0
41.069	21.0
41.084	11.0
41.099	13.0
41.114	11.0
41.128	11.0
41.143	16.0
41.158	28.0
41.173	16.0
41.187	11.0
41.202	15.0
41.217	12.0
41.231	9.0
41.246	15.0
41.261	9.0
41.276	8.0
41.29	16.0
41.305	12.0
41.32	14.0
41.335	12.0
41.349	14.0
41.364	17.0
41.379	14.0
41.393	15.0
41.408	13.0
41.423	13.0
41.438	5.0
41.452	9.0
41.467	11.0
41.482	4.0
41.497	10.0
41.511	5.0
41.526	8.0
41.541	5.0
41.556	11.0
41.57	6.0
41.585	5.0
41.6	6.0
41.615	9.0
41.629	3.0
41.644	9.0
41.659	6.0
41.674	8.0
41.688	9.0
41.703	3.0
41.718	6.0
41.733	4.0
41.747	9.0
41.762	10.0
41.777	4.0
41.792	10.0
41.806	5.0
41.821	2.0
41.836	9.0
41.851	6.0
41.866	3.0
41.88	5.0
41.895	2.0
41.91	5.0
41.925	6.0
41.939	4.0
41.954	10.0
41.969	8.0
41.984	4.0
41.999	6.0
42.013	11.0
42.028	10.0
42.043	3.0
42.058	6.0
42.073	15.0
42.088	6.0
42.102	3.0
42.117	8.0
42.132	3.0
42.147	5.0
42.162	10.0
42.176	5.0
42.191	6.0
42.206	6.0
42.221	10.0
42.236	7.0
42.251	5.0
42.266	7.0
42.28	10.0
42.295	4.0
42.31	10.0
42.325	13.0
42.34	8.0
42.355	15.0
42.369	15.0
42.384	20.0
42.399	20.0
42.414	11.0
42.429	21.0
42.444	7.0
42.459	16.0
42.474	5.0
42.488	9.0
42.503	7.0
42.518	9.0
42.533	4.0
42.548	4.0
42.563	8.0
42.578	8.0
42.593	8.0
42.608	9.0
42.622	14.0
42.637	14.0
42.652	10.0
42.667	14.0
42.682	7.0
42.697	7.0
42.712	11.0
42.727	8.0
42.742	10.0
42.757	7.0
42.772	7.0
42.786	7.0
42.801	4.0
42.816	8.0
42.831	6.0
42.846	5.0
42.861	7.0
42.876	5.0
42.891	6.0
42.906	6.0
42.921	8.0
42.936	5.0
42.951	3.0
42.966	7.0
42.981	4.0
42.996	4.0
43.011	1.0
43.025	3.0
43.04	4.0
43.055	8.0
43.07	7.0
43.085	4.0
43.1	6.0
43.115	4.0
43.13	7.0
43.145	6.0
43.16	9.0
43.175	7.0
43.19	4.0
43.205	5.0
43.22	6.0
43.235	6.0
43.25	7.0
43.265	7.0
43.28	11.0
43.295	3.0
43.31	4.0
43.325	4.0
43.34	8.0
43.355	5.0
43.37	8.0
43.385	7.0
43.4	3.0
43.415	8.0
43.43	3.0
43.445	9.0
43.46	4.0
43.475	7.0
43.49	4.0
43.505	8.0
43.52	7.0
43.535	5.0
43.55	8.0
43.565	6.0
43.58	10.0
43.595	4.0
43.61	10.0
43.625	8.0
43.64	10.0
43.655	16.0
43.67	12.0
43.685	7.0
43.7	6.0
43.715	8.0
43.73	11.0
43.745	7.0
43.76	7.0
43.775	6.0
43.79	4.0
43.805	6.0
43.82	10.0
43.835	6.0
43.85	17.0
43.865	5.0
43.88	8.0
43.895	9.0
43.91	5.0
43.925	7.0
43.94	8.0
43.955	9.0
43.97	7.0
43.985	7.0
44.0	3.0
44.015	4.0
44.03	10.0
44.045	3.0
44.061	10.0
44.076	4.0
44.091	7.0
44.106	5.0
44.121	4.0
44.136	4.0
44.151	4.0
44.166	8.0
44.181	4.0
44.196	3.0
44.211	4.0
44.226	8.0
44.241	4.0
44.256	2.0
44.271	4.0
44.286	6.0
44.301	7.0
44.316	6.0
44.331	2.0
44.346	7.0
44.361	7.0
44.377	3.0
44.392	4.0
44.407	6.0
44.422	4.0
44.437	12.0
44.452	3.0
44.467	1.0
44.482	2.0
44.497	4.0
44.512	6.0
44.527	3.0
44.542	6.0
44.557	6.0
44.572	3.0
44.587	5.0
44.602	6.0
44.617	5.0
44.632	8.0
44.647	11.0
44.663	7.0
44.678	3.0
44.693	3.0
44.708	2.0
44.723	7.0
44.738	6.0
44.753	8.0
44.768	10.0
44.783	17.0
44.798	7.0
44.813	11.0
44.828	14.0
44.843	3.0
44.858	10.0
44.873	12.0
44.888	10.0
44.903	9.0
44.918	8.0
44.933	8.0
44.948	11.0
44.964	6.0
44.979	6.0
44.994	4.0
45.009	8.0
45.024	9.0
45.039	5.0
45.054	9.0
45.069	7.0
45.084	6.0
45.099	7.0
45.114	10.0
45.129	6.0
45.144	9.0
45.159	6.0
45.174	9.0
45.189	6.0
45.204	6.0
45.219	8.0
45.234	6.0
45.249	5.0
45.264	5.0
45.279	7.0
45.294	3.0
45.309	6.0
45.324	13.0
45.339	2.0
45.354	5.0
45.369	5.0
45.384	7.0
45.399	9.0
45.414	10.0
45.429	7.0
45.444	5.0
45.459	2.0
45.474	4.0
45.489	5.0
45.504	3.0
45.519	3.0
45.534	9.0
45.549	6.0
45.564	4.0
45.579	7.0
45.594	9.0
45.609	3.0
45.624	7.0
45.639	3.0
45.654	8.0
45.669	7.0
45.684	2.0
45.699	4.0
45.714	6.0
45.729	2.0
45.744	9.0
45.759	6.0
45.774	9.0
45.789	10.0
45.804	7.0
45.819	5.0
45.834	5.0
45.849	11.0
45.864	5.0
45.879	7.0
45.894	12.0
45.909	11.0
45.924	18.0
45.939	13.0
45.954	9.0
45.969	8.0
45.984	21.0
45.998	16.0
46.013	14.0
46.028	13.0
46.043	9.0
46.058	13.0
46.073	16.0
46.088	7.0
46.103	8.0
46.118	6.0
46.133	10.0
46.148	8.0
46.163	8.0
46.178	10.0
46.192	10.0
46.207	11.0
46.222	18.0
46.237	10.0
46.252	14.0
46.267	9.0
46.282	12.0
46.297	13.0
46.312	15.0
46.327	8.0
46.341	5.0
46.356	6.0
46.371	4.0
46.386	9.0
46.401	7.0
46.416	6.0
46.431	6.0
46.446	4.0
46.46	5.0
46.475	6.0
46.49	5.0
46.505	9.0
46.52	6.0
46.535	7.0
46.55	4.0
46.564	8.0
46.579	3.0
46.594	4.0
46.609	4.0
46.624	5.0
46.639	9.0
46.654	4.0
46.668	8.0
46.683	3.0
46.698	6.0
46.713	6.0
46.728	9.0
46.743	4.0
46.758	6.0
46.772	6.0
46.787	7.0
46.802	7.0
46.817	3.0
46.832	3.0
46.847	6.0
46.861	9.0
46.876	1.0
46.891	7.0
46.906	3.0
46.921	10.0
46.936	6.0
46.95	4.0
46.965	6.0
46.98	9.0
46.995	5.0
47.01	3.0
47.025	4.0
47.039	10.0
47.054	7.0
47.069	8.0
47.084	8.0
47.099	8.0
47.113	15.0
47.128	12.0
47.143	7.0
47.158	6.0
47.173	11.0
47.188	6.0
47.202	8.0
47.217	10.0
47.232	11.0
47.247	6.0
47.262	8.0
47.277	6.0
47.291	9.0
47.306	8.0
47.321	9.0
47.336	5.0
47.351	3.0
47.365	10.0
47.38	5.0
47.395	3.0
47.41	7.0
47.425	6.0
47.44	10.0
47.454	8.0
47.469	7.0
47.484	6.0
47.499	11.0
47.514	4.0
47.528	3.0
47.543	4.0
47.558	4.0
47.573	9.0
47.588	7.0
47.603	5.0
47.617	4.0
47.632	2.0
47.647	4.0
47.662	6.0
47.677	4.0
47.691	6.0
47.706	4.0
47.721	7.0
47.736	1.0
47.751	5.0
47.766	5.0
47.78	1.0
47.795	3.0
47.81	0.0
47.825	3.0
47.84	1.0
47.855	4.0
47.869	3.0
47.884	5.0
47.899	4.0
47.914	2.0
47.929	3.0
47.944	2.0
47.958	7.0
47.973	5.0
47.988	6.0
48.003	2.0
48.018	3.0
48.033	3.0
48.047	4.0
48.062	3.0
48.077	7.0
48.092	2.0
48.107	1.0
48.122	4.0
48.137	3.0
48.151	4.0
48.166	6.0
48.181	3.0
48.196	6.0
48.211	3.0
48.226	6.0
48.241	5.0
48.255	3.0
48.27	3.0
48.285	1.0
48.3	6.0
48.315	8.0
48.33	4.0
48.345	3.0
48.359	6.0
48.374	9.0
48.389	9.0
48.404	2.0
48.419	5.0
48.434	2.0
48.449	7.0
48.464	6.0
48.478	4.0
48.493	6.0
48.508	3.0
48.523	6.0
48.538	4.0
48.553	5.0
48.568	5.0
48.583	2.0
48.597	5.0
48.612	6.0
48.627	6.0
48.642	3.0
48.657	8.0
48.672	4.0
48.687	4.0
48.702	6.0
48.717	5.0
48.731	3.0
48.746	1.0
48.761	3.0
48.776	4.0
48.791	6.0
48.806	7.0
48.821	5.0
48.836	8.0
48.851	3.0
48.866	8.0
48.88	4.0
48.895	6.0
48.91	6.0
48.925	5.0
48.94	5.0
48.955	7.0
48.97	3.0
48.985	4.0
49.0	7.0
49.015	9.0
49.03	3.0
49.044	2.0
49.059	6.0
49.074	3.0
49.089	4.0
49.104	5.0
49.119	6.0
49.134	3.0
49.149	4.0
49.164	6.0
49.179	6.0
49.194	2.0
49.209	7.0
49.224	3.0
49.238	7.0
49.253	4.0
49.268	5.0
49.283	9.0
49.298	7.0
49.313	7.0
49.328	5.0
49.343	9.0
49.358	9.0
49.373	7.0
49.388	11.0
49.403	8.0
49.418	9.0
49.433	3.0
49.448	9.0
49.463	8.0
49.478	5.0
49.492	9.0
49.507	6.0
49.522	5.0
49.537	7.0
49.552	8.0
49.567	7.0
49.582	6.0
49.597	7.0
49.612	8.0
49.627	5.0
49.642	6.0
49.657	9.0
49.672	8.0
49.687	8.0
49.702	11.0
49.717	8.0
49.732	8.0
49.747	6.0
49.762	6.0
49.777	6.0
49.792	1.0
49.807	6.0
49.822	3.0
49.837	5.0
49.852	5.0
49.867	5.0
49.882	5.0
49.897	4.0
49.912	4.0
49.927	4.0
49.942	2.0
49.957	1.0
49.971	7.0
49.986	2.0
50.001	2.0
50.016	6.0
50.031	1.0
50.046	3.0
50.061	6.0
50.076	6.0
50.091	1.0
50.106	1.0
50.121	6.0
50.136	3.0
50.151	6.0
50.166	10.0
50.181	4.0
50.196	8.0
50.211	5.0
50.226	6.0
50.241	2.0
50.256	4.0
50.271	1.0
50.286	10.0
50.302	10.0
50.317	1.0
50.332	4.0
50.347	3.0
50.362	8.0
50.377	6.0
50.392	8.0
50.407	6.0
50.422	10.0
50.437	8.0
50.452	9.0
50.467	6.0
50.482	10.0
50.497	7.0
50.512	4.0
50.527	8.0
50.542	4.0
50.557	7.0
50.572	5.0
50.587	6.0
50.602	9.0
50.617	5.0
50.632	6.0
50.647	5.0
50.662	6.0
50.677	3.0
50.692	5.0
50.707	8.0
50.722	7.0
50.737	3.0
50.752	6.0
50.767	5.0
50.782	8.0
50.797	4.0
50.812	2.0
50.828	6.0
50.843	8.0
50.858	2.0
50.873	5.0
50.888	4.0
50.903	7.0
50.918	2.0
50.933	7.0
50.948	12.0
50.963	5.0
50.978	4.0
50.993	4.0
51.008	5.0
51.023	8.0
51.038	6.0
51.053	9.0
51.068	4.0
51.083	1.0
51.098	9.0
51.114	4.0
51.129	3.0
51.144	6.0
51.159	4.0
51.174	4.0
51.189	4.0
51.204	3.0
51.219	7.0
51.234	1.0
51.249	2.0
51.264	6.0
51.279	8.0
51.294	2.0
51.309	1.0
51.324	5.0
51.34	6.0
51.355	6.0
51.37	3.0
51.385	8.0
51.4	9.0
51.415	15.0
51.43	10.0
51.445	6.0
51.46	15.0
51.475	14.0
51.49	14.0
51.505	12.0
51.52	15.0
51.535	14.0
51.551	22.0
51.566	16.0
51.581	19.0
51.596	9.0
51.611	7.0
51.626	11.0
51.641	3.0
51.656	7.0
51.671	4.0
51.686	4.0
51.701	4.0
51.716	3.0
51.732	7.0
51.747	3.0
51.762	14.0
51.777	11.0
51.792	11.0
51.807	8.0
51.822	6.0
51.837	9.0
51.852	15.0
51.867	11.0
51.882	11.0
51.898	5.0
51.913	12.0
51.928	4.0
51.943	3.0
51.958	6.0
51.973	7.0
51.988	4.0
52.003	5.0
52.018	8.0
52.033	4.0
52.048	4.0
52.064	8.0
52.079	8.0
52.094	5.0
52.109	4.0
52.124	1.0
52.139	7.0
52.154	2.0
52.169	10.0
52.184	6.0
52.199	2.0
52.215	3.0
52.23	2.0
52.245	7.0
52.26	5.0
52.275	6.0
52.29	6.0
52.305	7.0
52.32	4.0
52.335	4.0
52.35	4.0
52.366	7.0
52.381	5.0
52.396	4.0
52.411	3.0
52.426	5.0
52.441	9.0
52.456	6.0
52.471	6.0
52.486	7.0
52.502	3.0
52.517	7.0
52.532	8.0
52.547	10.0
52.562	7.0
52.577	11.0
52.592	11.0
52.607	13.0
52.622	6.0
52.637	6.0
52.653	11.0
52.668	2.0
52.683	4.0
52.698	6.0
52.713	8.0
52.728	6.0
52.743	4.0
52.758	4.0
52.774	6.0
52.789	5.0
52.804	3.0
52.819	7.0
52.834	4.0
52.849	5.0
52.864	8.0
52.879	11.0
52.894	8.0
52.91	7.0
52.925	13.0
52.94	9.0
52.955	6.0
52.97	9.0
52.985	6.0
53.0	9.0
53.015	2.0
53.031	9.0
53.046	3.0
53.061	4.0
53.076	1.0
53.091	7.0
53.106	3.0
53.121	3.0
53.136	2.0
53.152	7.0
53.167	3.0
53.182	7.0
53.197	3.0
53.212	4.0
53.227	1.0
53.242	1.0
53.257	3.0
53.273	7.0
53.288	4.0
53.303	6.0
53.318	3.0
53.333	5.0
53.348	3.0
53.363	4.0
53.379	4.0
53.394	7.0
53.409	5.0
53.424	4.0
53.439	9.0
53.454	0.0
53.469	5.0
53.484	8.0
53.5	2.0
53.515	3.0
53.53	6.0
53.545	7.0
53.56	4.0
53.575	5.0
53.59	3.0
53.606	5.0
53.621	6.0
53.636	3.0
53.651	5.0
53.666	6.0
53.681	8.0
53.696	7.0
53.712	3.0
53.727	5.0
53.742	5.0
53.757	2.0
53.772	12.0
53.787	5.0
53.802	2.0
53.818	3.0
53.833	9.0
53.848	5.0
53.863	4.0
53.878	4.0
53.893	4.0
53.909	5.0
53.924	5.0
53.939	0.0
53.954	4.0
53.969	4.0
53.984	2.0
53.999	2.0
54.015	7.0
54.03	5.0
54.045	3.0
54.06	3.0
54.075	3.0
54.09	4.0
54.106	5.0
54.121	3.0
54.136	2.0
54.151	5.0
54.166	3.0
54.181	11.0
54.197	3.0
54.212	3.0
54.227	8.0
54.242	3.0
54.257	3.0
54.272	7.0
54.288	3.0
54.303	6.0
54.318	7.0
54.333	3.0
54.348	4.0
54.363	3.0
54.379	5.0
54.394	3.0
54.409	5.0
54.424	7.0
54.439	5.0
54.454	5.0
54.47	5.0
54.485	5.0
54.5	4.0
54.515	5.0
54.53	5.0
54.545	5.0
54.561	8.0
54.576	6.0
54.591	6.0
54.606	7.0
54.621	9.0
54.636	16.0
54.652	10.0
54.667	15.0
54.682	17.0
54.697	14.0
54.712	14.0
54.727	9.0
54.743	4.0
54.758	12.0
54.773	6.0
54.788	7.0
54.803	12.0
54.819	7.0
54.834	4.0
54.849	2.0
54.864	1.0
54.879	4.0
54.894	7.0
54.91	5.0
54.925	5.0
54.94	9.0
54.955	9.0
54.97	10.0
54.985	10.0
55.001	8.0
55.016	8.0
55.031	12.0
55.046	10.0
55.061	7.0
55.077	1.0
55.092	8.0
55.107	8.0
55.122	6.0
55.137	2.0
55.152	11.0
55.168	2.0
55.183	13.0
55.198	6.0
55.213	9.0
55.228	8.0
55.243	4.0
55.259	6.0
55.274	2.0
55.289	4.0
55.304	5.0
55.319	4.0
55.335	4.0
55.35	7.0
55.365	2.0
55.38	8.0
55.395	5.0
55.41	3.0
55.426	9.0
55.441	3.0
55.456	4.0
55.471	4.0
55.486	4.0
55.501	6.0
55.517	5.0
55.532	10.0
55.547	5.0
55.562	7.0
55.577	7.0
55.592	8.0
55.608	7.0
55.623	7.0
55.638	10.0
55.653	8.0
55.668	9.0
55.683	7.0
55.699	7.0
55.714	10.0
55.729	9.0
55.744	4.0
55.759	6.0
55.774	6.0
55.79	4.0
55.805	4.0
55.82	2.0
55.835	5.0
55.85	5.0
55.865	8.0
55.881	4.0
55.896	7.0
55.911	5.0
55.926	3.0
55.941	3.0
55.956	2.0
55.972	3.0
55.987	2.0
56.002	8.0
56.017	12.0
56.032	8.0
56.047	5.0
56.063	6.0
56.078	7.0
56.093	3.0
56.108	10.0
56.123	6.0
56.138	6.0
56.154	7.0
56.169	3.0
56.184	7.0
56.199	3.0
56.214	6.0
56.229	4.0
56.244	8.0
56.26	5.0
56.275	4.0
56.29	4.0
56.305	1.0
56.32	5.0
56.335	5.0
56.351	3.0
56.366	6.0
56.381	2.0
56.396	7.0
56.411	1.0
56.426	4.0
56.441	4.0
56.457	2.0
56.472	5.0
56.487	5.0
56.502	4.0
56.517	4.0
56.532	5.0
56.547	2.0
56.563	4.0
56.578	3.0
56.593	2.0
56.608	3.0
56.623	1.0
56.638	4.0
56.653	7.0
56.668	4.0
56.684	7.0
56.699	5.0
56.714	8.0
56.729	9.0
56.744	4.0
56.759	6.0
56.774	2.0
56.79	3.0
56.805	7.0
56.82	4.0
56.835	7.0
56.85	4.0
56.865	6.0
56.88	7.0
56.895	2.0
56.911	3.0
56.926	2.0
56.941	4.0
56.956	6.0
56.971	6.0
56.986	7.0
57.001	3.0
57.016	2.0
57.031	5.0
57.047	5.0
57.062	6.0
57.077	2.0
57.092	8.0
57.107	3.0
57.122	3.0
57.137	3.0
57.152	6.0
57.167	2.0
57.183	6.0
57.198	5.0
57.213	6.0
57.228	3.0
57.243	3.0
57.258	6.0
57.273	5.0
57.288	4.0
57.303	4.0
57.318	7.0
57.334	6.0
57.349	8.0
57.364	5.0
57.379	0.0
57.394	4.0
57.409	6.0
57.424	3.0
57.439	6.0
57.454	4.0
57.469	5.0
57.484	5.0
57.5	6.0
57.515	4.0
57.53	3.0
57.545	4.0
57.56	6.0
57.575	3.0
57.59	6.0
57.605	6.0
57.62	7.0
57.635	7.0
57.65	3.0
57.665	6.0
57.68	4.0
57.696	2.0
57.711	6.0
57.726	7.0
57.741	3.0
57.756	3.0
57.771	2.0
57.786	5.0
57.801	10.0
57.816	4.0
57.831	5.0
57.846	9.0
57.861	3.0
57.876	3.0
57.891	2.0
57.906	4.0
57.921	6.0
57.937	6.0
57.952	3.0
57.967	7.0
57.982	6.0
57.997	9.0
58.012	6.0
58.027	2.0
58.042	1.0
58.057	7.0
58.072	4.0
58.087	6.0
58.102	3.0
58.117	1.0
58.132	3.0
58.147	3.0
58.162	6.0
58.177	5.0
58.192	10.0
58.207	3.0
58.222	5.0
58.237	1.0
58.252	6.0
58.267	9.0
58.282	6.0
58.297	1.0
58.312	4.0
58.327	2.0
58.342	8.0
58.357	0.0
58.372	4.0
58.387	4.0
58.402	4.0
58.418	5.0
58.433	2.0
58.448	6.0
58.463	1.0
58.478	4.0
58.493	6.0
58.508	6.0
58.523	5.0
58.538	5.0
58.553	4.0
58.568	7.0
58.583	7.0
58.598	5.0
58.613	4.0
58.628	13.0
58.643	8.0
58.658	10.0
58.673	6.0
58.688	11.0
58.703	7.0
58.718	9.0
58.733	6.0
58.748	10.0
58.763	4.0
58.778	7.0
58.793	6.0
58.808	6.0
58.823	2.0
58.838	4.0
58.853	5.0
58.868	3.0
58.883	6.0
58.898	8.0
58.913	3.0
58.928	4.0
58.942	5.0
58.957	7.0
58.972	9.0
58.987	10.0
59.002	5.0
59.017	8.0
59.032	11.0
59.047	10.0
59.062	10.0
59.077	5.0
59.092	6.0
59.107	6.0
59.122	2.0
59.137	3.0
59.152	4.0
59.167	6.0
59.182	4.0
59.197	3.0
59.212	6.0
59.227	10.0
59.242	4.0
59.257	0.0
59.272	5.0
59.287	0.0
59.302	4.0
59.317	8.0
59.332	4.0
59.347	3.0
59.362	3.0
59.377	4.0
59.392	3.0
59.407	5.0
59.422	4.0
59.437	4.0
59.452	3.0
59.467	5.0
59.482	2.0
59.497	6.0
59.512	2.0
59.527	7.0
59.542	1.0
59.557	6.0
59.572	6.0
59.587	6.0
59.602	6.0
59.617	10.0
59.632	9.0
59.647	8.0
59.661	5.0
59.676	5.0
59.691	10.0
59.706	10.0
59.721	3.0
59.736	7.0
59.751	3.0
59.766	3.0
59.781	6.0
59.796	1.0
59.811	4.0
59.826	3.0
59.841	3.0
59.856	7.0
59.871	5.0
59.886	4.0
59.901	4.0
59.916	2.0
59.931	4.0
59.946	8.0
59.961	7.0
59.976	8.0
59.991	5.0
60.006	8.0
60.021	7.0
60.036	2.0
60.051	5.0
60.066	5.0
60.081	6.0
60.096	5.0
60.111	8.0
60.126	6.0
60.141	5.0
60.156	1.0
60.171	3.0
60.186	1.0
60.201	1.0
60.216	7.0
60.231	7.0
60.246	2.0
60.261	3.0
60.276	6.0
60.291	5.0
60.306	2.0
60.321	5.0
60.336	6.0
60.35	4.0
60.365	4.0
60.38	3.0
60.395	2.0
60.41	0.0
60.425	2.0
60.44	8.0
60.455	2.0
60.47	3.0
60.485	9.0
60.5	1.0
60.515	4.0
60.53	6.0
60.545	6.0
60.56	10.0
60.575	3.0
60.59	10.0
60.605	15.0
60.62	5.0
60.635	10.0
60.65	5.0
60.665	3.0
60.68	6.0
60.695	4.0
60.71	2.0
60.725	3.0
60.74	7.0
60.755	6.0
60.77	1.0
60.785	3.0
60.8	5.0
60.815	5.0
60.83	7.0
60.845	4.0
60.86	2.0
60.875	7.0
60.89	6.0
60.905	5.0
60.92	6.0
60.935	2.0
60.95	7.0
60.965	7.0
60.98	9.0
60.995	7.0
61.01	3.0
61.025	7.0
61.04	10.0
61.055	3.0
61.07	2.0
61.085	4.0
61.1	5.0
61.115	6.0
61.13	4.0
61.145	4.0
61.16	3.0
61.175	4.0
61.191	2.0
61.206	8.0
61.221	0.0
61.236	2.0
61.251	4.0
61.266	2.0
61.281	6.0
61.296	7.0
61.311	4.0
61.326	2.0
61.341	5.0
61.356	2.0
61.371	1.0
61.386	6.0
61.401	9.0
61.416	7.0
61.431	6.0
61.446	6.0
61.461	8.0
61.476	10.0
61.491	6.0
61.506	5.0
61.521	2.0
61.536	3.0
61.551	5.0
61.566	5.0
61.581	8.0
61.596	7.0
61.611	2.0
61.626	3.0
61.641	3.0
61.656	8.0
61.672	4.0
61.687	5.0
61.702	2.0
61.717	6.0
61.732	3.0
61.747	4.0
61.762	7.0
61.777	5.0
61.792	3.0
61.807	3.0
61.822	0.0
61.837	3.0
61.852	4.0
61.867	4.0
61.882	3.0
61.897	4.0
61.912	5.0
61.927	8.0
61.943	2.0
61.958	1.0
61.973	3.0
61.988	6.0
62.003	6.0
62.018	7.0
62.033	5.0
62.048	3.0
62.063	2.0
62.078	2.0
62.093	4.0
62.108	0.0
62.123	8.0
62.138	6.0
62.153	5.0
62.169	6.0
62.184	2.0
62.199	5.0
62.214	4.0
62.229	2.0
62.244	6.0
62.259	5.0
62.274	2.0
62.289	2.0
62.304	3.0
62.319	0.0
62.335	1.0
62.35	3.0
62.365	1.0
62.38	2.0
62.395	0.0
62.41	0.0
62.425	4.0
62.44	5.0
62.455	3.0
62.47	3.0
62.485	3.0
62.501	3.0
62.516	5.0
62.531	8.0
62.546	4.0
62.561	6.0
62.576	5.0
62.591	0.0
62.606	7.0
62.621	2.0
62.636	4.0
62.652	4.0
62.667	4.0
62.682	2.0
62.697	4.0
62.712	5.0
62.727	4.0
62.742	4.0
62.757	4.0
62.772	5.0
62.787	8.0
62.803	5.0
62.818	3.0
62.833	5.0
62.848	6.0
62.863	1.0
62.878	3.0
62.893	4.0
62.908	3.0
62.923	9.0
62.939	5.0
62.954	8.0
62.969	4.0
62.984	5.0
62.999	6.0
63.014	7.0
63.029	7.0
63.044	3.0
63.059	4.0
63.074	3.0
63.09	6.0
63.105	2.0
63.12	5.0
63.135	3.0
63.15	4.0
63.165	6.0
63.18	5.0
63.195	7.0
63.21	4.0
63.226	3.0
63.241	3.0
63.256	3.0
63.271	7.0
63.286	7.0
63.301	1.0
63.316	9.0
63.331	9.0
63.346	7.0
63.362	11.0
63.377	7.0
63.392	12.0
63.407	11.0
63.422	4.0
63.437	8.0
63.452	5.0
63.467	7.0
63.482	4.0
63.497	6.0
63.513	5.0
63.528	4.0
63.543	4.0
63.558	6.0
63.573	1.0
63.588	7.0
63.603	4.0
63.618	4.0
63.633	4.0
63.648	4.0
63.664	2.0
63.679	6.0
63.694	4.0
63.709	2.0
63.724	4.0
63.739	11.0
63.754	3.0
63.769	1.0
63.784	3.0
63.799	5.0
63.814	7.0
63.83	6.0
63.845	9.0
63.86	7.0
63.875	4.0
63.89	4.0
63.905	6.0
63.92	5.0
63.935	4.0
63.95	0.0
63.965	3.0
63.98	4.0
63.996	0.0
64.011	7.0
64.026	5.0
64.041	3.0
64.056	2.0
64.071	2.0
64.086	7.0
64.101	3.0
64.116	4.0
64.131	4.0
64.146	5.0
64.161	3.0
64.176	3.0
64.191	5.0
64.207	0.0
64.222	3.0
64.237	6.0
64.252	3.0
64.267	1.0
64.282	3.0
64.297	4.0
64.312	3.0
64.327	5.0
64.342	1.0
64.357	4.0
64.372	3.0
64.387	5.0
64.402	7.0
64.417	7.0
64.433	1.0
64.448	3.0
64.463	1.0
64.478	3.0
64.493	6.0
64.508	7.0
64.523	0.0
64.538	2.0
64.553	2.0
64.568	3.0
64.583	1.0
64.598	5.0
64.613	3.0
64.628	5.0
64.643	5.0
64.658	1.0
64.673	2.0
64.688	6.0
64.703	2.0
64.718	2.0
64.734	5.0
64.749	0.0
64.764	1.0
64.779	2.0
64.794	4.0
64.809	3.0
64.824	6.0
64.839	3.0
64.854	6.0
64.869	4.0
64.884	4.0
64.899	6.0
64.914	7.0
64.929	5.0
64.944	3.0
64.959	1.0
64.974	0.0
64.989	6.0
65.004	2.0
65.019	6.0
65.034	1.0
65.049	6.0
65.064	0.0
65.079	4.0
65.094	3.0
65.109	3.0
65.125	5.0
65.14	6.0
65.155	6.0
65.17	8.0
65.185	4.0
65.2	5.0
65.215	5.0
65.23	4.0
65.245	3.0
65.26	9.0
65.275	3.0
65.29	7.0
65.305	4.0
65.32	2.0
65.335	6.0
65.35	6.0
65.365	6.0
65.38	3.0
65.395	1.0
65.41	5.0
65.425	3.0
65.44	2.0
65.455	5.0
65.47	4.0
65.485	4.0
65.5	3.0
65.515	3.0
65.53	3.0
65.545	2.0
65.56	9.0
65.575	5.0
65.59	4.0
65.605	4.0
65.62	5.0
65.635	4.0
65.65	5.0
65.666	3.0
65.681	5.0
65.696	6.0
65.711	3.0
65.726	4.0
65.741	5.0
65.756	2.0
65.771	6.0
65.786	5.0
65.801	2.0
65.816	4.0
65.831	4.0
65.846	3.0
65.861	4.0
65.876	6.0
65.891	7.0
65.906	5.0
65.921	5.0
65.936	2.0
65.951	4.0
65.966	3.0
65.981	2.0
65.996	3.0
66.011	2.0
66.026	2.0
66.041	3.0
66.056	1.0
66.071	6.0
66.086	7.0
66.101	7.0
66.116	7.0
66.131	10.0
66.146	7.0
66.161	5.0
66.176	6.0
66.191	7.0
66.206	12.0
66.221	8.0
66.236	10.0
66.251	11.0
66.266	4.0
66.281	5.0
66.296	5.0
66.311	1.0
66.327	3.0
66.342	4.0
66.357	6.0
66.372	6.0
66.387	0.0
66.402	3.0
66.417	2.0
66.432	1.0
66.447	2.0
66.462	4.0
66.477	1.0
66.492	5.0
66.507	7.0
66.522	8.0
66.537	5.0
66.552	3.0
66.567	4.0
66.582	4.0
66.597	6.0
66.612	3.0
66.627	3.0
66.642	7.0
66.657	5.0
66.672	10.0
66.687	2.0
66.702	5.0
66.717	2.0
66.732	9.0
66.747	2.0
66.762	3.0
66.777	3.0
66.792	6.0
66.807	6.0
66.822	7.0
66.837	2.0
66.853	3.0
66.868	4.0
66.883	4.0
66.898	3.0
66.913	3.0
66.928	5.0
66.943	2.0
66.958	6.0
66.973	4.0
66.988	3.0
67.003	5.0
67.018	5.0
67.033	4.0
67.048	3.0
67.063	5.0
67.078	4.0
67.093	12.0
67.108	8.0
67.123	7.0
67.138	4.0
67.153	5.0
67.168	6.0
67.183	4.0
67.198	3.0
67.214	2.0
67.229	5.0
67.244	1.0
67.259	4.0
67.274	3.0
67.289	2.0
67.304	4.0
67.319	5.0
67.334	2.0
67.349	1.0
67.364	6.0
67.379	2.0
67.394	4.0
67.409	4.0
67.424	4.0
67.439	3.0
67.454	6.0
67.469	3.0
67.484	2.0
67.5	2.0
67.515	3.0
67.53	0.0
67.545	3.0
67.56	6.0
67.575	4.0
67.59	2.0
67.605	7.0
67.62	1.0
67.635	4.0
67.65	2.0
67.665	5.0
67.68	0.0
67.695	2.0
67.71	7.0
67.726	2.0
67.741	1.0
67.756	4.0
67.771	6.0
67.786	6.0
67.801	3.0
67.816	6.0
67.831	5.0
67.846	1.0
67.861	3.0
67.876	5.0
67.891	4.0
67.906	5.0
67.922	2.0
67.937	2.0
67.952	2.0
67.967	4.0
67.982	11.0
67.997	5.0
68.012	6.0
68.027	4.0
68.042	8.0
68.057	3.0
68.072	1.0
68.087	4.0
68.103	3.0
68.118	2.0
68.133	6.0
68.148	2.0
68.163	3.0
68.178	7.0
68.193	2.0
68.208	4.0
68.223	5.0
68.238	5.0
68.254	1.0
68.269	2.0
68.284	5.0
68.299	3.0
68.314	2.0
68.329	0.0
68.344	4.0
68.359	1.0
68.374	4.0
68.389	3.0
68.405	2.0
68.42	1.0
68.435	5.0
68.45	4.0
68.465	3.0
68.48	3.0
68.495	2.0
68.51	5.0
68.525	6.0
68.54	4.0
68.556	2.0
68.571	4.0
68.586	2.0
68.601	4.0
68.616	3.0
68.631	2.0
68.646	1.0
68.661	5.0
68.676	5.0
68.691	3.0
68.707	2.0
68.722	4.0
68.737	2.0
68.752	3.0
68.767	2.0
68.782	5.0
68.797	3.0
68.812	4.0
68.827	4.0
68.842	9.0
68.857	5.0
68.873	6.0
68.888	0.0
68.903	3.0
68.918	9.0
68.933	2.0
68.948	2.0
68.963	6.0
68.978	5.0
68.993	3.0
69.008	4.0
69.023	3.0
69.038	3.0
69.054	2.0
69.069	5.0
69.084	1.0
69.099	2.0
69.114	2.0
69.129	3.0
69.144	4.0
69.159	1.0
69.174	1.0
69.189	1.0
69.204	1.0
69.219	2.0
69.234	6.0
69.249	7.0
69.264	6.0
69.279	4.0
69.295	2.0
69.31	3.0
69.325	5.0
69.34	5.0
69.355	4.0
69.37	4.0
69.385	4.0
69.4	1.0
69.415	3.0
69.43	1.0
69.445	4.0
69.46	4.0
69.475	4.0
69.49	3.0
69.505	4.0
69.52	2.0
69.535	9.0
69.55	4.0
69.565	2.0
69.58	0.0
69.595	7.0
69.61	3.0
69.625	4.0
69.64	6.0
69.655	5.0
69.67	3.0
69.685	4.0
69.7	0.0
69.715	3.0
69.73	10.0
69.745	6.0
69.76	13.0
69.775	2.0
69.79	6.0
69.805	6.0
69.82	9.0
69.835	7.0
69.85	7.0
69.865	4.0
69.88	6.0
69.895	6.0
69.909	4.0
69.924	3.0
69.939	3.0
69.954	0.0
69.969	3.0
69.984	1.0
69.999	4.0
70.014	3.0
70.029	5.0
70.044	3.0
70.059	7.0
70.074	1.0
70.088	4.0
70.103	2.0
70.118	6.0
70.133	4.0
70.148	3.0
70.163	2.0
70.178	10.0
70.193	5.0
70.208	4.0
70.222	4.0
70.237	4.0
70.252	8.0
70.267	2.0
70.282	10.0
70.297	3.0
70.312	5.0
70.327	4.0
70.341	9.0
70.356	0.0
70.371	5.0
70.386	2.0
70.401	3.0
70.416	2.0
70.43	4.0
70.445	3.0
70.46	5.0
70.475	2.0
70.49	3.0
70.505	4.0
70.519	4.0
70.534	8.0
70.549	0.0
70.564	6.0
70.579	7.0
70.594	3.0
70.608	5.0
70.623	7.0
70.638	8.0
70.653	5.0
70.668	8.0
70.683	5.0
70.697	1.0
70.712	9.0
70.727	4.0
70.742	5.0
70.757	4.0
70.771	1.0
70.786	3.0
70.801	6.0
70.816	2.0
70.831	3.0
70.845	2.0
70.86	4.0
70.875	3.0
70.89	4.0
70.905	1.0
70.92	3.0
70.934	8.0
70.949	4.0
70.964	4.0
70.979	4.0
70.994	4.0
71.008	4.0
71.023	4.0
71.038	4.0
71.053	5.0
71.068	2.0
71.082	2.0
71.097	5.0
71.112	3.0
71.127	4.0
71.142	6.0
71.156	2.0
71.171	3.0
71.186	8.0
71.201	3.0
71.216	2.0
71.231	8.0
71.245	1.0
71.26	6.0
71.275	5.0
71.29	1.0
71.305	3.0
71.319	1.0
71.334	4.0
71.349	4.0
71.364	1.0
71.379	3.0
71.394	2.0
71.408	7.0
71.423	5.0
71.438	3.0
71.453	4.0
71.468	0.0
71.483	3.0
71.497	3.0
71.512	4.0
71.527	0.0
71.542	5.0
71.557	7.0
71.572	4.0
71.586	3.0
71.601	3.0
71.616	5.0
71.631	6.0
71.646	4.0
71.661	5.0
71.676	0.0
71.69	1.0
71.705	4.0
71.72	3.0
71.735	1.0
71.75	5.0
71.765	5.0
71.78	1.0
71.795	2.0
71.81	3.0
71.824	2.0
71.839	5.0
71.854	2.0
71.869	2.0
71.884	3.0
71.899	2.0
71.914	1.0
71.929	2.0
71.944	1.0
71.959	2.0
71.974	3.0
71.988	4.0
72.003	2.0
72.018	3.0
72.033	4.0
72.048	2.0
72.063	8.0
72.078	3.0
72.093	0.0
72.108	2.0
72.123	4.0
72.138	6.0
72.153	6.0
72.168	5.0
72.183	4.0
72.198	6.0
72.213	5.0
72.228	1.0
72.243	2.0
72.258	2.0
72.273	3.0
72.288	3.0
72.303	3.0
72.318	1.0
72.333	1.0
72.348	4.0
72.363	5.0
72.378	6.0
72.393	1.0
72.408	2.0
72.423	4.0
72.438	3.0
72.453	3.0
72.468	3.0
72.483	2.0
72.498	2.0
72.513	5.0
72.528	1.0
72.543	1.0
72.558	3.0
72.573	5.0
72.588	3.0
72.603	6.0
72.618	2.0
72.633	5.0
72.649	0.0
72.664	3.0
72.679	1.0
72.694	3.0
72.709	5.0
72.724	5.0
72.739	2.0
72.754	4.0
72.769	4.0
72.784	5.0
72.799	3.0
72.814	6.0
72.829	4.0
72.845	4.0
72.86	2.0
72.875	3.0
72.89	3.0
72.905	3.0
72.92	2.0
72.935	4.0
72.95	6.0
72.965	3.0
72.98	3.0
72.996	2.0
73.011	3.0
73.026	4.0
73.041	4.0
73.056	1.0
73.071	4.0
73.086	4.0
73.101	2.0
73.117	4.0
73.132	4.0
73.147	2.0
73.162	2.0
73.177	4.0
73.192	1.0
73.207	0.0
73.222	4.0
73.238	2.0
73.253	4.0
73.268	4.0
73.283	3.0
73.298	3.0
73.313	11.0
73.328	5.0
73.343	1.0
73.359	9.0
73.374	4.0
73.389	2.0
73.404	4.0
73.419	4.0
73.434	0.0
73.449	2.0
73.465	2.0
73.48	4.0
73.495	3.0
73.51	1.0
73.525	3.0
73.54	2.0
73.556	4.0
73.571	3.0
73.586	5.0
73.601	5.0
73.616	6.0
73.631	4.0
73.646	4.0
73.662	1.0
73.677	2.0
73.692	2.0
73.707	4.0
73.722	4.0
73.737	3.0
73.752	1.0
73.768	3.0
73.783	3.0
73.798	5.0
73.813	6.0
73.828	7.0
73.843	3.0
73.859	6.0
73.874	4.0
73.889	2.0
73.904	4.0
73.919	5.0
73.934	5.0
73.949	3.0
73.965	3.0
73.98	6.0
73.995	3.0
74.01	2.0
74.025	6.0
74.04	2.0
74.056	2.0
74.071	4.0
74.086	3.0
74.101	9.0
74.116	5.0
74.131	2.0
74.146	2.0
74.162	4.0
74.177	6.0
74.192	9.0
74.207	6.0
74.222	4.0
74.237	7.0
74.252	4.0
74.268	2.0
74.283	5.0
74.298	6.0
74.313	4.0
74.328	1.0
74.343	5.0
74.358	1.0
74.374	1.0
74.389	4.0
74.404	1.0
74.419	4.0
74.434	0.0
74.449	4.0
74.464	3.0
74.48	4.0
74.495	4.0
74.51	1.0
74.525	1.0
74.54	4.0
74.555	1.0
74.57	5.0
74.586	3.0
74.601	5.0
74.616	4.0
74.631	6.0
74.646	6.0
74.661	1.0
74.676	2.0
74.691	4.0
74.707	3.0
74.722	8.0
74.737	9.0
74.752	1.0
74.767	7.0
74.782	1.0
74.797	4.0
74.813	2.0
74.828	4.0
74.843	7.0
74.858	3.0
74.873	4.0
74.888	1.0
74.903	3.0
74.918	3.0
74.934	2.0
74.949	6.0
74.964	5.0
74.979	4.0
74.994	8.0
75.009	3.0
75.024	4.0
75.04	2.0
75.055	7.0
75.07	2.0
75.085	5.0
75.1	6.0
75.115	8.0
75.13	4.0
75.145	4.0
75.161	7.0
75.176	2.0
75.191	0.0
75.206	3.0
75.221	2.0
75.236	4.0
75.251	5.0
75.266	2.0
75.282	5.0
75.297	8.0
75.312	4.0
75.327	4.0
75.342	1.0
75.357	8.0
75.372	2.0
75.387	6.0
75.403	5.0
75.418	2.0
75.433	2.0
75.448	3.0
75.463	3.0
75.478	4.0
75.493	3.0
75.509	7.0
75.524	3.0
75.539	6.0
75.554	3.0
75.569	4.0
75.584	3.0
75.599	7.0
75.614	2.0
75.63	2.0
75.645	4.0
75.66	2.0
75.675	4.0
75.69	4.0
75.705	4.0
75.72	4.0
75.735	2.0
75.751	1.0
75.766	2.0
75.781	3.0
75.796	4.0
75.811	6.0
75.826	2.0
75.841	5.0
75.856	4.0
75.872	4.0
75.887	5.0
75.902	3.0
75.917	4.0
75.932	6.0
75.947	4.0
75.962	5.0
75.977	4.0
75.993	2.0
76.008	5.0
76.023	2.0
76.038	1.0
76.053	5.0
76.068	1.0
76.083	3.0
76.098	5.0
76.114	3.0
76.129	4.0
76.144	4.0
76.159	3.0
76.174	5.0
76.189	4.0
76.204	3.0
76.22	3.0
76.235	4.0
76.25	2.0
76.265	1.0
76.28	3.0
76.295	3.0
76.31	3.0
76.325	2.0
76.341	4.0
76.356	7.0
76.371	5.0
76.386	5.0
76.401	2.0
76.416	3.0
76.431	1.0
76.446	3.0
76.462	5.0
76.477	3.0
76.492	3.0
76.507	5.0
76.522	2.0
76.537	1.0
76.552	5.0
76.567	2.0
76.583	4.0
76.598	5.0
76.613	4.0
76.628	2.0
76.643	2.0
76.658	5.0
76.673	2.0
76.688	3.0
76.704	5.0
76.719	2.0
76.734	2.0
76.749	1.0
76.764	4.0
76.779	2.0
76.794	3.0
76.809	4.0
76.824	3.0
76.84	5.0
76.855	4.0
76.87	4.0
76.885	2.0
76.9	7.0
76.915	5.0
76.93	2.0
76.945	8.0
76.96	3.0
76.976	4.0
76.991	4.0
77.006	6.0
77.021	5.0
77.036	3.0
77.051	6.0
77.066	2.0
77.081	5.0
77.096	5.0
77.112	5.0
77.127	2.0
77.142	7.0
77.157	3.0
77.172	6.0
77.187	2.0
77.202	5.0
77.217	4.0
77.232	5.0
77.247	3.0
77.263	8.0
77.278	3.0
77.293	5.0
77.308	5.0
77.323	3.0
77.338	4.0
77.353	4.0
77.368	6.0
77.383	5.0
77.398	4.0
77.413	2.0
77.428	1.0
77.444	0.0
77.459	5.0
77.474	3.0
77.489	5.0
77.504	1.0
77.519	2.0
77.534	2.0
77.549	0.0
77.564	5.0
77.579	3.0
77.594	5.0
77.609	5.0
77.624	7.0
77.64	6.0
77.655	1.0
77.67	2.0
77.685	4.0
77.7	4.0
77.715	3.0
77.73	4.0
77.745	4.0
77.76	2.0
77.775	3.0
77.79	4.0
77.805	1.0
77.82	6.0
77.835	1.0
77.85	2.0
77.865	2.0
77.88	5.0
77.895	1.0
77.91	4.0
77.926	6.0
77.941	4.0
77.956	4.0
77.971	1.0
77.986	5.0
78.001	4.0
78.016	6.0
78.031	5.0
78.046	1.0
78.061	2.0
78.076	4.0
78.091	5.0
78.106	0.0
78.121	9.0
78.136	2.0
78.151	2.0
78.166	1.0
78.181	5.0
78.196	5.0
78.211	3.0
78.226	8.0
78.241	4.0
78.256	4.0
78.271	2.0
78.286	4.0
78.301	2.0
78.316	6.0
78.331	5.0
78.346	3.0
78.361	2.0
78.376	4.0
78.391	1.0
78.406	2.0
78.421	2.0
78.436	3.0
78.451	2.0
78.466	4.0
78.481	1.0
78.496	4.0
78.511	6.0
78.526	2.0
78.541	4.0
78.556	4.0
78.571	1.0
78.586	4.0
78.601	4.0
78.616	1.0
78.631	4.0
78.646	2.0
78.661	3.0
78.676	1.0
78.691	3.0
78.706	3.0
78.721	3.0
78.736	3.0
78.751	5.0
78.766	1.0
78.781	1.0
78.796	1.0
78.811	1.0
78.826	5.0
78.841	5.0
78.856	1.0
78.871	5.0
78.885	2.0
78.9	1.0
78.915	3.0
78.93	3.0
78.945	4.0
78.96	2.0
78.975	4.0
78.99	3.0
79.005	4.0
79.02	4.0
79.035	4.0
79.05	0.0
79.065	4.0
79.08	4.0
79.095	3.0
79.11	4.0
79.125	2.0
79.14	2.0
79.155	1.0
79.17	0.0
79.185	4.0
79.2	0.0
79.215	5.0
79.23	4.0
79.245	5.0
79.26	7.0
79.275	1.0
79.29	5.0
79.304	1.0
79.319	2.0
79.334	5.0
79.349	7.0
79.364	3.0
79.379	6.0
79.394	3.0
79.409	2.0
79.424	3.0
79.439	1.0
79.454	1.0
79.469	2.0
79.484	5.0
79.499	4.0
79.514	4.0
79.529	6.0
79.544	0.0
79.559	3.0
79.574	5.0
79.589	2.0
79.604	3.0
79.619	6.0
79.634	1.0
79.649	1.0
79.664	1.0
79.679	3.0
79.693	0.0
79.708	3.0
79.723	2.0
79.738	1.0
79.753	3.0
79.768	3.0
79.783	1.0
79.798	3.0
79.813	7.0
79.828	5.0
79.843	4.0
79.858	4.0
79.873	1.0
79.888	2.0
79.903	1.0
79.918	1.0
79.933	3.0
79.948	5.0
79.963	6.0
79.978	3.0
79.993	6.0
80.008	3.0
80.023	5.0
80.038	5.0
80.053	2.0
80.068	5.0
80.083	3.0
80.098	3.0
80.113	0.0
80.128	3.0
80.143	5.0
80.158	5.0
80.173	5.0
80.188	5.0
80.202	3.0
80.217	3.0
80.232	3.0
80.247	3.0
80.262	4.0
80.277	2.0
80.292	4.0
80.307	0.0
80.322	7.0
80.337	2.0
80.352	2.0
80.367	4.0
80.382	2.0
80.397	5.0
80.412	4.0
80.427	3.0
80.442	1.0
80.457	4.0
80.472	2.0
80.487	3.0
80.502	2.0
80.517	4.0
80.532	3.0
80.547	5.0
80.562	3.0
80.577	9.0
80.592	4.0
80.607	1.0
80.622	1.0
80.637	4.0
80.652	6.0
80.667	0.0
80.682	3.0
80.697	4.0
80.712	3.0
80.727	1.0
80.742	1.0
80.757	4.0
80.772	1.0
80.787	9.0
80.802	0.0
80.817	3.0
80.832	1.0
80.847	3.0
80.862	1.0
80.877	3.0
80.892	2.0
80.907	2.0
80.922	4.0
80.937	7.0
80.952	3.0
80.967	3.0
80.982	3.0
80.997	7.0
81.012	2.0
81.027	2.0
81.042	3.0
81.057	2.0
81.072	2.0
81.087	5.0
81.101	3.0
81.116	1.0
81.131	5.0
81.146	5.0
81.161	3.0
81.176	3.0
81.191	0.0
81.206	4.0
81.221	1.0
81.236	3.0
81.251	4.0
81.266	2.0
81.281	1.0
81.296	1.0
81.311	3.0
81.326	6.0
81.341	2.0
81.356	3.0
81.371	2.0
81.386	3.0
81.401	2.0
81.416	5.0
81.431	4.0
81.446	4.0
81.461	5.0
81.476	4.0
81.491	2.0
81.506	2.0
81.521	2.0
81.536	4.0
81.55	7.0
81.565	3.0
81.58	4.0
81.595	3.0
81.61	9.0
81.625	2.0
81.64	3.0
81.655	2.0
81.67	5.0
81.685	2.0
81.7	3.0
81.715	1.0
81.73	2.0
81.745	2.0
81.76	2.0
81.775	2.0
81.79	6.0
81.805	4.0
81.819	3.0
81.834	7.0
81.849	3.0
81.864	4.0
81.879	2.0
81.894	3.0
81.909	7.0
81.924	6.0
81.939	2.0
81.954	3.0
81.969	4.0
81.984	2.0
81.999	3.0
82.013	4.0
82.028	2.0
82.043	4.0
82.058	4.0
82.073	5.0
82.088	3.0
82.103	4.0
82.118	3.0
82.133	2.0
82.148	3.0
82.163	0.0
82.177	3.0
82.192	1.0
82.207	7.0
82.222	1.0
82.237	4.0
82.252	3.0
82.267	1.0
82.282	1.0
82.297	3.0
82.312	6.0
82.326	3.0
82.341	1.0
82.356	1.0
82.371	5.0
82.386	2.0
82.401	4.0
82.416	4.0
82.431	2.0
82.445	5.0
82.46	3.0
82.475	7.0
82.49	7.0
82.505	1.0
82.52	3.0
82.535	6.0
82.55	6.0
82.565	7.0
82.579	4.0
82.594	3.0
82.609	2.0
82.624	1.0
82.639	2.0
82.654	3.0
82.669	4.0
82.684	5.0
82.698	2.0
82.713	1.0
82.728	6.0
82.743	3.0
82.758	1.0
82.773	6.0
82.788	1.0
82.803	1.0
82.817	5.0
82.832	2.0
82.847	5.0
82.862	1.0
82.877	2.0
82.892	1.0
82.907	3.0
82.922	0.0
82.937	3.0
82.951	2.0
82.966	2.0
82.981	2.0
82.996	4.0
83.011	5.0
83.026	4.0
83.041	2.0
83.056	3.0
83.07	4.0
83.085	3.0
83.1	3.0
83.115	3.0
83.13	4.0
83.145	4.0
83.16	4.0
83.175	2.0
83.19	5.0
83.204	4.0
83.219	2.0
83.234	1.0
83.249	2.0
83.264	2.0
83.279	4.0
83.294	4.0
83.309	2.0
83.324	1.0
83.339	0.0
83.353	4.0
83.368	5.0
83.383	1.0
83.398	3.0
83.413	4.0
83.428	1.0
83.443	1.0
83.458	2.0
83.473	5.0
83.488	5.0
83.503	3.0
83.517	1.0
83.532	2.0
83.547	4.0
83.562	4.0
83.577	3.0
83.592	3.0
83.607	0.0
83.622	6.0
83.637	9.0
83.652	5.0
83.667	3.0
83.682	4.0
83.697	5.0
83.712	3.0
83.727	2.0
83.741	0.0
83.756	5.0
83.771	0.0
83.786	3.0
83.801	2.0
83.816	3.0
83.831	2.0
83.846	3.0
83.861	4.0
83.876	1.0
83.891	6.0
83.906	7.0
83.921	2.0
83.936	1.0
83.951	1.0
83.966	8.0
83.981	2.0
83.996	2.0
84.011	3.0
84.026	4.0
84.041	2.0
84.056	5.0
84.071	3.0
84.086	7.0
84.101	4.0
84.116	3.0
84.131	2.0
84.146	3.0
84.161	7.0
84.176	5.0
84.191	8.0
84.206	6.0
84.221	2.0
84.236	5.0
84.251	4.0
84.266	6.0
84.281	6.0
84.296	8.0
84.311	7.0
84.326	6.0
84.341	7.0
84.356	7.0
84.371	6.0
84.386	6.0
84.401	5.0
84.416	3.0
84.431	3.0
84.446	2.0
84.461	5.0
84.476	2.0
84.492	1.0
84.507	3.0
84.522	3.0
84.537	2.0
84.552	2.0
84.567	3.0
84.582	2.0
84.597	3.0
84.612	4.0
84.627	3.0
84.642	0.0
84.657	2.0
84.672	2.0
84.687	3.0
84.702	3.0
84.717	3.0
84.733	4.0
84.748	1.0
84.763	1.0
84.778	1.0
84.793	1.0
84.808	1.0
84.823	4.0
84.838	0.0
84.853	2.0
84.868	1.0
84.883	2.0
84.898	0.0
84.913	3.0
84.929	0.0
84.944	2.0
84.959	6.0
84.974	4.0
84.989	4.0
85.004	3.0
85.019	5.0
85.034	1.0
85.049	3.0
85.064	5.0
85.079	3.0
85.094	2.0
85.11	3.0
85.125	3.0
85.14	4.0
85.155	4.0
85.17	1.0
85.185	3.0
85.2	2.0
85.215	4.0
85.23	2.0
85.245	1.0
85.26	3.0
85.276	4.0
85.291	1.0
85.306	2.0
85.321	7.0
85.336	2.0
85.351	5.0
85.366	4.0
85.381	1.0
85.396	2.0
85.411	2.0
85.426	4.0
85.441	4.0
85.457	2.0
85.472	2.0
85.487	6.0
85.502	3.0
85.517	2.0
85.532	2.0
85.547	2.0
85.562	2.0
85.577	4.0
85.592	4.0
85.607	3.0
85.622	1.0
85.637	7.0
85.653	7.0
85.668	5.0
85.683	0.0
85.698	4.0
85.713	1.0
85.728	1.0
85.743	1.0
85.758	7.0
85.773	4.0
85.788	2.0
85.803	2.0
85.818	5.0
85.833	2.0
85.848	1.0
85.863	3.0
85.879	1.0
85.894	3.0
85.909	3.0
85.924	3.0
85.939	2.0
85.954	2.0
85.969	2.0
85.984	0.0
85.999	3.0
86.014	5.0
86.029	2.0
86.044	4.0
86.059	0.0
86.074	4.0
86.089	4.0
86.104	1.0
86.119	3.0
86.134	4.0
86.149	4.0
86.164	2.0
86.179	4.0
86.194	3.0
86.209	2.0
86.224	5.0
86.239	2.0
86.254	6.0
86.269	1.0
86.284	5.0
86.299	2.0
86.314	3.0
86.33	4.0
86.345	2.0
86.36	2.0
86.375	2.0
86.39	1.0
86.405	2.0
86.42	2.0
86.435	0.0
86.45	3.0
86.465	4.0
86.48	1.0
86.495	8.0
86.51	4.0
86.525	4.0
86.54	4.0
86.555	4.0
86.57	5.0
86.585	3.0
86.6	3.0
86.615	4.0
86.63	0.0
86.645	4.0
86.659	2.0
86.674	4.0
86.689	2.0
86.704	2.0
86.719	1.0
86.734	3.0
86.749	6.0
86.764	1.0
86.779	5.0
86.794	5.0
86.809	3.0
86.824	1.0
86.839	4.0
86.854	2.0
86.869	4.0
86.884	4.0
86.899	4.0
86.914	4.0
86.929	4.0
86.944	9.0
86.959	5.0
86.974	5.0
86.989	4.0
87.004	1.0
87.019	5.0
87.034	5.0
87.049	3.0
87.064	4.0
87.079	3.0
87.094	2.0
87.109	2.0
87.124	0.0
87.139	1.0
87.154	4.0
87.169	3.0
87.184	1.0
87.199	1.0
87.214	6.0
87.229	3.0
87.244	1.0
87.259	6.0
87.274	5.0
87.289	5.0
87.304	4.0
87.319	2.0
87.334	5.0
87.349	3.0
87.364	2.0
87.379	3.0
87.394	1.0
87.409	2.0
87.424	1.0
87.438	2.0
87.453	4.0
87.468	3.0
87.483	3.0
87.498	1.0
87.513	3.0
87.528	3.0
87.543	1.0
87.558	7.0
87.573	7.0
87.588	4.0
87.603	3.0
87.618	4.0
87.633	1.0
87.648	1.0
87.663	3.0
87.678	5.0
87.693	4.0
87.708	3.0
87.723	5.0
87.738	2.0
87.753	3.0
87.768	4.0
87.783	4.0
87.798	3.0
87.813	5.0
87.828	1.0
87.843	0.0
87.858	3.0
87.873	6.0
87.888	4.0
87.903	3.0
87.918	1.0
87.933	4.0
87.948	4.0
87.963	3.0
87.978	3.0
87.993	4.0
88.008	2.0
88.023	2.0
88.038	1.0
88.053	2.0
88.068	1.0
88.083	8.0
88.098	2.0
88.113	1.0
88.128	3.0
88.143	5.0
88.158	1.0
88.174	8.0
88.189	7.0
88.204	3.0
88.219	5.0
88.234	4.0
88.249	3.0
88.264	3.0
88.279	1.0
88.294	5.0
88.309	7.0
88.324	3.0
88.339	3.0
88.354	8.0
88.369	3.0
88.384	1.0
88.399	2.0
88.414	6.0
88.429	1.0
88.444	6.0
88.459	4.0
88.474	3.0
88.489	0.0
88.504	4.0
88.519	6.0
88.534	6.0
88.549	1.0
88.564	1.0
88.58	3.0
88.595	3.0
88.61	4.0
88.625	3.0
88.64	5.0
88.655	4.0
88.67	3.0
88.685	4.0
88.7	2.0
88.715	5.0
88.73	2.0
88.745	4.0
88.76	3.0
88.775	3.0
88.79	1.0
88.805	1.0
88.82	0.0
88.835	2.0
88.85	3.0
88.865	2.0
88.88	3.0
88.895	1.0
88.911	2.0
88.926	3.0
88.941	4.0
88.956	3.0
88.971	1.0
88.986	5.0
89.001	4.0
89.016	4.0
89.031	3.0
89.046	3.0
89.061	6.0
89.076	5.0
89.091	1.0
89.106	3.0
89.121	2.0
89.136	3.0
89.151	2.0
89.166	4.0
89.181	1.0
89.196	1.0
89.211	6.0
89.227	3.0
89.242	1.0
89.257	5.0
89.272	4.0
89.287	3.0
89.302	4.0
89.317	4.0
89.332	1.0
89.347	6.0
89.362	3.0
89.377	5.0
89.392	4.0
89.407	5.0
89.422	4.0
89.437	2.0
89.452	5.0
89.467	3.0
89.482	1.0
89.497	9.0
89.512	5.0
89.527	3.0
89.542	5.0
89.557	2.0
89.572	2.0
89.587	3.0
89.602	1.0
89.617	5.0
89.632	3.0
89.647	2.0
89.662	2.0
89.677	1.0
89.693	3.0
89.708	5.0
89.723	3.0
89.738	2.0
89.753	4.0
89.768	1.0
89.783	2.0
89.798	3.0
89.813	5.0
89.828	5.0
89.843	3.0
89.858	1.0
89.873	3.0
89.888	2.0
89.903	3.0
89.918	5.0
89.933	3.0
89.948	2.0
89.963	2.0
89.978	3.0
89.993	4.0
90.008	2.0
90.023	4.0
90.038	3.0
90.053	2.0
90.068	4.0
90.083	4.0
90.097	6.0
90.112	4.0
90.127	3.0
90.142	3.0
90.157	6.0
90.172	4.0
90.187	3.0
90.202	4.0
90.217	9.0
90.232	5.0
90.247	3.0
90.262	3.0
90.277	7.0
90.292	3.0
90.307	5.0
90.322	3.0
90.337	4.0
90.352	4.0
90.367	5.0
90.382	4.0
90.397	3.0
90.412	4.0
90.427	3.0
90.442	3.0
90.457	2.0
90.472	2.0
90.487	2.0
90.501	0.0
90.516	3.0
90.531	4.0
90.546	2.0
90.561	2.0
90.576	4.0
90.591	0.0
90.606	6.0
90.621	3.0
90.636	0.0
90.651	2.0
90.666	5.0
90.681	4.0
90.696	5.0
90.711	1.0
90.726	3.0
90.741	4.0
90.755	3.0
90.77	0.0
90.785	4.0
90.8	2.0
90.815	5.0
90.83	3.0
90.845	5.0
90.86	3.0
90.875	2.0
90.89	2.0
90.905	3.0
90.92	4.0
90.935	4.0
90.95	7.0
90.965	0.0
90.979	4.0
90.994	3.0
91.009	6.0
91.024	5.0
91.039	4.0
91.054	5.0
91.069	3.0
91.084	0.0
91.099	2.0
91.114	5.0
91.129	5.0
91.144	3.0
91.159	1.0
91.174	2.0
91.188	2.0
91.203	1.0
91.218	2.0
91.233	1.0
91.248	0.0
91.263	4.0
91.278	3.0
91.293	3.0
91.308	0.0
91.323	4.0
91.338	6.0
91.353	2.0
91.368	2.0
91.383	2.0
91.398	7.0
91.412	5.0
91.427	3.0
91.442	2.0
91.457	2.0
91.472	2.0
91.487	2.0
91.502	6.0
91.517	4.0
91.532	2.0
91.547	5.0
91.562	3.0
91.577	4.0
91.592	5.0
91.607	4.0
91.622	2.0
91.637	4.0
91.652	7.0
91.666	2.0
91.681	2.0
91.696	5.0
91.711	3.0
91.726	5.0
91.741	6.0
91.756	3.0
91.771	5.0
91.786	5.0
91.801	4.0
91.816	3.0
91.831	3.0
91.846	6.0
91.861	1.0
91.876	3.0
91.891	1.0
91.906	2.0
91.921	2.0
91.936	2.0
91.951	4.0
91.966	2.0
91.981	3.0
91.995	2.0
92.01	0.0
92.025	4.0
92.04	4.0
92.055	3.0
92.07	4.0
92.085	3.0
92.1	3.0
92.115	3.0
92.13	2.0
92.145	2.0
92.16	5.0
92.175	2.0
92.19	3.0
92.205	2.0
92.22	1.0
92.235	2.0
92.25	2.0
92.265	2.0
92.28	2.0
92.295	4.0
92.31	7.0
92.325	3.0
92.34	6.0
92.355	2.0
92.37	1.0
92.385	1.0
92.4	4.0
92.415	4.0
92.43	2.0
92.445	0.0
92.46	4.0
92.475	0.0
92.49	3.0
92.505	2.0
92.52	4.0
92.535	1.0
92.55	2.0
92.565	4.0
92.58	2.0
92.595	6.0
92.61	3.0
92.625	0.0
92.64	4.0
92.655	2.0
92.67	3.0
92.685	5.0
92.7	4.0
92.715	2.0
92.73	1.0
92.745	1.0
92.76	5.0
92.775	2.0
92.79	3.0
92.805	4.0
92.82	4.0
92.835	2.0
92.85	4.0
92.865	6.0
92.88	4.0
92.895	2.0
92.91	0.0
92.925	2.0
92.94	2.0
92.955	4.0
92.97	1.0
92.985	2.0
93.0	0.0
93.015	3.0
93.03	1.0
93.045	2.0
93.06	0.0
93.075	4.0
93.09	2.0
93.105	1.0
93.12	1.0
93.135	2.0
93.15	2.0
93.165	6.0
93.18	2.0
93.195	1.0
93.21	5.0
93.225	4.0
93.24	1.0
93.255	0.0
93.27	4.0
93.285	3.0
93.3	0.0
93.315	0.0
93.33	3.0
93.345	2.0
93.36	2.0
93.375	1.0
93.39	2.0
93.405	1.0
93.42	1.0
93.435	2.0
93.45	2.0
93.465	5.0
93.48	1.0
93.495	1.0
93.51	4.0
93.525	3.0
93.54	0.0
93.555	5.0
93.57	4.0
93.585	6.0
93.6	2.0
93.615	4.0
93.63	4.0
93.645	3.0
93.66	2.0
93.675	4.0
93.69	1.0
93.705	3.0
93.72	2.0
93.735	4.0
93.75	3.0
93.765	2.0
93.78	4.0
93.795	2.0
93.81	6.0
93.824	4.0
93.839	1.0
93.854	3.0
93.869	2.0
93.884	3.0
93.899	0.0
93.914	2.0
93.929	7.0
93.944	0.0
93.959	4.0
93.974	2.0
93.989	2.0
94.004	1.0
94.019	2.0
94.034	1.0
94.049	3.0
94.064	4.0
94.079	3.0
94.094	2.0
94.108	1.0
94.123	3.0
94.138	3.0
94.153	1.0
94.168	4.0
94.183	3.0
94.198	0.0
94.213	4.0
94.228	2.0
94.243	3.0
94.258	3.0
94.273	6.0
94.288	4.0
94.302	1.0
94.317	5.0
94.332	3.0
94.347	5.0
94.362	3.0
94.377	1.0
94.392	6.0
94.407	6.0
94.422	1.0
94.437	4.0
94.452	4.0
94.466	3.0
94.481	2.0
94.496	3.0
94.511	5.0
94.526	2.0
94.541	4.0
94.556	6.0
94.571	2.0
94.586	0.0
94.601	4.0
94.615	2.0
94.63	5.0
94.645	3.0
94.66	1.0
94.675	5.0
94.69	4.0
94.705	1.0
94.72	6.0
94.735	4.0
94.749	3.0
94.764	6.0
94.779	4.0
94.794	4.0
94.809	2.0
94.824	1.0
94.839	3.0
94.854	8.0
94.868	2.0
94.883	2.0
94.898	4.0
94.913	5.0
94.928	1.0
94.943	3.0
94.958	4.0
94.973	1.0
94.987	1.0
95.002	4.0
95.017	7.0
95.032	2.0
95.047	3.0
95.062	3.0
95.077	5.0
95.092	1.0
95.106	2.0
95.121	2.0
95.136	2.0
95.151	1.0
95.166	2.0
95.181	2.0
95.196	6.0
95.211	5.0
95.226	4.0
95.24	0.0
95.255	0.0
95.27	7.0
95.285	2.0
95.3	4.0
95.315	0.0
95.33	2.0
95.345	7.0
95.359	3.0
95.374	4.0
95.389	2.0
95.404	4.0
95.419	1.0
95.434	4.0
95.449	0.0
95.464	2.0
95.478	3.0
95.493	6.0
95.508	1.0
95.523	2.0
95.538	1.0
95.553	4.0
95.568	0.0
95.583	4.0
95.597	3.0
95.612	2.0
95.627	1.0
95.642	0.0
95.657	3.0
95.672	6.0
95.687	3.0
95.702	2.0
95.717	3.0
95.731	1.0
95.746	2.0
95.761	4.0
95.776	5.0
95.791	3.0
95.806	3.0
95.821	4.0
95.836	3.0
95.851	1.0
95.866	6.0
95.88	5.0
95.895	6.0
95.91	4.0
95.925	3.0
95.94	5.0
95.955	1.0
95.97	5.0
95.985	1.0
96.0	4.0
96.015	4.0
96.029	5.0
96.044	4.0
96.059	2.0
96.074	5.0
96.089	5.0
96.104	9.0
96.119	3.0
96.134	1.0
96.149	5.0
96.164	3.0
96.179	1.0
96.194	3.0
96.208	1.0
96.223	2.0
96.238	2.0
96.253	4.0
96.268	1.0
96.283	2.0
96.298	6.0
96.313	2.0
96.328	3.0
96.343	4.0
96.358	1.0
96.373	7.0
96.388	5.0
96.403	3.0
96.417	8.0
96.432	0.0
96.447	2.0
96.462	2.0
96.477	3.0
96.492	3.0
96.507	3.0
96.522	4.0
96.537	1.0
96.552	4.0
96.567	3.0
96.582	2.0
96.597	1.0
96.612	2.0
96.627	3.0
96.642	3.0
96.656	4.0
96.671	2.0
96.686	2.0
96.701	5.0
96.716	6.0
96.731	5.0
96.746	0.0
96.761	4.0
96.776	3.0
96.791	6.0
96.806	8.0
96.821	3.0
96.836	4.0
96.851	5.0
96.866	1.0
96.881	6.0
96.896	4.0
96.911	3.0
96.926	4.0
96.94	0.0
96.955	4.0
96.97	2.0
96.985	3.0
97.0	3.0
97.015	3.0
97.03	6.0
97.045	4.0
97.06	1.0
97.075	1.0
97.09	1.0
97.105	3.0
97.12	0.0
97.135	1.0
97.15	1.0
97.165	4.0
97.18	6.0
97.195	5.0
97.21	1.0
97.225	1.0
97.239	5.0
97.254	3.0
97.269	2.0
97.284	4.0
97.299	3.0
97.314	2.0
97.329	4.0
97.344	2.0
97.359	4.0
97.374	4.0
97.389	3.0
97.404	0.0
97.419	1.0
97.434	4.0
97.449	0.0
97.464	2.0
97.479	3.0
97.494	3.0
97.509	3.0
97.524	4.0
97.538	3.0
97.553	5.0
97.568	1.0
97.583	3.0
97.598	5.0
97.613	6.0
97.628	0.0
97.643	4.0
97.658	4.0
97.673	2.0
97.688	5.0
97.703	3.0
97.718	5.0
97.733	3.0
97.748	6.0
97.763	4.0
97.778	3.0
97.792	3.0
97.807	4.0
97.822	4.0
97.837	7.0
97.852	2.0
97.867	0.0
97.882	4.0
97.897	6.0
97.912	4.0
97.927	3.0
97.942	3.0
97.957	6.0
97.972	0.0
97.987	3.0
98.001	1.0
98.016	4.0
98.031	4.0
98.046	3.0
98.061	2.0
98.076	2.0
98.091	3.0
98.106	5.0
98.121	3.0
98.136	4.0
98.151	2.0
98.166	5.0
98.181	2.0
98.195	4.0
98.21	4.0
98.225	2.0
98.24	5.0
98.255	6.0
98.27	4.0
98.285	2.0
98.3	4.0
98.315	4.0
98.33	7.0
98.345	0.0
98.359	1.0
98.374	3.0
98.389	4.0
98.404	1.0
98.419	3.0
98.434	4.0
98.449	1.0
98.464	1.0
98.479	4.0
98.494	2.0
98.508	3.0
98.523	1.0
98.538	1.0
98.553	1.0
98.568	4.0
98.583	3.0
98.598	4.0
98.613	3.0
98.628	5.0
98.642	0.0
98.657	3.0
98.672	2.0
98.687	2.0
98.702	1.0
98.717	6.0
98.732	3.0
98.747	3.0
98.762	3.0
98.776	2.0
98.791	2.0
98.806	1.0
98.821	4.0
98.836	2.0
98.851	1.0
98.866	4.0
98.881	0.0
98.896	2.0
98.91	6.0
98.925	2.0
98.94	6.0
98.955	2.0
98.97	2.0
98.985	6.0
99.0	1.0
99.015	3.0
99.029	1.0
99.044	2.0
99.059	3.0
99.074	4.0
99.089	3.0
99.104	5.0
99.119	3.0
99.133	4.0
99.148	7.0
99.163	5.0
99.178	2.0
99.193	1.0
99.208	4.0
99.223	5.0
99.238	5.0
99.252	0.0
99.267	1.0
99.282	2.0
99.297	6.0
99.312	4.0
99.327	5.0
99.342	1.0
99.356	3.0
99.371	3.0
99.386	3.0
99.401	2.0
99.416	4.0
99.431	1.0
99.446	4.0
99.461	2.0
99.475	1.0
99.49	6.0
99.505	3.0
99.52	2.0
99.535	3.0
99.55	3.0
99.565	2.0
99.579	4.0
99.594	4.0
99.609	2.0
99.624	0.0
99.639	4.0
99.654	1.0
99.669	3.0
99.683	3.0
99.698	0.0
99.713	0.0
99.728	3.0
99.743	6.0
99.758	2.0
99.772	3.0
99.787	4.0
99.802	4.0
99.817	1.0
99.832	4.0
99.847	3.0
99.862	4.0
99.876	6.0
99.891	5.0
99.906	2.0
99.921	5.0
99.936	2.0
99.951	2.0
99.966	3.0
99.98	1.0
99.995	4.0
100.01	3.0
100.025	3.0
100.04	4.0
100.055	2.0
100.069	4.0
100.084	5.0
100.099	5.0
100.114	3.0
100.129	5.0
100.144	4.0
100.159	1.0
100.173	4.0
100.188	4.0
100.203	3.0
100.218	2.0
100.233	2.0
100.248	6.0
100.262	5.0
100.277	2.0
100.292	5.0
100.307	1.0
100.322	3.0
100.337	4.0
100.351	10.0
100.366	1.0
100.381	6.0
100.396	4.0
100.411	3.0
100.426	5.0
100.441	3.0
100.455	2.0
100.47	1.0
100.485	0.0
100.5	1.0
100.515	5.0
100.53	1.0
100.544	2.0
100.559	3.0
100.574	3.0
100.589	5.0
100.604	2.0
100.619	3.0
100.633	1.0
100.648	2.0
100.663	1.0
100.678	1.0
100.693	3.0
100.708	2.0
100.722	2.0
100.737	2.0
100.752	8.0
100.767	2.0
100.782	4.0
100.796	3.0
100.811	4.0
100.826	4.0
100.841	0.0
100.856	0.0
100.871	7.0
100.885	2.0
100.9	6.0
100.915	4.0
100.93	3.0
100.945	3.0
100.96	1.0
100.974	3.0
100.989	3.0
101.004	3.0
101.019	3.0
101.034	4.0
101.048	5.0
101.063	3.0
101.078	5.0
101.093	4.0
101.108	6.0
101.123	2.0
101.137	5.0
101.152	7.0
101.167	3.0
101.182	3.0
101.197	5.0
101.211	3.0
101.226	5.0
101.241	3.0
101.256	3.0
101.271	2.0
101.285	7.0
101.3	1.0
101.315	6.0
101.33	2.0
101.345	8.0
101.359	0.0
101.374	4.0
101.389	5.0
101.404	3.0
101.419	3.0
101.433	4.0
101.448	1.0
101.463	5.0
101.478	2.0
101.493	7.0
101.507	5.0
101.522	2.0
101.537	3.0
101.552	9.0
101.567	2.0
101.581	2.0
101.596	3.0
101.611	1.0
101.626	1.0
101.64	4.0
101.655	1.0
101.67	2.0
101.685	5.0
101.7	0.0
101.714	5.0
101.729	4.0
101.744	2.0
101.759	3.0
101.773	6.0
101.788	3.0
101.803	1.0
101.818	4.0
101.833	3.0
101.847	2.0
101.862	1.0
101.877	2.0
101.892	1.0
101.906	2.0
101.921	7.0
101.936	5.0
101.951	3.0
101.965	3.0
101.98	6.0
101.995	6.0
102.01	5.0
102.025	4.0
102.039	2.0
102.054	5.0
102.069	4.0
102.084	4.0
102.098	4.0
102.113	3.0
102.128	5.0
102.143	1.0
102.157	2.0
102.172	3.0
102.187	1.0
102.202	3.0
102.216	1.0
102.231	2.0
102.246	2.0
102.261	9.0
102.275	1.0
102.29	5.0
102.305	1.0
102.32	6.0
102.334	0.0
102.349	6.0
102.364	3.0
102.378	6.0
102.393	4.0
102.408	2.0
102.423	6.0
102.437	4.0
102.452	2.0
102.467	5.0
102.482	2.0
102.496	3.0
102.511	1.0
102.526	1.0
102.541	3.0
102.555	3.0
102.57	5.0
102.585	3.0
102.6	2.0
102.614	2.0
102.629	5.0
102.644	4.0
102.659	2.0
102.673	0.0
102.688	1.0
102.703	3.0
102.717	6.0
102.732	5.0
102.747	3.0
102.762	3.0
102.776	3.0
102.791	1.0
102.806	3.0
102.821	3.0
102.835	3.0
102.85	5.0
102.865	5.0
102.88	3.0
102.894	5.0
102.909	7.0
102.924	8.0
102.938	4.0
102.953	4.0
102.968	5.0
102.983	3.0
102.997	1.0
103.012	5.0
103.027	1.0
103.042	1.0
103.056	6.0
103.071	2.0
103.086	5.0
103.101	3.0
103.115	1.0
103.13	2.0
103.145	5.0
103.16	2.0
103.174	3.0
103.189	4.0
103.204	0.0
103.219	8.0
103.233	5.0
103.248	3.0
103.263	2.0
103.278	6.0
103.292	5.0
103.307	3.0
103.322	3.0
103.337	9.0
103.351	3.0
103.366	3.0
103.381	3.0
103.396	5.0
103.41	2.0
103.425	5.0
103.44	5.0
103.455	8.0
103.469	7.0
103.484	3.0
103.499	2.0
103.514	4.0
103.529	5.0
103.543	4.0
103.558	8.0
103.573	8.0
103.588	4.0
103.602	4.0
103.617	2.0
103.632	4.0
103.647	0.0
103.661	3.0
103.676	1.0
103.691	5.0
103.706	6.0
103.721	3.0
103.735	5.0
103.75	2.0
103.765	1.0
103.78	2.0
103.795	3.0
103.809	2.0
103.824	5.0
103.839	5.0
103.854	4.0
103.869	4.0
103.883	1.0
103.898	4.0
103.913	2.0
103.928	5.0
103.943	6.0
103.957	4.0
103.972	4.0
103.987	4.0
104.002	4.0
104.017	3.0
104.031	6.0
104.046	3.0
104.061	3.0
104.076	5.0
104.091	3.0
104.106	3.0
104.12	6.0
104.135	5.0
104.15	0.0
104.165	2.0
104.18	2.0
104.195	3.0
104.209	2.0
104.224	2.0
104.239	4.0
104.254	3.0
104.269	7.0
104.284	5.0
104.299	0.0
104.313	2.0
104.328	3.0
104.343	2.0
104.358	0.0
104.373	3.0
104.388	1.0
104.403	4.0
104.417	2.0
104.432	2.0
104.447	2.0
104.462	2.0
104.477	0.0
104.492	3.0
104.507	3.0
104.522	3.0
104.536	1.0
104.551	6.0
104.566	1.0
104.581	3.0
104.596	3.0
104.611	4.0
104.626	4.0
104.641	1.0
104.656	4.0
104.67	0.0
104.685	3.0
104.7	5.0
104.715	5.0
104.73	6.0
104.745	2.0
104.76	6.0
104.775	4.0
104.79	1.0
104.804	3.0
104.819	6.0
104.834	4.0
104.849	2.0
104.864	5.0
104.879	1.0
104.894	2.0
104.909	3.0
104.924	2.0
104.939	2.0
104.954	3.0
104.968	4.0
104.983	3.0
104.998	1.0
105.013	2.0
105.028	3.0
105.043	1.0
105.058	1.0
105.073	3.0
105.088	4.0
105.103	1.0
105.118	2.0
105.133	3.0
105.147	3.0
105.162	5.0
105.177	3.0
105.192	8.0
105.207	0.0
105.222	3.0
105.237	3.0
105.252	5.0
105.267	4.0
105.282	1.0
105.297	6.0
105.312	4.0
105.327	1.0
105.342	1.0
105.356	3.0
105.371	2.0
105.386	4.0
105.401	5.0
105.416	3.0
105.431	3.0
105.446	2.0
105.461	4.0
105.476	0.0
105.491	2.0
105.506	3.0
105.521	3.0
105.536	2.0
105.551	1.0
105.566	4.0
105.581	3.0
105.595	5.0
105.61	2.0
105.625	9.0
105.64	2.0
105.655	9.0
105.67	5.0
105.685	5.0
105.7	6.0
105.715	5.0
105.73	2.0
105.745	3.0
105.76	1.0
105.775	6.0
105.79	1.0
105.805	6.0
105.82	2.0
105.835	4.0
105.85	3.0
105.864	2.0
105.879	5.0
105.894	3.0
105.909	4.0
105.924	3.0
105.939	2.0
105.954	5.0
105.969	4.0
105.984	5.0
105.999	4.0
106.014	1.0
106.029	0.0
106.044	1.0
106.059	2.0
106.074	4.0
106.089	5.0
106.104	4.0
106.119	2.0
106.134	3.0
106.148	4.0
106.163	1.0
106.178	4.0
106.193	2.0
106.208	2.0
106.223	6.0
106.238	4.0
106.253	7.0
106.268	3.0
106.283	4.0
106.298	6.0
106.313	2.0
106.328	10.0
106.343	2.0
106.358	2.0
106.373	0.0
106.388	3.0
106.403	5.0
106.418	3.0
106.432	2.0
106.447	5.0
106.462	3.0
106.477	1.0
106.492	4.0
106.507	3.0
106.522	8.0
106.537	2.0
106.552	2.0
106.567	3.0
106.582	3.0
106.597	6.0
106.612	4.0
106.627	4.0
106.642	2.0
106.657	1.0
106.672	1.0
106.687	7.0
106.701	4.0
106.716	1.0
106.731	2.0
106.746	5.0
106.761	5.0
106.776	2.0
106.791	2.0
106.806	5.0
106.821	1.0
106.836	5.0
106.851	8.0
106.866	1.0
106.881	2.0
106.896	5.0
106.911	3.0
106.926	3.0
106.941	2.0
106.955	3.0
106.97	2.0
106.985	2.0
107.0	1.0
107.015	2.0
107.03	1.0
107.045	6.0
107.06	1.0
107.075	1.0
107.09	3.0
107.105	8.0
107.12	3.0
107.135	3.0
107.15	4.0
107.165	5.0
107.18	2.0
107.194	4.0
107.209	4.0
107.224	2.0
107.239	3.0
107.254	3.0
107.269	2.0
107.284	4.0
107.299	5.0
107.314	6.0
107.329	2.0
107.344	6.0
107.359	5.0
107.374	2.0
107.389	4.0
107.404	3.0
107.418	5.0
107.433	2.0
107.448	4.0
107.463	1.0
107.478	8.0
107.493	4.0
107.508	5.0
107.523	3.0
107.538	4.0
107.553	2.0
107.568	5.0
107.583	2.0
107.598	4.0
107.613	4.0
107.627	2.0
107.642	4.0
107.657	2.0
107.672	2.0
107.687	3.0
107.702	1.0
107.717	3.0
107.732	5.0
107.747	3.0
107.762	5.0
107.777	2.0
107.792	4.0
107.807	1.0
107.821	1.0
107.836	4.0
107.851	1.0
107.866	2.0
107.881	2.0
107.896	3.0
107.911	2.0
107.926	1.0
107.941	1.0
107.956	4.0
107.971	3.0
107.986	3.0
108.0	2.0
108.015	3.0
108.03	3.0
108.045	0.0
108.06	2.0
108.075	4.0
108.09	6.0
108.105	3.0
108.12	4.0
108.135	2.0
108.15	9.0
108.164	7.0
108.179	4.0
108.194	5.0
108.209	0.0
108.224	3.0
108.239	2.0
108.254	2.0
108.269	1.0
108.284	2.0
108.299	2.0
108.313	4.0
108.328	1.0
108.343	3.0
108.358	3.0
108.373	6.0
108.388	3.0
108.403	3.0
108.418	1.0
108.433	3.0
108.448	1.0
108.462	5.0
108.477	5.0
108.492	1.0
108.507	5.0
108.522	0.0
108.537	3.0
108.552	1.0
108.567	4.0
108.582	4.0
108.597	3.0
108.611	2.0
108.626	1.0
108.641	1.0
108.656	3.0
108.671	4.0
108.686	4.0
108.701	3.0
108.716	4.0
108.731	3.0
108.745	6.0
108.76	2.0
108.775	1.0
108.79	6.0
108.805	4.0
108.82	0.0
108.835	3.0
108.85	1.0
108.865	3.0
108.879	2.0
108.894	2.0
108.909	2.0
108.924	3.0
108.939	1.0
108.954	2.0
108.969	7.0
108.984	4.0
108.999	2.0
109.013	2.0
109.028	4.0
109.043	3.0
109.058	4.0
109.073	3.0
109.088	2.0
109.103	0.0
109.118	3.0
109.133	6.0
109.147	1.0
109.162	3.0
109.177	5.0
109.192	1.0
109.207	1.0
109.222	2.0
109.237	3.0
109.252	1.0
109.267	1.0
109.281	2.0
109.296	3.0
109.311	2.0
109.326	3.0
109.341	4.0
109.356	6.0
109.371	3.0
109.386	1.0
109.4	1.0
109.415	1.0
109.43	4.0
109.445	2.0
109.46	7.0
109.475	1.0
109.49	2.0
109.505	1.0
109.52	3.0
109.534	1.0
109.549	1.0
109.564	4.0
109.579	5.0
109.594	4.0
109.609	1.0
109.624	3.0
109.639	2.0
109.653	3.0
109.668	5.0
109.683	2.0
109.698	5.0
109.713	3.0
109.728	2.0
109.743	4.0
109.758	5.0
109.773	3.0
109.787	1.0
109.802	2.0
109.817	3.0
109.832	2.0
109.847	1.0
109.862	4.0
109.877	2.0
109.892	4.0
109.907	4.0
109.921	3.0
109.936	4.0
109.951	2.0
109.966	2.0
109.981	4.0
109.996	3.0
110.011	4.0
110.026	6.0
110.04	1.0
110.055	1.0
110.07	0.0
110.085	2.0
110.1	3.0
110.115	4.0
110.13	1.0
110.145	0.0
110.16	4.0
110.174	3.0
110.189	4.0
110.204	4.0
110.219	4.0
110.234	6.0
110.249	0.0
110.264	5.0
110.279	3.0
110.294	5.0
110.308	2.0
110.323	2.0
110.338	1.0
110.353	4.0
110.368	3.0
110.383	6.0
110.398	3.0
110.413	3.0
110.428	3.0
110.442	4.0
110.457	1.0
110.472	4.0
110.487	2.0
110.502	1.0
110.517	6.0
110.532	2.0
110.547	3.0
110.561	0.0
110.576	3.0
110.591	3.0
110.606	5.0
110.621	4.0
110.636	7.0
110.651	2.0
110.666	2.0
110.681	2.0
110.695	2.0
110.71	5.0
110.725	2.0
110.74	5.0
110.755	5.0
110.77	2.0
110.785	5.0
110.8	8.0
110.815	5.0
110.829	3.0
110.844	1.0
110.859	4.0
110.874	2.0
110.889	5.0
110.904	3.0
110.919	4.0
110.934	2.0
110.948	2.0
110.963	2.0
110.978	5.0
110.993	1.0
111.008	4.0
111.023	1.0
111.038	4.0
111.053	4.0
111.067	3.0
111.082	4.0
111.097	2.0
111.112	1.0
111.127	10.0
111.142	1.0
111.157	3.0
111.172	1.0
111.186	3.0
111.201	3.0
111.216	2.0
111.231	4.0
111.246	6.0
111.261	4.0
111.276	1.0
111.291	5.0
111.305	4.0
111.32	4.0
111.335	2.0
111.35	1.0
111.365	4.0
111.38	2.0
111.395	3.0
111.41	5.0
111.424	7.0
111.439	3.0
111.454	4.0
111.469	6.0
111.484	3.0
111.499	1.0
111.514	3.0
111.528	0.0
111.543	2.0
111.558	2.0
111.573	2.0
111.588	5.0
111.603	2.0
111.618	6.0
111.633	1.0
111.647	8.0
111.662	9.0
111.677	5.0
111.692	8.0
111.707	5.0
111.722	8.0
111.737	5.0
111.751	3.0
111.766	4.0
111.781	9.0
111.796	4.0
111.811	2.0
111.826	3.0
111.84	1.0
111.855	2.0
111.87	4.0
111.885	2.0
111.9	3.0
111.915	2.0
111.93	1.0
111.944	3.0
111.959	1.0
111.974	2.0
111.989	1.0
112.004	4.0
112.019	1.0
112.033	4.0
112.048	6.0
112.063	0.0
112.078	3.0
112.093	7.0
112.108	3.0
112.123	0.0
112.137	10.0
112.152	2.0
112.167	3.0
112.182	1.0
112.197	3.0
112.212	3.0
112.226	4.0
112.241	3.0
112.256	3.0
112.271	7.0
112.286	4.0
112.301	3.0
112.315	0.0
112.33	4.0
112.345	5.0
112.36	4.0
112.375	1.0
112.389	0.0
112.404	1.0
112.419	5.0
112.434	2.0
112.449	1.0
112.464	3.0
112.478	6.0
112.493	5.0
112.508	6.0
112.523	7.0
112.538	1.0
112.553	1.0
112.567	4.0
112.582	3.0
112.597	4.0
112.612	4.0
112.627	4.0
112.642	2.0
112.656	5.0
112.671	0.0
112.686	2.0
112.701	3.0
112.716	2.0
112.73	4.0
112.745	4.0
112.76	2.0
112.775	1.0
112.79	5.0
112.805	3.0
112.819	0.0
112.834	1.0
112.849	3.0
112.864	4.0
112.879	3.0
112.894	8.0
112.908	4.0
112.923	4.0
112.938	1.0
112.953	8.0
112.968	3.0
112.983	6.0
112.997	4.0
113.012	4.0
113.027	3.0
113.042	1.0
113.057	1.0
113.072	4.0
113.086	2.0
113.101	7.0
113.116	4.0
113.131	2.0
113.146	4.0
113.161	5.0
113.175	1.0
113.19	2.0
113.205	4.0
113.22	3.0
113.235	3.0
113.25	2.0
113.265	6.0
113.279	5.0
113.294	4.0
113.309	3.0
113.324	4.0
113.339	6.0
113.354	5.0
113.368	2.0
113.383	2.0
113.398	3.0
113.413	3.0
113.428	0.0
113.443	4.0
113.458	1.0
113.472	3.0
113.487	1.0
113.502	2.0
113.517	4.0
113.532	5.0
113.547	3.0
113.562	1.0
113.576	1.0
113.591	5.0
113.606	2.0
113.621	2.0
113.636	4.0
113.651	4.0
113.666	2.0
113.681	6.0
113.695	2.0
113.71	4.0
113.725	4.0
113.74	2.0
113.755	1.0
113.77	4.0
113.785	1.0
113.8	2.0
113.814	6.0
113.829	3.0
113.844	3.0
113.859	4.0
113.874	3.0
113.889	4.0
113.904	6.0
113.919	2.0
113.934	3.0
113.949	4.0
113.963	2.0
113.978	1.0
113.993	4.0
114.008	4.0
114.023	6.0
114.038	2.0
114.053	2.0
114.068	4.0
114.083	4.0
114.098	2.0
114.113	3.0
114.127	3.0
114.142	6.0
114.157	0.0
114.172	4.0
114.187	4.0
114.202	2.0
114.217	2.0
114.232	3.0
114.247	3.0
114.262	0.0
114.277	3.0
114.292	3.0
114.307	5.0
114.322	3.0
114.337	5.0
114.351	2.0
114.366	6.0
114.381	1.0
114.396	4.0
114.411	3.0
114.426	5.0
114.441	3.0
114.456	2.0
114.471	2.0
114.486	5.0
114.501	4.0
114.516	4.0
114.531	1.0
114.546	1.0
114.561	3.0
114.576	4.0
114.591	3.0
114.606	4.0
114.621	3.0
114.636	4.0
114.65	5.0
114.665	3.0
114.68	3.0
114.695	2.0
114.71	2.0
114.725	1.0
114.74	5.0
114.755	1.0
114.77	5.0
114.785	1.0
114.8	3.0
114.815	3.0
114.83	2.0
114.845	5.0
114.86	1.0
114.875	2.0
114.89	6.0
114.905	5.0
114.92	5.0
114.935	2.0
114.95	2.0
114.965	5.0
114.98	3.0
114.995	4.0
115.009	4.0
115.024	4.0
115.039	4.0
115.054	5.0
115.069	3.0
115.084	6.0
115.099	3.0
115.114	2.0
115.129	4.0
115.144	6.0
115.159	3.0
115.174	5.0
115.189	2.0
115.204	5.0
115.219	3.0
115.234	5.0
115.249	5.0
115.264	3.0
115.279	6.0
115.294	3.0
115.309	8.0
115.323	6.0
115.338	4.0
115.353	4.0
115.368	4.0
115.383	4.0
115.398	7.0
115.413	3.0
115.428	1.0
115.443	4.0
115.458	2.0
115.473	3.0
115.488	2.0
115.503	6.0
115.518	4.0
115.533	4.0
115.548	4.0
115.562	4.0
115.577	2.0
115.592	4.0
115.607	1.0
115.622	4.0
115.637	7.0
115.652	6.0
115.667	1.0
115.682	3.0
115.697	1.0
115.712	4.0
115.727	5.0
115.741	5.0
115.756	4.0
115.771	2.0
115.786	4.0
115.801	7.0
115.816	4.0
115.831	2.0
115.846	4.0
115.861	3.0
115.875	6.0
115.89	2.0
115.905	7.0
115.92	3.0
115.935	4.0
115.95	3.0
115.965	3.0
115.98	3.0
115.995	4.0
116.009	6.0
116.024	1.0
116.039	6.0
116.054	0.0
116.069	5.0
116.084	3.0
116.099	3.0
116.113	2.0
116.128	3.0
116.143	2.0
116.158	2.0
116.173	9.0
116.188	3.0
116.202	5.0
116.217	5.0
116.232	4.0
116.247	4.0
116.262	4.0
116.277	4.0
116.291	3.0
116.306	4.0
116.321	8.0
116.336	5.0
116.351	4.0
116.366	2.0
116.38	2.0
116.395	4.0
116.41	3.0
116.425	4.0
116.44	8.0
116.454	2.0
116.469	4.0
116.484	4.0
116.499	3.0
116.514	2.0
116.528	5.0
116.543	4.0
116.558	2.0
116.573	3.0
116.588	5.0
116.602	4.0
116.617	4.0
116.632	4.0
116.647	3.0
116.662	3.0
116.676	4.0
116.691	4.0
116.706	6.0
116.721	6.0
116.735	9.0
116.75	4.0
116.765	10.0
116.78	5.0
116.795	4.0
116.809	3.0
116.824	8.0
116.839	6.0
116.854	3.0
116.868	4.0
116.883	6.0
116.898	5.0
116.913	7.0
116.927	4.0
116.942	3.0
116.957	2.0
116.972	6.0
116.986	2.0
117.001	4.0
117.016	3.0
117.031	4.0
117.045	4.0
117.06	1.0
117.075	5.0
117.09	3.0
117.104	5.0
117.119	3.0
117.134	4.0
117.149	5.0
117.163	3.0
117.178	4.0
117.193	1.0
117.208	3.0
117.222	5.0
117.237	2.0
117.252	6.0
117.267	1.0
117.281	6.0
117.296	4.0
117.311	3.0
117.325	3.0
117.34	7.0
117.355	6.0
117.37	2.0
117.384	4.0
117.399	1.0
117.414	4.0
117.429	2.0
117.443	2.0
117.458	8.0
117.473	2.0
117.487	1.0
117.502	5.0
117.517	4.0
117.532	4.0
117.546	1.0
117.561	8.0
117.576	4.0
117.59	3.0
117.605	3.0
117.62	2.0
117.635	6.0
117.649	4.0
117.664	1.0
117.679	3.0
117.693	0.0
117.708	3.0
117.723	3.0
117.738	3.0
117.752	3.0
117.767	4.0
117.782	5.0
117.796	6.0
117.811	4.0
117.826	3.0
117.841	3.0
117.855	4.0
117.87	7.0
117.885	3.0
117.899	1.0
117.914	1.0
117.929	3.0
117.944	6.0
117.958	4.0
117.973	4.0
117.988	1.0
118.002	3.0
118.017	2.0
118.032	5.0
118.047	3.0
118.062	2.0
118.077	4.0
118.092	6.0
118.107	5.0
118.121	3.0
118.136	3.0
118.151	3.0
118.166	3.0
118.181	3.0
118.196	8.0
118.211	3.0
118.225	3.0
118.24	7.0
118.255	2.0
118.27	7.0
118.285	2.0
118.3	4.0
118.315	3.0
118.33	6.0
118.344	1.0
118.359	3.0
118.374	6.0
118.389	5.0
118.404	6.0
118.419	5.0
118.434	5.0
118.449	3.0
118.463	3.0
118.478	3.0
118.493	1.0
118.508	1.0
118.523	7.0
118.538	3.0
118.553	5.0
118.567	3.0
118.582	3.0
118.597	1.0
118.612	3.0
118.627	8.0
118.642	3.0
118.657	5.0
118.672	2.0
118.686	3.0
118.701	3.0
118.716	5.0
118.731	2.0
118.746	1.0
118.761	4.0
118.776	4.0
118.791	5.0
118.805	4.0
118.82	3.0
118.835	2.0
118.85	2.0
118.865	7.0
118.88	7.0
118.895	3.0
118.909	3.0
118.924	2.0
118.939	4.0
118.954	3.0
118.969	2.0
118.984	5.0
118.999	7.0
119.014	5.0
119.028	3.0
119.043	5.0
119.058	4.0
119.073	4.0
119.088	3.0
119.103	5.0
119.118	5.0
119.133	5.0
119.147	4.0
119.162	5.0
119.177	5.0
119.192	3.0
119.207	4.0
119.222	5.0
119.237	1.0
119.251	3.0
119.266	3.0
119.281	8.0
119.296	4.0
119.311	4.0
119.326	5.0
119.341	5.0
119.356	4.0
119.37	3.0
119.385	4.0
119.4	2.0
119.415	3.0
119.43	4.0
119.445	5.0
119.46	4.0
119.475	6.0
119.489	4.0
119.504	2.0
119.519	3.0
119.534	1.0
119.549	2.0
119.564	0.0
119.579	4.0
119.593	2.0
119.608	3.0
119.623	5.0
119.638	2.0
119.653	1.0
119.668	2.0
119.683	3.0
119.698	2.0
119.712	4.0
119.727	1.0
119.742	0.0
119.757	4.0
119.772	1.0
119.787	3.0
119.802	4.0
119.817	4.0
119.831	4.0
119.846	4.0
119.861	0.0
119.876	4.0
119.891	3.0
119.906	2.0
119.921	2.0
119.935	4.0
119.95	2.0
119.965	2.0
119.98	4.0
119.995	2.0
120.01	3.0
120.025	1.0
120.04	5.0
120.054	4.0
120.069	0.0
120.084	3.0
120.099	4.0
120.114	3.0
120.129	2.0
120.144	3.0
120.159	1.0
120.173	1.0
120.188	1.0
120.203	3.0
120.218	0.0
120.233	2.0
120.248	2.0
120.263	1.0
120.277	0.0
120.292	1.0
120.307	1.0
120.322	1.0
120.337	0.0
120.352	0.0
120.367	2.0
120.382	1.0
120.396	0.0
120.411	0.0
120.426	0.0
120.441	1.0
120.456	0.0
120.471	1.0
120.486	1.0
120.501	0.0
120.515	0.0
120.53	1.0
120.545	0.0
120.56	0.0
120.575	0.0
120.59	0.0
120.605	0.0
120.619	0.0
120.634	0.0
120.649	0.0
120.664	0.0
120.679	0.0
120.694	0.0
120.709	0.0
120.724	0.0
120.738	0.0
120.753	0.0
120.768	0.0
120.783	0.0
120.798	0.0
120.813	1.0
120.828	1.0
120.843	0.0
120.857	0.0
120.872	0.0
120.887	0.0
120.902	0.0
120.917	0.0
120.932	1.0
120.947	0.0
120.961	0.0
120.976	0.0
