-1.217	0.0
-1.202	0.0
-1.187	0.0
-1.172	0.0
-1.157	0.0
-1.142	0.0
-1.128	0.0
-1.113	0.0
-1.098	1.0
-1.083	0.0
-1.068	0.0
-1.054	0.0
-1.039	0.0
-1.024	0.0
-1.009	0.0
-0.994	0.0
-0.979	0.0
-0.965	1.0
-0.95	0.0
-0.935	0.0
-0.92	0.0
-0.905	0.0
-0.891	0.0
-0.876	0.0
-0.861	0.0
-0.846	0.0
-0.831	0.0
-0.816	1.0
-0.802	0.0
-0.787	0.0
-0.772	0.0
-0.757	0.0
-0.742	0.0
-0.728	0.0
-0.713	0.0
-0.698	0.0
-0.683	0.0
-0.668	0.0
-0.653	1.0
-0.639	0.0
-0.624	0.0
-0.609	0.0
-0.594	0.0
-0.579	0.0
-0.565	0.0
-0.55	0.0
-0.535	0.0
-0.52	0.0
-0.505	0.0
-0.49	0.0
-0.476	0.0
-0.461	0.0
-0.446	0.0
-0.431	0.0
-0.416	0.0
-0.401	0.0
-0.387	0.0
-0.372	0.0
-0.357	0.0
-0.342	0.0
-0.327	0.0
-0.313	0.0
-0.298	0.0
-0.283	0.0
-0.268	0.0
-0.253	0.0
-0.238	0.0
-0.224	0.0
-0.209	0.0
-0.194	0.0
-0.179	0.0
-0.164	0.0
-0.15	0.0
-0.135	0.0
-0.12	0.0
-0.105	0.0
-0.09	0.0
-0.075	0.0
-0.061	0.0
-0.046	0.0
-0.031	0.0
-0.016	0.0
-0.001	0.0
0.013	0.0
0.028	0.0
0.043	0.0
0.058	0.0
0.073	0.0
0.088	0.0
0.102	0.0
0.117	0.0
0.132	0.0
0.147	0.0
0.162	0.0
0.176	0.0
0.191	0.0
0.206	0.0
0.221	0.0
0.236	0.0
0.251	0.0
0.265	0.0
0.28	0.0
0.295	0.0
0.31	0.0
0.325	0.0
0.339	0.0
0.354	0.0
0.369	0.0
0.384	0.0
0.399	0.0
0.414	0.0
0.428	0.0
0.443	0.0
0.458	0.0
0.473	0.0
0.488	0.0
0.502	0.0
0.517	0.0
0.532	0.0
0.547	0.0
0.562	0.0
0.577	0.0
0.591	0.0
0.606	0.0
0.621	0.0
0.636	0.0
0.651	0.0
0.665	0.0
0.68	0.0
0.695	1.0
0.71	0.0
0.725	0.0
0.74	0.0
0.754	0.0
0.769	0.0
0.784	0.0
0.799	0.0
0.814	0.0
0.828	0.0
0.843	0.0
0.858	0.0
0.873	0.0
0.888	0.0
0.903	0.0
0.917	1.0
0.932	0.0
0.947	0.0
0.962	0.0
0.977	0.0
0.991	0.0
1.006	0.0
1.021	0.0
1.036	0.0
1.051	0.0
1.065	0.0
1.08	0.0
1.095	0.0
1.11	0.0
1.125	0.0
1.14	0.0
1.154	0.0
1.169	0.0
1.184	0.0
1.199	0.0
1.214	0.0
1.228	0.0
1.243	0.0
1.258	0.0
1.273	0.0
1.288	0.0
1.302	0.0
1.317	0.0
1.332	0.0
1.347	0.0
1.362	0.0
1.376	0.0
1.391	0.0
1.406	0.0
1.421	0.0
1.436	0.0
1.45	0.0
1.465	0.0
1.48	1.0
1.495	0.0
1.51	0.0
1.524	0.0
1.539	0.0
1.554	0.0
1.569	0.0
1.584	1.0
1.598	0.0
1.613	0.0
1.628	0.0
1.643	0.0
1.658	0.0
1.672	0.0
1.687	0.0
1.702	0.0
1.717	0.0
1.732	0.0
1.746	0.0
1.761	0.0
1.776	0.0
1.791	0.0
1.806	1.0
1.82	1.0
1.835	0.0
1.85	0.0
1.865	0.0
1.88	1.0
1.894	0.0
1.909	0.0
1.924	0.0
1.939	0.0
1.954	0.0
1.968	1.0
1.983	1.0
1.998	0.0
2.013	0.0
2.028	0.0
2.042	0.0
2.057	0.0
2.072	0.0
2.087	0.0
2.101	0.0
2.116	0.0
2.131	0.0
2.146	0.0
2.161	0.0
2.175	0.0
2.19	1.0
2.205	0.0
2.22	1.0
2.235	0.0
2.249	0.0
2.264	0.0
2.279	0.0
2.294	2.0
2.308	0.0
2.323	2.0
2.338	1.0
2.353	2.0
2.368	1.0
2.382	2.0
2.397	1.0
2.412	2.0
2.427	3.0
2.442	2.0
2.456	0.0
2.471	1.0
2.486	3.0
2.501	0.0
2.515	3.0
2.53	3.0
2.545	5.0
2.56	3.0
2.575	0.0
2.589	2.0
2.604	2.0
2.619	3.0
2.634	2.0
2.649	4.0
2.663	1.0
2.678	2.0
2.693	6.0
2.708	2.0
2.722	2.0
2.737	2.0
2.752	2.0
2.767	1.0
2.782	6.0
2.796	4.0
2.811	2.0
2.826	2.0
2.841	2.0
2.856	2.0
2.87	1.0
2.885	0.0
2.9	4.0
2.915	4.0
2.93	2.0
2.944	1.0
2.959	1.0
2.974	4.0
2.989	1.0
3.004	4.0
3.018	6.0
3.033	3.0
3.048	5.0
3.063	4.0
3.078	5.0
3.092	4.0
3.107	8.0
3.122	3.0
3.137	4.0
3.152	3.0
3.166	3.0
3.181	4.0
3.196	6.0
3.211	7.0
3.226	2.0
3.24	5.0
3.255	1.0
3.27	2.0
3.285	7.0
3.3	7.0
3.315	4.0
3.329	7.0
3.344	5.0
3.359	6.0
3.374	8.0
3.389	4.0
3.403	3.0
3.418	9.0
3.433	4.0
3.448	1.0
3.463	5.0
3.478	5.0
3.492	4.0
3.507	4.0
3.522	3.0
3.537	5.0
3.552	5.0
3.567	8.0
3.581	5.0
3.596	9.0
3.611	3.0
3.626	3.0
3.641	5.0
3.656	2.0
3.671	6.0
3.685	4.0
3.7	7.0
3.715	3.0
3.73	8.0
3.745	7.0
3.76	6.0
3.775	6.0
3.789	4.0
3.804	9.0
3.819	4.0
3.834	7.0
3.849	6.0
3.864	8.0
3.879	5.0
3.894	4.0
3.908	3.0
3.923	10.0
3.938	3.0
3.953	8.0
3.968	5.0
3.983	3.0
3.998	4.0
4.013	10.0
4.027	4.0
4.042	6.0
4.057	6.0
4.072	10.0
4.087	10.0
4.102	10.0
4.117	7.0
4.132	10.0
4.147	6.0
4.162	3.0
4.176	6.0
4.191	6.0
4.206	5.0
4.221	8.0
4.236	6.0
4.251	6.0
4.266	6.0
4.281	6.0
4.296	7.0
4.311	6.0
4.326	7.0
4.341	13.0
4.356	7.0
4.37	10.0
4.385	8.0
4.4	6.0
4.415	5.0
4.43	9.0
4.445	7.0
4.46	4.0
4.475	8.0
4.49	5.0
4.505	11.0
4.52	8.0
4.535	6.0
4.55	4.0
4.565	9.0
4.58	8.0
4.595	11.0
4.61	13.0
4.625	8.0
4.639	10.0
4.654	5.0
4.669	7.0
4.684	5.0
4.699	8.0
4.714	12.0
4.729	7.0
4.744	11.0
4.759	7.0
4.774	5.0
4.789	3.0
4.804	7.0
4.819	4.0
4.834	12.0
4.849	7.0
4.864	8.0
4.879	3.0
4.894	5.0
4.909	3.0
4.924	6.0
4.939	7.0
4.954	13.0
4.969	5.0
4.984	11.0
4.999	5.0
5.014	6.0
5.029	10.0
5.044	6.0
5.059	10.0
5.074	7.0
5.089	7.0
5.104	7.0
5.119	2.0
5.134	7.0
5.149	7.0
5.164	8.0
5.179	11.0
5.194	4.0
5.209	5.0
5.224	9.0
5.239	13.0
5.254	3.0
5.269	7.0
5.284	7.0
5.299	8.0
5.314	4.0
5.329	9.0
5.344	3.0
5.359	5.0
5.374	6.0
5.389	12.0
5.404	14.0
5.419	10.0
5.434	9.0
5.449	12.0
5.464	12.0
5.479	6.0
5.494	3.0
5.509	9.0
5.524	8.0
5.539	7.0
5.554	12.0
5.569	13.0
5.584	11.0
5.599	5.0
5.614	13.0
5.629	7.0
5.644	10.0
5.659	11.0
5.674	6.0
5.689	7.0
5.704	10.0
5.719	8.0
5.734	9.0
5.749	9.0
5.764	4.0
5.779	6.0
5.794	9.0
5.809	11.0
5.824	4.0
5.839	9.0
5.854	3.0
5.869	5.0
5.884	5.0
5.899	12.0
5.914	6.0
5.929	18.0
5.944	11.0
5.959	7.0
5.974	9.0
5.989	11.0
6.004	6.0
6.019	12.0
6.034	8.0
6.049	5.0
6.064	14.0
6.079	11.0
6.094	7.0
6.109	10.0
6.124	9.0
6.139	6.0
6.154	10.0
6.169	10.0
6.184	11.0
6.199	9.0
6.214	8.0
6.229	14.0
6.244	10.0
6.259	8.0
6.274	7.0
6.289	6.0
6.304	9.0
6.319	10.0
6.334	12.0
6.349	8.0
6.364	9.0
6.379	11.0
6.394	11.0
6.409	13.0
6.424	7.0
6.439	8.0
6.454	8.0
6.469	8.0
6.484	10.0
6.499	6.0
6.514	6.0
6.529	4.0
6.544	5.0
6.559	5.0
6.574	10.0
6.589	5.0
6.604	8.0
6.619	9.0
6.634	13.0
6.649	7.0
6.664	10.0
6.679	9.0
6.694	7.0
6.709	8.0
6.724	9.0
6.739	10.0
6.754	11.0
6.769	6.0
6.784	10.0
6.799	8.0
6.814	7.0
6.829	5.0
6.844	11.0
6.859	15.0
6.873	8.0
6.888	9.0
6.903	10.0
6.918	8.0
6.933	5.0
6.948	11.0
6.963	12.0
6.978	18.0
6.993	9.0
7.008	6.0
7.023	7.0
7.038	5.0
7.053	10.0
7.068	2.0
7.083	8.0
7.098	7.0
7.113	9.0
7.128	11.0
7.143	12.0
7.157	10.0
7.172	8.0
7.187	7.0
7.202	11.0
7.217	9.0
7.232	9.0
7.247	14.0
7.262	11.0
7.277	4.0
7.292	11.0
7.307	5.0
7.322	11.0
7.336	9.0
7.351	9.0
7.366	14.0
7.381	11.0
7.396	9.0
7.411	10.0
7.426	10.0
7.441	12.0
7.456	10.0
7.471	11.0
7.485	8.0
7.5	10.0
7.515	7.0
7.53	9.0
7.545	10.0
7.56	7.0
7.575	10.0
7.59	7.0
7.604	8.0
7.619	12.0
7.634	9.0
7.649	11.0
7.664	11.0
7.679	8.0
7.693	11.0
7.708	12.0
7.723	9.0
7.738	10.0
7.753	10.0
7.768	7.0
7.783	8.0
7.797	8.0
7.812	9.0
7.827	7.0
7.842	3.0
7.857	6.0
7.871	7.0
7.886	9.0
7.901	10.0
7.916	10.0
7.931	11.0
7.945	6.0
7.96	13.0
7.975	7.0
7.99	9.0
8.005	8.0
8.019	5.0
8.034	6.0
8.049	12.0
8.064	12.0
8.078	6.0
8.093	8.0
8.108	12.0
8.123	10.0
8.137	11.0
8.152	11.0
8.167	11.0
8.182	9.0
8.196	5.0
8.211	9.0
8.226	7.0
8.241	8.0
8.255	9.0
8.27	7.0
8.285	11.0
8.3	6.0
8.314	8.0
8.329	6.0
8.344	6.0
8.358	10.0
8.373	7.0
8.388	10.0
8.403	6.0
8.417	9.0
8.432	10.0
8.447	10.0
8.461	11.0
8.476	9.0
8.491	7.0
8.505	15.0
8.52	9.0
8.535	11.0
8.55	8.0
8.564	8.0
8.579	12.0
8.594	6.0
8.608	5.0
8.623	13.0
8.638	10.0
8.652	12.0
8.667	4.0
8.682	6.0
8.696	12.0
8.711	9.0
8.726	8.0
8.74	14.0
8.755	12.0
8.77	15.0
8.784	11.0
8.799	11.0
8.814	10.0
8.828	4.0
8.843	7.0
8.858	4.0
8.872	12.0
8.887	12.0
8.902	5.0
8.916	8.0
8.931	11.0
8.946	8.0
8.96	11.0
8.975	7.0
8.99	7.0
9.004	7.0
9.019	13.0
9.034	10.0
9.048	9.0
9.063	11.0
9.077	12.0
9.092	14.0
9.107	10.0
9.121	9.0
9.136	9.0
9.151	6.0
9.165	10.0
9.18	11.0
9.195	5.0
9.209	2.0
9.224	10.0
9.239	6.0
9.253	10.0
9.268	12.0
9.283	16.0
9.297	7.0
9.312	4.0
9.327	12.0
9.341	5.0
9.356	5.0
9.371	13.0
9.385	7.0
9.4	5.0
9.415	7.0
9.429	13.0
9.444	6.0
9.458	5.0
9.473	12.0
9.488	5.0
9.502	13.0
9.517	5.0
9.532	8.0
9.546	4.0
9.561	7.0
9.576	8.0
9.59	11.0
9.605	10.0
9.62	9.0
9.635	5.0
9.649	9.0
9.664	12.0
9.679	7.0
9.693	6.0
9.708	12.0
9.723	6.0
9.737	5.0
9.752	4.0
9.767	8.0
9.781	14.0
9.796	8.0
9.811	5.0
9.825	7.0
9.84	6.0
9.855	8.0
9.87	7.0
9.884	7.0
9.899	7.0
9.914	8.0
9.928	9.0
9.943	7.0
9.958	7.0
9.973	12.0
9.987	10.0
10.002	14.0
10.017	11.0
10.031	6.0
10.046	11.0
10.061	8.0
10.076	8.0
10.09	11.0
10.105	8.0
10.12	9.0
10.135	13.0
10.149	5.0
10.164	7.0
10.179	8.0
10.194	8.0
10.208	10.0
10.223	6.0
10.238	10.0
10.253	9.0
10.267	10.0
10.282	11.0
10.297	4.0
10.312	4.0
10.326	10.0
10.341	12.0
10.356	11.0
10.371	6.0
10.386	12.0
10.4	9.0
10.415	9.0
10.43	8.0
10.445	9.0
10.46	4.0
10.474	7.0
10.489	8.0
10.504	6.0
10.519	8.0
10.533	5.0
10.548	7.0
10.563	4.0
10.578	10.0
10.593	5.0
10.608	7.0
10.622	11.0
10.637	13.0
10.652	8.0
10.667	5.0
10.682	6.0
10.696	8.0
10.711	5.0
10.726	6.0
10.741	6.0
10.756	4.0
10.771	12.0
10.785	7.0
10.8	9.0
10.815	7.0
10.83	9.0
10.845	10.0
10.86	9.0
10.874	5.0
10.889	8.0
10.904	12.0
10.919	3.0
10.934	9.0
10.949	6.0
10.963	5.0
10.978	7.0
10.993	6.0
11.008	6.0
11.023	3.0
11.038	13.0
11.053	6.0
11.067	6.0
11.082	6.0
11.097	7.0
11.112	10.0
11.127	5.0
11.142	8.0
11.157	3.0
11.172	9.0
11.186	12.0
11.201	5.0
11.216	6.0
11.231	3.0
11.246	9.0
11.261	7.0
11.276	5.0
11.291	7.0
11.305	6.0
11.32	5.0
11.335	6.0
11.35	6.0
11.365	4.0
11.38	7.0
11.395	7.0
11.41	14.0
11.424	8.0
11.439	6.0
11.454	9.0
11.469	13.0
11.484	9.0
11.499	8.0
11.514	9.0
11.529	6.0
11.544	7.0
11.558	3.0
11.573	10.0
11.588	9.0
11.603	8.0
11.618	7.0
11.633	9.0
11.648	6.0
11.663	5.0
11.678	8.0
11.693	9.0
11.707	7.0
11.722	10.0
11.737	9.0
11.752	6.0
11.767	4.0
11.782	2.0
11.797	6.0
11.812	14.0
11.827	9.0
11.842	9.0
11.856	5.0
11.871	10.0
11.886	9.0
11.901	11.0
11.916	12.0
11.931	8.0
11.946	15.0
11.961	12.0
11.976	9.0
11.991	11.0
12.006	14.0
12.02	3.0
12.035	7.0
12.05	4.0
12.065	5.0
12.08	9.0
12.095	10.0
12.11	11.0
12.125	14.0
12.14	5.0
12.155	8.0
12.17	16.0
12.184	10.0
12.199	5.0
12.214	8.0
12.229	8.0
12.244	11.0
12.259	12.0
12.274	12.0
12.289	9.0
12.304	12.0
12.319	9.0
12.334	12.0
12.348	7.0
12.363	12.0
12.378	12.0
12.393	12.0
12.408	11.0
12.423	12.0
12.438	11.0
12.453	10.0
12.468	13.0
12.483	17.0
12.498	12.0
12.513	11.0
12.527	11.0
12.542	10.0
12.557	10.0
12.572	11.0
12.587	23.0
12.602	10.0
12.617	11.0
12.632	14.0
12.647	16.0
12.662	9.0
12.677	17.0
12.692	13.0
12.707	12.0
12.721	14.0
12.736	14.0
12.751	15.0
12.766	14.0
12.781	15.0
12.796	17.0
12.811	14.0
12.826	12.0
12.841	14.0
12.856	14.0
12.871	16.0
12.886	15.0
12.9	11.0
12.915	18.0
12.93	15.0
12.945	16.0
12.96	21.0
12.975	12.0
12.99	18.0
13.005	18.0
13.02	13.0
13.035	9.0
13.05	16.0
13.065	20.0
13.08	16.0
13.094	17.0
13.109	17.0
13.124	19.0
13.139	15.0
13.154	12.0
13.169	18.0
13.184	25.0
13.199	16.0
13.214	31.0
13.229	21.0
13.244	29.0
13.259	19.0
13.274	21.0
13.288	31.0
13.303	16.0
13.318	31.0
13.333	24.0
13.348	23.0
13.363	22.0
13.378	18.0
13.393	24.0
13.408	27.0
13.423	23.0
13.438	35.0
13.453	30.0
13.468	39.0
13.482	40.0
13.497	35.0
13.512	41.0
13.527	35.0
13.542	37.0
13.557	53.0
13.572	43.0
13.587	64.0
13.602	64.0
13.617	63.0
13.632	73.0
13.647	63.0
13.662	66.0
13.677	70.0
13.691	100.0
13.706	81.0
13.721	97.0
13.736	100.0
13.751	98.0
13.766	110.0
13.781	126.0
13.796	130.0
13.811	129.0
13.826	129.0
13.841	119.0
13.856	120.0
13.871	103.0
13.885	105.0
13.9	102.0
13.915	84.0
13.93	72.0
13.945	64.0
13.96	63.0
13.975	45.0
13.99	51.0
14.005	29.0
14.02	34.0
14.035	33.0
14.05	16.0
14.065	31.0
14.08	14.0
14.094	18.0
14.109	17.0
14.124	17.0
14.139	20.0
14.154	14.0
14.169	30.0
14.184	17.0
14.199	22.0
14.214	24.0
14.229	11.0
14.244	21.0
14.259	17.0
14.274	19.0
14.288	20.0
14.303	23.0
14.318	16.0
14.333	23.0
14.348	24.0
14.363	25.0
14.378	27.0
14.393	21.0
14.408	19.0
14.423	18.0
14.438	7.0
14.453	16.0
14.468	24.0
14.482	18.0
14.497	15.0
14.512	21.0
14.527	19.0
14.542	26.0
14.557	16.0
14.572	23.0
14.587	11.0
14.602	10.0
14.617	17.0
14.632	19.0
14.647	13.0
14.661	24.0
14.676	17.0
14.691	15.0
14.706	15.0
14.721	18.0
14.736	14.0
14.751	16.0
14.766	9.0
14.781	24.0
14.796	13.0
14.811	16.0
14.826	14.0
14.84	17.0
14.855	13.0
14.87	16.0
14.885	19.0
14.9	17.0
14.915	15.0
14.93	25.0
14.945	16.0
14.96	16.0
14.975	18.0
14.989	7.0
15.004	13.0
15.019	15.0
15.034	17.0
15.049	12.0
15.064	17.0
15.079	13.0
15.094	11.0
15.109	16.0
15.124	13.0
15.138	18.0
15.153	13.0
15.168	13.0
15.183	20.0
15.198	18.0
15.213	16.0
15.228	18.0
15.243	22.0
15.258	13.0
15.272	15.0
15.287	7.0
15.302	17.0
15.317	18.0
15.332	10.0
15.347	17.0
15.362	18.0
15.377	15.0
15.391	17.0
15.406	17.0
15.421	14.0
15.436	12.0
15.451	18.0
15.466	11.0
15.481	16.0
15.496	12.0
15.51	12.0
15.525	13.0
15.54	14.0
15.555	18.0
15.57	15.0
15.585	13.0
15.6	8.0
15.614	15.0
15.629	12.0
15.644	18.0
15.659	13.0
15.674	23.0
15.689	10.0
15.704	12.0
15.718	11.0
15.733	11.0
15.748	10.0
15.763	16.0
15.778	10.0
15.793	15.0
15.808	23.0
15.822	22.0
15.837	15.0
15.852	10.0
15.867	18.0
15.882	11.0
15.897	17.0
15.911	13.0
15.926	14.0
15.941	11.0
15.956	17.0
15.971	16.0
15.986	20.0
16.0	22.0
16.015	12.0
16.03	13.0
16.045	16.0
16.06	12.0
16.074	14.0
16.089	11.0
16.104	21.0
16.119	14.0
16.134	14.0
16.149	12.0
16.163	16.0
16.178	17.0
16.193	12.0
16.208	11.0
16.223	9.0
16.237	12.0
16.252	18.0
16.267	18.0
16.282	12.0
16.297	15.0
16.311	15.0
16.326	21.0
16.341	12.0
16.356	18.0
16.37	11.0
16.385	12.0
16.4	15.0
16.415	17.0
16.43	10.0
16.444	15.0
16.459	17.0
16.474	24.0
16.489	13.0
16.504	18.0
16.518	12.0
16.533	12.0
16.548	19.0
16.563	19.0
16.577	16.0
16.592	12.0
16.607	8.0
16.622	19.0
16.637	37.0
16.651	19.0
16.666	25.0
16.681	27.0
16.696	30.0
16.71	31.0
16.725	19.0
16.74	22.0
16.755	27.0
16.77	34.0
16.784	45.0
16.799	38.0
16.814	42.0
16.829	39.0
16.843	45.0
16.858	58.0
16.873	56.0
16.888	61.0
16.902	72.0
16.917	68.0
16.932	56.0
16.947	70.0
16.961	67.0
16.976	83.0
16.991	68.0
17.006	63.0
17.021	56.0
17.035	50.0
17.05	47.0
17.065	44.0
17.08	33.0
17.094	32.0
17.109	26.0
17.124	16.0
17.139	30.0
17.153	23.0
17.168	27.0
17.183	16.0
17.198	21.0
17.212	19.0
17.227	13.0
17.242	14.0
17.257	10.0
17.271	19.0
17.286	11.0
17.301	13.0
17.316	12.0
17.33	14.0
17.345	18.0
17.36	13.0
17.375	12.0
17.39	18.0
17.404	10.0
17.419	13.0
17.434	13.0
17.449	9.0
17.463	13.0
17.478	17.0
17.493	18.0
17.508	11.0
17.522	10.0
17.537	6.0
17.552	10.0
17.567	13.0
17.581	21.0
17.596	12.0
17.611	12.0
17.626	10.0
17.641	11.0
17.655	22.0
17.67	9.0
17.685	10.0
17.7	7.0
17.714	10.0
17.729	10.0
17.744	18.0
17.759	12.0
17.773	8.0
17.788	7.0
17.803	12.0
17.818	12.0
17.833	17.0
17.847	10.0
17.862	13.0
17.877	7.0
17.892	6.0
17.906	14.0
17.921	7.0
17.936	8.0
17.951	10.0
17.966	18.0
17.98	10.0
17.995	7.0
18.01	8.0
18.025	9.0
18.04	9.0
18.054	12.0
18.069	7.0
18.084	13.0
18.099	11.0
18.114	13.0
18.128	14.0
18.143	9.0
18.158	12.0
18.173	16.0
18.188	5.0
18.202	22.0
18.217	15.0
18.232	14.0
18.247	14.0
18.262	8.0
18.276	13.0
18.291	11.0
18.306	11.0
18.321	7.0
18.336	20.0
18.35	15.0
18.365	12.0
18.38	13.0
18.395	8.0
18.41	13.0
18.424	13.0
18.439	12.0
18.454	13.0
18.469	6.0
18.484	16.0
18.498	15.0
18.513	12.0
18.528	16.0
18.543	10.0
18.558	17.0
18.573	8.0
18.587	17.0
18.602	11.0
18.617	7.0
18.632	8.0
18.647	9.0
18.661	10.0
18.676	16.0
18.691	8.0
18.706	12.0
18.721	22.0
18.736	14.0
18.75	12.0
18.765	12.0
18.78	6.0
18.795	14.0
18.81	11.0
18.825	8.0
18.839	12.0
18.854	14.0
18.869	10.0
18.884	10.0
18.899	11.0
18.913	14.0
18.928	8.0
18.943	13.0
18.958	11.0
18.973	8.0
18.988	8.0
19.002	14.0
19.017	7.0
19.032	15.0
19.047	17.0
19.062	11.0
19.077	14.0
19.091	15.0
19.106	14.0
19.121	10.0
19.136	9.0
19.151	14.0
19.165	8.0
19.18	15.0
19.195	15.0
19.21	10.0
19.225	11.0
19.24	14.0
19.254	12.0
19.269	13.0
19.284	14.0
19.299	11.0
19.314	16.0
19.329	18.0
19.343	9.0
19.358	18.0
19.373	18.0
19.388	23.0
19.403	25.0
19.417	22.0
19.432	12.0
19.447	20.0
19.462	20.0
19.477	28.0
19.492	29.0
19.506	40.0
19.521	41.0
19.536	35.0
19.551	33.0
19.566	44.0
19.58	33.0
19.595	50.0
19.61	30.0
19.625	40.0
19.64	49.0
19.655	48.0
19.669	19.0
19.684	36.0
19.699	29.0
19.714	37.0
19.729	27.0
19.743	21.0
19.758	17.0
19.773	32.0
19.788	26.0
19.803	17.0
19.817	17.0
19.832	7.0
19.847	13.0
19.862	12.0
19.877	21.0
19.891	16.0
19.906	11.0
19.921	11.0
19.936	12.0
19.951	17.0
19.965	13.0
19.98	16.0
19.995	13.0
20.01	16.0
20.025	8.0
20.039	18.0
20.054	16.0
20.069	18.0
20.084	8.0
20.099	17.0
20.113	13.0
20.128	12.0
20.143	14.0
20.158	16.0
20.173	14.0
20.187	19.0
20.202	10.0
20.217	9.0
20.232	10.0
20.246	11.0
20.261	8.0
20.276	6.0
20.291	13.0
20.306	15.0
20.32	19.0
20.335	7.0
20.35	13.0
20.365	14.0
20.38	12.0
20.394	12.0
20.409	22.0
20.424	8.0
20.439	4.0
20.453	12.0
20.468	13.0
20.483	11.0
20.498	14.0
20.513	11.0
20.527	11.0
20.542	4.0
20.557	13.0
20.572	9.0
20.586	19.0
20.601	11.0
20.616	9.0
20.631	10.0
20.646	11.0
20.66	12.0
20.675	12.0
20.69	19.0
20.705	5.0
20.719	6.0
20.734	10.0
20.749	10.0
20.764	12.0
20.779	12.0
20.793	19.0
20.808	8.0
20.823	6.0
20.838	8.0
20.853	13.0
20.867	9.0
20.882	9.0
20.897	11.0
20.912	17.0
20.926	16.0
20.941	7.0
20.956	13.0
20.971	8.0
20.986	11.0
21.0	11.0
21.015	13.0
21.03	10.0
21.045	10.0
21.06	11.0
21.074	5.0
21.089	12.0
21.104	13.0
21.119	12.0
21.134	11.0
21.148	10.0
21.163	2.0
21.178	9.0
21.193	14.0
21.208	9.0
21.222	22.0
21.237	8.0
21.252	13.0
21.267	16.0
21.282	11.0
21.296	24.0
21.311	11.0
21.326	9.0
21.341	14.0
21.356	9.0
21.37	13.0
21.385	14.0
21.4	8.0
21.415	16.0
21.43	16.0
21.444	9.0
21.459	9.0
21.474	6.0
21.489	9.0
21.504	15.0
21.519	10.0
21.533	12.0
21.548	12.0
21.563	11.0
21.578	5.0
21.593	10.0
21.608	19.0
21.622	16.0
21.637	15.0
21.652	13.0
21.667	13.0
21.682	14.0
21.697	17.0
21.712	17.0
21.726	29.0
21.741	23.0
21.756	27.0
21.771	29.0
21.786	31.0
21.801	39.0
21.816	39.0
21.83	61.0
21.845	50.0
21.86	62.0
21.875	57.0
21.89	61.0
21.905	55.0
21.92	73.0
21.935	66.0
21.949	81.0
21.964	75.0
21.979	79.0
21.994	75.0
22.009	63.0
22.024	64.0
22.039	65.0
22.054	52.0
22.069	46.0
22.083	60.0
22.098	52.0
22.113	39.0
22.128	44.0
22.143	31.0
22.158	23.0
22.173	23.0
22.188	20.0
22.203	17.0
22.218	25.0
22.233	14.0
22.248	18.0
22.262	20.0
22.277	16.0
22.292	9.0
22.307	13.0
22.322	9.0
22.337	14.0
22.352	10.0
22.367	17.0
22.382	10.0
22.397	14.0
22.412	18.0
22.427	12.0
22.442	18.0
22.457	14.0
22.472	13.0
22.487	13.0
22.502	9.0
22.516	13.0
22.531	10.0
22.546	12.0
22.561	10.0
22.576	7.0
22.591	7.0
22.606	11.0
22.621	9.0
22.636	12.0
22.651	14.0
22.666	14.0
22.681	11.0
22.696	14.0
22.711	8.0
22.726	16.0
22.741	7.0
22.756	17.0
22.771	7.0
22.786	10.0
22.801	11.0
22.816	11.0
22.831	8.0
22.846	13.0
22.861	8.0
22.876	12.0
22.891	9.0
22.906	7.0
22.92	7.0
22.935	9.0
22.95	5.0
22.965	10.0
22.98	7.0
22.995	13.0
23.01	9.0
23.025	14.0
23.04	8.0
23.055	2.0
23.07	12.0
23.085	8.0
23.1	11.0
23.115	7.0
23.13	10.0
23.145	8.0
23.16	16.0
23.175	8.0
23.19	5.0
23.205	12.0
23.22	10.0
23.235	10.0
23.25	10.0
23.265	15.0
23.28	12.0
23.295	13.0
23.31	12.0
23.325	18.0
23.34	7.0
23.355	2.0
23.37	10.0
23.384	8.0
23.399	14.0
23.414	8.0
23.429	12.0
23.444	8.0
23.459	10.0
23.474	16.0
23.489	9.0
23.504	11.0
23.519	15.0
23.534	21.0
23.549	15.0
23.564	13.0
23.579	18.0
23.594	17.0
23.609	11.0
23.624	14.0
23.639	8.0
23.654	7.0
23.668	15.0
23.683	16.0
23.698	8.0
23.713	11.0
23.728	12.0
23.743	12.0
23.758	16.0
23.773	12.0
23.788	12.0
23.803	15.0
23.818	19.0
23.833	15.0
23.848	15.0
23.862	7.0
23.877	22.0
23.892	23.0
23.907	14.0
23.922	39.0
23.937	20.0
23.952	24.0
23.967	32.0
23.982	38.0
23.997	43.0
24.011	47.0
24.026	43.0
24.041	50.0
24.056	54.0
24.071	54.0
24.086	47.0
24.101	60.0
24.116	59.0
24.131	58.0
24.145	50.0
24.16	37.0
24.175	35.0
24.19	42.0
24.205	39.0
24.22	37.0
24.235	30.0
24.249	29.0
24.264	30.0
24.279	19.0
24.294	19.0
24.309	20.0
24.324	22.0
24.338	15.0
24.353	17.0
24.368	15.0
24.383	10.0
24.398	11.0
24.413	14.0
24.428	22.0
24.442	12.0
24.457	9.0
24.472	5.0
24.487	10.0
24.502	5.0
24.516	18.0
24.531	12.0
24.546	11.0
24.561	9.0
24.576	13.0
24.591	12.0
24.605	17.0
24.62	9.0
24.635	12.0
24.65	9.0
24.665	14.0
24.679	10.0
24.694	16.0
24.709	16.0
24.724	12.0
24.739	12.0
24.753	16.0
24.768	8.0
24.783	10.0
24.798	18.0
24.813	11.0
24.827	6.0
24.842	10.0
24.857	12.0
24.872	10.0
24.886	10.0
24.901	11.0
24.916	8.0
24.931	5.0
24.946	13.0
24.96	13.0
24.975	8.0
24.99	10.0
25.005	14.0
25.019	9.0
25.034	11.0
25.049	12.0
25.064	12.0
25.078	11.0
25.093	16.0
25.108	4.0
25.123	15.0
25.138	14.0
25.152	7.0
25.167	12.0
25.182	9.0
25.197	16.0
25.211	11.0
25.226	12.0
25.241	8.0
25.256	8.0
25.27	5.0
25.285	10.0
25.3	7.0
25.315	7.0
25.329	14.0
25.344	7.0
25.359	11.0
25.374	10.0
25.388	12.0
25.403	6.0
25.418	5.0
25.433	11.0
25.447	15.0
25.462	14.0
25.477	18.0
25.492	12.0
25.506	6.0
25.521	8.0
25.536	11.0
25.55	9.0
25.565	13.0
25.58	15.0
25.595	8.0
25.609	6.0
25.624	9.0
25.639	12.0
25.654	9.0
25.668	12.0
25.683	10.0
25.698	10.0
25.713	13.0
25.727	12.0
25.742	8.0
25.757	8.0
25.772	11.0
25.786	12.0
25.801	4.0
25.816	7.0
25.83	19.0
25.845	7.0
25.86	10.0
25.875	9.0
25.889	9.0
25.904	15.0
25.919	15.0
25.934	11.0
25.948	8.0
25.963	8.0
25.978	11.0
25.992	10.0
26.007	11.0
26.022	5.0
26.037	9.0
26.051	4.0
26.066	15.0
26.081	11.0
26.096	9.0
26.11	8.0
26.125	7.0
26.14	13.0
26.155	11.0
26.169	9.0
26.184	6.0
26.199	3.0
26.213	5.0
26.228	10.0
26.243	7.0
26.258	8.0
26.272	17.0
26.287	8.0
26.302	12.0
26.317	9.0
26.331	13.0
26.346	3.0
26.361	9.0
26.376	10.0
26.39	9.0
26.405	8.0
26.42	10.0
26.434	12.0
26.449	10.0
26.464	5.0
26.479	11.0
26.493	10.0
26.508	14.0
26.523	6.0
26.538	12.0
26.552	8.0
26.567	8.0
26.582	12.0
26.597	9.0
26.611	21.0
26.626	8.0
26.641	6.0
26.656	6.0
26.67	9.0
26.685	9.0
26.7	9.0
26.715	12.0
26.729	10.0
26.744	13.0
26.759	8.0
26.773	9.0
26.788	15.0
26.803	5.0
26.818	12.0
26.832	11.0
26.847	13.0
26.862	8.0
26.877	11.0
26.891	13.0
26.906	14.0
26.921	7.0
26.936	10.0
26.95	12.0
26.965	10.0
26.98	13.0
26.995	16.0
27.01	9.0
27.024	12.0
27.039	10.0
27.054	15.0
27.069	11.0
27.083	7.0
27.098	8.0
27.113	11.0
27.128	9.0
27.142	15.0
27.157	11.0
27.172	13.0
27.187	10.0
27.201	9.0
27.216	14.0
27.231	5.0
27.246	11.0
27.261	10.0
27.275	13.0
27.29	12.0
27.305	9.0
27.32	18.0
27.334	8.0
27.349	7.0
27.364	11.0
27.379	12.0
27.394	8.0
27.408	11.0
27.423	10.0
27.438	12.0
27.453	13.0
27.467	8.0
27.482	11.0
27.497	15.0
27.512	9.0
27.527	10.0
27.541	8.0
27.556	5.0
27.571	9.0
27.586	13.0
27.601	14.0
27.615	12.0
27.63	14.0
27.645	7.0
27.66	10.0
27.675	13.0
27.689	12.0
27.704	11.0
27.719	11.0
27.734	9.0
27.749	11.0
27.763	11.0
27.778	14.0
27.793	14.0
27.808	29.0
27.823	25.0
27.838	34.0
27.852	21.0
27.867	26.0
27.882	19.0
27.897	28.0
27.912	20.0
27.926	27.0
27.941	19.0
27.956	23.0
27.971	23.0
27.986	14.0
28.001	15.0
28.015	11.0
28.03	19.0
28.045	22.0
28.06	16.0
28.075	19.0
28.09	12.0
28.105	17.0
28.119	16.0
28.134	11.0
28.149	13.0
28.164	15.0
28.179	12.0
28.194	11.0
28.208	18.0
28.223	14.0
28.238	9.0
28.253	13.0
28.268	11.0
28.283	16.0
28.298	11.0
28.312	4.0
28.327	11.0
28.342	7.0
28.357	10.0
28.372	15.0
28.387	17.0
28.402	6.0
28.417	7.0
28.431	9.0
28.446	10.0
28.461	6.0
28.476	9.0
28.491	9.0
28.506	8.0
28.521	6.0
28.536	12.0
28.55	10.0
28.565	10.0
28.58	17.0
28.595	15.0
28.61	11.0
28.625	10.0
28.64	9.0
28.655	9.0
28.669	11.0
28.684	6.0
28.699	12.0
28.714	14.0
28.729	17.0
28.744	7.0
28.759	13.0
28.774	13.0
28.788	10.0
28.803	9.0
28.818	15.0
28.833	14.0
28.848	6.0
28.863	9.0
28.878	11.0
28.893	10.0
28.908	8.0
28.922	9.0
28.937	11.0
28.952	10.0
28.967	8.0
28.982	11.0
28.997	10.0
29.012	8.0
29.027	8.0
29.041	10.0
29.056	9.0
29.071	10.0
29.086	9.0
29.101	15.0
29.116	11.0
29.131	11.0
29.146	12.0
29.16	18.0
29.175	17.0
29.19	9.0
29.205	10.0
29.22	17.0
29.235	10.0
29.25	12.0
29.265	7.0
29.279	11.0
29.294	13.0
29.309	8.0
29.324	10.0
29.339	14.0
29.354	13.0
29.369	7.0
29.384	11.0
29.398	14.0
29.413	15.0
29.428	20.0
29.443	20.0
29.458	30.0
29.473	26.0
29.488	28.0
29.502	26.0
29.517	30.0
29.532	35.0
29.547	41.0
29.562	47.0
29.577	47.0
29.592	36.0
29.606	51.0
29.621	52.0
29.636	44.0
29.651	43.0
29.666	42.0
29.681	47.0
29.695	44.0
29.71	44.0
29.725	34.0
29.74	37.0
29.755	25.0
29.77	35.0
29.784	35.0
29.799	28.0
29.814	28.0
29.829	18.0
29.844	25.0
29.859	14.0
29.873	20.0
29.888	24.0
29.903	18.0
29.918	11.0
29.933	13.0
29.947	14.0
29.962	18.0
29.977	13.0
29.992	13.0
30.007	7.0
30.021	11.0
30.036	12.0
30.051	14.0
30.066	12.0
30.081	15.0
30.095	10.0
30.11	13.0
30.125	5.0
30.14	5.0
30.155	17.0
30.169	10.0
30.184	17.0
30.199	7.0
30.214	12.0
30.228	12.0
30.243	9.0
30.258	13.0
30.273	8.0
30.288	14.0
30.302	12.0
30.317	6.0
30.332	13.0
30.347	13.0
30.361	12.0
30.376	7.0
30.391	9.0
30.406	10.0
30.42	12.0
30.435	8.0
30.45	9.0
30.465	13.0
30.479	9.0
30.494	8.0
30.509	10.0
30.524	9.0
30.538	12.0
30.553	14.0
30.568	9.0
30.583	8.0
30.597	10.0
30.612	9.0
30.627	9.0
30.641	7.0
30.656	11.0
30.671	13.0
30.686	6.0
30.7	11.0
30.715	6.0
30.73	19.0
30.745	8.0
30.759	9.0
30.774	6.0
30.789	13.0
30.803	15.0
30.818	12.0
30.833	12.0
30.848	9.0
30.862	10.0
30.877	10.0
30.892	11.0
30.906	9.0
30.921	17.0
30.936	10.0
30.951	10.0
30.965	10.0
30.98	4.0
30.995	13.0
31.009	13.0
31.024	17.0
31.039	10.0
31.053	18.0
31.068	11.0
31.083	13.0
31.098	21.0
31.112	18.0
31.127	24.0
31.142	21.0
31.156	21.0
31.171	19.0
31.186	28.0
31.2	32.0
31.215	32.0
31.23	48.0
31.245	34.0
31.259	41.0
31.274	36.0
31.289	41.0
31.303	28.0
31.318	35.0
31.333	34.0
31.347	33.0
31.362	34.0
31.377	22.0
31.392	38.0
31.406	17.0
31.421	21.0
31.436	28.0
31.45	22.0
31.465	31.0
31.48	28.0
31.494	20.0
31.509	19.0
31.524	15.0
31.538	19.0
31.553	11.0
31.568	13.0
31.583	10.0
31.597	7.0
31.612	10.0
31.627	17.0
31.641	6.0
31.656	6.0
31.671	8.0
31.685	12.0
31.7	4.0
31.715	6.0
31.729	16.0
31.744	12.0
31.759	13.0
31.774	6.0
31.788	12.0
31.803	12.0
31.818	8.0
31.832	10.0
31.847	7.0
31.862	17.0
31.876	14.0
31.891	7.0
31.906	13.0
31.92	11.0
31.935	10.0
31.95	17.0
31.965	7.0
31.979	12.0
31.994	7.0
32.009	7.0
32.023	18.0
32.038	9.0
32.053	6.0
32.067	13.0
32.082	14.0
32.097	8.0
32.112	9.0
32.126	8.0
32.141	8.0
32.156	10.0
32.17	6.0
32.185	5.0
32.2	5.0
32.214	9.0
32.229	9.0
32.244	10.0
32.259	11.0
32.273	15.0
32.288	15.0
32.303	11.0
32.317	13.0
32.332	7.0
32.347	14.0
32.362	6.0
32.376	19.0
32.391	6.0
32.406	14.0
32.42	9.0
32.435	11.0
32.45	12.0
32.465	8.0
32.479	11.0
32.494	14.0
32.509	10.0
32.523	11.0
32.538	11.0
32.553	8.0
32.568	10.0
32.582	13.0
32.597	13.0
32.612	17.0
32.627	11.0
32.641	8.0
32.656	26.0
32.671	16.0
32.685	17.0
32.7	10.0
32.715	20.0
32.73	10.0
32.744	19.0
32.759	20.0
32.774	27.0
32.788	26.0
32.803	23.0
32.818	31.0
32.833	24.0
32.847	19.0
32.862	21.0
32.877	28.0
32.892	28.0
32.906	26.0
32.921	19.0
32.936	21.0
32.951	11.0
32.965	18.0
32.98	18.0
32.995	22.0
33.009	17.0
33.024	17.0
33.039	19.0
33.054	29.0
33.068	17.0
33.083	17.0
33.098	15.0
33.113	12.0
33.127	9.0
33.142	15.0
33.157	9.0
33.172	14.0
33.186	10.0
33.201	10.0
33.216	5.0
33.231	8.0
33.245	6.0
33.26	7.0
33.275	12.0
33.29	12.0
33.304	17.0
33.319	16.0
33.334	8.0
33.349	8.0
33.363	12.0
33.378	7.0
33.393	10.0
33.408	9.0
33.422	17.0
33.437	11.0
33.452	11.0
33.467	5.0
33.481	10.0
33.496	7.0
33.511	9.0
33.526	12.0
33.54	6.0
33.555	14.0
33.57	13.0
33.585	10.0
33.599	11.0
33.614	8.0
33.629	13.0
33.644	10.0
33.658	9.0
33.673	3.0
33.688	10.0
33.703	10.0
33.718	13.0
33.732	5.0
33.747	12.0
33.762	9.0
33.777	5.0
33.791	9.0
33.806	11.0
33.821	10.0
33.836	14.0
33.85	11.0
33.865	12.0
33.88	10.0
33.895	9.0
33.91	5.0
33.924	7.0
33.939	11.0
33.954	6.0
33.969	15.0
33.983	9.0
33.998	4.0
34.013	8.0
34.028	6.0
34.042	7.0
34.057	9.0
34.072	10.0
34.087	10.0
34.102	16.0
34.116	11.0
34.131	8.0
34.146	11.0
34.161	12.0
34.175	9.0
34.19	12.0
34.205	8.0
34.22	14.0
34.235	11.0
34.249	14.0
34.264	10.0
34.279	10.0
34.294	12.0
34.309	12.0
34.323	17.0
34.338	14.0
34.353	8.0
34.368	21.0
34.382	13.0
34.397	17.0
34.412	15.0
34.427	8.0
34.442	6.0
34.456	8.0
34.471	9.0
34.486	11.0
34.501	12.0
34.516	9.0
34.53	14.0
34.545	6.0
34.56	13.0
34.575	9.0
34.59	5.0
34.604	9.0
34.619	13.0
34.634	12.0
34.649	13.0
34.664	5.0
34.678	7.0
34.693	9.0
34.708	7.0
34.723	8.0
34.738	14.0
34.752	6.0
34.767	4.0
34.782	5.0
34.797	11.0
34.812	12.0
34.826	7.0
34.841	2.0
34.856	11.0
34.871	11.0
34.886	6.0
34.9	6.0
34.915	11.0
34.93	9.0
34.945	8.0
34.96	7.0
34.974	11.0
34.989	12.0
35.004	7.0
35.019	10.0
35.034	5.0
35.048	4.0
35.063	8.0
35.078	6.0
35.093	11.0
35.108	9.0
35.122	7.0
35.137	10.0
35.152	7.0
35.167	11.0
35.182	7.0
35.196	7.0
35.211	11.0
35.226	14.0
35.241	7.0
35.256	7.0
35.27	8.0
35.285	10.0
35.3	8.0
35.315	7.0
35.33	8.0
35.344	8.0
35.359	4.0
35.374	8.0
35.389	8.0
35.404	10.0
35.418	9.0
35.433	13.0
35.448	10.0
35.463	8.0
35.478	12.0
35.493	9.0
35.507	9.0
35.522	5.0
35.537	8.0
35.552	2.0
35.567	6.0
35.581	7.0
35.596	6.0
35.611	10.0
35.626	16.0
35.641	15.0
35.655	14.0
35.67	13.0
35.685	9.0
35.7	22.0
35.715	17.0
35.729	16.0
35.744	19.0
35.759	25.0
35.774	14.0
35.789	19.0
35.804	21.0
35.818	19.0
35.833	16.0
35.848	21.0
35.863	6.0
35.878	11.0
35.892	20.0
35.907	7.0
35.922	12.0
35.937	9.0
35.952	18.0
35.966	14.0
35.981	13.0
35.996	10.0
36.011	14.0
36.026	11.0
36.04	14.0
36.055	15.0
36.07	14.0
36.085	12.0
36.1	15.0
36.114	8.0
36.129	12.0
36.144	14.0
36.159	6.0
36.174	11.0
36.189	5.0
36.203	5.0
36.218	8.0
36.233	8.0
36.248	10.0
36.263	1.0
36.277	8.0
36.292	8.0
36.307	10.0
36.322	9.0
36.337	7.0
36.351	12.0
36.366	8.0
36.381	11.0
36.396	8.0
36.411	8.0
36.426	7.0
36.44	8.0
36.455	7.0
36.47	6.0
36.485	9.0
36.5	9.0
36.514	9.0
36.529	17.0
36.544	10.0
36.559	7.0
36.574	6.0
36.589	5.0
36.603	9.0
36.618	10.0
36.633	12.0
36.648	5.0
36.663	19.0
36.677	5.0
36.692	7.0
36.707	8.0
36.722	8.0
36.737	6.0
36.752	9.0
36.766	10.0
36.781	12.0
36.796	6.0
36.811	3.0
36.826	7.0
36.841	7.0
36.855	7.0
36.87	7.0
36.885	8.0
36.9	5.0
36.915	11.0
36.93	9.0
36.944	11.0
36.959	13.0
36.974	6.0
36.989	10.0
37.004	9.0
37.019	11.0
37.033	11.0
37.048	18.0
37.063	16.0
37.078	17.0
37.093	19.0
37.108	28.0
37.123	24.0
37.137	13.0
37.152	26.0
37.167	31.0
37.182	27.0
37.197	30.0
37.212	29.0
37.226	23.0
37.241	29.0
37.256	22.0
37.271	22.0
37.286	22.0
37.301	26.0
37.316	17.0
37.331	22.0
37.345	20.0
37.36	12.0
37.375	14.0
37.39	25.0
37.405	15.0
37.42	24.0
37.435	14.0
37.45	19.0
37.464	11.0
37.479	16.0
37.494	14.0
37.509	10.0
37.524	5.0
37.539	9.0
37.554	10.0
37.569	10.0
37.583	11.0
37.598	5.0
37.613	7.0
37.628	10.0
37.643	6.0
37.658	6.0
37.673	9.0
37.688	7.0
37.703	15.0
37.718	10.0
37.733	7.0
37.747	2.0
37.762	7.0
37.777	6.0
37.792	8.0
37.807	13.0
37.822	5.0
37.837	5.0
37.852	3.0
37.867	11.0
37.882	9.0
37.897	7.0
37.912	5.0
37.927	6.0
37.941	4.0
37.956	4.0
37.971	8.0
37.986	9.0
38.001	9.0
38.016	6.0
38.031	4.0
38.046	6.0
38.061	6.0
38.076	8.0
38.091	5.0
38.106	4.0
38.121	11.0
38.136	3.0
38.151	8.0
38.166	5.0
38.181	5.0
38.196	8.0
38.211	8.0
38.226	10.0
38.241	10.0
38.256	8.0
38.271	9.0
38.285	4.0
38.3	9.0
38.315	14.0
38.33	5.0
38.345	1.0
38.36	6.0
38.375	11.0
38.39	9.0
38.405	6.0
38.42	8.0
38.435	4.0
38.45	6.0
38.465	6.0
38.48	4.0
38.495	7.0
38.51	3.0
38.525	6.0
38.54	8.0
38.555	7.0
38.57	5.0
38.585	3.0
38.6	9.0
38.615	4.0
38.63	8.0
38.645	3.0
38.66	8.0
38.675	8.0
38.69	6.0
38.705	13.0
38.72	6.0
38.735	7.0
38.75	3.0
38.765	4.0
38.78	6.0
38.795	6.0
38.81	9.0
38.825	1.0
38.84	7.0
38.855	10.0
38.87	7.0
38.885	5.0
38.9	1.0
38.915	5.0
38.93	8.0
38.945	6.0
38.96	3.0
38.975	9.0
38.99	3.0
39.005	12.0
39.02	8.0
39.035	6.0
39.05	6.0
39.065	6.0
39.08	3.0
39.095	1.0
39.11	8.0
39.125	5.0
39.14	8.0
39.155	8.0
39.17	4.0
39.185	4.0
39.2	6.0
39.215	13.0
39.23	8.0
39.245	3.0
39.26	5.0
39.275	12.0
39.29	4.0
39.305	9.0
39.32	5.0
39.335	11.0
39.35	6.0
39.365	3.0
39.38	7.0
39.395	7.0
39.409	4.0
39.424	4.0
39.439	8.0
39.454	3.0
39.469	13.0
39.484	12.0
39.499	9.0
39.514	9.0
39.529	2.0
39.544	7.0
39.559	7.0
39.574	3.0
39.589	8.0
39.604	5.0
39.619	4.0
39.634	6.0
39.649	7.0
39.664	3.0
39.678	6.0
39.693	6.0
39.708	3.0
39.723	7.0
39.738	3.0
39.753	13.0
39.768	6.0
39.783	9.0
39.798	12.0
39.813	5.0
39.827	14.0
39.842	10.0
39.857	14.0
39.872	10.0
39.887	10.0
39.902	13.0
39.917	8.0
39.932	7.0
39.947	13.0
39.961	7.0
39.976	5.0
39.991	6.0
40.006	1.0
40.021	7.0
40.036	5.0
40.051	6.0
40.065	7.0
40.08	13.0
40.095	4.0
40.11	12.0
40.125	6.0
40.14	5.0
40.154	7.0
40.169	8.0
40.184	11.0
40.199	8.0
40.214	7.0
40.228	5.0
40.243	5.0
40.258	4.0
40.273	6.0
40.288	6.0
40.302	2.0
40.317	4.0
40.332	3.0
40.347	5.0
40.362	14.0
40.376	6.0
40.391	3.0
40.406	7.0
40.421	6.0
40.436	4.0
40.45	5.0
40.465	6.0
40.48	6.0
40.495	4.0
40.509	9.0
40.524	7.0
40.539	7.0
40.554	11.0
40.568	11.0
40.583	6.0
40.598	6.0
40.613	9.0
40.627	8.0
40.642	6.0
40.657	6.0
40.672	4.0
40.686	6.0
40.701	6.0
40.716	3.0
40.731	4.0
40.745	10.0
40.76	4.0
40.775	5.0
40.79	2.0
40.804	8.0
40.819	5.0
40.834	4.0
40.849	8.0
40.863	4.0
40.878	3.0
40.893	10.0
40.907	4.0
40.922	13.0
40.937	4.0
40.952	13.0
40.966	6.0
40.981	13.0
40.996	7.0
41.011	8.0
41.025	8.0
41.04	18.0
41.055	12.0
41.069	13.0
41.084	16.0
41.099	26.0
41.114	15.0
41.128	18.0
41.143	21.0
41.158	22.0
41.173	20.0
41.187	17.0
41.202	11.0
41.217	9.0
41.231	13.0
41.246	14.0
41.261	14.0
41.276	14.0
41.29	10.0
41.305	14.0
41.32	15.0
41.335	11.0
41.349	8.0
41.364	19.0
41.379	18.0
41.393	18.0
41.408	17.0
41.423	12.0
41.438	16.0
41.452	8.0
41.467	14.0
41.482	14.0
41.497	8.0
41.511	7.0
41.526	9.0
41.541	5.0
41.556	10.0
41.57	1.0
41.585	9.0
41.6	5.0
41.615	3.0
41.629	9.0
41.644	6.0
41.659	6.0
41.674	5.0
41.688	9.0
41.703	10.0
41.718	5.0
41.733	4.0
41.747	8.0
41.762	7.0
41.777	4.0
41.792	3.0
41.806	4.0
41.821	6.0
41.836	9.0
41.851	9.0
41.866	4.0
41.88	5.0
41.895	4.0
41.91	6.0
41.925	6.0
41.939	5.0
41.954	3.0
41.969	3.0
41.984	9.0
41.999	7.0
42.013	4.0
42.028	8.0
42.043	6.0
42.058	4.0
42.073	5.0
42.088	7.0
42.102	4.0
42.117	4.0
42.132	10.0
42.147	6.0
42.162	4.0
42.176	6.0
42.191	10.0
42.206	11.0
42.221	4.0
42.236	13.0
42.251	7.0
42.266	11.0
42.28	11.0
42.295	19.0
42.31	18.0
42.325	16.0
42.34	11.0
42.355	11.0
42.369	16.0
42.384	15.0
42.399	19.0
42.414	20.0
42.429	11.0
42.444	15.0
42.459	21.0
42.474	7.0
42.488	7.0
42.503	12.0
42.518	8.0
42.533	7.0
42.548	9.0
42.563	9.0
42.578	9.0
42.593	17.0
42.608	12.0
42.622	19.0
42.637	14.0
42.652	8.0
42.667	5.0
42.682	9.0
42.697	12.0
42.712	13.0
42.727	16.0
42.742	8.0
42.757	3.0
42.772	8.0
42.786	7.0
42.801	4.0
42.816	11.0
42.831	5.0
42.846	5.0
42.861	4.0
42.876	9.0
42.891	2.0
42.906	5.0
42.921	4.0
42.936	4.0
42.951	6.0
42.966	3.0
42.981	3.0
42.996	8.0
43.011	3.0
43.025	6.0
43.04	7.0
43.055	8.0
43.07	4.0
43.085	5.0
43.1	10.0
43.115	5.0
43.13	7.0
43.145	5.0
43.16	4.0
43.175	2.0
43.19	4.0
43.205	8.0
43.22	0.0
43.235	6.0
43.25	9.0
43.265	3.0
43.28	7.0
43.295	6.0
43.31	9.0
43.325	4.0
43.34	4.0
43.355	3.0
43.37	4.0
43.385	5.0
43.4	8.0
43.415	2.0
43.43	5.0
43.445	4.0
43.46	3.0
43.475	8.0
43.49	5.0
43.505	10.0
43.52	8.0
43.535	8.0
43.55	13.0
43.565	5.0
43.58	8.0
43.595	8.0
43.61	15.0
43.625	13.0
43.64	11.0
43.655	6.0
43.67	7.0
43.685	6.0
43.7	7.0
43.715	9.0
43.73	6.0
43.745	7.0
43.76	7.0
43.775	2.0
43.79	9.0
43.805	7.0
43.82	6.0
43.835	10.0
43.85	11.0
43.865	8.0
43.88	2.0
43.895	8.0
43.91	8.0
43.925	10.0
43.94	8.0
43.955	7.0
43.97	5.0
43.985	8.0
44.0	9.0
44.015	6.0
44.03	3.0
44.045	4.0
44.061	4.0
44.076	3.0
44.091	5.0
44.106	7.0
44.121	7.0
44.136	5.0
44.151	2.0
44.166	2.0
44.181	5.0
44.196	6.0
44.211	2.0
44.226	4.0
44.241	7.0
44.256	4.0
44.271	7.0
44.286	5.0
44.301	4.0
44.316	8.0
44.331	4.0
44.346	5.0
44.361	5.0
44.377	4.0
44.392	6.0
44.407	5.0
44.422	2.0
44.437	4.0
44.452	8.0
44.467	6.0
44.482	6.0
44.497	6.0
44.512	7.0
44.527	3.0
44.542	6.0
44.557	6.0
44.572	6.0
44.587	2.0
44.602	7.0
44.617	4.0
44.632	4.0
44.647	6.0
44.663	9.0
44.678	3.0
44.693	5.0
44.708	8.0
44.723	10.0
44.738	9.0
44.753	7.0
44.768	4.0
44.783	12.0
44.798	6.0
44.813	12.0
44.828	13.0
44.843	8.0
44.858	16.0
44.873	6.0
44.888	8.0
44.903	8.0
44.918	8.0
44.933	5.0
44.948	4.0
44.964	4.0
44.979	9.0
44.994	4.0
45.009	8.0
45.024	5.0
45.039	9.0
45.054	5.0
45.069	9.0
45.084	7.0
45.099	3.0
45.114	8.0
45.129	4.0
45.144	4.0
45.159	9.0
45.174	12.0
45.189	14.0
45.204	5.0
45.219	4.0
45.234	7.0
45.249	9.0
45.264	4.0
45.279	2.0
45.294	4.0
45.309	7.0
45.324	6.0
45.339	10.0
45.354	9.0
45.369	1.0
45.384	4.0
45.399	6.0
45.414	6.0
45.429	7.0
45.444	7.0
45.459	8.0
45.474	2.0
45.489	5.0
45.504	8.0
45.519	2.0
45.534	4.0
45.549	5.0
45.564	4.0
45.579	8.0
45.594	5.0
45.609	3.0
45.624	3.0
45.639	10.0
45.654	3.0
45.669	6.0
45.684	5.0
45.699	5.0
45.714	5.0
45.729	8.0
45.744	5.0
45.759	6.0
45.774	2.0
45.789	3.0
45.804	4.0
45.819	6.0
45.834	5.0
45.849	8.0
45.864	5.0
45.879	8.0
45.894	13.0
45.909	13.0
45.924	8.0
45.939	15.0
45.954	21.0
45.969	19.0
45.984	12.0
45.998	19.0
46.013	15.0
46.028	19.0
46.043	10.0
46.058	12.0
46.073	16.0
46.088	10.0
46.103	5.0
46.118	13.0
46.133	4.0
46.148	22.0
46.163	11.0
46.178	6.0
46.192	9.0
46.207	10.0
46.222	8.0
46.237	12.0
46.252	14.0
46.267	10.0
46.282	3.0
46.297	5.0
46.312	12.0
46.327	7.0
46.341	10.0
46.356	8.0
46.371	9.0
46.386	10.0
46.401	5.0
46.416	2.0
46.431	4.0
46.446	4.0
46.46	1.0
46.475	6.0
46.49	3.0
46.505	12.0
46.52	5.0
46.535	9.0
46.55	3.0
46.564	6.0
46.579	6.0
46.594	1.0
46.609	5.0
46.624	5.0
46.639	2.0
46.654	9.0
46.668	2.0
46.683	2.0
46.698	3.0
46.713	7.0
46.728	7.0
46.743	4.0
46.758	2.0
46.772	7.0
46.787	7.0
46.802	6.0
46.817	8.0
46.832	5.0
46.847	1.0
46.861	4.0
46.876	3.0
46.891	7.0
46.906	6.0
46.921	6.0
46.936	3.0
46.95	9.0
46.965	6.0
46.98	6.0
46.995	6.0
47.01	8.0
47.025	5.0
47.039	5.0
47.054	8.0
47.069	7.0
47.084	3.0
47.099	7.0
47.113	8.0
47.128	9.0
47.143	15.0
47.158	10.0
47.173	4.0
47.188	5.0
47.202	7.0
47.217	3.0
47.232	4.0
47.247	5.0
47.262	7.0
47.277	4.0
47.291	10.0
47.306	9.0
47.321	7.0
47.336	7.0
47.351	4.0
47.365	8.0
47.38	5.0
47.395	9.0
47.41	6.0
47.425	6.0
47.44	5.0
47.454	5.0
47.469	8.0
47.484	8.0
47.499	6.0
47.514	7.0
47.528	9.0
47.543	4.0
47.558	2.0
47.573	4.0
47.588	7.0
47.603	3.0
47.617	7.0
47.632	4.0
47.647	7.0
47.662	7.0
47.677	5.0
47.691	4.0
47.706	1.0
47.721	1.0
47.736	4.0
47.751	3.0
47.766	3.0
47.78	7.0
47.795	3.0
47.81	5.0
47.825	7.0
47.84	4.0
47.855	5.0
47.869	4.0
47.884	1.0
47.899	5.0
47.914	6.0
47.929	3.0
47.944	4.0
47.958	1.0
47.973	4.0
47.988	6.0
48.003	6.0
48.018	4.0
48.033	5.0
48.047	10.0
48.062	3.0
48.077	4.0
48.092	6.0
48.107	2.0
48.122	3.0
48.137	4.0
48.151	2.0
48.166	1.0
48.181	5.0
48.196	6.0
48.211	6.0
48.226	2.0
48.241	7.0
48.255	6.0
48.27	4.0
48.285	8.0
48.3	2.0
48.315	3.0
48.33	4.0
48.345	5.0
48.359	1.0
48.374	0.0
48.389	5.0
48.404	4.0
48.419	4.0
48.434	6.0
48.449	4.0
48.464	2.0
48.478	3.0
48.493	8.0
48.508	6.0
48.523	4.0
48.538	4.0
48.553	6.0
48.568	8.0
48.583	6.0
48.597	4.0
48.612	2.0
48.627	3.0
48.642	6.0
48.657	7.0
48.672	2.0
48.687	0.0
48.702	6.0
48.717	3.0
48.731	4.0
48.746	5.0
48.761	5.0
48.776	6.0
48.791	4.0
48.806	9.0
48.821	4.0
48.836	7.0
48.851	2.0
48.866	3.0
48.88	7.0
48.895	7.0
48.91	3.0
48.925	3.0
48.94	4.0
48.955	5.0
48.97	5.0
48.985	8.0
49.0	4.0
49.015	5.0
49.03	5.0
49.044	6.0
49.059	8.0
49.074	3.0
49.089	9.0
49.104	2.0
49.119	4.0
49.134	4.0
49.149	6.0
49.164	4.0
49.179	5.0
49.194	4.0
49.209	6.0
49.224	4.0
49.238	11.0
49.253	3.0
49.268	8.0
49.283	6.0
49.298	4.0
49.313	7.0
49.328	6.0
49.343	16.0
49.358	6.0
49.373	8.0
49.388	5.0
49.403	12.0
49.418	4.0
49.433	12.0
49.448	9.0
49.463	8.0
49.478	3.0
49.492	5.0
49.507	6.0
49.522	1.0
49.537	4.0
49.552	8.0
49.567	5.0
49.582	8.0
49.597	3.0
49.612	7.0
49.627	5.0
49.642	7.0
49.657	5.0
49.672	6.0
49.687	7.0
49.702	6.0
49.717	8.0
49.732	6.0
49.747	7.0
49.762	3.0
49.777	6.0
49.792	4.0
49.807	4.0
49.822	5.0
49.837	1.0
49.852	4.0
49.867	8.0
49.882	4.0
49.897	3.0
49.912	2.0
49.927	5.0
49.942	4.0
49.957	2.0
49.971	8.0
49.986	7.0
50.001	4.0
50.016	5.0
50.031	6.0
50.046	3.0
50.061	4.0
50.076	1.0
50.091	6.0
50.106	7.0
50.121	3.0
50.136	9.0
50.151	0.0
50.166	3.0
50.181	2.0
50.196	5.0
50.211	4.0
50.226	10.0
50.241	5.0
50.256	4.0
50.271	5.0
50.286	2.0
50.302	4.0
50.317	3.0
50.332	10.0
50.347	4.0
50.362	3.0
50.377	5.0
50.392	8.0
50.407	3.0
50.422	6.0
50.437	5.0
50.452	2.0
50.467	8.0
50.482	13.0
50.497	3.0
50.512	12.0
50.527	6.0
50.542	5.0
50.557	8.0
50.572	8.0
50.587	5.0
50.602	3.0
50.617	6.0
50.632	7.0
50.647	5.0
50.662	10.0
50.677	5.0
50.692	4.0
50.707	11.0
50.722	5.0
50.737	6.0
50.752	4.0
50.767	5.0
50.782	1.0
50.797	4.0
50.812	10.0
50.828	3.0
50.843	4.0
50.858	5.0
50.873	8.0
50.888	5.0
50.903	2.0
50.918	5.0
50.933	6.0
50.948	5.0
50.963	2.0
50.978	5.0
50.993	4.0
51.008	3.0
51.023	1.0
51.038	1.0
51.053	3.0
51.068	1.0
51.083	0.0
51.098	7.0
51.114	10.0
51.129	4.0
51.144	5.0
51.159	7.0
51.174	3.0
51.189	1.0
51.204	4.0
51.219	7.0
51.234	3.0
51.249	5.0
51.264	5.0
51.279	3.0
51.294	3.0
51.309	4.0
51.324	3.0
51.34	3.0
51.355	5.0
51.37	10.0
51.385	3.0
51.4	6.0
51.415	9.0
51.43	12.0
51.445	9.0
51.46	9.0
51.475	8.0
51.49	10.0
51.505	19.0
51.52	13.0
51.535	18.0
51.551	18.0
51.566	17.0
51.581	19.0
51.596	11.0
51.611	10.0
51.626	1.0
51.641	3.0
51.656	6.0
51.671	4.0
51.686	6.0
51.701	5.0
51.716	6.0
51.732	10.0
51.747	4.0
51.762	5.0
51.777	8.0
51.792	15.0
51.807	7.0
51.822	8.0
51.837	6.0
51.852	12.0
51.867	15.0
51.882	16.0
51.898	11.0
51.913	13.0
51.928	9.0
51.943	5.0
51.958	5.0
51.973	9.0
51.988	5.0
52.003	8.0
52.018	5.0
52.033	4.0
52.048	3.0
52.064	5.0
52.079	5.0
52.094	4.0
52.109	8.0
52.124	6.0
52.139	6.0
52.154	4.0
52.169	3.0
52.184	9.0
52.199	6.0
52.215	7.0
52.23	4.0
52.245	8.0
52.26	6.0
52.275	5.0
52.29	2.0
52.305	4.0
52.32	5.0
52.335	2.0
52.35	4.0
52.366	6.0
52.381	4.0
52.396	5.0
52.411	6.0
52.426	5.0
52.441	3.0
52.456	7.0
52.471	3.0
52.486	9.0
52.502	8.0
52.517	7.0
52.532	9.0
52.547	8.0
52.562	14.0
52.577	10.0
52.592	8.0
52.607	3.0
52.622	12.0
52.637	13.0
52.653	11.0
52.668	7.0
52.683	1.0
52.698	3.0
52.713	6.0
52.728	5.0
52.743	1.0
52.758	7.0
52.774	6.0
52.789	4.0
52.804	8.0
52.819	4.0
52.834	3.0
52.849	7.0
52.864	9.0
52.879	7.0
52.894	9.0
52.91	6.0
52.925	5.0
52.94	8.0
52.955	5.0
52.97	6.0
52.985	8.0
53.0	6.0
53.015	5.0
53.031	4.0
53.046	2.0
53.061	4.0
53.076	6.0
53.091	3.0
53.106	5.0
53.121	3.0
53.136	4.0
53.152	4.0
53.167	7.0
53.182	5.0
53.197	1.0
53.212	6.0
53.227	3.0
53.242	2.0
53.257	3.0
53.273	3.0
53.288	5.0
53.303	6.0
53.318	7.0
53.333	5.0
53.348	5.0
53.363	6.0
53.379	4.0
53.394	7.0
53.409	3.0
53.424	6.0
53.439	5.0
53.454	6.0
53.469	6.0
53.484	2.0
53.5	4.0
53.515	8.0
53.53	2.0
53.545	2.0
53.56	7.0
53.575	3.0
53.59	5.0
53.606	5.0
53.621	7.0
53.636	2.0
53.651	3.0
53.666	5.0
53.681	15.0
53.696	6.0
53.712	2.0
53.727	4.0
53.742	5.0
53.757	4.0
53.772	4.0
53.787	8.0
53.802	3.0
53.818	3.0
53.833	4.0
53.848	4.0
53.863	7.0
53.878	2.0
53.893	7.0
53.909	1.0
53.924	9.0
53.939	2.0
53.954	5.0
53.969	7.0
53.984	6.0
53.999	6.0
54.015	4.0
54.03	2.0
54.045	7.0
54.06	11.0
54.075	4.0
54.09	3.0
54.106	4.0
54.121	9.0
54.136	3.0
54.151	5.0
54.166	3.0
54.181	6.0
54.197	1.0
54.212	0.0
54.227	4.0
54.242	8.0
54.257	6.0
54.272	4.0
54.288	5.0
54.303	7.0
54.318	9.0
54.333	4.0
54.348	1.0
54.363	6.0
54.379	5.0
54.394	5.0
54.409	3.0
54.424	6.0
54.439	9.0
54.454	6.0
54.47	4.0
54.485	8.0
54.5	8.0
54.515	2.0
54.53	9.0
54.545	4.0
54.561	9.0
54.576	11.0
54.591	7.0
54.606	13.0
54.621	8.0
54.636	18.0
54.652	8.0
54.667	9.0
54.682	14.0
54.697	7.0
54.712	10.0
54.727	16.0
54.743	10.0
54.758	4.0
54.773	9.0
54.788	7.0
54.803	8.0
54.819	3.0
54.834	3.0
54.849	9.0
54.864	7.0
54.879	9.0
54.894	12.0
54.91	6.0
54.925	7.0
54.94	4.0
54.955	13.0
54.97	11.0
54.985	9.0
55.001	7.0
55.016	7.0
55.031	14.0
55.046	9.0
55.061	10.0
55.077	12.0
55.092	7.0
55.107	6.0
55.122	6.0
55.137	7.0
55.152	5.0
55.168	5.0
55.183	6.0
55.198	8.0
55.213	2.0
55.228	5.0
55.243	2.0
55.259	7.0
55.274	5.0
55.289	3.0
55.304	7.0
55.319	5.0
55.335	5.0
55.35	4.0
55.365	9.0
55.38	4.0
55.395	5.0
55.41	3.0
55.426	2.0
55.441	8.0
55.456	7.0
55.471	6.0
55.486	5.0
55.501	1.0
55.517	4.0
55.532	3.0
55.547	3.0
55.562	3.0
55.577	9.0
55.592	12.0
55.608	7.0
55.623	9.0
55.638	6.0
55.653	7.0
55.668	11.0
55.683	11.0
55.699	10.0
55.714	10.0
55.729	4.0
55.744	7.0
55.759	7.0
55.774	5.0
55.79	3.0
55.805	9.0
55.82	4.0
55.835	5.0
55.85	6.0
55.865	6.0
55.881	5.0
55.896	3.0
55.911	4.0
55.926	2.0
55.941	5.0
55.956	4.0
55.972	3.0
55.987	7.0
56.002	5.0
56.017	7.0
56.032	6.0
56.047	5.0
56.063	13.0
56.078	5.0
56.093	4.0
56.108	7.0
56.123	10.0
56.138	7.0
56.154	5.0
56.169	6.0
56.184	5.0
56.199	6.0
56.214	4.0
56.229	3.0
56.244	7.0
56.26	2.0
56.275	3.0
56.29	6.0
56.305	3.0
56.32	5.0
56.335	5.0
56.351	4.0
56.366	8.0
56.381	3.0
56.396	3.0
56.411	9.0
56.426	2.0
56.441	5.0
56.457	5.0
56.472	4.0
56.487	4.0
56.502	4.0
56.517	4.0
56.532	6.0
56.547	5.0
56.563	6.0
56.578	4.0
56.593	2.0
56.608	4.0
56.623	5.0
56.638	7.0
56.653	4.0
56.668	5.0
56.684	6.0
56.699	1.0
56.714	4.0
56.729	4.0
56.744	6.0
56.759	6.0
56.774	7.0
56.79	6.0
56.805	5.0
56.82	5.0
56.835	7.0
56.85	3.0
56.865	3.0
56.88	3.0
56.895	2.0
56.911	8.0
56.926	5.0
56.941	2.0
56.956	5.0
56.971	8.0
56.986	1.0
57.001	9.0
57.016	3.0
57.031	3.0
57.047	4.0
57.062	2.0
57.077	9.0
57.092	3.0
57.107	3.0
57.122	5.0
57.137	4.0
57.152	1.0
57.167	4.0
57.183	4.0
57.198	4.0
57.213	9.0
57.228	7.0
57.243	5.0
57.258	5.0
57.273	3.0
57.288	7.0
57.303	4.0
57.318	5.0
57.334	3.0
57.349	9.0
57.364	1.0
57.379	8.0
57.394	6.0
57.409	3.0
57.424	3.0
57.439	6.0
57.454	5.0
57.469	3.0
57.484	6.0
57.5	6.0
57.515	3.0
57.53	5.0
57.545	3.0
57.56	6.0
57.575	4.0
57.59	5.0
57.605	1.0
57.62	5.0
57.635	2.0
57.65	6.0
57.665	9.0
57.68	4.0
57.696	2.0
57.711	4.0
57.726	6.0
57.741	4.0
57.756	5.0
57.771	4.0
57.786	9.0
57.801	7.0
57.816	4.0
57.831	5.0
57.846	3.0
57.861	1.0
57.876	4.0
57.891	3.0
57.906	5.0
57.921	3.0
57.937	6.0
57.952	6.0
57.967	6.0
57.982	3.0
57.997	2.0
58.012	4.0
58.027	4.0
58.042	5.0
58.057	6.0
58.072	2.0
58.087	3.0
58.102	5.0
58.117	4.0
58.132	5.0
58.147	6.0
58.162	3.0
58.177	4.0
58.192	3.0
58.207	1.0
58.222	5.0
58.237	11.0
58.252	4.0
58.267	7.0
58.282	3.0
58.297	4.0
58.312	7.0
58.327	5.0
58.342	6.0
58.357	3.0
58.372	6.0
58.387	3.0
58.402	3.0
58.418	8.0
58.433	6.0
58.448	5.0
58.463	4.0
58.478	4.0
58.493	3.0
58.508	4.0
58.523	4.0
58.538	8.0
58.553	10.0
58.568	7.0
58.583	6.0
58.598	6.0
58.613	10.0
58.628	5.0
58.643	11.0
58.658	7.0
58.673	8.0
58.688	9.0
58.703	4.0
58.718	6.0
58.733	8.0
58.748	8.0
58.763	5.0
58.778	4.0
58.793	7.0
58.808	2.0
58.823	8.0
58.838	7.0
58.853	3.0
58.868	4.0
58.883	6.0
58.898	8.0
58.913	6.0
58.928	4.0
58.942	5.0
58.957	4.0
58.972	7.0
58.987	9.0
59.002	6.0
59.017	4.0
59.032	8.0
59.047	8.0
59.062	10.0
59.077	12.0
59.092	6.0
59.107	9.0
59.122	4.0
59.137	2.0
59.152	3.0
59.167	7.0
59.182	7.0
59.197	3.0
59.212	2.0
59.227	8.0
59.242	5.0
59.257	6.0
59.272	7.0
59.287	3.0
59.302	4.0
59.317	5.0
59.332	3.0
59.347	3.0
59.362	7.0
59.377	9.0
59.392	3.0
59.407	3.0
59.422	3.0
59.437	2.0
59.452	6.0
59.467	6.0
59.482	5.0
59.497	4.0
59.512	7.0
59.527	4.0
59.542	4.0
59.557	7.0
59.572	11.0
59.587	8.0
59.602	5.0
59.617	8.0
59.632	5.0
59.647	10.0
59.661	10.0
59.676	3.0
59.691	9.0
59.706	6.0
59.721	3.0
59.736	5.0
59.751	7.0
59.766	7.0
59.781	3.0
59.796	2.0
59.811	5.0
59.826	5.0
59.841	3.0
59.856	3.0
59.871	3.0
59.886	6.0
59.901	4.0
59.916	3.0
59.931	4.0
59.946	2.0
59.961	8.0
59.976	6.0
59.991	9.0
60.006	6.0
60.021	8.0
60.036	7.0
60.051	5.0
60.066	4.0
60.081	5.0
60.096	6.0
60.111	3.0
60.126	5.0
60.141	1.0
60.156	5.0
60.171	6.0
60.186	5.0
60.201	2.0
60.216	2.0
60.231	4.0
60.246	3.0
60.261	8.0
60.276	4.0
60.291	4.0
60.306	6.0
60.321	4.0
60.336	5.0
60.35	5.0
60.365	3.0
60.38	1.0
60.395	7.0
60.41	3.0
60.425	4.0
60.44	6.0
60.455	4.0
60.47	7.0
60.485	7.0
60.5	4.0
60.515	6.0
60.53	7.0
60.545	5.0
60.56	3.0
60.575	5.0
60.59	14.0
60.605	11.0
60.62	5.0
60.635	4.0
60.65	7.0
60.665	6.0
60.68	3.0
60.695	4.0
60.71	6.0
60.725	4.0
60.74	2.0
60.755	2.0
60.77	8.0
60.785	7.0
60.8	8.0
60.815	4.0
60.83	5.0
60.845	4.0
60.86	6.0
60.875	7.0
60.89	6.0
60.905	8.0
60.92	4.0
60.935	4.0
60.95	7.0
60.965	7.0
60.98	4.0
60.995	7.0
61.01	3.0
61.025	9.0
61.04	4.0
61.055	9.0
61.07	6.0
61.085	4.0
61.1	5.0
61.115	12.0
61.13	6.0
61.145	4.0
61.16	6.0
61.175	3.0
61.191	1.0
61.206	5.0
61.221	2.0
61.236	5.0
61.251	7.0
61.266	6.0
61.281	3.0
61.296	5.0
61.311	8.0
61.326	2.0
61.341	8.0
61.356	2.0
61.371	3.0
61.386	7.0
61.401	10.0
61.416	3.0
61.431	7.0
61.446	2.0
61.461	4.0
61.476	5.0
61.491	5.0
61.506	5.0
61.521	5.0
61.536	4.0
61.551	4.0
61.566	7.0
61.581	5.0
61.596	9.0
61.611	5.0
61.626	5.0
61.641	2.0
61.656	5.0
61.672	2.0
61.687	3.0
61.702	3.0
61.717	1.0
61.732	1.0
61.747	2.0
61.762	4.0
61.777	5.0
61.792	6.0
61.807	7.0
61.822	3.0
61.837	4.0
61.852	5.0
61.867	2.0
61.882	5.0
61.897	5.0
61.912	3.0
61.927	4.0
61.943	5.0
61.958	6.0
61.973	4.0
61.988	7.0
62.003	7.0
62.018	2.0
62.033	6.0
62.048	5.0
62.063	2.0
62.078	7.0
62.093	1.0
62.108	3.0
62.123	5.0
62.138	3.0
62.153	3.0
62.169	6.0
62.184	2.0
62.199	3.0
62.214	8.0
62.229	2.0
62.244	1.0
62.259	2.0
62.274	7.0
62.289	3.0
62.304	4.0
62.319	4.0
62.335	3.0
62.35	3.0
62.365	5.0
62.38	2.0
62.395	2.0
62.41	6.0
62.425	6.0
62.44	4.0
62.455	9.0
62.47	6.0
62.485	7.0
62.501	5.0
62.516	5.0
62.531	5.0
62.546	7.0
62.561	4.0
62.576	8.0
62.591	7.0
62.606	8.0
62.621	3.0
62.636	2.0
62.652	5.0
62.667	0.0
62.682	4.0
62.697	5.0
62.712	0.0
62.727	4.0
62.742	7.0
62.757	3.0
62.772	4.0
62.787	4.0
62.803	1.0
62.818	5.0
62.833	2.0
62.848	9.0
62.863	10.0
62.878	1.0
62.893	2.0
62.908	4.0
62.923	6.0
62.939	1.0
62.954	3.0
62.969	4.0
62.984	2.0
62.999	7.0
63.014	5.0
63.029	4.0
63.044	8.0
63.059	1.0
63.074	6.0
63.09	6.0
63.105	6.0
63.12	6.0
63.135	2.0
63.15	5.0
63.165	3.0
63.18	4.0
63.195	2.0
63.21	5.0
63.226	2.0
63.241	1.0
63.256	3.0
63.271	7.0
63.286	4.0
63.301	6.0
63.316	4.0
63.331	6.0
63.346	5.0
63.362	7.0
63.377	7.0
63.392	5.0
63.407	7.0
63.422	10.0
63.437	8.0
63.452	9.0
63.467	6.0
63.482	7.0
63.497	5.0
63.513	4.0
63.528	5.0
63.543	5.0
63.558	6.0
63.573	1.0
63.588	2.0
63.603	3.0
63.618	1.0
63.633	3.0
63.648	4.0
63.664	11.0
63.679	8.0
63.694	6.0
63.709	9.0
63.724	4.0
63.739	5.0
63.754	1.0
63.769	3.0
63.784	6.0
63.799	7.0
63.814	5.0
63.83	5.0
63.845	8.0
63.86	5.0
63.875	5.0
63.89	4.0
63.905	1.0
63.92	6.0
63.935	3.0
63.95	4.0
63.965	10.0
63.98	5.0
63.996	5.0
64.011	5.0
64.026	7.0
64.041	4.0
64.056	3.0
64.071	0.0
64.086	2.0
64.101	3.0
64.116	2.0
64.131	3.0
64.146	1.0
64.161	4.0
64.176	4.0
64.191	2.0
64.207	7.0
64.222	1.0
64.237	2.0
64.252	3.0
64.267	2.0
64.282	1.0
64.297	5.0
64.312	7.0
64.327	5.0
64.342	2.0
64.357	4.0
64.372	2.0
64.387	4.0
64.402	1.0
64.417	4.0
64.433	7.0
64.448	2.0
64.463	1.0
64.478	3.0
64.493	5.0
64.508	2.0
64.523	1.0
64.538	3.0
64.553	5.0
64.568	4.0
64.583	5.0
64.598	3.0
64.613	5.0
64.628	2.0
64.643	4.0
64.658	7.0
64.673	2.0
64.688	5.0
64.703	4.0
64.718	5.0
64.734	5.0
64.749	5.0
64.764	3.0
64.779	3.0
64.794	2.0
64.809	3.0
64.824	2.0
64.839	2.0
64.854	4.0
64.869	7.0
64.884	2.0
64.899	2.0
64.914	4.0
64.929	1.0
64.944	5.0
64.959	6.0
64.974	0.0
64.989	4.0
65.004	4.0
65.019	4.0
65.034	1.0
65.049	6.0
65.064	4.0
65.079	4.0
65.094	0.0
65.109	4.0
65.125	7.0
65.14	3.0
65.155	0.0
65.17	3.0
65.185	2.0
65.2	3.0
65.215	0.0
65.23	5.0
65.245	6.0
65.26	4.0
65.275	9.0
65.29	7.0
65.305	8.0
65.32	4.0
65.335	3.0
65.35	3.0
65.365	5.0
65.38	8.0
65.395	1.0
65.41	2.0
65.425	6.0
65.44	6.0
65.455	1.0
65.47	4.0
65.485	0.0
65.5	2.0
65.515	6.0
65.53	9.0
65.545	1.0
65.56	7.0
65.575	2.0
65.59	6.0
65.605	4.0
65.62	7.0
65.635	3.0
65.65	5.0
65.666	6.0
65.681	3.0
65.696	3.0
65.711	4.0
65.726	5.0
65.741	2.0
65.756	4.0
65.771	5.0
65.786	4.0
65.801	1.0
65.816	4.0
65.831	4.0
65.846	0.0
65.861	4.0
65.876	4.0
65.891	2.0
65.906	4.0
65.921	7.0
65.936	4.0
65.951	2.0
65.966	5.0
65.981	4.0
65.996	0.0
66.011	5.0
66.026	7.0
66.041	2.0
66.056	1.0
66.071	4.0
66.086	0.0
66.101	9.0
66.116	4.0
66.131	6.0
66.146	8.0
66.161	11.0
66.176	4.0
66.191	8.0
66.206	10.0
66.221	7.0
66.236	5.0
66.251	8.0
66.266	4.0
66.281	6.0
66.296	6.0
66.311	4.0
66.327	4.0
66.342	6.0
66.357	5.0
66.372	6.0
66.387	3.0
66.402	3.0
66.417	3.0
66.432	4.0
66.447	0.0
66.462	1.0
66.477	5.0
66.492	6.0
66.507	8.0
66.522	5.0
66.537	11.0
66.552	4.0
66.567	6.0
66.582	5.0
66.597	5.0
66.612	9.0
66.627	6.0
66.642	5.0
66.657	12.0
66.672	4.0
66.687	9.0
66.702	6.0
66.717	7.0
66.732	3.0
66.747	8.0
66.762	5.0
66.777	2.0
66.792	5.0
66.807	6.0
66.822	7.0
66.837	5.0
66.853	5.0
66.868	2.0
66.883	5.0
66.898	3.0
66.913	3.0
66.928	3.0
66.943	3.0
66.958	5.0
66.973	3.0
66.988	1.0
67.003	5.0
67.018	4.0
67.033	4.0
67.048	1.0
67.063	5.0
67.078	5.0
67.093	6.0
67.108	9.0
67.123	8.0
67.138	10.0
67.153	4.0
67.168	4.0
67.183	0.0
67.198	3.0
67.214	1.0
67.229	2.0
67.244	6.0
67.259	5.0
67.274	2.0
67.289	5.0
67.304	3.0
67.319	3.0
67.334	3.0
67.349	1.0
67.364	6.0
67.379	3.0
67.394	6.0
67.409	0.0
67.424	4.0
67.439	2.0
67.454	2.0
67.469	8.0
67.484	6.0
67.5	8.0
67.515	2.0
67.53	6.0
67.545	6.0
67.56	4.0
67.575	2.0
67.59	4.0
67.605	4.0
67.62	6.0
67.635	2.0
67.65	5.0
67.665	4.0
67.68	5.0
67.695	6.0
67.71	0.0
67.726	4.0
67.741	4.0
67.756	3.0
67.771	1.0
67.786	4.0
67.801	4.0
67.816	3.0
67.831	6.0
67.846	5.0
67.861	5.0
67.876	6.0
67.891	2.0
67.906	3.0
67.922	1.0
67.937	2.0
67.952	4.0
67.967	5.0
67.982	3.0
67.997	3.0
68.012	7.0
68.027	2.0
68.042	1.0
68.057	8.0
68.072	6.0
68.087	3.0
68.103	2.0
68.118	4.0
68.133	3.0
68.148	8.0
68.163	1.0
68.178	2.0
68.193	4.0
68.208	5.0
68.223	1.0
68.238	1.0
68.254	2.0
68.269	3.0
68.284	1.0
68.299	0.0
68.314	4.0
68.329	4.0
68.344	5.0
68.359	2.0
68.374	1.0
68.389	7.0
68.405	8.0
68.42	2.0
68.435	9.0
68.45	2.0
68.465	4.0
68.48	2.0
68.495	5.0
68.51	7.0
68.525	5.0
68.54	2.0
68.556	6.0
68.571	1.0
68.586	1.0
68.601	1.0
68.616	3.0
68.631	1.0
68.646	3.0
68.661	2.0
68.676	3.0
68.691	2.0
68.707	2.0
68.722	4.0
68.737	3.0
68.752	3.0
68.767	3.0
68.782	5.0
68.797	4.0
68.812	2.0
68.827	7.0
68.842	6.0
68.857	3.0
68.873	5.0
68.888	4.0
68.903	4.0
68.918	7.0
68.933	5.0
68.948	5.0
68.963	3.0
68.978	8.0
68.993	3.0
69.008	4.0
69.023	3.0
69.038	1.0
69.054	2.0
69.069	2.0
69.084	5.0
69.099	5.0
69.114	2.0
69.129	1.0
69.144	1.0
69.159	3.0
69.174	4.0
69.189	2.0
69.204	2.0
69.219	2.0
69.234	4.0
69.249	3.0
69.264	0.0
69.279	1.0
69.295	1.0
69.31	2.0
69.325	3.0
69.34	1.0
69.355	9.0
69.37	3.0
69.385	2.0
69.4	6.0
69.415	4.0
69.43	4.0
69.445	5.0
69.46	4.0
69.475	4.0
69.49	2.0
69.505	1.0
69.52	2.0
69.535	4.0
69.55	4.0
69.565	6.0
69.58	6.0
69.595	5.0
69.61	6.0
69.625	5.0
69.64	5.0
69.655	5.0
69.67	1.0
69.685	8.0
69.7	6.0
69.715	6.0
69.73	7.0
69.745	4.0
69.76	8.0
69.775	7.0
69.79	7.0
69.805	8.0
69.82	5.0
69.835	5.0
69.85	5.0
69.865	5.0
69.88	3.0
69.895	2.0
69.909	5.0
69.924	8.0
69.939	6.0
69.954	5.0
69.969	5.0
69.984	1.0
69.999	1.0
70.014	1.0
70.029	4.0
70.044	4.0
70.059	4.0
70.074	3.0
70.088	1.0
70.103	3.0
70.118	4.0
70.133	1.0
70.148	4.0
70.163	8.0
70.178	3.0
70.193	4.0
70.208	3.0
70.222	4.0
70.237	7.0
70.252	5.0
70.267	3.0
70.282	8.0
70.297	8.0
70.312	4.0
70.327	3.0
70.341	6.0
70.356	3.0
70.371	2.0
70.386	6.0
70.401	2.0
70.416	5.0
70.43	3.0
70.445	4.0
70.46	3.0
70.475	5.0
70.49	1.0
70.505	6.0
70.519	2.0
70.534	5.0
70.549	1.0
70.564	5.0
70.579	4.0
70.594	6.0
70.608	5.0
70.623	3.0
70.638	3.0
70.653	5.0
70.668	7.0
70.683	6.0
70.697	3.0
70.712	5.0
70.727	7.0
70.742	7.0
70.757	5.0
70.771	6.0
70.786	3.0
70.801	3.0
70.816	2.0
70.831	4.0
70.845	4.0
70.86	1.0
70.875	0.0
70.89	1.0
70.905	1.0
70.92	8.0
70.934	4.0
70.949	3.0
70.964	3.0
70.979	1.0
70.994	3.0
71.008	2.0
71.023	1.0
71.038	8.0
71.053	4.0
71.068	6.0
71.082	4.0
71.097	5.0
71.112	4.0
71.127	3.0
71.142	3.0
71.156	4.0
71.171	7.0
71.186	3.0
71.201	9.0
71.216	7.0
71.231	7.0
71.245	5.0
71.26	2.0
71.275	1.0
71.29	5.0
71.305	3.0
71.319	9.0
71.334	5.0
71.349	2.0
71.364	2.0
71.379	6.0
71.394	3.0
71.408	6.0
71.423	5.0
71.438	4.0
71.453	5.0
71.468	3.0
71.483	2.0
71.497	0.0
71.512	3.0
71.527	4.0
71.542	5.0
71.557	2.0
71.572	4.0
71.586	2.0
71.601	1.0
71.616	6.0
71.631	3.0
71.646	8.0
71.661	6.0
71.676	6.0
71.69	3.0
71.705	4.0
71.72	3.0
71.735	3.0
71.75	2.0
71.765	3.0
71.78	1.0
71.795	5.0
71.81	2.0
71.824	3.0
71.839	1.0
71.854	3.0
71.869	9.0
71.884	3.0
71.899	1.0
71.914	4.0
71.929	6.0
71.944	4.0
71.959	4.0
71.974	1.0
71.988	3.0
72.003	3.0
72.018	2.0
72.033	2.0
72.048	4.0
72.063	2.0
72.078	7.0
72.093	2.0
72.108	3.0
72.123	6.0
72.138	3.0
72.153	5.0
72.168	4.0
72.183	0.0
72.198	2.0
72.213	3.0
72.228	3.0
72.243	4.0
72.258	2.0
72.273	2.0
72.288	1.0
72.303	3.0
72.318	4.0
72.333	3.0
72.348	1.0
72.363	3.0
72.378	2.0
72.393	2.0
72.408	1.0
72.423	2.0
72.438	1.0
72.453	2.0
72.468	1.0
72.483	6.0
72.498	1.0
72.513	2.0
72.528	0.0
72.543	2.0
72.558	3.0
72.573	4.0
72.588	0.0
72.603	5.0
72.618	3.0
72.633	2.0
72.649	1.0
72.664	4.0
72.679	2.0
72.694	5.0
72.709	5.0
72.724	4.0
72.739	2.0
72.754	5.0
72.769	4.0
72.784	2.0
72.799	3.0
72.814	5.0
72.829	4.0
72.845	4.0
72.86	5.0
72.875	3.0
72.89	4.0
72.905	6.0
72.92	3.0
72.935	2.0
72.95	3.0
72.965	2.0
72.98	3.0
72.996	3.0
73.011	3.0
73.026	2.0
73.041	2.0
73.056	2.0
73.071	5.0
73.086	4.0
73.101	5.0
73.117	3.0
73.132	3.0
73.147	3.0
73.162	7.0
73.177	1.0
73.192	6.0
73.207	5.0
73.222	4.0
73.238	5.0
73.253	2.0
73.268	2.0
73.283	4.0
73.298	4.0
73.313	1.0
73.328	3.0
73.343	5.0
73.359	2.0
73.374	4.0
73.389	2.0
73.404	4.0
73.419	2.0
73.434	6.0
73.449	3.0
73.465	4.0
73.48	1.0
73.495	2.0
73.51	3.0
73.525	2.0
73.54	2.0
73.556	5.0
73.571	4.0
73.586	5.0
73.601	2.0
73.616	4.0
73.631	4.0
73.646	1.0
73.662	1.0
73.677	5.0
73.692	5.0
73.707	4.0
73.722	2.0
73.737	4.0
73.752	1.0
73.768	8.0
73.783	4.0
73.798	4.0
73.813	4.0
73.828	5.0
73.843	2.0
73.859	2.0
73.874	2.0
73.889	6.0
73.904	4.0
73.919	3.0
73.934	8.0
73.949	4.0
73.965	3.0
73.98	2.0
73.995	4.0
74.01	2.0
74.025	5.0
74.04	5.0
74.056	4.0
74.071	3.0
74.086	8.0
74.101	7.0
74.116	6.0
74.131	3.0
74.146	4.0
74.162	10.0
74.177	10.0
74.192	5.0
74.207	3.0
74.222	3.0
74.237	4.0
74.252	2.0
74.268	3.0
74.283	0.0
74.298	9.0
74.313	4.0
74.328	6.0
74.343	4.0
74.358	4.0
74.374	4.0
74.389	2.0
74.404	1.0
74.419	5.0
74.434	3.0
74.449	0.0
74.464	1.0
74.48	5.0
74.495	5.0
74.51	1.0
74.525	5.0
74.54	3.0
74.555	3.0
74.57	2.0
74.586	6.0
74.601	6.0
74.616	2.0
74.631	7.0
74.646	4.0
74.661	2.0
74.676	4.0
74.691	6.0
74.707	3.0
74.722	4.0
74.737	6.0
74.752	4.0
74.767	6.0
74.782	6.0
74.797	4.0
74.813	2.0
74.828	7.0
74.843	2.0
74.858	7.0
74.873	6.0
74.888	4.0
74.903	5.0
74.918	3.0
74.934	3.0
74.949	7.0
74.964	8.0
74.979	7.0
74.994	3.0
75.009	2.0
75.024	3.0
75.04	9.0
75.055	3.0
75.07	3.0
75.085	2.0
75.1	4.0
75.115	5.0
75.13	6.0
75.145	5.0
75.161	3.0
75.176	1.0
75.191	4.0
75.206	6.0
75.221	4.0
75.236	2.0
75.251	1.0
75.266	3.0
75.282	3.0
75.297	2.0
75.312	6.0
75.327	2.0
75.342	3.0
75.357	4.0
75.372	3.0
75.387	5.0
75.403	1.0
75.418	2.0
75.433	3.0
75.448	3.0
75.463	1.0
75.478	1.0
75.493	4.0
75.509	4.0
75.524	5.0
75.539	2.0
75.554	2.0
75.569	7.0
75.584	6.0
75.599	3.0
75.614	4.0
75.63	4.0
75.645	5.0
75.66	3.0
75.675	1.0
75.69	2.0
75.705	4.0
75.72	5.0
75.735	6.0
75.751	1.0
75.766	5.0
75.781	0.0
75.796	3.0
75.811	5.0
75.826	4.0
75.841	6.0
75.856	9.0
75.872	4.0
75.887	1.0
75.902	2.0
75.917	8.0
75.932	6.0
75.947	3.0
75.962	3.0
75.977	6.0
75.993	3.0
76.008	0.0
76.023	4.0
76.038	3.0
76.053	3.0
76.068	4.0
76.083	5.0
76.098	12.0
76.114	1.0
76.129	1.0
76.144	4.0
76.159	1.0
76.174	6.0
76.189	4.0
76.204	2.0
76.22	4.0
76.235	3.0
76.25	3.0
76.265	6.0
76.28	2.0
76.295	6.0
76.31	3.0
76.325	4.0
76.341	3.0
76.356	0.0
76.371	2.0
76.386	3.0
76.401	2.0
76.416	2.0
76.431	5.0
76.446	4.0
76.462	4.0
76.477	4.0
76.492	3.0
76.507	2.0
76.522	1.0
76.537	2.0
76.552	8.0
76.567	1.0
76.583	4.0
76.598	1.0
76.613	1.0
76.628	2.0
76.643	3.0
76.658	2.0
76.673	1.0
76.688	1.0
76.704	4.0
76.719	7.0
76.734	6.0
76.749	5.0
76.764	4.0
76.779	5.0
76.794	4.0
76.809	0.0
76.824	4.0
76.84	4.0
76.855	3.0
76.87	1.0
76.885	2.0
76.9	4.0
76.915	1.0
76.93	2.0
76.945	2.0
76.96	2.0
76.976	3.0
76.991	6.0
77.006	3.0
77.021	4.0
77.036	3.0
77.051	1.0
77.066	1.0
77.081	5.0
77.096	2.0
77.112	1.0
77.127	4.0
77.142	4.0
77.157	4.0
77.172	5.0
77.187	0.0
77.202	5.0
77.217	5.0
77.232	0.0
77.247	5.0
77.263	5.0
77.278	5.0
77.293	3.0
77.308	4.0
77.323	5.0
77.338	2.0
77.353	3.0
77.368	3.0
77.383	2.0
77.398	4.0
77.413	6.0
77.428	3.0
77.444	2.0
77.459	4.0
77.474	2.0
77.489	3.0
77.504	1.0
77.519	8.0
77.534	6.0
77.549	5.0
77.564	3.0
77.579	4.0
77.594	2.0
77.609	3.0
77.624	3.0
77.64	6.0
77.655	6.0
77.67	2.0
77.685	5.0
77.7	6.0
77.715	3.0
77.73	0.0
77.745	8.0
77.76	5.0
77.775	7.0
77.79	4.0
77.805	2.0
77.82	4.0
77.835	3.0
77.85	2.0
77.865	2.0
77.88	1.0
77.895	2.0
77.91	3.0
77.926	1.0
77.941	1.0
77.956	2.0
77.971	0.0
77.986	3.0
78.001	2.0
78.016	2.0
78.031	1.0
78.046	1.0
78.061	13.0
78.076	4.0
78.091	4.0
78.106	2.0
78.121	4.0
78.136	1.0
78.151	3.0
78.166	8.0
78.181	2.0
78.196	3.0
78.211	2.0
78.226	4.0
78.241	6.0
78.256	0.0
78.271	0.0
78.286	2.0
78.301	2.0
78.316	3.0
78.331	2.0
78.346	3.0
78.361	1.0
78.376	2.0
78.391	0.0
78.406	3.0
78.421	1.0
78.436	4.0
78.451	3.0
78.466	2.0
78.481	2.0
78.496	5.0
78.511	4.0
78.526	3.0
78.541	3.0
78.556	2.0
78.571	1.0
78.586	4.0
78.601	3.0
78.616	3.0
78.631	1.0
78.646	1.0
78.661	1.0
78.676	3.0
78.691	1.0
78.706	2.0
78.721	1.0
78.736	2.0
78.751	1.0
78.766	0.0
78.781	2.0
78.796	3.0
78.811	1.0
78.826	7.0
78.841	4.0
78.856	4.0
78.871	5.0
78.885	3.0
78.9	5.0
78.915	6.0
78.93	2.0
78.945	7.0
78.96	6.0
78.975	3.0
78.99	2.0
79.005	3.0
79.02	7.0
79.035	2.0
79.05	2.0
79.065	2.0
79.08	2.0
79.095	1.0
79.11	1.0
79.125	9.0
79.14	6.0
79.155	2.0
79.17	0.0
79.185	1.0
79.2	3.0
79.215	2.0
79.23	3.0
79.245	4.0
79.26	4.0
79.275	2.0
79.29	5.0
79.304	3.0
79.319	2.0
79.334	0.0
79.349	5.0
79.364	3.0
79.379	1.0
79.394	4.0
79.409	6.0
79.424	5.0
79.439	4.0
79.454	2.0
79.469	3.0
79.484	5.0
79.499	1.0
79.514	3.0
79.529	2.0
79.544	2.0
79.559	5.0
79.574	8.0
79.589	1.0
79.604	5.0
79.619	1.0
79.634	1.0
79.649	2.0
79.664	4.0
79.679	6.0
79.693	2.0
79.708	2.0
79.723	4.0
79.738	3.0
79.753	0.0
79.768	4.0
79.783	2.0
79.798	1.0
79.813	4.0
79.828	4.0
79.843	9.0
79.858	4.0
79.873	0.0
79.888	5.0
79.903	5.0
79.918	5.0
79.933	1.0
79.948	2.0
79.963	4.0
79.978	2.0
79.993	2.0
80.008	4.0
80.023	3.0
80.038	1.0
80.053	3.0
80.068	2.0
80.083	1.0
80.098	4.0
80.113	5.0
80.128	1.0
80.143	7.0
80.158	7.0
80.173	4.0
80.188	5.0
80.202	5.0
80.217	4.0
80.232	9.0
80.247	2.0
80.262	3.0
80.277	1.0
80.292	2.0
80.307	6.0
80.322	2.0
80.337	3.0
80.352	0.0
80.367	7.0
80.382	3.0
80.397	2.0
80.412	2.0
80.427	2.0
80.442	3.0
80.457	5.0
80.472	1.0
80.487	2.0
80.502	3.0
80.517	6.0
80.532	4.0
80.547	4.0
80.562	3.0
80.577	1.0
80.592	3.0
80.607	1.0
80.622	4.0
80.637	5.0
80.652	1.0
80.667	1.0
80.682	3.0
80.697	4.0
80.712	4.0
80.727	2.0
80.742	6.0
80.757	0.0
80.772	3.0
80.787	7.0
80.802	6.0
80.817	3.0
80.832	3.0
80.847	6.0
80.862	1.0
80.877	2.0
80.892	2.0
80.907	4.0
80.922	3.0
80.937	0.0
80.952	2.0
80.967	9.0
80.982	2.0
80.997	7.0
81.012	2.0
81.027	5.0
81.042	7.0
81.057	5.0
81.072	4.0
81.087	5.0
81.101	6.0
81.116	3.0
81.131	3.0
81.146	1.0
81.161	4.0
81.176	3.0
81.191	2.0
81.206	3.0
81.221	2.0
81.236	3.0
81.251	1.0
81.266	2.0
81.281	5.0
81.296	2.0
81.311	4.0
81.326	3.0
81.341	2.0
81.356	6.0
81.371	1.0
81.386	3.0
81.401	3.0
81.416	2.0
81.431	3.0
81.446	2.0
81.461	3.0
81.476	2.0
81.491	4.0
81.506	4.0
81.521	1.0
81.536	2.0
81.55	2.0
81.565	4.0
81.58	4.0
81.595	1.0
81.61	2.0
81.625	6.0
81.64	1.0
81.655	5.0
81.67	1.0
81.685	9.0
81.7	3.0
81.715	5.0
81.73	2.0
81.745	11.0
81.76	3.0
81.775	4.0
81.79	3.0
81.805	3.0
81.819	2.0
81.834	3.0
81.849	7.0
81.864	4.0
81.879	2.0
81.894	6.0
81.909	6.0
81.924	4.0
81.939	2.0
81.954	4.0
81.969	4.0
81.984	8.0
81.999	0.0
82.013	2.0
82.028	4.0
82.043	2.0
82.058	0.0
82.073	4.0
82.088	4.0
82.103	5.0
82.118	2.0
82.133	4.0
82.148	1.0
82.163	6.0
82.177	2.0
82.192	3.0
82.207	3.0
82.222	3.0
82.237	5.0
82.252	1.0
82.267	3.0
82.282	5.0
82.297	2.0
82.312	3.0
82.326	7.0
82.341	4.0
82.356	4.0
82.371	2.0
82.386	3.0
82.401	3.0
82.416	6.0
82.431	3.0
82.445	4.0
82.46	8.0
82.475	2.0
82.49	2.0
82.505	2.0
82.52	5.0
82.535	5.0
82.55	5.0
82.565	4.0
82.579	4.0
82.594	6.0
82.609	5.0
82.624	3.0
82.639	2.0
82.654	2.0
82.669	3.0
82.684	5.0
82.698	1.0
82.713	1.0
82.728	4.0
82.743	1.0
82.758	4.0
82.773	1.0
82.788	2.0
82.803	1.0
82.817	3.0
82.832	2.0
82.847	1.0
82.862	3.0
82.877	3.0
82.892	3.0
82.907	1.0
82.922	7.0
82.937	2.0
82.951	4.0
82.966	1.0
82.981	5.0
82.996	2.0
83.011	1.0
83.026	1.0
83.041	2.0
83.056	2.0
83.07	2.0
83.085	1.0
83.1	2.0
83.115	0.0
83.13	3.0
83.145	7.0
83.16	3.0
83.175	3.0
83.19	2.0
83.204	4.0
83.219	4.0
83.234	1.0
83.249	2.0
83.264	2.0
83.279	3.0
83.294	5.0
83.309	1.0
83.324	3.0
83.339	2.0
83.353	4.0
83.368	1.0
83.383	3.0
83.398	2.0
83.413	0.0
83.428	3.0
83.443	4.0
83.458	3.0
83.473	2.0
83.488	3.0
83.503	3.0
83.517	1.0
83.532	4.0
83.547	3.0
83.562	2.0
83.577	4.0
83.592	2.0
83.607	2.0
83.622	0.0
83.637	2.0
83.652	1.0
83.667	4.0
83.682	1.0
83.697	3.0
83.712	1.0
83.727	3.0
83.741	3.0
83.756	5.0
83.771	2.0
83.786	4.0
83.801	2.0
83.816	6.0
83.831	2.0
83.846	2.0
83.861	2.0
83.876	3.0
83.891	1.0
83.906	2.0
83.921	1.0
83.936	2.0
83.951	1.0
83.966	7.0
83.981	1.0
83.996	0.0
84.011	4.0
84.026	4.0
84.041	4.0
84.056	1.0
84.071	4.0
84.086	3.0
84.101	1.0
84.116	1.0
84.131	3.0
84.146	7.0
84.161	6.0
84.176	6.0
84.191	4.0
84.206	4.0
84.221	5.0
84.236	5.0
84.251	5.0
84.266	6.0
84.281	0.0
84.296	5.0
84.311	7.0
84.326	5.0
84.341	4.0
84.356	3.0
84.371	1.0
84.386	4.0
84.401	5.0
84.416	1.0
84.431	6.0
84.446	5.0
84.461	2.0
84.476	6.0
84.492	5.0
84.507	3.0
84.522	4.0
84.537	5.0
84.552	4.0
84.567	1.0
84.582	4.0
84.597	5.0
84.612	3.0
84.627	2.0
84.642	0.0
84.657	3.0
84.672	3.0
84.687	3.0
84.702	3.0
84.717	3.0
84.733	3.0
84.748	5.0
84.763	6.0
84.778	2.0
84.793	2.0
84.808	4.0
84.823	3.0
84.838	4.0
84.853	3.0
84.868	2.0
84.883	5.0
84.898	1.0
84.913	1.0
84.929	5.0
84.944	3.0
84.959	6.0
84.974	5.0
84.989	3.0
85.004	2.0
85.019	5.0
85.034	4.0
85.049	5.0
85.064	1.0
85.079	2.0
85.094	4.0
85.11	1.0
85.125	1.0
85.14	3.0
85.155	1.0
85.17	2.0
85.185	1.0
85.2	2.0
85.215	4.0
85.23	5.0
85.245	3.0
85.26	1.0
85.276	4.0
85.291	4.0
85.306	6.0
85.321	3.0
85.336	3.0
85.351	3.0
85.366	4.0
85.381	4.0
85.396	2.0
85.411	1.0
85.426	5.0
85.441	4.0
85.457	3.0
85.472	6.0
85.487	2.0
85.502	4.0
85.517	5.0
85.532	5.0
85.547	0.0
85.562	2.0
85.577	4.0
85.592	5.0
85.607	3.0
85.622	3.0
85.637	4.0
85.653	1.0
85.668	1.0
85.683	6.0
85.698	3.0
85.713	1.0
85.728	6.0
85.743	2.0
85.758	5.0
85.773	4.0
85.788	1.0
85.803	3.0
85.818	4.0
85.833	4.0
85.848	5.0
85.863	2.0
85.879	2.0
85.894	2.0
85.909	2.0
85.924	0.0
85.939	3.0
85.954	5.0
85.969	1.0
85.984	5.0
85.999	1.0
86.014	4.0
86.029	1.0
86.044	5.0
86.059	2.0
86.074	2.0
86.089	2.0
86.104	4.0
86.119	2.0
86.134	5.0
86.149	5.0
86.164	6.0
86.179	4.0
86.194	4.0
86.209	3.0
86.224	3.0
86.239	3.0
86.254	3.0
86.269	3.0
86.284	3.0
86.299	4.0
86.314	3.0
86.33	8.0
86.345	5.0
86.36	4.0
86.375	2.0
86.39	5.0
86.405	4.0
86.42	3.0
86.435	3.0
86.45	2.0
86.465	3.0
86.48	1.0
86.495	1.0
86.51	2.0
86.525	3.0
86.54	1.0
86.555	0.0
86.57	3.0
86.585	5.0
86.6	3.0
86.615	0.0
86.63	1.0
86.645	6.0
86.659	4.0
86.674	2.0
86.689	2.0
86.704	4.0
86.719	4.0
86.734	6.0
86.749	1.0
86.764	2.0
86.779	3.0
86.794	4.0
86.809	3.0
86.824	3.0
86.839	3.0
86.854	4.0
86.869	5.0
86.884	7.0
86.899	2.0
86.914	3.0
86.929	4.0
86.944	3.0
86.959	3.0
86.974	4.0
86.989	2.0
87.004	2.0
87.019	1.0
87.034	3.0
87.049	6.0
87.064	5.0
87.079	1.0
87.094	1.0
87.109	3.0
87.124	4.0
87.139	2.0
87.154	3.0
87.169	2.0
87.184	2.0
87.199	4.0
87.214	2.0
87.229	4.0
87.244	8.0
87.259	5.0
87.274	2.0
87.289	0.0
87.304	3.0
87.319	3.0
87.334	2.0
87.349	5.0
87.364	2.0
87.379	2.0
87.394	4.0
87.409	3.0
87.424	6.0
87.438	2.0
87.453	4.0
87.468	5.0
87.483	6.0
87.498	4.0
87.513	5.0
87.528	5.0
87.543	1.0
87.558	4.0
87.573	3.0
87.588	5.0
87.603	2.0
87.618	1.0
87.633	8.0
87.648	10.0
87.663	7.0
87.678	5.0
87.693	5.0
87.708	0.0
87.723	4.0
87.738	5.0
87.753	4.0
87.768	3.0
87.783	5.0
87.798	4.0
87.813	1.0
87.828	5.0
87.843	4.0
87.858	6.0
87.873	3.0
87.888	4.0
87.903	4.0
87.918	1.0
87.933	5.0
87.948	2.0
87.963	1.0
87.978	4.0
87.993	2.0
88.008	1.0
88.023	2.0
88.038	3.0
88.053	6.0
88.068	4.0
88.083	3.0
88.098	3.0
88.113	2.0
88.128	2.0
88.143	2.0
88.158	5.0
88.174	4.0
88.189	1.0
88.204	3.0
88.219	3.0
88.234	4.0
88.249	3.0
88.264	4.0
88.279	4.0
88.294	6.0
88.309	6.0
88.324	4.0
88.339	4.0
88.354	1.0
88.369	6.0
88.384	1.0
88.399	4.0
88.414	2.0
88.429	2.0
88.444	4.0
88.459	6.0
88.474	3.0
88.489	1.0
88.504	4.0
88.519	0.0
88.534	3.0
88.549	5.0
88.564	5.0
88.58	2.0
88.595	4.0
88.61	2.0
88.625	3.0
88.64	2.0
88.655	2.0
88.67	1.0
88.685	3.0
88.7	1.0
88.715	4.0
88.73	5.0
88.745	4.0
88.76	3.0
88.775	3.0
88.79	1.0
88.805	5.0
88.82	1.0
88.835	3.0
88.85	5.0
88.865	3.0
88.88	1.0
88.895	3.0
88.911	0.0
88.926	1.0
88.941	5.0
88.956	4.0
88.971	4.0
88.986	5.0
89.001	6.0
89.016	2.0
89.031	1.0
89.046	6.0
89.061	1.0
89.076	4.0
89.091	2.0
89.106	1.0
89.121	4.0
89.136	4.0
89.151	1.0
89.166	3.0
89.181	5.0
89.196	2.0
89.211	2.0
89.227	1.0
89.242	3.0
89.257	2.0
89.272	3.0
89.287	6.0
89.302	4.0
89.317	4.0
89.332	2.0
89.347	3.0
89.362	1.0
89.377	4.0
89.392	4.0
89.407	2.0
89.422	5.0
89.437	1.0
89.452	0.0
89.467	2.0
89.482	5.0
89.497	0.0
89.512	3.0
89.527	0.0
89.542	4.0
89.557	2.0
89.572	2.0
89.587	6.0
89.602	2.0
89.617	4.0
89.632	4.0
89.647	3.0
89.662	4.0
89.677	8.0
89.693	3.0
89.708	1.0
89.723	3.0
89.738	2.0
89.753	2.0
89.768	5.0
89.783	4.0
89.798	0.0
89.813	2.0
89.828	2.0
89.843	4.0
89.858	1.0
89.873	4.0
89.888	4.0
89.903	2.0
89.918	3.0
89.933	0.0
89.948	5.0
89.963	0.0
89.978	2.0
89.993	1.0
90.008	3.0
90.023	4.0
90.038	3.0
90.053	5.0
90.068	3.0
90.083	2.0
90.097	4.0
90.112	5.0
90.127	3.0
90.142	4.0
90.157	8.0
90.172	5.0
90.187	3.0
90.202	9.0
90.217	9.0
90.232	6.0
90.247	2.0
90.262	5.0
90.277	1.0
90.292	5.0
90.307	6.0
90.322	5.0
90.337	1.0
90.352	3.0
90.367	2.0
90.382	6.0
90.397	5.0
90.412	4.0
90.427	6.0
90.442	5.0
90.457	1.0
90.472	3.0
90.487	6.0
90.501	1.0
90.516	2.0
90.531	2.0
90.546	3.0
90.561	3.0
90.576	1.0
90.591	4.0
90.606	3.0
90.621	0.0
90.636	1.0
90.651	2.0
90.666	1.0
90.681	4.0
90.696	3.0
90.711	1.0
90.726	2.0
90.741	4.0
90.755	3.0
90.77	5.0
90.785	6.0
90.8	8.0
90.815	4.0
90.83	2.0
90.845	4.0
90.86	5.0
90.875	3.0
90.89	2.0
90.905	1.0
90.92	3.0
90.935	2.0
90.95	4.0
90.965	4.0
90.979	1.0
90.994	2.0
91.009	3.0
91.024	4.0
91.039	4.0
91.054	2.0
91.069	4.0
91.084	1.0
91.099	2.0
91.114	2.0
91.129	6.0
91.144	7.0
91.159	2.0
91.174	4.0
91.188	4.0
91.203	5.0
91.218	5.0
91.233	3.0
91.248	2.0
91.263	1.0
91.278	5.0
91.293	2.0
91.308	3.0
91.323	1.0
91.338	2.0
91.353	3.0
91.368	5.0
91.383	5.0
91.398	2.0
91.412	3.0
91.427	7.0
91.442	4.0
91.457	3.0
91.472	3.0
91.487	2.0
91.502	3.0
91.517	4.0
91.532	4.0
91.547	2.0
91.562	2.0
91.577	7.0
91.592	5.0
91.607	5.0
91.622	3.0
91.637	2.0
91.652	1.0
91.666	3.0
91.681	3.0
91.696	4.0
91.711	2.0
91.726	3.0
91.741	3.0
91.756	4.0
91.771	2.0
91.786	4.0
91.801	2.0
91.816	3.0
91.831	3.0
91.846	3.0
91.861	5.0
91.876	3.0
91.891	2.0
91.906	0.0
91.921	2.0
91.936	5.0
91.951	4.0
91.966	1.0
91.981	2.0
91.995	3.0
92.01	0.0
92.025	1.0
92.04	4.0
92.055	1.0
92.07	4.0
92.085	6.0
92.1	1.0
92.115	1.0
92.13	4.0
92.145	1.0
92.16	2.0
92.175	3.0
92.19	1.0
92.205	3.0
92.22	3.0
92.235	4.0
92.25	5.0
92.265	3.0
92.28	4.0
92.295	3.0
92.31	2.0
92.325	1.0
92.34	0.0
92.355	6.0
92.37	4.0
92.385	2.0
92.4	3.0
92.415	3.0
92.43	2.0
92.445	4.0
92.46	3.0
92.475	2.0
92.49	3.0
92.505	2.0
92.52	2.0
92.535	0.0
92.55	3.0
92.565	2.0
92.58	2.0
92.595	2.0
92.61	3.0
92.625	4.0
92.64	1.0
92.655	3.0
92.67	3.0
92.685	4.0
92.7	1.0
92.715	4.0
92.73	3.0
92.745	3.0
92.76	5.0
92.775	5.0
92.79	1.0
92.805	0.0
92.82	0.0
92.835	3.0
92.85	3.0
92.865	1.0
92.88	3.0
92.895	2.0
92.91	3.0
92.925	1.0
92.94	2.0
92.955	2.0
92.97	4.0
92.985	0.0
93.0	3.0
93.015	4.0
93.03	4.0
93.045	2.0
93.06	2.0
93.075	2.0
93.09	3.0
93.105	3.0
93.12	4.0
93.135	5.0
93.15	2.0
93.165	6.0
93.18	1.0
93.195	4.0
93.21	3.0
93.225	2.0
93.24	4.0
93.255	3.0
93.27	5.0
93.285	1.0
93.3	5.0
93.315	3.0
93.33	2.0
93.345	3.0
93.36	1.0
93.375	2.0
93.39	3.0
93.405	3.0
93.42	2.0
93.435	4.0
93.45	7.0
93.465	5.0
93.48	2.0
93.495	3.0
93.51	2.0
93.525	0.0
93.54	2.0
93.555	1.0
93.57	1.0
93.585	6.0
93.6	3.0
93.615	6.0
93.63	2.0
93.645	1.0
93.66	7.0
93.675	5.0
93.69	3.0
93.705	3.0
93.72	1.0
93.735	7.0
93.75	4.0
93.765	2.0
93.78	5.0
93.795	4.0
93.81	5.0
93.824	3.0
93.839	7.0
93.854	2.0
93.869	3.0
93.884	4.0
93.899	4.0
93.914	3.0
93.929	3.0
93.944	4.0
93.959	4.0
93.974	2.0
93.989	3.0
94.004	3.0
94.019	3.0
94.034	3.0
94.049	1.0
94.064	4.0
94.079	3.0
94.094	3.0
94.108	0.0
94.123	1.0
94.138	5.0
94.153	1.0
94.168	6.0
94.183	4.0
94.198	2.0
94.213	5.0
94.228	6.0
94.243	3.0
94.258	4.0
94.273	3.0
94.288	3.0
94.302	6.0
94.317	4.0
94.332	5.0
94.347	7.0
94.362	3.0
94.377	7.0
94.392	2.0
94.407	4.0
94.422	3.0
94.437	7.0
94.452	4.0
94.466	5.0
94.481	8.0
94.496	2.0
94.511	4.0
94.526	0.0
94.541	1.0
94.556	9.0
94.571	4.0
94.586	5.0
94.601	5.0
94.615	3.0
94.63	3.0
94.645	5.0
94.66	0.0
94.675	3.0
94.69	3.0
94.705	4.0
94.72	5.0
94.735	1.0
94.749	2.0
94.764	4.0
94.779	3.0
94.794	4.0
94.809	4.0
94.824	4.0
94.839	7.0
94.854	4.0
94.868	1.0
94.883	4.0
94.898	1.0
94.913	3.0
94.928	2.0
94.943	4.0
94.958	2.0
94.973	2.0
94.987	2.0
95.002	1.0
95.017	5.0
95.032	5.0
95.047	2.0
95.062	4.0
95.077	1.0
95.092	6.0
95.106	4.0
95.121	5.0
95.136	2.0
95.151	3.0
95.166	4.0
95.181	5.0
95.196	2.0
95.211	7.0
95.226	6.0
95.24	2.0
95.255	3.0
95.27	8.0
95.285	5.0
95.3	6.0
95.315	2.0
95.33	5.0
95.345	5.0
95.359	6.0
95.374	2.0
95.389	2.0
95.404	2.0
95.419	1.0
95.434	4.0
95.449	4.0
95.464	4.0
95.478	1.0
95.493	6.0
95.508	4.0
95.523	3.0
95.538	6.0
95.553	1.0
95.568	1.0
95.583	5.0
95.597	3.0
95.612	0.0
95.627	3.0
95.642	3.0
95.657	5.0
95.672	4.0
95.687	4.0
95.702	2.0
95.717	7.0
95.731	2.0
95.746	2.0
95.761	4.0
95.776	5.0
95.791	2.0
95.806	5.0
95.821	4.0
95.836	4.0
95.851	4.0
95.866	4.0
95.88	2.0
95.895	4.0
95.91	2.0
95.925	6.0
95.94	1.0
95.955	4.0
95.97	1.0
95.985	2.0
96.0	4.0
96.015	3.0
96.029	3.0
96.044	1.0
96.059	3.0
96.074	3.0
96.089	6.0
96.104	3.0
96.119	4.0
96.134	2.0
96.149	5.0
96.164	6.0
96.179	5.0
96.194	3.0
96.208	3.0
96.223	3.0
96.238	4.0
96.253	4.0
96.268	4.0
96.283	3.0
96.298	4.0
96.313	6.0
96.328	1.0
96.343	2.0
96.358	3.0
96.373	2.0
96.388	4.0
96.403	3.0
96.417	4.0
96.432	3.0
96.447	4.0
96.462	5.0
96.477	1.0
96.492	2.0
96.507	3.0
96.522	2.0
96.537	2.0
96.552	6.0
96.567	0.0
96.582	2.0
96.597	2.0
96.612	2.0
96.627	3.0
96.642	2.0
96.656	2.0
96.671	2.0
96.686	4.0
96.701	2.0
96.716	3.0
96.731	1.0
96.746	3.0
96.761	3.0
96.776	4.0
96.791	2.0
96.806	1.0
96.821	3.0
96.836	3.0
96.851	3.0
96.866	2.0
96.881	8.0
96.896	4.0
96.911	3.0
96.926	2.0
96.94	4.0
96.955	2.0
96.97	3.0
96.985	2.0
97.0	3.0
97.015	4.0
97.03	2.0
97.045	4.0
97.06	3.0
97.075	3.0
97.09	1.0
97.105	2.0
97.12	4.0
97.135	3.0
97.15	3.0
97.165	2.0
97.18	3.0
97.195	1.0
97.21	0.0
97.225	3.0
97.239	3.0
97.254	2.0
97.269	1.0
97.284	0.0
97.299	3.0
97.314	5.0
97.329	2.0
97.344	3.0
97.359	4.0
97.374	4.0
97.389	9.0
97.404	4.0
97.419	5.0
97.434	7.0
97.449	3.0
97.464	2.0
97.479	2.0
97.494	3.0
97.509	6.0
97.524	2.0
97.538	2.0
97.553	2.0
97.568	6.0
97.583	2.0
97.598	2.0
97.613	1.0
97.628	7.0
97.643	4.0
97.658	4.0
97.673	4.0
97.688	1.0
97.703	1.0
97.718	2.0
97.733	5.0
97.748	6.0
97.763	8.0
97.778	5.0
97.792	4.0
97.807	2.0
97.822	4.0
97.837	5.0
97.852	7.0
97.867	4.0
97.882	3.0
97.897	1.0
97.912	4.0
97.927	7.0
97.942	2.0
97.957	4.0
97.972	2.0
97.987	3.0
98.001	4.0
98.016	3.0
98.031	5.0
98.046	3.0
98.061	1.0
98.076	2.0
98.091	3.0
98.106	4.0
98.121	2.0
98.136	2.0
98.151	5.0
98.166	5.0
98.181	4.0
98.195	2.0
98.21	4.0
98.225	4.0
98.24	1.0
98.255	1.0
98.27	1.0
98.285	1.0
98.3	0.0
98.315	2.0
98.33	4.0
98.345	3.0
98.359	2.0
98.374	4.0
98.389	3.0
98.404	3.0
98.419	2.0
98.434	0.0
98.449	4.0
98.464	3.0
98.479	3.0
98.494	3.0
98.508	1.0
98.523	1.0
98.538	3.0
98.553	2.0
98.568	4.0
98.583	6.0
98.598	5.0
98.613	6.0
98.628	2.0
98.642	6.0
98.657	1.0
98.672	2.0
98.687	0.0
98.702	4.0
98.717	2.0
98.732	3.0
98.747	4.0
98.762	4.0
98.776	2.0
98.791	3.0
98.806	4.0
98.821	8.0
98.836	5.0
98.851	2.0
98.866	6.0
98.881	2.0
98.896	2.0
98.91	5.0
98.925	2.0
98.94	3.0
98.955	4.0
98.97	6.0
98.985	1.0
99.0	3.0
99.015	6.0
99.029	1.0
99.044	2.0
99.059	1.0
99.074	5.0
99.089	3.0
99.104	2.0
99.119	5.0
99.133	3.0
99.148	4.0
99.163	4.0
99.178	2.0
99.193	13.0
99.208	6.0
99.223	4.0
99.238	2.0
99.252	2.0
99.267	2.0
99.282	1.0
99.297	4.0
99.312	4.0
99.327	3.0
99.342	2.0
99.356	3.0
99.371	4.0
99.386	5.0
99.401	2.0
99.416	4.0
99.431	2.0
99.446	2.0
99.461	6.0
99.475	3.0
99.49	3.0
99.505	0.0
99.52	4.0
99.535	2.0
99.55	4.0
99.565	2.0
99.579	6.0
99.594	5.0
99.609	3.0
99.624	4.0
99.639	3.0
99.654	5.0
99.669	3.0
99.683	2.0
99.698	5.0
99.713	1.0
99.728	2.0
99.743	5.0
99.758	3.0
99.772	6.0
99.787	6.0
99.802	2.0
99.817	1.0
99.832	5.0
99.847	2.0
99.862	3.0
99.876	6.0
99.891	7.0
99.906	2.0
99.921	3.0
99.936	0.0
99.951	2.0
99.966	4.0
99.98	1.0
99.995	6.0
100.01	0.0
100.025	3.0
100.04	4.0
100.055	4.0
100.069	5.0
100.084	2.0
100.099	3.0
100.114	2.0
100.129	0.0
100.144	3.0
100.159	3.0
100.173	0.0
100.188	3.0
100.203	3.0
100.218	4.0
100.233	7.0
100.248	3.0
100.262	5.0
100.277	3.0
100.292	10.0
100.307	5.0
100.322	4.0
100.337	1.0
100.351	4.0
100.366	6.0
100.381	3.0
100.396	7.0
100.411	2.0
100.426	2.0
100.441	1.0
100.455	4.0
100.47	6.0
100.485	2.0
100.5	5.0
100.515	2.0
100.53	2.0
100.544	3.0
100.559	4.0
100.574	2.0
100.589	5.0
100.604	5.0
100.619	4.0
100.633	2.0
100.648	5.0
100.663	2.0
100.678	4.0
100.693	4.0
100.708	5.0
100.722	2.0
100.737	3.0
100.752	1.0
100.767	1.0
100.782	1.0
100.796	3.0
100.811	2.0
100.826	3.0
100.841	5.0
100.856	7.0
100.871	0.0
100.885	2.0
100.9	2.0
100.915	3.0
100.93	4.0
100.945	3.0
100.96	5.0
100.974	9.0
100.989	6.0
101.004	2.0
101.019	3.0
101.034	2.0
101.048	0.0
101.063	4.0
101.078	3.0
101.093	4.0
101.108	3.0
101.123	2.0
101.137	3.0
101.152	4.0
101.167	6.0
101.182	4.0
101.197	3.0
101.211	5.0
101.226	6.0
101.241	7.0
101.256	2.0
101.271	4.0
101.285	0.0
101.3	2.0
101.315	5.0
101.33	3.0
101.345	3.0
101.359	1.0
101.374	6.0
101.389	1.0
101.404	5.0
101.419	6.0
101.433	5.0
101.448	4.0
101.463	5.0
101.478	2.0
101.493	4.0
101.507	7.0
101.522	6.0
101.537	1.0
101.552	4.0
101.567	6.0
101.581	4.0
101.596	1.0
101.611	3.0
101.626	2.0
101.64	2.0
101.655	4.0
101.67	0.0
101.685	1.0
101.7	4.0
101.714	4.0
101.729	5.0
101.744	3.0
101.759	3.0
101.773	3.0
101.788	2.0
101.803	2.0
101.818	6.0
101.833	1.0
101.847	4.0
101.862	5.0
101.877	1.0
101.892	6.0
101.906	5.0
101.921	1.0
101.936	3.0
101.951	4.0
101.965	4.0
101.98	3.0
101.995	5.0
102.01	6.0
102.025	4.0
102.039	5.0
102.054	5.0
102.069	3.0
102.084	1.0
102.098	6.0
102.113	3.0
102.128	4.0
102.143	2.0
102.157	3.0
102.172	4.0
102.187	0.0
102.202	5.0
102.216	4.0
102.231	3.0
102.246	7.0
102.261	4.0
102.275	2.0
102.29	2.0
102.305	7.0
102.32	3.0
102.334	0.0
102.349	3.0
102.364	3.0
102.378	3.0
102.393	2.0
102.408	3.0
102.423	5.0
102.437	4.0
102.452	4.0
102.467	2.0
102.482	1.0
102.496	3.0
102.511	4.0
102.526	2.0
102.541	1.0
102.555	2.0
102.57	6.0
102.585	6.0
102.6	2.0
102.614	4.0
102.629	3.0
102.644	0.0
102.659	2.0
102.673	4.0
102.688	4.0
102.703	4.0
102.717	3.0
102.732	2.0
102.747	6.0
102.762	2.0
102.776	0.0
102.791	1.0
102.806	3.0
102.821	2.0
102.835	2.0
102.85	4.0
102.865	4.0
102.88	4.0
102.894	2.0
102.909	2.0
102.924	4.0
102.938	5.0
102.953	4.0
102.968	4.0
102.983	6.0
102.997	2.0
103.012	5.0
103.027	4.0
103.042	3.0
103.056	1.0
103.071	5.0
103.086	2.0
103.101	2.0
103.115	5.0
103.13	3.0
103.145	3.0
103.16	2.0
103.174	6.0
103.189	1.0
103.204	2.0
103.219	4.0
103.233	2.0
103.248	1.0
103.263	3.0
103.278	3.0
103.292	2.0
103.307	8.0
103.322	5.0
103.337	2.0
103.351	5.0
103.366	5.0
103.381	3.0
103.396	5.0
103.41	2.0
103.425	4.0
103.44	5.0
103.455	3.0
103.469	4.0
103.484	2.0
103.499	2.0
103.514	2.0
103.529	4.0
103.543	5.0
103.558	5.0
103.573	0.0
103.588	2.0
103.602	4.0
103.617	7.0
103.632	4.0
103.647	3.0
103.661	1.0
103.676	3.0
103.691	5.0
103.706	1.0
103.721	1.0
103.735	3.0
103.75	4.0
103.765	4.0
103.78	4.0
103.795	9.0
103.809	6.0
103.824	7.0
103.839	1.0
103.854	4.0
103.869	5.0
103.883	3.0
103.898	3.0
103.913	1.0
103.928	2.0
103.943	4.0
103.957	3.0
103.972	4.0
103.987	3.0
104.002	2.0
104.017	3.0
104.031	2.0
104.046	2.0
104.061	4.0
104.076	2.0
104.091	1.0
104.106	3.0
104.12	2.0
104.135	1.0
104.15	4.0
104.165	3.0
104.18	3.0
104.195	1.0
104.209	2.0
104.224	5.0
104.239	1.0
104.254	2.0
104.269	1.0
104.284	2.0
104.299	3.0
104.313	2.0
104.328	2.0
104.343	6.0
104.358	1.0
104.373	3.0
104.388	3.0
104.403	1.0
104.417	3.0
104.432	5.0
104.447	5.0
104.462	4.0
104.477	3.0
104.492	3.0
104.507	3.0
104.522	2.0
104.536	2.0
104.551	6.0
104.566	3.0
104.581	4.0
104.596	3.0
104.611	2.0
104.626	3.0
104.641	2.0
104.656	4.0
104.67	4.0
104.685	5.0
104.7	0.0
104.715	1.0
104.73	2.0
104.745	2.0
104.76	3.0
104.775	4.0
104.79	3.0
104.804	1.0
104.819	3.0
104.834	2.0
104.849	2.0
104.864	3.0
104.879	4.0
104.894	4.0
104.909	4.0
104.924	1.0
104.939	3.0
104.954	2.0
104.968	2.0
104.983	1.0
104.998	2.0
105.013	2.0
105.028	5.0
105.043	1.0
105.058	5.0
105.073	1.0
105.088	5.0
105.103	1.0
105.118	2.0
105.133	3.0
105.147	3.0
105.162	3.0
105.177	4.0
105.192	6.0
105.207	3.0
105.222	4.0
105.237	2.0
105.252	4.0
105.267	2.0
105.282	2.0
105.297	2.0
105.312	7.0
105.327	2.0
105.342	3.0
105.356	2.0
105.371	5.0
105.386	3.0
105.401	5.0
105.416	3.0
105.431	1.0
105.446	4.0
105.461	6.0
105.476	5.0
105.491	5.0
105.506	4.0
105.521	3.0
105.536	0.0
105.551	3.0
105.566	6.0
105.581	3.0
105.595	1.0
105.61	2.0
105.625	2.0
105.64	4.0
105.655	2.0
105.67	7.0
105.685	6.0
105.7	0.0
105.715	4.0
105.73	2.0
105.745	4.0
105.76	3.0
105.775	6.0
105.79	3.0
105.805	2.0
105.82	5.0
105.835	3.0
105.85	0.0
105.864	3.0
105.879	1.0
105.894	3.0
105.909	7.0
105.924	0.0
105.939	6.0
105.954	1.0
105.969	5.0
105.984	3.0
105.999	2.0
106.014	3.0
106.029	3.0
106.044	5.0
106.059	3.0
106.074	2.0
106.089	2.0
106.104	1.0
106.119	3.0
106.134	0.0
106.148	5.0
106.163	3.0
106.178	4.0
106.193	2.0
106.208	2.0
106.223	4.0
106.238	3.0
106.253	2.0
106.268	2.0
106.283	2.0
106.298	6.0
106.313	3.0
106.328	2.0
106.343	5.0
106.358	1.0
106.373	1.0
106.388	5.0
106.403	5.0
106.418	0.0
106.432	3.0
106.447	3.0
106.462	7.0
106.477	3.0
106.492	2.0
106.507	1.0
106.522	2.0
106.537	5.0
106.552	0.0
106.567	2.0
106.582	2.0
106.597	5.0
106.612	3.0
106.627	3.0
106.642	3.0
106.657	6.0
106.672	0.0
106.687	5.0
106.701	3.0
106.716	1.0
106.731	0.0
106.746	4.0
106.761	0.0
106.776	3.0
106.791	5.0
106.806	5.0
106.821	6.0
106.836	5.0
106.851	4.0
106.866	0.0
106.881	4.0
106.896	1.0
106.911	4.0
106.926	2.0
106.941	6.0
106.955	5.0
106.97	5.0
106.985	4.0
107.0	1.0
107.015	6.0
107.03	0.0
107.045	5.0
107.06	5.0
107.075	2.0
107.09	3.0
107.105	3.0
107.12	3.0
107.135	1.0
107.15	5.0
107.165	3.0
107.18	2.0
107.194	8.0
107.209	6.0
107.224	4.0
107.239	3.0
107.254	3.0
107.269	3.0
107.284	4.0
107.299	5.0
107.314	2.0
107.329	1.0
107.344	8.0
107.359	3.0
107.374	3.0
107.389	3.0
107.404	4.0
107.418	3.0
107.433	2.0
107.448	3.0
107.463	6.0
107.478	3.0
107.493	1.0
107.508	5.0
107.523	5.0
107.538	2.0
107.553	3.0
107.568	5.0
107.583	3.0
107.598	5.0
107.613	2.0
107.627	0.0
107.642	6.0
107.657	2.0
107.672	6.0
107.687	1.0
107.702	5.0
107.717	1.0
107.732	5.0
107.747	2.0
107.762	4.0
107.777	1.0
107.792	2.0
107.807	4.0
107.821	6.0
107.836	6.0
107.851	7.0
107.866	4.0
107.881	4.0
107.896	3.0
107.911	0.0
107.926	3.0
107.941	4.0
107.956	6.0
107.971	3.0
107.986	3.0
108.0	2.0
108.015	6.0
108.03	4.0
108.045	5.0
108.06	6.0
108.075	5.0
108.09	4.0
108.105	4.0
108.12	4.0
108.135	6.0
108.15	3.0
108.164	7.0
108.179	4.0
108.194	1.0
108.209	3.0
108.224	7.0
108.239	3.0
108.254	1.0
108.269	4.0
108.284	5.0
108.299	2.0
108.313	3.0
108.328	1.0
108.343	5.0
108.358	1.0
108.373	1.0
108.388	3.0
108.403	2.0
108.418	3.0
108.433	3.0
108.448	2.0
108.462	1.0
108.477	3.0
108.492	3.0
108.507	2.0
108.522	2.0
108.537	1.0
108.552	5.0
108.567	0.0
108.582	1.0
108.597	2.0
108.611	4.0
108.626	3.0
108.641	3.0
108.656	5.0
108.671	0.0
108.686	5.0
108.701	3.0
108.716	0.0
108.731	6.0
108.745	5.0
108.76	5.0
108.775	1.0
108.79	4.0
108.805	6.0
108.82	2.0
108.835	5.0
108.85	2.0
108.865	3.0
108.879	5.0
108.894	5.0
108.909	3.0
108.924	2.0
108.939	2.0
108.954	2.0
108.969	2.0
108.984	3.0
108.999	10.0
109.013	2.0
109.028	2.0
109.043	3.0
109.058	5.0
109.073	5.0
109.088	6.0
109.103	5.0
109.118	5.0
109.133	2.0
109.147	1.0
109.162	3.0
109.177	2.0
109.192	2.0
109.207	3.0
109.222	6.0
109.237	3.0
109.252	2.0
109.267	1.0
109.281	2.0
109.296	6.0
109.311	4.0
109.326	0.0
109.341	4.0
109.356	2.0
109.371	4.0
109.386	5.0
109.4	5.0
109.415	3.0
109.43	6.0
109.445	3.0
109.46	4.0
109.475	3.0
109.49	3.0
109.505	4.0
109.52	3.0
109.534	2.0
109.549	3.0
109.564	3.0
109.579	1.0
109.594	0.0
109.609	4.0
109.624	3.0
109.639	3.0
109.653	4.0
109.668	4.0
109.683	4.0
109.698	4.0
109.713	0.0
109.728	3.0
109.743	4.0
109.758	5.0
109.773	5.0
109.787	3.0
109.802	1.0
109.817	1.0
109.832	4.0
109.847	7.0
109.862	2.0
109.877	2.0
109.892	6.0
109.907	1.0
109.921	2.0
109.936	6.0
109.951	3.0
109.966	2.0
109.981	3.0
109.996	7.0
110.011	1.0
110.026	2.0
110.04	5.0
110.055	3.0
110.07	2.0
110.085	3.0
110.1	7.0
110.115	4.0
110.13	6.0
110.145	4.0
110.16	2.0
110.174	3.0
110.189	2.0
110.204	4.0
110.219	3.0
110.234	3.0
110.249	0.0
110.264	0.0
110.279	2.0
110.294	2.0
110.308	1.0
110.323	2.0
110.338	5.0
110.353	1.0
110.368	3.0
110.383	4.0
110.398	4.0
110.413	1.0
110.428	2.0
110.442	1.0
110.457	3.0
110.472	5.0
110.487	2.0
110.502	6.0
110.517	6.0
110.532	9.0
110.547	1.0
110.561	0.0
110.576	1.0
110.591	2.0
110.606	6.0
110.621	4.0
110.636	3.0
110.651	4.0
110.666	6.0
110.681	2.0
110.695	6.0
110.71	7.0
110.725	3.0
110.74	5.0
110.755	4.0
110.77	1.0
110.785	4.0
110.8	3.0
110.815	5.0
110.829	2.0
110.844	2.0
110.859	4.0
110.874	5.0
110.889	0.0
110.904	2.0
110.919	4.0
110.934	5.0
110.948	1.0
110.963	5.0
110.978	2.0
110.993	4.0
111.008	7.0
111.023	4.0
111.038	2.0
111.053	1.0
111.067	2.0
111.082	3.0
111.097	4.0
111.112	3.0
111.127	10.0
111.142	8.0
111.157	6.0
111.172	3.0
111.186	3.0
111.201	4.0
111.216	6.0
111.231	8.0
111.246	5.0
111.261	5.0
111.276	1.0
111.291	1.0
111.305	3.0
111.32	3.0
111.335	2.0
111.35	2.0
111.365	2.0
111.38	5.0
111.395	2.0
111.41	3.0
111.424	4.0
111.439	3.0
111.454	4.0
111.469	3.0
111.484	0.0
111.499	3.0
111.514	6.0
111.528	1.0
111.543	3.0
111.558	3.0
111.573	1.0
111.588	5.0
111.603	6.0
111.618	1.0
111.633	2.0
111.647	3.0
111.662	3.0
111.677	1.0
111.692	8.0
111.707	4.0
111.722	5.0
111.737	2.0
111.751	5.0
111.766	2.0
111.781	0.0
111.796	2.0
111.811	1.0
111.826	4.0
111.84	1.0
111.855	3.0
111.87	1.0
111.885	2.0
111.9	3.0
111.915	2.0
111.93	2.0
111.944	1.0
111.959	6.0
111.974	0.0
111.989	4.0
112.004	4.0
112.019	6.0
112.033	1.0
112.048	2.0
112.063	4.0
112.078	2.0
112.093	2.0
112.108	4.0
112.123	2.0
112.137	2.0
112.152	5.0
112.167	4.0
112.182	3.0
112.197	4.0
112.212	5.0
112.226	3.0
112.241	3.0
112.256	3.0
112.271	4.0
112.286	3.0
112.301	3.0
112.315	3.0
112.33	2.0
112.345	2.0
112.36	3.0
112.375	5.0
112.389	3.0
112.404	1.0
112.419	0.0
112.434	1.0
112.449	1.0
112.464	2.0
112.478	4.0
112.493	3.0
112.508	2.0
112.523	2.0
112.538	1.0
112.553	4.0
112.567	6.0
112.582	3.0
112.597	2.0
112.612	3.0
112.627	8.0
112.642	6.0
112.656	5.0
112.671	2.0
112.686	8.0
112.701	1.0
112.716	6.0
112.73	4.0
112.745	7.0
112.76	4.0
112.775	4.0
112.79	3.0
112.805	6.0
112.819	4.0
112.834	6.0
112.849	2.0
112.864	2.0
112.879	8.0
112.894	6.0
112.908	3.0
112.923	5.0
112.938	7.0
112.953	5.0
112.968	3.0
112.983	3.0
112.997	1.0
113.012	1.0
113.027	2.0
113.042	6.0
113.057	5.0
113.072	0.0
113.086	5.0
113.101	3.0
113.116	3.0
113.131	4.0
113.146	8.0
113.161	3.0
113.175	5.0
113.19	6.0
113.205	7.0
113.22	4.0
113.235	6.0
113.25	5.0
113.265	2.0
113.279	3.0
113.294	3.0
113.309	1.0
113.324	2.0
113.339	5.0
113.354	2.0
113.368	4.0
113.383	1.0
113.398	4.0
113.413	3.0
113.428	3.0
113.443	4.0
113.458	2.0
113.472	0.0
113.487	5.0
113.502	3.0
113.517	2.0
113.532	7.0
113.547	3.0
113.562	3.0
113.576	5.0
113.591	3.0
113.606	3.0
113.621	4.0
113.636	4.0
113.651	2.0
113.666	6.0
113.681	2.0
113.695	3.0
113.71	2.0
113.725	4.0
113.74	3.0
113.755	2.0
113.77	4.0
113.785	0.0
113.8	1.0
113.814	2.0
113.829	6.0
113.844	4.0
113.859	5.0
113.874	3.0
113.889	3.0
113.904	2.0
113.919	1.0
113.934	1.0
113.949	1.0
113.963	4.0
113.978	1.0
113.993	2.0
114.008	4.0
114.023	3.0
114.038	3.0
114.053	3.0
114.068	3.0
114.083	3.0
114.098	3.0
114.113	3.0
114.127	3.0
114.142	3.0
114.157	5.0
114.172	4.0
114.187	2.0
114.202	7.0
114.217	2.0
114.232	3.0
114.247	5.0
114.262	5.0
114.277	3.0
114.292	2.0
114.307	5.0
114.322	0.0
114.337	2.0
114.351	4.0
114.366	1.0
114.381	1.0
114.396	9.0
114.411	1.0
114.426	6.0
114.441	3.0
114.456	3.0
114.471	5.0
114.486	6.0
114.501	8.0
114.516	3.0
114.531	3.0
114.546	2.0
114.561	1.0
114.576	5.0
114.591	3.0
114.606	5.0
114.621	7.0
114.636	4.0
114.65	7.0
114.665	2.0
114.68	3.0
114.695	1.0
114.71	5.0
114.725	4.0
114.74	5.0
114.755	6.0
114.77	2.0
114.785	2.0
114.8	4.0
114.815	6.0
114.83	5.0
114.845	5.0
114.86	3.0
114.875	3.0
114.89	3.0
114.905	4.0
114.92	5.0
114.935	3.0
114.95	6.0
114.965	2.0
114.98	2.0
114.995	4.0
115.009	3.0
115.024	2.0
115.039	3.0
115.054	5.0
115.069	5.0
115.084	3.0
115.099	2.0
115.114	4.0
115.129	1.0
115.144	3.0
115.159	1.0
115.174	4.0
115.189	5.0
115.204	7.0
115.219	2.0
115.234	0.0
115.249	7.0
115.264	6.0
115.279	5.0
115.294	3.0
115.309	3.0
115.323	2.0
115.338	8.0
115.353	2.0
115.368	5.0
115.383	4.0
115.398	6.0
115.413	9.0
115.428	5.0
115.443	4.0
115.458	1.0
115.473	2.0
115.488	6.0
115.503	8.0
115.518	3.0
115.533	6.0
115.548	4.0
115.562	5.0
115.577	7.0
115.592	1.0
115.607	2.0
115.622	2.0
115.637	5.0
115.652	1.0
115.667	4.0
115.682	4.0
115.697	5.0
115.712	6.0
115.727	5.0
115.741	2.0
115.756	6.0
115.771	1.0
115.786	2.0
115.801	4.0
115.816	3.0
115.831	5.0
115.846	5.0
115.861	5.0
115.875	0.0
115.89	6.0
115.905	1.0
115.92	4.0
115.935	4.0
115.95	4.0
115.965	6.0
115.98	1.0
115.995	1.0
116.009	4.0
116.024	3.0
116.039	4.0
116.054	3.0
116.069	4.0
116.084	4.0
116.099	5.0
116.113	1.0
116.128	5.0
116.143	6.0
116.158	0.0
116.173	6.0
116.188	3.0
116.202	2.0
116.217	8.0
116.232	2.0
116.247	3.0
116.262	4.0
116.277	6.0
116.291	1.0
116.306	1.0
116.321	4.0
116.336	3.0
116.351	1.0
116.366	2.0
116.38	4.0
116.395	2.0
116.41	6.0
116.425	5.0
116.44	4.0
116.454	1.0
116.469	3.0
116.484	4.0
116.499	3.0
116.514	0.0
116.528	4.0
116.543	3.0
116.558	3.0
116.573	4.0
116.588	3.0
116.602	3.0
116.617	6.0
116.632	1.0
116.647	2.0
116.662	3.0
116.676	3.0
116.691	0.0
116.706	6.0
116.721	4.0
116.735	1.0
116.75	1.0
116.765	2.0
116.78	1.0
116.795	5.0
116.809	3.0
116.824	4.0
116.839	3.0
116.854	3.0
116.868	1.0
116.883	4.0
116.898	3.0
116.913	3.0
116.927	2.0
116.942	0.0
116.957	5.0
116.972	3.0
116.986	2.0
117.001	0.0
117.016	1.0
117.031	3.0
117.045	5.0
117.06	3.0
117.075	3.0
117.09	6.0
117.104	5.0
117.119	5.0
117.134	5.0
117.149	6.0
117.163	2.0
117.178	2.0
117.193	1.0
117.208	2.0
117.222	2.0
117.237	2.0
117.252	3.0
117.267	2.0
117.281	4.0
117.296	2.0
117.311	3.0
117.325	3.0
117.34	2.0
117.355	4.0
117.37	4.0
117.384	2.0
117.399	5.0
117.414	7.0
117.429	2.0
117.443	5.0
117.458	5.0
117.473	4.0
117.487	3.0
117.502	2.0
117.517	7.0
117.532	2.0
117.546	3.0
117.561	4.0
117.576	8.0
117.59	5.0
117.605	7.0
117.62	4.0
117.635	3.0
117.649	3.0
117.664	4.0
117.679	0.0
117.693	2.0
117.708	2.0
117.723	4.0
117.738	4.0
117.752	6.0
117.767	1.0
117.782	9.0
117.796	0.0
117.811	4.0
117.826	1.0
117.841	4.0
117.855	5.0
117.87	9.0
117.885	2.0
117.899	2.0
117.914	2.0
117.929	8.0
117.944	3.0
117.958	0.0
117.973	5.0
117.988	4.0
118.002	4.0
118.017	4.0
118.032	7.0
118.047	2.0
118.062	3.0
118.077	4.0
118.092	5.0
118.107	9.0
118.121	6.0
118.136	5.0
118.151	8.0
118.166	1.0
118.181	8.0
118.196	5.0
118.211	5.0
118.225	8.0
118.24	4.0
118.255	3.0
118.27	2.0
118.285	5.0
118.3	2.0
118.315	3.0
118.33	4.0
118.344	9.0
118.359	3.0
118.374	3.0
118.389	2.0
118.404	4.0
118.419	6.0
118.434	3.0
118.449	2.0
118.463	4.0
118.478	2.0
118.493	0.0
118.508	2.0
118.523	2.0
118.538	4.0
118.553	2.0
118.567	4.0
118.582	7.0
118.597	2.0
118.612	3.0
118.627	3.0
118.642	3.0
118.657	3.0
118.672	1.0
118.686	4.0
118.701	6.0
118.716	6.0
118.731	2.0
118.746	3.0
118.761	4.0
118.776	3.0
118.791	5.0
118.805	2.0
118.82	2.0
118.835	3.0
118.85	7.0
118.865	5.0
118.88	4.0
118.895	7.0
118.909	5.0
118.924	4.0
118.939	2.0
118.954	2.0
118.969	2.0
118.984	0.0
118.999	8.0
119.014	3.0
119.028	4.0
119.043	4.0
119.058	3.0
119.073	8.0
119.088	1.0
119.103	3.0
119.118	1.0
119.133	3.0
119.147	3.0
119.162	3.0
119.177	5.0
119.192	2.0
119.207	4.0
119.222	6.0
119.237	3.0
119.251	1.0
119.266	5.0
119.281	3.0
119.296	2.0
119.311	7.0
119.326	3.0
119.341	5.0
119.356	5.0
119.37	4.0
119.385	3.0
119.4	6.0
119.415	5.0
119.43	0.0
119.445	5.0
119.46	2.0
119.475	3.0
119.489	5.0
119.504	2.0
119.519	4.0
119.534	2.0
119.549	3.0
119.564	7.0
119.579	4.0
119.593	2.0
119.608	4.0
119.623	6.0
119.638	3.0
119.653	2.0
119.668	5.0
119.683	4.0
119.698	5.0
119.712	4.0
119.727	6.0
119.742	3.0
119.757	3.0
119.772	3.0
119.787	6.0
119.802	0.0
119.817	1.0
119.831	7.0
119.846	5.0
119.861	4.0
119.876	2.0
119.891	3.0
119.906	2.0
119.921	3.0
119.935	3.0
119.95	4.0
119.965	2.0
119.98	4.0
119.995	3.0
120.01	2.0
120.025	0.0
120.04	3.0
120.054	2.0
120.069	3.0
120.084	2.0
120.099	7.0
120.114	0.0
120.129	3.0
120.144	2.0
120.159	3.0
120.173	0.0
120.188	0.0
120.203	0.0
120.218	1.0
120.233	1.0
120.248	1.0
120.263	0.0
120.277	2.0
120.292	1.0
120.307	0.0
120.322	0.0
120.337	0.0
120.352	0.0
120.367	1.0
120.382	0.0
120.396	0.0
120.411	0.0
120.426	0.0
120.441	0.0
120.456	0.0
120.471	0.0
120.486	0.0
120.501	0.0
120.515	0.0
120.53	2.0
120.545	0.0
120.56	0.0
120.575	0.0
120.59	0.0
120.605	0.0
120.619	0.0
120.634	0.0
120.649	0.0
120.664	0.0
120.679	0.0
120.694	0.0
120.709	0.0
120.724	0.0
120.738	0.0
120.753	0.0
120.768	0.0
120.783	0.0
120.798	0.0
120.813	0.0
120.828	0.0
120.843	0.0
120.857	0.0
120.872	0.0
120.887	0.0
120.902	1.0
120.917	0.0
120.932	0.0
120.947	0.0
120.961	0.0
120.976	0.0
