-1.217	0.0
-1.202	0.0
-1.187	0.0
-1.172	0.0
-1.157	0.0
-1.142	0.0
-1.128	0.0
-1.113	0.0
-1.098	0.0
-1.083	0.0
-1.068	0.0
-1.054	0.0
-1.039	0.0
-1.024	0.0
-1.009	0.0
-0.994	0.0
-0.979	0.0
-0.965	0.0
-0.95	0.0
-0.935	1.0
-0.92	0.0
-0.905	0.0
-0.891	0.0
-0.876	0.0
-0.861	0.0
-0.846	0.0
-0.831	0.0
-0.816	0.0
-0.802	0.0
-0.787	0.0
-0.772	0.0
-0.757	0.0
-0.742	0.0
-0.728	0.0
-0.713	0.0
-0.698	0.0
-0.683	0.0
-0.668	0.0
-0.653	0.0
-0.639	0.0
-0.624	0.0
-0.609	0.0
-0.594	0.0
-0.579	0.0
-0.565	0.0
-0.55	0.0
-0.535	0.0
-0.52	0.0
-0.505	0.0
-0.49	0.0
-0.476	0.0
-0.461	0.0
-0.446	0.0
-0.431	0.0
-0.416	0.0
-0.401	0.0
-0.387	0.0
-0.372	0.0
-0.357	0.0
-0.342	0.0
-0.327	1.0
-0.313	0.0
-0.298	0.0
-0.283	0.0
-0.268	0.0
-0.253	0.0
-0.238	0.0
-0.224	0.0
-0.209	2.0
-0.194	0.0
-0.179	1.0
-0.164	0.0
-0.15	0.0
-0.135	0.0
-0.12	0.0
-0.105	0.0
-0.09	0.0
-0.075	0.0
-0.061	0.0
-0.046	0.0
-0.031	0.0
-0.016	0.0
-0.001	0.0
0.013	0.0
0.028	0.0
0.043	0.0
0.058	0.0
0.073	0.0
0.088	0.0
0.102	0.0
0.117	0.0
0.132	0.0
0.147	0.0
0.162	0.0
0.176	0.0
0.191	0.0
0.206	0.0
0.221	0.0
0.236	0.0
0.251	0.0
0.265	0.0
0.28	0.0
0.295	0.0
0.31	0.0
0.325	0.0
0.339	0.0
0.354	0.0
0.369	0.0
0.384	0.0
0.399	0.0
0.414	0.0
0.428	0.0
0.443	0.0
0.458	0.0
0.473	0.0
0.488	0.0
0.502	0.0
0.517	0.0
0.532	0.0
0.547	0.0
0.562	0.0
0.577	0.0
0.591	0.0
0.606	0.0
0.621	0.0
0.636	0.0
0.651	0.0
0.665	0.0
0.68	0.0
0.695	0.0
0.71	0.0
0.725	0.0
0.74	0.0
0.754	0.0
0.769	0.0
0.784	0.0
0.799	0.0
0.814	0.0
0.828	0.0
0.843	0.0
0.858	0.0
0.873	0.0
0.888	0.0
0.903	0.0
0.917	0.0
0.932	0.0
0.947	0.0
0.962	0.0
0.977	0.0
0.991	0.0
1.006	0.0
1.021	0.0
1.036	0.0
1.051	0.0
1.065	0.0
1.08	0.0
1.095	0.0
1.11	0.0
1.125	0.0
1.14	0.0
1.154	0.0
1.169	0.0
1.184	0.0
1.199	0.0
1.214	0.0
1.228	0.0
1.243	0.0
1.258	0.0
1.273	0.0
1.288	0.0
1.302	0.0
1.317	0.0
1.332	0.0
1.347	0.0
1.362	0.0
1.376	0.0
1.391	0.0
1.406	0.0
1.421	0.0
1.436	0.0
1.45	0.0
1.465	0.0
1.48	0.0
1.495	0.0
1.51	1.0
1.524	0.0
1.539	0.0
1.554	0.0
1.569	0.0
1.584	1.0
1.598	0.0
1.613	0.0
1.628	1.0
1.643	0.0
1.658	0.0
1.672	0.0
1.687	0.0
1.702	0.0
1.717	0.0
1.732	0.0
1.746	0.0
1.761	0.0
1.776	0.0
1.791	1.0
1.806	0.0
1.82	0.0
1.835	0.0
1.85	1.0
1.865	0.0
1.88	0.0
1.894	0.0
1.909	0.0
1.924	0.0
1.939	0.0
1.954	0.0
1.968	0.0
1.983	1.0
1.998	0.0
2.013	0.0
2.028	0.0
2.042	0.0
2.057	0.0
2.072	0.0
2.087	0.0
2.101	0.0
2.116	1.0
2.131	0.0
2.146	1.0
2.161	1.0
2.175	0.0
2.19	0.0
2.205	0.0
2.22	0.0
2.235	1.0
2.249	1.0
2.264	0.0
2.279	0.0
2.294	0.0
2.308	0.0
2.323	1.0
2.338	0.0
2.353	0.0
2.368	0.0
2.382	2.0
2.397	1.0
2.412	1.0
2.427	1.0
2.442	2.0
2.456	4.0
2.471	1.0
2.486	0.0
2.501	3.0
2.515	3.0
2.53	2.0
2.545	2.0
2.56	2.0
2.575	2.0
2.589	1.0
2.604	2.0
2.619	0.0
2.634	2.0
2.649	2.0
2.663	2.0
2.678	3.0
2.693	8.0
2.708	1.0
2.722	2.0
2.737	1.0
2.752	2.0
2.767	4.0
2.782	7.0
2.796	2.0
2.811	3.0
2.826	6.0
2.841	3.0
2.856	2.0
2.87	4.0
2.885	4.0
2.9	3.0
2.915	4.0
2.93	5.0
2.944	6.0
2.959	1.0
2.974	3.0
2.989	5.0
3.004	2.0
3.018	4.0
3.033	2.0
3.048	8.0
3.063	4.0
3.078	6.0
3.092	4.0
3.107	3.0
3.122	2.0
3.137	4.0
3.152	4.0
3.166	5.0
3.181	2.0
3.196	4.0
3.211	3.0
3.226	2.0
3.24	5.0
3.255	5.0
3.27	5.0
3.285	3.0
3.3	3.0
3.315	5.0
3.329	5.0
3.344	3.0
3.359	5.0
3.374	4.0
3.389	7.0
3.403	5.0
3.418	5.0
3.433	8.0
3.448	9.0
3.463	8.0
3.478	4.0
3.492	7.0
3.507	6.0
3.522	5.0
3.537	0.0
3.552	5.0
3.567	9.0
3.581	3.0
3.596	7.0
3.611	5.0
3.626	11.0
3.641	8.0
3.656	8.0
3.671	8.0
3.685	4.0
3.7	3.0
3.715	6.0
3.73	6.0
3.745	6.0
3.76	6.0
3.775	6.0
3.789	6.0
3.804	4.0
3.819	6.0
3.834	6.0
3.849	4.0
3.864	10.0
3.879	3.0
3.894	3.0
3.908	7.0
3.923	7.0
3.938	13.0
3.953	4.0
3.968	9.0
3.983	8.0
3.998	7.0
4.013	12.0
4.027	4.0
4.042	9.0
4.057	5.0
4.072	5.0
4.087	4.0
4.102	4.0
4.117	6.0
4.132	6.0
4.147	7.0
4.162	4.0
4.176	7.0
4.191	8.0
4.206	10.0
4.221	3.0
4.236	7.0
4.251	11.0
4.266	8.0
4.281	8.0
4.296	12.0
4.311	5.0
4.326	11.0
4.341	10.0
4.356	8.0
4.37	10.0
4.385	10.0
4.4	8.0
4.415	4.0
4.43	7.0
4.445	5.0
4.46	6.0
4.475	12.0
4.49	5.0
4.505	7.0
4.52	4.0
4.535	6.0
4.55	7.0
4.565	8.0
4.58	9.0
4.595	9.0
4.61	9.0
4.625	6.0
4.639	3.0
4.654	12.0
4.669	9.0
4.684	11.0
4.699	8.0
4.714	9.0
4.729	4.0
4.744	4.0
4.759	4.0
4.774	9.0
4.789	8.0
4.804	5.0
4.819	4.0
4.834	3.0
4.849	6.0
4.864	7.0
4.879	5.0
4.894	8.0
4.909	13.0
4.924	9.0
4.939	4.0
4.954	12.0
4.969	9.0
4.984	10.0
4.999	7.0
5.014	10.0
5.029	6.0
5.044	9.0
5.059	13.0
5.074	11.0
5.089	2.0
5.104	3.0
5.119	11.0
5.134	9.0
5.149	10.0
5.164	8.0
5.179	8.0
5.194	1.0
5.209	11.0
5.224	11.0
5.239	12.0
5.254	9.0
5.269	11.0
5.284	13.0
5.299	9.0
5.314	9.0
5.329	10.0
5.344	10.0
5.359	9.0
5.374	6.0
5.389	7.0
5.404	4.0
5.419	7.0
5.434	6.0
5.449	4.0
5.464	7.0
5.479	14.0
5.494	4.0
5.509	8.0
5.524	7.0
5.539	7.0
5.554	4.0
5.569	9.0
5.584	7.0
5.599	9.0
5.614	8.0
5.629	4.0
5.644	9.0
5.659	12.0
5.674	9.0
5.689	8.0
5.704	10.0
5.719	6.0
5.734	10.0
5.749	14.0
5.764	6.0
5.779	11.0
5.794	4.0
5.809	6.0
5.824	7.0
5.839	6.0
5.854	10.0
5.869	8.0
5.884	11.0
5.899	7.0
5.914	8.0
5.929	9.0
5.944	4.0
5.959	11.0
5.974	11.0
5.989	6.0
6.004	7.0
6.019	5.0
6.034	4.0
6.049	6.0
6.064	11.0
6.079	12.0
6.094	7.0
6.109	7.0
6.124	3.0
6.139	13.0
6.154	15.0
6.169	10.0
6.184	11.0
6.199	6.0
6.214	6.0
6.229	7.0
6.244	11.0
6.259	9.0
6.274	10.0
6.289	9.0
6.304	5.0
6.319	13.0
6.334	6.0
6.349	8.0
6.364	10.0
6.379	8.0
6.394	8.0
6.409	7.0
6.424	6.0
6.439	12.0
6.454	11.0
6.469	6.0
6.484	6.0
6.499	9.0
6.514	5.0
6.529	8.0
6.544	6.0
6.559	9.0
6.574	9.0
6.589	11.0
6.604	10.0
6.619	8.0
6.634	3.0
6.649	6.0
6.664	11.0
6.679	12.0
6.694	9.0
6.709	9.0
6.724	9.0
6.739	11.0
6.754	6.0
6.769	12.0
6.784	10.0
6.799	14.0
6.814	12.0
6.829	13.0
6.844	9.0
6.859	12.0
6.873	6.0
6.888	11.0
6.903	7.0
6.918	13.0
6.933	5.0
6.948	10.0
6.963	10.0
6.978	15.0
6.993	10.0
7.008	9.0
7.023	16.0
7.038	8.0
7.053	7.0
7.068	7.0
7.083	11.0
7.098	13.0
7.113	12.0
7.128	8.0
7.143	2.0
7.157	6.0
7.172	10.0
7.187	7.0
7.202	9.0
7.217	10.0
7.232	9.0
7.247	12.0
7.262	6.0
7.277	7.0
7.292	7.0
7.307	5.0
7.322	8.0
7.336	11.0
7.351	10.0
7.366	6.0
7.381	3.0
7.396	12.0
7.411	9.0
7.426	9.0
7.441	7.0
7.456	10.0
7.471	11.0
7.485	3.0
7.5	13.0
7.515	13.0
7.53	7.0
7.545	9.0
7.56	7.0
7.575	6.0
7.59	5.0
7.604	8.0
7.619	10.0
7.634	1.0
7.649	9.0
7.664	9.0
7.679	9.0
7.693	13.0
7.708	10.0
7.723	8.0
7.738	7.0
7.753	8.0
7.768	10.0
7.783	10.0
7.797	10.0
7.812	15.0
7.827	10.0
7.842	10.0
7.857	15.0
7.871	8.0
7.886	12.0
7.901	11.0
7.916	5.0
7.931	9.0
7.945	15.0
7.96	10.0
7.975	9.0
7.99	3.0
8.005	10.0
8.019	7.0
8.034	7.0
8.049	4.0
8.064	5.0
8.078	13.0
8.093	8.0
8.108	9.0
8.123	7.0
8.137	10.0
8.152	6.0
8.167	9.0
8.182	16.0
8.196	7.0
8.211	11.0
8.226	14.0
8.241	11.0
8.255	6.0
8.27	10.0
8.285	7.0
8.3	9.0
8.314	9.0
8.329	10.0
8.344	6.0
8.358	9.0
8.373	6.0
8.388	10.0
8.403	11.0
8.417	11.0
8.432	7.0
8.447	8.0
8.461	4.0
8.476	11.0
8.491	8.0
8.505	5.0
8.52	8.0
8.535	8.0
8.55	11.0
8.564	7.0
8.579	12.0
8.594	13.0
8.608	10.0
8.623	7.0
8.638	10.0
8.652	15.0
8.667	7.0
8.682	14.0
8.696	10.0
8.711	9.0
8.726	8.0
8.74	14.0
8.755	9.0
8.77	9.0
8.784	8.0
8.799	6.0
8.814	7.0
8.828	6.0
8.843	5.0
8.858	9.0
8.872	9.0
8.887	8.0
8.902	18.0
8.916	6.0
8.931	8.0
8.946	4.0
8.96	4.0
8.975	7.0
8.99	7.0
9.004	9.0
9.019	13.0
9.034	6.0
9.048	8.0
9.063	13.0
9.077	9.0
9.092	13.0
9.107	9.0
9.121	13.0
9.136	13.0
9.151	7.0
9.165	5.0
9.18	11.0
9.195	9.0
9.209	7.0
9.224	8.0
9.239	8.0
9.253	8.0
9.268	5.0
9.283	6.0
9.297	12.0
9.312	9.0
9.327	4.0
9.341	10.0
9.356	11.0
9.371	13.0
9.385	9.0
9.4	8.0
9.415	13.0
9.429	6.0
9.444	12.0
9.458	9.0
9.473	8.0
9.488	7.0
9.502	8.0
9.517	14.0
9.532	12.0
9.546	10.0
9.561	11.0
9.576	4.0
9.59	10.0
9.605	15.0
9.62	10.0
9.635	8.0
9.649	15.0
9.664	15.0
9.679	5.0
9.693	8.0
9.708	6.0
9.723	4.0
9.737	5.0
9.752	3.0
9.767	7.0
9.781	12.0
9.796	7.0
9.811	8.0
9.825	6.0
9.84	8.0
9.855	2.0
9.87	5.0
9.884	12.0
9.899	9.0
9.914	12.0
9.928	8.0
9.943	6.0
9.958	14.0
9.973	4.0
9.987	10.0
10.002	10.0
10.017	9.0
10.031	17.0
10.046	7.0
10.061	8.0
10.076	8.0
10.09	5.0
10.105	9.0
10.12	9.0
10.135	3.0
10.149	8.0
10.164	9.0
10.179	7.0
10.194	5.0
10.208	6.0
10.223	5.0
10.238	7.0
10.253	10.0
10.267	8.0
10.282	13.0
10.297	9.0
10.312	12.0
10.326	8.0
10.341	7.0
10.356	5.0
10.371	9.0
10.386	8.0
10.4	5.0
10.415	9.0
10.43	2.0
10.445	9.0
10.46	1.0
10.474	10.0
10.489	11.0
10.504	6.0
10.519	9.0
10.533	10.0
10.548	4.0
10.563	4.0
10.578	9.0
10.593	8.0
10.608	7.0
10.622	9.0
10.637	7.0
10.652	16.0
10.667	8.0
10.682	8.0
10.696	12.0
10.711	10.0
10.726	11.0
10.741	3.0
10.756	11.0
10.771	13.0
10.785	3.0
10.8	10.0
10.815	10.0
10.83	9.0
10.845	8.0
10.86	6.0
10.874	10.0
10.889	8.0
10.904	7.0
10.919	10.0
10.934	5.0
10.949	6.0
10.963	9.0
10.978	8.0
10.993	4.0
11.008	9.0
11.023	8.0
11.038	10.0
11.053	11.0
11.067	4.0
11.082	9.0
11.097	7.0
11.112	7.0
11.127	11.0
11.142	6.0
11.157	5.0
11.172	7.0
11.186	10.0
11.201	11.0
11.216	11.0
11.231	9.0
11.246	4.0
11.261	8.0
11.276	8.0
11.291	8.0
11.305	9.0
11.32	6.0
11.335	6.0
11.35	14.0
11.365	7.0
11.38	10.0
11.395	6.0
11.41	7.0
11.424	11.0
11.439	9.0
11.454	8.0
11.469	7.0
11.484	14.0
11.499	14.0
11.514	3.0
11.529	5.0
11.544	9.0
11.558	6.0
11.573	7.0
11.588	7.0
11.603	7.0
11.618	6.0
11.633	9.0
11.648	6.0
11.663	11.0
11.678	7.0
11.693	5.0
11.707	8.0
11.722	5.0
11.737	3.0
11.752	13.0
11.767	10.0
11.782	16.0
11.797	6.0
11.812	8.0
11.827	3.0
11.842	8.0
11.856	7.0
11.871	13.0
11.886	7.0
11.901	11.0
11.916	5.0
11.931	15.0
11.946	9.0
11.961	14.0
11.976	9.0
11.991	11.0
12.006	10.0
12.02	15.0
12.035	9.0
12.05	12.0
12.065	10.0
12.08	13.0
12.095	9.0
12.11	11.0
12.125	9.0
12.14	9.0
12.155	17.0
12.17	7.0
12.184	11.0
12.199	6.0
12.214	17.0
12.229	14.0
12.244	15.0
12.259	13.0
12.274	10.0
12.289	15.0
12.304	12.0
12.319	6.0
12.334	7.0
12.348	11.0
12.363	14.0
12.378	8.0
12.393	10.0
12.408	19.0
12.423	14.0
12.438	17.0
12.453	25.0
12.468	10.0
12.483	15.0
12.498	7.0
12.513	15.0
12.527	4.0
12.542	13.0
12.557	6.0
12.572	14.0
12.587	9.0
12.602	16.0
12.617	14.0
12.632	12.0
12.647	10.0
12.662	10.0
12.677	15.0
12.692	14.0
12.707	14.0
12.721	15.0
12.736	10.0
12.751	14.0
12.766	10.0
12.781	9.0
12.796	16.0
12.811	10.0
12.826	16.0
12.841	12.0
12.856	22.0
12.871	17.0
12.886	14.0
12.9	13.0
12.915	14.0
12.93	17.0
12.945	13.0
12.96	12.0
12.975	17.0
12.99	14.0
13.005	12.0
13.02	20.0
13.035	19.0
13.05	15.0
13.065	22.0
13.08	10.0
13.094	20.0
13.109	21.0
13.124	30.0
13.139	20.0
13.154	11.0
13.169	18.0
13.184	17.0
13.199	17.0
13.214	16.0
13.229	7.0
13.244	18.0
13.259	13.0
13.274	29.0
13.288	16.0
13.303	26.0
13.318	22.0
13.333	21.0
13.348	18.0
13.363	15.0
13.378	36.0
13.393	34.0
13.408	33.0
13.423	26.0
13.438	29.0
13.453	27.0
13.468	37.0
13.482	36.0
13.497	35.0
13.512	35.0
13.527	40.0
13.542	54.0
13.557	58.0
13.572	48.0
13.587	67.0
13.602	48.0
13.617	63.0
13.632	70.0
13.647	69.0
13.662	86.0
13.677	78.0
13.691	84.0
13.706	94.0
13.721	101.0
13.736	88.0
13.751	108.0
13.766	107.0
13.781	126.0
13.796	138.0
13.811	153.0
13.826	142.0
13.841	138.0
13.856	131.0
13.871	129.0
13.885	100.0
13.9	101.0
13.915	82.0
13.93	75.0
13.945	50.0
13.96	53.0
13.975	42.0
13.99	43.0
14.005	35.0
14.02	34.0
14.035	24.0
14.05	37.0
14.065	19.0
14.08	29.0
14.094	24.0
14.109	26.0
14.124	30.0
14.139	23.0
14.154	20.0
14.169	33.0
14.184	27.0
14.199	27.0
14.214	24.0
14.229	21.0
14.244	15.0
14.259	23.0
14.274	18.0
14.288	21.0
14.303	30.0
14.318	22.0
14.333	22.0
14.348	27.0
14.363	27.0
14.378	21.0
14.393	15.0
14.408	16.0
14.423	19.0
14.438	18.0
14.453	17.0
14.468	15.0
14.482	17.0
14.497	26.0
14.512	20.0
14.527	19.0
14.542	18.0
14.557	10.0
14.572	17.0
14.587	16.0
14.602	16.0
14.617	19.0
14.632	11.0
14.647	13.0
14.661	13.0
14.676	16.0
14.691	16.0
14.706	14.0
14.721	17.0
14.736	20.0
14.751	15.0
14.766	16.0
14.781	14.0
14.796	22.0
14.811	14.0
14.826	18.0
14.84	19.0
14.855	19.0
14.87	11.0
14.885	13.0
14.9	14.0
14.915	18.0
14.93	17.0
14.945	18.0
14.96	18.0
14.975	15.0
14.989	18.0
15.004	22.0
15.019	14.0
15.034	18.0
15.049	6.0
15.064	14.0
15.079	12.0
15.094	17.0
15.109	13.0
15.124	21.0
15.138	16.0
15.153	15.0
15.168	20.0
15.183	18.0
15.198	20.0
15.213	24.0
15.228	15.0
15.243	15.0
15.258	15.0
15.272	12.0
15.287	12.0
15.302	16.0
15.317	17.0
15.332	17.0
15.347	20.0
15.362	13.0
15.377	13.0
15.391	16.0
15.406	21.0
15.421	16.0
15.436	25.0
15.451	14.0
15.466	11.0
15.481	16.0
15.496	17.0
15.51	9.0
15.525	13.0
15.54	15.0
15.555	16.0
15.57	9.0
15.585	15.0
15.6	14.0
15.614	12.0
15.629	16.0
15.644	18.0
15.659	16.0
15.674	15.0
15.689	15.0
15.704	18.0
15.718	18.0
15.733	22.0
15.748	10.0
15.763	23.0
15.778	9.0
15.793	11.0
15.808	5.0
15.822	14.0
15.837	22.0
15.852	13.0
15.867	16.0
15.882	13.0
15.897	15.0
15.911	13.0
15.926	9.0
15.941	13.0
15.956	15.0
15.971	19.0
15.986	16.0
16.0	14.0
16.015	18.0
16.03	16.0
16.045	12.0
16.06	5.0
16.074	12.0
16.089	14.0
16.104	15.0
16.119	13.0
16.134	14.0
16.149	23.0
16.163	15.0
16.178	16.0
16.193	16.0
16.208	20.0
16.223	19.0
16.237	18.0
16.252	14.0
16.267	11.0
16.282	11.0
16.297	20.0
16.311	14.0
16.326	14.0
16.341	14.0
16.356	9.0
16.37	11.0
16.385	15.0
16.4	13.0
16.415	15.0
16.43	16.0
16.444	13.0
16.459	13.0
16.474	11.0
16.489	19.0
16.504	15.0
16.518	20.0
16.533	18.0
16.548	12.0
16.563	17.0
16.577	16.0
16.592	16.0
16.607	16.0
16.622	17.0
16.637	20.0
16.651	16.0
16.666	20.0
16.681	18.0
16.696	26.0
16.71	26.0
16.725	32.0
16.74	37.0
16.755	36.0
16.77	45.0
16.784	23.0
16.799	42.0
16.814	36.0
16.829	42.0
16.843	51.0
16.858	43.0
16.873	44.0
16.888	61.0
16.902	63.0
16.917	73.0
16.932	69.0
16.947	81.0
16.961	81.0
16.976	65.0
16.991	69.0
17.006	70.0
17.021	58.0
17.035	58.0
17.05	47.0
17.065	47.0
17.08	50.0
17.094	28.0
17.109	24.0
17.124	22.0
17.139	14.0
17.153	19.0
17.168	10.0
17.183	13.0
17.198	17.0
17.212	9.0
17.227	15.0
17.242	12.0
17.257	21.0
17.271	13.0
17.286	15.0
17.301	19.0
17.316	17.0
17.33	16.0
17.345	15.0
17.36	20.0
17.375	15.0
17.39	13.0
17.404	16.0
17.419	15.0
17.434	15.0
17.449	13.0
17.463	12.0
17.478	10.0
17.493	17.0
17.508	11.0
17.522	13.0
17.537	16.0
17.552	14.0
17.567	14.0
17.581	18.0
17.596	8.0
17.611	6.0
17.626	12.0
17.641	10.0
17.655	13.0
17.67	19.0
17.685	24.0
17.7	14.0
17.714	16.0
17.729	17.0
17.744	14.0
17.759	12.0
17.773	19.0
17.788	9.0
17.803	13.0
17.818	9.0
17.833	12.0
17.847	12.0
17.862	8.0
17.877	16.0
17.892	24.0
17.906	11.0
17.921	13.0
17.936	15.0
17.951	10.0
17.966	10.0
17.98	12.0
17.995	18.0
18.01	13.0
18.025	10.0
18.04	11.0
18.054	14.0
18.069	13.0
18.084	15.0
18.099	15.0
18.114	12.0
18.128	11.0
18.143	9.0
18.158	15.0
18.173	12.0
18.188	7.0
18.202	14.0
18.217	13.0
18.232	12.0
18.247	12.0
18.262	10.0
18.276	16.0
18.291	14.0
18.306	18.0
18.321	13.0
18.336	12.0
18.35	11.0
18.365	9.0
18.38	11.0
18.395	10.0
18.41	13.0
18.424	18.0
18.439	14.0
18.454	9.0
18.469	10.0
18.484	9.0
18.498	6.0
18.513	14.0
18.528	13.0
18.543	13.0
18.558	9.0
18.573	5.0
18.587	8.0
18.602	15.0
18.617	15.0
18.632	13.0
18.647	16.0
18.661	8.0
18.676	13.0
18.691	10.0
18.706	13.0
18.721	11.0
18.736	11.0
18.75	12.0
18.765	10.0
18.78	10.0
18.795	10.0
18.81	6.0
18.825	18.0
18.839	9.0
18.854	7.0
18.869	11.0
18.884	14.0
18.899	11.0
18.913	10.0
18.928	12.0
18.943	5.0
18.958	12.0
18.973	19.0
18.988	10.0
19.002	11.0
19.017	16.0
19.032	12.0
19.047	9.0
19.062	10.0
19.077	11.0
19.091	13.0
19.106	20.0
19.121	17.0
19.136	14.0
19.151	21.0
19.165	8.0
19.18	16.0
19.195	11.0
19.21	17.0
19.225	10.0
19.24	9.0
19.254	10.0
19.269	18.0
19.284	10.0
19.299	9.0
19.314	17.0
19.329	14.0
19.343	11.0
19.358	12.0
19.373	21.0
19.388	14.0
19.403	23.0
19.417	20.0
19.432	25.0
19.447	24.0
19.462	23.0
19.477	32.0
19.492	37.0
19.506	33.0
19.521	32.0
19.536	35.0
19.551	31.0
19.566	45.0
19.58	44.0
19.595	36.0
19.61	32.0
19.625	47.0
19.64	38.0
19.655	30.0
19.669	50.0
19.684	41.0
19.699	38.0
19.714	31.0
19.729	29.0
19.743	24.0
19.758	19.0
19.773	22.0
19.788	22.0
19.803	16.0
19.817	17.0
19.832	18.0
19.847	20.0
19.862	14.0
19.877	11.0
19.891	10.0
19.906	15.0
19.921	16.0
19.936	11.0
19.951	22.0
19.965	17.0
19.98	14.0
19.995	13.0
20.01	11.0
20.025	16.0
20.039	10.0
20.054	9.0
20.069	8.0
20.084	11.0
20.099	17.0
20.113	19.0
20.128	10.0
20.143	10.0
20.158	15.0
20.173	16.0
20.187	11.0
20.202	11.0
20.217	12.0
20.232	7.0
20.246	20.0
20.261	13.0
20.276	17.0
20.291	2.0
20.306	6.0
20.32	9.0
20.335	12.0
20.35	13.0
20.365	12.0
20.38	11.0
20.394	17.0
20.409	9.0
20.424	11.0
20.439	8.0
20.453	11.0
20.468	6.0
20.483	8.0
20.498	8.0
20.513	13.0
20.527	14.0
20.542	8.0
20.557	13.0
20.572	10.0
20.586	9.0
20.601	11.0
20.616	13.0
20.631	5.0
20.646	8.0
20.66	11.0
20.675	10.0
20.69	14.0
20.705	10.0
20.719	8.0
20.734	9.0
20.749	13.0
20.764	14.0
20.779	13.0
20.793	10.0
20.808	10.0
20.823	14.0
20.838	11.0
20.853	7.0
20.867	11.0
20.882	11.0
20.897	9.0
20.912	12.0
20.926	17.0
20.941	10.0
20.956	10.0
20.971	13.0
20.986	8.0
21.0	9.0
21.015	10.0
21.03	10.0
21.045	14.0
21.06	13.0
21.074	13.0
21.089	7.0
21.104	14.0
21.119	12.0
21.134	14.0
21.148	7.0
21.163	13.0
21.178	13.0
21.193	9.0
21.208	21.0
21.222	13.0
21.237	8.0
21.252	10.0
21.267	24.0
21.282	7.0
21.296	9.0
21.311	10.0
21.326	11.0
21.341	13.0
21.356	12.0
21.37	14.0
21.385	13.0
21.4	14.0
21.415	9.0
21.43	12.0
21.444	11.0
21.459	15.0
21.474	24.0
21.489	21.0
21.504	18.0
21.519	11.0
21.533	12.0
21.548	12.0
21.563	17.0
21.578	10.0
21.593	16.0
21.608	16.0
21.622	21.0
21.637	15.0
21.652	18.0
21.667	27.0
21.682	18.0
21.697	24.0
21.712	16.0
21.726	20.0
21.741	29.0
21.756	25.0
21.771	27.0
21.786	33.0
21.801	32.0
21.816	44.0
21.83	43.0
21.845	45.0
21.86	56.0
21.875	50.0
21.89	63.0
21.905	89.0
21.92	86.0
21.935	70.0
21.949	79.0
21.964	73.0
21.979	69.0
21.994	83.0
22.009	66.0
22.024	60.0
22.039	56.0
22.054	61.0
22.069	59.0
22.083	38.0
22.098	62.0
22.113	41.0
22.128	24.0
22.143	28.0
22.158	28.0
22.173	23.0
22.188	18.0
22.203	24.0
22.218	12.0
22.233	9.0
22.248	14.0
22.262	14.0
22.277	11.0
22.292	12.0
22.307	12.0
22.322	15.0
22.337	16.0
22.352	14.0
22.367	9.0
22.382	6.0
22.397	10.0
22.412	14.0
22.427	14.0
22.442	15.0
22.457	16.0
22.472	10.0
22.487	15.0
22.502	15.0
22.516	15.0
22.531	12.0
22.546	13.0
22.561	16.0
22.576	9.0
22.591	10.0
22.606	8.0
22.621	11.0
22.636	14.0
22.651	9.0
22.666	7.0
22.681	11.0
22.696	10.0
22.711	11.0
22.726	7.0
22.741	10.0
22.756	10.0
22.771	14.0
22.786	9.0
22.801	13.0
22.816	9.0
22.831	8.0
22.846	10.0
22.861	9.0
22.876	12.0
22.891	11.0
22.906	9.0
22.92	13.0
22.935	17.0
22.95	11.0
22.965	17.0
22.98	17.0
22.995	9.0
23.01	15.0
23.025	14.0
23.04	15.0
23.055	7.0
23.07	14.0
23.085	14.0
23.1	4.0
23.115	11.0
23.13	9.0
23.145	8.0
23.16	11.0
23.175	17.0
23.19	10.0
23.205	16.0
23.22	9.0
23.235	9.0
23.25	11.0
23.265	12.0
23.28	7.0
23.295	13.0
23.31	11.0
23.325	11.0
23.34	9.0
23.355	3.0
23.37	9.0
23.384	9.0
23.399	14.0
23.414	11.0
23.429	14.0
23.444	8.0
23.459	14.0
23.474	16.0
23.489	14.0
23.504	9.0
23.519	5.0
23.534	10.0
23.549	8.0
23.564	9.0
23.579	14.0
23.594	10.0
23.609	18.0
23.624	9.0
23.639	8.0
23.654	10.0
23.668	14.0
23.683	11.0
23.698	11.0
23.713	6.0
23.728	12.0
23.743	17.0
23.758	15.0
23.773	16.0
23.788	18.0
23.803	18.0
23.818	11.0
23.833	17.0
23.848	17.0
23.862	15.0
23.877	14.0
23.892	25.0
23.907	20.0
23.922	18.0
23.937	22.0
23.952	27.0
23.967	42.0
23.982	25.0
23.997	44.0
24.011	47.0
24.026	48.0
24.041	55.0
24.056	54.0
24.071	57.0
24.086	43.0
24.101	52.0
24.116	51.0
24.131	29.0
24.145	38.0
24.16	48.0
24.175	31.0
24.19	36.0
24.205	37.0
24.22	31.0
24.235	30.0
24.249	29.0
24.264	24.0
24.279	23.0
24.294	31.0
24.309	20.0
24.324	17.0
24.338	12.0
24.353	19.0
24.368	14.0
24.383	17.0
24.398	13.0
24.413	9.0
24.428	10.0
24.442	16.0
24.457	15.0
24.472	10.0
24.487	13.0
24.502	11.0
24.516	13.0
24.531	14.0
24.546	8.0
24.561	11.0
24.576	9.0
24.591	14.0
24.605	10.0
24.62	8.0
24.635	6.0
24.65	12.0
24.665	9.0
24.679	14.0
24.694	14.0
24.709	9.0
24.724	5.0
24.739	14.0
24.753	9.0
24.768	10.0
24.783	11.0
24.798	12.0
24.813	7.0
24.827	13.0
24.842	8.0
24.857	13.0
24.872	16.0
24.886	12.0
24.901	5.0
24.916	8.0
24.931	12.0
24.946	13.0
24.96	10.0
24.975	13.0
24.99	15.0
25.005	9.0
25.019	11.0
25.034	8.0
25.049	11.0
25.064	9.0
25.078	9.0
25.093	9.0
25.108	12.0
25.123	9.0
25.138	15.0
25.152	8.0
25.167	9.0
25.182	5.0
25.197	12.0
25.211	7.0
25.226	17.0
25.241	6.0
25.256	12.0
25.27	9.0
25.285	13.0
25.3	7.0
25.315	7.0
25.329	13.0
25.344	7.0
25.359	9.0
25.374	11.0
25.388	10.0
25.403	8.0
25.418	13.0
25.433	7.0
25.447	10.0
25.462	15.0
25.477	15.0
25.492	11.0
25.506	7.0
25.521	10.0
25.536	10.0
25.55	4.0
25.565	9.0
25.58	17.0
25.595	10.0
25.609	6.0
25.624	9.0
25.639	9.0
25.654	10.0
25.668	14.0
25.683	9.0
25.698	6.0
25.713	9.0
25.727	7.0
25.742	11.0
25.757	5.0
25.772	10.0
25.786	12.0
25.801	10.0
25.816	8.0
25.83	7.0
25.845	12.0
25.86	8.0
25.875	6.0
25.889	16.0
25.904	11.0
25.919	10.0
25.934	6.0
25.948	9.0
25.963	12.0
25.978	8.0
25.992	10.0
26.007	12.0
26.022	3.0
26.037	7.0
26.051	7.0
26.066	13.0
26.081	8.0
26.096	15.0
26.11	9.0
26.125	7.0
26.14	5.0
26.155	13.0
26.169	12.0
26.184	14.0
26.199	9.0
26.213	13.0
26.228	7.0
26.243	8.0
26.258	12.0
26.272	16.0
26.287	11.0
26.302	11.0
26.317	8.0
26.331	10.0
26.346	13.0
26.361	9.0
26.376	13.0
26.39	8.0
26.405	8.0
26.42	11.0
26.434	8.0
26.449	13.0
26.464	17.0
26.479	6.0
26.493	11.0
26.508	11.0
26.523	10.0
26.538	17.0
26.552	4.0
26.567	5.0
26.582	11.0
26.597	11.0
26.611	7.0
26.626	10.0
26.641	14.0
26.656	10.0
26.67	5.0
26.685	8.0
26.7	13.0
26.715	7.0
26.729	8.0
26.744	7.0
26.759	14.0
26.773	11.0
26.788	11.0
26.803	15.0
26.818	8.0
26.832	10.0
26.847	17.0
26.862	7.0
26.877	6.0
26.891	3.0
26.906	10.0
26.921	11.0
26.936	4.0
26.95	19.0
26.965	15.0
26.98	8.0
26.995	9.0
27.01	9.0
27.024	9.0
27.039	11.0
27.054	12.0
27.069	8.0
27.083	12.0
27.098	9.0
27.113	11.0
27.128	18.0
27.142	10.0
27.157	8.0
27.172	13.0
27.187	6.0
27.201	12.0
27.216	9.0
27.231	9.0
27.246	8.0
27.261	14.0
27.275	6.0
27.29	12.0
27.305	10.0
27.32	11.0
27.334	9.0
27.349	6.0
27.364	6.0
27.379	8.0
27.394	6.0
27.408	15.0
27.423	4.0
27.438	10.0
27.453	12.0
27.467	11.0
27.482	10.0
27.497	4.0
27.512	16.0
27.527	10.0
27.541	16.0
27.556	13.0
27.571	15.0
27.586	11.0
27.601	8.0
27.615	9.0
27.63	10.0
27.645	9.0
27.66	18.0
27.675	13.0
27.689	21.0
27.704	17.0
27.719	10.0
27.734	12.0
27.749	13.0
27.763	14.0
27.778	19.0
27.793	21.0
27.808	16.0
27.823	24.0
27.838	31.0
27.852	29.0
27.867	36.0
27.882	26.0
27.897	21.0
27.912	24.0
27.926	28.0
27.941	12.0
27.956	15.0
27.971	20.0
27.986	16.0
28.001	25.0
28.015	19.0
28.03	20.0
28.045	19.0
28.06	16.0
28.075	13.0
28.09	17.0
28.105	25.0
28.119	12.0
28.134	10.0
28.149	9.0
28.164	6.0
28.179	10.0
28.194	14.0
28.208	12.0
28.223	8.0
28.238	9.0
28.253	8.0
28.268	7.0
28.283	10.0
28.298	8.0
28.312	9.0
28.327	7.0
28.342	13.0
28.357	13.0
28.372	11.0
28.387	9.0
28.402	9.0
28.417	12.0
28.431	9.0
28.446	9.0
28.461	10.0
28.476	10.0
28.491	5.0
28.506	6.0
28.521	9.0
28.536	5.0
28.55	10.0
28.565	14.0
28.58	10.0
28.595	8.0
28.61	8.0
28.625	9.0
28.64	8.0
28.655	6.0
28.669	15.0
28.684	12.0
28.699	13.0
28.714	9.0
28.729	11.0
28.744	10.0
28.759	11.0
28.774	9.0
28.788	16.0
28.803	7.0
28.818	8.0
28.833	5.0
28.848	13.0
28.863	13.0
28.878	15.0
28.893	7.0
28.908	11.0
28.922	11.0
28.937	8.0
28.952	7.0
28.967	11.0
28.982	11.0
28.997	10.0
29.012	12.0
29.027	20.0
29.041	18.0
29.056	10.0
29.071	13.0
29.086	4.0
29.101	8.0
29.116	10.0
29.131	12.0
29.146	10.0
29.16	7.0
29.175	20.0
29.19	13.0
29.205	3.0
29.22	13.0
29.235	11.0
29.25	4.0
29.265	8.0
29.279	15.0
29.294	16.0
29.309	9.0
29.324	14.0
29.339	15.0
29.354	16.0
29.369	17.0
29.384	18.0
29.398	13.0
29.413	22.0
29.428	22.0
29.443	27.0
29.458	22.0
29.473	23.0
29.488	26.0
29.502	27.0
29.517	33.0
29.532	27.0
29.547	45.0
29.562	40.0
29.577	42.0
29.592	61.0
29.606	49.0
29.621	43.0
29.636	44.0
29.651	52.0
29.666	44.0
29.681	39.0
29.695	38.0
29.71	41.0
29.725	26.0
29.74	29.0
29.755	43.0
29.77	26.0
29.784	34.0
29.799	30.0
29.814	25.0
29.829	30.0
29.844	29.0
29.859	20.0
29.873	19.0
29.888	14.0
29.903	19.0
29.918	13.0
29.933	16.0
29.947	18.0
29.962	15.0
29.977	8.0
29.992	14.0
30.007	17.0
30.021	14.0
30.036	7.0
30.051	18.0
30.066	17.0
30.081	9.0
30.095	16.0
30.11	9.0
30.125	14.0
30.14	14.0
30.155	13.0
30.169	21.0
30.184	10.0
30.199	18.0
30.214	15.0
30.228	12.0
30.243	15.0
30.258	8.0
30.273	9.0
30.288	8.0
30.302	10.0
30.317	11.0
30.332	14.0
30.347	10.0
30.361	18.0
30.376	14.0
30.391	12.0
30.406	12.0
30.42	15.0
30.435	15.0
30.45	9.0
30.465	11.0
30.479	12.0
30.494	14.0
30.509	11.0
30.524	13.0
30.538	15.0
30.553	10.0
30.568	23.0
30.583	13.0
30.597	10.0
30.612	12.0
30.627	9.0
30.641	10.0
30.656	16.0
30.671	10.0
30.686	7.0
30.7	10.0
30.715	7.0
30.73	11.0
30.745	9.0
30.759	17.0
30.774	7.0
30.789	13.0
30.803	16.0
30.818	15.0
30.833	7.0
30.848	12.0
30.862	12.0
30.877	14.0
30.892	6.0
30.906	14.0
30.921	13.0
30.936	9.0
30.951	10.0
30.965	14.0
30.98	15.0
30.995	8.0
31.009	9.0
31.024	10.0
31.039	8.0
31.053	21.0
31.068	13.0
31.083	16.0
31.098	18.0
31.112	15.0
31.127	18.0
31.142	15.0
31.156	23.0
31.171	26.0
31.186	25.0
31.2	24.0
31.215	37.0
31.23	26.0
31.245	23.0
31.259	39.0
31.274	33.0
31.289	41.0
31.303	30.0
31.318	28.0
31.333	22.0
31.347	31.0
31.362	28.0
31.377	22.0
31.392	25.0
31.406	19.0
31.421	19.0
31.436	23.0
31.45	21.0
31.465	27.0
31.48	25.0
31.494	16.0
31.509	19.0
31.524	12.0
31.538	17.0
31.553	13.0
31.568	17.0
31.583	13.0
31.597	14.0
31.612	13.0
31.627	12.0
31.641	13.0
31.656	13.0
31.671	18.0
31.685	10.0
31.7	9.0
31.715	19.0
31.729	9.0
31.744	12.0
31.759	13.0
31.774	11.0
31.788	10.0
31.803	16.0
31.818	10.0
31.832	7.0
31.847	3.0
31.862	18.0
31.876	16.0
31.891	11.0
31.906	11.0
31.92	14.0
31.935	10.0
31.95	8.0
31.965	5.0
31.979	10.0
31.994	14.0
32.009	14.0
32.023	9.0
32.038	13.0
32.053	6.0
32.067	6.0
32.082	17.0
32.097	6.0
32.112	9.0
32.126	16.0
32.141	13.0
32.156	8.0
32.17	8.0
32.185	10.0
32.2	9.0
32.214	14.0
32.229	17.0
32.244	9.0
32.259	4.0
32.273	15.0
32.288	10.0
32.303	16.0
32.317	10.0
32.332	8.0
32.347	11.0
32.362	19.0
32.376	9.0
32.391	14.0
32.406	6.0
32.42	16.0
32.435	8.0
32.45	6.0
32.465	18.0
32.479	8.0
32.494	8.0
32.509	8.0
32.523	7.0
32.538	13.0
32.553	9.0
32.568	8.0
32.582	11.0
32.597	8.0
32.612	15.0
32.627	17.0
32.641	10.0
32.656	13.0
32.671	16.0
32.685	18.0
32.7	15.0
32.715	21.0
32.73	18.0
32.744	22.0
32.759	24.0
32.774	19.0
32.788	30.0
32.803	28.0
32.818	29.0
32.833	28.0
32.847	29.0
32.862	21.0
32.877	28.0
32.892	28.0
32.906	25.0
32.921	22.0
32.936	22.0
32.951	14.0
32.965	14.0
32.98	16.0
32.995	12.0
33.009	21.0
33.024	22.0
33.039	23.0
33.054	21.0
33.068	14.0
33.083	11.0
33.098	20.0
33.113	18.0
33.127	14.0
33.142	12.0
33.157	11.0
33.172	14.0
33.186	13.0
33.201	10.0
33.216	6.0
33.231	11.0
33.245	8.0
33.26	8.0
33.275	11.0
33.29	5.0
33.304	7.0
33.319	7.0
33.334	4.0
33.349	11.0
33.363	10.0
33.378	11.0
33.393	15.0
33.408	10.0
33.422	7.0
33.437	4.0
33.452	9.0
33.467	10.0
33.481	5.0
33.496	10.0
33.511	15.0
33.526	8.0
33.54	5.0
33.555	4.0
33.57	7.0
33.585	10.0
33.599	9.0
33.614	6.0
33.629	8.0
33.644	14.0
33.658	10.0
33.673	9.0
33.688	7.0
33.703	8.0
33.718	13.0
33.732	6.0
33.747	6.0
33.762	11.0
33.777	5.0
33.791	16.0
33.806	9.0
33.821	4.0
33.836	8.0
33.85	10.0
33.865	12.0
33.88	8.0
33.895	8.0
33.91	8.0
33.924	17.0
33.939	8.0
33.954	8.0
33.969	9.0
33.983	6.0
33.998	13.0
34.013	9.0
34.028	4.0
34.042	13.0
34.057	10.0
34.072	12.0
34.087	10.0
34.102	8.0
34.116	16.0
34.131	9.0
34.146	16.0
34.161	15.0
34.175	13.0
34.19	8.0
34.205	9.0
34.22	9.0
34.235	10.0
34.249	14.0
34.264	12.0
34.279	18.0
34.294	15.0
34.309	13.0
34.323	11.0
34.338	16.0
34.353	9.0
34.368	12.0
34.382	14.0
34.397	18.0
34.412	13.0
34.427	10.0
34.442	9.0
34.456	7.0
34.471	10.0
34.486	8.0
34.501	14.0
34.516	10.0
34.53	7.0
34.545	9.0
34.56	12.0
34.575	13.0
34.59	6.0
34.604	9.0
34.619	16.0
34.634	10.0
34.649	5.0
34.664	8.0
34.678	8.0
34.693	14.0
34.708	9.0
34.723	8.0
34.738	10.0
34.752	7.0
34.767	14.0
34.782	9.0
34.797	9.0
34.812	10.0
34.826	10.0
34.841	3.0
34.856	6.0
34.871	11.0
34.886	14.0
34.9	8.0
34.915	6.0
34.93	9.0
34.945	8.0
34.96	8.0
34.974	18.0
34.989	8.0
35.004	11.0
35.019	13.0
35.034	12.0
35.048	11.0
35.063	9.0
35.078	4.0
35.093	10.0
35.108	2.0
35.122	10.0
35.137	8.0
35.152	9.0
35.167	13.0
35.182	9.0
35.196	8.0
35.211	11.0
35.226	3.0
35.241	13.0
35.256	10.0
35.27	6.0
35.285	10.0
35.3	11.0
35.315	10.0
35.33	7.0
35.344	15.0
35.359	9.0
35.374	7.0
35.389	9.0
35.404	7.0
35.418	13.0
35.433	11.0
35.448	9.0
35.463	7.0
35.478	4.0
35.493	9.0
35.507	9.0
35.522	9.0
35.537	8.0
35.552	9.0
35.567	9.0
35.581	7.0
35.596	6.0
35.611	15.0
35.626	13.0
35.641	12.0
35.655	13.0
35.67	12.0
35.685	10.0
35.7	7.0
35.715	15.0
35.729	16.0
35.744	14.0
35.759	24.0
35.774	16.0
35.789	19.0
35.804	17.0
35.818	26.0
35.833	19.0
35.848	10.0
35.863	18.0
35.878	16.0
35.892	21.0
35.907	19.0
35.922	13.0
35.937	7.0
35.952	13.0
35.966	23.0
35.981	17.0
35.996	16.0
36.011	18.0
36.026	11.0
36.04	8.0
36.055	15.0
36.07	12.0
36.085	10.0
36.1	8.0
36.114	8.0
36.129	5.0
36.144	7.0
36.159	12.0
36.174	11.0
36.189	7.0
36.203	7.0
36.218	15.0
36.233	9.0
36.248	7.0
36.263	8.0
36.277	9.0
36.292	6.0
36.307	6.0
36.322	6.0
36.337	7.0
36.351	10.0
36.366	9.0
36.381	9.0
36.396	5.0
36.411	6.0
36.426	9.0
36.44	7.0
36.455	11.0
36.47	10.0
36.485	7.0
36.5	5.0
36.514	8.0
36.529	13.0
36.544	10.0
36.559	10.0
36.574	15.0
36.589	9.0
36.603	9.0
36.618	10.0
36.633	7.0
36.648	8.0
36.663	10.0
36.677	8.0
36.692	5.0
36.707	7.0
36.722	11.0
36.737	13.0
36.752	11.0
36.766	12.0
36.781	12.0
36.796	12.0
36.811	7.0
36.826	10.0
36.841	4.0
36.855	9.0
36.87	10.0
36.885	3.0
36.9	12.0
36.915	4.0
36.93	8.0
36.944	5.0
36.959	14.0
36.974	12.0
36.989	6.0
37.004	9.0
37.019	9.0
37.033	10.0
37.048	16.0
37.063	16.0
37.078	20.0
37.093	23.0
37.108	13.0
37.123	30.0
37.137	31.0
37.152	24.0
37.167	32.0
37.182	21.0
37.197	35.0
37.212	30.0
37.226	21.0
37.241	15.0
37.256	21.0
37.271	16.0
37.286	23.0
37.301	18.0
37.316	16.0
37.331	19.0
37.345	11.0
37.36	17.0
37.375	28.0
37.39	16.0
37.405	23.0
37.42	21.0
37.435	20.0
37.45	13.0
37.464	17.0
37.479	12.0
37.494	11.0
37.509	16.0
37.524	8.0
37.539	15.0
37.554	9.0
37.569	10.0
37.583	7.0
37.598	13.0
37.613	9.0
37.628	6.0
37.643	8.0
37.658	7.0
37.673	2.0
37.688	7.0
37.703	2.0
37.718	7.0
37.733	7.0
37.747	6.0
37.762	8.0
37.777	10.0
37.792	6.0
37.807	6.0
37.822	10.0
37.837	7.0
37.852	5.0
37.867	3.0
37.882	7.0
37.897	16.0
37.912	4.0
37.927	4.0
37.941	8.0
37.956	12.0
37.971	9.0
37.986	7.0
38.001	5.0
38.016	9.0
38.031	8.0
38.046	10.0
38.061	7.0
38.076	5.0
38.091	7.0
38.106	7.0
38.121	4.0
38.136	2.0
38.151	8.0
38.166	13.0
38.181	5.0
38.196	6.0
38.211	7.0
38.226	7.0
38.241	9.0
38.256	6.0
38.271	10.0
38.285	5.0
38.3	8.0
38.315	0.0
38.33	5.0
38.345	7.0
38.36	7.0
38.375	7.0
38.39	10.0
38.405	4.0
38.42	5.0
38.435	9.0
38.45	4.0
38.465	5.0
38.48	5.0
38.495	8.0
38.51	3.0
38.525	8.0
38.54	8.0
38.555	5.0
38.57	6.0
38.585	5.0
38.6	3.0
38.615	9.0
38.63	1.0
38.645	4.0
38.66	7.0
38.675	7.0
38.69	9.0
38.705	9.0
38.72	3.0
38.735	3.0
38.75	9.0
38.765	7.0
38.78	2.0
38.795	12.0
38.81	5.0
38.825	12.0
38.84	6.0
38.855	9.0
38.87	1.0
38.885	9.0
38.9	2.0
38.915	6.0
38.93	7.0
38.945	4.0
38.96	3.0
38.975	12.0
38.99	7.0
39.005	10.0
39.02	8.0
39.035	1.0
39.05	5.0
39.065	6.0
39.08	6.0
39.095	6.0
39.11	4.0
39.125	4.0
39.14	6.0
39.155	6.0
39.17	2.0
39.185	3.0
39.2	4.0
39.215	7.0
39.23	3.0
39.245	11.0
39.26	9.0
39.275	4.0
39.29	6.0
39.305	8.0
39.32	5.0
39.335	6.0
39.35	6.0
39.365	9.0
39.38	3.0
39.395	5.0
39.409	6.0
39.424	11.0
39.439	6.0
39.454	2.0
39.469	7.0
39.484	7.0
39.499	4.0
39.514	5.0
39.529	9.0
39.544	7.0
39.559	4.0
39.574	6.0
39.589	6.0
39.604	5.0
39.619	13.0
39.634	8.0
39.649	5.0
39.664	7.0
39.678	10.0
39.693	4.0
39.708	2.0
39.723	4.0
39.738	6.0
39.753	5.0
39.768	9.0
39.783	9.0
39.798	13.0
39.813	6.0
39.827	7.0
39.842	13.0
39.857	7.0
39.872	7.0
39.887	7.0
39.902	9.0
39.917	11.0
39.932	7.0
39.947	3.0
39.961	7.0
39.976	5.0
39.991	8.0
40.006	8.0
40.021	6.0
40.036	7.0
40.051	8.0
40.065	6.0
40.08	5.0
40.095	7.0
40.11	6.0
40.125	6.0
40.14	15.0
40.154	10.0
40.169	6.0
40.184	6.0
40.199	2.0
40.214	7.0
40.228	8.0
40.243	8.0
40.258	4.0
40.273	4.0
40.288	8.0
40.302	5.0
40.317	4.0
40.332	6.0
40.347	5.0
40.362	2.0
40.376	9.0
40.391	5.0
40.406	7.0
40.421	3.0
40.436	5.0
40.45	3.0
40.465	6.0
40.48	1.0
40.495	5.0
40.509	12.0
40.524	10.0
40.539	7.0
40.554	10.0
40.568	4.0
40.583	5.0
40.598	10.0
40.613	7.0
40.627	2.0
40.642	6.0
40.657	5.0
40.672	7.0
40.686	8.0
40.701	4.0
40.716	7.0
40.731	2.0
40.745	3.0
40.76	7.0
40.775	16.0
40.79	4.0
40.804	8.0
40.819	6.0
40.834	3.0
40.849	3.0
40.863	7.0
40.878	7.0
40.893	11.0
40.907	3.0
40.922	7.0
40.937	6.0
40.952	8.0
40.966	8.0
40.981	9.0
40.996	4.0
41.011	11.0
41.025	11.0
41.04	7.0
41.055	8.0
41.069	16.0
41.084	17.0
41.099	20.0
41.114	18.0
41.128	22.0
41.143	22.0
41.158	22.0
41.173	13.0
41.187	14.0
41.202	16.0
41.217	20.0
41.231	10.0
41.246	15.0
41.261	19.0
41.276	11.0
41.29	11.0
41.305	14.0
41.32	9.0
41.335	4.0
41.349	15.0
41.364	13.0
41.379	14.0
41.393	12.0
41.408	9.0
41.423	19.0
41.438	10.0
41.452	14.0
41.467	8.0
41.482	11.0
41.497	10.0
41.511	6.0
41.526	12.0
41.541	7.0
41.556	7.0
41.57	8.0
41.585	1.0
41.6	5.0
41.615	5.0
41.629	5.0
41.644	9.0
41.659	5.0
41.674	6.0
41.688	6.0
41.703	4.0
41.718	7.0
41.733	5.0
41.747	2.0
41.762	2.0
41.777	3.0
41.792	6.0
41.806	4.0
41.821	7.0
41.836	8.0
41.851	14.0
41.866	2.0
41.88	3.0
41.895	6.0
41.91	7.0
41.925	9.0
41.939	8.0
41.954	6.0
41.969	5.0
41.984	6.0
41.999	5.0
42.013	4.0
42.028	8.0
42.043	8.0
42.058	9.0
42.073	6.0
42.088	8.0
42.102	5.0
42.117	6.0
42.132	6.0
42.147	8.0
42.162	8.0
42.176	4.0
42.191	7.0
42.206	15.0
42.221	6.0
42.236	7.0
42.251	7.0
42.266	9.0
42.28	12.0
42.295	11.0
42.31	10.0
42.325	13.0
42.34	19.0
42.355	10.0
42.369	19.0
42.384	14.0
42.399	10.0
42.414	17.0
42.429	15.0
42.444	20.0
42.459	13.0
42.474	11.0
42.488	16.0
42.503	6.0
42.518	10.0
42.533	7.0
42.548	10.0
42.563	2.0
42.578	10.0
42.593	10.0
42.608	10.0
42.622	14.0
42.637	13.0
42.652	15.0
42.667	13.0
42.682	14.0
42.697	11.0
42.712	19.0
42.727	4.0
42.742	7.0
42.757	9.0
42.772	4.0
42.786	5.0
42.801	5.0
42.816	4.0
42.831	5.0
42.846	9.0
42.861	4.0
42.876	2.0
42.891	7.0
42.906	8.0
42.921	7.0
42.936	6.0
42.951	5.0
42.966	3.0
42.981	5.0
42.996	2.0
43.011	5.0
43.025	8.0
43.04	6.0
43.055	1.0
43.07	10.0
43.085	6.0
43.1	7.0
43.115	3.0
43.13	3.0
43.145	7.0
43.16	2.0
43.175	6.0
43.19	6.0
43.205	4.0
43.22	7.0
43.235	6.0
43.25	5.0
43.265	4.0
43.28	3.0
43.295	7.0
43.31	4.0
43.325	3.0
43.34	12.0
43.355	7.0
43.37	7.0
43.385	8.0
43.4	4.0
43.415	6.0
43.43	7.0
43.445	4.0
43.46	5.0
43.475	7.0
43.49	7.0
43.505	7.0
43.52	8.0
43.535	7.0
43.55	8.0
43.565	6.0
43.58	6.0
43.595	13.0
43.61	12.0
43.625	9.0
43.64	16.0
43.655	7.0
43.67	6.0
43.685	10.0
43.7	5.0
43.715	7.0
43.73	2.0
43.745	7.0
43.76	9.0
43.775	5.0
43.79	6.0
43.805	8.0
43.82	7.0
43.835	6.0
43.85	12.0
43.865	9.0
43.88	5.0
43.895	3.0
43.91	11.0
43.925	11.0
43.94	3.0
43.955	6.0
43.97	7.0
43.985	8.0
44.0	2.0
44.015	6.0
44.03	8.0
44.045	9.0
44.061	5.0
44.076	3.0
44.091	4.0
44.106	3.0
44.121	11.0
44.136	8.0
44.151	2.0
44.166	6.0
44.181	7.0
44.196	8.0
44.211	7.0
44.226	2.0
44.241	11.0
44.256	9.0
44.271	8.0
44.286	6.0
44.301	8.0
44.316	3.0
44.331	5.0
44.346	5.0
44.361	2.0
44.377	5.0
44.392	5.0
44.407	6.0
44.422	3.0
44.437	4.0
44.452	6.0
44.467	6.0
44.482	2.0
44.497	8.0
44.512	2.0
44.527	5.0
44.542	1.0
44.557	6.0
44.572	7.0
44.587	2.0
44.602	9.0
44.617	10.0
44.632	10.0
44.647	4.0
44.663	5.0
44.678	2.0
44.693	6.0
44.708	10.0
44.723	9.0
44.738	5.0
44.753	9.0
44.768	3.0
44.783	10.0
44.798	11.0
44.813	22.0
44.828	11.0
44.843	12.0
44.858	5.0
44.873	8.0
44.888	9.0
44.903	9.0
44.918	5.0
44.933	5.0
44.948	6.0
44.964	2.0
44.979	6.0
44.994	7.0
45.009	3.0
45.024	8.0
45.039	11.0
45.054	9.0
45.069	8.0
45.084	15.0
45.099	14.0
45.114	13.0
45.129	12.0
45.144	1.0
45.159	10.0
45.174	4.0
45.189	7.0
45.204	7.0
45.219	10.0
45.234	5.0
45.249	4.0
45.264	5.0
45.279	4.0
45.294	4.0
45.309	3.0
45.324	5.0
45.339	8.0
45.354	3.0
45.369	3.0
45.384	11.0
45.399	2.0
45.414	7.0
45.429	1.0
45.444	8.0
45.459	6.0
45.474	3.0
45.489	8.0
45.504	6.0
45.519	9.0
45.534	4.0
45.549	9.0
45.564	1.0
45.579	9.0
45.594	3.0
45.609	7.0
45.624	5.0
45.639	11.0
45.654	8.0
45.669	5.0
45.684	7.0
45.699	7.0
45.714	3.0
45.729	3.0
45.744	9.0
45.759	5.0
45.774	2.0
45.789	6.0
45.804	6.0
45.819	6.0
45.834	9.0
45.849	6.0
45.864	10.0
45.879	10.0
45.894	9.0
45.909	12.0
45.924	13.0
45.939	21.0
45.954	17.0
45.969	22.0
45.984	22.0
45.998	17.0
46.013	19.0
46.028	16.0
46.043	11.0
46.058	15.0
46.073	13.0
46.088	17.0
46.103	5.0
46.118	4.0
46.133	4.0
46.148	6.0
46.163	8.0
46.178	10.0
46.192	3.0
46.207	10.0
46.222	9.0
46.237	11.0
46.252	10.0
46.267	11.0
46.282	12.0
46.297	12.0
46.312	6.0
46.327	7.0
46.341	12.0
46.356	10.0
46.371	5.0
46.386	10.0
46.401	11.0
46.416	8.0
46.431	2.0
46.446	3.0
46.46	7.0
46.475	4.0
46.49	5.0
46.505	7.0
46.52	4.0
46.535	3.0
46.55	6.0
46.564	3.0
46.579	4.0
46.594	4.0
46.609	3.0
46.624	5.0
46.639	9.0
46.654	6.0
46.668	4.0
46.683	4.0
46.698	7.0
46.713	7.0
46.728	5.0
46.743	2.0
46.758	4.0
46.772	4.0
46.787	5.0
46.802	4.0
46.817	3.0
46.832	5.0
46.847	3.0
46.861	6.0
46.876	7.0
46.891	3.0
46.906	6.0
46.921	7.0
46.936	8.0
46.95	3.0
46.965	4.0
46.98	7.0
46.995	0.0
47.01	5.0
47.025	4.0
47.039	5.0
47.054	5.0
47.069	11.0
47.084	6.0
47.099	8.0
47.113	9.0
47.128	15.0
47.143	13.0
47.158	11.0
47.173	11.0
47.188	6.0
47.202	10.0
47.217	8.0
47.232	5.0
47.247	8.0
47.262	3.0
47.277	4.0
47.291	7.0
47.306	7.0
47.321	4.0
47.336	4.0
47.351	10.0
47.365	6.0
47.38	9.0
47.395	4.0
47.41	8.0
47.425	9.0
47.44	7.0
47.454	5.0
47.469	3.0
47.484	7.0
47.499	5.0
47.514	6.0
47.528	7.0
47.543	5.0
47.558	8.0
47.573	4.0
47.588	8.0
47.603	8.0
47.617	2.0
47.632	4.0
47.647	7.0
47.662	3.0
47.677	5.0
47.691	11.0
47.706	4.0
47.721	6.0
47.736	3.0
47.751	7.0
47.766	1.0
47.78	6.0
47.795	3.0
47.81	5.0
47.825	5.0
47.84	1.0
47.855	6.0
47.869	1.0
47.884	2.0
47.899	5.0
47.914	3.0
47.929	1.0
47.944	3.0
47.958	3.0
47.973	9.0
47.988	3.0
48.003	4.0
48.018	4.0
48.033	4.0
48.047	7.0
48.062	6.0
48.077	2.0
48.092	4.0
48.107	4.0
48.122	2.0
48.137	3.0
48.151	5.0
48.166	3.0
48.181	1.0
48.196	0.0
48.211	4.0
48.226	5.0
48.241	7.0
48.255	2.0
48.27	1.0
48.285	2.0
48.3	4.0
48.315	2.0
48.33	7.0
48.345	7.0
48.359	1.0
48.374	3.0
48.389	5.0
48.404	3.0
48.419	6.0
48.434	1.0
48.449	9.0
48.464	1.0
48.478	2.0
48.493	2.0
48.508	3.0
48.523	3.0
48.538	5.0
48.553	4.0
48.568	6.0
48.583	3.0
48.597	3.0
48.612	4.0
48.627	7.0
48.642	4.0
48.657	2.0
48.672	4.0
48.687	4.0
48.702	3.0
48.717	1.0
48.731	5.0
48.746	5.0
48.761	1.0
48.776	3.0
48.791	4.0
48.806	5.0
48.821	5.0
48.836	6.0
48.851	6.0
48.866	5.0
48.88	3.0
48.895	4.0
48.91	1.0
48.925	1.0
48.94	6.0
48.955	3.0
48.97	4.0
48.985	3.0
49.0	2.0
49.015	3.0
49.03	3.0
49.044	5.0
49.059	3.0
49.074	7.0
49.089	2.0
49.104	6.0
49.119	3.0
49.134	3.0
49.149	3.0
49.164	4.0
49.179	5.0
49.194	4.0
49.209	7.0
49.224	6.0
49.238	6.0
49.253	4.0
49.268	7.0
49.283	7.0
49.298	5.0
49.313	7.0
49.328	6.0
49.343	8.0
49.358	11.0
49.373	7.0
49.388	11.0
49.403	10.0
49.418	7.0
49.433	6.0
49.448	7.0
49.463	10.0
49.478	10.0
49.492	10.0
49.507	2.0
49.522	2.0
49.537	4.0
49.552	5.0
49.567	9.0
49.582	3.0
49.597	7.0
49.612	5.0
49.627	5.0
49.642	5.0
49.657	2.0
49.672	7.0
49.687	5.0
49.702	4.0
49.717	5.0
49.732	4.0
49.747	10.0
49.762	5.0
49.777	8.0
49.792	3.0
49.807	2.0
49.822	9.0
49.837	5.0
49.852	3.0
49.867	6.0
49.882	8.0
49.897	11.0
49.912	7.0
49.927	4.0
49.942	7.0
49.957	3.0
49.971	6.0
49.986	2.0
50.001	6.0
50.016	7.0
50.031	8.0
50.046	6.0
50.061	5.0
50.076	3.0
50.091	3.0
50.106	6.0
50.121	7.0
50.136	3.0
50.151	5.0
50.166	8.0
50.181	6.0
50.196	5.0
50.211	2.0
50.226	7.0
50.241	5.0
50.256	4.0
50.271	7.0
50.286	6.0
50.302	7.0
50.317	10.0
50.332	6.0
50.347	6.0
50.362	8.0
50.377	8.0
50.392	4.0
50.407	5.0
50.422	4.0
50.437	7.0
50.452	7.0
50.467	6.0
50.482	3.0
50.497	8.0
50.512	3.0
50.527	6.0
50.542	7.0
50.557	5.0
50.572	5.0
50.587	8.0
50.602	9.0
50.617	5.0
50.632	5.0
50.647	2.0
50.662	4.0
50.677	3.0
50.692	6.0
50.707	9.0
50.722	3.0
50.737	6.0
50.752	6.0
50.767	8.0
50.782	5.0
50.797	7.0
50.812	9.0
50.828	9.0
50.843	5.0
50.858	6.0
50.873	3.0
50.888	6.0
50.903	6.0
50.918	3.0
50.933	6.0
50.948	4.0
50.963	4.0
50.978	4.0
50.993	6.0
51.008	6.0
51.023	1.0
51.038	2.0
51.053	3.0
51.068	3.0
51.083	8.0
51.098	4.0
51.114	7.0
51.129	6.0
51.144	4.0
51.159	3.0
51.174	6.0
51.189	5.0
51.204	8.0
51.219	9.0
51.234	6.0
51.249	4.0
51.264	3.0
51.279	2.0
51.294	6.0
51.309	8.0
51.324	9.0
51.34	5.0
51.355	6.0
51.37	5.0
51.385	8.0
51.4	9.0
51.415	11.0
51.43	15.0
51.445	16.0
51.46	14.0
51.475	17.0
51.49	18.0
51.505	17.0
51.52	15.0
51.535	16.0
51.551	13.0
51.566	13.0
51.581	13.0
51.596	17.0
51.611	6.0
51.626	12.0
51.641	10.0
51.656	6.0
51.671	5.0
51.686	7.0
51.701	7.0
51.716	7.0
51.732	9.0
51.747	7.0
51.762	5.0
51.777	8.0
51.792	8.0
51.807	9.0
51.822	14.0
51.837	8.0
51.852	13.0
51.867	8.0
51.882	5.0
51.898	7.0
51.913	7.0
51.928	9.0
51.943	8.0
51.958	4.0
51.973	8.0
51.988	7.0
52.003	6.0
52.018	5.0
52.033	6.0
52.048	2.0
52.064	8.0
52.079	14.0
52.094	6.0
52.109	3.0
52.124	5.0
52.139	2.0
52.154	6.0
52.169	5.0
52.184	6.0
52.199	5.0
52.215	5.0
52.23	6.0
52.245	5.0
52.26	5.0
52.275	1.0
52.29	5.0
52.305	6.0
52.32	6.0
52.335	5.0
52.35	7.0
52.366	6.0
52.381	7.0
52.396	2.0
52.411	13.0
52.426	3.0
52.441	6.0
52.456	4.0
52.471	7.0
52.486	10.0
52.502	7.0
52.517	6.0
52.532	8.0
52.547	9.0
52.562	14.0
52.577	6.0
52.592	11.0
52.607	10.0
52.622	10.0
52.637	10.0
52.653	5.0
52.668	8.0
52.683	8.0
52.698	5.0
52.713	6.0
52.728	10.0
52.743	2.0
52.758	2.0
52.774	4.0
52.789	2.0
52.804	5.0
52.819	3.0
52.834	8.0
52.849	6.0
52.864	6.0
52.879	8.0
52.894	9.0
52.91	7.0
52.925	8.0
52.94	3.0
52.955	8.0
52.97	7.0
52.985	4.0
53.0	4.0
53.015	2.0
53.031	4.0
53.046	3.0
53.061	2.0
53.076	6.0
53.091	2.0
53.106	4.0
53.121	5.0
53.136	6.0
53.152	4.0
53.167	5.0
53.182	5.0
53.197	3.0
53.212	4.0
53.227	5.0
53.242	8.0
53.257	6.0
53.273	6.0
53.288	6.0
53.303	6.0
53.318	7.0
53.333	2.0
53.348	3.0
53.363	6.0
53.379	6.0
53.394	6.0
53.409	9.0
53.424	4.0
53.439	8.0
53.454	7.0
53.469	4.0
53.484	7.0
53.5	2.0
53.515	3.0
53.53	7.0
53.545	6.0
53.56	6.0
53.575	5.0
53.59	4.0
53.606	4.0
53.621	4.0
53.636	4.0
53.651	11.0
53.666	6.0
53.681	5.0
53.696	5.0
53.712	5.0
53.727	5.0
53.742	5.0
53.757	1.0
53.772	8.0
53.787	6.0
53.802	2.0
53.818	4.0
53.833	6.0
53.848	7.0
53.863	5.0
53.878	8.0
53.893	4.0
53.909	6.0
53.924	3.0
53.939	4.0
53.954	3.0
53.969	6.0
53.984	3.0
53.999	3.0
54.015	3.0
54.03	3.0
54.045	3.0
54.06	3.0
54.075	3.0
54.09	7.0
54.106	3.0
54.121	6.0
54.136	8.0
54.151	8.0
54.166	4.0
54.181	9.0
54.197	4.0
54.212	9.0
54.227	4.0
54.242	1.0
54.257	6.0
54.272	5.0
54.288	5.0
54.303	4.0
54.318	0.0
54.333	7.0
54.348	11.0
54.363	3.0
54.379	8.0
54.394	4.0
54.409	2.0
54.424	5.0
54.439	7.0
54.454	4.0
54.47	3.0
54.485	4.0
54.5	7.0
54.515	4.0
54.53	6.0
54.545	12.0
54.561	6.0
54.576	11.0
54.591	10.0
54.606	13.0
54.621	8.0
54.636	9.0
54.652	8.0
54.667	13.0
54.682	17.0
54.697	10.0
54.712	8.0
54.727	8.0
54.743	7.0
54.758	8.0
54.773	9.0
54.788	1.0
54.803	6.0
54.819	6.0
54.834	7.0
54.849	2.0
54.864	4.0
54.879	7.0
54.894	4.0
54.91	7.0
54.925	10.0
54.94	5.0
54.955	12.0
54.97	10.0
54.985	8.0
55.001	6.0
55.016	8.0
55.031	11.0
55.046	13.0
55.061	3.0
55.077	11.0
55.092	3.0
55.107	6.0
55.122	7.0
55.137	7.0
55.152	4.0
55.168	4.0
55.183	6.0
55.198	2.0
55.213	5.0
55.228	3.0
55.243	3.0
55.259	6.0
55.274	7.0
55.289	7.0
55.304	0.0
55.319	1.0
55.335	3.0
55.35	6.0
55.365	1.0
55.38	4.0
55.395	6.0
55.41	2.0
55.426	6.0
55.441	11.0
55.456	5.0
55.471	3.0
55.486	4.0
55.501	4.0
55.517	5.0
55.532	4.0
55.547	4.0
55.562	6.0
55.577	10.0
55.592	1.0
55.608	6.0
55.623	4.0
55.638	9.0
55.653	10.0
55.668	15.0
55.683	7.0
55.699	4.0
55.714	5.0
55.729	8.0
55.744	4.0
55.759	8.0
55.774	10.0
55.79	6.0
55.805	4.0
55.82	5.0
55.835	4.0
55.85	4.0
55.865	6.0
55.881	4.0
55.896	4.0
55.911	3.0
55.926	4.0
55.941	6.0
55.956	2.0
55.972	4.0
55.987	5.0
56.002	8.0
56.017	7.0
56.032	9.0
56.047	1.0
56.063	8.0
56.078	4.0
56.093	4.0
56.108	6.0
56.123	5.0
56.138	6.0
56.154	2.0
56.169	8.0
56.184	3.0
56.199	4.0
56.214	4.0
56.229	1.0
56.244	3.0
56.26	6.0
56.275	3.0
56.29	2.0
56.305	8.0
56.32	3.0
56.335	4.0
56.351	3.0
56.366	6.0
56.381	4.0
56.396	3.0
56.411	2.0
56.426	3.0
56.441	2.0
56.457	1.0
56.472	3.0
56.487	8.0
56.502	4.0
56.517	5.0
56.532	4.0
56.547	3.0
56.563	5.0
56.578	4.0
56.593	5.0
56.608	6.0
56.623	4.0
56.638	3.0
56.653	4.0
56.668	3.0
56.684	1.0
56.699	6.0
56.714	5.0
56.729	8.0
56.744	2.0
56.759	3.0
56.774	5.0
56.79	6.0
56.805	5.0
56.82	6.0
56.835	2.0
56.85	0.0
56.865	2.0
56.88	4.0
56.895	8.0
56.911	2.0
56.926	9.0
56.941	5.0
56.956	3.0
56.971	1.0
56.986	3.0
57.001	3.0
57.016	7.0
57.031	2.0
57.047	2.0
57.062	5.0
57.077	2.0
57.092	3.0
57.107	4.0
57.122	7.0
57.137	7.0
57.152	3.0
57.167	3.0
57.183	6.0
57.198	6.0
57.213	5.0
57.228	2.0
57.243	4.0
57.258	2.0
57.273	6.0
57.288	3.0
57.303	5.0
57.318	2.0
57.334	3.0
57.349	5.0
57.364	1.0
57.379	9.0
57.394	5.0
57.409	3.0
57.424	8.0
57.439	8.0
57.454	6.0
57.469	3.0
57.484	1.0
57.5	3.0
57.515	6.0
57.53	10.0
57.545	5.0
57.56	2.0
57.575	5.0
57.59	6.0
57.605	1.0
57.62	4.0
57.635	5.0
57.65	3.0
57.665	4.0
57.68	7.0
57.696	7.0
57.711	7.0
57.726	2.0
57.741	7.0
57.756	11.0
57.771	4.0
57.786	5.0
57.801	6.0
57.816	5.0
57.831	2.0
57.846	5.0
57.861	7.0
57.876	2.0
57.891	5.0
57.906	4.0
57.921	6.0
57.937	3.0
57.952	3.0
57.967	6.0
57.982	1.0
57.997	5.0
58.012	13.0
58.027	6.0
58.042	4.0
58.057	6.0
58.072	14.0
58.087	5.0
58.102	6.0
58.117	5.0
58.132	7.0
58.147	3.0
58.162	5.0
58.177	5.0
58.192	2.0
58.207	1.0
58.222	5.0
58.237	8.0
58.252	2.0
58.267	7.0
58.282	5.0
58.297	1.0
58.312	5.0
58.327	2.0
58.342	2.0
58.357	3.0
58.372	1.0
58.387	4.0
58.402	2.0
58.418	2.0
58.433	1.0
58.448	1.0
58.463	5.0
58.478	3.0
58.493	4.0
58.508	4.0
58.523	5.0
58.538	7.0
58.553	4.0
58.568	2.0
58.583	6.0
58.598	4.0
58.613	9.0
58.628	11.0
58.643	10.0
58.658	8.0
58.673	6.0
58.688	7.0
58.703	11.0
58.718	8.0
58.733	5.0
58.748	6.0
58.763	6.0
58.778	5.0
58.793	4.0
58.808	7.0
58.823	5.0
58.838	2.0
58.853	3.0
58.868	4.0
58.883	4.0
58.898	2.0
58.913	2.0
58.928	6.0
58.942	7.0
58.957	5.0
58.972	9.0
58.987	8.0
59.002	6.0
59.017	12.0
59.032	7.0
59.047	7.0
59.062	10.0
59.077	8.0
59.092	5.0
59.107	2.0
59.122	6.0
59.137	4.0
59.152	4.0
59.167	5.0
59.182	3.0
59.197	3.0
59.212	1.0
59.227	1.0
59.242	3.0
59.257	6.0
59.272	7.0
59.287	8.0
59.302	5.0
59.317	3.0
59.332	8.0
59.347	6.0
59.362	6.0
59.377	3.0
59.392	7.0
59.407	6.0
59.422	5.0
59.437	3.0
59.452	5.0
59.467	5.0
59.482	6.0
59.497	0.0
59.512	6.0
59.527	6.0
59.542	3.0
59.557	14.0
59.572	3.0
59.587	5.0
59.602	10.0
59.617	13.0
59.632	9.0
59.647	13.0
59.661	7.0
59.676	10.0
59.691	5.0
59.706	8.0
59.721	5.0
59.736	7.0
59.751	7.0
59.766	3.0
59.781	0.0
59.796	8.0
59.811	1.0
59.826	4.0
59.841	2.0
59.856	1.0
59.871	3.0
59.886	5.0
59.901	3.0
59.916	2.0
59.931	6.0
59.946	8.0
59.961	6.0
59.976	4.0
59.991	8.0
60.006	6.0
60.021	7.0
60.036	3.0
60.051	6.0
60.066	8.0
60.081	6.0
60.096	6.0
60.111	7.0
60.126	6.0
60.141	4.0
60.156	2.0
60.171	4.0
60.186	6.0
60.201	5.0
60.216	8.0
60.231	3.0
60.246	12.0
60.261	7.0
60.276	4.0
60.291	6.0
60.306	1.0
60.321	8.0
60.336	3.0
60.35	6.0
60.365	4.0
60.38	8.0
60.395	1.0
60.41	7.0
60.425	7.0
60.44	3.0
60.455	7.0
60.47	9.0
60.485	4.0
60.5	6.0
60.515	9.0
60.53	4.0
60.545	9.0
60.56	9.0
60.575	7.0
60.59	7.0
60.605	7.0
60.62	4.0
60.635	7.0
60.65	9.0
60.665	5.0
60.68	8.0
60.695	8.0
60.71	6.0
60.725	3.0
60.74	6.0
60.755	7.0
60.77	2.0
60.785	3.0
60.8	1.0
60.815	6.0
60.83	6.0
60.845	3.0
60.86	5.0
60.875	8.0
60.89	6.0
60.905	5.0
60.92	4.0
60.935	6.0
60.95	7.0
60.965	7.0
60.98	6.0
60.995	9.0
61.01	3.0
61.025	7.0
61.04	3.0
61.055	8.0
61.07	5.0
61.085	2.0
61.1	6.0
61.115	5.0
61.13	2.0
61.145	3.0
61.16	7.0
61.175	3.0
61.191	5.0
61.206	3.0
61.221	4.0
61.236	4.0
61.251	3.0
61.266	4.0
61.281	2.0
61.296	5.0
61.311	4.0
61.326	4.0
61.341	4.0
61.356	5.0
61.371	5.0
61.386	4.0
61.401	4.0
61.416	4.0
61.431	5.0
61.446	6.0
61.461	3.0
61.476	6.0
61.491	5.0
61.506	8.0
61.521	6.0
61.536	11.0
61.551	7.0
61.566	5.0
61.581	3.0
61.596	4.0
61.611	1.0
61.626	5.0
61.641	7.0
61.656	3.0
61.672	5.0
61.687	2.0
61.702	2.0
61.717	7.0
61.732	6.0
61.747	4.0
61.762	3.0
61.777	1.0
61.792	9.0
61.807	3.0
61.822	2.0
61.837	5.0
61.852	4.0
61.867	7.0
61.882	3.0
61.897	6.0
61.912	5.0
61.927	4.0
61.943	6.0
61.958	8.0
61.973	6.0
61.988	3.0
62.003	7.0
62.018	5.0
62.033	3.0
62.048	4.0
62.063	1.0
62.078	4.0
62.093	4.0
62.108	4.0
62.123	2.0
62.138	4.0
62.153	4.0
62.169	2.0
62.184	3.0
62.199	3.0
62.214	3.0
62.229	3.0
62.244	2.0
62.259	2.0
62.274	4.0
62.289	3.0
62.304	5.0
62.319	2.0
62.335	3.0
62.35	4.0
62.365	5.0
62.38	9.0
62.395	7.0
62.41	7.0
62.425	3.0
62.44	3.0
62.455	12.0
62.47	1.0
62.485	6.0
62.501	6.0
62.516	6.0
62.531	5.0
62.546	6.0
62.561	2.0
62.576	2.0
62.591	3.0
62.606	1.0
62.621	3.0
62.636	4.0
62.652	4.0
62.667	3.0
62.682	2.0
62.697	5.0
62.712	3.0
62.727	6.0
62.742	3.0
62.757	4.0
62.772	5.0
62.787	6.0
62.803	3.0
62.818	3.0
62.833	3.0
62.848	2.0
62.863	7.0
62.878	8.0
62.893	5.0
62.908	3.0
62.923	8.0
62.939	5.0
62.954	3.0
62.969	1.0
62.984	5.0
62.999	1.0
63.014	6.0
63.029	4.0
63.044	10.0
63.059	2.0
63.074	6.0
63.09	3.0
63.105	6.0
63.12	5.0
63.135	2.0
63.15	4.0
63.165	8.0
63.18	6.0
63.195	1.0
63.21	4.0
63.226	6.0
63.241	2.0
63.256	2.0
63.271	4.0
63.286	6.0
63.301	1.0
63.316	7.0
63.331	5.0
63.346	2.0
63.362	6.0
63.377	9.0
63.392	8.0
63.407	13.0
63.422	2.0
63.437	6.0
63.452	9.0
63.467	5.0
63.482	2.0
63.497	1.0
63.513	6.0
63.528	5.0
63.543	3.0
63.558	8.0
63.573	3.0
63.588	3.0
63.603	4.0
63.618	6.0
63.633	6.0
63.648	2.0
63.664	4.0
63.679	3.0
63.694	8.0
63.709	7.0
63.724	5.0
63.739	4.0
63.754	1.0
63.769	8.0
63.784	3.0
63.799	6.0
63.814	4.0
63.83	10.0
63.845	8.0
63.86	6.0
63.875	6.0
63.89	3.0
63.905	2.0
63.92	10.0
63.935	2.0
63.95	5.0
63.965	5.0
63.98	7.0
63.996	6.0
64.011	3.0
64.026	4.0
64.041	2.0
64.056	7.0
64.071	0.0
64.086	4.0
64.101	2.0
64.116	2.0
64.131	4.0
64.146	6.0
64.161	2.0
64.176	8.0
64.191	3.0
64.207	4.0
64.222	6.0
64.237	4.0
64.252	5.0
64.267	8.0
64.282	5.0
64.297	5.0
64.312	3.0
64.327	5.0
64.342	2.0
64.357	3.0
64.372	8.0
64.387	3.0
64.402	4.0
64.417	4.0
64.433	0.0
64.448	3.0
64.463	5.0
64.478	7.0
64.493	6.0
64.508	6.0
64.523	5.0
64.538	3.0
64.553	4.0
64.568	6.0
64.583	2.0
64.598	1.0
64.613	2.0
64.628	5.0
64.643	6.0
64.658	2.0
64.673	6.0
64.688	4.0
64.703	4.0
64.718	2.0
64.734	8.0
64.749	4.0
64.764	3.0
64.779	4.0
64.794	5.0
64.809	3.0
64.824	3.0
64.839	4.0
64.854	1.0
64.869	3.0
64.884	0.0
64.899	0.0
64.914	4.0
64.929	4.0
64.944	3.0
64.959	5.0
64.974	2.0
64.989	2.0
65.004	5.0
65.019	2.0
65.034	4.0
65.049	2.0
65.064	1.0
65.079	5.0
65.094	2.0
65.109	6.0
65.125	5.0
65.14	4.0
65.155	7.0
65.17	2.0
65.185	3.0
65.2	6.0
65.215	7.0
65.23	2.0
65.245	11.0
65.26	3.0
65.275	4.0
65.29	4.0
65.305	7.0
65.32	7.0
65.335	4.0
65.35	5.0
65.365	3.0
65.38	3.0
65.395	2.0
65.41	4.0
65.425	6.0
65.44	4.0
65.455	4.0
65.47	1.0
65.485	5.0
65.5	4.0
65.515	3.0
65.53	4.0
65.545	5.0
65.56	3.0
65.575	4.0
65.59	5.0
65.605	7.0
65.62	5.0
65.635	4.0
65.65	8.0
65.666	1.0
65.681	3.0
65.696	5.0
65.711	1.0
65.726	6.0
65.741	9.0
65.756	7.0
65.771	4.0
65.786	4.0
65.801	3.0
65.816	5.0
65.831	4.0
65.846	4.0
65.861	6.0
65.876	3.0
65.891	4.0
65.906	3.0
65.921	3.0
65.936	0.0
65.951	4.0
65.966	4.0
65.981	6.0
65.996	6.0
66.011	0.0
66.026	6.0
66.041	5.0
66.056	5.0
66.071	8.0
66.086	8.0
66.101	1.0
66.116	5.0
66.131	4.0
66.146	8.0
66.161	4.0
66.176	4.0
66.191	10.0
66.206	10.0
66.221	9.0
66.236	6.0
66.251	10.0
66.266	5.0
66.281	4.0
66.296	3.0
66.311	3.0
66.327	1.0
66.342	4.0
66.357	6.0
66.372	7.0
66.387	1.0
66.402	3.0
66.417	6.0
66.432	2.0
66.447	3.0
66.462	7.0
66.477	7.0
66.492	6.0
66.507	10.0
66.522	8.0
66.537	3.0
66.552	9.0
66.567	4.0
66.582	5.0
66.597	7.0
66.612	8.0
66.627	8.0
66.642	7.0
66.657	4.0
66.672	5.0
66.687	7.0
66.702	2.0
66.717	4.0
66.732	3.0
66.747	8.0
66.762	2.0
66.777	6.0
66.792	4.0
66.807	4.0
66.822	1.0
66.837	2.0
66.853	2.0
66.868	6.0
66.883	5.0
66.898	6.0
66.913	4.0
66.928	5.0
66.943	5.0
66.958	5.0
66.973	3.0
66.988	4.0
67.003	1.0
67.018	5.0
67.033	6.0
67.048	4.0
67.063	4.0
67.078	8.0
67.093	4.0
67.108	3.0
67.123	5.0
67.138	8.0
67.153	2.0
67.168	5.0
67.183	3.0
67.198	6.0
67.214	4.0
67.229	4.0
67.244	3.0
67.259	4.0
67.274	2.0
67.289	5.0
67.304	4.0
67.319	3.0
67.334	3.0
67.349	4.0
67.364	5.0
67.379	5.0
67.394	6.0
67.409	3.0
67.424	4.0
67.439	4.0
67.454	1.0
67.469	3.0
67.484	6.0
67.5	3.0
67.515	1.0
67.53	4.0
67.545	4.0
67.56	8.0
67.575	1.0
67.59	2.0
67.605	5.0
67.62	6.0
67.635	6.0
67.65	2.0
67.665	4.0
67.68	4.0
67.695	4.0
67.71	8.0
67.726	4.0
67.741	5.0
67.756	1.0
67.771	5.0
67.786	6.0
67.801	6.0
67.816	2.0
67.831	5.0
67.846	0.0
67.861	6.0
67.876	1.0
67.891	3.0
67.906	3.0
67.922	5.0
67.937	5.0
67.952	8.0
67.967	1.0
67.982	3.0
67.997	0.0
68.012	0.0
68.027	3.0
68.042	5.0
68.057	4.0
68.072	2.0
68.087	2.0
68.103	3.0
68.118	1.0
68.133	1.0
68.148	4.0
68.163	5.0
68.178	3.0
68.193	6.0
68.208	2.0
68.223	10.0
68.238	3.0
68.254	4.0
68.269	4.0
68.284	2.0
68.299	1.0
68.314	4.0
68.329	4.0
68.344	3.0
68.359	2.0
68.374	6.0
68.389	2.0
68.405	4.0
68.42	6.0
68.435	5.0
68.45	5.0
68.465	2.0
68.48	3.0
68.495	6.0
68.51	8.0
68.525	3.0
68.54	3.0
68.556	1.0
68.571	2.0
68.586	2.0
68.601	4.0
68.616	4.0
68.631	5.0
68.646	1.0
68.661	2.0
68.676	1.0
68.691	2.0
68.707	4.0
68.722	4.0
68.737	2.0
68.752	2.0
68.767	0.0
68.782	4.0
68.797	5.0
68.812	0.0
68.827	1.0
68.842	4.0
68.857	3.0
68.873	5.0
68.888	3.0
68.903	2.0
68.918	3.0
68.933	2.0
68.948	2.0
68.963	4.0
68.978	3.0
68.993	4.0
69.008	4.0
69.023	3.0
69.038	3.0
69.054	2.0
69.069	5.0
69.084	5.0
69.099	3.0
69.114	4.0
69.129	2.0
69.144	5.0
69.159	3.0
69.174	9.0
69.189	2.0
69.204	4.0
69.219	4.0
69.234	3.0
69.249	7.0
69.264	8.0
69.279	2.0
69.295	5.0
69.31	3.0
69.325	2.0
69.34	10.0
69.355	1.0
69.37	4.0
69.385	5.0
69.4	4.0
69.415	3.0
69.43	4.0
69.445	2.0
69.46	0.0
69.475	4.0
69.49	5.0
69.505	6.0
69.52	2.0
69.535	4.0
69.55	3.0
69.565	5.0
69.58	4.0
69.595	2.0
69.61	5.0
69.625	6.0
69.64	3.0
69.655	5.0
69.67	3.0
69.685	2.0
69.7	6.0
69.715	6.0
69.73	7.0
69.745	5.0
69.76	8.0
69.775	5.0
69.79	10.0
69.805	5.0
69.82	5.0
69.835	6.0
69.85	4.0
69.865	6.0
69.88	6.0
69.895	5.0
69.909	4.0
69.924	3.0
69.939	4.0
69.954	3.0
69.969	5.0
69.984	4.0
69.999	11.0
70.014	1.0
70.029	3.0
70.044	0.0
70.059	4.0
70.074	4.0
70.088	4.0
70.103	3.0
70.118	3.0
70.133	4.0
70.148	2.0
70.163	2.0
70.178	2.0
70.193	4.0
70.208	7.0
70.222	6.0
70.237	4.0
70.252	3.0
70.267	6.0
70.282	7.0
70.297	1.0
70.312	9.0
70.327	3.0
70.341	2.0
70.356	2.0
70.371	4.0
70.386	5.0
70.401	4.0
70.416	7.0
70.43	6.0
70.445	3.0
70.46	6.0
70.475	3.0
70.49	4.0
70.505	4.0
70.519	6.0
70.534	4.0
70.549	3.0
70.564	3.0
70.579	4.0
70.594	5.0
70.608	5.0
70.623	4.0
70.638	5.0
70.653	6.0
70.668	5.0
70.683	7.0
70.697	2.0
70.712	7.0
70.727	7.0
70.742	5.0
70.757	6.0
70.771	8.0
70.786	6.0
70.801	5.0
70.816	1.0
70.831	3.0
70.845	5.0
70.86	1.0
70.875	3.0
70.89	7.0
70.905	8.0
70.92	1.0
70.934	3.0
70.949	2.0
70.964	2.0
70.979	3.0
70.994	2.0
71.008	0.0
71.023	4.0
71.038	2.0
71.053	4.0
71.068	5.0
71.082	2.0
71.097	3.0
71.112	4.0
71.127	4.0
71.142	6.0
71.156	6.0
71.171	3.0
71.186	3.0
71.201	4.0
71.216	6.0
71.231	5.0
71.245	10.0
71.26	3.0
71.275	7.0
71.29	2.0
71.305	3.0
71.319	1.0
71.334	6.0
71.349	4.0
71.364	8.0
71.379	4.0
71.394	3.0
71.408	3.0
71.423	6.0
71.438	4.0
71.453	4.0
71.468	2.0
71.483	5.0
71.497	1.0
71.512	8.0
71.527	2.0
71.542	4.0
71.557	6.0
71.572	2.0
71.586	2.0
71.601	4.0
71.616	2.0
71.631	0.0
71.646	2.0
71.661	1.0
71.676	4.0
71.69	3.0
71.705	2.0
71.72	4.0
71.735	3.0
71.75	4.0
71.765	6.0
71.78	5.0
71.795	2.0
71.81	7.0
71.824	4.0
71.839	3.0
71.854	7.0
71.869	1.0
71.884	3.0
71.899	2.0
71.914	2.0
71.929	7.0
71.944	5.0
71.959	2.0
71.974	2.0
71.988	2.0
72.003	4.0
72.018	4.0
72.033	1.0
72.048	3.0
72.063	4.0
72.078	2.0
72.093	4.0
72.108	2.0
72.123	3.0
72.138	5.0
72.153	3.0
72.168	4.0
72.183	2.0
72.198	2.0
72.213	4.0
72.228	4.0
72.243	0.0
72.258	3.0
72.273	3.0
72.288	7.0
72.303	1.0
72.318	3.0
72.333	3.0
72.348	4.0
72.363	6.0
72.378	4.0
72.393	2.0
72.408	6.0
72.423	2.0
72.438	2.0
72.453	8.0
72.468	1.0
72.483	3.0
72.498	2.0
72.513	0.0
72.528	4.0
72.543	2.0
72.558	5.0
72.573	3.0
72.588	4.0
72.603	2.0
72.618	3.0
72.633	3.0
72.649	2.0
72.664	2.0
72.679	2.0
72.694	2.0
72.709	2.0
72.724	1.0
72.739	5.0
72.754	6.0
72.769	2.0
72.784	2.0
72.799	6.0
72.814	3.0
72.829	3.0
72.845	4.0
72.86	3.0
72.875	3.0
72.89	3.0
72.905	4.0
72.92	7.0
72.935	4.0
72.95	5.0
72.965	6.0
72.98	4.0
72.996	6.0
73.011	2.0
73.026	6.0
73.041	3.0
73.056	3.0
73.071	1.0
73.086	6.0
73.101	4.0
73.117	4.0
73.132	2.0
73.147	3.0
73.162	2.0
73.177	4.0
73.192	3.0
73.207	2.0
73.222	3.0
73.238	2.0
73.253	5.0
73.268	7.0
73.283	3.0
73.298	7.0
73.313	3.0
73.328	3.0
73.343	4.0
73.359	7.0
73.374	5.0
73.389	2.0
73.404	4.0
73.419	3.0
73.434	6.0
73.449	5.0
73.465	6.0
73.48	2.0
73.495	2.0
73.51	3.0
73.525	6.0
73.54	6.0
73.556	4.0
73.571	7.0
73.586	2.0
73.601	3.0
73.616	5.0
73.631	5.0
73.646	5.0
73.662	1.0
73.677	3.0
73.692	6.0
73.707	4.0
73.722	7.0
73.737	3.0
73.752	1.0
73.768	3.0
73.783	2.0
73.798	6.0
73.813	3.0
73.828	3.0
73.843	5.0
73.859	2.0
73.874	4.0
73.889	2.0
73.904	2.0
73.919	2.0
73.934	1.0
73.949	4.0
73.965	2.0
73.98	6.0
73.995	3.0
74.01	6.0
74.025	4.0
74.04	2.0
74.056	4.0
74.071	5.0
74.086	3.0
74.101	4.0
74.116	8.0
74.131	6.0
74.146	3.0
74.162	14.0
74.177	6.0
74.192	4.0
74.207	9.0
74.222	8.0
74.237	7.0
74.252	4.0
74.268	2.0
74.283	5.0
74.298	4.0
74.313	2.0
74.328	6.0
74.343	2.0
74.358	4.0
74.374	3.0
74.389	3.0
74.404	2.0
74.419	2.0
74.434	5.0
74.449	5.0
74.464	2.0
74.48	4.0
74.495	2.0
74.51	6.0
74.525	2.0
74.54	4.0
74.555	3.0
74.57	2.0
74.586	2.0
74.601	5.0
74.616	4.0
74.631	4.0
74.646	9.0
74.661	7.0
74.676	7.0
74.691	5.0
74.707	6.0
74.722	6.0
74.737	2.0
74.752	4.0
74.767	6.0
74.782	7.0
74.797	3.0
74.813	9.0
74.828	3.0
74.843	4.0
74.858	4.0
74.873	1.0
74.888	4.0
74.903	4.0
74.918	4.0
74.934	7.0
74.949	6.0
74.964	4.0
74.979	5.0
74.994	3.0
75.009	1.0
75.024	11.0
75.04	2.0
75.055	8.0
75.07	4.0
75.085	4.0
75.1	3.0
75.115	8.0
75.13	6.0
75.145	3.0
75.161	2.0
75.176	2.0
75.191	3.0
75.206	3.0
75.221	3.0
75.236	2.0
75.251	2.0
75.266	4.0
75.282	5.0
75.297	1.0
75.312	4.0
75.327	8.0
75.342	6.0
75.357	2.0
75.372	2.0
75.387	6.0
75.403	5.0
75.418	2.0
75.433	2.0
75.448	6.0
75.463	0.0
75.478	3.0
75.493	3.0
75.509	2.0
75.524	2.0
75.539	6.0
75.554	3.0
75.569	4.0
75.584	2.0
75.599	4.0
75.614	4.0
75.63	2.0
75.645	3.0
75.66	1.0
75.675	4.0
75.69	3.0
75.705	2.0
75.72	2.0
75.735	1.0
75.751	7.0
75.766	3.0
75.781	2.0
75.796	1.0
75.811	6.0
75.826	4.0
75.841	4.0
75.856	5.0
75.872	0.0
75.887	4.0
75.902	3.0
75.917	5.0
75.932	8.0
75.947	6.0
75.962	3.0
75.977	1.0
75.993	3.0
76.008	4.0
76.023	4.0
76.038	5.0
76.053	3.0
76.068	4.0
76.083	3.0
76.098	6.0
76.114	5.0
76.129	5.0
76.144	2.0
76.159	0.0
76.174	2.0
76.189	4.0
76.204	3.0
76.22	1.0
76.235	3.0
76.25	2.0
76.265	4.0
76.28	2.0
76.295	6.0
76.31	3.0
76.325	2.0
76.341	3.0
76.356	7.0
76.371	5.0
76.386	4.0
76.401	3.0
76.416	2.0
76.431	3.0
76.446	2.0
76.462	3.0
76.477	6.0
76.492	2.0
76.507	3.0
76.522	4.0
76.537	4.0
76.552	6.0
76.567	4.0
76.583	0.0
76.598	2.0
76.613	3.0
76.628	6.0
76.643	3.0
76.658	7.0
76.673	5.0
76.688	5.0
76.704	4.0
76.719	6.0
76.734	6.0
76.749	7.0
76.764	5.0
76.779	6.0
76.794	9.0
76.809	5.0
76.824	5.0
76.84	2.0
76.855	1.0
76.87	0.0
76.885	2.0
76.9	2.0
76.915	0.0
76.93	5.0
76.945	6.0
76.96	2.0
76.976	1.0
76.991	4.0
77.006	3.0
77.021	1.0
77.036	2.0
77.051	2.0
77.066	3.0
77.081	1.0
77.096	4.0
77.112	6.0
77.127	2.0
77.142	6.0
77.157	5.0
77.172	2.0
77.187	8.0
77.202	1.0
77.217	3.0
77.232	8.0
77.247	4.0
77.263	3.0
77.278	4.0
77.293	4.0
77.308	6.0
77.323	2.0
77.338	5.0
77.353	2.0
77.368	3.0
77.383	4.0
77.398	5.0
77.413	5.0
77.428	2.0
77.444	5.0
77.459	5.0
77.474	2.0
77.489	3.0
77.504	6.0
77.519	5.0
77.534	4.0
77.549	4.0
77.564	3.0
77.579	4.0
77.594	5.0
77.609	8.0
77.624	8.0
77.64	3.0
77.655	9.0
77.67	4.0
77.685	3.0
77.7	2.0
77.715	6.0
77.73	3.0
77.745	5.0
77.76	2.0
77.775	6.0
77.79	3.0
77.805	6.0
77.82	6.0
77.835	3.0
77.85	4.0
77.865	10.0
77.88	3.0
77.895	2.0
77.91	3.0
77.926	6.0
77.941	2.0
77.956	4.0
77.971	4.0
77.986	4.0
78.001	2.0
78.016	3.0
78.031	1.0
78.046	3.0
78.061	2.0
78.076	5.0
78.091	3.0
78.106	3.0
78.121	3.0
78.136	2.0
78.151	6.0
78.166	3.0
78.181	2.0
78.196	3.0
78.211	5.0
78.226	3.0
78.241	1.0
78.256	5.0
78.271	3.0
78.286	3.0
78.301	3.0
78.316	2.0
78.331	2.0
78.346	3.0
78.361	4.0
78.376	3.0
78.391	2.0
78.406	5.0
78.421	3.0
78.436	2.0
78.451	3.0
78.466	2.0
78.481	4.0
78.496	6.0
78.511	3.0
78.526	1.0
78.541	3.0
78.556	1.0
78.571	3.0
78.586	3.0
78.601	3.0
78.616	7.0
78.631	1.0
78.646	3.0
78.661	6.0
78.676	2.0
78.691	4.0
78.706	2.0
78.721	2.0
78.736	2.0
78.751	2.0
78.766	3.0
78.781	6.0
78.796	1.0
78.811	4.0
78.826	3.0
78.841	2.0
78.856	3.0
78.871	1.0
78.885	6.0
78.9	2.0
78.915	2.0
78.93	2.0
78.945	3.0
78.96	1.0
78.975	3.0
78.99	3.0
79.005	0.0
79.02	4.0
79.035	3.0
79.05	3.0
79.065	4.0
79.08	5.0
79.095	1.0
79.11	3.0
79.125	7.0
79.14	2.0
79.155	3.0
79.17	5.0
79.185	1.0
79.2	7.0
79.215	2.0
79.23	3.0
79.245	3.0
79.26	3.0
79.275	2.0
79.29	1.0
79.304	5.0
79.319	4.0
79.334	6.0
79.349	3.0
79.364	3.0
79.379	3.0
79.394	3.0
79.409	3.0
79.424	5.0
79.439	1.0
79.454	3.0
79.469	3.0
79.484	5.0
79.499	1.0
79.514	4.0
79.529	3.0
79.544	2.0
79.559	4.0
79.574	1.0
79.589	3.0
79.604	2.0
79.619	3.0
79.634	3.0
79.649	2.0
79.664	1.0
79.679	3.0
79.693	2.0
79.708	4.0
79.723	4.0
79.738	0.0
79.753	1.0
79.768	1.0
79.783	1.0
79.798	0.0
79.813	6.0
79.828	4.0
79.843	5.0
79.858	7.0
79.873	4.0
79.888	4.0
79.903	4.0
79.918	4.0
79.933	5.0
79.948	2.0
79.963	4.0
79.978	4.0
79.993	3.0
80.008	5.0
80.023	2.0
80.038	5.0
80.053	2.0
80.068	7.0
80.083	3.0
80.098	0.0
80.113	6.0
80.128	4.0
80.143	2.0
80.158	3.0
80.173	3.0
80.188	6.0
80.202	6.0
80.217	4.0
80.232	4.0
80.247	1.0
80.262	3.0
80.277	4.0
80.292	2.0
80.307	3.0
80.322	2.0
80.337	4.0
80.352	5.0
80.367	5.0
80.382	5.0
80.397	1.0
80.412	3.0
80.427	2.0
80.442	2.0
80.457	3.0
80.472	7.0
80.487	2.0
80.502	2.0
80.517	2.0
80.532	2.0
80.547	5.0
80.562	3.0
80.577	3.0
80.592	4.0
80.607	2.0
80.622	6.0
80.637	2.0
80.652	3.0
80.667	1.0
80.682	3.0
80.697	3.0
80.712	2.0
80.727	4.0
80.742	4.0
80.757	4.0
80.772	3.0
80.787	4.0
80.802	5.0
80.817	6.0
80.832	3.0
80.847	6.0
80.862	5.0
80.877	2.0
80.892	3.0
80.907	3.0
80.922	4.0
80.937	2.0
80.952	2.0
80.967	4.0
80.982	6.0
80.997	4.0
81.012	6.0
81.027	4.0
81.042	2.0
81.057	1.0
81.072	2.0
81.087	1.0
81.101	3.0
81.116	3.0
81.131	4.0
81.146	3.0
81.161	2.0
81.176	1.0
81.191	5.0
81.206	3.0
81.221	3.0
81.236	2.0
81.251	2.0
81.266	1.0
81.281	6.0
81.296	3.0
81.311	4.0
81.326	4.0
81.341	2.0
81.356	4.0
81.371	7.0
81.386	2.0
81.401	2.0
81.416	2.0
81.431	4.0
81.446	1.0
81.461	3.0
81.476	1.0
81.491	8.0
81.506	2.0
81.521	1.0
81.536	3.0
81.55	4.0
81.565	1.0
81.58	2.0
81.595	3.0
81.61	4.0
81.625	5.0
81.64	5.0
81.655	4.0
81.67	2.0
81.685	1.0
81.7	3.0
81.715	8.0
81.73	5.0
81.745	0.0
81.76	5.0
81.775	2.0
81.79	3.0
81.805	6.0
81.819	6.0
81.834	4.0
81.849	6.0
81.864	8.0
81.879	5.0
81.894	6.0
81.909	4.0
81.924	9.0
81.939	3.0
81.954	5.0
81.969	1.0
81.984	3.0
81.999	6.0
82.013	1.0
82.028	3.0
82.043	2.0
82.058	4.0
82.073	3.0
82.088	2.0
82.103	2.0
82.118	3.0
82.133	3.0
82.148	3.0
82.163	3.0
82.177	5.0
82.192	3.0
82.207	5.0
82.222	3.0
82.237	6.0
82.252	3.0
82.267	3.0
82.282	5.0
82.297	2.0
82.312	5.0
82.326	2.0
82.341	4.0
82.356	2.0
82.371	2.0
82.386	3.0
82.401	5.0
82.416	6.0
82.431	4.0
82.445	5.0
82.46	9.0
82.475	4.0
82.49	7.0
82.505	5.0
82.52	3.0
82.535	1.0
82.55	7.0
82.565	1.0
82.579	3.0
82.594	5.0
82.609	3.0
82.624	1.0
82.639	1.0
82.654	4.0
82.669	6.0
82.684	1.0
82.698	3.0
82.713	1.0
82.728	3.0
82.743	6.0
82.758	2.0
82.773	3.0
82.788	0.0
82.803	4.0
82.817	3.0
82.832	3.0
82.847	4.0
82.862	3.0
82.877	3.0
82.892	3.0
82.907	4.0
82.922	4.0
82.937	2.0
82.951	4.0
82.966	3.0
82.981	2.0
82.996	4.0
83.011	5.0
83.026	5.0
83.041	6.0
83.056	1.0
83.07	1.0
83.085	1.0
83.1	1.0
83.115	3.0
83.13	2.0
83.145	1.0
83.16	0.0
83.175	4.0
83.19	3.0
83.204	1.0
83.219	2.0
83.234	0.0
83.249	4.0
83.264	6.0
83.279	1.0
83.294	6.0
83.309	0.0
83.324	1.0
83.339	1.0
83.353	3.0
83.368	2.0
83.383	4.0
83.398	3.0
83.413	3.0
83.428	3.0
83.443	1.0
83.458	3.0
83.473	5.0
83.488	5.0
83.503	5.0
83.517	3.0
83.532	5.0
83.547	6.0
83.562	6.0
83.577	3.0
83.592	8.0
83.607	4.0
83.622	5.0
83.637	3.0
83.652	0.0
83.667	4.0
83.682	2.0
83.697	4.0
83.712	2.0
83.727	5.0
83.741	1.0
83.756	5.0
83.771	3.0
83.786	3.0
83.801	1.0
83.816	3.0
83.831	0.0
83.846	3.0
83.861	1.0
83.876	3.0
83.891	3.0
83.906	0.0
83.921	4.0
83.936	1.0
83.951	4.0
83.966	4.0
83.981	2.0
83.996	3.0
84.011	1.0
84.026	4.0
84.041	3.0
84.056	2.0
84.071	4.0
84.086	0.0
84.101	2.0
84.116	5.0
84.131	1.0
84.146	12.0
84.161	3.0
84.176	0.0
84.191	5.0
84.206	5.0
84.221	3.0
84.236	5.0
84.251	2.0
84.266	3.0
84.281	4.0
84.296	3.0
84.311	1.0
84.326	4.0
84.341	5.0
84.356	4.0
84.371	8.0
84.386	3.0
84.401	9.0
84.416	2.0
84.431	6.0
84.446	7.0
84.461	3.0
84.476	4.0
84.492	4.0
84.507	2.0
84.522	3.0
84.537	2.0
84.552	4.0
84.567	4.0
84.582	2.0
84.597	2.0
84.612	2.0
84.627	4.0
84.642	5.0
84.657	5.0
84.672	2.0
84.687	4.0
84.702	2.0
84.717	4.0
84.733	5.0
84.748	3.0
84.763	2.0
84.778	5.0
84.793	4.0
84.808	1.0
84.823	6.0
84.838	3.0
84.853	5.0
84.868	4.0
84.883	7.0
84.898	4.0
84.913	1.0
84.929	4.0
84.944	4.0
84.959	2.0
84.974	2.0
84.989	5.0
85.004	5.0
85.019	5.0
85.034	1.0
85.049	2.0
85.064	3.0
85.079	3.0
85.094	2.0
85.11	4.0
85.125	2.0
85.14	3.0
85.155	5.0
85.17	5.0
85.185	1.0
85.2	3.0
85.215	4.0
85.23	3.0
85.245	3.0
85.26	4.0
85.276	6.0
85.291	4.0
85.306	2.0
85.321	3.0
85.336	4.0
85.351	1.0
85.366	4.0
85.381	6.0
85.396	6.0
85.411	3.0
85.426	4.0
85.441	2.0
85.457	2.0
85.472	4.0
85.487	5.0
85.502	2.0
85.517	4.0
85.532	0.0
85.547	2.0
85.562	2.0
85.577	0.0
85.592	0.0
85.607	2.0
85.622	2.0
85.637	2.0
85.653	1.0
85.668	3.0
85.683	3.0
85.698	5.0
85.713	2.0
85.728	2.0
85.743	5.0
85.758	2.0
85.773	3.0
85.788	9.0
85.803	3.0
85.818	1.0
85.833	2.0
85.848	1.0
85.863	1.0
85.879	0.0
85.894	5.0
85.909	3.0
85.924	1.0
85.939	2.0
85.954	2.0
85.969	2.0
85.984	3.0
85.999	3.0
86.014	4.0
86.029	4.0
86.044	3.0
86.059	4.0
86.074	2.0
86.089	3.0
86.104	2.0
86.119	2.0
86.134	4.0
86.149	2.0
86.164	2.0
86.179	1.0
86.194	5.0
86.209	2.0
86.224	4.0
86.239	3.0
86.254	4.0
86.269	1.0
86.284	0.0
86.299	0.0
86.314	8.0
86.33	2.0
86.345	2.0
86.36	4.0
86.375	1.0
86.39	3.0
86.405	3.0
86.42	3.0
86.435	6.0
86.45	2.0
86.465	1.0
86.48	2.0
86.495	3.0
86.51	3.0
86.525	5.0
86.54	5.0
86.555	1.0
86.57	0.0
86.585	2.0
86.6	6.0
86.615	2.0
86.63	5.0
86.645	4.0
86.659	2.0
86.674	4.0
86.689	4.0
86.704	4.0
86.719	4.0
86.734	0.0
86.749	2.0
86.764	6.0
86.779	3.0
86.794	5.0
86.809	3.0
86.824	2.0
86.839	7.0
86.854	6.0
86.869	4.0
86.884	3.0
86.899	5.0
86.914	4.0
86.929	3.0
86.944	1.0
86.959	2.0
86.974	6.0
86.989	6.0
87.004	5.0
87.019	7.0
87.034	7.0
87.049	4.0
87.064	3.0
87.079	5.0
87.094	2.0
87.109	4.0
87.124	4.0
87.139	0.0
87.154	5.0
87.169	3.0
87.184	5.0
87.199	2.0
87.214	2.0
87.229	3.0
87.244	7.0
87.259	2.0
87.274	2.0
87.289	1.0
87.304	3.0
87.319	4.0
87.334	2.0
87.349	3.0
87.364	0.0
87.379	5.0
87.394	3.0
87.409	1.0
87.424	3.0
87.438	3.0
87.453	4.0
87.468	1.0
87.483	8.0
87.498	2.0
87.513	2.0
87.528	4.0
87.543	5.0
87.558	3.0
87.573	2.0
87.588	7.0
87.603	9.0
87.618	6.0
87.633	4.0
87.648	4.0
87.663	3.0
87.678	3.0
87.693	4.0
87.708	7.0
87.723	6.0
87.738	3.0
87.753	4.0
87.768	3.0
87.783	4.0
87.798	5.0
87.813	3.0
87.828	3.0
87.843	1.0
87.858	6.0
87.873	4.0
87.888	3.0
87.903	0.0
87.918	2.0
87.933	2.0
87.948	3.0
87.963	3.0
87.978	2.0
87.993	2.0
88.008	1.0
88.023	2.0
88.038	5.0
88.053	2.0
88.068	4.0
88.083	3.0
88.098	1.0
88.113	5.0
88.128	1.0
88.143	5.0
88.158	4.0
88.174	4.0
88.189	2.0
88.204	2.0
88.219	1.0
88.234	3.0
88.249	2.0
88.264	4.0
88.279	2.0
88.294	2.0
88.309	4.0
88.324	1.0
88.339	2.0
88.354	3.0
88.369	2.0
88.384	5.0
88.399	6.0
88.414	5.0
88.429	4.0
88.444	1.0
88.459	2.0
88.474	3.0
88.489	3.0
88.504	4.0
88.519	9.0
88.534	1.0
88.549	4.0
88.564	5.0
88.58	3.0
88.595	2.0
88.61	3.0
88.625	3.0
88.64	5.0
88.655	2.0
88.67	5.0
88.685	2.0
88.7	4.0
88.715	3.0
88.73	1.0
88.745	3.0
88.76	5.0
88.775	5.0
88.79	4.0
88.805	7.0
88.82	5.0
88.835	3.0
88.85	4.0
88.865	1.0
88.88	1.0
88.895	3.0
88.911	5.0
88.926	1.0
88.941	3.0
88.956	3.0
88.971	5.0
88.986	5.0
89.001	5.0
89.016	0.0
89.031	0.0
89.046	2.0
89.061	1.0
89.076	2.0
89.091	0.0
89.106	1.0
89.121	4.0
89.136	3.0
89.151	5.0
89.166	5.0
89.181	1.0
89.196	2.0
89.211	6.0
89.227	7.0
89.242	4.0
89.257	5.0
89.272	4.0
89.287	4.0
89.302	3.0
89.317	1.0
89.332	3.0
89.347	1.0
89.362	5.0
89.377	3.0
89.392	1.0
89.407	3.0
89.422	1.0
89.437	5.0
89.452	8.0
89.467	3.0
89.482	6.0
89.497	3.0
89.512	4.0
89.527	6.0
89.542	2.0
89.557	3.0
89.572	6.0
89.587	4.0
89.602	2.0
89.617	0.0
89.632	1.0
89.647	2.0
89.662	3.0
89.677	2.0
89.693	1.0
89.708	1.0
89.723	0.0
89.738	4.0
89.753	3.0
89.768	2.0
89.783	0.0
89.798	5.0
89.813	2.0
89.828	0.0
89.843	1.0
89.858	4.0
89.873	4.0
89.888	3.0
89.903	4.0
89.918	2.0
89.933	2.0
89.948	1.0
89.963	2.0
89.978	3.0
89.993	3.0
90.008	3.0
90.023	2.0
90.038	2.0
90.053	1.0
90.068	5.0
90.083	8.0
90.097	5.0
90.112	8.0
90.127	2.0
90.142	6.0
90.157	5.0
90.172	5.0
90.187	6.0
90.202	2.0
90.217	4.0
90.232	4.0
90.247	3.0
90.262	2.0
90.277	5.0
90.292	3.0
90.307	6.0
90.322	3.0
90.337	4.0
90.352	4.0
90.367	1.0
90.382	3.0
90.397	2.0
90.412	7.0
90.427	7.0
90.442	1.0
90.457	4.0
90.472	1.0
90.487	2.0
90.501	3.0
90.516	3.0
90.531	3.0
90.546	1.0
90.561	2.0
90.576	5.0
90.591	1.0
90.606	4.0
90.621	5.0
90.636	6.0
90.651	3.0
90.666	1.0
90.681	3.0
90.696	3.0
90.711	2.0
90.726	5.0
90.741	1.0
90.755	6.0
90.77	3.0
90.785	1.0
90.8	4.0
90.815	4.0
90.83	1.0
90.845	4.0
90.86	5.0
90.875	3.0
90.89	2.0
90.905	4.0
90.92	3.0
90.935	3.0
90.95	4.0
90.965	1.0
90.979	3.0
90.994	2.0
91.009	3.0
91.024	4.0
91.039	1.0
91.054	4.0
91.069	3.0
91.084	3.0
91.099	9.0
91.114	3.0
91.129	4.0
91.144	3.0
91.159	7.0
91.174	4.0
91.188	2.0
91.203	3.0
91.218	3.0
91.233	4.0
91.248	4.0
91.263	5.0
91.278	3.0
91.293	3.0
91.308	3.0
91.323	2.0
91.338	2.0
91.353	2.0
91.368	0.0
91.383	5.0
91.398	2.0
91.412	6.0
91.427	3.0
91.442	1.0
91.457	1.0
91.472	4.0
91.487	2.0
91.502	2.0
91.517	1.0
91.532	2.0
91.547	1.0
91.562	3.0
91.577	1.0
91.592	6.0
91.607	2.0
91.622	3.0
91.637	3.0
91.652	5.0
91.666	3.0
91.681	4.0
91.696	1.0
91.711	1.0
91.726	3.0
91.741	4.0
91.756	3.0
91.771	1.0
91.786	4.0
91.801	5.0
91.816	2.0
91.831	2.0
91.846	4.0
91.861	3.0
91.876	4.0
91.891	7.0
91.906	2.0
91.921	4.0
91.936	4.0
91.951	3.0
91.966	3.0
91.981	7.0
91.995	3.0
92.01	0.0
92.025	2.0
92.04	2.0
92.055	3.0
92.07	1.0
92.085	0.0
92.1	2.0
92.115	2.0
92.13	2.0
92.145	4.0
92.16	2.0
92.175	4.0
92.19	3.0
92.205	1.0
92.22	0.0
92.235	7.0
92.25	4.0
92.265	4.0
92.28	1.0
92.295	3.0
92.31	5.0
92.325	4.0
92.34	4.0
92.355	3.0
92.37	4.0
92.385	1.0
92.4	2.0
92.415	1.0
92.43	4.0
92.445	1.0
92.46	5.0
92.475	0.0
92.49	2.0
92.505	1.0
92.52	4.0
92.535	1.0
92.55	3.0
92.565	4.0
92.58	2.0
92.595	9.0
92.61	6.0
92.625	5.0
92.64	4.0
92.655	5.0
92.67	6.0
92.685	4.0
92.7	8.0
92.715	4.0
92.73	1.0
92.745	3.0
92.76	1.0
92.775	1.0
92.79	5.0
92.805	3.0
92.82	2.0
92.835	4.0
92.85	4.0
92.865	2.0
92.88	2.0
92.895	1.0
92.91	5.0
92.925	3.0
92.94	2.0
92.955	1.0
92.97	5.0
92.985	1.0
93.0	5.0
93.015	2.0
93.03	2.0
93.045	0.0
93.06	3.0
93.075	4.0
93.09	2.0
93.105	6.0
93.12	0.0
93.135	3.0
93.15	1.0
93.165	2.0
93.18	3.0
93.195	2.0
93.21	2.0
93.225	3.0
93.24	2.0
93.255	3.0
93.27	3.0
93.285	4.0
93.3	1.0
93.315	2.0
93.33	3.0
93.345	2.0
93.36	2.0
93.375	7.0
93.39	4.0
93.405	6.0
93.42	6.0
93.435	3.0
93.45	7.0
93.465	3.0
93.48	8.0
93.495	4.0
93.51	3.0
93.525	6.0
93.54	4.0
93.555	3.0
93.57	3.0
93.585	2.0
93.6	5.0
93.615	3.0
93.63	0.0
93.645	5.0
93.66	2.0
93.675	4.0
93.69	4.0
93.705	6.0
93.72	4.0
93.735	5.0
93.75	8.0
93.765	4.0
93.78	1.0
93.795	1.0
93.81	5.0
93.824	4.0
93.839	2.0
93.854	10.0
93.869	4.0
93.884	5.0
93.899	4.0
93.914	4.0
93.929	1.0
93.944	5.0
93.959	3.0
93.974	1.0
93.989	4.0
94.004	4.0
94.019	1.0
94.034	0.0
94.049	4.0
94.064	5.0
94.079	2.0
94.094	3.0
94.108	4.0
94.123	2.0
94.138	3.0
94.153	7.0
94.168	1.0
94.183	3.0
94.198	2.0
94.213	3.0
94.228	5.0
94.243	2.0
94.258	1.0
94.273	2.0
94.288	5.0
94.302	2.0
94.317	4.0
94.332	9.0
94.347	1.0
94.362	3.0
94.377	4.0
94.392	5.0
94.407	3.0
94.422	4.0
94.437	1.0
94.452	9.0
94.466	7.0
94.481	5.0
94.496	7.0
94.511	0.0
94.526	2.0
94.541	4.0
94.556	7.0
94.571	4.0
94.586	3.0
94.601	6.0
94.615	3.0
94.63	4.0
94.645	5.0
94.66	8.0
94.675	3.0
94.69	2.0
94.705	5.0
94.72	1.0
94.735	1.0
94.749	5.0
94.764	5.0
94.779	2.0
94.794	1.0
94.809	4.0
94.824	2.0
94.839	3.0
94.854	2.0
94.868	2.0
94.883	4.0
94.898	2.0
94.913	1.0
94.928	1.0
94.943	1.0
94.958	5.0
94.973	4.0
94.987	4.0
95.002	6.0
95.017	6.0
95.032	3.0
95.047	3.0
95.062	3.0
95.077	3.0
95.092	1.0
95.106	4.0
95.121	2.0
95.136	4.0
95.151	4.0
95.166	7.0
95.181	6.0
95.196	10.0
95.211	6.0
95.226	3.0
95.24	6.0
95.255	4.0
95.27	6.0
95.285	4.0
95.3	4.0
95.315	5.0
95.33	3.0
95.345	5.0
95.359	4.0
95.374	4.0
95.389	1.0
95.404	0.0
95.419	4.0
95.434	2.0
95.449	4.0
95.464	4.0
95.478	6.0
95.493	5.0
95.508	4.0
95.523	2.0
95.538	3.0
95.553	2.0
95.568	2.0
95.583	1.0
95.597	1.0
95.612	2.0
95.627	1.0
95.642	6.0
95.657	4.0
95.672	3.0
95.687	8.0
95.702	2.0
95.717	3.0
95.731	1.0
95.746	2.0
95.761	1.0
95.776	2.0
95.791	3.0
95.806	2.0
95.821	2.0
95.836	2.0
95.851	2.0
95.866	6.0
95.88	2.0
95.895	2.0
95.91	0.0
95.925	2.0
95.94	2.0
95.955	4.0
95.97	0.0
95.985	4.0
96.0	7.0
96.015	4.0
96.029	4.0
96.044	4.0
96.059	1.0
96.074	4.0
96.089	6.0
96.104	4.0
96.119	5.0
96.134	2.0
96.149	6.0
96.164	1.0
96.179	4.0
96.194	0.0
96.208	7.0
96.223	3.0
96.238	3.0
96.253	0.0
96.268	0.0
96.283	2.0
96.298	6.0
96.313	1.0
96.328	6.0
96.343	7.0
96.358	7.0
96.373	1.0
96.388	4.0
96.403	1.0
96.417	4.0
96.432	6.0
96.447	4.0
96.462	4.0
96.477	1.0
96.492	1.0
96.507	2.0
96.522	4.0
96.537	5.0
96.552	6.0
96.567	2.0
96.582	3.0
96.597	2.0
96.612	1.0
96.627	3.0
96.642	2.0
96.656	4.0
96.671	6.0
96.686	2.0
96.701	0.0
96.716	3.0
96.731	3.0
96.746	6.0
96.761	4.0
96.776	1.0
96.791	2.0
96.806	3.0
96.821	3.0
96.836	3.0
96.851	4.0
96.866	1.0
96.881	4.0
96.896	4.0
96.911	0.0
96.926	2.0
96.94	2.0
96.955	4.0
96.97	4.0
96.985	3.0
97.0	5.0
97.015	7.0
97.03	3.0
97.045	4.0
97.06	1.0
97.075	4.0
97.09	5.0
97.105	5.0
97.12	3.0
97.135	3.0
97.15	1.0
97.165	6.0
97.18	4.0
97.195	1.0
97.21	2.0
97.225	1.0
97.239	3.0
97.254	3.0
97.269	1.0
97.284	1.0
97.299	4.0
97.314	5.0
97.329	3.0
97.344	3.0
97.359	2.0
97.374	4.0
97.389	1.0
97.404	4.0
97.419	4.0
97.434	1.0
97.449	1.0
97.464	5.0
97.479	6.0
97.494	4.0
97.509	5.0
97.524	3.0
97.538	2.0
97.553	8.0
97.568	3.0
97.583	2.0
97.598	1.0
97.613	3.0
97.628	3.0
97.643	2.0
97.658	6.0
97.673	5.0
97.688	3.0
97.703	0.0
97.718	3.0
97.733	4.0
97.748	3.0
97.763	2.0
97.778	3.0
97.792	4.0
97.807	5.0
97.822	4.0
97.837	3.0
97.852	6.0
97.867	4.0
97.882	0.0
97.897	2.0
97.912	1.0
97.927	1.0
97.942	5.0
97.957	2.0
97.972	3.0
97.987	4.0
98.001	3.0
98.016	3.0
98.031	6.0
98.046	5.0
98.061	4.0
98.076	1.0
98.091	3.0
98.106	3.0
98.121	3.0
98.136	0.0
98.151	5.0
98.166	2.0
98.181	4.0
98.195	1.0
98.21	4.0
98.225	2.0
98.24	1.0
98.255	4.0
98.27	2.0
98.285	4.0
98.3	2.0
98.315	3.0
98.33	1.0
98.345	5.0
98.359	1.0
98.374	4.0
98.389	1.0
98.404	3.0
98.419	5.0
98.434	3.0
98.449	2.0
98.464	4.0
98.479	3.0
98.494	3.0
98.508	4.0
98.523	7.0
98.538	2.0
98.553	1.0
98.568	4.0
98.583	7.0
98.598	2.0
98.613	3.0
98.628	3.0
98.642	6.0
98.657	2.0
98.672	6.0
98.687	3.0
98.702	3.0
98.717	1.0
98.732	4.0
98.747	0.0
98.762	2.0
98.776	8.0
98.791	2.0
98.806	0.0
98.821	3.0
98.836	1.0
98.851	4.0
98.866	2.0
98.881	1.0
98.896	3.0
98.91	2.0
98.925	3.0
98.94	3.0
98.955	6.0
98.97	2.0
98.985	5.0
99.0	4.0
99.015	2.0
99.029	4.0
99.044	3.0
99.059	2.0
99.074	3.0
99.089	5.0
99.104	4.0
99.119	0.0
99.133	4.0
99.148	2.0
99.163	3.0
99.178	1.0
99.193	3.0
99.208	3.0
99.223	5.0
99.238	5.0
99.252	3.0
99.267	2.0
99.282	9.0
99.297	4.0
99.312	4.0
99.327	5.0
99.342	4.0
99.356	1.0
99.371	4.0
99.386	4.0
99.401	4.0
99.416	4.0
99.431	2.0
99.446	5.0
99.461	1.0
99.475	5.0
99.49	2.0
99.505	4.0
99.52	5.0
99.535	4.0
99.55	2.0
99.565	2.0
99.579	3.0
99.594	3.0
99.609	4.0
99.624	3.0
99.639	3.0
99.654	1.0
99.669	3.0
99.683	2.0
99.698	5.0
99.713	3.0
99.728	3.0
99.743	4.0
99.758	3.0
99.772	1.0
99.787	4.0
99.802	2.0
99.817	0.0
99.832	2.0
99.847	3.0
99.862	3.0
99.876	3.0
99.891	6.0
99.906	7.0
99.921	3.0
99.936	4.0
99.951	3.0
99.966	9.0
99.98	4.0
99.995	6.0
100.01	4.0
100.025	3.0
100.04	5.0
100.055	4.0
100.069	5.0
100.084	5.0
100.099	0.0
100.114	3.0
100.129	2.0
100.144	2.0
100.159	3.0
100.173	7.0
100.188	2.0
100.203	4.0
100.218	5.0
100.233	1.0
100.248	4.0
100.262	4.0
100.277	4.0
100.292	4.0
100.307	2.0
100.322	4.0
100.337	3.0
100.351	4.0
100.366	5.0
100.381	7.0
100.396	1.0
100.411	3.0
100.426	2.0
100.441	2.0
100.455	2.0
100.47	5.0
100.485	2.0
100.5	2.0
100.515	5.0
100.53	4.0
100.544	3.0
100.559	2.0
100.574	5.0
100.589	4.0
100.604	0.0
100.619	0.0
100.633	3.0
100.648	3.0
100.663	2.0
100.678	4.0
100.693	6.0
100.708	2.0
100.722	4.0
100.737	3.0
100.752	7.0
100.767	3.0
100.782	2.0
100.796	5.0
100.811	1.0
100.826	5.0
100.841	3.0
100.856	3.0
100.871	5.0
100.885	4.0
100.9	0.0
100.915	8.0
100.93	3.0
100.945	3.0
100.96	1.0
100.974	2.0
100.989	3.0
101.004	4.0
101.019	5.0
101.034	4.0
101.048	1.0
101.063	2.0
101.078	3.0
101.093	4.0
101.108	2.0
101.123	8.0
101.137	3.0
101.152	5.0
101.167	8.0
101.182	5.0
101.197	5.0
101.211	4.0
101.226	2.0
101.241	5.0
101.256	5.0
101.271	1.0
101.285	4.0
101.3	1.0
101.315	2.0
101.33	4.0
101.345	2.0
101.359	3.0
101.374	2.0
101.389	2.0
101.404	1.0
101.419	3.0
101.433	5.0
101.448	5.0
101.463	2.0
101.478	6.0
101.493	2.0
101.507	2.0
101.522	4.0
101.537	6.0
101.552	1.0
101.567	1.0
101.581	3.0
101.596	2.0
101.611	0.0
101.626	2.0
101.64	0.0
101.655	3.0
101.67	2.0
101.685	3.0
101.7	2.0
101.714	1.0
101.729	7.0
101.744	0.0
101.759	4.0
101.773	2.0
101.788	5.0
101.803	3.0
101.818	4.0
101.833	4.0
101.847	2.0
101.862	3.0
101.877	1.0
101.892	8.0
101.906	2.0
101.921	1.0
101.936	3.0
101.951	1.0
101.965	4.0
101.98	3.0
101.995	6.0
102.01	2.0
102.025	5.0
102.039	3.0
102.054	2.0
102.069	1.0
102.084	1.0
102.098	4.0
102.113	2.0
102.128	3.0
102.143	0.0
102.157	2.0
102.172	4.0
102.187	3.0
102.202	5.0
102.216	4.0
102.231	3.0
102.246	6.0
102.261	4.0
102.275	5.0
102.29	3.0
102.305	3.0
102.32	3.0
102.334	1.0
102.349	3.0
102.364	4.0
102.378	1.0
102.393	3.0
102.408	5.0
102.423	2.0
102.437	5.0
102.452	5.0
102.467	2.0
102.482	4.0
102.496	2.0
102.511	1.0
102.526	1.0
102.541	2.0
102.555	3.0
102.57	5.0
102.585	3.0
102.6	3.0
102.614	1.0
102.629	2.0
102.644	3.0
102.659	4.0
102.673	2.0
102.688	2.0
102.703	6.0
102.717	7.0
102.732	0.0
102.747	3.0
102.762	1.0
102.776	1.0
102.791	3.0
102.806	3.0
102.821	0.0
102.835	3.0
102.85	8.0
102.865	4.0
102.88	4.0
102.894	4.0
102.909	3.0
102.924	5.0
102.938	3.0
102.953	2.0
102.968	3.0
102.983	4.0
102.997	5.0
103.012	2.0
103.027	4.0
103.042	2.0
103.056	6.0
103.071	5.0
103.086	2.0
103.101	3.0
103.115	1.0
103.13	2.0
103.145	2.0
103.16	3.0
103.174	9.0
103.189	1.0
103.204	1.0
103.219	0.0
103.233	4.0
103.248	4.0
103.263	1.0
103.278	4.0
103.292	2.0
103.307	2.0
103.322	6.0
103.337	2.0
103.351	4.0
103.366	1.0
103.381	2.0
103.396	2.0
103.41	4.0
103.425	1.0
103.44	1.0
103.455	2.0
103.469	4.0
103.484	2.0
103.499	7.0
103.514	2.0
103.529	5.0
103.543	3.0
103.558	4.0
103.573	2.0
103.588	1.0
103.602	4.0
103.617	0.0
103.632	3.0
103.647	2.0
103.661	4.0
103.676	4.0
103.691	9.0
103.706	2.0
103.721	5.0
103.735	3.0
103.75	2.0
103.765	3.0
103.78	1.0
103.795	2.0
103.809	3.0
103.824	4.0
103.839	3.0
103.854	6.0
103.869	3.0
103.883	4.0
103.898	3.0
103.913	5.0
103.928	1.0
103.943	3.0
103.957	4.0
103.972	4.0
103.987	4.0
104.002	7.0
104.017	3.0
104.031	4.0
104.046	5.0
104.061	4.0
104.076	4.0
104.091	0.0
104.106	2.0
104.12	2.0
104.135	3.0
104.15	5.0
104.165	2.0
104.18	4.0
104.195	5.0
104.209	0.0
104.224	6.0
104.239	1.0
104.254	5.0
104.269	1.0
104.284	4.0
104.299	2.0
104.313	2.0
104.328	5.0
104.343	3.0
104.358	2.0
104.373	4.0
104.388	3.0
104.403	4.0
104.417	2.0
104.432	3.0
104.447	5.0
104.462	1.0
104.477	3.0
104.492	2.0
104.507	7.0
104.522	4.0
104.536	2.0
104.551	9.0
104.566	4.0
104.581	5.0
104.596	3.0
104.611	5.0
104.626	8.0
104.641	7.0
104.656	5.0
104.67	6.0
104.685	4.0
104.7	5.0
104.715	2.0
104.73	2.0
104.745	1.0
104.76	2.0
104.775	7.0
104.79	3.0
104.804	1.0
104.819	2.0
104.834	6.0
104.849	4.0
104.864	1.0
104.879	4.0
104.894	7.0
104.909	3.0
104.924	4.0
104.939	3.0
104.954	5.0
104.968	4.0
104.983	3.0
104.998	3.0
105.013	4.0
105.028	2.0
105.043	1.0
105.058	4.0
105.073	2.0
105.088	7.0
105.103	3.0
105.118	4.0
105.133	4.0
105.147	5.0
105.162	3.0
105.177	5.0
105.192	2.0
105.207	2.0
105.222	0.0
105.237	9.0
105.252	1.0
105.267	2.0
105.282	7.0
105.297	3.0
105.312	3.0
105.327	3.0
105.342	3.0
105.356	1.0
105.371	2.0
105.386	7.0
105.401	5.0
105.416	2.0
105.431	3.0
105.446	4.0
105.461	4.0
105.476	4.0
105.491	2.0
105.506	1.0
105.521	6.0
105.536	6.0
105.551	4.0
105.566	2.0
105.581	5.0
105.595	3.0
105.61	3.0
105.625	3.0
105.64	2.0
105.655	3.0
105.67	2.0
105.685	3.0
105.7	1.0
105.715	6.0
105.73	1.0
105.745	2.0
105.76	1.0
105.775	3.0
105.79	1.0
105.805	2.0
105.82	3.0
105.835	4.0
105.85	4.0
105.864	2.0
105.879	8.0
105.894	0.0
105.909	1.0
105.924	6.0
105.939	3.0
105.954	1.0
105.969	0.0
105.984	1.0
105.999	3.0
106.014	2.0
106.029	3.0
106.044	2.0
106.059	4.0
106.074	3.0
106.089	7.0
106.104	3.0
106.119	5.0
106.134	2.0
106.148	2.0
106.163	6.0
106.178	6.0
106.193	2.0
106.208	3.0
106.223	0.0
106.238	4.0
106.253	4.0
106.268	4.0
106.283	4.0
106.298	4.0
106.313	2.0
106.328	4.0
106.343	3.0
106.358	4.0
106.373	5.0
106.388	4.0
106.403	5.0
106.418	1.0
106.432	0.0
106.447	3.0
106.462	0.0
106.477	2.0
106.492	3.0
106.507	4.0
106.522	2.0
106.537	4.0
106.552	4.0
106.567	1.0
106.582	4.0
106.597	1.0
106.612	8.0
106.627	4.0
106.642	1.0
106.657	5.0
106.672	5.0
106.687	2.0
106.701	2.0
106.716	2.0
106.731	5.0
106.746	3.0
106.761	3.0
106.776	2.0
106.791	6.0
106.806	3.0
106.821	6.0
106.836	3.0
106.851	3.0
106.866	5.0
106.881	4.0
106.896	3.0
106.911	4.0
106.926	3.0
106.941	0.0
106.955	3.0
106.97	4.0
106.985	3.0
107.0	1.0
107.015	2.0
107.03	6.0
107.045	1.0
107.06	3.0
107.075	7.0
107.09	2.0
107.105	2.0
107.12	3.0
107.135	2.0
107.15	3.0
107.165	8.0
107.18	2.0
107.194	3.0
107.209	6.0
107.224	3.0
107.239	5.0
107.254	0.0
107.269	6.0
107.284	4.0
107.299	5.0
107.314	1.0
107.329	4.0
107.344	3.0
107.359	1.0
107.374	2.0
107.389	5.0
107.404	3.0
107.418	1.0
107.433	9.0
107.448	2.0
107.463	4.0
107.478	1.0
107.493	2.0
107.508	9.0
107.523	2.0
107.538	3.0
107.553	3.0
107.568	2.0
107.583	3.0
107.598	3.0
107.613	1.0
107.627	2.0
107.642	4.0
107.657	2.0
107.672	0.0
107.687	4.0
107.702	4.0
107.717	4.0
107.732	1.0
107.747	4.0
107.762	3.0
107.777	3.0
107.792	4.0
107.807	4.0
107.821	2.0
107.836	6.0
107.851	2.0
107.866	6.0
107.881	6.0
107.896	3.0
107.911	5.0
107.926	2.0
107.941	1.0
107.956	3.0
107.971	2.0
107.986	8.0
108.0	4.0
108.015	1.0
108.03	6.0
108.045	6.0
108.06	5.0
108.075	7.0
108.09	4.0
108.105	9.0
108.12	6.0
108.135	3.0
108.15	2.0
108.164	3.0
108.179	4.0
108.194	4.0
108.209	5.0
108.224	1.0
108.239	8.0
108.254	6.0
108.269	1.0
108.284	5.0
108.299	3.0
108.313	4.0
108.328	5.0
108.343	3.0
108.358	0.0
108.373	4.0
108.388	3.0
108.403	3.0
108.418	2.0
108.433	2.0
108.448	3.0
108.462	4.0
108.477	4.0
108.492	3.0
108.507	2.0
108.522	4.0
108.537	6.0
108.552	3.0
108.567	3.0
108.582	3.0
108.597	3.0
108.611	7.0
108.626	1.0
108.641	3.0
108.656	1.0
108.671	5.0
108.686	5.0
108.701	2.0
108.716	2.0
108.731	3.0
108.745	4.0
108.76	3.0
108.775	7.0
108.79	3.0
108.805	6.0
108.82	3.0
108.835	2.0
108.85	3.0
108.865	4.0
108.879	5.0
108.894	2.0
108.909	4.0
108.924	4.0
108.939	2.0
108.954	4.0
108.969	1.0
108.984	3.0
108.999	4.0
109.013	4.0
109.028	2.0
109.043	1.0
109.058	7.0
109.073	5.0
109.088	4.0
109.103	2.0
109.118	2.0
109.133	5.0
109.147	4.0
109.162	2.0
109.177	1.0
109.192	2.0
109.207	3.0
109.222	0.0
109.237	1.0
109.252	5.0
109.267	3.0
109.281	5.0
109.296	6.0
109.311	0.0
109.326	1.0
109.341	4.0
109.356	3.0
109.371	1.0
109.386	2.0
109.4	2.0
109.415	5.0
109.43	5.0
109.445	1.0
109.46	8.0
109.475	8.0
109.49	3.0
109.505	7.0
109.52	6.0
109.534	3.0
109.549	2.0
109.564	4.0
109.579	1.0
109.594	5.0
109.609	3.0
109.624	5.0
109.639	1.0
109.653	4.0
109.668	1.0
109.683	2.0
109.698	3.0
109.713	4.0
109.728	4.0
109.743	8.0
109.758	3.0
109.773	3.0
109.787	0.0
109.802	4.0
109.817	3.0
109.832	5.0
109.847	3.0
109.862	2.0
109.877	4.0
109.892	5.0
109.907	3.0
109.921	3.0
109.936	0.0
109.951	3.0
109.966	2.0
109.981	2.0
109.996	1.0
110.011	1.0
110.026	2.0
110.04	5.0
110.055	5.0
110.07	7.0
110.085	5.0
110.1	1.0
110.115	4.0
110.13	4.0
110.145	4.0
110.16	4.0
110.174	3.0
110.189	2.0
110.204	7.0
110.219	3.0
110.234	4.0
110.249	2.0
110.264	1.0
110.279	2.0
110.294	2.0
110.308	3.0
110.323	7.0
110.338	1.0
110.353	3.0
110.368	6.0
110.383	2.0
110.398	4.0
110.413	2.0
110.428	5.0
110.442	1.0
110.457	1.0
110.472	7.0
110.487	1.0
110.502	4.0
110.517	0.0
110.532	1.0
110.547	3.0
110.561	3.0
110.576	1.0
110.591	2.0
110.606	1.0
110.621	3.0
110.636	4.0
110.651	4.0
110.666	4.0
110.681	5.0
110.695	5.0
110.71	6.0
110.725	1.0
110.74	1.0
110.755	2.0
110.77	5.0
110.785	5.0
110.8	5.0
110.815	5.0
110.829	6.0
110.844	2.0
110.859	3.0
110.874	2.0
110.889	5.0
110.904	5.0
110.919	4.0
110.934	4.0
110.948	3.0
110.963	3.0
110.978	5.0
110.993	5.0
111.008	3.0
111.023	3.0
111.038	1.0
111.053	5.0
111.067	1.0
111.082	4.0
111.097	4.0
111.112	4.0
111.127	3.0
111.142	5.0
111.157	5.0
111.172	2.0
111.186	1.0
111.201	3.0
111.216	4.0
111.231	4.0
111.246	5.0
111.261	3.0
111.276	9.0
111.291	4.0
111.305	1.0
111.32	6.0
111.335	6.0
111.35	5.0
111.365	9.0
111.38	3.0
111.395	5.0
111.41	3.0
111.424	3.0
111.439	4.0
111.454	2.0
111.469	3.0
111.484	3.0
111.499	8.0
111.514	1.0
111.528	5.0
111.543	2.0
111.558	1.0
111.573	2.0
111.588	3.0
111.603	4.0
111.618	3.0
111.633	2.0
111.647	4.0
111.662	4.0
111.677	5.0
111.692	8.0
111.707	8.0
111.722	8.0
111.737	2.0
111.751	7.0
111.766	3.0
111.781	4.0
111.796	5.0
111.811	4.0
111.826	2.0
111.84	1.0
111.855	5.0
111.87	3.0
111.885	5.0
111.9	1.0
111.915	6.0
111.93	2.0
111.944	5.0
111.959	1.0
111.974	5.0
111.989	10.0
112.004	3.0
112.019	6.0
112.033	2.0
112.048	4.0
112.063	4.0
112.078	0.0
112.093	5.0
112.108	4.0
112.123	5.0
112.137	4.0
112.152	5.0
112.167	6.0
112.182	3.0
112.197	2.0
112.212	4.0
112.226	4.0
112.241	1.0
112.256	4.0
112.271	3.0
112.286	4.0
112.301	4.0
112.315	2.0
112.33	3.0
112.345	2.0
112.36	1.0
112.375	1.0
112.389	6.0
112.404	7.0
112.419	3.0
112.434	3.0
112.449	3.0
112.464	4.0
112.478	3.0
112.493	4.0
112.508	3.0
112.523	4.0
112.538	4.0
112.553	1.0
112.567	3.0
112.582	4.0
112.597	4.0
112.612	0.0
112.627	4.0
112.642	1.0
112.656	3.0
112.671	7.0
112.686	3.0
112.701	4.0
112.716	4.0
112.73	5.0
112.745	6.0
112.76	4.0
112.775	6.0
112.79	4.0
112.805	2.0
112.819	1.0
112.834	6.0
112.849	3.0
112.864	4.0
112.879	4.0
112.894	6.0
112.908	4.0
112.923	7.0
112.938	2.0
112.953	1.0
112.968	1.0
112.983	3.0
112.997	2.0
113.012	2.0
113.027	1.0
113.042	5.0
113.057	4.0
113.072	1.0
113.086	3.0
113.101	3.0
113.116	4.0
113.131	3.0
113.146	2.0
113.161	1.0
113.175	2.0
113.19	4.0
113.205	3.0
113.22	4.0
113.235	1.0
113.25	7.0
113.265	2.0
113.279	3.0
113.294	3.0
113.309	6.0
113.324	4.0
113.339	6.0
113.354	5.0
113.368	4.0
113.383	1.0
113.398	4.0
113.413	3.0
113.428	3.0
113.443	2.0
113.458	1.0
113.472	0.0
113.487	4.0
113.502	4.0
113.517	4.0
113.532	3.0
113.547	5.0
113.562	2.0
113.576	4.0
113.591	6.0
113.606	1.0
113.621	3.0
113.636	1.0
113.651	3.0
113.666	5.0
113.681	3.0
113.695	6.0
113.71	4.0
113.725	6.0
113.74	3.0
113.755	4.0
113.77	2.0
113.785	1.0
113.8	1.0
113.814	3.0
113.829	3.0
113.844	2.0
113.859	4.0
113.874	2.0
113.889	5.0
113.904	5.0
113.919	4.0
113.934	4.0
113.949	5.0
113.963	3.0
113.978	2.0
113.993	2.0
114.008	5.0
114.023	2.0
114.038	1.0
114.053	0.0
114.068	3.0
114.083	7.0
114.098	1.0
114.113	4.0
114.127	3.0
114.142	4.0
114.157	6.0
114.172	1.0
114.187	1.0
114.202	1.0
114.217	2.0
114.232	7.0
114.247	5.0
114.262	2.0
114.277	3.0
114.292	6.0
114.307	5.0
114.322	6.0
114.337	4.0
114.351	2.0
114.366	4.0
114.381	0.0
114.396	5.0
114.411	6.0
114.426	3.0
114.441	4.0
114.456	2.0
114.471	5.0
114.486	2.0
114.501	4.0
114.516	2.0
114.531	1.0
114.546	4.0
114.561	4.0
114.576	5.0
114.591	4.0
114.606	4.0
114.621	1.0
114.636	2.0
114.65	0.0
114.665	1.0
114.68	10.0
114.695	3.0
114.71	6.0
114.725	2.0
114.74	0.0
114.755	1.0
114.77	4.0
114.785	6.0
114.8	2.0
114.815	0.0
114.83	1.0
114.845	5.0
114.86	4.0
114.875	3.0
114.89	8.0
114.905	3.0
114.92	4.0
114.935	1.0
114.95	5.0
114.965	2.0
114.98	5.0
114.995	4.0
115.009	3.0
115.024	5.0
115.039	4.0
115.054	4.0
115.069	4.0
115.084	5.0
115.099	3.0
115.114	1.0
115.129	4.0
115.144	5.0
115.159	2.0
115.174	6.0
115.189	9.0
115.204	7.0
115.219	3.0
115.234	3.0
115.249	3.0
115.264	2.0
115.279	6.0
115.294	3.0
115.309	3.0
115.323	5.0
115.338	1.0
115.353	5.0
115.368	7.0
115.383	3.0
115.398	3.0
115.413	3.0
115.428	4.0
115.443	4.0
115.458	1.0
115.473	2.0
115.488	2.0
115.503	5.0
115.518	3.0
115.533	2.0
115.548	3.0
115.562	0.0
115.577	2.0
115.592	2.0
115.607	4.0
115.622	5.0
115.637	2.0
115.652	7.0
115.667	7.0
115.682	4.0
115.697	6.0
115.712	3.0
115.727	4.0
115.741	4.0
115.756	5.0
115.771	2.0
115.786	3.0
115.801	1.0
115.816	1.0
115.831	7.0
115.846	8.0
115.861	2.0
115.875	3.0
115.89	3.0
115.905	6.0
115.92	5.0
115.935	1.0
115.95	4.0
115.965	6.0
115.98	6.0
115.995	7.0
116.009	4.0
116.024	3.0
116.039	5.0
116.054	1.0
116.069	2.0
116.084	5.0
116.099	4.0
116.113	2.0
116.128	6.0
116.143	5.0
116.158	4.0
116.173	4.0
116.188	3.0
116.202	2.0
116.217	5.0
116.232	3.0
116.247	3.0
116.262	0.0
116.277	3.0
116.291	1.0
116.306	5.0
116.321	2.0
116.336	5.0
116.351	5.0
116.366	4.0
116.38	5.0
116.395	3.0
116.41	8.0
116.425	5.0
116.44	3.0
116.454	5.0
116.469	2.0
116.484	4.0
116.499	9.0
116.514	2.0
116.528	3.0
116.543	6.0
116.558	4.0
116.573	0.0
116.588	7.0
116.602	4.0
116.617	6.0
116.632	0.0
116.647	1.0
116.662	5.0
116.676	2.0
116.691	9.0
116.706	1.0
116.721	1.0
116.735	4.0
116.75	2.0
116.765	2.0
116.78	4.0
116.795	4.0
116.809	1.0
116.824	3.0
116.839	8.0
116.854	4.0
116.868	4.0
116.883	3.0
116.898	4.0
116.913	2.0
116.927	4.0
116.942	5.0
116.957	2.0
116.972	7.0
116.986	6.0
117.001	4.0
117.016	6.0
117.031	5.0
117.045	1.0
117.06	4.0
117.075	4.0
117.09	4.0
117.104	2.0
117.119	3.0
117.134	2.0
117.149	7.0
117.163	4.0
117.178	1.0
117.193	5.0
117.208	6.0
117.222	4.0
117.237	1.0
117.252	4.0
117.267	2.0
117.281	4.0
117.296	2.0
117.311	7.0
117.325	5.0
117.34	3.0
117.355	7.0
117.37	5.0
117.384	4.0
117.399	4.0
117.414	6.0
117.429	4.0
117.443	3.0
117.458	2.0
117.473	4.0
117.487	3.0
117.502	2.0
117.517	2.0
117.532	2.0
117.546	2.0
117.561	4.0
117.576	3.0
117.59	6.0
117.605	4.0
117.62	5.0
117.635	2.0
117.649	3.0
117.664	2.0
117.679	2.0
117.693	2.0
117.708	4.0
117.723	0.0
117.738	3.0
117.752	2.0
117.767	7.0
117.782	4.0
117.796	5.0
117.811	4.0
117.826	1.0
117.841	4.0
117.855	1.0
117.87	1.0
117.885	2.0
117.899	1.0
117.914	3.0
117.929	5.0
117.944	1.0
117.958	1.0
117.973	1.0
117.988	5.0
118.002	4.0
118.017	5.0
118.032	1.0
118.047	2.0
118.062	2.0
118.077	6.0
118.092	7.0
118.107	6.0
118.121	2.0
118.136	5.0
118.151	2.0
118.166	3.0
118.181	5.0
118.196	0.0
118.211	3.0
118.225	1.0
118.24	3.0
118.255	3.0
118.27	4.0
118.285	8.0
118.3	5.0
118.315	2.0
118.33	3.0
118.344	4.0
118.359	3.0
118.374	6.0
118.389	5.0
118.404	4.0
118.419	1.0
118.434	2.0
118.449	2.0
118.463	2.0
118.478	1.0
118.493	1.0
118.508	2.0
118.523	1.0
118.538	3.0
118.553	6.0
118.567	5.0
118.582	4.0
118.597	1.0
118.612	2.0
118.627	5.0
118.642	5.0
118.657	5.0
118.672	5.0
118.686	3.0
118.701	5.0
118.716	4.0
118.731	2.0
118.746	4.0
118.761	3.0
118.776	3.0
118.791	0.0
118.805	3.0
118.82	2.0
118.835	4.0
118.85	2.0
118.865	2.0
118.88	2.0
118.895	3.0
118.909	4.0
118.924	3.0
118.939	1.0
118.954	3.0
118.969	1.0
118.984	1.0
118.999	4.0
119.014	5.0
119.028	5.0
119.043	4.0
119.058	7.0
119.073	2.0
119.088	5.0
119.103	4.0
119.118	4.0
119.133	4.0
119.147	5.0
119.162	7.0
119.177	4.0
119.192	1.0
119.207	2.0
119.222	5.0
119.237	6.0
119.251	5.0
119.266	1.0
119.281	6.0
119.296	3.0
119.311	7.0
119.326	3.0
119.341	2.0
119.356	3.0
119.37	2.0
119.385	2.0
119.4	6.0
119.415	4.0
119.43	4.0
119.445	5.0
119.46	1.0
119.475	5.0
119.489	3.0
119.504	2.0
119.519	2.0
119.534	3.0
119.549	2.0
119.564	3.0
119.579	4.0
119.593	5.0
119.608	3.0
119.623	4.0
119.638	5.0
119.653	2.0
119.668	3.0
119.683	1.0
119.698	5.0
119.712	5.0
119.727	1.0
119.742	5.0
119.757	5.0
119.772	1.0
119.787	5.0
119.802	5.0
119.817	2.0
119.831	1.0
119.846	4.0
119.861	3.0
119.876	7.0
119.891	2.0
119.906	1.0
119.921	5.0
119.935	7.0
119.95	0.0
119.965	4.0
119.98	0.0
119.995	6.0
120.01	1.0
120.025	4.0
120.04	0.0
120.054	2.0
120.069	1.0
120.084	4.0
120.099	1.0
120.114	4.0
120.129	1.0
120.144	0.0
120.159	2.0
120.173	0.0
120.188	3.0
120.203	0.0
120.218	0.0
120.233	1.0
120.248	0.0
120.263	1.0
120.277	1.0
120.292	0.0
120.307	0.0
120.322	0.0
120.337	0.0
120.352	0.0
120.367	1.0
120.382	0.0
120.396	1.0
120.411	0.0
120.426	0.0
120.441	0.0
120.456	0.0
120.471	0.0
120.486	0.0
120.501	0.0
120.515	1.0
120.53	0.0
120.545	0.0
120.56	0.0
120.575	0.0
120.59	0.0
120.605	0.0
120.619	1.0
120.634	0.0
120.649	0.0
120.664	0.0
120.679	0.0
120.694	0.0
120.709	0.0
120.724	0.0
120.738	0.0
120.753	0.0
120.768	0.0
120.783	0.0
120.798	0.0
120.813	0.0
120.828	0.0
120.843	1.0
120.857	0.0
120.872	1.0
120.887	0.0
120.902	0.0
120.917	0.0
120.932	0.0
120.947	0.0
120.961	0.0
120.976	0.0
