-1.217	0.0
-1.202	0.0
-1.187	0.0
-1.172	0.0
-1.157	0.0
-1.142	0.0
-1.128	0.0
-1.113	0.0
-1.098	0.0
-1.083	0.0
-1.068	0.0
-1.054	0.0
-1.039	0.0
-1.024	0.0
-1.009	0.0
-0.994	0.0
-0.979	0.0
-0.965	0.0
-0.95	0.0
-0.935	0.0
-0.92	0.0
-0.905	0.0
-0.891	0.0
-0.876	0.0
-0.861	0.0
-0.846	0.0
-0.831	0.0
-0.816	0.0
-0.802	0.0
-0.787	0.0
-0.772	0.0
-0.757	0.0
-0.742	0.0
-0.728	0.0
-0.713	0.0
-0.698	0.0
-0.683	0.0
-0.668	0.0
-0.653	0.0
-0.639	0.0
-0.624	0.0
-0.609	0.0
-0.594	0.0
-0.579	0.0
-0.565	0.0
-0.55	0.0
-0.535	0.0
-0.52	0.0
-0.505	0.0
-0.49	0.0
-0.476	0.0
-0.461	0.0
-0.446	0.0
-0.431	0.0
-0.416	0.0
-0.401	0.0
-0.387	0.0
-0.372	0.0
-0.357	0.0
-0.342	0.0
-0.327	0.0
-0.313	0.0
-0.298	0.0
-0.283	0.0
-0.268	0.0
-0.253	0.0
-0.238	0.0
-0.224	0.0
-0.209	0.0
-0.194	0.0
-0.179	0.0
-0.164	0.0
-0.15	0.0
-0.135	0.0
-0.12	0.0
-0.105	0.0
-0.09	0.0
-0.075	0.0
-0.061	0.0
-0.046	0.0
-0.031	0.0
-0.016	0.0
-0.001	0.0
0.013	0.0
0.028	0.0
0.043	0.0
0.058	0.0
0.073	0.0
0.088	0.0
0.102	0.0
0.117	0.0
0.132	0.0
0.147	0.0
0.162	0.0
0.176	0.0
0.191	0.0
0.206	0.0
0.221	0.0
0.236	0.0
0.251	0.0
0.265	0.0
0.28	0.0
0.295	0.0
0.31	0.0
0.325	0.0
0.339	0.0
0.354	0.0
0.369	0.0
0.384	0.0
0.399	0.0
0.414	0.0
0.428	0.0
0.443	0.0
0.458	0.0
0.473	0.0
0.488	0.0
0.502	0.0
0.517	0.0
0.532	0.0
0.547	0.0
0.562	0.0
0.577	0.0
0.591	0.0
0.606	0.0
0.621	0.0
0.636	0.0
0.651	0.0
0.665	0.0
0.68	0.0
0.695	0.0
0.71	1.0
0.725	0.0
0.74	1.0
0.754	0.0
0.769	0.0
0.784	0.0
0.799	0.0
0.814	0.0
0.828	0.0
0.843	0.0
0.858	0.0
0.873	0.0
0.888	0.0
0.903	0.0
0.917	0.0
0.932	0.0
0.947	0.0
0.962	1.0
0.977	0.0
0.991	0.0
1.006	0.0
1.021	0.0
1.036	0.0
1.051	0.0
1.065	0.0
1.08	0.0
1.095	0.0
1.11	0.0
1.125	0.0
1.14	0.0
1.154	0.0
1.169	0.0
1.184	0.0
1.199	0.0
1.214	0.0
1.228	0.0
1.243	0.0
1.258	0.0
1.273	0.0
1.288	0.0
1.302	0.0
1.317	0.0
1.332	0.0
1.347	0.0
1.362	0.0
1.376	1.0
1.391	0.0
1.406	0.0
1.421	0.0
1.436	0.0
1.45	0.0
1.465	0.0
1.48	0.0
1.495	0.0
1.51	0.0
1.524	0.0
1.539	0.0
1.554	0.0
1.569	0.0
1.584	0.0
1.598	0.0
1.613	0.0
1.628	0.0
1.643	1.0
1.658	0.0
1.672	0.0
1.687	0.0
1.702	0.0
1.717	0.0
1.732	0.0
1.746	0.0
1.761	0.0
1.776	1.0
1.791	1.0
1.806	0.0
1.82	0.0
1.835	0.0
1.85	0.0
1.865	1.0
1.88	0.0
1.894	0.0
1.909	0.0
1.924	0.0
1.939	0.0
1.954	0.0
1.968	0.0
1.983	0.0
1.998	0.0
2.013	0.0
2.028	0.0
2.042	0.0
2.057	0.0
2.072	0.0
2.087	0.0
2.101	0.0
2.116	0.0
2.131	0.0
2.146	0.0
2.161	1.0
2.175	0.0
2.19	0.0
2.205	1.0
2.22	0.0
2.235	0.0
2.249	0.0
2.264	2.0
2.279	0.0
2.294	1.0
2.308	0.0
2.323	1.0
2.338	2.0
2.353	0.0
2.368	2.0
2.382	1.0
2.397	0.0
2.412	0.0
2.427	0.0
2.442	2.0
2.456	1.0
2.471	1.0
2.486	3.0
2.501	1.0
2.515	2.0
2.53	0.0
2.545	1.0
2.56	0.0
2.575	3.0
2.589	1.0
2.604	1.0
2.619	3.0
2.634	3.0
2.649	1.0
2.663	2.0
2.678	2.0
2.693	2.0
2.708	4.0
2.722	4.0
2.737	2.0
2.752	2.0
2.767	1.0
2.782	2.0
2.796	2.0
2.811	1.0
2.826	4.0
2.841	1.0
2.856	2.0
2.87	1.0
2.885	3.0
2.9	4.0
2.915	5.0
2.93	3.0
2.944	6.0
2.959	5.0
2.974	2.0
2.989	4.0
3.004	3.0
3.018	2.0
3.033	1.0
3.048	5.0
3.063	4.0
3.078	1.0
3.092	4.0
3.107	1.0
3.122	3.0
3.137	3.0
3.152	3.0
3.166	2.0
3.181	1.0
3.196	6.0
3.211	3.0
3.226	3.0
3.24	1.0
3.255	2.0
3.27	0.0
3.285	3.0
3.3	4.0
3.315	2.0
3.329	2.0
3.344	3.0
3.359	7.0
3.374	8.0
3.389	4.0
3.403	5.0
3.418	7.0
3.433	4.0
3.448	7.0
3.463	3.0
3.478	6.0
3.492	5.0
3.507	10.0
3.522	2.0
3.537	5.0
3.552	3.0
3.567	5.0
3.581	6.0
3.596	5.0
3.611	7.0
3.626	12.0
3.641	8.0
3.656	7.0
3.671	8.0
3.685	9.0
3.7	4.0
3.715	13.0
3.73	5.0
3.745	10.0
3.76	7.0
3.775	2.0
3.789	4.0
3.804	9.0
3.819	6.0
3.834	8.0
3.849	3.0
3.864	8.0
3.879	7.0
3.894	6.0
3.908	6.0
3.923	7.0
3.938	3.0
3.953	3.0
3.968	3.0
3.983	9.0
3.998	1.0
4.013	6.0
4.027	7.0
4.042	10.0
4.057	5.0
4.072	4.0
4.087	2.0
4.102	7.0
4.117	8.0
4.132	10.0
4.147	8.0
4.162	5.0
4.176	6.0
4.191	7.0
4.206	3.0
4.221	5.0
4.236	10.0
4.251	7.0
4.266	5.0
4.281	4.0
4.296	7.0
4.311	10.0
4.326	7.0
4.341	4.0
4.356	7.0
4.37	3.0
4.385	4.0
4.4	8.0
4.415	9.0
4.43	10.0
4.445	5.0
4.46	10.0
4.475	7.0
4.49	4.0
4.505	4.0
4.52	4.0
4.535	8.0
4.55	3.0
4.565	3.0
4.58	3.0
4.595	1.0
4.61	3.0
4.625	3.0
4.639	9.0
4.654	8.0
4.669	11.0
4.684	6.0
4.699	5.0
4.714	3.0
4.729	9.0
4.744	8.0
4.759	6.0
4.774	7.0
4.789	4.0
4.804	6.0
4.819	8.0
4.834	1.0
4.849	11.0
4.864	7.0
4.879	9.0
4.894	6.0
4.909	10.0
4.924	7.0
4.939	7.0
4.954	6.0
4.969	3.0
4.984	4.0
4.999	5.0
5.014	11.0
5.029	12.0
5.044	4.0
5.059	8.0
5.074	15.0
5.089	4.0
5.104	9.0
5.119	7.0
5.134	8.0
5.149	8.0
5.164	8.0
5.179	8.0
5.194	8.0
5.209	5.0
5.224	10.0
5.239	7.0
5.254	5.0
5.269	6.0
5.284	5.0
5.299	6.0
5.314	8.0
5.329	11.0
5.344	11.0
5.359	7.0
5.374	10.0
5.389	9.0
5.404	8.0
5.419	8.0
5.434	10.0
5.449	11.0
5.464	5.0
5.479	9.0
5.494	8.0
5.509	5.0
5.524	6.0
5.539	9.0
5.554	12.0
5.569	5.0
5.584	7.0
5.599	7.0
5.614	6.0
5.629	6.0
5.644	5.0
5.659	11.0
5.674	12.0
5.689	7.0
5.704	10.0
5.719	4.0
5.734	9.0
5.749	8.0
5.764	6.0
5.779	10.0
5.794	9.0
5.809	6.0
5.824	7.0
5.839	8.0
5.854	1.0
5.869	4.0
5.884	8.0
5.899	9.0
5.914	11.0
5.929	13.0
5.944	16.0
5.959	6.0
5.974	13.0
5.989	9.0
6.004	4.0
6.019	5.0
6.034	11.0
6.049	7.0
6.064	14.0
6.079	1.0
6.094	4.0
6.109	9.0
6.124	6.0
6.139	14.0
6.154	9.0
6.169	11.0
6.184	7.0
6.199	3.0
6.214	6.0
6.229	12.0
6.244	12.0
6.259	6.0
6.274	10.0
6.289	4.0
6.304	2.0
6.319	13.0
6.334	9.0
6.349	11.0
6.364	6.0
6.379	10.0
6.394	11.0
6.409	5.0
6.424	7.0
6.439	7.0
6.454	13.0
6.469	10.0
6.484	4.0
6.499	9.0
6.514	11.0
6.529	8.0
6.544	7.0
6.559	7.0
6.574	13.0
6.589	9.0
6.604	7.0
6.619	8.0
6.634	6.0
6.649	7.0
6.664	10.0
6.679	7.0
6.694	6.0
6.709	7.0
6.724	8.0
6.739	5.0
6.754	10.0
6.769	7.0
6.784	7.0
6.799	7.0
6.814	15.0
6.829	4.0
6.844	16.0
6.859	4.0
6.873	13.0
6.888	9.0
6.903	16.0
6.918	5.0
6.933	7.0
6.948	11.0
6.963	10.0
6.978	7.0
6.993	10.0
7.008	4.0
7.023	13.0
7.038	5.0
7.053	7.0
7.068	6.0
7.083	8.0
7.098	4.0
7.113	10.0
7.128	11.0
7.143	7.0
7.157	9.0
7.172	6.0
7.187	11.0
7.202	12.0
7.217	7.0
7.232	12.0
7.247	14.0
7.262	6.0
7.277	9.0
7.292	8.0
7.307	10.0
7.322	5.0
7.336	11.0
7.351	7.0
7.366	7.0
7.381	9.0
7.396	11.0
7.411	11.0
7.426	7.0
7.441	7.0
7.456	10.0
7.471	7.0
7.485	8.0
7.5	6.0
7.515	5.0
7.53	7.0
7.545	7.0
7.56	11.0
7.575	4.0
7.59	3.0
7.604	6.0
7.619	8.0
7.634	10.0
7.649	9.0
7.664	4.0
7.679	15.0
7.693	5.0
7.708	7.0
7.723	10.0
7.738	11.0
7.753	13.0
7.768	10.0
7.783	9.0
7.797	8.0
7.812	9.0
7.827	8.0
7.842	7.0
7.857	7.0
7.871	12.0
7.886	8.0
7.901	9.0
7.916	9.0
7.931	11.0
7.945	11.0
7.96	11.0
7.975	11.0
7.99	6.0
8.005	14.0
8.019	7.0
8.034	8.0
8.049	9.0
8.064	5.0
8.078	8.0
8.093	9.0
8.108	6.0
8.123	5.0
8.137	12.0
8.152	10.0
8.167	6.0
8.182	12.0
8.196	12.0
8.211	6.0
8.226	10.0
8.241	9.0
8.255	15.0
8.27	11.0
8.285	7.0
8.3	9.0
8.314	10.0
8.329	9.0
8.344	5.0
8.358	10.0
8.373	5.0
8.388	8.0
8.403	5.0
8.417	8.0
8.432	9.0
8.447	9.0
8.461	13.0
8.476	6.0
8.491	9.0
8.505	9.0
8.52	4.0
8.535	12.0
8.55	6.0
8.564	7.0
8.579	5.0
8.594	13.0
8.608	9.0
8.623	6.0
8.638	12.0
8.652	8.0
8.667	5.0
8.682	12.0
8.696	18.0
8.711	6.0
8.726	9.0
8.74	5.0
8.755	8.0
8.77	7.0
8.784	6.0
8.799	3.0
8.814	8.0
8.828	14.0
8.843	8.0
8.858	5.0
8.872	6.0
8.887	5.0
8.902	10.0
8.916	13.0
8.931	13.0
8.946	8.0
8.96	7.0
8.975	12.0
8.99	7.0
9.004	13.0
9.019	7.0
9.034	11.0
9.048	10.0
9.063	12.0
9.077	7.0
9.092	9.0
9.107	8.0
9.121	8.0
9.136	6.0
9.151	13.0
9.165	9.0
9.18	7.0
9.195	6.0
9.209	13.0
9.224	9.0
9.239	8.0
9.253	4.0
9.268	7.0
9.283	10.0
9.297	4.0
9.312	8.0
9.327	11.0
9.341	10.0
9.356	5.0
9.371	8.0
9.385	11.0
9.4	8.0
9.415	5.0
9.429	5.0
9.444	11.0
9.458	10.0
9.473	4.0
9.488	2.0
9.502	13.0
9.517	5.0
9.532	10.0
9.546	10.0
9.561	4.0
9.576	10.0
9.59	5.0
9.605	5.0
9.62	10.0
9.635	9.0
9.649	11.0
9.664	9.0
9.679	11.0
9.693	4.0
9.708	14.0
9.723	8.0
9.737	8.0
9.752	8.0
9.767	4.0
9.781	14.0
9.796	7.0
9.811	8.0
9.825	5.0
9.84	7.0
9.855	6.0
9.87	9.0
9.884	8.0
9.899	6.0
9.914	6.0
9.928	9.0
9.943	3.0
9.958	9.0
9.973	4.0
9.987	8.0
10.002	5.0
10.017	13.0
10.031	8.0
10.046	7.0
10.061	8.0
10.076	9.0
10.09	6.0
10.105	7.0
10.12	11.0
10.135	7.0
10.149	6.0
10.164	10.0
10.179	7.0
10.194	6.0
10.208	9.0
10.223	5.0
10.238	4.0
10.253	7.0
10.267	8.0
10.282	8.0
10.297	9.0
10.312	10.0
10.326	8.0
10.341	12.0
10.356	3.0
10.371	8.0
10.386	13.0
10.4	9.0
10.415	10.0
10.43	6.0
10.445	4.0
10.46	5.0
10.474	7.0
10.489	8.0
10.504	10.0
10.519	5.0
10.533	10.0
10.548	13.0
10.563	6.0
10.578	9.0
10.593	6.0
10.608	9.0
10.622	12.0
10.637	10.0
10.652	8.0
10.667	6.0
10.682	6.0
10.696	14.0
10.711	9.0
10.726	8.0
10.741	7.0
10.756	6.0
10.771	6.0
10.785	8.0
10.8	4.0
10.815	5.0
10.83	9.0
10.845	7.0
10.86	5.0
10.874	11.0
10.889	8.0
10.904	12.0
10.919	9.0
10.934	4.0
10.949	5.0
10.963	8.0
10.978	3.0
10.993	11.0
11.008	12.0
11.023	6.0
11.038	13.0
11.053	11.0
11.067	7.0
11.082	10.0
11.097	11.0
11.112	12.0
11.127	7.0
11.142	7.0
11.157	3.0
11.172	5.0
11.186	8.0
11.201	6.0
11.216	14.0
11.231	9.0
11.246	9.0
11.261	10.0
11.276	8.0
11.291	7.0
11.305	9.0
11.32	7.0
11.335	12.0
11.35	8.0
11.365	12.0
11.38	10.0
11.395	3.0
11.41	12.0
11.424	9.0
11.439	8.0
11.454	4.0
11.469	8.0
11.484	8.0
11.499	13.0
11.514	7.0
11.529	6.0
11.544	7.0
11.558	5.0
11.573	7.0
11.588	8.0
11.603	9.0
11.618	7.0
11.633	5.0
11.648	5.0
11.663	7.0
11.678	9.0
11.693	9.0
11.707	4.0
11.722	4.0
11.737	9.0
11.752	13.0
11.767	10.0
11.782	8.0
11.797	9.0
11.812	7.0
11.827	5.0
11.842	5.0
11.856	5.0
11.871	8.0
11.886	6.0
11.901	9.0
11.916	5.0
11.931	8.0
11.946	8.0
11.961	4.0
11.976	13.0
11.991	4.0
12.006	7.0
12.02	5.0
12.035	12.0
12.05	8.0
12.065	12.0
12.08	10.0
12.095	7.0
12.11	12.0
12.125	11.0
12.14	9.0
12.155	6.0
12.17	10.0
12.184	10.0
12.199	7.0
12.214	4.0
12.229	9.0
12.244	13.0
12.259	16.0
12.274	11.0
12.289	10.0
12.304	6.0
12.319	6.0
12.334	8.0
12.348	8.0
12.363	13.0
12.378	4.0
12.393	9.0
12.408	14.0
12.423	10.0
12.438	12.0
12.453	15.0
12.468	15.0
12.483	11.0
12.498	9.0
12.513	7.0
12.527	20.0
12.542	11.0
12.557	17.0
12.572	13.0
12.587	9.0
12.602	10.0
12.617	10.0
12.632	11.0
12.647	12.0
12.662	6.0
12.677	10.0
12.692	7.0
12.707	18.0
12.721	11.0
12.736	11.0
12.751	14.0
12.766	11.0
12.781	17.0
12.796	13.0
12.811	17.0
12.826	13.0
12.841	12.0
12.856	16.0
12.871	26.0
12.886	10.0
12.9	23.0
12.915	14.0
12.93	7.0
12.945	16.0
12.96	9.0
12.975	20.0
12.99	20.0
13.005	16.0
13.02	19.0
13.035	17.0
13.05	18.0
13.065	10.0
13.08	18.0
13.094	13.0
13.109	16.0
13.124	13.0
13.139	18.0
13.154	24.0
13.169	13.0
13.184	10.0
13.199	17.0
13.214	22.0
13.229	18.0
13.244	21.0
13.259	27.0
13.274	17.0
13.288	26.0
13.303	17.0
13.318	26.0
13.333	24.0
13.348	18.0
13.363	28.0
13.378	12.0
13.393	22.0
13.408	28.0
13.423	16.0
13.438	41.0
13.453	23.0
13.468	39.0
13.482	32.0
13.497	40.0
13.512	38.0
13.527	39.0
13.542	53.0
13.557	39.0
13.572	32.0
13.587	52.0
13.602	58.0
13.617	52.0
13.632	64.0
13.647	86.0
13.662	56.0
13.677	82.0
13.691	74.0
13.706	92.0
13.721	98.0
13.736	100.0
13.751	98.0
13.766	133.0
13.781	120.0
13.796	115.0
13.811	118.0
13.826	147.0
13.841	122.0
13.856	126.0
13.871	81.0
13.885	83.0
13.9	79.0
13.915	98.0
13.93	68.0
13.945	66.0
13.96	44.0
13.975	56.0
13.99	27.0
14.005	48.0
14.02	30.0
14.035	24.0
14.05	19.0
14.065	31.0
14.08	22.0
14.094	20.0
14.109	19.0
14.124	24.0
14.139	24.0
14.154	33.0
14.169	18.0
14.184	22.0
14.199	21.0
14.214	19.0
14.229	20.0
14.244	16.0
14.259	23.0
14.274	29.0
14.288	19.0
14.303	17.0
14.318	20.0
14.333	18.0
14.348	18.0
14.363	16.0
14.378	22.0
14.393	16.0
14.408	25.0
14.423	19.0
14.438	13.0
14.453	13.0
14.468	15.0
14.482	21.0
14.497	13.0
14.512	22.0
14.527	11.0
14.542	21.0
14.557	21.0
14.572	14.0
14.587	21.0
14.602	18.0
14.617	15.0
14.632	15.0
14.647	14.0
14.661	9.0
14.676	8.0
14.691	17.0
14.706	22.0
14.721	15.0
14.736	14.0
14.751	18.0
14.766	15.0
14.781	12.0
14.796	19.0
14.811	16.0
14.826	8.0
14.84	20.0
14.855	16.0
14.87	19.0
14.885	18.0
14.9	12.0
14.915	19.0
14.93	24.0
14.945	9.0
14.96	12.0
14.975	13.0
14.989	9.0
15.004	16.0
15.019	8.0
15.034	16.0
15.049	20.0
15.064	11.0
15.079	14.0
15.094	19.0
15.109	13.0
15.124	10.0
15.138	14.0
15.153	12.0
15.168	9.0
15.183	20.0
15.198	19.0
15.213	13.0
15.228	9.0
15.243	12.0
15.258	15.0
15.272	16.0
15.287	19.0
15.302	18.0
15.317	20.0
15.332	9.0
15.347	11.0
15.362	15.0
15.377	9.0
15.391	11.0
15.406	15.0
15.421	10.0
15.436	16.0
15.451	11.0
15.466	14.0
15.481	18.0
15.496	16.0
15.51	15.0
15.525	13.0
15.54	14.0
15.555	14.0
15.57	22.0
15.585	16.0
15.6	9.0
15.614	12.0
15.629	14.0
15.644	11.0
15.659	19.0
15.674	12.0
15.689	18.0
15.704	13.0
15.718	15.0
15.733	10.0
15.748	16.0
15.763	15.0
15.778	13.0
15.793	11.0
15.808	8.0
15.822	7.0
15.837	13.0
15.852	20.0
15.867	12.0
15.882	13.0
15.897	20.0
15.911	10.0
15.926	10.0
15.941	13.0
15.956	11.0
15.971	10.0
15.986	13.0
16.0	8.0
16.015	17.0
16.03	11.0
16.045	6.0
16.06	10.0
16.074	15.0
16.089	18.0
16.104	16.0
16.119	14.0
16.134	13.0
16.149	13.0
16.163	16.0
16.178	14.0
16.193	10.0
16.208	7.0
16.223	17.0
16.237	10.0
16.252	15.0
16.267	10.0
16.282	13.0
16.297	9.0
16.311	14.0
16.326	20.0
16.341	15.0
16.356	11.0
16.37	10.0
16.385	6.0
16.4	15.0
16.415	11.0
16.43	15.0
16.444	12.0
16.459	9.0
16.474	15.0
16.489	13.0
16.504	20.0
16.518	18.0
16.533	16.0
16.548	23.0
16.563	19.0
16.577	15.0
16.592	24.0
16.607	22.0
16.622	12.0
16.637	11.0
16.651	16.0
16.666	26.0
16.681	22.0
16.696	30.0
16.71	26.0
16.725	27.0
16.74	31.0
16.755	23.0
16.77	28.0
16.784	34.0
16.799	34.0
16.814	50.0
16.829	42.0
16.843	48.0
16.858	45.0
16.873	57.0
16.888	65.0
16.902	60.0
16.917	52.0
16.932	80.0
16.947	62.0
16.961	71.0
16.976	63.0
16.991	70.0
17.006	59.0
17.021	44.0
17.035	51.0
17.05	55.0
17.065	36.0
17.08	51.0
17.094	28.0
17.109	26.0
17.124	22.0
17.139	24.0
17.153	18.0
17.168	24.0
17.183	24.0
17.198	14.0
17.212	13.0
17.227	16.0
17.242	12.0
17.257	21.0
17.271	12.0
17.286	14.0
17.301	19.0
17.316	10.0
17.33	18.0
17.345	13.0
17.36	9.0
17.375	15.0
17.39	9.0
17.404	11.0
17.419	13.0
17.434	13.0
17.449	15.0
17.463	10.0
17.478	14.0
17.493	11.0
17.508	14.0
17.522	10.0
17.537	22.0
17.552	12.0
17.567	12.0
17.581	12.0
17.596	20.0
17.611	15.0
17.626	9.0
17.641	12.0
17.655	12.0
17.67	14.0
17.685	14.0
17.7	10.0
17.714	12.0
17.729	12.0
17.744	11.0
17.759	13.0
17.773	10.0
17.788	12.0
17.803	10.0
17.818	10.0
17.833	16.0
17.847	14.0
17.862	12.0
17.877	13.0
17.892	16.0
17.906	5.0
17.921	12.0
17.936	16.0
17.951	13.0
17.966	11.0
17.98	13.0
17.995	6.0
18.01	12.0
18.025	13.0
18.04	18.0
18.054	14.0
18.069	12.0
18.084	13.0
18.099	19.0
18.114	14.0
18.128	12.0
18.143	8.0
18.158	10.0
18.173	14.0
18.188	12.0
18.202	12.0
18.217	16.0
18.232	13.0
18.247	11.0
18.262	10.0
18.276	11.0
18.291	15.0
18.306	10.0
18.321	8.0
18.336	11.0
18.35	10.0
18.365	6.0
18.38	17.0
18.395	11.0
18.41	3.0
18.424	6.0
18.439	16.0
18.454	12.0
18.469	18.0
18.484	13.0
18.498	7.0
18.513	14.0
18.528	13.0
18.543	7.0
18.558	11.0
18.573	11.0
18.587	12.0
18.602	15.0
18.617	10.0
18.632	10.0
18.647	11.0
18.661	9.0
18.676	7.0
18.691	10.0
18.706	5.0
18.721	10.0
18.736	11.0
18.75	10.0
18.765	8.0
18.78	14.0
18.795	15.0
18.81	6.0
18.825	12.0
18.839	11.0
18.854	19.0
18.869	10.0
18.884	14.0
18.899	10.0
18.913	7.0
18.928	9.0
18.943	13.0
18.958	18.0
18.973	12.0
18.988	10.0
19.002	13.0
19.017	7.0
19.032	7.0
19.047	10.0
19.062	12.0
19.077	13.0
19.091	14.0
19.106	8.0
19.121	12.0
19.136	16.0
19.151	9.0
19.165	12.0
19.18	11.0
19.195	10.0
19.21	14.0
19.225	13.0
19.24	9.0
19.254	19.0
19.269	11.0
19.284	13.0
19.299	16.0
19.314	11.0
19.329	12.0
19.343	16.0
19.358	18.0
19.373	22.0
19.388	16.0
19.403	21.0
19.417	23.0
19.432	27.0
19.447	24.0
19.462	20.0
19.477	37.0
19.492	26.0
19.506	35.0
19.521	26.0
19.536	41.0
19.551	39.0
19.566	51.0
19.58	28.0
19.595	46.0
19.61	43.0
19.625	38.0
19.64	46.0
19.655	43.0
19.669	40.0
19.684	31.0
19.699	32.0
19.714	25.0
19.729	19.0
19.743	26.0
19.758	29.0
19.773	17.0
19.788	25.0
19.803	23.0
19.817	15.0
19.832	12.0
19.847	11.0
19.862	9.0
19.877	12.0
19.891	8.0
19.906	9.0
19.921	15.0
19.936	7.0
19.951	9.0
19.965	16.0
19.98	13.0
19.995	11.0
20.01	13.0
20.025	11.0
20.039	13.0
20.054	8.0
20.069	7.0
20.084	14.0
20.099	7.0
20.113	12.0
20.128	10.0
20.143	14.0
20.158	10.0
20.173	10.0
20.187	17.0
20.202	13.0
20.217	7.0
20.232	6.0
20.246	8.0
20.261	9.0
20.276	8.0
20.291	7.0
20.306	16.0
20.32	13.0
20.335	6.0
20.35	14.0
20.365	7.0
20.38	8.0
20.394	11.0
20.409	15.0
20.424	11.0
20.439	9.0
20.453	12.0
20.468	16.0
20.483	9.0
20.498	12.0
20.513	13.0
20.527	7.0
20.542	12.0
20.557	5.0
20.572	9.0
20.586	11.0
20.601	13.0
20.616	11.0
20.631	7.0
20.646	6.0
20.66	10.0
20.675	10.0
20.69	6.0
20.705	15.0
20.719	8.0
20.734	12.0
20.749	9.0
20.764	10.0
20.779	8.0
20.793	8.0
20.808	13.0
20.823	11.0
20.838	14.0
20.853	16.0
20.867	7.0
20.882	12.0
20.897	13.0
20.912	6.0
20.926	15.0
20.941	9.0
20.956	11.0
20.971	11.0
20.986	8.0
21.0	8.0
21.015	11.0
21.03	8.0
21.045	10.0
21.06	9.0
21.074	9.0
21.089	15.0
21.104	10.0
21.119	11.0
21.134	6.0
21.148	15.0
21.163	7.0
21.178	15.0
21.193	14.0
21.208	6.0
21.222	7.0
21.237	12.0
21.252	13.0
21.267	17.0
21.282	7.0
21.296	14.0
21.311	12.0
21.326	5.0
21.341	11.0
21.356	15.0
21.37	10.0
21.385	11.0
21.4	5.0
21.415	11.0
21.43	8.0
21.444	9.0
21.459	6.0
21.474	13.0
21.489	13.0
21.504	13.0
21.519	12.0
21.533	16.0
21.548	8.0
21.563	15.0
21.578	10.0
21.593	6.0
21.608	8.0
21.622	9.0
21.637	9.0
21.652	16.0
21.667	19.0
21.682	21.0
21.697	15.0
21.712	21.0
21.726	23.0
21.741	23.0
21.756	15.0
21.771	30.0
21.786	42.0
21.801	33.0
21.816	41.0
21.83	41.0
21.845	51.0
21.86	49.0
21.875	49.0
21.89	61.0
21.905	58.0
21.92	75.0
21.935	62.0
21.949	72.0
21.964	69.0
21.979	72.0
21.994	62.0
22.009	66.0
22.024	77.0
22.039	45.0
22.054	56.0
22.069	42.0
22.083	41.0
22.098	39.0
22.113	29.0
22.128	27.0
22.143	34.0
22.158	14.0
22.173	19.0
22.188	21.0
22.203	19.0
22.218	10.0
22.233	10.0
22.248	9.0
22.262	9.0
22.277	13.0
22.292	11.0
22.307	11.0
22.322	13.0
22.337	11.0
22.352	13.0
22.367	11.0
22.382	11.0
22.397	10.0
22.412	12.0
22.427	10.0
22.442	8.0
22.457	6.0
22.472	8.0
22.487	10.0
22.502	11.0
22.516	12.0
22.531	5.0
22.546	13.0
22.561	8.0
22.576	10.0
22.591	10.0
22.606	12.0
22.621	10.0
22.636	7.0
22.651	17.0
22.666	8.0
22.681	10.0
22.696	7.0
22.711	8.0
22.726	7.0
22.741	12.0
22.756	15.0
22.771	10.0
22.786	13.0
22.801	9.0
22.816	10.0
22.831	10.0
22.846	9.0
22.861	11.0
22.876	12.0
22.891	6.0
22.906	7.0
22.92	13.0
22.935	17.0
22.95	9.0
22.965	8.0
22.98	13.0
22.995	10.0
23.01	14.0
23.025	12.0
23.04	9.0
23.055	14.0
23.07	9.0
23.085	11.0
23.1	8.0
23.115	11.0
23.13	13.0
23.145	8.0
23.16	6.0
23.175	15.0
23.19	7.0
23.205	7.0
23.22	12.0
23.235	11.0
23.25	12.0
23.265	9.0
23.28	7.0
23.295	14.0
23.31	9.0
23.325	20.0
23.34	11.0
23.355	11.0
23.37	11.0
23.384	8.0
23.399	15.0
23.414	12.0
23.429	13.0
23.444	12.0
23.459	9.0
23.474	11.0
23.489	10.0
23.504	8.0
23.519	5.0
23.534	11.0
23.549	12.0
23.564	5.0
23.579	15.0
23.594	14.0
23.609	8.0
23.624	5.0
23.639	12.0
23.654	11.0
23.668	4.0
23.683	12.0
23.698	13.0
23.713	5.0
23.728	9.0
23.743	11.0
23.758	10.0
23.773	9.0
23.788	12.0
23.803	10.0
23.818	20.0
23.833	13.0
23.848	17.0
23.862	16.0
23.877	16.0
23.892	17.0
23.907	22.0
23.922	29.0
23.937	24.0
23.952	41.0
23.967	32.0
23.982	40.0
23.997	37.0
24.011	37.0
24.026	56.0
24.041	41.0
24.056	41.0
24.071	50.0
24.086	52.0
24.101	35.0
24.116	45.0
24.131	51.0
24.145	51.0
24.16	30.0
24.175	35.0
24.19	29.0
24.205	32.0
24.22	31.0
24.235	26.0
24.249	24.0
24.264	31.0
24.279	31.0
24.294	16.0
24.309	15.0
24.324	26.0
24.338	6.0
24.353	15.0
24.368	16.0
24.383	15.0
24.398	6.0
24.413	11.0
24.428	7.0
24.442	11.0
24.457	11.0
24.472	14.0
24.487	13.0
24.502	10.0
24.516	19.0
24.531	11.0
24.546	16.0
24.561	14.0
24.576	15.0
24.591	6.0
24.605	10.0
24.62	17.0
24.635	3.0
24.65	8.0
24.665	18.0
24.679	16.0
24.694	7.0
24.709	10.0
24.724	8.0
24.739	13.0
24.753	9.0
24.768	7.0
24.783	12.0
24.798	15.0
24.813	7.0
24.827	11.0
24.842	7.0
24.857	9.0
24.872	9.0
24.886	6.0
24.901	12.0
24.916	6.0
24.931	13.0
24.946	5.0
24.96	6.0
24.975	13.0
24.99	13.0
25.005	12.0
25.019	10.0
25.034	8.0
25.049	16.0
25.064	14.0
25.078	9.0
25.093	9.0
25.108	14.0
25.123	10.0
25.138	8.0
25.152	12.0
25.167	16.0
25.182	9.0
25.197	3.0
25.211	12.0
25.226	7.0
25.241	8.0
25.256	9.0
25.27	11.0
25.285	9.0
25.3	14.0
25.315	5.0
25.329	12.0
25.344	12.0
25.359	11.0
25.374	9.0
25.388	7.0
25.403	11.0
25.418	11.0
25.433	10.0
25.447	4.0
25.462	7.0
25.477	3.0
25.492	9.0
25.506	10.0
25.521	12.0
25.536	10.0
25.55	16.0
25.565	12.0
25.58	8.0
25.595	9.0
25.609	10.0
25.624	9.0
25.639	12.0
25.654	9.0
25.668	7.0
25.683	8.0
25.698	10.0
25.713	6.0
25.727	12.0
25.742	7.0
25.757	11.0
25.772	4.0
25.786	7.0
25.801	7.0
25.816	11.0
25.83	11.0
25.845	7.0
25.86	12.0
25.875	11.0
25.889	12.0
25.904	8.0
25.919	8.0
25.934	8.0
25.948	9.0
25.963	13.0
25.978	8.0
25.992	6.0
26.007	14.0
26.022	10.0
26.037	13.0
26.051	10.0
26.066	12.0
26.081	9.0
26.096	6.0
26.11	13.0
26.125	7.0
26.14	12.0
26.155	10.0
26.169	8.0
26.184	14.0
26.199	3.0
26.213	5.0
26.228	3.0
26.243	12.0
26.258	8.0
26.272	7.0
26.287	11.0
26.302	4.0
26.317	9.0
26.331	11.0
26.346	7.0
26.361	10.0
26.376	12.0
26.39	8.0
26.405	10.0
26.42	7.0
26.434	9.0
26.449	4.0
26.464	10.0
26.479	10.0
26.493	11.0
26.508	7.0
26.523	17.0
26.538	11.0
26.552	8.0
26.567	7.0
26.582	8.0
26.597	5.0
26.611	10.0
26.626	5.0
26.641	12.0
26.656	11.0
26.67	12.0
26.685	9.0
26.7	12.0
26.715	5.0
26.729	8.0
26.744	12.0
26.759	12.0
26.773	7.0
26.788	4.0
26.803	5.0
26.818	3.0
26.832	4.0
26.847	11.0
26.862	13.0
26.877	9.0
26.891	6.0
26.906	7.0
26.921	8.0
26.936	15.0
26.95	7.0
26.965	12.0
26.98	11.0
26.995	11.0
27.01	10.0
27.024	9.0
27.039	5.0
27.054	7.0
27.069	8.0
27.083	8.0
27.098	10.0
27.113	10.0
27.128	11.0
27.142	4.0
27.157	3.0
27.172	9.0
27.187	10.0
27.201	11.0
27.216	11.0
27.231	10.0
27.246	6.0
27.261	9.0
27.275	8.0
27.29	12.0
27.305	9.0
27.32	10.0
27.334	11.0
27.349	12.0
27.364	7.0
27.379	9.0
27.394	8.0
27.408	16.0
27.423	9.0
27.438	9.0
27.453	11.0
27.467	12.0
27.482	12.0
27.497	15.0
27.512	6.0
27.527	14.0
27.541	12.0
27.556	11.0
27.571	14.0
27.586	8.0
27.601	14.0
27.615	10.0
27.63	9.0
27.645	10.0
27.66	9.0
27.675	14.0
27.689	9.0
27.704	12.0
27.719	16.0
27.734	12.0
27.749	12.0
27.763	16.0
27.778	19.0
27.793	17.0
27.808	23.0
27.823	15.0
27.838	24.0
27.852	20.0
27.867	24.0
27.882	21.0
27.897	19.0
27.912	17.0
27.926	27.0
27.941	23.0
27.956	11.0
27.971	22.0
27.986	15.0
28.001	11.0
28.015	16.0
28.03	15.0
28.045	21.0
28.06	22.0
28.075	10.0
28.09	14.0
28.105	15.0
28.119	9.0
28.134	10.0
28.149	8.0
28.164	13.0
28.179	14.0
28.194	6.0
28.208	9.0
28.223	11.0
28.238	11.0
28.253	10.0
28.268	9.0
28.283	8.0
28.298	9.0
28.312	11.0
28.327	9.0
28.342	17.0
28.357	6.0
28.372	8.0
28.387	9.0
28.402	8.0
28.417	9.0
28.431	8.0
28.446	9.0
28.461	10.0
28.476	10.0
28.491	10.0
28.506	9.0
28.521	12.0
28.536	14.0
28.55	10.0
28.565	9.0
28.58	6.0
28.595	10.0
28.61	10.0
28.625	12.0
28.64	10.0
28.655	13.0
28.669	8.0
28.684	8.0
28.699	9.0
28.714	13.0
28.729	9.0
28.744	9.0
28.759	7.0
28.774	12.0
28.788	9.0
28.803	11.0
28.818	9.0
28.833	12.0
28.848	12.0
28.863	7.0
28.878	16.0
28.893	8.0
28.908	10.0
28.922	9.0
28.937	10.0
28.952	9.0
28.967	6.0
28.982	7.0
28.997	13.0
29.012	7.0
29.027	15.0
29.041	13.0
29.056	10.0
29.071	9.0
29.086	10.0
29.101	16.0
29.116	4.0
29.131	10.0
29.146	10.0
29.16	9.0
29.175	7.0
29.19	11.0
29.205	15.0
29.22	13.0
29.235	14.0
29.25	8.0
29.265	11.0
29.279	15.0
29.294	8.0
29.309	10.0
29.324	12.0
29.339	12.0
29.354	11.0
29.369	8.0
29.384	10.0
29.398	21.0
29.413	18.0
29.428	12.0
29.443	15.0
29.458	29.0
29.473	20.0
29.488	18.0
29.502	25.0
29.517	30.0
29.532	29.0
29.547	50.0
29.562	39.0
29.577	51.0
29.592	43.0
29.606	31.0
29.621	44.0
29.636	49.0
29.651	48.0
29.666	34.0
29.681	36.0
29.695	45.0
29.71	38.0
29.725	34.0
29.74	43.0
29.755	25.0
29.77	23.0
29.784	25.0
29.799	27.0
29.814	32.0
29.829	24.0
29.844	31.0
29.859	17.0
29.873	24.0
29.888	15.0
29.903	15.0
29.918	16.0
29.933	12.0
29.947	12.0
29.962	15.0
29.977	11.0
29.992	10.0
30.007	11.0
30.021	4.0
30.036	11.0
30.051	8.0
30.066	13.0
30.081	5.0
30.095	18.0
30.11	10.0
30.125	9.0
30.14	13.0
30.155	9.0
30.169	9.0
30.184	8.0
30.199	15.0
30.214	12.0
30.228	8.0
30.243	15.0
30.258	12.0
30.273	13.0
30.288	11.0
30.302	11.0
30.317	18.0
30.332	14.0
30.347	12.0
30.361	12.0
30.376	11.0
30.391	13.0
30.406	11.0
30.42	15.0
30.435	14.0
30.45	13.0
30.465	9.0
30.479	8.0
30.494	18.0
30.509	10.0
30.524	5.0
30.538	12.0
30.553	12.0
30.568	7.0
30.583	10.0
30.597	18.0
30.612	13.0
30.627	12.0
30.641	12.0
30.656	6.0
30.671	12.0
30.686	13.0
30.7	4.0
30.715	8.0
30.73	9.0
30.745	11.0
30.759	7.0
30.774	9.0
30.789	12.0
30.803	11.0
30.818	10.0
30.833	9.0
30.848	11.0
30.862	9.0
30.877	11.0
30.892	7.0
30.906	8.0
30.921	12.0
30.936	9.0
30.951	12.0
30.965	14.0
30.98	11.0
30.995	8.0
31.009	14.0
31.024	10.0
31.039	15.0
31.053	13.0
31.068	12.0
31.083	19.0
31.098	11.0
31.112	10.0
31.127	27.0
31.142	21.0
31.156	23.0
31.171	22.0
31.186	27.0
31.2	22.0
31.215	31.0
31.23	34.0
31.245	45.0
31.259	27.0
31.274	39.0
31.289	38.0
31.303	35.0
31.318	31.0
31.333	30.0
31.347	35.0
31.362	18.0
31.377	30.0
31.392	21.0
31.406	20.0
31.421	23.0
31.436	16.0
31.45	31.0
31.465	27.0
31.48	21.0
31.494	21.0
31.509	24.0
31.524	20.0
31.538	13.0
31.553	12.0
31.568	11.0
31.583	13.0
31.597	9.0
31.612	12.0
31.627	4.0
31.641	10.0
31.656	4.0
31.671	11.0
31.685	13.0
31.7	10.0
31.715	12.0
31.729	14.0
31.744	14.0
31.759	8.0
31.774	11.0
31.788	6.0
31.803	16.0
31.818	10.0
31.832	9.0
31.847	13.0
31.862	7.0
31.876	13.0
31.891	11.0
31.906	7.0
31.92	11.0
31.935	2.0
31.95	8.0
31.965	10.0
31.979	11.0
31.994	8.0
32.009	14.0
32.023	11.0
32.038	7.0
32.053	9.0
32.067	11.0
32.082	9.0
32.097	8.0
32.112	13.0
32.126	8.0
32.141	12.0
32.156	13.0
32.17	12.0
32.185	8.0
32.2	6.0
32.214	14.0
32.229	11.0
32.244	6.0
32.259	7.0
32.273	8.0
32.288	8.0
32.303	4.0
32.317	14.0
32.332	11.0
32.347	9.0
32.362	11.0
32.376	9.0
32.391	9.0
32.406	8.0
32.42	15.0
32.435	15.0
32.45	9.0
32.465	11.0
32.479	10.0
32.494	15.0
32.509	9.0
32.523	13.0
32.538	10.0
32.553	8.0
32.568	13.0
32.582	5.0
32.597	9.0
32.612	12.0
32.627	7.0
32.641	12.0
32.656	17.0
32.671	9.0
32.685	9.0
32.7	15.0
32.715	23.0
32.73	13.0
32.744	20.0
32.759	27.0
32.774	27.0
32.788	25.0
32.803	30.0
32.818	23.0
32.833	19.0
32.847	30.0
32.862	24.0
32.877	21.0
32.892	23.0
32.906	23.0
32.921	22.0
32.936	14.0
32.951	19.0
32.965	17.0
32.98	15.0
32.995	11.0
33.009	11.0
33.024	23.0
33.039	27.0
33.054	17.0
33.068	17.0
33.083	8.0
33.098	11.0
33.113	15.0
33.127	19.0
33.142	11.0
33.157	11.0
33.172	13.0
33.186	11.0
33.201	11.0
33.216	11.0
33.231	10.0
33.245	13.0
33.26	10.0
33.275	12.0
33.29	5.0
33.304	6.0
33.319	6.0
33.334	10.0
33.349	16.0
33.363	9.0
33.378	7.0
33.393	11.0
33.408	16.0
33.422	5.0
33.437	9.0
33.452	6.0
33.467	13.0
33.481	13.0
33.496	9.0
33.511	17.0
33.526	9.0
33.54	5.0
33.555	9.0
33.57	8.0
33.585	4.0
33.599	10.0
33.614	7.0
33.629	6.0
33.644	9.0
33.658	6.0
33.673	16.0
33.688	10.0
33.703	12.0
33.718	16.0
33.732	11.0
33.747	14.0
33.762	10.0
33.777	5.0
33.791	7.0
33.806	8.0
33.821	11.0
33.836	4.0
33.85	6.0
33.865	8.0
33.88	13.0
33.895	13.0
33.91	5.0
33.924	6.0
33.939	9.0
33.954	13.0
33.969	7.0
33.983	6.0
33.998	9.0
34.013	11.0
34.028	10.0
34.042	10.0
34.057	8.0
34.072	12.0
34.087	4.0
34.102	13.0
34.116	9.0
34.131	13.0
34.146	12.0
34.161	13.0
34.175	9.0
34.19	10.0
34.205	13.0
34.22	12.0
34.235	15.0
34.249	10.0
34.264	16.0
34.279	10.0
34.294	13.0
34.309	13.0
34.323	19.0
34.338	11.0
34.353	12.0
34.368	12.0
34.382	9.0
34.397	16.0
34.412	11.0
34.427	10.0
34.442	15.0
34.456	10.0
34.471	10.0
34.486	12.0
34.501	5.0
34.516	13.0
34.53	12.0
34.545	14.0
34.56	15.0
34.575	9.0
34.59	10.0
34.604	8.0
34.619	11.0
34.634	8.0
34.649	12.0
34.664	14.0
34.678	6.0
34.693	15.0
34.708	8.0
34.723	4.0
34.738	13.0
34.752	8.0
34.767	14.0
34.782	10.0
34.797	10.0
34.812	12.0
34.826	12.0
34.841	8.0
34.856	10.0
34.871	8.0
34.886	6.0
34.9	13.0
34.915	8.0
34.93	7.0
34.945	11.0
34.96	8.0
34.974	13.0
34.989	9.0
35.004	13.0
35.019	12.0
35.034	7.0
35.048	7.0
35.063	13.0
35.078	8.0
35.093	17.0
35.108	8.0
35.122	8.0
35.137	10.0
35.152	10.0
35.167	8.0
35.182	7.0
35.196	11.0
35.211	16.0
35.226	7.0
35.241	8.0
35.256	11.0
35.27	9.0
35.285	8.0
35.3	10.0
35.315	4.0
35.33	6.0
35.344	10.0
35.359	7.0
35.374	8.0
35.389	4.0
35.404	9.0
35.418	8.0
35.433	6.0
35.448	5.0
35.463	4.0
35.478	9.0
35.493	13.0
35.507	15.0
35.522	11.0
35.537	8.0
35.552	5.0
35.567	9.0
35.581	10.0
35.596	6.0
35.611	8.0
35.626	6.0
35.641	8.0
35.655	13.0
35.67	8.0
35.685	11.0
35.7	15.0
35.715	12.0
35.729	11.0
35.744	16.0
35.759	18.0
35.774	22.0
35.789	23.0
35.804	19.0
35.818	20.0
35.833	19.0
35.848	10.0
35.863	7.0
35.878	15.0
35.892	12.0
35.907	16.0
35.922	10.0
35.937	10.0
35.952	14.0
35.966	18.0
35.981	17.0
35.996	11.0
36.011	12.0
36.026	11.0
36.04	16.0
36.055	12.0
36.07	8.0
36.085	9.0
36.1	7.0
36.114	8.0
36.129	7.0
36.144	3.0
36.159	10.0
36.174	4.0
36.189	6.0
36.203	7.0
36.218	5.0
36.233	12.0
36.248	11.0
36.263	11.0
36.277	9.0
36.292	8.0
36.307	7.0
36.322	11.0
36.337	3.0
36.351	11.0
36.366	10.0
36.381	8.0
36.396	5.0
36.411	10.0
36.426	7.0
36.44	8.0
36.455	8.0
36.47	8.0
36.485	7.0
36.5	3.0
36.514	10.0
36.529	7.0
36.544	10.0
36.559	14.0
36.574	6.0
36.589	13.0
36.603	5.0
36.618	4.0
36.633	5.0
36.648	6.0
36.663	12.0
36.677	4.0
36.692	4.0
36.707	8.0
36.722	13.0
36.737	6.0
36.752	6.0
36.766	11.0
36.781	8.0
36.796	6.0
36.811	7.0
36.826	5.0
36.841	14.0
36.855	10.0
36.87	4.0
36.885	7.0
36.9	9.0
36.915	5.0
36.93	8.0
36.944	11.0
36.959	8.0
36.974	12.0
36.989	9.0
37.004	11.0
37.019	8.0
37.033	17.0
37.048	14.0
37.063	18.0
37.078	19.0
37.093	15.0
37.108	23.0
37.123	16.0
37.137	26.0
37.152	25.0
37.167	20.0
37.182	18.0
37.197	33.0
37.212	27.0
37.226	14.0
37.241	30.0
37.256	18.0
37.271	22.0
37.286	14.0
37.301	17.0
37.316	15.0
37.331	12.0
37.345	22.0
37.36	17.0
37.375	19.0
37.39	17.0
37.405	17.0
37.42	17.0
37.435	14.0
37.45	16.0
37.464	17.0
37.479	6.0
37.494	11.0
37.509	17.0
37.524	10.0
37.539	6.0
37.554	9.0
37.569	9.0
37.583	5.0
37.598	10.0
37.613	7.0
37.628	5.0
37.643	9.0
37.658	6.0
37.673	9.0
37.688	7.0
37.703	11.0
37.718	8.0
37.733	6.0
37.747	11.0
37.762	7.0
37.777	3.0
37.792	6.0
37.807	4.0
37.822	5.0
37.837	5.0
37.852	6.0
37.867	9.0
37.882	6.0
37.897	9.0
37.912	8.0
37.927	8.0
37.941	12.0
37.956	5.0
37.971	4.0
37.986	6.0
38.001	9.0
38.016	7.0
38.031	8.0
38.046	10.0
38.061	12.0
38.076	7.0
38.091	8.0
38.106	4.0
38.121	8.0
38.136	12.0
38.151	3.0
38.166	9.0
38.181	5.0
38.196	4.0
38.211	5.0
38.226	6.0
38.241	12.0
38.256	7.0
38.271	5.0
38.285	5.0
38.3	7.0
38.315	7.0
38.33	5.0
38.345	7.0
38.36	9.0
38.375	11.0
38.39	10.0
38.405	6.0
38.42	1.0
38.435	2.0
38.45	7.0
38.465	11.0
38.48	6.0
38.495	4.0
38.51	8.0
38.525	7.0
38.54	9.0
38.555	9.0
38.57	3.0
38.585	9.0
38.6	7.0
38.615	6.0
38.63	7.0
38.645	7.0
38.66	10.0
38.675	10.0
38.69	3.0
38.705	10.0
38.72	5.0
38.735	5.0
38.75	8.0
38.765	9.0
38.78	7.0
38.795	6.0
38.81	8.0
38.825	10.0
38.84	5.0
38.855	6.0
38.87	9.0
38.885	5.0
38.9	9.0
38.915	8.0
38.93	4.0
38.945	4.0
38.96	4.0
38.975	6.0
38.99	5.0
39.005	7.0
39.02	6.0
39.035	2.0
39.05	4.0
39.065	7.0
39.08	4.0
39.095	5.0
39.11	5.0
39.125	6.0
39.14	6.0
39.155	5.0
39.17	11.0
39.185	6.0
39.2	3.0
39.215	5.0
39.23	3.0
39.245	4.0
39.26	8.0
39.275	9.0
39.29	7.0
39.305	5.0
39.32	3.0
39.335	4.0
39.35	4.0
39.365	9.0
39.38	3.0
39.395	6.0
39.409	7.0
39.424	5.0
39.439	2.0
39.454	4.0
39.469	4.0
39.484	4.0
39.499	8.0
39.514	3.0
39.529	6.0
39.544	6.0
39.559	11.0
39.574	2.0
39.589	5.0
39.604	5.0
39.619	6.0
39.634	6.0
39.649	6.0
39.664	2.0
39.678	5.0
39.693	6.0
39.708	4.0
39.723	4.0
39.738	7.0
39.753	6.0
39.768	10.0
39.783	8.0
39.798	7.0
39.813	3.0
39.827	8.0
39.842	4.0
39.857	11.0
39.872	5.0
39.887	9.0
39.902	10.0
39.917	6.0
39.932	9.0
39.947	7.0
39.961	5.0
39.976	2.0
39.991	5.0
40.006	9.0
40.021	6.0
40.036	4.0
40.051	5.0
40.065	5.0
40.08	4.0
40.095	7.0
40.11	12.0
40.125	8.0
40.14	5.0
40.154	4.0
40.169	9.0
40.184	6.0
40.199	3.0
40.214	4.0
40.228	3.0
40.243	9.0
40.258	4.0
40.273	5.0
40.288	7.0
40.302	8.0
40.317	7.0
40.332	6.0
40.347	6.0
40.362	6.0
40.376	3.0
40.391	7.0
40.406	4.0
40.421	8.0
40.436	8.0
40.45	6.0
40.465	8.0
40.48	8.0
40.495	4.0
40.509	6.0
40.524	7.0
40.539	5.0
40.554	6.0
40.568	4.0
40.583	4.0
40.598	3.0
40.613	9.0
40.627	10.0
40.642	4.0
40.657	11.0
40.672	9.0
40.686	8.0
40.701	6.0
40.716	4.0
40.731	8.0
40.745	13.0
40.76	9.0
40.775	4.0
40.79	3.0
40.804	7.0
40.819	3.0
40.834	5.0
40.849	5.0
40.863	7.0
40.878	9.0
40.893	7.0
40.907	6.0
40.922	10.0
40.937	4.0
40.952	9.0
40.966	8.0
40.981	9.0
40.996	13.0
41.011	11.0
41.025	8.0
41.04	8.0
41.055	4.0
41.069	13.0
41.084	12.0
41.099	17.0
41.114	17.0
41.128	19.0
41.143	20.0
41.158	14.0
41.173	21.0
41.187	12.0
41.202	27.0
41.217	12.0
41.231	10.0
41.246	17.0
41.261	16.0
41.276	7.0
41.29	14.0
41.305	12.0
41.32	8.0
41.335	12.0
41.349	5.0
41.364	14.0
41.379	15.0
41.393	14.0
41.408	18.0
41.423	10.0
41.438	9.0
41.452	9.0
41.467	12.0
41.482	7.0
41.497	10.0
41.511	9.0
41.526	8.0
41.541	4.0
41.556	2.0
41.57	10.0
41.585	5.0
41.6	4.0
41.615	5.0
41.629	8.0
41.644	5.0
41.659	4.0
41.674	9.0
41.688	5.0
41.703	3.0
41.718	6.0
41.733	3.0
41.747	4.0
41.762	4.0
41.777	6.0
41.792	13.0
41.806	8.0
41.821	3.0
41.836	3.0
41.851	5.0
41.866	0.0
41.88	6.0
41.895	4.0
41.91	7.0
41.925	7.0
41.939	7.0
41.954	1.0
41.969	7.0
41.984	3.0
41.999	6.0
42.013	5.0
42.028	7.0
42.043	4.0
42.058	7.0
42.073	5.0
42.088	5.0
42.102	5.0
42.117	8.0
42.132	7.0
42.147	10.0
42.162	6.0
42.176	4.0
42.191	10.0
42.206	8.0
42.221	5.0
42.236	8.0
42.251	7.0
42.266	9.0
42.28	4.0
42.295	14.0
42.31	12.0
42.325	10.0
42.34	10.0
42.355	18.0
42.369	10.0
42.384	11.0
42.399	17.0
42.414	15.0
42.429	16.0
42.444	15.0
42.459	5.0
42.474	10.0
42.488	11.0
42.503	11.0
42.518	7.0
42.533	13.0
42.548	8.0
42.563	8.0
42.578	9.0
42.593	10.0
42.608	8.0
42.622	10.0
42.637	6.0
42.652	15.0
42.667	3.0
42.682	17.0
42.697	12.0
42.712	10.0
42.727	9.0
42.742	8.0
42.757	8.0
42.772	9.0
42.786	6.0
42.801	7.0
42.816	9.0
42.831	1.0
42.846	5.0
42.861	5.0
42.876	7.0
42.891	8.0
42.906	6.0
42.921	6.0
42.936	2.0
42.951	5.0
42.966	12.0
42.981	2.0
42.996	2.0
43.011	3.0
43.025	6.0
43.04	8.0
43.055	3.0
43.07	1.0
43.085	5.0
43.1	1.0
43.115	5.0
43.13	4.0
43.145	2.0
43.16	10.0
43.175	6.0
43.19	5.0
43.205	7.0
43.22	6.0
43.235	5.0
43.25	9.0
43.265	7.0
43.28	5.0
43.295	6.0
43.31	8.0
43.325	3.0
43.34	7.0
43.355	6.0
43.37	4.0
43.385	6.0
43.4	5.0
43.415	5.0
43.43	5.0
43.445	4.0
43.46	6.0
43.475	4.0
43.49	7.0
43.505	4.0
43.52	6.0
43.535	7.0
43.55	4.0
43.565	10.0
43.58	10.0
43.595	17.0
43.61	8.0
43.625	7.0
43.64	8.0
43.655	11.0
43.67	8.0
43.685	11.0
43.7	2.0
43.715	6.0
43.73	7.0
43.745	7.0
43.76	9.0
43.775	4.0
43.79	8.0
43.805	7.0
43.82	5.0
43.835	9.0
43.85	3.0
43.865	5.0
43.88	6.0
43.895	6.0
43.91	9.0
43.925	11.0
43.94	10.0
43.955	4.0
43.97	7.0
43.985	6.0
44.0	7.0
44.015	5.0
44.03	6.0
44.045	1.0
44.061	3.0
44.076	6.0
44.091	5.0
44.106	3.0
44.121	7.0
44.136	6.0
44.151	10.0
44.166	3.0
44.181	8.0
44.196	8.0
44.211	5.0
44.226	5.0
44.241	5.0
44.256	6.0
44.271	2.0
44.286	6.0
44.301	5.0
44.316	6.0
44.331	4.0
44.346	5.0
44.361	6.0
44.377	7.0
44.392	4.0
44.407	4.0
44.422	5.0
44.437	7.0
44.452	3.0
44.467	3.0
44.482	6.0
44.497	6.0
44.512	5.0
44.527	4.0
44.542	6.0
44.557	9.0
44.572	4.0
44.587	2.0
44.602	7.0
44.617	8.0
44.632	7.0
44.647	9.0
44.663	3.0
44.678	8.0
44.693	7.0
44.708	10.0
44.723	4.0
44.738	7.0
44.753	8.0
44.768	21.0
44.783	10.0
44.798	7.0
44.813	12.0
44.828	12.0
44.843	8.0
44.858	6.0
44.873	8.0
44.888	10.0
44.903	4.0
44.918	6.0
44.933	7.0
44.948	8.0
44.964	11.0
44.979	6.0
44.994	9.0
45.009	5.0
45.024	3.0
45.039	3.0
45.054	7.0
45.069	7.0
45.084	4.0
45.099	10.0
45.114	8.0
45.129	4.0
45.144	5.0
45.159	3.0
45.174	4.0
45.189	5.0
45.204	6.0
45.219	7.0
45.234	5.0
45.249	6.0
45.264	6.0
45.279	4.0
45.294	0.0
45.309	6.0
45.324	8.0
45.339	5.0
45.354	5.0
45.369	3.0
45.384	7.0
45.399	5.0
45.414	13.0
45.429	7.0
45.444	6.0
45.459	5.0
45.474	5.0
45.489	4.0
45.504	5.0
45.519	2.0
45.534	7.0
45.549	8.0
45.564	6.0
45.579	3.0
45.594	3.0
45.609	5.0
45.624	2.0
45.639	5.0
45.654	3.0
45.669	5.0
45.684	8.0
45.699	3.0
45.714	13.0
45.729	7.0
45.744	2.0
45.759	8.0
45.774	7.0
45.789	4.0
45.804	7.0
45.819	6.0
45.834	5.0
45.849	9.0
45.864	6.0
45.879	11.0
45.894	9.0
45.909	4.0
45.924	13.0
45.939	14.0
45.954	9.0
45.969	17.0
45.984	17.0
45.998	15.0
46.013	9.0
46.028	18.0
46.043	10.0
46.058	9.0
46.073	16.0
46.088	10.0
46.103	11.0
46.118	14.0
46.133	9.0
46.148	6.0
46.163	3.0
46.178	5.0
46.192	13.0
46.207	4.0
46.222	8.0
46.237	8.0
46.252	9.0
46.267	10.0
46.282	14.0
46.297	11.0
46.312	7.0
46.327	8.0
46.341	14.0
46.356	8.0
46.371	6.0
46.386	11.0
46.401	4.0
46.416	5.0
46.431	6.0
46.446	9.0
46.46	4.0
46.475	4.0
46.49	2.0
46.505	2.0
46.52	7.0
46.535	5.0
46.55	7.0
46.564	5.0
46.579	2.0
46.594	2.0
46.609	3.0
46.624	7.0
46.639	1.0
46.654	9.0
46.668	2.0
46.683	2.0
46.698	3.0
46.713	3.0
46.728	4.0
46.743	8.0
46.758	1.0
46.772	5.0
46.787	2.0
46.802	3.0
46.817	8.0
46.832	5.0
46.847	2.0
46.861	5.0
46.876	1.0
46.891	4.0
46.906	9.0
46.921	3.0
46.936	7.0
46.95	6.0
46.965	4.0
46.98	5.0
46.995	5.0
47.01	5.0
47.025	7.0
47.039	7.0
47.054	8.0
47.069	12.0
47.084	15.0
47.099	15.0
47.113	9.0
47.128	8.0
47.143	10.0
47.158	4.0
47.173	10.0
47.188	15.0
47.202	7.0
47.217	3.0
47.232	6.0
47.247	10.0
47.262	9.0
47.277	2.0
47.291	3.0
47.306	8.0
47.321	2.0
47.336	12.0
47.351	3.0
47.365	7.0
47.38	6.0
47.395	11.0
47.41	5.0
47.425	6.0
47.44	10.0
47.454	9.0
47.469	5.0
47.484	6.0
47.499	4.0
47.514	4.0
47.528	4.0
47.543	7.0
47.558	4.0
47.573	2.0
47.588	5.0
47.603	3.0
47.617	10.0
47.632	6.0
47.647	1.0
47.662	7.0
47.677	3.0
47.691	5.0
47.706	5.0
47.721	4.0
47.736	8.0
47.751	6.0
47.766	0.0
47.78	8.0
47.795	4.0
47.81	3.0
47.825	3.0
47.84	3.0
47.855	4.0
47.869	2.0
47.884	4.0
47.899	6.0
47.914	6.0
47.929	6.0
47.944	3.0
47.958	4.0
47.973	3.0
47.988	8.0
48.003	1.0
48.018	7.0
48.033	2.0
48.047	2.0
48.062	6.0
48.077	5.0
48.092	3.0
48.107	4.0
48.122	2.0
48.137	6.0
48.151	4.0
48.166	5.0
48.181	5.0
48.196	4.0
48.211	5.0
48.226	10.0
48.241	1.0
48.255	5.0
48.27	6.0
48.285	6.0
48.3	2.0
48.315	6.0
48.33	4.0
48.345	5.0
48.359	9.0
48.374	5.0
48.389	2.0
48.404	3.0
48.419	5.0
48.434	4.0
48.449	6.0
48.464	5.0
48.478	3.0
48.493	6.0
48.508	6.0
48.523	3.0
48.538	6.0
48.553	1.0
48.568	1.0
48.583	5.0
48.597	3.0
48.612	7.0
48.627	6.0
48.642	3.0
48.657	5.0
48.672	6.0
48.687	6.0
48.702	5.0
48.717	4.0
48.731	8.0
48.746	5.0
48.761	7.0
48.776	6.0
48.791	5.0
48.806	7.0
48.821	3.0
48.836	6.0
48.851	1.0
48.866	3.0
48.88	5.0
48.895	4.0
48.91	1.0
48.925	5.0
48.94	4.0
48.955	2.0
48.97	7.0
48.985	3.0
49.0	6.0
49.015	3.0
49.03	5.0
49.044	4.0
49.059	6.0
49.074	2.0
49.089	5.0
49.104	6.0
49.119	4.0
49.134	3.0
49.149	8.0
49.164	3.0
49.179	3.0
49.194	4.0
49.209	7.0
49.224	3.0
49.238	7.0
49.253	6.0
49.268	6.0
49.283	5.0
49.298	3.0
49.313	8.0
49.328	6.0
49.343	9.0
49.358	10.0
49.373	10.0
49.388	8.0
49.403	7.0
49.418	5.0
49.433	7.0
49.448	6.0
49.463	3.0
49.478	7.0
49.492	4.0
49.507	6.0
49.522	6.0
49.537	5.0
49.552	2.0
49.567	4.0
49.582	6.0
49.597	5.0
49.612	6.0
49.627	3.0
49.642	8.0
49.657	9.0
49.672	7.0
49.687	6.0
49.702	4.0
49.717	4.0
49.732	5.0
49.747	3.0
49.762	5.0
49.777	5.0
49.792	2.0
49.807	3.0
49.822	4.0
49.837	4.0
49.852	7.0
49.867	4.0
49.882	4.0
49.897	4.0
49.912	5.0
49.927	4.0
49.942	4.0
49.957	2.0
49.971	2.0
49.986	4.0
50.001	10.0
50.016	3.0
50.031	5.0
50.046	8.0
50.061	5.0
50.076	5.0
50.091	5.0
50.106	5.0
50.121	3.0
50.136	3.0
50.151	5.0
50.166	4.0
50.181	7.0
50.196	7.0
50.211	6.0
50.226	5.0
50.241	8.0
50.256	4.0
50.271	4.0
50.286	5.0
50.302	4.0
50.317	6.0
50.332	3.0
50.347	8.0
50.362	4.0
50.377	3.0
50.392	3.0
50.407	7.0
50.422	13.0
50.437	10.0
50.452	12.0
50.467	8.0
50.482	5.0
50.497	8.0
50.512	1.0
50.527	6.0
50.542	2.0
50.557	6.0
50.572	2.0
50.587	3.0
50.602	7.0
50.617	2.0
50.632	5.0
50.647	11.0
50.662	8.0
50.677	5.0
50.692	7.0
50.707	6.0
50.722	5.0
50.737	4.0
50.752	3.0
50.767	4.0
50.782	9.0
50.797	5.0
50.812	2.0
50.828	10.0
50.843	5.0
50.858	5.0
50.873	2.0
50.888	3.0
50.903	4.0
50.918	5.0
50.933	6.0
50.948	4.0
50.963	4.0
50.978	6.0
50.993	3.0
51.008	2.0
51.023	4.0
51.038	5.0
51.053	2.0
51.068	3.0
51.083	7.0
51.098	4.0
51.114	2.0
51.129	8.0
51.144	5.0
51.159	3.0
51.174	2.0
51.189	7.0
51.204	4.0
51.219	4.0
51.234	4.0
51.249	8.0
51.264	5.0
51.279	1.0
51.294	6.0
51.309	4.0
51.324	4.0
51.34	4.0
51.355	7.0
51.37	12.0
51.385	7.0
51.4	6.0
51.415	11.0
51.43	12.0
51.445	8.0
51.46	11.0
51.475	10.0
51.49	12.0
51.505	21.0
51.52	15.0
51.535	14.0
51.551	15.0
51.566	21.0
51.581	9.0
51.596	6.0
51.611	11.0
51.626	14.0
51.641	3.0
51.656	9.0
51.671	6.0
51.686	6.0
51.701	3.0
51.716	10.0
51.732	8.0
51.747	4.0
51.762	12.0
51.777	7.0
51.792	12.0
51.807	8.0
51.822	10.0
51.837	14.0
51.852	13.0
51.867	7.0
51.882	8.0
51.898	9.0
51.913	13.0
51.928	10.0
51.943	9.0
51.958	8.0
51.973	6.0
51.988	6.0
52.003	6.0
52.018	5.0
52.033	5.0
52.048	7.0
52.064	5.0
52.079	0.0
52.094	4.0
52.109	8.0
52.124	5.0
52.139	4.0
52.154	5.0
52.169	9.0
52.184	3.0
52.199	1.0
52.215	4.0
52.23	2.0
52.245	3.0
52.26	4.0
52.275	4.0
52.29	5.0
52.305	2.0
52.32	5.0
52.335	4.0
52.35	5.0
52.366	6.0
52.381	6.0
52.396	5.0
52.411	2.0
52.426	9.0
52.441	6.0
52.456	7.0
52.471	4.0
52.486	7.0
52.502	7.0
52.517	10.0
52.532	9.0
52.547	12.0
52.562	6.0
52.577	11.0
52.592	6.0
52.607	10.0
52.622	11.0
52.637	6.0
52.653	7.0
52.668	6.0
52.683	9.0
52.698	5.0
52.713	6.0
52.728	7.0
52.743	1.0
52.758	8.0
52.774	4.0
52.789	4.0
52.804	9.0
52.819	6.0
52.834	6.0
52.849	5.0
52.864	5.0
52.879	2.0
52.894	13.0
52.91	9.0
52.925	9.0
52.94	7.0
52.955	9.0
52.97	6.0
52.985	3.0
53.0	13.0
53.015	3.0
53.031	14.0
53.046	6.0
53.061	2.0
53.076	3.0
53.091	7.0
53.106	5.0
53.121	3.0
53.136	2.0
53.152	11.0
53.167	4.0
53.182	3.0
53.197	5.0
53.212	5.0
53.227	3.0
53.242	5.0
53.257	5.0
53.273	2.0
53.288	2.0
53.303	8.0
53.318	8.0
53.333	2.0
53.348	3.0
53.363	4.0
53.379	2.0
53.394	6.0
53.409	2.0
53.424	6.0
53.439	3.0
53.454	9.0
53.469	9.0
53.484	3.0
53.5	3.0
53.515	12.0
53.53	3.0
53.545	2.0
53.56	1.0
53.575	3.0
53.59	3.0
53.606	2.0
53.621	1.0
53.636	2.0
53.651	4.0
53.666	4.0
53.681	4.0
53.696	3.0
53.712	3.0
53.727	4.0
53.742	5.0
53.757	2.0
53.772	7.0
53.787	6.0
53.802	2.0
53.818	2.0
53.833	6.0
53.848	5.0
53.863	2.0
53.878	4.0
53.893	9.0
53.909	4.0
53.924	6.0
53.939	5.0
53.954	6.0
53.969	6.0
53.984	2.0
53.999	3.0
54.015	4.0
54.03	3.0
54.045	2.0
54.06	4.0
54.075	4.0
54.09	6.0
54.106	3.0
54.121	2.0
54.136	9.0
54.151	4.0
54.166	4.0
54.181	4.0
54.197	2.0
54.212	2.0
54.227	9.0
54.242	1.0
54.257	4.0
54.272	5.0
54.288	4.0
54.303	1.0
54.318	4.0
54.333	3.0
54.348	6.0
54.363	6.0
54.379	5.0
54.394	6.0
54.409	3.0
54.424	5.0
54.439	8.0
54.454	5.0
54.47	9.0
54.485	3.0
54.5	5.0
54.515	2.0
54.53	6.0
54.545	4.0
54.561	5.0
54.576	11.0
54.591	12.0
54.606	14.0
54.621	13.0
54.636	13.0
54.652	12.0
54.667	12.0
54.682	14.0
54.697	10.0
54.712	9.0
54.727	8.0
54.743	7.0
54.758	4.0
54.773	4.0
54.788	5.0
54.803	3.0
54.819	7.0
54.834	4.0
54.849	10.0
54.864	2.0
54.879	6.0
54.894	6.0
54.91	5.0
54.925	7.0
54.94	10.0
54.955	13.0
54.97	2.0
54.985	15.0
55.001	2.0
55.016	8.0
55.031	6.0
55.046	7.0
55.061	7.0
55.077	7.0
55.092	10.0
55.107	7.0
55.122	5.0
55.137	3.0
55.152	5.0
55.168	4.0
55.183	5.0
55.198	6.0
55.213	5.0
55.228	8.0
55.243	6.0
55.259	5.0
55.274	5.0
55.289	4.0
55.304	8.0
55.319	7.0
55.335	3.0
55.35	5.0
55.365	6.0
55.38	8.0
55.395	3.0
55.41	1.0
55.426	4.0
55.441	8.0
55.456	7.0
55.471	4.0
55.486	6.0
55.501	6.0
55.517	6.0
55.532	4.0
55.547	4.0
55.562	4.0
55.577	7.0
55.592	8.0
55.608	6.0
55.623	6.0
55.638	4.0
55.653	8.0
55.668	8.0
55.683	8.0
55.699	7.0
55.714	6.0
55.729	7.0
55.744	7.0
55.759	4.0
55.774	9.0
55.79	2.0
55.805	6.0
55.82	4.0
55.835	6.0
55.85	4.0
55.865	4.0
55.881	4.0
55.896	4.0
55.911	2.0
55.926	5.0
55.941	7.0
55.956	6.0
55.972	9.0
55.987	8.0
56.002	4.0
56.017	4.0
56.032	6.0
56.047	10.0
56.063	8.0
56.078	7.0
56.093	8.0
56.108	4.0
56.123	6.0
56.138	5.0
56.154	4.0
56.169	3.0
56.184	5.0
56.199	3.0
56.214	2.0
56.229	7.0
56.244	4.0
56.26	5.0
56.275	5.0
56.29	6.0
56.305	3.0
56.32	3.0
56.335	3.0
56.351	2.0
56.366	1.0
56.381	1.0
56.396	2.0
56.411	3.0
56.426	4.0
56.441	7.0
56.457	4.0
56.472	7.0
56.487	4.0
56.502	1.0
56.517	6.0
56.532	3.0
56.547	3.0
56.563	2.0
56.578	2.0
56.593	5.0
56.608	3.0
56.623	6.0
56.638	4.0
56.653	2.0
56.668	2.0
56.684	4.0
56.699	6.0
56.714	4.0
56.729	4.0
56.744	7.0
56.759	2.0
56.774	9.0
56.79	1.0
56.805	5.0
56.82	4.0
56.835	8.0
56.85	6.0
56.865	7.0
56.88	7.0
56.895	6.0
56.911	4.0
56.926	4.0
56.941	2.0
56.956	6.0
56.971	8.0
56.986	7.0
57.001	7.0
57.016	5.0
57.031	3.0
57.047	5.0
57.062	4.0
57.077	6.0
57.092	6.0
57.107	3.0
57.122	3.0
57.137	5.0
57.152	2.0
57.167	4.0
57.183	1.0
57.198	4.0
57.213	2.0
57.228	6.0
57.243	6.0
57.258	4.0
57.273	4.0
57.288	4.0
57.303	10.0
57.318	5.0
57.334	3.0
57.349	2.0
57.364	3.0
57.379	3.0
57.394	3.0
57.409	4.0
57.424	4.0
57.439	4.0
57.454	2.0
57.469	5.0
57.484	6.0
57.5	2.0
57.515	6.0
57.53	2.0
57.545	6.0
57.56	3.0
57.575	7.0
57.59	2.0
57.605	7.0
57.62	3.0
57.635	2.0
57.65	7.0
57.665	9.0
57.68	7.0
57.696	3.0
57.711	6.0
57.726	4.0
57.741	4.0
57.756	4.0
57.771	2.0
57.786	8.0
57.801	3.0
57.816	6.0
57.831	2.0
57.846	5.0
57.861	3.0
57.876	5.0
57.891	5.0
57.906	2.0
57.921	5.0
57.937	1.0
57.952	1.0
57.967	0.0
57.982	6.0
57.997	6.0
58.012	6.0
58.027	7.0
58.042	6.0
58.057	4.0
58.072	5.0
58.087	3.0
58.102	2.0
58.117	2.0
58.132	1.0
58.147	2.0
58.162	6.0
58.177	4.0
58.192	4.0
58.207	1.0
58.222	3.0
58.237	4.0
58.252	5.0
58.267	1.0
58.282	5.0
58.297	4.0
58.312	3.0
58.327	4.0
58.342	3.0
58.357	2.0
58.372	3.0
58.387	11.0
58.402	5.0
58.418	4.0
58.433	2.0
58.448	4.0
58.463	5.0
58.478	8.0
58.493	3.0
58.508	4.0
58.523	8.0
58.538	4.0
58.553	4.0
58.568	2.0
58.583	5.0
58.598	12.0
58.613	10.0
58.628	12.0
58.643	3.0
58.658	7.0
58.673	7.0
58.688	6.0
58.703	7.0
58.718	8.0
58.733	4.0
58.748	7.0
58.763	4.0
58.778	5.0
58.793	2.0
58.808	0.0
58.823	5.0
58.838	3.0
58.853	2.0
58.868	4.0
58.883	4.0
58.898	2.0
58.913	4.0
58.928	0.0
58.942	3.0
58.957	3.0
58.972	8.0
58.987	6.0
59.002	7.0
59.017	6.0
59.032	3.0
59.047	10.0
59.062	7.0
59.077	2.0
59.092	3.0
59.107	7.0
59.122	7.0
59.137	3.0
59.152	1.0
59.167	2.0
59.182	4.0
59.197	2.0
59.212	4.0
59.227	4.0
59.242	4.0
59.257	2.0
59.272	4.0
59.287	3.0
59.302	4.0
59.317	4.0
59.332	5.0
59.347	5.0
59.362	3.0
59.377	6.0
59.392	4.0
59.407	2.0
59.422	3.0
59.437	4.0
59.452	7.0
59.467	5.0
59.482	4.0
59.497	6.0
59.512	6.0
59.527	10.0
59.542	3.0
59.557	9.0
59.572	3.0
59.587	14.0
59.602	6.0
59.617	9.0
59.632	8.0
59.647	7.0
59.661	6.0
59.676	9.0
59.691	3.0
59.706	7.0
59.721	5.0
59.736	8.0
59.751	4.0
59.766	7.0
59.781	2.0
59.796	5.0
59.811	5.0
59.826	4.0
59.841	2.0
59.856	6.0
59.871	2.0
59.886	2.0
59.901	5.0
59.916	6.0
59.931	4.0
59.946	3.0
59.961	5.0
59.976	4.0
59.991	4.0
60.006	7.0
60.021	0.0
60.036	4.0
60.051	2.0
60.066	4.0
60.081	3.0
60.096	3.0
60.111	3.0
60.126	4.0
60.141	3.0
60.156	6.0
60.171	4.0
60.186	6.0
60.201	4.0
60.216	12.0
60.231	10.0
60.246	8.0
60.261	6.0
60.276	1.0
60.291	1.0
60.306	0.0
60.321	7.0
60.336	3.0
60.35	3.0
60.365	8.0
60.38	5.0
60.395	3.0
60.41	2.0
60.425	4.0
60.44	6.0
60.455	6.0
60.47	8.0
60.485	9.0
60.5	8.0
60.515	6.0
60.53	5.0
60.545	11.0
60.56	6.0
60.575	5.0
60.59	5.0
60.605	8.0
60.62	4.0
60.635	5.0
60.65	5.0
60.665	6.0
60.68	6.0
60.695	7.0
60.71	6.0
60.725	1.0
60.74	5.0
60.755	2.0
60.77	3.0
60.785	7.0
60.8	2.0
60.815	5.0
60.83	3.0
60.845	6.0
60.86	2.0
60.875	2.0
60.89	1.0
60.905	4.0
60.92	6.0
60.935	1.0
60.95	3.0
60.965	8.0
60.98	4.0
60.995	5.0
61.01	7.0
61.025	8.0
61.04	5.0
61.055	5.0
61.07	5.0
61.085	4.0
61.1	6.0
61.115	5.0
61.13	0.0
61.145	9.0
61.16	8.0
61.175	1.0
61.191	5.0
61.206	2.0
61.221	3.0
61.236	3.0
61.251	5.0
61.266	3.0
61.281	2.0
61.296	4.0
61.311	3.0
61.326	0.0
61.341	5.0
61.356	3.0
61.371	3.0
61.386	5.0
61.401	8.0
61.416	3.0
61.431	4.0
61.446	5.0
61.461	5.0
61.476	5.0
61.491	4.0
61.506	12.0
61.521	7.0
61.536	7.0
61.551	4.0
61.566	11.0
61.581	4.0
61.596	6.0
61.611	5.0
61.626	3.0
61.641	4.0
61.656	0.0
61.672	1.0
61.687	4.0
61.702	5.0
61.717	2.0
61.732	5.0
61.747	2.0
61.762	4.0
61.777	5.0
61.792	1.0
61.807	2.0
61.822	3.0
61.837	2.0
61.852	1.0
61.867	3.0
61.882	2.0
61.897	4.0
61.912	3.0
61.927	4.0
61.943	4.0
61.958	4.0
61.973	4.0
61.988	9.0
62.003	1.0
62.018	2.0
62.033	4.0
62.048	4.0
62.063	2.0
62.078	4.0
62.093	6.0
62.108	5.0
62.123	1.0
62.138	3.0
62.153	3.0
62.169	4.0
62.184	2.0
62.199	3.0
62.214	1.0
62.229	5.0
62.244	7.0
62.259	1.0
62.274	3.0
62.289	4.0
62.304	3.0
62.319	5.0
62.335	2.0
62.35	5.0
62.365	5.0
62.38	0.0
62.395	8.0
62.41	6.0
62.425	6.0
62.44	5.0
62.455	6.0
62.47	8.0
62.485	4.0
62.501	9.0
62.516	2.0
62.531	5.0
62.546	5.0
62.561	1.0
62.576	3.0
62.591	3.0
62.606	8.0
62.621	1.0
62.636	4.0
62.652	3.0
62.667	5.0
62.682	7.0
62.697	4.0
62.712	4.0
62.727	3.0
62.742	2.0
62.757	7.0
62.772	3.0
62.787	4.0
62.803	3.0
62.818	4.0
62.833	3.0
62.848	7.0
62.863	8.0
62.878	5.0
62.893	2.0
62.908	4.0
62.923	5.0
62.939	2.0
62.954	5.0
62.969	2.0
62.984	8.0
62.999	4.0
63.014	2.0
63.029	5.0
63.044	5.0
63.059	4.0
63.074	5.0
63.09	4.0
63.105	1.0
63.12	2.0
63.135	3.0
63.15	5.0
63.165	4.0
63.18	4.0
63.195	6.0
63.21	6.0
63.226	2.0
63.241	3.0
63.256	5.0
63.271	4.0
63.286	3.0
63.301	4.0
63.316	7.0
63.331	3.0
63.346	8.0
63.362	4.0
63.377	7.0
63.392	9.0
63.407	10.0
63.422	5.0
63.437	9.0
63.452	6.0
63.467	8.0
63.482	5.0
63.497	3.0
63.513	3.0
63.528	3.0
63.543	14.0
63.558	4.0
63.573	4.0
63.588	4.0
63.603	7.0
63.618	4.0
63.633	3.0
63.648	1.0
63.664	3.0
63.679	2.0
63.694	4.0
63.709	1.0
63.724	5.0
63.739	4.0
63.754	4.0
63.769	3.0
63.784	6.0
63.799	3.0
63.814	7.0
63.83	6.0
63.845	8.0
63.86	4.0
63.875	7.0
63.89	2.0
63.905	7.0
63.92	6.0
63.935	5.0
63.95	2.0
63.965	7.0
63.98	2.0
63.996	5.0
64.011	7.0
64.026	6.0
64.041	7.0
64.056	3.0
64.071	3.0
64.086	2.0
64.101	3.0
64.116	5.0
64.131	7.0
64.146	5.0
64.161	3.0
64.176	2.0
64.191	5.0
64.207	1.0
64.222	0.0
64.237	5.0
64.252	6.0
64.267	4.0
64.282	3.0
64.297	4.0
64.312	2.0
64.327	4.0
64.342	6.0
64.357	2.0
64.372	6.0
64.387	3.0
64.402	3.0
64.417	4.0
64.433	2.0
64.448	4.0
64.463	3.0
64.478	5.0
64.493	5.0
64.508	6.0
64.523	4.0
64.538	2.0
64.553	4.0
64.568	1.0
64.583	5.0
64.598	3.0
64.613	6.0
64.628	3.0
64.643	5.0
64.658	5.0
64.673	5.0
64.688	2.0
64.703	5.0
64.718	5.0
64.734	4.0
64.749	3.0
64.764	0.0
64.779	3.0
64.794	6.0
64.809	5.0
64.824	5.0
64.839	3.0
64.854	4.0
64.869	2.0
64.884	4.0
64.899	4.0
64.914	0.0
64.929	3.0
64.944	2.0
64.959	5.0
64.974	2.0
64.989	6.0
65.004	6.0
65.019	7.0
65.034	3.0
65.049	2.0
65.064	3.0
65.079	3.0
65.094	5.0
65.109	5.0
65.125	3.0
65.14	7.0
65.155	2.0
65.17	4.0
65.185	4.0
65.2	4.0
65.215	0.0
65.23	2.0
65.245	7.0
65.26	6.0
65.275	6.0
65.29	6.0
65.305	2.0
65.32	5.0
65.335	2.0
65.35	4.0
65.365	1.0
65.38	3.0
65.395	2.0
65.41	1.0
65.425	5.0
65.44	7.0
65.455	1.0
65.47	2.0
65.485	2.0
65.5	2.0
65.515	4.0
65.53	3.0
65.545	5.0
65.56	7.0
65.575	2.0
65.59	3.0
65.605	2.0
65.62	6.0
65.635	3.0
65.65	7.0
65.666	3.0
65.681	4.0
65.696	2.0
65.711	5.0
65.726	5.0
65.741	4.0
65.756	3.0
65.771	1.0
65.786	3.0
65.801	6.0
65.816	6.0
65.831	1.0
65.846	2.0
65.861	5.0
65.876	3.0
65.891	3.0
65.906	0.0
65.921	3.0
65.936	6.0
65.951	1.0
65.966	4.0
65.981	1.0
65.996	4.0
66.011	4.0
66.026	1.0
66.041	1.0
66.056	3.0
66.071	4.0
66.086	7.0
66.101	2.0
66.116	3.0
66.131	7.0
66.146	6.0
66.161	0.0
66.176	9.0
66.191	4.0
66.206	4.0
66.221	9.0
66.236	9.0
66.251	5.0
66.266	8.0
66.281	7.0
66.296	3.0
66.311	7.0
66.327	2.0
66.342	3.0
66.357	2.0
66.372	5.0
66.387	3.0
66.402	3.0
66.417	3.0
66.432	6.0
66.447	0.0
66.462	3.0
66.477	4.0
66.492	0.0
66.507	1.0
66.522	4.0
66.537	4.0
66.552	4.0
66.567	4.0
66.582	6.0
66.597	4.0
66.612	8.0
66.627	5.0
66.642	8.0
66.657	5.0
66.672	4.0
66.687	6.0
66.702	4.0
66.717	7.0
66.732	5.0
66.747	1.0
66.762	5.0
66.777	3.0
66.792	5.0
66.807	1.0
66.822	1.0
66.837	1.0
66.853	3.0
66.868	2.0
66.883	4.0
66.898	6.0
66.913	8.0
66.928	2.0
66.943	1.0
66.958	3.0
66.973	6.0
66.988	3.0
67.003	3.0
67.018	2.0
67.033	8.0
67.048	4.0
67.063	6.0
67.078	6.0
67.093	1.0
67.108	5.0
67.123	5.0
67.138	4.0
67.153	2.0
67.168	8.0
67.183	2.0
67.198	5.0
67.214	6.0
67.229	2.0
67.244	3.0
67.259	1.0
67.274	3.0
67.289	6.0
67.304	3.0
67.319	3.0
67.334	1.0
67.349	2.0
67.364	8.0
67.379	2.0
67.394	4.0
67.409	5.0
67.424	3.0
67.439	4.0
67.454	5.0
67.469	2.0
67.484	2.0
67.5	2.0
67.515	3.0
67.53	6.0
67.545	3.0
67.56	4.0
67.575	3.0
67.59	4.0
67.605	7.0
67.62	6.0
67.635	9.0
67.65	2.0
67.665	4.0
67.68	3.0
67.695	4.0
67.71	2.0
67.726	7.0
67.741	5.0
67.756	5.0
67.771	6.0
67.786	2.0
67.801	3.0
67.816	4.0
67.831	5.0
67.846	2.0
67.861	6.0
67.876	4.0
67.891	1.0
67.906	6.0
67.922	5.0
67.937	3.0
67.952	5.0
67.967	2.0
67.982	1.0
67.997	3.0
68.012	2.0
68.027	3.0
68.042	4.0
68.057	7.0
68.072	3.0
68.087	0.0
68.103	4.0
68.118	1.0
68.133	2.0
68.148	4.0
68.163	1.0
68.178	3.0
68.193	2.0
68.208	5.0
68.223	4.0
68.238	3.0
68.254	9.0
68.269	5.0
68.284	4.0
68.299	3.0
68.314	2.0
68.329	6.0
68.344	5.0
68.359	2.0
68.374	5.0
68.389	4.0
68.405	2.0
68.42	3.0
68.435	5.0
68.45	3.0
68.465	5.0
68.48	3.0
68.495	8.0
68.51	3.0
68.525	2.0
68.54	5.0
68.556	3.0
68.571	3.0
68.586	2.0
68.601	3.0
68.616	5.0
68.631	3.0
68.646	6.0
68.661	7.0
68.676	6.0
68.691	2.0
68.707	5.0
68.722	4.0
68.737	2.0
68.752	3.0
68.767	5.0
68.782	3.0
68.797	3.0
68.812	7.0
68.827	3.0
68.842	8.0
68.857	8.0
68.873	5.0
68.888	3.0
68.903	3.0
68.918	8.0
68.933	6.0
68.948	5.0
68.963	5.0
68.978	4.0
68.993	8.0
69.008	4.0
69.023	2.0
69.038	6.0
69.054	4.0
69.069	3.0
69.084	4.0
69.099	3.0
69.114	5.0
69.129	3.0
69.144	1.0
69.159	1.0
69.174	1.0
69.189	5.0
69.204	6.0
69.219	5.0
69.234	5.0
69.249	3.0
69.264	4.0
69.279	6.0
69.295	3.0
69.31	4.0
69.325	3.0
69.34	2.0
69.355	3.0
69.37	0.0
69.385	3.0
69.4	3.0
69.415	3.0
69.43	3.0
69.445	4.0
69.46	5.0
69.475	2.0
69.49	6.0
69.505	1.0
69.52	1.0
69.535	3.0
69.55	1.0
69.565	4.0
69.58	3.0
69.595	2.0
69.61	5.0
69.625	4.0
69.64	2.0
69.655	5.0
69.67	1.0
69.685	5.0
69.7	1.0
69.715	7.0
69.73	7.0
69.745	6.0
69.76	6.0
69.775	7.0
69.79	5.0
69.805	5.0
69.82	8.0
69.835	5.0
69.85	9.0
69.865	2.0
69.88	6.0
69.895	2.0
69.909	7.0
69.924	4.0
69.939	5.0
69.954	1.0
69.969	1.0
69.984	5.0
69.999	5.0
70.014	6.0
70.029	3.0
70.044	2.0
70.059	7.0
70.074	3.0
70.088	2.0
70.103	2.0
70.118	3.0
70.133	5.0
70.148	5.0
70.163	5.0
70.178	1.0
70.193	5.0
70.208	7.0
70.222	6.0
70.237	0.0
70.252	6.0
70.267	7.0
70.282	7.0
70.297	3.0
70.312	5.0
70.327	2.0
70.341	3.0
70.356	5.0
70.371	5.0
70.386	5.0
70.401	2.0
70.416	7.0
70.43	1.0
70.445	5.0
70.46	3.0
70.475	2.0
70.49	3.0
70.505	9.0
70.519	3.0
70.534	4.0
70.549	2.0
70.564	3.0
70.579	4.0
70.594	5.0
70.608	7.0
70.623	2.0
70.638	2.0
70.653	1.0
70.668	5.0
70.683	8.0
70.697	3.0
70.712	5.0
70.727	2.0
70.742	3.0
70.757	3.0
70.771	3.0
70.786	3.0
70.801	6.0
70.816	5.0
70.831	7.0
70.845	4.0
70.86	4.0
70.875	3.0
70.89	3.0
70.905	5.0
70.92	5.0
70.934	1.0
70.949	3.0
70.964	3.0
70.979	1.0
70.994	2.0
71.008	6.0
71.023	2.0
71.038	3.0
71.053	3.0
71.068	1.0
71.082	1.0
71.097	3.0
71.112	4.0
71.127	4.0
71.142	7.0
71.156	3.0
71.171	2.0
71.186	1.0
71.201	0.0
71.216	6.0
71.231	1.0
71.245	3.0
71.26	3.0
71.275	5.0
71.29	4.0
71.305	3.0
71.319	2.0
71.334	3.0
71.349	6.0
71.364	2.0
71.379	7.0
71.394	2.0
71.408	3.0
71.423	4.0
71.438	2.0
71.453	2.0
71.468	4.0
71.483	5.0
71.497	2.0
71.512	0.0
71.527	6.0
71.542	2.0
71.557	5.0
71.572	4.0
71.586	5.0
71.601	0.0
71.616	2.0
71.631	5.0
71.646	4.0
71.661	4.0
71.676	1.0
71.69	4.0
71.705	2.0
71.72	3.0
71.735	2.0
71.75	3.0
71.765	4.0
71.78	6.0
71.795	2.0
71.81	4.0
71.824	4.0
71.839	3.0
71.854	2.0
71.869	5.0
71.884	5.0
71.899	4.0
71.914	2.0
71.929	4.0
71.944	2.0
71.959	1.0
71.974	1.0
71.988	1.0
72.003	2.0
72.018	1.0
72.033	5.0
72.048	1.0
72.063	5.0
72.078	5.0
72.093	1.0
72.108	3.0
72.123	3.0
72.138	3.0
72.153	1.0
72.168	0.0
72.183	11.0
72.198	2.0
72.213	3.0
72.228	6.0
72.243	3.0
72.258	7.0
72.273	5.0
72.288	5.0
72.303	3.0
72.318	3.0
72.333	3.0
72.348	5.0
72.363	3.0
72.378	0.0
72.393	4.0
72.408	4.0
72.423	3.0
72.438	1.0
72.453	5.0
72.468	4.0
72.483	1.0
72.498	1.0
72.513	2.0
72.528	7.0
72.543	4.0
72.558	3.0
72.573	2.0
72.588	2.0
72.603	2.0
72.618	2.0
72.633	1.0
72.649	5.0
72.664	3.0
72.679	3.0
72.694	9.0
72.709	4.0
72.724	2.0
72.739	1.0
72.754	5.0
72.769	0.0
72.784	2.0
72.799	2.0
72.814	8.0
72.829	2.0
72.845	2.0
72.86	1.0
72.875	3.0
72.89	3.0
72.905	1.0
72.92	5.0
72.935	3.0
72.95	3.0
72.965	3.0
72.98	5.0
72.996	3.0
73.011	1.0
73.026	6.0
73.041	5.0
73.056	5.0
73.071	6.0
73.086	2.0
73.101	4.0
73.117	3.0
73.132	4.0
73.147	4.0
73.162	4.0
73.177	2.0
73.192	2.0
73.207	4.0
73.222	1.0
73.238	5.0
73.253	1.0
73.268	9.0
73.283	2.0
73.298	5.0
73.313	4.0
73.328	6.0
73.343	7.0
73.359	5.0
73.374	1.0
73.389	2.0
73.404	8.0
73.419	2.0
73.434	4.0
73.449	1.0
73.465	3.0
73.48	0.0
73.495	2.0
73.51	2.0
73.525	5.0
73.54	3.0
73.556	3.0
73.571	3.0
73.586	1.0
73.601	2.0
73.616	2.0
73.631	4.0
73.646	7.0
73.662	3.0
73.677	3.0
73.692	2.0
73.707	4.0
73.722	5.0
73.737	1.0
73.752	9.0
73.768	5.0
73.783	4.0
73.798	5.0
73.813	5.0
73.828	2.0
73.843	5.0
73.859	4.0
73.874	4.0
73.889	3.0
73.904	0.0
73.919	4.0
73.934	2.0
73.949	2.0
73.965	3.0
73.98	2.0
73.995	5.0
74.01	4.0
74.025	3.0
74.04	4.0
74.056	3.0
74.071	3.0
74.086	4.0
74.101	4.0
74.116	7.0
74.131	4.0
74.146	10.0
74.162	3.0
74.177	3.0
74.192	4.0
74.207	9.0
74.222	6.0
74.237	3.0
74.252	2.0
74.268	2.0
74.283	4.0
74.298	3.0
74.313	1.0
74.328	4.0
74.343	4.0
74.358	5.0
74.374	2.0
74.389	0.0
74.404	5.0
74.419	6.0
74.434	1.0
74.449	1.0
74.464	4.0
74.48	4.0
74.495	1.0
74.51	2.0
74.525	6.0
74.54	1.0
74.555	4.0
74.57	4.0
74.586	1.0
74.601	4.0
74.616	4.0
74.631	6.0
74.646	2.0
74.661	4.0
74.676	6.0
74.691	4.0
74.707	4.0
74.722	5.0
74.737	4.0
74.752	3.0
74.767	3.0
74.782	8.0
74.797	3.0
74.813	2.0
74.828	1.0
74.843	3.0
74.858	3.0
74.873	3.0
74.888	3.0
74.903	5.0
74.918	1.0
74.934	5.0
74.949	3.0
74.964	3.0
74.979	3.0
74.994	5.0
75.009	5.0
75.024	3.0
75.04	5.0
75.055	2.0
75.07	6.0
75.085	10.0
75.1	4.0
75.115	7.0
75.13	6.0
75.145	2.0
75.161	5.0
75.176	6.0
75.191	0.0
75.206	1.0
75.221	2.0
75.236	4.0
75.251	6.0
75.266	3.0
75.282	0.0
75.297	4.0
75.312	3.0
75.327	2.0
75.342	0.0
75.357	1.0
75.372	4.0
75.387	3.0
75.403	3.0
75.418	3.0
75.433	5.0
75.448	5.0
75.463	2.0
75.478	4.0
75.493	3.0
75.509	2.0
75.524	1.0
75.539	1.0
75.554	2.0
75.569	7.0
75.584	6.0
75.599	6.0
75.614	5.0
75.63	5.0
75.645	2.0
75.66	1.0
75.675	2.0
75.69	6.0
75.705	5.0
75.72	1.0
75.735	2.0
75.751	4.0
75.766	2.0
75.781	0.0
75.796	2.0
75.811	4.0
75.826	3.0
75.841	3.0
75.856	1.0
75.872	5.0
75.887	1.0
75.902	2.0
75.917	4.0
75.932	4.0
75.947	2.0
75.962	3.0
75.977	2.0
75.993	2.0
76.008	3.0
76.023	6.0
76.038	3.0
76.053	4.0
76.068	5.0
76.083	1.0
76.098	5.0
76.114	1.0
76.129	4.0
76.144	0.0
76.159	2.0
76.174	3.0
76.189	5.0
76.204	4.0
76.22	5.0
76.235	2.0
76.25	1.0
76.265	7.0
76.28	0.0
76.295	2.0
76.31	1.0
76.325	4.0
76.341	0.0
76.356	7.0
76.371	3.0
76.386	2.0
76.401	3.0
76.416	3.0
76.431	3.0
76.446	4.0
76.462	3.0
76.477	5.0
76.492	3.0
76.507	2.0
76.522	6.0
76.537	4.0
76.552	4.0
76.567	0.0
76.583	3.0
76.598	4.0
76.613	2.0
76.628	4.0
76.643	7.0
76.658	6.0
76.673	1.0
76.688	3.0
76.704	6.0
76.719	1.0
76.734	5.0
76.749	2.0
76.764	5.0
76.779	7.0
76.794	11.0
76.809	3.0
76.824	7.0
76.84	3.0
76.855	2.0
76.87	2.0
76.885	3.0
76.9	2.0
76.915	1.0
76.93	2.0
76.945	3.0
76.96	4.0
76.976	4.0
76.991	2.0
77.006	3.0
77.021	5.0
77.036	5.0
77.051	4.0
77.066	2.0
77.081	4.0
77.096	3.0
77.112	3.0
77.127	8.0
77.142	4.0
77.157	8.0
77.172	1.0
77.187	6.0
77.202	6.0
77.217	4.0
77.232	2.0
77.247	4.0
77.263	1.0
77.278	5.0
77.293	4.0
77.308	5.0
77.323	4.0
77.338	6.0
77.353	3.0
77.368	2.0
77.383	8.0
77.398	2.0
77.413	5.0
77.428	5.0
77.444	6.0
77.459	3.0
77.474	1.0
77.489	2.0
77.504	1.0
77.519	1.0
77.534	1.0
77.549	1.0
77.564	8.0
77.579	3.0
77.594	5.0
77.609	4.0
77.624	8.0
77.64	4.0
77.655	9.0
77.67	3.0
77.685	3.0
77.7	3.0
77.715	4.0
77.73	8.0
77.745	4.0
77.76	6.0
77.775	2.0
77.79	7.0
77.805	8.0
77.82	2.0
77.835	3.0
77.85	5.0
77.865	2.0
77.88	4.0
77.895	3.0
77.91	2.0
77.926	1.0
77.941	1.0
77.956	1.0
77.971	3.0
77.986	2.0
78.001	1.0
78.016	2.0
78.031	4.0
78.046	5.0
78.061	2.0
78.076	2.0
78.091	2.0
78.106	4.0
78.121	2.0
78.136	2.0
78.151	4.0
78.166	4.0
78.181	3.0
78.196	3.0
78.211	8.0
78.226	4.0
78.241	2.0
78.256	4.0
78.271	4.0
78.286	3.0
78.301	2.0
78.316	2.0
78.331	5.0
78.346	5.0
78.361	3.0
78.376	1.0
78.391	1.0
78.406	3.0
78.421	4.0
78.436	2.0
78.451	3.0
78.466	4.0
78.481	3.0
78.496	4.0
78.511	4.0
78.526	1.0
78.541	2.0
78.556	2.0
78.571	2.0
78.586	5.0
78.601	3.0
78.616	2.0
78.631	1.0
78.646	4.0
78.661	1.0
78.676	3.0
78.691	4.0
78.706	3.0
78.721	4.0
78.736	3.0
78.751	4.0
78.766	3.0
78.781	2.0
78.796	3.0
78.811	3.0
78.826	2.0
78.841	4.0
78.856	2.0
78.871	2.0
78.885	2.0
78.9	4.0
78.915	1.0
78.93	3.0
78.945	5.0
78.96	3.0
78.975	2.0
78.99	4.0
79.005	3.0
79.02	0.0
79.035	3.0
79.05	2.0
79.065	4.0
79.08	3.0
79.095	4.0
79.11	2.0
79.125	4.0
79.14	1.0
79.155	4.0
79.17	1.0
79.185	3.0
79.2	1.0
79.215	3.0
79.23	1.0
79.245	3.0
79.26	1.0
79.275	3.0
79.29	7.0
79.304	4.0
79.319	6.0
79.334	3.0
79.349	2.0
79.364	4.0
79.379	3.0
79.394	7.0
79.409	2.0
79.424	3.0
79.439	1.0
79.454	7.0
79.469	1.0
79.484	1.0
79.499	1.0
79.514	4.0
79.529	7.0
79.544	3.0
79.559	1.0
79.574	2.0
79.589	4.0
79.604	0.0
79.619	0.0
79.634	4.0
79.649	1.0
79.664	3.0
79.679	2.0
79.693	0.0
79.708	3.0
79.723	4.0
79.738	2.0
79.753	1.0
79.768	4.0
79.783	5.0
79.798	3.0
79.813	2.0
79.828	2.0
79.843	0.0
79.858	1.0
79.873	3.0
79.888	7.0
79.903	2.0
79.918	5.0
79.933	0.0
79.948	4.0
79.963	2.0
79.978	2.0
79.993	5.0
80.008	0.0
80.023	3.0
80.038	2.0
80.053	1.0
80.068	4.0
80.083	2.0
80.098	1.0
80.113	3.0
80.128	6.0
80.143	5.0
80.158	1.0
80.173	5.0
80.188	3.0
80.202	6.0
80.217	1.0
80.232	2.0
80.247	4.0
80.262	4.0
80.277	4.0
80.292	1.0
80.307	0.0
80.322	1.0
80.337	0.0
80.352	2.0
80.367	1.0
80.382	2.0
80.397	2.0
80.412	2.0
80.427	1.0
80.442	5.0
80.457	4.0
80.472	3.0
80.487	3.0
80.502	3.0
80.517	3.0
80.532	6.0
80.547	3.0
80.562	7.0
80.577	3.0
80.592	1.0
80.607	3.0
80.622	4.0
80.637	1.0
80.652	1.0
80.667	4.0
80.682	0.0
80.697	3.0
80.712	3.0
80.727	5.0
80.742	6.0
80.757	5.0
80.772	3.0
80.787	3.0
80.802	0.0
80.817	6.0
80.832	5.0
80.847	10.0
80.862	6.0
80.877	1.0
80.892	2.0
80.907	2.0
80.922	8.0
80.937	4.0
80.952	3.0
80.967	5.0
80.982	2.0
80.997	1.0
81.012	4.0
81.027	3.0
81.042	4.0
81.057	2.0
81.072	5.0
81.087	1.0
81.101	5.0
81.116	3.0
81.131	6.0
81.146	6.0
81.161	0.0
81.176	3.0
81.191	2.0
81.206	1.0
81.221	4.0
81.236	3.0
81.251	2.0
81.266	5.0
81.281	2.0
81.296	2.0
81.311	4.0
81.326	6.0
81.341	3.0
81.356	0.0
81.371	4.0
81.386	5.0
81.401	2.0
81.416	4.0
81.431	5.0
81.446	2.0
81.461	7.0
81.476	3.0
81.491	3.0
81.506	4.0
81.521	2.0
81.536	2.0
81.55	5.0
81.565	2.0
81.58	3.0
81.595	2.0
81.61	2.0
81.625	1.0
81.64	6.0
81.655	2.0
81.67	3.0
81.685	2.0
81.7	1.0
81.715	6.0
81.73	2.0
81.745	2.0
81.76	0.0
81.775	6.0
81.79	4.0
81.805	3.0
81.819	3.0
81.834	3.0
81.849	5.0
81.864	3.0
81.879	1.0
81.894	4.0
81.909	5.0
81.924	5.0
81.939	7.0
81.954	3.0
81.969	7.0
81.984	1.0
81.999	1.0
82.013	3.0
82.028	3.0
82.043	3.0
82.058	5.0
82.073	4.0
82.088	5.0
82.103	3.0
82.118	1.0
82.133	2.0
82.148	6.0
82.163	2.0
82.177	4.0
82.192	3.0
82.207	2.0
82.222	3.0
82.237	3.0
82.252	3.0
82.267	3.0
82.282	2.0
82.297	5.0
82.312	2.0
82.326	4.0
82.341	3.0
82.356	3.0
82.371	2.0
82.386	4.0
82.401	3.0
82.416	4.0
82.431	5.0
82.445	4.0
82.46	3.0
82.475	1.0
82.49	5.0
82.505	4.0
82.52	1.0
82.535	5.0
82.55	4.0
82.565	2.0
82.579	3.0
82.594	1.0
82.609	1.0
82.624	0.0
82.639	3.0
82.654	2.0
82.669	3.0
82.684	4.0
82.698	3.0
82.713	3.0
82.728	3.0
82.743	2.0
82.758	4.0
82.773	1.0
82.788	1.0
82.803	3.0
82.817	4.0
82.832	2.0
82.847	5.0
82.862	2.0
82.877	2.0
82.892	2.0
82.907	4.0
82.922	2.0
82.937	3.0
82.951	3.0
82.966	2.0
82.981	2.0
82.996	5.0
83.011	5.0
83.026	3.0
83.041	2.0
83.056	5.0
83.07	4.0
83.085	2.0
83.1	3.0
83.115	0.0
83.13	7.0
83.145	0.0
83.16	3.0
83.175	1.0
83.19	3.0
83.204	0.0
83.219	3.0
83.234	2.0
83.249	1.0
83.264	4.0
83.279	4.0
83.294	3.0
83.309	2.0
83.324	4.0
83.339	3.0
83.353	6.0
83.368	1.0
83.383	1.0
83.398	3.0
83.413	2.0
83.428	5.0
83.443	2.0
83.458	0.0
83.473	4.0
83.488	1.0
83.503	6.0
83.517	5.0
83.532	5.0
83.547	4.0
83.562	1.0
83.577	5.0
83.592	3.0
83.607	2.0
83.622	5.0
83.637	5.0
83.652	3.0
83.667	5.0
83.682	8.0
83.697	2.0
83.712	4.0
83.727	3.0
83.741	2.0
83.756	0.0
83.771	5.0
83.786	3.0
83.801	2.0
83.816	2.0
83.831	5.0
83.846	2.0
83.861	3.0
83.876	6.0
83.891	3.0
83.906	2.0
83.921	1.0
83.936	3.0
83.951	5.0
83.966	4.0
83.981	2.0
83.996	2.0
84.011	3.0
84.026	3.0
84.041	4.0
84.056	4.0
84.071	3.0
84.086	1.0
84.101	1.0
84.116	1.0
84.131	2.0
84.146	2.0
84.161	3.0
84.176	3.0
84.191	2.0
84.206	7.0
84.221	3.0
84.236	3.0
84.251	4.0
84.266	0.0
84.281	6.0
84.296	4.0
84.311	6.0
84.326	3.0
84.341	4.0
84.356	6.0
84.371	4.0
84.386	3.0
84.401	3.0
84.416	5.0
84.431	2.0
84.446	3.0
84.461	4.0
84.476	3.0
84.492	4.0
84.507	3.0
84.522	2.0
84.537	2.0
84.552	2.0
84.567	7.0
84.582	4.0
84.597	3.0
84.612	2.0
84.627	2.0
84.642	2.0
84.657	5.0
84.672	3.0
84.687	1.0
84.702	5.0
84.717	5.0
84.733	5.0
84.748	2.0
84.763	5.0
84.778	2.0
84.793	2.0
84.808	3.0
84.823	1.0
84.838	3.0
84.853	1.0
84.868	2.0
84.883	3.0
84.898	1.0
84.913	2.0
84.929	3.0
84.944	4.0
84.959	6.0
84.974	4.0
84.989	4.0
85.004	5.0
85.019	4.0
85.034	3.0
85.049	2.0
85.064	1.0
85.079	7.0
85.094	3.0
85.11	4.0
85.125	2.0
85.14	4.0
85.155	3.0
85.17	3.0
85.185	4.0
85.2	0.0
85.215	2.0
85.23	3.0
85.245	5.0
85.26	3.0
85.276	0.0
85.291	2.0
85.306	3.0
85.321	7.0
85.336	2.0
85.351	4.0
85.366	3.0
85.381	6.0
85.396	2.0
85.411	5.0
85.426	4.0
85.441	2.0
85.457	3.0
85.472	2.0
85.487	4.0
85.502	3.0
85.517	0.0
85.532	0.0
85.547	1.0
85.562	2.0
85.577	4.0
85.592	0.0
85.607	3.0
85.622	2.0
85.637	4.0
85.653	0.0
85.668	1.0
85.683	1.0
85.698	0.0
85.713	2.0
85.728	6.0
85.743	1.0
85.758	3.0
85.773	5.0
85.788	3.0
85.803	1.0
85.818	3.0
85.833	0.0
85.848	6.0
85.863	5.0
85.879	6.0
85.894	1.0
85.909	0.0
85.924	0.0
85.939	4.0
85.954	3.0
85.969	3.0
85.984	4.0
85.999	6.0
86.014	1.0
86.029	4.0
86.044	2.0
86.059	4.0
86.074	2.0
86.089	1.0
86.104	2.0
86.119	2.0
86.134	3.0
86.149	5.0
86.164	1.0
86.179	3.0
86.194	2.0
86.209	2.0
86.224	5.0
86.239	1.0
86.254	3.0
86.269	2.0
86.284	2.0
86.299	3.0
86.314	2.0
86.33	4.0
86.345	2.0
86.36	3.0
86.375	2.0
86.39	1.0
86.405	4.0
86.42	1.0
86.435	4.0
86.45	3.0
86.465	3.0
86.48	3.0
86.495	8.0
86.51	2.0
86.525	3.0
86.54	2.0
86.555	3.0
86.57	4.0
86.585	1.0
86.6	0.0
86.615	2.0
86.63	2.0
86.645	1.0
86.659	3.0
86.674	3.0
86.689	5.0
86.704	4.0
86.719	1.0
86.734	3.0
86.749	1.0
86.764	3.0
86.779	6.0
86.794	3.0
86.809	2.0
86.824	2.0
86.839	2.0
86.854	1.0
86.869	3.0
86.884	6.0
86.899	4.0
86.914	4.0
86.929	4.0
86.944	6.0
86.959	10.0
86.974	4.0
86.989	6.0
87.004	4.0
87.019	2.0
87.034	5.0
87.049	2.0
87.064	1.0
87.079	3.0
87.094	1.0
87.109	1.0
87.124	4.0
87.139	4.0
87.154	3.0
87.169	6.0
87.184	4.0
87.199	5.0
87.214	4.0
87.229	6.0
87.244	5.0
87.259	7.0
87.274	2.0
87.289	2.0
87.304	1.0
87.319	2.0
87.334	2.0
87.349	5.0
87.364	5.0
87.379	0.0
87.394	4.0
87.409	5.0
87.424	3.0
87.438	2.0
87.453	4.0
87.468	1.0
87.483	1.0
87.498	5.0
87.513	4.0
87.528	3.0
87.543	1.0
87.558	4.0
87.573	2.0
87.588	2.0
87.603	7.0
87.618	8.0
87.633	3.0
87.648	8.0
87.663	7.0
87.678	2.0
87.693	3.0
87.708	3.0
87.723	5.0
87.738	4.0
87.753	0.0
87.768	4.0
87.783	9.0
87.798	3.0
87.813	6.0
87.828	3.0
87.843	0.0
87.858	3.0
87.873	0.0
87.888	4.0
87.903	2.0
87.918	4.0
87.933	5.0
87.948	3.0
87.963	4.0
87.978	0.0
87.993	3.0
88.008	5.0
88.023	3.0
88.038	3.0
88.053	3.0
88.068	4.0
88.083	6.0
88.098	2.0
88.113	1.0
88.128	1.0
88.143	4.0
88.158	0.0
88.174	2.0
88.189	2.0
88.204	2.0
88.219	3.0
88.234	1.0
88.249	1.0
88.264	3.0
88.279	3.0
88.294	6.0
88.309	2.0
88.324	6.0
88.339	6.0
88.354	0.0
88.369	3.0
88.384	6.0
88.399	7.0
88.414	3.0
88.429	5.0
88.444	4.0
88.459	1.0
88.474	3.0
88.489	4.0
88.504	0.0
88.519	3.0
88.534	3.0
88.549	2.0
88.564	5.0
88.58	3.0
88.595	0.0
88.61	0.0
88.625	2.0
88.64	4.0
88.655	2.0
88.67	1.0
88.685	1.0
88.7	3.0
88.715	2.0
88.73	2.0
88.745	1.0
88.76	7.0
88.775	2.0
88.79	2.0
88.805	2.0
88.82	2.0
88.835	3.0
88.85	4.0
88.865	2.0
88.88	1.0
88.895	2.0
88.911	2.0
88.926	3.0
88.941	2.0
88.956	1.0
88.971	2.0
88.986	5.0
89.001	2.0
89.016	0.0
89.031	3.0
89.046	6.0
89.061	5.0
89.076	4.0
89.091	4.0
89.106	3.0
89.121	3.0
89.136	2.0
89.151	1.0
89.166	5.0
89.181	2.0
89.196	4.0
89.211	4.0
89.227	3.0
89.242	4.0
89.257	3.0
89.272	2.0
89.287	3.0
89.302	0.0
89.317	1.0
89.332	1.0
89.347	2.0
89.362	4.0
89.377	3.0
89.392	8.0
89.407	2.0
89.422	8.0
89.437	3.0
89.452	2.0
89.467	2.0
89.482	5.0
89.497	3.0
89.512	2.0
89.527	1.0
89.542	3.0
89.557	4.0
89.572	0.0
89.587	2.0
89.602	3.0
89.617	0.0
89.632	4.0
89.647	4.0
89.662	2.0
89.677	2.0
89.693	4.0
89.708	1.0
89.723	4.0
89.738	4.0
89.753	1.0
89.768	1.0
89.783	0.0
89.798	2.0
89.813	3.0
89.828	2.0
89.843	0.0
89.858	3.0
89.873	4.0
89.888	2.0
89.903	4.0
89.918	3.0
89.933	5.0
89.948	5.0
89.963	1.0
89.978	2.0
89.993	2.0
90.008	5.0
90.023	6.0
90.038	0.0
90.053	3.0
90.068	3.0
90.083	4.0
90.097	1.0
90.112	3.0
90.127	3.0
90.142	6.0
90.157	1.0
90.172	4.0
90.187	4.0
90.202	3.0
90.217	2.0
90.232	3.0
90.247	5.0
90.262	6.0
90.277	3.0
90.292	7.0
90.307	2.0
90.322	6.0
90.337	1.0
90.352	4.0
90.367	3.0
90.382	4.0
90.397	2.0
90.412	5.0
90.427	6.0
90.442	4.0
90.457	3.0
90.472	2.0
90.487	1.0
90.501	4.0
90.516	3.0
90.531	1.0
90.546	0.0
90.561	3.0
90.576	2.0
90.591	3.0
90.606	3.0
90.621	1.0
90.636	2.0
90.651	2.0
90.666	2.0
90.681	1.0
90.696	3.0
90.711	3.0
90.726	3.0
90.741	2.0
90.755	2.0
90.77	0.0
90.785	2.0
90.8	1.0
90.815	4.0
90.83	2.0
90.845	2.0
90.86	4.0
90.875	4.0
90.89	1.0
90.905	3.0
90.92	6.0
90.935	5.0
90.95	2.0
90.965	3.0
90.979	1.0
90.994	1.0
91.009	0.0
91.024	2.0
91.039	2.0
91.054	2.0
91.069	2.0
91.084	3.0
91.099	4.0
91.114	2.0
91.129	3.0
91.144	2.0
91.159	7.0
91.174	3.0
91.188	4.0
91.203	1.0
91.218	3.0
91.233	3.0
91.248	1.0
91.263	4.0
91.278	0.0
91.293	0.0
91.308	2.0
91.323	1.0
91.338	2.0
91.353	4.0
91.368	3.0
91.383	2.0
91.398	8.0
91.412	0.0
91.427	1.0
91.442	2.0
91.457	1.0
91.472	0.0
91.487	2.0
91.502	3.0
91.517	6.0
91.532	3.0
91.547	4.0
91.562	3.0
91.577	4.0
91.592	2.0
91.607	0.0
91.622	2.0
91.637	2.0
91.652	2.0
91.666	2.0
91.681	4.0
91.696	1.0
91.711	1.0
91.726	2.0
91.741	1.0
91.756	1.0
91.771	2.0
91.786	1.0
91.801	3.0
91.816	3.0
91.831	2.0
91.846	4.0
91.861	1.0
91.876	4.0
91.891	3.0
91.906	6.0
91.921	5.0
91.936	4.0
91.951	3.0
91.966	2.0
91.981	2.0
91.995	3.0
92.01	3.0
92.025	4.0
92.04	3.0
92.055	1.0
92.07	5.0
92.085	4.0
92.1	0.0
92.115	0.0
92.13	5.0
92.145	1.0
92.16	3.0
92.175	1.0
92.19	3.0
92.205	4.0
92.22	4.0
92.235	1.0
92.25	0.0
92.265	0.0
92.28	2.0
92.295	0.0
92.31	0.0
92.325	4.0
92.34	3.0
92.355	4.0
92.37	4.0
92.385	2.0
92.4	4.0
92.415	1.0
92.43	0.0
92.445	1.0
92.46	5.0
92.475	3.0
92.49	1.0
92.505	2.0
92.52	2.0
92.535	1.0
92.55	1.0
92.565	0.0
92.58	4.0
92.595	5.0
92.61	1.0
92.625	8.0
92.64	0.0
92.655	1.0
92.67	4.0
92.685	2.0
92.7	2.0
92.715	4.0
92.73	5.0
92.745	0.0
92.76	1.0
92.775	3.0
92.79	4.0
92.805	7.0
92.82	3.0
92.835	5.0
92.85	3.0
92.865	4.0
92.88	3.0
92.895	4.0
92.91	0.0
92.925	3.0
92.94	2.0
92.955	0.0
92.97	3.0
92.985	1.0
93.0	2.0
93.015	2.0
93.03	5.0
93.045	1.0
93.06	3.0
93.075	6.0
93.09	1.0
93.105	5.0
93.12	2.0
93.135	0.0
93.15	4.0
93.165	2.0
93.18	0.0
93.195	4.0
93.21	3.0
93.225	0.0
93.24	1.0
93.255	1.0
93.27	6.0
93.285	4.0
93.3	2.0
93.315	5.0
93.33	3.0
93.345	3.0
93.36	3.0
93.375	5.0
93.39	2.0
93.405	1.0
93.42	2.0
93.435	7.0
93.45	5.0
93.465	0.0
93.48	4.0
93.495	7.0
93.51	4.0
93.525	3.0
93.54	4.0
93.555	3.0
93.57	3.0
93.585	5.0
93.6	1.0
93.615	3.0
93.63	4.0
93.645	2.0
93.66	0.0
93.675	2.0
93.69	3.0
93.705	1.0
93.72	3.0
93.735	3.0
93.75	5.0
93.765	2.0
93.78	3.0
93.795	3.0
93.81	8.0
93.824	3.0
93.839	3.0
93.854	2.0
93.869	1.0
93.884	1.0
93.899	7.0
93.914	3.0
93.929	5.0
93.944	3.0
93.959	3.0
93.974	5.0
93.989	3.0
94.004	1.0
94.019	4.0
94.034	1.0
94.049	2.0
94.064	0.0
94.079	3.0
94.094	2.0
94.108	5.0
94.123	4.0
94.138	5.0
94.153	6.0
94.168	2.0
94.183	2.0
94.198	3.0
94.213	3.0
94.228	4.0
94.243	5.0
94.258	2.0
94.273	0.0
94.288	2.0
94.302	5.0
94.317	3.0
94.332	2.0
94.347	7.0
94.362	4.0
94.377	4.0
94.392	6.0
94.407	3.0
94.422	1.0
94.437	4.0
94.452	5.0
94.466	5.0
94.481	1.0
94.496	3.0
94.511	4.0
94.526	4.0
94.541	8.0
94.556	7.0
94.571	3.0
94.586	1.0
94.601	1.0
94.615	7.0
94.63	2.0
94.645	2.0
94.66	4.0
94.675	3.0
94.69	3.0
94.705	3.0
94.72	3.0
94.735	6.0
94.749	4.0
94.764	3.0
94.779	4.0
94.794	4.0
94.809	3.0
94.824	3.0
94.839	2.0
94.854	6.0
94.868	0.0
94.883	2.0
94.898	4.0
94.913	8.0
94.928	2.0
94.943	1.0
94.958	4.0
94.973	2.0
94.987	4.0
95.002	6.0
95.017	2.0
95.032	5.0
95.047	3.0
95.062	4.0
95.077	1.0
95.092	4.0
95.106	6.0
95.121	3.0
95.136	4.0
95.151	1.0
95.166	2.0
95.181	4.0
95.196	4.0
95.211	2.0
95.226	5.0
95.24	3.0
95.255	3.0
95.27	1.0
95.285	1.0
95.3	3.0
95.315	3.0
95.33	5.0
95.345	4.0
95.359	4.0
95.374	2.0
95.389	3.0
95.404	3.0
95.419	4.0
95.434	7.0
95.449	2.0
95.464	2.0
95.478	3.0
95.493	2.0
95.508	2.0
95.523	3.0
95.538	3.0
95.553	8.0
95.568	3.0
95.583	3.0
95.597	1.0
95.612	2.0
95.627	0.0
95.642	2.0
95.657	2.0
95.672	1.0
95.687	1.0
95.702	0.0
95.717	2.0
95.731	2.0
95.746	3.0
95.761	2.0
95.776	3.0
95.791	0.0
95.806	1.0
95.821	3.0
95.836	1.0
95.851	4.0
95.866	3.0
95.88	3.0
95.895	3.0
95.91	4.0
95.925	2.0
95.94	4.0
95.955	5.0
95.97	0.0
95.985	4.0
96.0	3.0
96.015	4.0
96.029	2.0
96.044	4.0
96.059	3.0
96.074	2.0
96.089	1.0
96.104	3.0
96.119	6.0
96.134	3.0
96.149	2.0
96.164	4.0
96.179	3.0
96.194	3.0
96.208	4.0
96.223	3.0
96.238	3.0
96.253	0.0
96.268	1.0
96.283	7.0
96.298	2.0
96.313	4.0
96.328	2.0
96.343	9.0
96.358	5.0
96.373	1.0
96.388	6.0
96.403	3.0
96.417	5.0
96.432	4.0
96.447	2.0
96.462	2.0
96.477	6.0
96.492	3.0
96.507	2.0
96.522	3.0
96.537	4.0
96.552	1.0
96.567	3.0
96.582	2.0
96.597	2.0
96.612	3.0
96.627	0.0
96.642	1.0
96.656	5.0
96.671	1.0
96.686	2.0
96.701	5.0
96.716	3.0
96.731	3.0
96.746	3.0
96.761	2.0
96.776	3.0
96.791	4.0
96.806	4.0
96.821	1.0
96.836	3.0
96.851	3.0
96.866	3.0
96.881	4.0
96.896	2.0
96.911	7.0
96.926	3.0
96.94	2.0
96.955	3.0
96.97	2.0
96.985	3.0
97.0	8.0
97.015	2.0
97.03	2.0
97.045	2.0
97.06	4.0
97.075	2.0
97.09	5.0
97.105	4.0
97.12	0.0
97.135	1.0
97.15	3.0
97.165	3.0
97.18	2.0
97.195	3.0
97.21	4.0
97.225	3.0
97.239	4.0
97.254	5.0
97.269	4.0
97.284	6.0
97.299	6.0
97.314	2.0
97.329	3.0
97.344	1.0
97.359	1.0
97.374	2.0
97.389	0.0
97.404	3.0
97.419	2.0
97.434	6.0
97.449	5.0
97.464	2.0
97.479	2.0
97.494	4.0
97.509	2.0
97.524	4.0
97.538	4.0
97.553	1.0
97.568	6.0
97.583	5.0
97.598	0.0
97.613	5.0
97.628	2.0
97.643	2.0
97.658	2.0
97.673	1.0
97.688	3.0
97.703	1.0
97.718	0.0
97.733	3.0
97.748	4.0
97.763	3.0
97.778	3.0
97.792	5.0
97.807	4.0
97.822	5.0
97.837	9.0
97.852	1.0
97.867	4.0
97.882	2.0
97.897	2.0
97.912	5.0
97.927	2.0
97.942	3.0
97.957	2.0
97.972	0.0
97.987	1.0
98.001	3.0
98.016	0.0
98.031	0.0
98.046	2.0
98.061	1.0
98.076	3.0
98.091	5.0
98.106	2.0
98.121	2.0
98.136	5.0
98.151	1.0
98.166	4.0
98.181	4.0
98.195	3.0
98.21	4.0
98.225	6.0
98.24	2.0
98.255	7.0
98.27	3.0
98.285	5.0
98.3	5.0
98.315	4.0
98.33	4.0
98.345	2.0
98.359	2.0
98.374	2.0
98.389	0.0
98.404	1.0
98.419	3.0
98.434	2.0
98.449	3.0
98.464	2.0
98.479	2.0
98.494	3.0
98.508	0.0
98.523	3.0
98.538	6.0
98.553	2.0
98.568	1.0
98.583	0.0
98.598	3.0
98.613	3.0
98.628	3.0
98.642	0.0
98.657	5.0
98.672	2.0
98.687	7.0
98.702	6.0
98.717	6.0
98.732	5.0
98.747	4.0
98.762	3.0
98.776	3.0
98.791	5.0
98.806	3.0
98.821	4.0
98.836	5.0
98.851	0.0
98.866	1.0
98.881	2.0
98.896	1.0
98.91	3.0
98.925	7.0
98.94	6.0
98.955	3.0
98.97	6.0
98.985	4.0
99.0	1.0
99.015	6.0
99.029	1.0
99.044	1.0
99.059	4.0
99.074	2.0
99.089	5.0
99.104	0.0
99.119	3.0
99.133	3.0
99.148	2.0
99.163	2.0
99.178	3.0
99.193	2.0
99.208	4.0
99.223	3.0
99.238	6.0
99.252	3.0
99.267	1.0
99.282	2.0
99.297	0.0
99.312	4.0
99.327	1.0
99.342	1.0
99.356	1.0
99.371	0.0
99.386	4.0
99.401	6.0
99.416	1.0
99.431	0.0
99.446	4.0
99.461	3.0
99.475	2.0
99.49	1.0
99.505	5.0
99.52	2.0
99.535	1.0
99.55	3.0
99.565	5.0
99.579	4.0
99.594	6.0
99.609	3.0
99.624	4.0
99.639	3.0
99.654	2.0
99.669	1.0
99.683	4.0
99.698	3.0
99.713	3.0
99.728	2.0
99.743	5.0
99.758	3.0
99.772	4.0
99.787	4.0
99.802	6.0
99.817	4.0
99.832	1.0
99.847	2.0
99.862	4.0
99.876	4.0
99.891	2.0
99.906	2.0
99.921	1.0
99.936	1.0
99.951	3.0
99.966	2.0
99.98	4.0
99.995	7.0
100.01	2.0
100.025	1.0
100.04	9.0
100.055	5.0
100.069	1.0
100.084	1.0
100.099	2.0
100.114	4.0
100.129	2.0
100.144	6.0
100.159	3.0
100.173	1.0
100.188	0.0
100.203	4.0
100.218	6.0
100.233	3.0
100.248	1.0
100.262	4.0
100.277	4.0
100.292	4.0
100.307	7.0
100.322	8.0
100.337	5.0
100.351	6.0
100.366	0.0
100.381	2.0
100.396	2.0
100.411	0.0
100.426	0.0
100.441	4.0
100.455	2.0
100.47	2.0
100.485	2.0
100.5	3.0
100.515	5.0
100.53	5.0
100.544	3.0
100.559	7.0
100.574	1.0
100.589	4.0
100.604	4.0
100.619	3.0
100.633	3.0
100.648	2.0
100.663	3.0
100.678	4.0
100.693	3.0
100.708	3.0
100.722	4.0
100.737	2.0
100.752	4.0
100.767	2.0
100.782	2.0
100.796	1.0
100.811	3.0
100.826	3.0
100.841	2.0
100.856	6.0
100.871	1.0
100.885	1.0
100.9	2.0
100.915	6.0
100.93	1.0
100.945	5.0
100.96	2.0
100.974	2.0
100.989	2.0
101.004	2.0
101.019	2.0
101.034	3.0
101.048	2.0
101.063	2.0
101.078	3.0
101.093	2.0
101.108	2.0
101.123	4.0
101.137	5.0
101.152	2.0
101.167	6.0
101.182	2.0
101.197	3.0
101.211	3.0
101.226	2.0
101.241	3.0
101.256	7.0
101.271	1.0
101.285	4.0
101.3	3.0
101.315	4.0
101.33	6.0
101.345	3.0
101.359	2.0
101.374	1.0
101.389	2.0
101.404	7.0
101.419	2.0
101.433	1.0
101.448	3.0
101.463	4.0
101.478	5.0
101.493	6.0
101.507	2.0
101.522	3.0
101.537	4.0
101.552	5.0
101.567	3.0
101.581	2.0
101.596	1.0
101.611	6.0
101.626	0.0
101.64	4.0
101.655	6.0
101.67	3.0
101.685	4.0
101.7	3.0
101.714	6.0
101.729	2.0
101.744	2.0
101.759	4.0
101.773	5.0
101.788	2.0
101.803	5.0
101.818	4.0
101.833	5.0
101.847	3.0
101.862	3.0
101.877	2.0
101.892	4.0
101.906	2.0
101.921	3.0
101.936	2.0
101.951	5.0
101.965	3.0
101.98	1.0
101.995	5.0
102.01	2.0
102.025	6.0
102.039	5.0
102.054	5.0
102.069	5.0
102.084	4.0
102.098	1.0
102.113	4.0
102.128	0.0
102.143	2.0
102.157	1.0
102.172	4.0
102.187	3.0
102.202	1.0
102.216	1.0
102.231	2.0
102.246	4.0
102.261	2.0
102.275	4.0
102.29	5.0
102.305	4.0
102.32	3.0
102.334	2.0
102.349	2.0
102.364	1.0
102.378	1.0
102.393	6.0
102.408	4.0
102.423	4.0
102.437	3.0
102.452	2.0
102.467	0.0
102.482	6.0
102.496	4.0
102.511	1.0
102.526	1.0
102.541	2.0
102.555	6.0
102.57	3.0
102.585	2.0
102.6	2.0
102.614	3.0
102.629	6.0
102.644	3.0
102.659	1.0
102.673	2.0
102.688	0.0
102.703	3.0
102.717	1.0
102.732	4.0
102.747	2.0
102.762	1.0
102.776	3.0
102.791	2.0
102.806	2.0
102.821	2.0
102.835	4.0
102.85	3.0
102.865	4.0
102.88	2.0
102.894	5.0
102.909	4.0
102.924	3.0
102.938	4.0
102.953	4.0
102.968	4.0
102.983	4.0
102.997	3.0
103.012	1.0
103.027	2.0
103.042	2.0
103.056	3.0
103.071	2.0
103.086	4.0
103.101	3.0
103.115	6.0
103.13	7.0
103.145	3.0
103.16	2.0
103.174	3.0
103.189	3.0
103.204	3.0
103.219	3.0
103.233	4.0
103.248	5.0
103.263	3.0
103.278	2.0
103.292	3.0
103.307	6.0
103.322	3.0
103.337	4.0
103.351	1.0
103.366	1.0
103.381	2.0
103.396	2.0
103.41	6.0
103.425	4.0
103.44	6.0
103.455	3.0
103.469	3.0
103.484	4.0
103.499	0.0
103.514	4.0
103.529	8.0
103.543	2.0
103.558	5.0
103.573	2.0
103.588	2.0
103.602	4.0
103.617	4.0
103.632	3.0
103.647	2.0
103.661	0.0
103.676	1.0
103.691	7.0
103.706	4.0
103.721	3.0
103.735	2.0
103.75	4.0
103.765	2.0
103.78	5.0
103.795	2.0
103.809	1.0
103.824	3.0
103.839	4.0
103.854	3.0
103.869	4.0
103.883	1.0
103.898	2.0
103.913	2.0
103.928	1.0
103.943	4.0
103.957	3.0
103.972	5.0
103.987	2.0
104.002	5.0
104.017	3.0
104.031	3.0
104.046	2.0
104.061	5.0
104.076	3.0
104.091	0.0
104.106	0.0
104.12	3.0
104.135	4.0
104.15	3.0
104.165	2.0
104.18	1.0
104.195	4.0
104.209	2.0
104.224	1.0
104.239	4.0
104.254	5.0
104.269	0.0
104.284	3.0
104.299	2.0
104.313	5.0
104.328	5.0
104.343	4.0
104.358	4.0
104.373	2.0
104.388	7.0
104.403	3.0
104.417	5.0
104.432	3.0
104.447	5.0
104.462	4.0
104.477	5.0
104.492	4.0
104.507	5.0
104.522	1.0
104.536	4.0
104.551	3.0
104.566	6.0
104.581	1.0
104.596	3.0
104.611	8.0
104.626	1.0
104.641	2.0
104.656	0.0
104.67	4.0
104.685	2.0
104.7	4.0
104.715	4.0
104.73	3.0
104.745	4.0
104.76	5.0
104.775	2.0
104.79	0.0
104.804	1.0
104.819	1.0
104.834	2.0
104.849	3.0
104.864	6.0
104.879	3.0
104.894	2.0
104.909	5.0
104.924	3.0
104.939	2.0
104.954	2.0
104.968	2.0
104.983	4.0
104.998	0.0
105.013	3.0
105.028	3.0
105.043	2.0
105.058	3.0
105.073	1.0
105.088	2.0
105.103	2.0
105.118	0.0
105.133	2.0
105.147	1.0
105.162	2.0
105.177	2.0
105.192	4.0
105.207	2.0
105.222	6.0
105.237	2.0
105.252	4.0
105.267	0.0
105.282	3.0
105.297	4.0
105.312	3.0
105.327	5.0
105.342	7.0
105.356	1.0
105.371	4.0
105.386	5.0
105.401	4.0
105.416	4.0
105.431	3.0
105.446	3.0
105.461	3.0
105.476	0.0
105.491	4.0
105.506	1.0
105.521	1.0
105.536	4.0
105.551	5.0
105.566	1.0
105.581	4.0
105.595	0.0
105.61	2.0
105.625	2.0
105.64	5.0
105.655	2.0
105.67	1.0
105.685	1.0
105.7	5.0
105.715	6.0
105.73	5.0
105.745	3.0
105.76	2.0
105.775	4.0
105.79	2.0
105.805	3.0
105.82	4.0
105.835	2.0
105.85	1.0
105.864	3.0
105.879	6.0
105.894	2.0
105.909	7.0
105.924	2.0
105.939	0.0
105.954	4.0
105.969	6.0
105.984	4.0
105.999	3.0
106.014	3.0
106.029	3.0
106.044	0.0
106.059	1.0
106.074	2.0
106.089	4.0
106.104	2.0
106.119	2.0
106.134	4.0
106.148	0.0
106.163	1.0
106.178	2.0
106.193	3.0
106.208	3.0
106.223	4.0
106.238	3.0
106.253	0.0
106.268	3.0
106.283	3.0
106.298	4.0
106.313	1.0
106.328	7.0
106.343	3.0
106.358	4.0
106.373	2.0
106.388	3.0
106.403	5.0
106.418	2.0
106.432	5.0
106.447	4.0
106.462	2.0
106.477	2.0
106.492	4.0
106.507	1.0
106.522	6.0
106.537	3.0
106.552	2.0
106.567	4.0
106.582	4.0
106.597	4.0
106.612	5.0
106.627	4.0
106.642	3.0
106.657	3.0
106.672	3.0
106.687	5.0
106.701	2.0
106.716	1.0
106.731	6.0
106.746	3.0
106.761	2.0
106.776	2.0
106.791	5.0
106.806	2.0
106.821	4.0
106.836	5.0
106.851	8.0
106.866	6.0
106.881	4.0
106.896	4.0
106.911	3.0
106.926	1.0
106.941	3.0
106.955	6.0
106.97	6.0
106.985	3.0
107.0	1.0
107.015	5.0
107.03	3.0
107.045	4.0
107.06	5.0
107.075	5.0
107.09	4.0
107.105	3.0
107.12	3.0
107.135	4.0
107.15	1.0
107.165	5.0
107.18	6.0
107.194	4.0
107.209	2.0
107.224	6.0
107.239	5.0
107.254	3.0
107.269	8.0
107.284	3.0
107.299	5.0
107.314	5.0
107.329	4.0
107.344	2.0
107.359	5.0
107.374	3.0
107.389	3.0
107.404	3.0
107.418	4.0
107.433	1.0
107.448	4.0
107.463	2.0
107.478	3.0
107.493	5.0
107.508	3.0
107.523	2.0
107.538	1.0
107.553	5.0
107.568	2.0
107.583	0.0
107.598	7.0
107.613	2.0
107.627	2.0
107.642	2.0
107.657	1.0
107.672	2.0
107.687	3.0
107.702	3.0
107.717	3.0
107.732	2.0
107.747	5.0
107.762	3.0
107.777	2.0
107.792	1.0
107.807	2.0
107.821	2.0
107.836	2.0
107.851	4.0
107.866	2.0
107.881	4.0
107.896	2.0
107.911	2.0
107.926	2.0
107.941	8.0
107.956	2.0
107.971	5.0
107.986	5.0
108.0	3.0
108.015	2.0
108.03	6.0
108.045	4.0
108.06	6.0
108.075	3.0
108.09	1.0
108.105	4.0
108.12	8.0
108.135	5.0
108.15	6.0
108.164	4.0
108.179	4.0
108.194	1.0
108.209	1.0
108.224	2.0
108.239	4.0
108.254	7.0
108.269	3.0
108.284	3.0
108.299	3.0
108.313	3.0
108.328	4.0
108.343	6.0
108.358	3.0
108.373	3.0
108.388	3.0
108.403	1.0
108.418	0.0
108.433	3.0
108.448	0.0
108.462	1.0
108.477	5.0
108.492	6.0
108.507	6.0
108.522	3.0
108.537	0.0
108.552	1.0
108.567	3.0
108.582	5.0
108.597	3.0
108.611	4.0
108.626	5.0
108.641	4.0
108.656	5.0
108.671	3.0
108.686	0.0
108.701	5.0
108.716	1.0
108.731	2.0
108.745	1.0
108.76	3.0
108.775	5.0
108.79	5.0
108.805	3.0
108.82	2.0
108.835	1.0
108.85	2.0
108.865	2.0
108.879	3.0
108.894	3.0
108.909	3.0
108.924	3.0
108.939	4.0
108.954	3.0
108.969	2.0
108.984	3.0
108.999	3.0
109.013	2.0
109.028	2.0
109.043	0.0
109.058	4.0
109.073	3.0
109.088	4.0
109.103	1.0
109.118	1.0
109.133	3.0
109.147	3.0
109.162	4.0
109.177	2.0
109.192	1.0
109.207	0.0
109.222	2.0
109.237	2.0
109.252	2.0
109.267	4.0
109.281	5.0
109.296	2.0
109.311	1.0
109.326	1.0
109.341	2.0
109.356	2.0
109.371	3.0
109.386	5.0
109.4	1.0
109.415	3.0
109.43	2.0
109.445	3.0
109.46	1.0
109.475	2.0
109.49	1.0
109.505	0.0
109.52	4.0
109.534	3.0
109.549	3.0
109.564	3.0
109.579	3.0
109.594	5.0
109.609	3.0
109.624	1.0
109.639	1.0
109.653	2.0
109.668	0.0
109.683	6.0
109.698	4.0
109.713	1.0
109.728	3.0
109.743	5.0
109.758	5.0
109.773	3.0
109.787	1.0
109.802	4.0
109.817	4.0
109.832	3.0
109.847	3.0
109.862	2.0
109.877	3.0
109.892	0.0
109.907	1.0
109.921	3.0
109.936	0.0
109.951	8.0
109.966	6.0
109.981	3.0
109.996	4.0
110.011	2.0
110.026	0.0
110.04	4.0
110.055	3.0
110.07	1.0
110.085	7.0
110.1	4.0
110.115	2.0
110.13	1.0
110.145	3.0
110.16	4.0
110.174	1.0
110.189	3.0
110.204	2.0
110.219	5.0
110.234	1.0
110.249	5.0
110.264	1.0
110.279	2.0
110.294	2.0
110.308	3.0
110.323	4.0
110.338	3.0
110.353	5.0
110.368	6.0
110.383	1.0
110.398	3.0
110.413	4.0
110.428	6.0
110.442	1.0
110.457	3.0
110.472	4.0
110.487	2.0
110.502	2.0
110.517	2.0
110.532	2.0
110.547	1.0
110.561	2.0
110.576	5.0
110.591	5.0
110.606	3.0
110.621	3.0
110.636	1.0
110.651	6.0
110.666	4.0
110.681	1.0
110.695	1.0
110.71	5.0
110.725	4.0
110.74	2.0
110.755	3.0
110.77	4.0
110.785	4.0
110.8	7.0
110.815	4.0
110.829	2.0
110.844	3.0
110.859	5.0
110.874	2.0
110.889	1.0
110.904	4.0
110.919	2.0
110.934	2.0
110.948	4.0
110.963	3.0
110.978	4.0
110.993	2.0
111.008	2.0
111.023	0.0
111.038	7.0
111.053	5.0
111.067	3.0
111.082	2.0
111.097	2.0
111.112	3.0
111.127	4.0
111.142	4.0
111.157	5.0
111.172	2.0
111.186	2.0
111.201	1.0
111.216	7.0
111.231	4.0
111.246	0.0
111.261	4.0
111.276	7.0
111.291	3.0
111.305	2.0
111.32	2.0
111.335	3.0
111.35	4.0
111.365	2.0
111.38	3.0
111.395	4.0
111.41	2.0
111.424	4.0
111.439	5.0
111.454	1.0
111.469	3.0
111.484	2.0
111.499	3.0
111.514	0.0
111.528	3.0
111.543	6.0
111.558	1.0
111.573	3.0
111.588	6.0
111.603	2.0
111.618	7.0
111.633	6.0
111.647	5.0
111.662	3.0
111.677	7.0
111.692	3.0
111.707	7.0
111.722	1.0
111.737	5.0
111.751	4.0
111.766	1.0
111.781	3.0
111.796	2.0
111.811	4.0
111.826	2.0
111.84	5.0
111.855	1.0
111.87	3.0
111.885	3.0
111.9	1.0
111.915	2.0
111.93	2.0
111.944	4.0
111.959	3.0
111.974	7.0
111.989	2.0
112.004	2.0
112.019	2.0
112.033	3.0
112.048	2.0
112.063	3.0
112.078	3.0
112.093	0.0
112.108	3.0
112.123	6.0
112.137	3.0
112.152	1.0
112.167	6.0
112.182	4.0
112.197	2.0
112.212	5.0
112.226	4.0
112.241	6.0
112.256	3.0
112.271	1.0
112.286	6.0
112.301	3.0
112.315	2.0
112.33	2.0
112.345	3.0
112.36	4.0
112.375	5.0
112.389	6.0
112.404	2.0
112.419	3.0
112.434	2.0
112.449	2.0
112.464	3.0
112.478	2.0
112.493	2.0
112.508	1.0
112.523	1.0
112.538	4.0
112.553	1.0
112.567	2.0
112.582	0.0
112.597	5.0
112.612	4.0
112.627	3.0
112.642	5.0
112.656	5.0
112.671	4.0
112.686	5.0
112.701	2.0
112.716	4.0
112.73	0.0
112.745	5.0
112.76	3.0
112.775	3.0
112.79	2.0
112.805	1.0
112.819	3.0
112.834	3.0
112.849	5.0
112.864	4.0
112.879	0.0
112.894	2.0
112.908	4.0
112.923	3.0
112.938	3.0
112.953	5.0
112.968	4.0
112.983	3.0
112.997	4.0
113.012	2.0
113.027	2.0
113.042	4.0
113.057	3.0
113.072	5.0
113.086	3.0
113.101	2.0
113.116	3.0
113.131	3.0
113.146	1.0
113.161	2.0
113.175	2.0
113.19	1.0
113.205	0.0
113.22	3.0
113.235	2.0
113.25	4.0
113.265	5.0
113.279	5.0
113.294	3.0
113.309	4.0
113.324	2.0
113.339	3.0
113.354	3.0
113.368	0.0
113.383	3.0
113.398	1.0
113.413	3.0
113.428	4.0
113.443	2.0
113.458	6.0
113.472	3.0
113.487	0.0
113.502	5.0
113.517	2.0
113.532	4.0
113.547	4.0
113.562	2.0
113.576	2.0
113.591	0.0
113.606	5.0
113.621	5.0
113.636	2.0
113.651	3.0
113.666	1.0
113.681	1.0
113.695	2.0
113.71	3.0
113.725	5.0
113.74	4.0
113.755	1.0
113.77	3.0
113.785	3.0
113.8	2.0
113.814	6.0
113.829	2.0
113.844	2.0
113.859	4.0
113.874	4.0
113.889	2.0
113.904	4.0
113.919	2.0
113.934	1.0
113.949	3.0
113.963	6.0
113.978	3.0
113.993	9.0
114.008	3.0
114.023	3.0
114.038	2.0
114.053	3.0
114.068	5.0
114.083	1.0
114.098	0.0
114.113	1.0
114.127	3.0
114.142	4.0
114.157	2.0
114.172	2.0
114.187	4.0
114.202	2.0
114.217	3.0
114.232	3.0
114.247	3.0
114.262	5.0
114.277	5.0
114.292	4.0
114.307	4.0
114.322	0.0
114.337	5.0
114.351	5.0
114.366	5.0
114.381	2.0
114.396	5.0
114.411	2.0
114.426	4.0
114.441	3.0
114.456	2.0
114.471	3.0
114.486	5.0
114.501	2.0
114.516	6.0
114.531	2.0
114.546	2.0
114.561	4.0
114.576	4.0
114.591	5.0
114.606	3.0
114.621	2.0
114.636	4.0
114.65	5.0
114.665	2.0
114.68	5.0
114.695	5.0
114.71	4.0
114.725	6.0
114.74	1.0
114.755	5.0
114.77	3.0
114.785	5.0
114.8	1.0
114.815	3.0
114.83	3.0
114.845	3.0
114.86	5.0
114.875	1.0
114.89	3.0
114.905	3.0
114.92	4.0
114.935	2.0
114.95	3.0
114.965	2.0
114.98	2.0
114.995	0.0
115.009	2.0
115.024	1.0
115.039	5.0
115.054	5.0
115.069	2.0
115.084	4.0
115.099	4.0
115.114	1.0
115.129	1.0
115.144	2.0
115.159	3.0
115.174	2.0
115.189	4.0
115.204	4.0
115.219	6.0
115.234	4.0
115.249	4.0
115.264	4.0
115.279	3.0
115.294	9.0
115.309	3.0
115.323	6.0
115.338	2.0
115.353	0.0
115.368	11.0
115.383	3.0
115.398	5.0
115.413	5.0
115.428	0.0
115.443	3.0
115.458	2.0
115.473	4.0
115.488	0.0
115.503	5.0
115.518	2.0
115.533	3.0
115.548	4.0
115.562	3.0
115.577	5.0
115.592	2.0
115.607	2.0
115.622	5.0
115.637	2.0
115.652	4.0
115.667	2.0
115.682	4.0
115.697	6.0
115.712	2.0
115.727	4.0
115.741	5.0
115.756	6.0
115.771	5.0
115.786	4.0
115.801	4.0
115.816	4.0
115.831	6.0
115.846	2.0
115.861	4.0
115.875	2.0
115.89	4.0
115.905	5.0
115.92	6.0
115.935	3.0
115.95	2.0
115.965	3.0
115.98	2.0
115.995	2.0
116.009	1.0
116.024	4.0
116.039	4.0
116.054	6.0
116.069	4.0
116.084	2.0
116.099	2.0
116.113	4.0
116.128	5.0
116.143	0.0
116.158	1.0
116.173	1.0
116.188	7.0
116.202	4.0
116.217	2.0
116.232	2.0
116.247	4.0
116.262	1.0
116.277	7.0
116.291	3.0
116.306	4.0
116.321	4.0
116.336	5.0
116.351	3.0
116.366	6.0
116.38	2.0
116.395	4.0
116.41	3.0
116.425	3.0
116.44	2.0
116.454	7.0
116.469	2.0
116.484	3.0
116.499	2.0
116.514	5.0
116.528	1.0
116.543	2.0
116.558	3.0
116.573	1.0
116.588	2.0
116.602	3.0
116.617	2.0
116.632	7.0
116.647	4.0
116.662	4.0
116.676	2.0
116.691	4.0
116.706	6.0
116.721	7.0
116.735	7.0
116.75	4.0
116.765	4.0
116.78	2.0
116.795	3.0
116.809	1.0
116.824	2.0
116.839	5.0
116.854	5.0
116.868	5.0
116.883	6.0
116.898	3.0
116.913	3.0
116.927	1.0
116.942	4.0
116.957	5.0
116.972	6.0
116.986	2.0
117.001	2.0
117.016	3.0
117.031	3.0
117.045	2.0
117.06	1.0
117.075	3.0
117.09	3.0
117.104	1.0
117.119	6.0
117.134	4.0
117.149	5.0
117.163	3.0
117.178	6.0
117.193	2.0
117.208	5.0
117.222	2.0
117.237	4.0
117.252	4.0
117.267	4.0
117.281	4.0
117.296	2.0
117.311	8.0
117.325	2.0
117.34	4.0
117.355	3.0
117.37	3.0
117.384	5.0
117.399	8.0
117.414	6.0
117.429	5.0
117.443	3.0
117.458	2.0
117.473	4.0
117.487	3.0
117.502	5.0
117.517	3.0
117.532	3.0
117.546	2.0
117.561	1.0
117.576	1.0
117.59	3.0
117.605	1.0
117.62	4.0
117.635	3.0
117.649	1.0
117.664	3.0
117.679	2.0
117.693	3.0
117.708	4.0
117.723	2.0
117.738	4.0
117.752	3.0
117.767	3.0
117.782	2.0
117.796	6.0
117.811	2.0
117.826	7.0
117.841	3.0
117.855	3.0
117.87	2.0
117.885	2.0
117.899	3.0
117.914	4.0
117.929	2.0
117.944	1.0
117.958	5.0
117.973	4.0
117.988	6.0
118.002	4.0
118.017	2.0
118.032	2.0
118.047	1.0
118.062	6.0
118.077	3.0
118.092	7.0
118.107	5.0
118.121	3.0
118.136	1.0
118.151	2.0
118.166	2.0
118.181	3.0
118.196	4.0
118.211	3.0
118.225	5.0
118.24	5.0
118.255	0.0
118.27	2.0
118.285	7.0
118.3	4.0
118.315	3.0
118.33	3.0
118.344	4.0
118.359	2.0
118.374	3.0
118.389	1.0
118.404	1.0
118.419	2.0
118.434	4.0
118.449	1.0
118.463	2.0
118.478	5.0
118.493	4.0
118.508	2.0
118.523	4.0
118.538	3.0
118.553	6.0
118.567	4.0
118.582	3.0
118.597	2.0
118.612	3.0
118.627	3.0
118.642	4.0
118.657	5.0
118.672	3.0
118.686	6.0
118.701	6.0
118.716	2.0
118.731	3.0
118.746	6.0
118.761	4.0
118.776	4.0
118.791	1.0
118.805	2.0
118.82	2.0
118.835	3.0
118.85	4.0
118.865	3.0
118.88	2.0
118.895	2.0
118.909	5.0
118.924	2.0
118.939	5.0
118.954	4.0
118.969	6.0
118.984	5.0
118.999	4.0
119.014	3.0
119.028	3.0
119.043	5.0
119.058	3.0
119.073	3.0
119.088	3.0
119.103	4.0
119.118	4.0
119.133	2.0
119.147	5.0
119.162	0.0
119.177	4.0
119.192	4.0
119.207	3.0
119.222	3.0
119.237	5.0
119.251	3.0
119.266	4.0
119.281	3.0
119.296	3.0
119.311	3.0
119.326	3.0
119.341	2.0
119.356	5.0
119.37	3.0
119.385	3.0
119.4	4.0
119.415	2.0
119.43	3.0
119.445	5.0
119.46	2.0
119.475	3.0
119.489	1.0
119.504	5.0
119.519	3.0
119.534	3.0
119.549	4.0
119.564	3.0
119.579	2.0
119.593	4.0
119.608	1.0
119.623	2.0
119.638	3.0
119.653	4.0
119.668	3.0
119.683	0.0
119.698	2.0
119.712	2.0
119.727	3.0
119.742	0.0
119.757	2.0
119.772	4.0
119.787	3.0
119.802	4.0
119.817	3.0
119.831	1.0
119.846	4.0
119.861	2.0
119.876	2.0
119.891	5.0
119.906	0.0
119.921	5.0
119.935	3.0
119.95	6.0
119.965	3.0
119.98	6.0
119.995	1.0
120.01	0.0
120.025	1.0
120.04	0.0
120.054	3.0
120.069	2.0
120.084	2.0
120.099	2.0
120.114	1.0
120.129	0.0
120.144	0.0
120.159	1.0
120.173	1.0
120.188	4.0
120.203	0.0
120.218	1.0
120.233	1.0
120.248	0.0
120.263	1.0
120.277	1.0
120.292	0.0
120.307	0.0
120.322	0.0
120.337	0.0
120.352	1.0
120.367	0.0
120.382	0.0
120.396	0.0
120.411	0.0
120.426	1.0
120.441	0.0
120.456	0.0
120.471	0.0
120.486	0.0
120.501	0.0
120.515	0.0
120.53	0.0
120.545	0.0
120.56	0.0
120.575	0.0
120.59	0.0
120.605	0.0
120.619	0.0
120.634	0.0
120.649	0.0
120.664	0.0
120.679	0.0
120.694	0.0
120.709	0.0
120.724	0.0
120.738	0.0
120.753	0.0
120.768	0.0
120.783	0.0
120.798	0.0
120.813	0.0
120.828	0.0
120.843	0.0
120.857	0.0
120.872	0.0
120.887	0.0
120.902	0.0
120.917	0.0
120.932	0.0
120.947	0.0
120.961	0.0
120.976	0.0
