-1.217	0.0
-1.202	0.0
-1.187	0.0
-1.172	0.0
-1.157	0.0
-1.142	0.0
-1.128	0.0
-1.113	0.0
-1.098	0.0
-1.083	0.0
-1.068	0.0
-1.054	0.0
-1.039	0.0
-1.024	0.0
-1.009	0.0
-0.994	0.0
-0.979	0.0
-0.965	0.0
-0.95	0.0
-0.935	0.0
-0.92	0.0
-0.905	0.0
-0.891	0.0
-0.876	0.0
-0.861	0.0
-0.846	0.0
-0.831	0.0
-0.816	0.0
-0.802	0.0
-0.787	0.0
-0.772	0.0
-0.757	1.0
-0.742	0.0
-0.728	0.0
-0.713	0.0
-0.698	0.0
-0.683	0.0
-0.668	0.0
-0.653	0.0
-0.639	0.0
-0.624	0.0
-0.609	0.0
-0.594	0.0
-0.579	0.0
-0.565	0.0
-0.55	0.0
-0.535	0.0
-0.52	0.0
-0.505	0.0
-0.49	0.0
-0.476	0.0
-0.461	0.0
-0.446	0.0
-0.431	0.0
-0.416	0.0
-0.401	0.0
-0.387	0.0
-0.372	0.0
-0.357	0.0
-0.342	0.0
-0.327	0.0
-0.313	0.0
-0.298	0.0
-0.283	0.0
-0.268	0.0
-0.253	0.0
-0.238	0.0
-0.224	0.0
-0.209	0.0
-0.194	0.0
-0.179	0.0
-0.164	0.0
-0.15	0.0
-0.135	0.0
-0.12	0.0
-0.105	0.0
-0.09	0.0
-0.075	0.0
-0.061	0.0
-0.046	0.0
-0.031	0.0
-0.016	0.0
-0.001	0.0
0.013	0.0
0.028	0.0
0.043	0.0
0.058	0.0
0.073	0.0
0.088	0.0
0.102	0.0
0.117	0.0
0.132	0.0
0.147	0.0
0.162	0.0
0.176	0.0
0.191	0.0
0.206	0.0
0.221	0.0
0.236	0.0
0.251	0.0
0.265	1.0
0.28	0.0
0.295	0.0
0.31	0.0
0.325	0.0
0.339	0.0
0.354	0.0
0.369	0.0
0.384	0.0
0.399	0.0
0.414	0.0
0.428	0.0
0.443	0.0
0.458	0.0
0.473	0.0
0.488	0.0
0.502	0.0
0.517	0.0
0.532	0.0
0.547	0.0
0.562	0.0
0.577	0.0
0.591	0.0
0.606	0.0
0.621	0.0
0.636	0.0
0.651	0.0
0.665	0.0
0.68	0.0
0.695	0.0
0.71	0.0
0.725	0.0
0.74	0.0
0.754	0.0
0.769	0.0
0.784	0.0
0.799	0.0
0.814	0.0
0.828	0.0
0.843	0.0
0.858	1.0
0.873	0.0
0.888	0.0
0.903	0.0
0.917	1.0
0.932	0.0
0.947	0.0
0.962	0.0
0.977	0.0
0.991	0.0
1.006	0.0
1.021	0.0
1.036	0.0
1.051	0.0
1.065	0.0
1.08	0.0
1.095	1.0
1.11	0.0
1.125	0.0
1.14	0.0
1.154	0.0
1.169	0.0
1.184	0.0
1.199	0.0
1.214	0.0
1.228	0.0
1.243	0.0
1.258	0.0
1.273	0.0
1.288	0.0
1.302	0.0
1.317	1.0
1.332	0.0
1.347	0.0
1.362	0.0
1.376	0.0
1.391	0.0
1.406	0.0
1.421	0.0
1.436	0.0
1.45	0.0
1.465	0.0
1.48	0.0
1.495	0.0
1.51	0.0
1.524	0.0
1.539	0.0
1.554	0.0
1.569	0.0
1.584	0.0
1.598	0.0
1.613	0.0
1.628	1.0
1.643	0.0
1.658	0.0
1.672	0.0
1.687	0.0
1.702	0.0
1.717	0.0
1.732	0.0
1.746	0.0
1.761	0.0
1.776	0.0
1.791	0.0
1.806	0.0
1.82	1.0
1.835	1.0
1.85	0.0
1.865	0.0
1.88	0.0
1.894	0.0
1.909	0.0
1.924	0.0
1.939	0.0
1.954	0.0
1.968	0.0
1.983	0.0
1.998	1.0
2.013	0.0
2.028	0.0
2.042	1.0
2.057	0.0
2.072	0.0
2.087	0.0
2.101	0.0
2.116	0.0
2.131	1.0
2.146	2.0
2.161	0.0
2.175	0.0
2.19	0.0
2.205	0.0
2.22	0.0
2.235	0.0
2.249	0.0
2.264	1.0
2.279	0.0
2.294	0.0
2.308	0.0
2.323	1.0
2.338	0.0
2.353	0.0
2.368	1.0
2.382	0.0
2.397	0.0
2.412	0.0
2.427	2.0
2.442	1.0
2.456	1.0
2.471	4.0
2.486	2.0
2.501	2.0
2.515	3.0
2.53	5.0
2.545	1.0
2.56	3.0
2.575	0.0
2.589	6.0
2.604	4.0
2.619	2.0
2.634	2.0
2.649	2.0
2.663	2.0
2.678	5.0
2.693	6.0
2.708	2.0
2.722	1.0
2.737	6.0
2.752	3.0
2.767	2.0
2.782	2.0
2.796	2.0
2.811	1.0
2.826	6.0
2.841	4.0
2.856	4.0
2.87	3.0
2.885	3.0
2.9	3.0
2.915	3.0
2.93	2.0
2.944	5.0
2.959	3.0
2.974	3.0
2.989	4.0
3.004	4.0
3.018	0.0
3.033	3.0
3.048	5.0
3.063	3.0
3.078	3.0
3.092	4.0
3.107	3.0
3.122	5.0
3.137	6.0
3.152	2.0
3.166	3.0
3.181	8.0
3.196	4.0
3.211	4.0
3.226	6.0
3.24	4.0
3.255	4.0
3.27	4.0
3.285	2.0
3.3	5.0
3.315	5.0
3.329	1.0
3.344	4.0
3.359	4.0
3.374	1.0
3.389	4.0
3.403	2.0
3.418	7.0
3.433	7.0
3.448	6.0
3.463	6.0
3.478	5.0
3.492	4.0
3.507	4.0
3.522	5.0
3.537	5.0
3.552	5.0
3.567	7.0
3.581	3.0
3.596	5.0
3.611	2.0
3.626	6.0
3.641	8.0
3.656	3.0
3.671	2.0
3.685	4.0
3.7	5.0
3.715	3.0
3.73	6.0
3.745	3.0
3.76	5.0
3.775	7.0
3.789	8.0
3.804	3.0
3.819	7.0
3.834	4.0
3.849	10.0
3.864	9.0
3.879	8.0
3.894	9.0
3.908	8.0
3.923	12.0
3.938	5.0
3.953	2.0
3.968	5.0
3.983	7.0
3.998	7.0
4.013	6.0
4.027	9.0
4.042	7.0
4.057	3.0
4.072	5.0
4.087	4.0
4.102	4.0
4.117	5.0
4.132	6.0
4.147	6.0
4.162	4.0
4.176	8.0
4.191	5.0
4.206	9.0
4.221	7.0
4.236	11.0
4.251	9.0
4.266	8.0
4.281	12.0
4.296	4.0
4.311	10.0
4.326	5.0
4.341	15.0
4.356	7.0
4.37	11.0
4.385	9.0
4.4	8.0
4.415	6.0
4.43	7.0
4.445	5.0
4.46	4.0
4.475	6.0
4.49	6.0
4.505	4.0
4.52	3.0
4.535	3.0
4.55	6.0
4.565	7.0
4.58	6.0
4.595	8.0
4.61	13.0
4.625	5.0
4.639	7.0
4.654	7.0
4.669	11.0
4.684	5.0
4.699	8.0
4.714	3.0
4.729	8.0
4.744	5.0
4.759	8.0
4.774	6.0
4.789	4.0
4.804	4.0
4.819	5.0
4.834	8.0
4.849	8.0
4.864	8.0
4.879	7.0
4.894	14.0
4.909	10.0
4.924	5.0
4.939	7.0
4.954	6.0
4.969	8.0
4.984	11.0
4.999	5.0
5.014	5.0
5.029	5.0
5.044	6.0
5.059	10.0
5.074	8.0
5.089	5.0
5.104	11.0
5.119	13.0
5.134	7.0
5.149	11.0
5.164	8.0
5.179	8.0
5.194	7.0
5.209	8.0
5.224	11.0
5.239	9.0
5.254	12.0
5.269	4.0
5.284	12.0
5.299	4.0
5.314	7.0
5.329	9.0
5.344	6.0
5.359	6.0
5.374	10.0
5.389	11.0
5.404	11.0
5.419	5.0
5.434	5.0
5.449	13.0
5.464	10.0
5.479	5.0
5.494	9.0
5.509	12.0
5.524	11.0
5.539	8.0
5.554	8.0
5.569	12.0
5.584	9.0
5.599	9.0
5.614	9.0
5.629	10.0
5.644	10.0
5.659	10.0
5.674	10.0
5.689	12.0
5.704	4.0
5.719	11.0
5.734	10.0
5.749	9.0
5.764	6.0
5.779	8.0
5.794	8.0
5.809	6.0
5.824	8.0
5.839	11.0
5.854	9.0
5.869	13.0
5.884	7.0
5.899	11.0
5.914	13.0
5.929	9.0
5.944	7.0
5.959	10.0
5.974	4.0
5.989	8.0
6.004	8.0
6.019	13.0
6.034	7.0
6.049	11.0
6.064	3.0
6.079	8.0
6.094	12.0
6.109	6.0
6.124	6.0
6.139	7.0
6.154	12.0
6.169	9.0
6.184	9.0
6.199	8.0
6.214	16.0
6.229	10.0
6.244	5.0
6.259	13.0
6.274	8.0
6.289	7.0
6.304	13.0
6.319	7.0
6.334	4.0
6.349	8.0
6.364	11.0
6.379	13.0
6.394	10.0
6.409	12.0
6.424	6.0
6.439	8.0
6.454	7.0
6.469	12.0
6.484	12.0
6.499	13.0
6.514	8.0
6.529	4.0
6.544	10.0
6.559	10.0
6.574	10.0
6.589	10.0
6.604	15.0
6.619	7.0
6.634	9.0
6.649	5.0
6.664	8.0
6.679	6.0
6.694	8.0
6.709	16.0
6.724	11.0
6.739	6.0
6.754	10.0
6.769	9.0
6.784	11.0
6.799	11.0
6.814	4.0
6.829	14.0
6.844	13.0
6.859	7.0
6.873	11.0
6.888	14.0
6.903	6.0
6.918	12.0
6.933	8.0
6.948	10.0
6.963	9.0
6.978	10.0
6.993	12.0
7.008	9.0
7.023	12.0
7.038	8.0
7.053	12.0
7.068	14.0
7.083	7.0
7.098	6.0
7.113	16.0
7.128	9.0
7.143	9.0
7.157	8.0
7.172	8.0
7.187	8.0
7.202	4.0
7.217	8.0
7.232	6.0
7.247	6.0
7.262	6.0
7.277	10.0
7.292	9.0
7.307	14.0
7.322	15.0
7.336	8.0
7.351	6.0
7.366	5.0
7.381	10.0
7.396	6.0
7.411	6.0
7.426	11.0
7.441	9.0
7.456	8.0
7.471	12.0
7.485	12.0
7.5	7.0
7.515	11.0
7.53	13.0
7.545	10.0
7.56	7.0
7.575	11.0
7.59	7.0
7.604	7.0
7.619	9.0
7.634	9.0
7.649	12.0
7.664	4.0
7.679	4.0
7.693	3.0
7.708	12.0
7.723	14.0
7.738	9.0
7.753	13.0
7.768	11.0
7.783	5.0
7.797	12.0
7.812	7.0
7.827	13.0
7.842	12.0
7.857	9.0
7.871	10.0
7.886	9.0
7.901	10.0
7.916	8.0
7.931	12.0
7.945	8.0
7.96	6.0
7.975	8.0
7.99	9.0
8.005	12.0
8.019	10.0
8.034	7.0
8.049	8.0
8.064	10.0
8.078	7.0
8.093	7.0
8.108	7.0
8.123	13.0
8.137	11.0
8.152	8.0
8.167	6.0
8.182	4.0
8.196	7.0
8.211	3.0
8.226	7.0
8.241	9.0
8.255	10.0
8.27	5.0
8.285	8.0
8.3	10.0
8.314	19.0
8.329	4.0
8.344	16.0
8.358	9.0
8.373	11.0
8.388	6.0
8.403	14.0
8.417	11.0
8.432	12.0
8.447	4.0
8.461	7.0
8.476	16.0
8.491	5.0
8.505	18.0
8.52	6.0
8.535	9.0
8.55	6.0
8.564	7.0
8.579	6.0
8.594	8.0
8.608	6.0
8.623	6.0
8.638	4.0
8.652	13.0
8.667	10.0
8.682	16.0
8.696	8.0
8.711	17.0
8.726	11.0
8.74	7.0
8.755	7.0
8.77	12.0
8.784	11.0
8.799	7.0
8.814	4.0
8.828	9.0
8.843	7.0
8.858	7.0
8.872	8.0
8.887	7.0
8.902	7.0
8.916	7.0
8.931	12.0
8.946	7.0
8.96	11.0
8.975	12.0
8.99	8.0
9.004	11.0
9.019	3.0
9.034	6.0
9.048	8.0
9.063	10.0
9.077	9.0
9.092	6.0
9.107	8.0
9.121	9.0
9.136	9.0
9.151	10.0
9.165	9.0
9.18	5.0
9.195	4.0
9.209	7.0
9.224	10.0
9.239	9.0
9.253	4.0
9.268	7.0
9.283	8.0
9.297	10.0
9.312	6.0
9.327	8.0
9.341	5.0
9.356	3.0
9.371	6.0
9.385	4.0
9.4	11.0
9.415	8.0
9.429	11.0
9.444	17.0
9.458	4.0
9.473	7.0
9.488	9.0
9.502	2.0
9.517	12.0
9.532	10.0
9.546	13.0
9.561	9.0
9.576	8.0
9.59	5.0
9.605	10.0
9.62	8.0
9.635	13.0
9.649	10.0
9.664	7.0
9.679	8.0
9.693	7.0
9.708	6.0
9.723	13.0
9.737	12.0
9.752	5.0
9.767	8.0
9.781	11.0
9.796	8.0
9.811	11.0
9.825	12.0
9.84	9.0
9.855	2.0
9.87	6.0
9.884	9.0
9.899	12.0
9.914	9.0
9.928	6.0
9.943	11.0
9.958	10.0
9.973	5.0
9.987	6.0
10.002	12.0
10.017	8.0
10.031	4.0
10.046	6.0
10.061	8.0
10.076	7.0
10.09	14.0
10.105	10.0
10.12	10.0
10.135	5.0
10.149	6.0
10.164	7.0
10.179	7.0
10.194	9.0
10.208	5.0
10.223	7.0
10.238	5.0
10.253	14.0
10.267	6.0
10.282	7.0
10.297	8.0
10.312	3.0
10.326	8.0
10.341	10.0
10.356	9.0
10.371	5.0
10.386	9.0
10.4	5.0
10.415	13.0
10.43	12.0
10.445	8.0
10.46	12.0
10.474	18.0
10.489	9.0
10.504	11.0
10.519	5.0
10.533	7.0
10.548	7.0
10.563	7.0
10.578	5.0
10.593	9.0
10.608	7.0
10.622	14.0
10.637	5.0
10.652	5.0
10.667	7.0
10.682	11.0
10.696	13.0
10.711	4.0
10.726	5.0
10.741	7.0
10.756	7.0
10.771	10.0
10.785	9.0
10.8	13.0
10.815	9.0
10.83	7.0
10.845	9.0
10.86	10.0
10.874	8.0
10.889	5.0
10.904	13.0
10.919	4.0
10.934	9.0
10.949	8.0
10.963	8.0
10.978	6.0
10.993	15.0
11.008	8.0
11.023	8.0
11.038	8.0
11.053	9.0
11.067	6.0
11.082	9.0
11.097	5.0
11.112	11.0
11.127	12.0
11.142	7.0
11.157	7.0
11.172	8.0
11.186	4.0
11.201	7.0
11.216	4.0
11.231	10.0
11.246	6.0
11.261	7.0
11.276	10.0
11.291	9.0
11.305	9.0
11.32	3.0
11.335	10.0
11.35	6.0
11.365	10.0
11.38	7.0
11.395	5.0
11.41	5.0
11.424	6.0
11.439	5.0
11.454	8.0
11.469	7.0
11.484	8.0
11.499	6.0
11.514	7.0
11.529	12.0
11.544	11.0
11.558	7.0
11.573	4.0
11.588	7.0
11.603	7.0
11.618	2.0
11.633	8.0
11.648	9.0
11.663	10.0
11.678	11.0
11.693	10.0
11.707	3.0
11.722	4.0
11.737	14.0
11.752	6.0
11.767	9.0
11.782	8.0
11.797	4.0
11.812	11.0
11.827	10.0
11.842	8.0
11.856	9.0
11.871	13.0
11.886	8.0
11.901	10.0
11.916	7.0
11.931	11.0
11.946	10.0
11.961	3.0
11.976	7.0
11.991	12.0
12.006	8.0
12.02	8.0
12.035	6.0
12.05	9.0
12.065	12.0
12.08	8.0
12.095	11.0
12.11	12.0
12.125	7.0
12.14	10.0
12.155	10.0
12.17	8.0
12.184	10.0
12.199	11.0
12.214	13.0
12.229	9.0
12.244	12.0
12.259	7.0
12.274	10.0
12.289	14.0
12.304	9.0
12.319	13.0
12.334	9.0
12.348	13.0
12.363	9.0
12.378	10.0
12.393	14.0
12.408	12.0
12.423	10.0
12.438	15.0
12.453	14.0
12.468	11.0
12.483	14.0
12.498	12.0
12.513	14.0
12.527	9.0
12.542	19.0
12.557	9.0
12.572	13.0
12.587	17.0
12.602	4.0
12.617	8.0
12.632	13.0
12.647	10.0
12.662	16.0
12.677	10.0
12.692	14.0
12.707	12.0
12.721	11.0
12.736	16.0
12.751	12.0
12.766	17.0
12.781	11.0
12.796	8.0
12.811	17.0
12.826	19.0
12.841	12.0
12.856	20.0
12.871	15.0
12.886	10.0
12.9	19.0
12.915	16.0
12.93	11.0
12.945	17.0
12.96	18.0
12.975	20.0
12.99	16.0
13.005	11.0
13.02	17.0
13.035	30.0
13.05	11.0
13.065	15.0
13.08	21.0
13.094	19.0
13.109	9.0
13.124	11.0
13.139	17.0
13.154	22.0
13.169	15.0
13.184	19.0
13.199	8.0
13.214	23.0
13.229	17.0
13.244	22.0
13.259	18.0
13.274	25.0
13.288	19.0
13.303	23.0
13.318	26.0
13.333	23.0
13.348	23.0
13.363	23.0
13.378	27.0
13.393	23.0
13.408	24.0
13.423	33.0
13.438	38.0
13.453	30.0
13.468	41.0
13.482	48.0
13.497	35.0
13.512	31.0
13.527	40.0
13.542	36.0
13.557	43.0
13.572	53.0
13.587	54.0
13.602	66.0
13.617	70.0
13.632	73.0
13.647	69.0
13.662	80.0
13.677	107.0
13.691	76.0
13.706	103.0
13.721	95.0
13.736	87.0
13.751	110.0
13.766	96.0
13.781	120.0
13.796	134.0
13.811	145.0
13.826	125.0
13.841	139.0
13.856	138.0
13.871	123.0
13.885	119.0
13.9	101.0
13.915	68.0
13.93	54.0
13.945	55.0
13.96	53.0
13.975	52.0
13.99	31.0
14.005	39.0
14.02	44.0
14.035	29.0
14.05	21.0
14.065	22.0
14.08	24.0
14.094	23.0
14.109	19.0
14.124	22.0
14.139	18.0
14.154	13.0
14.169	24.0
14.184	20.0
14.199	24.0
14.214	26.0
14.229	19.0
14.244	28.0
14.259	20.0
14.274	22.0
14.288	27.0
14.303	13.0
14.318	22.0
14.333	26.0
14.348	22.0
14.363	22.0
14.378	16.0
14.393	16.0
14.408	23.0
14.423	19.0
14.438	13.0
14.453	8.0
14.468	16.0
14.482	23.0
14.497	17.0
14.512	27.0
14.527	20.0
14.542	18.0
14.557	23.0
14.572	22.0
14.587	21.0
14.602	23.0
14.617	23.0
14.632	16.0
14.647	14.0
14.661	14.0
14.676	10.0
14.691	17.0
14.706	19.0
14.721	11.0
14.736	14.0
14.751	12.0
14.766	15.0
14.781	18.0
14.796	21.0
14.811	17.0
14.826	21.0
14.84	22.0
14.855	16.0
14.87	15.0
14.885	16.0
14.9	10.0
14.915	19.0
14.93	21.0
14.945	13.0
14.96	11.0
14.975	16.0
14.989	8.0
15.004	9.0
15.019	15.0
15.034	15.0
15.049	8.0
15.064	13.0
15.079	14.0
15.094	22.0
15.109	21.0
15.124	12.0
15.138	12.0
15.153	18.0
15.168	13.0
15.183	22.0
15.198	12.0
15.213	13.0
15.228	9.0
15.243	11.0
15.258	22.0
15.272	16.0
15.287	16.0
15.302	15.0
15.317	14.0
15.332	21.0
15.347	16.0
15.362	8.0
15.377	17.0
15.391	17.0
15.406	7.0
15.421	7.0
15.436	20.0
15.451	15.0
15.466	8.0
15.481	12.0
15.496	14.0
15.51	15.0
15.525	14.0
15.54	12.0
15.555	17.0
15.57	17.0
15.585	6.0
15.6	7.0
15.614	13.0
15.629	15.0
15.644	12.0
15.659	13.0
15.674	13.0
15.689	12.0
15.704	21.0
15.718	14.0
15.733	16.0
15.748	11.0
15.763	9.0
15.778	15.0
15.793	16.0
15.808	8.0
15.822	13.0
15.837	6.0
15.852	10.0
15.867	14.0
15.882	19.0
15.897	9.0
15.911	16.0
15.926	20.0
15.941	12.0
15.956	13.0
15.971	11.0
15.986	13.0
16.0	16.0
16.015	13.0
16.03	16.0
16.045	13.0
16.06	15.0
16.074	15.0
16.089	12.0
16.104	13.0
16.119	12.0
16.134	10.0
16.149	18.0
16.163	20.0
16.178	16.0
16.193	19.0
16.208	12.0
16.223	16.0
16.237	12.0
16.252	11.0
16.267	18.0
16.282	15.0
16.297	16.0
16.311	17.0
16.326	17.0
16.341	20.0
16.356	13.0
16.37	12.0
16.385	13.0
16.4	16.0
16.415	16.0
16.43	13.0
16.444	13.0
16.459	14.0
16.474	25.0
16.489	15.0
16.504	16.0
16.518	26.0
16.533	10.0
16.548	24.0
16.563	15.0
16.577	17.0
16.592	25.0
16.607	23.0
16.622	17.0
16.637	11.0
16.651	22.0
16.666	16.0
16.681	22.0
16.696	24.0
16.71	39.0
16.725	28.0
16.74	19.0
16.755	28.0
16.77	33.0
16.784	31.0
16.799	33.0
16.814	38.0
16.829	38.0
16.843	44.0
16.858	53.0
16.873	45.0
16.888	63.0
16.902	81.0
16.917	68.0
16.932	78.0
16.947	75.0
16.961	68.0
16.976	77.0
16.991	79.0
17.006	64.0
17.021	85.0
17.035	39.0
17.05	55.0
17.065	49.0
17.08	44.0
17.094	43.0
17.109	30.0
17.124	24.0
17.139	23.0
17.153	20.0
17.168	18.0
17.183	24.0
17.198	16.0
17.212	14.0
17.227	18.0
17.242	23.0
17.257	12.0
17.271	14.0
17.286	10.0
17.301	11.0
17.316	19.0
17.33	16.0
17.345	18.0
17.36	8.0
17.375	25.0
17.39	20.0
17.404	19.0
17.419	17.0
17.434	16.0
17.449	11.0
17.463	8.0
17.478	12.0
17.493	15.0
17.508	17.0
17.522	12.0
17.537	19.0
17.552	18.0
17.567	11.0
17.581	13.0
17.596	15.0
17.611	18.0
17.626	19.0
17.641	11.0
17.655	12.0
17.67	13.0
17.685	10.0
17.7	10.0
17.714	10.0
17.729	10.0
17.744	13.0
17.759	10.0
17.773	12.0
17.788	16.0
17.803	6.0
17.818	11.0
17.833	14.0
17.847	11.0
17.862	13.0
17.877	8.0
17.892	16.0
17.906	9.0
17.921	10.0
17.936	21.0
17.951	12.0
17.966	15.0
17.98	10.0
17.995	11.0
18.01	10.0
18.025	14.0
18.04	13.0
18.054	12.0
18.069	13.0
18.084	16.0
18.099	11.0
18.114	15.0
18.128	15.0
18.143	11.0
18.158	9.0
18.173	10.0
18.188	9.0
18.202	14.0
18.217	13.0
18.232	7.0
18.247	17.0
18.262	14.0
18.276	7.0
18.291	12.0
18.306	10.0
18.321	15.0
18.336	12.0
18.35	13.0
18.365	9.0
18.38	14.0
18.395	10.0
18.41	11.0
18.424	13.0
18.439	18.0
18.454	14.0
18.469	12.0
18.484	9.0
18.498	7.0
18.513	9.0
18.528	12.0
18.543	20.0
18.558	22.0
18.573	10.0
18.587	8.0
18.602	7.0
18.617	15.0
18.632	21.0
18.647	6.0
18.661	14.0
18.676	10.0
18.691	13.0
18.706	9.0
18.721	16.0
18.736	14.0
18.75	14.0
18.765	14.0
18.78	10.0
18.795	10.0
18.81	4.0
18.825	5.0
18.839	8.0
18.854	13.0
18.869	13.0
18.884	11.0
18.899	13.0
18.913	11.0
18.928	15.0
18.943	14.0
18.958	8.0
18.973	13.0
18.988	21.0
19.002	6.0
19.017	12.0
19.032	14.0
19.047	12.0
19.062	15.0
19.077	5.0
19.091	13.0
19.106	6.0
19.121	14.0
19.136	11.0
19.151	10.0
19.165	11.0
19.18	4.0
19.195	10.0
19.21	14.0
19.225	13.0
19.24	18.0
19.254	16.0
19.269	15.0
19.284	18.0
19.299	18.0
19.314	9.0
19.329	15.0
19.343	16.0
19.358	24.0
19.373	18.0
19.388	12.0
19.403	19.0
19.417	29.0
19.432	15.0
19.447	29.0
19.462	17.0
19.477	28.0
19.492	29.0
19.506	29.0
19.521	29.0
19.536	32.0
19.551	45.0
19.566	42.0
19.58	42.0
19.595	42.0
19.61	42.0
19.625	35.0
19.64	38.0
19.655	38.0
19.669	34.0
19.684	30.0
19.699	30.0
19.714	22.0
19.729	30.0
19.743	27.0
19.758	35.0
19.773	23.0
19.788	18.0
19.803	12.0
19.817	20.0
19.832	15.0
19.847	20.0
19.862	18.0
19.877	20.0
19.891	12.0
19.906	17.0
19.921	21.0
19.936	12.0
19.951	8.0
19.965	19.0
19.98	12.0
19.995	10.0
20.01	11.0
20.025	12.0
20.039	10.0
20.054	8.0
20.069	8.0
20.084	6.0
20.099	7.0
20.113	12.0
20.128	6.0
20.143	12.0
20.158	9.0
20.173	4.0
20.187	12.0
20.202	12.0
20.217	10.0
20.232	6.0
20.246	11.0
20.261	8.0
20.276	15.0
20.291	9.0
20.306	17.0
20.32	7.0
20.335	8.0
20.35	5.0
20.365	11.0
20.38	17.0
20.394	12.0
20.409	7.0
20.424	5.0
20.439	8.0
20.453	18.0
20.468	8.0
20.483	6.0
20.498	15.0
20.513	13.0
20.527	13.0
20.542	10.0
20.557	9.0
20.572	5.0
20.586	10.0
20.601	11.0
20.616	12.0
20.631	14.0
20.646	9.0
20.66	15.0
20.675	13.0
20.69	10.0
20.705	11.0
20.719	9.0
20.734	8.0
20.749	6.0
20.764	11.0
20.779	12.0
20.793	19.0
20.808	9.0
20.823	11.0
20.838	12.0
20.853	14.0
20.867	14.0
20.882	9.0
20.897	14.0
20.912	10.0
20.926	10.0
20.941	15.0
20.956	9.0
20.971	9.0
20.986	9.0
21.0	12.0
21.015	11.0
21.03	9.0
21.045	9.0
21.06	12.0
21.074	6.0
21.089	12.0
21.104	8.0
21.119	12.0
21.134	5.0
21.148	16.0
21.163	15.0
21.178	16.0
21.193	12.0
21.208	11.0
21.222	9.0
21.237	18.0
21.252	13.0
21.267	14.0
21.282	11.0
21.296	6.0
21.311	11.0
21.326	8.0
21.341	13.0
21.356	8.0
21.37	13.0
21.385	11.0
21.4	12.0
21.415	20.0
21.43	8.0
21.444	14.0
21.459	10.0
21.474	11.0
21.489	11.0
21.504	12.0
21.519	10.0
21.533	16.0
21.548	7.0
21.563	11.0
21.578	13.0
21.593	17.0
21.608	16.0
21.622	18.0
21.637	11.0
21.652	21.0
21.667	16.0
21.682	21.0
21.697	17.0
21.712	29.0
21.726	18.0
21.741	26.0
21.756	36.0
21.771	28.0
21.786	38.0
21.801	36.0
21.816	46.0
21.83	39.0
21.845	41.0
21.86	48.0
21.875	64.0
21.89	63.0
21.905	81.0
21.92	87.0
21.935	87.0
21.949	80.0
21.964	64.0
21.979	74.0
21.994	73.0
22.009	68.0
22.024	63.0
22.039	69.0
22.054	33.0
22.069	44.0
22.083	55.0
22.098	36.0
22.113	32.0
22.128	36.0
22.143	22.0
22.158	20.0
22.173	21.0
22.188	19.0
22.203	28.0
22.218	21.0
22.233	14.0
22.248	10.0
22.262	17.0
22.277	9.0
22.292	16.0
22.307	14.0
22.322	15.0
22.337	15.0
22.352	10.0
22.367	15.0
22.382	15.0
22.397	12.0
22.412	10.0
22.427	12.0
22.442	13.0
22.457	15.0
22.472	14.0
22.487	10.0
22.502	10.0
22.516	8.0
22.531	15.0
22.546	10.0
22.561	13.0
22.576	13.0
22.591	11.0
22.606	11.0
22.621	6.0
22.636	12.0
22.651	5.0
22.666	14.0
22.681	16.0
22.696	9.0
22.711	12.0
22.726	9.0
22.741	13.0
22.756	12.0
22.771	10.0
22.786	12.0
22.801	7.0
22.816	10.0
22.831	11.0
22.846	3.0
22.861	13.0
22.876	11.0
22.891	9.0
22.906	15.0
22.92	10.0
22.935	15.0
22.95	11.0
22.965	11.0
22.98	13.0
22.995	17.0
23.01	10.0
23.025	10.0
23.04	15.0
23.055	17.0
23.07	10.0
23.085	8.0
23.1	8.0
23.115	11.0
23.13	4.0
23.145	9.0
23.16	9.0
23.175	8.0
23.19	6.0
23.205	11.0
23.22	8.0
23.235	6.0
23.25	14.0
23.265	11.0
23.28	15.0
23.295	14.0
23.31	13.0
23.325	11.0
23.34	16.0
23.355	8.0
23.37	6.0
23.384	13.0
23.399	7.0
23.414	13.0
23.429	13.0
23.444	7.0
23.459	12.0
23.474	7.0
23.489	15.0
23.504	7.0
23.519	13.0
23.534	9.0
23.549	14.0
23.564	14.0
23.579	8.0
23.594	12.0
23.609	12.0
23.624	7.0
23.639	8.0
23.654	9.0
23.668	7.0
23.683	13.0
23.698	12.0
23.713	6.0
23.728	11.0
23.743	14.0
23.758	9.0
23.773	10.0
23.788	5.0
23.803	14.0
23.818	11.0
23.833	7.0
23.848	9.0
23.862	14.0
23.877	13.0
23.892	12.0
23.907	24.0
23.922	25.0
23.937	20.0
23.952	27.0
23.967	21.0
23.982	40.0
23.997	22.0
24.011	44.0
24.026	40.0
24.041	55.0
24.056	46.0
24.071	42.0
24.086	61.0
24.101	56.0
24.116	47.0
24.131	45.0
24.145	37.0
24.16	36.0
24.175	45.0
24.19	32.0
24.205	38.0
24.22	35.0
24.235	29.0
24.249	33.0
24.264	25.0
24.279	14.0
24.294	22.0
24.309	17.0
24.324	15.0
24.338	13.0
24.353	16.0
24.368	14.0
24.383	17.0
24.398	10.0
24.413	11.0
24.428	13.0
24.442	8.0
24.457	9.0
24.472	10.0
24.487	14.0
24.502	17.0
24.516	15.0
24.531	11.0
24.546	12.0
24.561	14.0
24.576	15.0
24.591	11.0
24.605	15.0
24.62	14.0
24.635	13.0
24.65	8.0
24.665	9.0
24.679	12.0
24.694	11.0
24.709	10.0
24.724	13.0
24.739	17.0
24.753	12.0
24.768	13.0
24.783	10.0
24.798	12.0
24.813	12.0
24.827	11.0
24.842	13.0
24.857	11.0
24.872	13.0
24.886	10.0
24.901	9.0
24.916	11.0
24.931	14.0
24.946	12.0
24.96	9.0
24.975	7.0
24.99	8.0
25.005	13.0
25.019	7.0
25.034	15.0
25.049	5.0
25.064	8.0
25.078	17.0
25.093	8.0
25.108	8.0
25.123	8.0
25.138	5.0
25.152	6.0
25.167	8.0
25.182	10.0
25.197	8.0
25.211	8.0
25.226	11.0
25.241	16.0
25.256	16.0
25.27	12.0
25.285	14.0
25.3	5.0
25.315	7.0
25.329	4.0
25.344	12.0
25.359	7.0
25.374	9.0
25.388	11.0
25.403	11.0
25.418	18.0
25.433	12.0
25.447	10.0
25.462	4.0
25.477	11.0
25.492	15.0
25.506	9.0
25.521	11.0
25.536	14.0
25.55	14.0
25.565	11.0
25.58	10.0
25.595	6.0
25.609	6.0
25.624	11.0
25.639	4.0
25.654	9.0
25.668	12.0
25.683	11.0
25.698	12.0
25.713	9.0
25.727	8.0
25.742	11.0
25.757	10.0
25.772	5.0
25.786	7.0
25.801	7.0
25.816	5.0
25.83	10.0
25.845	16.0
25.86	8.0
25.875	7.0
25.889	10.0
25.904	4.0
25.919	14.0
25.934	7.0
25.948	8.0
25.963	15.0
25.978	11.0
25.992	12.0
26.007	5.0
26.022	8.0
26.037	7.0
26.051	10.0
26.066	8.0
26.081	10.0
26.096	7.0
26.11	12.0
26.125	7.0
26.14	9.0
26.155	8.0
26.169	11.0
26.184	12.0
26.199	17.0
26.213	14.0
26.228	9.0
26.243	10.0
26.258	8.0
26.272	8.0
26.287	9.0
26.302	14.0
26.317	9.0
26.331	11.0
26.346	12.0
26.361	8.0
26.376	14.0
26.39	9.0
26.405	9.0
26.42	3.0
26.434	5.0
26.449	9.0
26.464	11.0
26.479	9.0
26.493	10.0
26.508	6.0
26.523	9.0
26.538	12.0
26.552	7.0
26.567	10.0
26.582	10.0
26.597	6.0
26.611	10.0
26.626	10.0
26.641	8.0
26.656	10.0
26.67	8.0
26.685	13.0
26.7	9.0
26.715	12.0
26.729	8.0
26.744	9.0
26.759	15.0
26.773	12.0
26.788	6.0
26.803	5.0
26.818	6.0
26.832	10.0
26.847	13.0
26.862	4.0
26.877	3.0
26.891	13.0
26.906	11.0
26.921	8.0
26.936	14.0
26.95	12.0
26.965	7.0
26.98	12.0
26.995	12.0
27.01	7.0
27.024	6.0
27.039	9.0
27.054	10.0
27.069	14.0
27.083	10.0
27.098	15.0
27.113	5.0
27.128	9.0
27.142	8.0
27.157	5.0
27.172	15.0
27.187	14.0
27.201	12.0
27.216	11.0
27.231	11.0
27.246	9.0
27.261	11.0
27.275	15.0
27.29	10.0
27.305	7.0
27.32	9.0
27.334	8.0
27.349	7.0
27.364	12.0
27.379	6.0
27.394	6.0
27.408	7.0
27.423	6.0
27.438	10.0
27.453	5.0
27.467	14.0
27.482	8.0
27.497	11.0
27.512	10.0
27.527	11.0
27.541	18.0
27.556	8.0
27.571	8.0
27.586	12.0
27.601	7.0
27.615	10.0
27.63	10.0
27.645	15.0
27.66	9.0
27.675	13.0
27.689	20.0
27.704	13.0
27.719	18.0
27.734	12.0
27.749	18.0
27.763	9.0
27.778	12.0
27.793	18.0
27.808	21.0
27.823	21.0
27.838	16.0
27.852	23.0
27.867	28.0
27.882	28.0
27.897	16.0
27.912	20.0
27.926	21.0
27.941	22.0
27.956	23.0
27.971	27.0
27.986	16.0
28.001	20.0
28.015	13.0
28.03	14.0
28.045	22.0
28.06	11.0
28.075	15.0
28.09	22.0
28.105	14.0
28.119	16.0
28.134	18.0
28.149	7.0
28.164	9.0
28.179	16.0
28.194	10.0
28.208	11.0
28.223	6.0
28.238	6.0
28.253	11.0
28.268	14.0
28.283	11.0
28.298	9.0
28.312	6.0
28.327	12.0
28.342	13.0
28.357	17.0
28.372	16.0
28.387	10.0
28.402	12.0
28.417	15.0
28.431	11.0
28.446	11.0
28.461	14.0
28.476	12.0
28.491	11.0
28.506	11.0
28.521	8.0
28.536	11.0
28.55	12.0
28.565	15.0
28.58	15.0
28.595	10.0
28.61	10.0
28.625	12.0
28.64	9.0
28.655	12.0
28.669	11.0
28.684	7.0
28.699	10.0
28.714	13.0
28.729	12.0
28.744	11.0
28.759	8.0
28.774	9.0
28.788	11.0
28.803	13.0
28.818	15.0
28.833	7.0
28.848	16.0
28.863	14.0
28.878	12.0
28.893	8.0
28.908	6.0
28.922	12.0
28.937	13.0
28.952	12.0
28.967	8.0
28.982	10.0
28.997	6.0
29.012	16.0
29.027	11.0
29.041	6.0
29.056	10.0
29.071	14.0
29.086	4.0
29.101	13.0
29.116	10.0
29.131	9.0
29.146	14.0
29.16	8.0
29.175	10.0
29.19	11.0
29.205	13.0
29.22	16.0
29.235	11.0
29.25	7.0
29.265	12.0
29.279	12.0
29.294	10.0
29.309	10.0
29.324	18.0
29.339	6.0
29.354	13.0
29.369	17.0
29.384	19.0
29.398	10.0
29.413	11.0
29.428	27.0
29.443	30.0
29.458	21.0
29.473	21.0
29.488	31.0
29.502	25.0
29.517	30.0
29.532	35.0
29.547	35.0
29.562	37.0
29.577	52.0
29.592	56.0
29.606	52.0
29.621	39.0
29.636	46.0
29.651	49.0
29.666	53.0
29.681	41.0
29.695	36.0
29.71	36.0
29.725	45.0
29.74	41.0
29.755	32.0
29.77	21.0
29.784	31.0
29.799	20.0
29.814	27.0
29.829	31.0
29.844	20.0
29.859	26.0
29.873	20.0
29.888	17.0
29.903	23.0
29.918	13.0
29.933	11.0
29.947	12.0
29.962	10.0
29.977	9.0
29.992	12.0
30.007	11.0
30.021	9.0
30.036	15.0
30.051	9.0
30.066	11.0
30.081	21.0
30.095	13.0
30.11	12.0
30.125	13.0
30.14	17.0
30.155	12.0
30.169	12.0
30.184	15.0
30.199	14.0
30.214	11.0
30.228	16.0
30.243	10.0
30.258	7.0
30.273	10.0
30.288	14.0
30.302	10.0
30.317	9.0
30.332	8.0
30.347	7.0
30.361	3.0
30.376	13.0
30.391	12.0
30.406	12.0
30.42	18.0
30.435	8.0
30.45	10.0
30.465	14.0
30.479	8.0
30.494	16.0
30.509	15.0
30.524	11.0
30.538	14.0
30.553	13.0
30.568	14.0
30.583	9.0
30.597	14.0
30.612	11.0
30.627	9.0
30.641	12.0
30.656	13.0
30.671	7.0
30.686	10.0
30.7	7.0
30.715	4.0
30.73	7.0
30.745	15.0
30.759	10.0
30.774	16.0
30.789	13.0
30.803	13.0
30.818	8.0
30.833	14.0
30.848	11.0
30.862	11.0
30.877	11.0
30.892	10.0
30.906	14.0
30.921	11.0
30.936	9.0
30.951	10.0
30.965	12.0
30.98	13.0
30.995	10.0
31.009	13.0
31.024	14.0
31.039	17.0
31.053	8.0
31.068	12.0
31.083	30.0
31.098	14.0
31.112	19.0
31.127	17.0
31.142	10.0
31.156	17.0
31.171	24.0
31.186	24.0
31.2	41.0
31.215	37.0
31.23	41.0
31.245	33.0
31.259	50.0
31.274	39.0
31.289	29.0
31.303	30.0
31.318	29.0
31.333	37.0
31.347	34.0
31.362	23.0
31.377	21.0
31.392	26.0
31.406	31.0
31.421	25.0
31.436	27.0
31.45	32.0
31.465	27.0
31.48	27.0
31.494	22.0
31.509	19.0
31.524	22.0
31.538	14.0
31.553	19.0
31.568	10.0
31.583	18.0
31.597	9.0
31.612	13.0
31.627	11.0
31.641	9.0
31.656	12.0
31.671	11.0
31.685	13.0
31.7	11.0
31.715	12.0
31.729	7.0
31.744	11.0
31.759	10.0
31.774	14.0
31.788	11.0
31.803	14.0
31.818	7.0
31.832	3.0
31.847	12.0
31.862	12.0
31.876	10.0
31.891	14.0
31.906	12.0
31.92	6.0
31.935	13.0
31.95	7.0
31.965	7.0
31.979	14.0
31.994	12.0
32.009	11.0
32.023	15.0
32.038	3.0
32.053	5.0
32.067	8.0
32.082	8.0
32.097	19.0
32.112	7.0
32.126	12.0
32.141	7.0
32.156	14.0
32.17	11.0
32.185	8.0
32.2	7.0
32.214	11.0
32.229	8.0
32.244	12.0
32.259	3.0
32.273	9.0
32.288	10.0
32.303	6.0
32.317	6.0
32.332	5.0
32.347	8.0
32.362	11.0
32.376	12.0
32.391	7.0
32.406	10.0
32.42	9.0
32.435	14.0
32.45	9.0
32.465	10.0
32.479	12.0
32.494	15.0
32.509	9.0
32.523	9.0
32.538	11.0
32.553	7.0
32.568	11.0
32.582	10.0
32.597	13.0
32.612	12.0
32.627	11.0
32.641	13.0
32.656	13.0
32.671	20.0
32.685	12.0
32.7	18.0
32.715	20.0
32.73	23.0
32.744	19.0
32.759	25.0
32.774	22.0
32.788	27.0
32.803	28.0
32.818	22.0
32.833	21.0
32.847	29.0
32.862	16.0
32.877	24.0
32.892	20.0
32.906	22.0
32.921	18.0
32.936	19.0
32.951	21.0
32.965	17.0
32.98	23.0
32.995	27.0
33.009	24.0
33.024	21.0
33.039	21.0
33.054	24.0
33.068	12.0
33.083	16.0
33.098	16.0
33.113	10.0
33.127	14.0
33.142	15.0
33.157	14.0
33.172	11.0
33.186	9.0
33.201	12.0
33.216	10.0
33.231	20.0
33.245	13.0
33.26	8.0
33.275	7.0
33.29	9.0
33.304	11.0
33.319	11.0
33.334	13.0
33.349	13.0
33.363	12.0
33.378	14.0
33.393	13.0
33.408	10.0
33.422	10.0
33.437	13.0
33.452	10.0
33.467	13.0
33.481	12.0
33.496	11.0
33.511	9.0
33.526	5.0
33.54	14.0
33.555	10.0
33.57	13.0
33.585	9.0
33.599	12.0
33.614	10.0
33.629	14.0
33.644	9.0
33.658	6.0
33.673	11.0
33.688	9.0
33.703	13.0
33.718	14.0
33.732	12.0
33.747	15.0
33.762	11.0
33.777	11.0
33.791	7.0
33.806	9.0
33.821	5.0
33.836	9.0
33.85	8.0
33.865	11.0
33.88	6.0
33.895	10.0
33.91	7.0
33.924	13.0
33.939	7.0
33.954	9.0
33.969	8.0
33.983	13.0
33.998	14.0
34.013	4.0
34.028	10.0
34.042	16.0
34.057	11.0
34.072	12.0
34.087	3.0
34.102	11.0
34.116	7.0
34.131	10.0
34.146	7.0
34.161	12.0
34.175	12.0
34.19	13.0
34.205	11.0
34.22	14.0
34.235	17.0
34.249	12.0
34.264	9.0
34.279	11.0
34.294	16.0
34.309	11.0
34.323	11.0
34.338	10.0
34.353	18.0
34.368	12.0
34.382	13.0
34.397	12.0
34.412	15.0
34.427	11.0
34.442	8.0
34.456	12.0
34.471	15.0
34.486	13.0
34.501	9.0
34.516	8.0
34.53	11.0
34.545	8.0
34.56	8.0
34.575	6.0
34.59	11.0
34.604	15.0
34.619	13.0
34.634	12.0
34.649	10.0
34.664	11.0
34.678	10.0
34.693	9.0
34.708	11.0
34.723	15.0
34.738	8.0
34.752	10.0
34.767	9.0
34.782	11.0
34.797	14.0
34.812	8.0
34.826	8.0
34.841	10.0
34.856	6.0
34.871	8.0
34.886	16.0
34.9	4.0
34.915	15.0
34.93	7.0
34.945	4.0
34.96	7.0
34.974	9.0
34.989	11.0
35.004	11.0
35.019	5.0
35.034	10.0
35.048	5.0
35.063	10.0
35.078	8.0
35.093	12.0
35.108	7.0
35.122	7.0
35.137	9.0
35.152	7.0
35.167	9.0
35.182	7.0
35.196	12.0
35.211	9.0
35.226	9.0
35.241	8.0
35.256	7.0
35.27	10.0
35.285	14.0
35.3	11.0
35.315	8.0
35.33	6.0
35.344	6.0
35.359	11.0
35.374	8.0
35.389	5.0
35.404	12.0
35.418	6.0
35.433	11.0
35.448	12.0
35.463	8.0
35.478	3.0
35.493	7.0
35.507	15.0
35.522	10.0
35.537	12.0
35.552	17.0
35.567	9.0
35.581	6.0
35.596	15.0
35.611	18.0
35.626	15.0
35.641	11.0
35.655	16.0
35.67	15.0
35.685	14.0
35.7	11.0
35.715	13.0
35.729	14.0
35.744	16.0
35.759	13.0
35.774	19.0
35.789	19.0
35.804	18.0
35.818	13.0
35.833	21.0
35.848	15.0
35.863	16.0
35.878	14.0
35.892	14.0
35.907	13.0
35.922	17.0
35.937	13.0
35.952	20.0
35.966	12.0
35.981	20.0
35.996	23.0
36.011	10.0
36.026	12.0
36.04	11.0
36.055	16.0
36.07	9.0
36.085	15.0
36.1	14.0
36.114	14.0
36.129	5.0
36.144	8.0
36.159	6.0
36.174	8.0
36.189	10.0
36.203	10.0
36.218	12.0
36.233	10.0
36.248	5.0
36.263	7.0
36.277	8.0
36.292	9.0
36.307	15.0
36.322	14.0
36.337	10.0
36.351	8.0
36.366	9.0
36.381	10.0
36.396	9.0
36.411	7.0
36.426	12.0
36.44	2.0
36.455	13.0
36.47	6.0
36.485	8.0
36.5	8.0
36.514	11.0
36.529	6.0
36.544	5.0
36.559	8.0
36.574	14.0
36.589	5.0
36.603	7.0
36.618	6.0
36.633	11.0
36.648	11.0
36.663	9.0
36.677	9.0
36.692	7.0
36.707	9.0
36.722	8.0
36.737	6.0
36.752	10.0
36.766	18.0
36.781	7.0
36.796	7.0
36.811	8.0
36.826	6.0
36.841	9.0
36.855	6.0
36.87	6.0
36.885	11.0
36.9	6.0
36.915	10.0
36.93	6.0
36.944	7.0
36.959	10.0
36.974	10.0
36.989	9.0
37.004	18.0
37.019	10.0
37.033	13.0
37.048	11.0
37.063	16.0
37.078	20.0
37.093	15.0
37.108	20.0
37.123	20.0
37.137	33.0
37.152	28.0
37.167	25.0
37.182	27.0
37.197	24.0
37.212	26.0
37.226	19.0
37.241	27.0
37.256	28.0
37.271	18.0
37.286	17.0
37.301	17.0
37.316	20.0
37.331	19.0
37.345	16.0
37.36	19.0
37.375	14.0
37.39	18.0
37.405	21.0
37.42	24.0
37.435	15.0
37.45	14.0
37.464	10.0
37.479	11.0
37.494	15.0
37.509	9.0
37.524	18.0
37.539	2.0
37.554	9.0
37.569	9.0
37.583	6.0
37.598	8.0
37.613	5.0
37.628	9.0
37.643	11.0
37.658	6.0
37.673	9.0
37.688	9.0
37.703	6.0
37.718	3.0
37.733	5.0
37.747	8.0
37.762	8.0
37.777	7.0
37.792	8.0
37.807	9.0
37.822	4.0
37.837	3.0
37.852	5.0
37.867	12.0
37.882	3.0
37.897	5.0
37.912	5.0
37.927	9.0
37.941	8.0
37.956	10.0
37.971	7.0
37.986	6.0
38.001	6.0
38.016	5.0
38.031	7.0
38.046	7.0
38.061	9.0
38.076	9.0
38.091	7.0
38.106	7.0
38.121	8.0
38.136	8.0
38.151	7.0
38.166	6.0
38.181	4.0
38.196	7.0
38.211	7.0
38.226	12.0
38.241	6.0
38.256	3.0
38.271	10.0
38.285	5.0
38.3	4.0
38.315	4.0
38.33	7.0
38.345	6.0
38.36	11.0
38.375	6.0
38.39	6.0
38.405	4.0
38.42	11.0
38.435	1.0
38.45	5.0
38.465	4.0
38.48	9.0
38.495	5.0
38.51	7.0
38.525	4.0
38.54	11.0
38.555	6.0
38.57	7.0
38.585	5.0
38.6	4.0
38.615	1.0
38.63	9.0
38.645	7.0
38.66	7.0
38.675	9.0
38.69	7.0
38.705	7.0
38.72	9.0
38.735	8.0
38.75	3.0
38.765	6.0
38.78	4.0
38.795	6.0
38.81	5.0
38.825	6.0
38.84	6.0
38.855	4.0
38.87	8.0
38.885	6.0
38.9	5.0
38.915	5.0
38.93	5.0
38.945	5.0
38.96	7.0
38.975	5.0
38.99	4.0
39.005	7.0
39.02	7.0
39.035	7.0
39.05	8.0
39.065	5.0
39.08	9.0
39.095	6.0
39.11	5.0
39.125	4.0
39.14	6.0
39.155	6.0
39.17	4.0
39.185	5.0
39.2	7.0
39.215	2.0
39.23	6.0
39.245	10.0
39.26	9.0
39.275	5.0
39.29	0.0
39.305	8.0
39.32	5.0
39.335	4.0
39.35	7.0
39.365	4.0
39.38	6.0
39.395	6.0
39.409	4.0
39.424	7.0
39.439	6.0
39.454	10.0
39.469	9.0
39.484	5.0
39.499	6.0
39.514	7.0
39.529	5.0
39.544	7.0
39.559	5.0
39.574	6.0
39.589	4.0
39.604	4.0
39.619	6.0
39.634	3.0
39.649	7.0
39.664	4.0
39.678	5.0
39.693	6.0
39.708	11.0
39.723	7.0
39.738	6.0
39.753	9.0
39.768	9.0
39.783	11.0
39.798	6.0
39.813	7.0
39.827	11.0
39.842	9.0
39.857	4.0
39.872	7.0
39.887	12.0
39.902	10.0
39.917	7.0
39.932	9.0
39.947	5.0
39.961	10.0
39.976	7.0
39.991	7.0
40.006	10.0
40.021	4.0
40.036	7.0
40.051	7.0
40.065	9.0
40.08	7.0
40.095	9.0
40.11	7.0
40.125	6.0
40.14	11.0
40.154	6.0
40.169	9.0
40.184	6.0
40.199	9.0
40.214	6.0
40.228	7.0
40.243	3.0
40.258	2.0
40.273	5.0
40.288	3.0
40.302	2.0
40.317	5.0
40.332	3.0
40.347	3.0
40.362	5.0
40.376	3.0
40.391	6.0
40.406	9.0
40.421	4.0
40.436	2.0
40.45	3.0
40.465	2.0
40.48	5.0
40.495	6.0
40.509	5.0
40.524	12.0
40.539	5.0
40.554	5.0
40.568	10.0
40.583	3.0
40.598	8.0
40.613	4.0
40.627	4.0
40.642	6.0
40.657	4.0
40.672	5.0
40.686	6.0
40.701	6.0
40.716	4.0
40.731	5.0
40.745	10.0
40.76	8.0
40.775	4.0
40.79	6.0
40.804	2.0
40.819	5.0
40.834	3.0
40.849	6.0
40.863	5.0
40.878	8.0
40.893	8.0
40.907	4.0
40.922	8.0
40.937	6.0
40.952	5.0
40.966	4.0
40.981	11.0
40.996	8.0
41.011	10.0
41.025	15.0
41.04	9.0
41.055	18.0
41.069	21.0
41.084	17.0
41.099	19.0
41.114	11.0
41.128	14.0
41.143	17.0
41.158	22.0
41.173	11.0
41.187	25.0
41.202	19.0
41.217	15.0
41.231	12.0
41.246	15.0
41.261	10.0
41.276	12.0
41.29	11.0
41.305	6.0
41.32	8.0
41.335	13.0
41.349	12.0
41.364	13.0
41.379	12.0
41.393	14.0
41.408	17.0
41.423	13.0
41.438	16.0
41.452	16.0
41.467	9.0
41.482	6.0
41.497	4.0
41.511	5.0
41.526	8.0
41.541	6.0
41.556	6.0
41.57	7.0
41.585	3.0
41.6	6.0
41.615	10.0
41.629	2.0
41.644	7.0
41.659	4.0
41.674	5.0
41.688	3.0
41.703	4.0
41.718	5.0
41.733	4.0
41.747	4.0
41.762	7.0
41.777	1.0
41.792	8.0
41.806	3.0
41.821	6.0
41.836	5.0
41.851	7.0
41.866	7.0
41.88	4.0
41.895	8.0
41.91	7.0
41.925	8.0
41.939	8.0
41.954	5.0
41.969	4.0
41.984	6.0
41.999	7.0
42.013	7.0
42.028	4.0
42.043	11.0
42.058	5.0
42.073	3.0
42.088	7.0
42.102	8.0
42.117	4.0
42.132	2.0
42.147	11.0
42.162	3.0
42.176	4.0
42.191	7.0
42.206	6.0
42.221	7.0
42.236	8.0
42.251	8.0
42.266	5.0
42.28	7.0
42.295	8.0
42.31	10.0
42.325	13.0
42.34	12.0
42.355	21.0
42.369	14.0
42.384	12.0
42.399	18.0
42.414	8.0
42.429	17.0
42.444	11.0
42.459	9.0
42.474	13.0
42.488	13.0
42.503	9.0
42.518	7.0
42.533	5.0
42.548	13.0
42.563	8.0
42.578	6.0
42.593	12.0
42.608	10.0
42.622	10.0
42.637	12.0
42.652	10.0
42.667	14.0
42.682	15.0
42.697	8.0
42.712	12.0
42.727	10.0
42.742	14.0
42.757	7.0
42.772	8.0
42.786	6.0
42.801	6.0
42.816	7.0
42.831	7.0
42.846	6.0
42.861	7.0
42.876	7.0
42.891	8.0
42.906	9.0
42.921	2.0
42.936	6.0
42.951	10.0
42.966	5.0
42.981	6.0
42.996	4.0
43.011	2.0
43.025	9.0
43.04	2.0
43.055	7.0
43.07	7.0
43.085	7.0
43.1	3.0
43.115	3.0
43.13	6.0
43.145	6.0
43.16	3.0
43.175	1.0
43.19	6.0
43.205	5.0
43.22	10.0
43.235	4.0
43.25	4.0
43.265	7.0
43.28	9.0
43.295	2.0
43.31	5.0
43.325	5.0
43.34	2.0
43.355	4.0
43.37	5.0
43.385	5.0
43.4	3.0
43.415	7.0
43.43	4.0
43.445	3.0
43.46	5.0
43.475	7.0
43.49	3.0
43.505	14.0
43.52	7.0
43.535	11.0
43.55	14.0
43.565	8.0
43.58	8.0
43.595	9.0
43.61	7.0
43.625	12.0
43.64	6.0
43.655	9.0
43.67	4.0
43.685	6.0
43.7	9.0
43.715	11.0
43.73	6.0
43.745	8.0
43.76	8.0
43.775	2.0
43.79	9.0
43.805	8.0
43.82	4.0
43.835	4.0
43.85	7.0
43.865	16.0
43.88	10.0
43.895	6.0
43.91	9.0
43.925	3.0
43.94	9.0
43.955	4.0
43.97	6.0
43.985	8.0
44.0	6.0
44.015	9.0
44.03	4.0
44.045	7.0
44.061	3.0
44.076	3.0
44.091	3.0
44.106	8.0
44.121	7.0
44.136	4.0
44.151	4.0
44.166	5.0
44.181	10.0
44.196	5.0
44.211	7.0
44.226	3.0
44.241	4.0
44.256	7.0
44.271	7.0
44.286	5.0
44.301	6.0
44.316	4.0
44.331	4.0
44.346	3.0
44.361	4.0
44.377	4.0
44.392	3.0
44.407	5.0
44.422	6.0
44.437	8.0
44.452	9.0
44.467	7.0
44.482	5.0
44.497	4.0
44.512	9.0
44.527	5.0
44.542	3.0
44.557	7.0
44.572	5.0
44.587	5.0
44.602	6.0
44.617	6.0
44.632	6.0
44.647	6.0
44.663	3.0
44.678	13.0
44.693	6.0
44.708	10.0
44.723	10.0
44.738	9.0
44.753	16.0
44.768	12.0
44.783	11.0
44.798	11.0
44.813	13.0
44.828	12.0
44.843	7.0
44.858	9.0
44.873	6.0
44.888	7.0
44.903	2.0
44.918	9.0
44.933	9.0
44.948	5.0
44.964	9.0
44.979	8.0
44.994	5.0
45.009	3.0
45.024	10.0
45.039	5.0
45.054	6.0
45.069	7.0
45.084	12.0
45.099	8.0
45.114	4.0
45.129	6.0
45.144	4.0
45.159	12.0
45.174	11.0
45.189	6.0
45.204	8.0
45.219	6.0
45.234	4.0
45.249	3.0
45.264	7.0
45.279	4.0
45.294	6.0
45.309	5.0
45.324	4.0
45.339	5.0
45.354	3.0
45.369	8.0
45.384	3.0
45.399	4.0
45.414	6.0
45.429	9.0
45.444	4.0
45.459	1.0
45.474	3.0
45.489	5.0
45.504	6.0
45.519	2.0
45.534	5.0
45.549	4.0
45.564	7.0
45.579	4.0
45.594	4.0
45.609	10.0
45.624	5.0
45.639	4.0
45.654	7.0
45.669	3.0
45.684	5.0
45.699	6.0
45.714	5.0
45.729	6.0
45.744	8.0
45.759	6.0
45.774	4.0
45.789	7.0
45.804	1.0
45.819	5.0
45.834	7.0
45.849	6.0
45.864	12.0
45.879	9.0
45.894	9.0
45.909	12.0
45.924	14.0
45.939	8.0
45.954	13.0
45.969	19.0
45.984	11.0
45.998	20.0
46.013	15.0
46.028	10.0
46.043	12.0
46.058	21.0
46.073	19.0
46.088	11.0
46.103	8.0
46.118	11.0
46.133	4.0
46.148	6.0
46.163	9.0
46.178	9.0
46.192	11.0
46.207	13.0
46.222	10.0
46.237	6.0
46.252	9.0
46.267	18.0
46.282	13.0
46.297	16.0
46.312	6.0
46.327	12.0
46.341	6.0
46.356	9.0
46.371	7.0
46.386	4.0
46.401	2.0
46.416	8.0
46.431	5.0
46.446	6.0
46.46	3.0
46.475	7.0
46.49	4.0
46.505	9.0
46.52	3.0
46.535	7.0
46.55	3.0
46.564	4.0
46.579	5.0
46.594	8.0
46.609	4.0
46.624	4.0
46.639	8.0
46.654	3.0
46.668	1.0
46.683	4.0
46.698	5.0
46.713	9.0
46.728	6.0
46.743	8.0
46.758	9.0
46.772	2.0
46.787	3.0
46.802	4.0
46.817	9.0
46.832	10.0
46.847	3.0
46.861	8.0
46.876	3.0
46.891	2.0
46.906	6.0
46.921	5.0
46.936	0.0
46.95	4.0
46.965	10.0
46.98	5.0
46.995	1.0
47.01	5.0
47.025	8.0
47.039	7.0
47.054	8.0
47.069	11.0
47.084	6.0
47.099	9.0
47.113	7.0
47.128	11.0
47.143	9.0
47.158	9.0
47.173	10.0
47.188	8.0
47.202	4.0
47.217	7.0
47.232	1.0
47.247	8.0
47.262	4.0
47.277	8.0
47.291	6.0
47.306	8.0
47.321	10.0
47.336	6.0
47.351	4.0
47.365	7.0
47.38	8.0
47.395	7.0
47.41	11.0
47.425	11.0
47.44	3.0
47.454	2.0
47.469	6.0
47.484	5.0
47.499	7.0
47.514	6.0
47.528	2.0
47.543	5.0
47.558	7.0
47.573	5.0
47.588	3.0
47.603	5.0
47.617	7.0
47.632	2.0
47.647	5.0
47.662	4.0
47.677	11.0
47.691	7.0
47.706	6.0
47.721	2.0
47.736	8.0
47.751	6.0
47.766	5.0
47.78	4.0
47.795	3.0
47.81	5.0
47.825	9.0
47.84	4.0
47.855	8.0
47.869	8.0
47.884	4.0
47.899	5.0
47.914	4.0
47.929	3.0
47.944	7.0
47.958	5.0
47.973	6.0
47.988	2.0
48.003	3.0
48.018	3.0
48.033	4.0
48.047	4.0
48.062	2.0
48.077	5.0
48.092	3.0
48.107	5.0
48.122	5.0
48.137	6.0
48.151	4.0
48.166	9.0
48.181	6.0
48.196	3.0
48.211	4.0
48.226	4.0
48.241	3.0
48.255	5.0
48.27	3.0
48.285	4.0
48.3	3.0
48.315	11.0
48.33	3.0
48.345	3.0
48.359	7.0
48.374	4.0
48.389	8.0
48.404	4.0
48.419	4.0
48.434	7.0
48.449	6.0
48.464	6.0
48.478	7.0
48.493	8.0
48.508	4.0
48.523	4.0
48.538	6.0
48.553	5.0
48.568	5.0
48.583	8.0
48.597	6.0
48.612	8.0
48.627	8.0
48.642	5.0
48.657	4.0
48.672	8.0
48.687	3.0
48.702	3.0
48.717	4.0
48.731	5.0
48.746	4.0
48.761	7.0
48.776	4.0
48.791	1.0
48.806	10.0
48.821	5.0
48.836	4.0
48.851	4.0
48.866	11.0
48.88	3.0
48.895	0.0
48.91	5.0
48.925	3.0
48.94	7.0
48.955	5.0
48.97	4.0
48.985	5.0
49.0	3.0
49.015	4.0
49.03	7.0
49.044	4.0
49.059	3.0
49.074	5.0
49.089	0.0
49.104	9.0
49.119	6.0
49.134	2.0
49.149	5.0
49.164	2.0
49.179	4.0
49.194	2.0
49.209	7.0
49.224	3.0
49.238	3.0
49.253	7.0
49.268	5.0
49.283	1.0
49.298	5.0
49.313	10.0
49.328	9.0
49.343	8.0
49.358	7.0
49.373	8.0
49.388	5.0
49.403	10.0
49.418	9.0
49.433	6.0
49.448	11.0
49.463	5.0
49.478	8.0
49.492	4.0
49.507	2.0
49.522	2.0
49.537	5.0
49.552	6.0
49.567	7.0
49.582	4.0
49.597	11.0
49.612	3.0
49.627	7.0
49.642	11.0
49.657	10.0
49.672	8.0
49.687	4.0
49.702	6.0
49.717	5.0
49.732	9.0
49.747	8.0
49.762	2.0
49.777	0.0
49.792	5.0
49.807	5.0
49.822	6.0
49.837	4.0
49.852	4.0
49.867	5.0
49.882	4.0
49.897	4.0
49.912	6.0
49.927	8.0
49.942	5.0
49.957	5.0
49.971	5.0
49.986	6.0
50.001	6.0
50.016	8.0
50.031	4.0
50.046	8.0
50.061	8.0
50.076	7.0
50.091	3.0
50.106	2.0
50.121	3.0
50.136	4.0
50.151	2.0
50.166	4.0
50.181	5.0
50.196	10.0
50.211	6.0
50.226	5.0
50.241	1.0
50.256	4.0
50.271	1.0
50.286	4.0
50.302	4.0
50.317	3.0
50.332	2.0
50.347	9.0
50.362	7.0
50.377	8.0
50.392	10.0
50.407	11.0
50.422	7.0
50.437	13.0
50.452	9.0
50.467	8.0
50.482	4.0
50.497	6.0
50.512	8.0
50.527	10.0
50.542	8.0
50.557	5.0
50.572	4.0
50.587	8.0
50.602	0.0
50.617	5.0
50.632	2.0
50.647	5.0
50.662	4.0
50.677	11.0
50.692	4.0
50.707	9.0
50.722	7.0
50.737	6.0
50.752	9.0
50.767	6.0
50.782	5.0
50.797	11.0
50.812	5.0
50.828	3.0
50.843	6.0
50.858	7.0
50.873	2.0
50.888	1.0
50.903	6.0
50.918	10.0
50.933	8.0
50.948	4.0
50.963	3.0
50.978	4.0
50.993	2.0
51.008	4.0
51.023	5.0
51.038	3.0
51.053	8.0
51.068	7.0
51.083	4.0
51.098	4.0
51.114	4.0
51.129	5.0
51.144	6.0
51.159	4.0
51.174	9.0
51.189	6.0
51.204	3.0
51.219	4.0
51.234	1.0
51.249	5.0
51.264	4.0
51.279	4.0
51.294	1.0
51.309	6.0
51.324	5.0
51.34	3.0
51.355	5.0
51.37	7.0
51.385	7.0
51.4	8.0
51.415	6.0
51.43	12.0
51.445	9.0
51.46	10.0
51.475	15.0
51.49	12.0
51.505	18.0
51.52	22.0
51.535	13.0
51.551	19.0
51.566	18.0
51.581	11.0
51.596	14.0
51.611	10.0
51.626	7.0
51.641	9.0
51.656	5.0
51.671	8.0
51.686	5.0
51.701	3.0
51.716	6.0
51.732	7.0
51.747	4.0
51.762	10.0
51.777	7.0
51.792	13.0
51.807	14.0
51.822	10.0
51.837	12.0
51.852	15.0
51.867	6.0
51.882	12.0
51.898	6.0
51.913	9.0
51.928	7.0
51.943	12.0
51.958	7.0
51.973	4.0
51.988	6.0
52.003	8.0
52.018	5.0
52.033	3.0
52.048	5.0
52.064	5.0
52.079	4.0
52.094	2.0
52.109	7.0
52.124	7.0
52.139	6.0
52.154	7.0
52.169	4.0
52.184	11.0
52.199	4.0
52.215	5.0
52.23	4.0
52.245	9.0
52.26	5.0
52.275	5.0
52.29	3.0
52.305	3.0
52.32	4.0
52.335	8.0
52.35	4.0
52.366	10.0
52.381	5.0
52.396	7.0
52.411	6.0
52.426	3.0
52.441	6.0
52.456	4.0
52.471	4.0
52.486	7.0
52.502	4.0
52.517	4.0
52.532	7.0
52.547	7.0
52.562	7.0
52.577	13.0
52.592	10.0
52.607	10.0
52.622	13.0
52.637	9.0
52.653	7.0
52.668	12.0
52.683	6.0
52.698	6.0
52.713	2.0
52.728	6.0
52.743	6.0
52.758	6.0
52.774	12.0
52.789	3.0
52.804	9.0
52.819	4.0
52.834	8.0
52.849	10.0
52.864	7.0
52.879	8.0
52.894	7.0
52.91	8.0
52.925	9.0
52.94	4.0
52.955	7.0
52.97	5.0
52.985	8.0
53.0	6.0
53.015	6.0
53.031	4.0
53.046	2.0
53.061	2.0
53.076	8.0
53.091	4.0
53.106	3.0
53.121	7.0
53.136	2.0
53.152	7.0
53.167	3.0
53.182	7.0
53.197	1.0
53.212	5.0
53.227	11.0
53.242	8.0
53.257	6.0
53.273	6.0
53.288	4.0
53.303	11.0
53.318	4.0
53.333	2.0
53.348	5.0
53.363	6.0
53.379	4.0
53.394	4.0
53.409	7.0
53.424	3.0
53.439	5.0
53.454	3.0
53.469	4.0
53.484	5.0
53.5	7.0
53.515	4.0
53.53	4.0
53.545	6.0
53.56	2.0
53.575	2.0
53.59	5.0
53.606	5.0
53.621	3.0
53.636	6.0
53.651	0.0
53.666	3.0
53.681	3.0
53.696	3.0
53.712	2.0
53.727	7.0
53.742	6.0
53.757	0.0
53.772	5.0
53.787	3.0
53.802	5.0
53.818	5.0
53.833	9.0
53.848	11.0
53.863	7.0
53.878	2.0
53.893	3.0
53.909	6.0
53.924	2.0
53.939	1.0
53.954	3.0
53.969	7.0
53.984	6.0
53.999	6.0
54.015	5.0
54.03	4.0
54.045	5.0
54.06	2.0
54.075	4.0
54.09	4.0
54.106	8.0
54.121	2.0
54.136	3.0
54.151	8.0
54.166	2.0
54.181	6.0
54.197	5.0
54.212	4.0
54.227	7.0
54.242	7.0
54.257	7.0
54.272	4.0
54.288	7.0
54.303	6.0
54.318	9.0
54.333	3.0
54.348	5.0
54.363	3.0
54.379	3.0
54.394	4.0
54.409	5.0
54.424	7.0
54.439	7.0
54.454	6.0
54.47	1.0
54.485	3.0
54.5	7.0
54.515	7.0
54.53	5.0
54.545	2.0
54.561	6.0
54.576	5.0
54.591	13.0
54.606	9.0
54.621	6.0
54.636	8.0
54.652	7.0
54.667	13.0
54.682	12.0
54.697	11.0
54.712	4.0
54.727	9.0
54.743	7.0
54.758	7.0
54.773	3.0
54.788	3.0
54.803	5.0
54.819	4.0
54.834	9.0
54.849	6.0
54.864	8.0
54.879	5.0
54.894	6.0
54.91	6.0
54.925	6.0
54.94	8.0
54.955	6.0
54.97	10.0
54.985	8.0
55.001	14.0
55.016	15.0
55.031	9.0
55.046	6.0
55.061	5.0
55.077	4.0
55.092	7.0
55.107	6.0
55.122	3.0
55.137	4.0
55.152	5.0
55.168	1.0
55.183	6.0
55.198	5.0
55.213	6.0
55.228	4.0
55.243	9.0
55.259	6.0
55.274	2.0
55.289	5.0
55.304	6.0
55.319	4.0
55.335	7.0
55.35	2.0
55.365	8.0
55.38	10.0
55.395	6.0
55.41	5.0
55.426	4.0
55.441	2.0
55.456	4.0
55.471	9.0
55.486	3.0
55.501	5.0
55.517	9.0
55.532	2.0
55.547	5.0
55.562	1.0
55.577	4.0
55.592	8.0
55.608	9.0
55.623	10.0
55.638	10.0
55.653	6.0
55.668	7.0
55.683	8.0
55.699	7.0
55.714	11.0
55.729	10.0
55.744	7.0
55.759	7.0
55.774	5.0
55.79	2.0
55.805	2.0
55.82	3.0
55.835	0.0
55.85	4.0
55.865	2.0
55.881	5.0
55.896	4.0
55.911	10.0
55.926	3.0
55.941	4.0
55.956	2.0
55.972	4.0
55.987	3.0
56.002	7.0
56.017	6.0
56.032	4.0
56.047	8.0
56.063	9.0
56.078	10.0
56.093	7.0
56.108	6.0
56.123	1.0
56.138	8.0
56.154	3.0
56.169	4.0
56.184	5.0
56.199	4.0
56.214	6.0
56.229	10.0
56.244	3.0
56.26	2.0
56.275	8.0
56.29	6.0
56.305	3.0
56.32	8.0
56.335	7.0
56.351	4.0
56.366	6.0
56.381	3.0
56.396	8.0
56.411	2.0
56.426	5.0
56.441	4.0
56.457	3.0
56.472	5.0
56.487	6.0
56.502	11.0
56.517	7.0
56.532	4.0
56.547	3.0
56.563	5.0
56.578	3.0
56.593	8.0
56.608	1.0
56.623	3.0
56.638	6.0
56.653	5.0
56.668	5.0
56.684	7.0
56.699	7.0
56.714	4.0
56.729	2.0
56.744	4.0
56.759	3.0
56.774	4.0
56.79	6.0
56.805	2.0
56.82	2.0
56.835	7.0
56.85	10.0
56.865	7.0
56.88	9.0
56.895	3.0
56.911	4.0
56.926	3.0
56.941	2.0
56.956	1.0
56.971	7.0
56.986	5.0
57.001	5.0
57.016	3.0
57.031	3.0
57.047	5.0
57.062	5.0
57.077	2.0
57.092	7.0
57.107	3.0
57.122	9.0
57.137	5.0
57.152	3.0
57.167	6.0
57.183	5.0
57.198	4.0
57.213	5.0
57.228	2.0
57.243	5.0
57.258	5.0
57.273	5.0
57.288	2.0
57.303	2.0
57.318	3.0
57.334	4.0
57.349	6.0
57.364	6.0
57.379	6.0
57.394	2.0
57.409	2.0
57.424	5.0
57.439	5.0
57.454	4.0
57.469	1.0
57.484	5.0
57.5	3.0
57.515	5.0
57.53	4.0
57.545	2.0
57.56	4.0
57.575	3.0
57.59	4.0
57.605	3.0
57.62	3.0
57.635	1.0
57.65	5.0
57.665	6.0
57.68	4.0
57.696	2.0
57.711	8.0
57.726	9.0
57.741	6.0
57.756	4.0
57.771	4.0
57.786	4.0
57.801	4.0
57.816	3.0
57.831	8.0
57.846	2.0
57.861	4.0
57.876	6.0
57.891	6.0
57.906	6.0
57.921	3.0
57.937	1.0
57.952	4.0
57.967	2.0
57.982	4.0
57.997	7.0
58.012	3.0
58.027	2.0
58.042	4.0
58.057	5.0
58.072	5.0
58.087	3.0
58.102	4.0
58.117	3.0
58.132	3.0
58.147	5.0
58.162	3.0
58.177	2.0
58.192	8.0
58.207	9.0
58.222	2.0
58.237	7.0
58.252	3.0
58.267	8.0
58.282	4.0
58.297	4.0
58.312	4.0
58.327	7.0
58.342	2.0
58.357	0.0
58.372	4.0
58.387	3.0
58.402	4.0
58.418	4.0
58.433	7.0
58.448	3.0
58.463	7.0
58.478	4.0
58.493	1.0
58.508	3.0
58.523	4.0
58.538	7.0
58.553	5.0
58.568	6.0
58.583	10.0
58.598	9.0
58.613	7.0
58.628	5.0
58.643	12.0
58.658	13.0
58.673	5.0
58.688	19.0
58.703	6.0
58.718	8.0
58.733	11.0
58.748	6.0
58.763	6.0
58.778	5.0
58.793	2.0
58.808	10.0
58.823	5.0
58.838	5.0
58.853	5.0
58.868	3.0
58.883	3.0
58.898	4.0
58.913	7.0
58.928	4.0
58.942	6.0
58.957	10.0
58.972	7.0
58.987	5.0
59.002	10.0
59.017	5.0
59.032	7.0
59.047	9.0
59.062	5.0
59.077	6.0
59.092	8.0
59.107	12.0
59.122	6.0
59.137	5.0
59.152	6.0
59.167	3.0
59.182	3.0
59.197	5.0
59.212	1.0
59.227	2.0
59.242	1.0
59.257	2.0
59.272	5.0
59.287	8.0
59.302	2.0
59.317	3.0
59.332	5.0
59.347	3.0
59.362	2.0
59.377	8.0
59.392	2.0
59.407	3.0
59.422	2.0
59.437	2.0
59.452	6.0
59.467	1.0
59.482	6.0
59.497	13.0
59.512	5.0
59.527	5.0
59.542	6.0
59.557	7.0
59.572	5.0
59.587	7.0
59.602	7.0
59.617	13.0
59.632	13.0
59.647	10.0
59.661	11.0
59.676	7.0
59.691	4.0
59.706	11.0
59.721	3.0
59.736	3.0
59.751	4.0
59.766	1.0
59.781	4.0
59.796	5.0
59.811	4.0
59.826	4.0
59.841	0.0
59.856	1.0
59.871	6.0
59.886	3.0
59.901	11.0
59.916	6.0
59.931	4.0
59.946	3.0
59.961	6.0
59.976	7.0
59.991	6.0
60.006	7.0
60.021	11.0
60.036	9.0
60.051	8.0
60.066	3.0
60.081	4.0
60.096	7.0
60.111	2.0
60.126	5.0
60.141	4.0
60.156	4.0
60.171	9.0
60.186	6.0
60.201	6.0
60.216	4.0
60.231	3.0
60.246	4.0
60.261	3.0
60.276	4.0
60.291	2.0
60.306	5.0
60.321	5.0
60.336	4.0
60.35	5.0
60.365	6.0
60.38	5.0
60.395	8.0
60.41	4.0
60.425	3.0
60.44	8.0
60.455	4.0
60.47	10.0
60.485	4.0
60.5	9.0
60.515	8.0
60.53	7.0
60.545	8.0
60.56	6.0
60.575	17.0
60.59	12.0
60.605	12.0
60.62	6.0
60.635	7.0
60.65	6.0
60.665	4.0
60.68	3.0
60.695	5.0
60.71	4.0
60.725	2.0
60.74	3.0
60.755	7.0
60.77	4.0
60.785	2.0
60.8	2.0
60.815	2.0
60.83	4.0
60.845	4.0
60.86	5.0
60.875	3.0
60.89	2.0
60.905	3.0
60.92	7.0
60.935	5.0
60.95	5.0
60.965	3.0
60.98	3.0
60.995	5.0
61.01	9.0
61.025	8.0
61.04	4.0
61.055	6.0
61.07	8.0
61.085	4.0
61.1	4.0
61.115	3.0
61.13	1.0
61.145	3.0
61.16	4.0
61.175	8.0
61.191	3.0
61.206	3.0
61.221	4.0
61.236	2.0
61.251	5.0
61.266	6.0
61.281	3.0
61.296	5.0
61.311	1.0
61.326	6.0
61.341	5.0
61.356	7.0
61.371	7.0
61.386	5.0
61.401	4.0
61.416	2.0
61.431	9.0
61.446	4.0
61.461	7.0
61.476	4.0
61.491	5.0
61.506	5.0
61.521	4.0
61.536	9.0
61.551	6.0
61.566	5.0
61.581	4.0
61.596	6.0
61.611	5.0
61.626	5.0
61.641	6.0
61.656	3.0
61.672	4.0
61.687	4.0
61.702	3.0
61.717	3.0
61.732	4.0
61.747	6.0
61.762	5.0
61.777	3.0
61.792	5.0
61.807	4.0
61.822	3.0
61.837	8.0
61.852	3.0
61.867	6.0
61.882	4.0
61.897	5.0
61.912	1.0
61.927	8.0
61.943	4.0
61.958	7.0
61.973	6.0
61.988	5.0
62.003	2.0
62.018	3.0
62.033	5.0
62.048	4.0
62.063	6.0
62.078	3.0
62.093	6.0
62.108	0.0
62.123	3.0
62.138	6.0
62.153	5.0
62.169	2.0
62.184	4.0
62.199	5.0
62.214	3.0
62.229	6.0
62.244	2.0
62.259	2.0
62.274	4.0
62.289	1.0
62.304	4.0
62.319	3.0
62.335	2.0
62.35	1.0
62.365	5.0
62.38	5.0
62.395	7.0
62.41	6.0
62.425	6.0
62.44	8.0
62.455	6.0
62.47	4.0
62.485	6.0
62.501	6.0
62.516	5.0
62.531	6.0
62.546	2.0
62.561	2.0
62.576	4.0
62.591	6.0
62.606	3.0
62.621	7.0
62.636	3.0
62.652	3.0
62.667	3.0
62.682	2.0
62.697	5.0
62.712	2.0
62.727	5.0
62.742	5.0
62.757	4.0
62.772	1.0
62.787	7.0
62.803	5.0
62.818	7.0
62.833	9.0
62.848	3.0
62.863	4.0
62.878	4.0
62.893	3.0
62.908	3.0
62.923	0.0
62.939	2.0
62.954	3.0
62.969	7.0
62.984	3.0
62.999	4.0
63.014	6.0
63.029	0.0
63.044	3.0
63.059	6.0
63.074	5.0
63.09	2.0
63.105	1.0
63.12	4.0
63.135	1.0
63.15	3.0
63.165	6.0
63.18	5.0
63.195	3.0
63.21	4.0
63.226	0.0
63.241	2.0
63.256	2.0
63.271	3.0
63.286	3.0
63.301	9.0
63.316	5.0
63.331	1.0
63.346	5.0
63.362	4.0
63.377	10.0
63.392	8.0
63.407	7.0
63.422	5.0
63.437	8.0
63.452	9.0
63.467	5.0
63.482	6.0
63.497	6.0
63.513	3.0
63.528	5.0
63.543	1.0
63.558	8.0
63.573	7.0
63.588	2.0
63.603	3.0
63.618	8.0
63.633	3.0
63.648	6.0
63.664	1.0
63.679	4.0
63.694	2.0
63.709	5.0
63.724	4.0
63.739	7.0
63.754	9.0
63.769	6.0
63.784	6.0
63.799	4.0
63.814	7.0
63.83	5.0
63.845	7.0
63.86	5.0
63.875	4.0
63.89	9.0
63.905	3.0
63.92	3.0
63.935	4.0
63.95	5.0
63.965	4.0
63.98	3.0
63.996	5.0
64.011	5.0
64.026	6.0
64.041	3.0
64.056	5.0
64.071	7.0
64.086	6.0
64.101	5.0
64.116	3.0
64.131	2.0
64.146	8.0
64.161	3.0
64.176	1.0
64.191	5.0
64.207	4.0
64.222	4.0
64.237	2.0
64.252	4.0
64.267	4.0
64.282	3.0
64.297	3.0
64.312	4.0
64.327	2.0
64.342	2.0
64.357	2.0
64.372	4.0
64.387	2.0
64.402	3.0
64.417	4.0
64.433	1.0
64.448	3.0
64.463	6.0
64.478	5.0
64.493	5.0
64.508	2.0
64.523	1.0
64.538	6.0
64.553	2.0
64.568	5.0
64.583	3.0
64.598	2.0
64.613	1.0
64.628	2.0
64.643	3.0
64.658	6.0
64.673	5.0
64.688	6.0
64.703	3.0
64.718	3.0
64.734	3.0
64.749	6.0
64.764	1.0
64.779	1.0
64.794	4.0
64.809	3.0
64.824	3.0
64.839	6.0
64.854	2.0
64.869	3.0
64.884	2.0
64.899	3.0
64.914	3.0
64.929	1.0
64.944	4.0
64.959	6.0
64.974	5.0
64.989	2.0
65.004	4.0
65.019	3.0
65.034	5.0
65.049	3.0
65.064	3.0
65.079	10.0
65.094	4.0
65.109	3.0
65.125	7.0
65.14	8.0
65.155	8.0
65.17	2.0
65.185	5.0
65.2	3.0
65.215	6.0
65.23	6.0
65.245	3.0
65.26	6.0
65.275	4.0
65.29	6.0
65.305	5.0
65.32	3.0
65.335	5.0
65.35	4.0
65.365	8.0
65.38	3.0
65.395	4.0
65.41	2.0
65.425	7.0
65.44	3.0
65.455	5.0
65.47	8.0
65.485	1.0
65.5	5.0
65.515	1.0
65.53	1.0
65.545	3.0
65.56	3.0
65.575	1.0
65.59	1.0
65.605	2.0
65.62	3.0
65.635	6.0
65.65	7.0
65.666	2.0
65.681	5.0
65.696	5.0
65.711	9.0
65.726	8.0
65.741	6.0
65.756	5.0
65.771	3.0
65.786	5.0
65.801	2.0
65.816	1.0
65.831	3.0
65.846	7.0
65.861	2.0
65.876	4.0
65.891	1.0
65.906	6.0
65.921	2.0
65.936	4.0
65.951	7.0
65.966	5.0
65.981	4.0
65.996	5.0
66.011	4.0
66.026	0.0
66.041	3.0
66.056	2.0
66.071	3.0
66.086	7.0
66.101	9.0
66.116	5.0
66.131	7.0
66.146	9.0
66.161	7.0
66.176	8.0
66.191	5.0
66.206	8.0
66.221	4.0
66.236	10.0
66.251	7.0
66.266	8.0
66.281	2.0
66.296	8.0
66.311	7.0
66.327	5.0
66.342	7.0
66.357	2.0
66.372	3.0
66.387	6.0
66.402	3.0
66.417	8.0
66.432	5.0
66.447	7.0
66.462	2.0
66.477	3.0
66.492	2.0
66.507	4.0
66.522	3.0
66.537	4.0
66.552	5.0
66.567	10.0
66.582	5.0
66.597	7.0
66.612	6.0
66.627	8.0
66.642	6.0
66.657	6.0
66.672	5.0
66.687	5.0
66.702	6.0
66.717	6.0
66.732	4.0
66.747	3.0
66.762	4.0
66.777	6.0
66.792	3.0
66.807	4.0
66.822	5.0
66.837	6.0
66.853	2.0
66.868	3.0
66.883	6.0
66.898	3.0
66.913	3.0
66.928	5.0
66.943	7.0
66.958	5.0
66.973	2.0
66.988	3.0
67.003	3.0
67.018	8.0
67.033	4.0
67.048	4.0
67.063	9.0
67.078	1.0
67.093	2.0
67.108	8.0
67.123	7.0
67.138	9.0
67.153	2.0
67.168	4.0
67.183	3.0
67.198	5.0
67.214	2.0
67.229	4.0
67.244	4.0
67.259	0.0
67.274	2.0
67.289	3.0
67.304	4.0
67.319	2.0
67.334	4.0
67.349	3.0
67.364	1.0
67.379	0.0
67.394	4.0
67.409	2.0
67.424	6.0
67.439	3.0
67.454	4.0
67.469	7.0
67.484	2.0
67.5	5.0
67.515	3.0
67.53	5.0
67.545	3.0
67.56	6.0
67.575	2.0
67.59	2.0
67.605	5.0
67.62	1.0
67.635	2.0
67.65	8.0
67.665	3.0
67.68	3.0
67.695	5.0
67.71	6.0
67.726	4.0
67.741	5.0
67.756	1.0
67.771	2.0
67.786	3.0
67.801	5.0
67.816	0.0
67.831	2.0
67.846	2.0
67.861	2.0
67.876	3.0
67.891	4.0
67.906	2.0
67.922	4.0
67.937	3.0
67.952	4.0
67.967	4.0
67.982	3.0
67.997	5.0
68.012	5.0
68.027	5.0
68.042	7.0
68.057	6.0
68.072	2.0
68.087	4.0
68.103	6.0
68.118	3.0
68.133	3.0
68.148	1.0
68.163	3.0
68.178	2.0
68.193	4.0
68.208	3.0
68.223	3.0
68.238	3.0
68.254	1.0
68.269	4.0
68.284	4.0
68.299	6.0
68.314	1.0
68.329	8.0
68.344	3.0
68.359	5.0
68.374	1.0
68.389	1.0
68.405	4.0
68.42	3.0
68.435	3.0
68.45	4.0
68.465	6.0
68.48	3.0
68.495	5.0
68.51	5.0
68.525	4.0
68.54	4.0
68.556	4.0
68.571	6.0
68.586	4.0
68.601	4.0
68.616	6.0
68.631	1.0
68.646	4.0
68.661	0.0
68.676	3.0
68.691	3.0
68.707	1.0
68.722	3.0
68.737	8.0
68.752	5.0
68.767	3.0
68.782	5.0
68.797	3.0
68.812	1.0
68.827	3.0
68.842	4.0
68.857	7.0
68.873	2.0
68.888	4.0
68.903	8.0
68.918	3.0
68.933	1.0
68.948	5.0
68.963	4.0
68.978	5.0
68.993	2.0
69.008	3.0
69.023	4.0
69.038	0.0
69.054	3.0
69.069	1.0
69.084	4.0
69.099	2.0
69.114	5.0
69.129	4.0
69.144	5.0
69.159	3.0
69.174	6.0
69.189	1.0
69.204	2.0
69.219	3.0
69.234	4.0
69.249	2.0
69.264	2.0
69.279	3.0
69.295	4.0
69.31	6.0
69.325	7.0
69.34	3.0
69.355	4.0
69.37	4.0
69.385	3.0
69.4	2.0
69.415	3.0
69.43	2.0
69.445	6.0
69.46	3.0
69.475	3.0
69.49	2.0
69.505	4.0
69.52	3.0
69.535	2.0
69.55	4.0
69.565	5.0
69.58	6.0
69.595	3.0
69.61	4.0
69.625	2.0
69.64	5.0
69.655	5.0
69.67	5.0
69.685	4.0
69.7	3.0
69.715	3.0
69.73	3.0
69.745	3.0
69.76	6.0
69.775	5.0
69.79	9.0
69.805	5.0
69.82	11.0
69.835	6.0
69.85	9.0
69.865	7.0
69.88	3.0
69.895	3.0
69.909	3.0
69.924	2.0
69.939	4.0
69.954	3.0
69.969	5.0
69.984	3.0
69.999	2.0
70.014	3.0
70.029	1.0
70.044	4.0
70.059	2.0
70.074	3.0
70.088	2.0
70.103	6.0
70.118	4.0
70.133	4.0
70.148	5.0
70.163	2.0
70.178	2.0
70.193	4.0
70.208	4.0
70.222	4.0
70.237	4.0
70.252	7.0
70.267	6.0
70.282	11.0
70.297	6.0
70.312	3.0
70.327	3.0
70.341	5.0
70.356	2.0
70.371	3.0
70.386	3.0
70.401	3.0
70.416	3.0
70.43	0.0
70.445	5.0
70.46	2.0
70.475	4.0
70.49	4.0
70.505	1.0
70.519	5.0
70.534	7.0
70.549	5.0
70.564	3.0
70.579	2.0
70.594	7.0
70.608	8.0
70.623	4.0
70.638	6.0
70.653	2.0
70.668	2.0
70.683	4.0
70.697	4.0
70.712	6.0
70.727	6.0
70.742	4.0
70.757	0.0
70.771	8.0
70.786	6.0
70.801	5.0
70.816	6.0
70.831	3.0
70.845	5.0
70.86	5.0
70.875	5.0
70.89	5.0
70.905	2.0
70.92	7.0
70.934	4.0
70.949	3.0
70.964	3.0
70.979	1.0
70.994	4.0
71.008	3.0
71.023	2.0
71.038	7.0
71.053	4.0
71.068	3.0
71.082	3.0
71.097	5.0
71.112	2.0
71.127	3.0
71.142	5.0
71.156	6.0
71.171	2.0
71.186	2.0
71.201	6.0
71.216	2.0
71.231	7.0
71.245	3.0
71.26	9.0
71.275	6.0
71.29	3.0
71.305	4.0
71.319	5.0
71.334	3.0
71.349	1.0
71.364	3.0
71.379	5.0
71.394	3.0
71.408	3.0
71.423	2.0
71.438	2.0
71.453	4.0
71.468	2.0
71.483	3.0
71.497	1.0
71.512	8.0
71.527	2.0
71.542	4.0
71.557	2.0
71.572	1.0
71.586	1.0
71.601	4.0
71.616	4.0
71.631	5.0
71.646	5.0
71.661	4.0
71.676	4.0
71.69	4.0
71.705	2.0
71.72	5.0
71.735	5.0
71.75	3.0
71.765	7.0
71.78	3.0
71.795	8.0
71.81	5.0
71.824	2.0
71.839	3.0
71.854	5.0
71.869	5.0
71.884	2.0
71.899	3.0
71.914	2.0
71.929	2.0
71.944	3.0
71.959	3.0
71.974	6.0
71.988	4.0
72.003	2.0
72.018	6.0
72.033	2.0
72.048	1.0
72.063	2.0
72.078	6.0
72.093	4.0
72.108	4.0
72.123	2.0
72.138	2.0
72.153	5.0
72.168	1.0
72.183	4.0
72.198	4.0
72.213	5.0
72.228	2.0
72.243	5.0
72.258	0.0
72.273	3.0
72.288	6.0
72.303	4.0
72.318	2.0
72.333	3.0
72.348	5.0
72.363	3.0
72.378	3.0
72.393	4.0
72.408	1.0
72.423	5.0
72.438	7.0
72.453	6.0
72.468	5.0
72.483	4.0
72.498	10.0
72.513	0.0
72.528	5.0
72.543	2.0
72.558	4.0
72.573	4.0
72.588	2.0
72.603	2.0
72.618	2.0
72.633	2.0
72.649	1.0
72.664	2.0
72.679	0.0
72.694	3.0
72.709	5.0
72.724	1.0
72.739	1.0
72.754	5.0
72.769	3.0
72.784	0.0
72.799	1.0
72.814	3.0
72.829	1.0
72.845	3.0
72.86	7.0
72.875	5.0
72.89	2.0
72.905	1.0
72.92	5.0
72.935	4.0
72.95	5.0
72.965	6.0
72.98	6.0
72.996	8.0
73.011	4.0
73.026	2.0
73.041	5.0
73.056	4.0
73.071	1.0
73.086	3.0
73.101	5.0
73.117	0.0
73.132	5.0
73.147	2.0
73.162	0.0
73.177	2.0
73.192	6.0
73.207	3.0
73.222	5.0
73.238	6.0
73.253	7.0
73.268	4.0
73.283	4.0
73.298	8.0
73.313	10.0
73.328	6.0
73.343	6.0
73.359	2.0
73.374	3.0
73.389	5.0
73.404	5.0
73.419	2.0
73.434	6.0
73.449	1.0
73.465	1.0
73.48	4.0
73.495	3.0
73.51	4.0
73.525	3.0
73.54	1.0
73.556	2.0
73.571	7.0
73.586	4.0
73.601	2.0
73.616	3.0
73.631	3.0
73.646	4.0
73.662	3.0
73.677	3.0
73.692	2.0
73.707	4.0
73.722	2.0
73.737	2.0
73.752	6.0
73.768	2.0
73.783	3.0
73.798	4.0
73.813	2.0
73.828	5.0
73.843	4.0
73.859	6.0
73.874	3.0
73.889	2.0
73.904	4.0
73.919	5.0
73.934	5.0
73.949	3.0
73.965	2.0
73.98	3.0
73.995	3.0
74.01	4.0
74.025	1.0
74.04	4.0
74.056	6.0
74.071	7.0
74.086	2.0
74.101	6.0
74.116	6.0
74.131	5.0
74.146	6.0
74.162	5.0
74.177	10.0
74.192	6.0
74.207	5.0
74.222	6.0
74.237	6.0
74.252	3.0
74.268	2.0
74.283	3.0
74.298	4.0
74.313	4.0
74.328	3.0
74.343	5.0
74.358	7.0
74.374	4.0
74.389	0.0
74.404	3.0
74.419	7.0
74.434	3.0
74.449	2.0
74.464	2.0
74.48	3.0
74.495	5.0
74.51	4.0
74.525	4.0
74.54	7.0
74.555	4.0
74.57	9.0
74.586	4.0
74.601	5.0
74.616	6.0
74.631	3.0
74.646	5.0
74.661	8.0
74.676	5.0
74.691	5.0
74.707	7.0
74.722	8.0
74.737	5.0
74.752	4.0
74.767	6.0
74.782	4.0
74.797	2.0
74.813	2.0
74.828	5.0
74.843	6.0
74.858	1.0
74.873	1.0
74.888	3.0
74.903	4.0
74.918	8.0
74.934	3.0
74.949	4.0
74.964	2.0
74.979	6.0
74.994	4.0
75.009	4.0
75.024	6.0
75.04	5.0
75.055	4.0
75.07	5.0
75.085	7.0
75.1	3.0
75.115	3.0
75.13	3.0
75.145	2.0
75.161	2.0
75.176	2.0
75.191	3.0
75.206	5.0
75.221	3.0
75.236	2.0
75.251	3.0
75.266	4.0
75.282	8.0
75.297	3.0
75.312	2.0
75.327	3.0
75.342	1.0
75.357	2.0
75.372	3.0
75.387	0.0
75.403	3.0
75.418	0.0
75.433	3.0
75.448	1.0
75.463	2.0
75.478	6.0
75.493	5.0
75.509	4.0
75.524	6.0
75.539	4.0
75.554	5.0
75.569	2.0
75.584	5.0
75.599	6.0
75.614	7.0
75.63	4.0
75.645	3.0
75.66	2.0
75.675	2.0
75.69	3.0
75.705	4.0
75.72	6.0
75.735	7.0
75.751	2.0
75.766	1.0
75.781	4.0
75.796	2.0
75.811	6.0
75.826	5.0
75.841	5.0
75.856	5.0
75.872	6.0
75.887	6.0
75.902	3.0
75.917	5.0
75.932	4.0
75.947	5.0
75.962	2.0
75.977	2.0
75.993	7.0
76.008	5.0
76.023	4.0
76.038	4.0
76.053	3.0
76.068	4.0
76.083	3.0
76.098	5.0
76.114	3.0
76.129	3.0
76.144	2.0
76.159	5.0
76.174	2.0
76.189	4.0
76.204	3.0
76.22	1.0
76.235	3.0
76.25	2.0
76.265	4.0
76.28	1.0
76.295	2.0
76.31	1.0
76.325	3.0
76.341	3.0
76.356	2.0
76.371	4.0
76.386	1.0
76.401	4.0
76.416	4.0
76.431	2.0
76.446	3.0
76.462	1.0
76.477	5.0
76.492	2.0
76.507	2.0
76.522	5.0
76.537	3.0
76.552	3.0
76.567	1.0
76.583	2.0
76.598	2.0
76.613	2.0
76.628	3.0
76.643	3.0
76.658	7.0
76.673	4.0
76.688	2.0
76.704	8.0
76.719	4.0
76.734	1.0
76.749	6.0
76.764	4.0
76.779	7.0
76.794	9.0
76.809	3.0
76.824	2.0
76.84	2.0
76.855	3.0
76.87	3.0
76.885	3.0
76.9	4.0
76.915	5.0
76.93	2.0
76.945	5.0
76.96	2.0
76.976	3.0
76.991	5.0
77.006	4.0
77.021	3.0
77.036	1.0
77.051	3.0
77.066	5.0
77.081	3.0
77.096	6.0
77.112	3.0
77.127	5.0
77.142	3.0
77.157	5.0
77.172	2.0
77.187	3.0
77.202	6.0
77.217	3.0
77.232	3.0
77.247	4.0
77.263	1.0
77.278	2.0
77.293	6.0
77.308	3.0
77.323	4.0
77.338	1.0
77.353	4.0
77.368	7.0
77.383	6.0
77.398	2.0
77.413	2.0
77.428	3.0
77.444	3.0
77.459	4.0
77.474	6.0
77.489	1.0
77.504	7.0
77.519	6.0
77.534	3.0
77.549	4.0
77.564	7.0
77.579	3.0
77.594	5.0
77.609	7.0
77.624	3.0
77.64	5.0
77.655	10.0
77.67	5.0
77.685	5.0
77.7	3.0
77.715	5.0
77.73	5.0
77.745	5.0
77.76	4.0
77.775	4.0
77.79	6.0
77.805	4.0
77.82	5.0
77.835	4.0
77.85	5.0
77.865	2.0
77.88	1.0
77.895	3.0
77.91	4.0
77.926	3.0
77.941	5.0
77.956	3.0
77.971	2.0
77.986	2.0
78.001	9.0
78.016	3.0
78.031	2.0
78.046	2.0
78.061	3.0
78.076	3.0
78.091	3.0
78.106	5.0
78.121	3.0
78.136	3.0
78.151	2.0
78.166	1.0
78.181	1.0
78.196	4.0
78.211	6.0
78.226	3.0
78.241	4.0
78.256	1.0
78.271	3.0
78.286	5.0
78.301	6.0
78.316	3.0
78.331	5.0
78.346	2.0
78.361	4.0
78.376	5.0
78.391	1.0
78.406	3.0
78.421	4.0
78.436	7.0
78.451	2.0
78.466	2.0
78.481	2.0
78.496	3.0
78.511	4.0
78.526	3.0
78.541	7.0
78.556	1.0
78.571	3.0
78.586	4.0
78.601	4.0
78.616	2.0
78.631	5.0
78.646	1.0
78.661	2.0
78.676	3.0
78.691	3.0
78.706	2.0
78.721	6.0
78.736	1.0
78.751	1.0
78.766	4.0
78.781	0.0
78.796	3.0
78.811	0.0
78.826	1.0
78.841	2.0
78.856	2.0
78.871	1.0
78.885	4.0
78.9	7.0
78.915	1.0
78.93	3.0
78.945	2.0
78.96	2.0
78.975	2.0
78.99	0.0
79.005	2.0
79.02	2.0
79.035	2.0
79.05	5.0
79.065	2.0
79.08	2.0
79.095	7.0
79.11	3.0
79.125	2.0
79.14	2.0
79.155	0.0
79.17	7.0
79.185	3.0
79.2	2.0
79.215	5.0
79.23	1.0
79.245	3.0
79.26	7.0
79.275	2.0
79.29	0.0
79.304	2.0
79.319	4.0
79.334	3.0
79.349	2.0
79.364	3.0
79.379	1.0
79.394	2.0
79.409	2.0
79.424	6.0
79.439	3.0
79.454	6.0
79.469	4.0
79.484	2.0
79.499	4.0
79.514	3.0
79.529	2.0
79.544	3.0
79.559	4.0
79.574	4.0
79.589	3.0
79.604	1.0
79.619	3.0
79.634	2.0
79.649	3.0
79.664	2.0
79.679	0.0
79.693	8.0
79.708	1.0
79.723	3.0
79.738	1.0
79.753	1.0
79.768	3.0
79.783	4.0
79.798	3.0
79.813	1.0
79.828	2.0
79.843	4.0
79.858	3.0
79.873	5.0
79.888	3.0
79.903	0.0
79.918	2.0
79.933	3.0
79.948	1.0
79.963	6.0
79.978	5.0
79.993	3.0
80.008	6.0
80.023	2.0
80.038	2.0
80.053	2.0
80.068	3.0
80.083	2.0
80.098	3.0
80.113	4.0
80.128	2.0
80.143	4.0
80.158	3.0
80.173	6.0
80.188	5.0
80.202	4.0
80.217	3.0
80.232	6.0
80.247	7.0
80.262	3.0
80.277	5.0
80.292	3.0
80.307	3.0
80.322	3.0
80.337	4.0
80.352	5.0
80.367	6.0
80.382	4.0
80.397	2.0
80.412	4.0
80.427	0.0
80.442	4.0
80.457	7.0
80.472	3.0
80.487	3.0
80.502	1.0
80.517	5.0
80.532	3.0
80.547	2.0
80.562	3.0
80.577	2.0
80.592	2.0
80.607	3.0
80.622	2.0
80.637	1.0
80.652	3.0
80.667	1.0
80.682	8.0
80.697	4.0
80.712	3.0
80.727	4.0
80.742	4.0
80.757	3.0
80.772	2.0
80.787	2.0
80.802	5.0
80.817	4.0
80.832	3.0
80.847	1.0
80.862	3.0
80.877	2.0
80.892	9.0
80.907	4.0
80.922	4.0
80.937	4.0
80.952	7.0
80.967	1.0
80.982	5.0
80.997	4.0
81.012	3.0
81.027	6.0
81.042	4.0
81.057	1.0
81.072	1.0
81.087	2.0
81.101	1.0
81.116	1.0
81.131	5.0
81.146	3.0
81.161	3.0
81.176	5.0
81.191	1.0
81.206	2.0
81.221	2.0
81.236	5.0
81.251	5.0
81.266	4.0
81.281	4.0
81.296	1.0
81.311	1.0
81.326	3.0
81.341	1.0
81.356	4.0
81.371	1.0
81.386	5.0
81.401	2.0
81.416	1.0
81.431	6.0
81.446	4.0
81.461	0.0
81.476	3.0
81.491	4.0
81.506	3.0
81.521	2.0
81.536	0.0
81.55	4.0
81.565	0.0
81.58	1.0
81.595	6.0
81.61	4.0
81.625	6.0
81.64	5.0
81.655	2.0
81.67	4.0
81.685	6.0
81.7	0.0
81.715	3.0
81.73	4.0
81.745	9.0
81.76	7.0
81.775	4.0
81.79	1.0
81.805	2.0
81.819	3.0
81.834	3.0
81.849	5.0
81.864	4.0
81.879	4.0
81.894	3.0
81.909	4.0
81.924	5.0
81.939	3.0
81.954	2.0
81.969	7.0
81.984	3.0
81.999	2.0
82.013	5.0
82.028	5.0
82.043	4.0
82.058	5.0
82.073	3.0
82.088	2.0
82.103	2.0
82.118	2.0
82.133	2.0
82.148	8.0
82.163	2.0
82.177	4.0
82.192	2.0
82.207	4.0
82.222	2.0
82.237	2.0
82.252	1.0
82.267	2.0
82.282	8.0
82.297	1.0
82.312	2.0
82.326	1.0
82.341	5.0
82.356	2.0
82.371	0.0
82.386	5.0
82.401	0.0
82.416	4.0
82.431	1.0
82.445	7.0
82.46	4.0
82.475	2.0
82.49	4.0
82.505	4.0
82.52	2.0
82.535	3.0
82.55	4.0
82.565	1.0
82.579	2.0
82.594	4.0
82.609	4.0
82.624	3.0
82.639	2.0
82.654	2.0
82.669	1.0
82.684	3.0
82.698	2.0
82.713	4.0
82.728	3.0
82.743	3.0
82.758	2.0
82.773	1.0
82.788	1.0
82.803	5.0
82.817	3.0
82.832	3.0
82.847	4.0
82.862	4.0
82.877	4.0
82.892	2.0
82.907	9.0
82.922	2.0
82.937	1.0
82.951	1.0
82.966	0.0
82.981	3.0
82.996	2.0
83.011	3.0
83.026	1.0
83.041	1.0
83.056	3.0
83.07	2.0
83.085	6.0
83.1	3.0
83.115	0.0
83.13	6.0
83.145	1.0
83.16	3.0
83.175	2.0
83.19	6.0
83.204	2.0
83.219	3.0
83.234	0.0
83.249	3.0
83.264	5.0
83.279	5.0
83.294	3.0
83.309	1.0
83.324	8.0
83.339	2.0
83.353	6.0
83.368	3.0
83.383	2.0
83.398	3.0
83.413	3.0
83.428	2.0
83.443	1.0
83.458	1.0
83.473	3.0
83.488	6.0
83.503	4.0
83.517	2.0
83.532	3.0
83.547	5.0
83.562	2.0
83.577	2.0
83.592	4.0
83.607	5.0
83.622	2.0
83.637	4.0
83.652	1.0
83.667	1.0
83.682	1.0
83.697	4.0
83.712	4.0
83.727	3.0
83.741	2.0
83.756	2.0
83.771	4.0
83.786	4.0
83.801	1.0
83.816	2.0
83.831	4.0
83.846	3.0
83.861	3.0
83.876	3.0
83.891	2.0
83.906	1.0
83.921	3.0
83.936	2.0
83.951	2.0
83.966	3.0
83.981	3.0
83.996	5.0
84.011	1.0
84.026	4.0
84.041	3.0
84.056	3.0
84.071	1.0
84.086	3.0
84.101	7.0
84.116	3.0
84.131	2.0
84.146	4.0
84.161	4.0
84.176	5.0
84.191	2.0
84.206	2.0
84.221	5.0
84.236	4.0
84.251	2.0
84.266	1.0
84.281	2.0
84.296	2.0
84.311	1.0
84.326	3.0
84.341	3.0
84.356	4.0
84.371	7.0
84.386	2.0
84.401	7.0
84.416	5.0
84.431	2.0
84.446	2.0
84.461	1.0
84.476	4.0
84.492	4.0
84.507	3.0
84.522	1.0
84.537	3.0
84.552	1.0
84.567	4.0
84.582	4.0
84.597	3.0
84.612	3.0
84.627	2.0
84.642	1.0
84.657	1.0
84.672	2.0
84.687	2.0
84.702	6.0
84.717	1.0
84.733	5.0
84.748	0.0
84.763	2.0
84.778	1.0
84.793	2.0
84.808	2.0
84.823	3.0
84.838	5.0
84.853	2.0
84.868	2.0
84.883	3.0
84.898	2.0
84.913	4.0
84.929	1.0
84.944	5.0
84.959	4.0
84.974	2.0
84.989	5.0
85.004	1.0
85.019	1.0
85.034	3.0
85.049	1.0
85.064	3.0
85.079	3.0
85.094	3.0
85.11	4.0
85.125	3.0
85.14	3.0
85.155	2.0
85.17	0.0
85.185	3.0
85.2	1.0
85.215	3.0
85.23	4.0
85.245	4.0
85.26	3.0
85.276	2.0
85.291	2.0
85.306	2.0
85.321	1.0
85.336	3.0
85.351	4.0
85.366	6.0
85.381	2.0
85.396	7.0
85.411	3.0
85.426	5.0
85.441	2.0
85.457	5.0
85.472	0.0
85.487	2.0
85.502	1.0
85.517	5.0
85.532	3.0
85.547	1.0
85.562	4.0
85.577	4.0
85.592	4.0
85.607	2.0
85.622	5.0
85.637	7.0
85.653	8.0
85.668	2.0
85.683	2.0
85.698	2.0
85.713	3.0
85.728	4.0
85.743	3.0
85.758	2.0
85.773	1.0
85.788	2.0
85.803	2.0
85.818	3.0
85.833	2.0
85.848	2.0
85.863	4.0
85.879	5.0
85.894	2.0
85.909	0.0
85.924	2.0
85.939	3.0
85.954	2.0
85.969	3.0
85.984	2.0
85.999	7.0
86.014	4.0
86.029	2.0
86.044	3.0
86.059	2.0
86.074	4.0
86.089	4.0
86.104	1.0
86.119	0.0
86.134	5.0
86.149	2.0
86.164	3.0
86.179	1.0
86.194	2.0
86.209	4.0
86.224	2.0
86.239	4.0
86.254	3.0
86.269	0.0
86.284	1.0
86.299	2.0
86.314	2.0
86.33	2.0
86.345	3.0
86.36	2.0
86.375	6.0
86.39	1.0
86.405	0.0
86.42	1.0
86.435	4.0
86.45	0.0
86.465	5.0
86.48	4.0
86.495	6.0
86.51	4.0
86.525	1.0
86.54	5.0
86.555	3.0
86.57	3.0
86.585	1.0
86.6	3.0
86.615	2.0
86.63	4.0
86.645	2.0
86.659	2.0
86.674	3.0
86.689	3.0
86.704	2.0
86.719	5.0
86.734	1.0
86.749	4.0
86.764	3.0
86.779	0.0
86.794	2.0
86.809	6.0
86.824	2.0
86.839	2.0
86.854	7.0
86.869	4.0
86.884	8.0
86.899	10.0
86.914	3.0
86.929	6.0
86.944	6.0
86.959	3.0
86.974	3.0
86.989	5.0
87.004	6.0
87.019	5.0
87.034	3.0
87.049	1.0
87.064	6.0
87.079	4.0
87.094	6.0
87.109	4.0
87.124	8.0
87.139	5.0
87.154	5.0
87.169	3.0
87.184	3.0
87.199	3.0
87.214	2.0
87.229	6.0
87.244	2.0
87.259	4.0
87.274	2.0
87.289	6.0
87.304	3.0
87.319	2.0
87.334	3.0
87.349	3.0
87.364	3.0
87.379	3.0
87.394	3.0
87.409	1.0
87.424	3.0
87.438	1.0
87.453	4.0
87.468	2.0
87.483	3.0
87.498	3.0
87.513	5.0
87.528	4.0
87.543	5.0
87.558	4.0
87.573	4.0
87.588	3.0
87.603	1.0
87.618	3.0
87.633	5.0
87.648	8.0
87.663	4.0
87.678	4.0
87.693	2.0
87.708	2.0
87.723	2.0
87.738	4.0
87.753	3.0
87.768	1.0
87.783	4.0
87.798	9.0
87.813	5.0
87.828	5.0
87.843	7.0
87.858	8.0
87.873	2.0
87.888	5.0
87.903	2.0
87.918	1.0
87.933	2.0
87.948	2.0
87.963	3.0
87.978	1.0
87.993	2.0
88.008	1.0
88.023	3.0
88.038	1.0
88.053	2.0
88.068	5.0
88.083	1.0
88.098	4.0
88.113	2.0
88.128	4.0
88.143	2.0
88.158	4.0
88.174	4.0
88.189	2.0
88.204	5.0
88.219	3.0
88.234	6.0
88.249	3.0
88.264	5.0
88.279	0.0
88.294	5.0
88.309	3.0
88.324	6.0
88.339	6.0
88.354	3.0
88.369	4.0
88.384	6.0
88.399	8.0
88.414	3.0
88.429	3.0
88.444	3.0
88.459	4.0
88.474	3.0
88.489	2.0
88.504	4.0
88.519	5.0
88.534	5.0
88.549	4.0
88.564	3.0
88.58	5.0
88.595	1.0
88.61	1.0
88.625	3.0
88.64	3.0
88.655	6.0
88.67	2.0
88.685	6.0
88.7	1.0
88.715	1.0
88.73	3.0
88.745	2.0
88.76	2.0
88.775	1.0
88.79	0.0
88.805	3.0
88.82	4.0
88.835	2.0
88.85	1.0
88.865	5.0
88.88	1.0
88.895	3.0
88.911	1.0
88.926	1.0
88.941	5.0
88.956	2.0
88.971	2.0
88.986	2.0
89.001	3.0
89.016	6.0
89.031	3.0
89.046	5.0
89.061	4.0
89.076	2.0
89.091	0.0
89.106	4.0
89.121	3.0
89.136	4.0
89.151	3.0
89.166	3.0
89.181	4.0
89.196	3.0
89.211	1.0
89.227	3.0
89.242	3.0
89.257	3.0
89.272	3.0
89.287	5.0
89.302	4.0
89.317	4.0
89.332	1.0
89.347	3.0
89.362	1.0
89.377	6.0
89.392	2.0
89.407	4.0
89.422	2.0
89.437	7.0
89.452	2.0
89.467	7.0
89.482	4.0
89.497	1.0
89.512	2.0
89.527	2.0
89.542	4.0
89.557	8.0
89.572	2.0
89.587	2.0
89.602	2.0
89.617	4.0
89.632	7.0
89.647	3.0
89.662	2.0
89.677	1.0
89.693	5.0
89.708	4.0
89.723	2.0
89.738	2.0
89.753	8.0
89.768	3.0
89.783	2.0
89.798	4.0
89.813	0.0
89.828	2.0
89.843	3.0
89.858	2.0
89.873	0.0
89.888	3.0
89.903	3.0
89.918	2.0
89.933	3.0
89.948	3.0
89.963	6.0
89.978	1.0
89.993	2.0
90.008	5.0
90.023	2.0
90.038	6.0
90.053	2.0
90.068	2.0
90.083	4.0
90.097	5.0
90.112	2.0
90.127	3.0
90.142	2.0
90.157	4.0
90.172	5.0
90.187	4.0
90.202	1.0
90.217	3.0
90.232	3.0
90.247	8.0
90.262	5.0
90.277	2.0
90.292	2.0
90.307	4.0
90.322	5.0
90.337	2.0
90.352	4.0
90.367	3.0
90.382	2.0
90.397	2.0
90.412	2.0
90.427	4.0
90.442	2.0
90.457	5.0
90.472	5.0
90.487	2.0
90.501	6.0
90.516	3.0
90.531	3.0
90.546	3.0
90.561	3.0
90.576	5.0
90.591	0.0
90.606	1.0
90.621	0.0
90.636	6.0
90.651	0.0
90.666	4.0
90.681	3.0
90.696	2.0
90.711	5.0
90.726	3.0
90.741	4.0
90.755	4.0
90.77	1.0
90.785	3.0
90.8	4.0
90.815	2.0
90.83	1.0
90.845	3.0
90.86	6.0
90.875	3.0
90.89	3.0
90.905	7.0
90.92	4.0
90.935	5.0
90.95	0.0
90.965	3.0
90.979	7.0
90.994	2.0
91.009	2.0
91.024	4.0
91.039	4.0
91.054	4.0
91.069	4.0
91.084	6.0
91.099	1.0
91.114	1.0
91.129	1.0
91.144	6.0
91.159	2.0
91.174	6.0
91.188	3.0
91.203	4.0
91.218	2.0
91.233	3.0
91.248	3.0
91.263	0.0
91.278	3.0
91.293	1.0
91.308	6.0
91.323	0.0
91.338	5.0
91.353	1.0
91.368	2.0
91.383	3.0
91.398	1.0
91.412	3.0
91.427	5.0
91.442	5.0
91.457	2.0
91.472	1.0
91.487	4.0
91.502	0.0
91.517	3.0
91.532	2.0
91.547	1.0
91.562	2.0
91.577	1.0
91.592	2.0
91.607	1.0
91.622	2.0
91.637	4.0
91.652	4.0
91.666	3.0
91.681	2.0
91.696	3.0
91.711	3.0
91.726	6.0
91.741	5.0
91.756	4.0
91.771	1.0
91.786	1.0
91.801	1.0
91.816	2.0
91.831	5.0
91.846	2.0
91.861	1.0
91.876	1.0
91.891	5.0
91.906	5.0
91.921	3.0
91.936	1.0
91.951	5.0
91.966	2.0
91.981	3.0
91.995	1.0
92.01	0.0
92.025	3.0
92.04	6.0
92.055	6.0
92.07	3.0
92.085	1.0
92.1	0.0
92.115	4.0
92.13	1.0
92.145	2.0
92.16	5.0
92.175	2.0
92.19	4.0
92.205	4.0
92.22	4.0
92.235	3.0
92.25	1.0
92.265	1.0
92.28	4.0
92.295	10.0
92.31	3.0
92.325	1.0
92.34	0.0
92.355	2.0
92.37	3.0
92.385	3.0
92.4	2.0
92.415	0.0
92.43	4.0
92.445	9.0
92.46	7.0
92.475	2.0
92.49	2.0
92.505	1.0
92.52	1.0
92.535	4.0
92.55	4.0
92.565	4.0
92.58	4.0
92.595	6.0
92.61	3.0
92.625	3.0
92.64	1.0
92.655	2.0
92.67	4.0
92.685	2.0
92.7	1.0
92.715	4.0
92.73	1.0
92.745	1.0
92.76	2.0
92.775	3.0
92.79	4.0
92.805	6.0
92.82	0.0
92.835	2.0
92.85	3.0
92.865	3.0
92.88	3.0
92.895	3.0
92.91	4.0
92.925	4.0
92.94	8.0
92.955	3.0
92.97	4.0
92.985	1.0
93.0	4.0
93.015	6.0
93.03	3.0
93.045	5.0
93.06	4.0
93.075	3.0
93.09	7.0
93.105	2.0
93.12	4.0
93.135	3.0
93.15	1.0
93.165	2.0
93.18	2.0
93.195	3.0
93.21	4.0
93.225	5.0
93.24	1.0
93.255	2.0
93.27	0.0
93.285	1.0
93.3	8.0
93.315	4.0
93.33	4.0
93.345	3.0
93.36	3.0
93.375	9.0
93.39	4.0
93.405	2.0
93.42	4.0
93.435	2.0
93.45	3.0
93.465	5.0
93.48	4.0
93.495	8.0
93.51	1.0
93.525	1.0
93.54	3.0
93.555	3.0
93.57	3.0
93.585	4.0
93.6	1.0
93.615	4.0
93.63	2.0
93.645	5.0
93.66	6.0
93.675	3.0
93.69	3.0
93.705	5.0
93.72	3.0
93.735	3.0
93.75	1.0
93.765	1.0
93.78	2.0
93.795	1.0
93.81	2.0
93.824	3.0
93.839	0.0
93.854	2.0
93.869	0.0
93.884	4.0
93.899	2.0
93.914	0.0
93.929	6.0
93.944	1.0
93.959	0.0
93.974	1.0
93.989	4.0
94.004	3.0
94.019	6.0
94.034	6.0
94.049	0.0
94.064	3.0
94.079	4.0
94.094	2.0
94.108	5.0
94.123	5.0
94.138	1.0
94.153	2.0
94.168	2.0
94.183	5.0
94.198	3.0
94.213	4.0
94.228	1.0
94.243	4.0
94.258	7.0
94.273	1.0
94.288	2.0
94.302	5.0
94.317	4.0
94.332	6.0
94.347	2.0
94.362	7.0
94.377	5.0
94.392	3.0
94.407	8.0
94.422	8.0
94.437	7.0
94.452	5.0
94.466	6.0
94.481	4.0
94.496	3.0
94.511	3.0
94.526	4.0
94.541	1.0
94.556	3.0
94.571	2.0
94.586	1.0
94.601	2.0
94.615	4.0
94.63	3.0
94.645	5.0
94.66	2.0
94.675	1.0
94.69	6.0
94.705	3.0
94.72	2.0
94.735	7.0
94.749	5.0
94.764	3.0
94.779	4.0
94.794	4.0
94.809	1.0
94.824	3.0
94.839	3.0
94.854	0.0
94.868	2.0
94.883	6.0
94.898	3.0
94.913	7.0
94.928	4.0
94.943	3.0
94.958	1.0
94.973	4.0
94.987	1.0
95.002	2.0
95.017	3.0
95.032	1.0
95.047	1.0
95.062	8.0
95.077	3.0
95.092	7.0
95.106	1.0
95.121	1.0
95.136	5.0
95.151	4.0
95.166	2.0
95.181	6.0
95.196	7.0
95.211	4.0
95.226	6.0
95.24	7.0
95.255	7.0
95.27	3.0
95.285	5.0
95.3	0.0
95.315	6.0
95.33	1.0
95.345	3.0
95.359	1.0
95.374	6.0
95.389	2.0
95.404	3.0
95.419	2.0
95.434	3.0
95.449	2.0
95.464	1.0
95.478	6.0
95.493	3.0
95.508	3.0
95.523	6.0
95.538	2.0
95.553	3.0
95.568	4.0
95.583	4.0
95.597	3.0
95.612	2.0
95.627	0.0
95.642	3.0
95.657	4.0
95.672	2.0
95.687	3.0
95.702	5.0
95.717	1.0
95.731	3.0
95.746	1.0
95.761	6.0
95.776	0.0
95.791	1.0
95.806	4.0
95.821	8.0
95.836	4.0
95.851	2.0
95.866	3.0
95.88	1.0
95.895	5.0
95.91	5.0
95.925	0.0
95.94	0.0
95.955	5.0
95.97	4.0
95.985	4.0
96.0	3.0
96.015	2.0
96.029	3.0
96.044	3.0
96.059	1.0
96.074	3.0
96.089	3.0
96.104	3.0
96.119	4.0
96.134	3.0
96.149	1.0
96.164	3.0
96.179	4.0
96.194	0.0
96.208	3.0
96.223	2.0
96.238	3.0
96.253	2.0
96.268	3.0
96.283	1.0
96.298	3.0
96.313	6.0
96.328	2.0
96.343	3.0
96.358	8.0
96.373	4.0
96.388	1.0
96.403	0.0
96.417	5.0
96.432	4.0
96.447	2.0
96.462	5.0
96.477	3.0
96.492	0.0
96.507	1.0
96.522	6.0
96.537	2.0
96.552	1.0
96.567	3.0
96.582	3.0
96.597	3.0
96.612	3.0
96.627	4.0
96.642	4.0
96.656	4.0
96.671	3.0
96.686	6.0
96.701	1.0
96.716	3.0
96.731	5.0
96.746	3.0
96.761	4.0
96.776	3.0
96.791	2.0
96.806	2.0
96.821	4.0
96.836	1.0
96.851	3.0
96.866	4.0
96.881	1.0
96.896	2.0
96.911	6.0
96.926	6.0
96.94	3.0
96.955	7.0
96.97	5.0
96.985	4.0
97.0	0.0
97.015	1.0
97.03	4.0
97.045	4.0
97.06	4.0
97.075	3.0
97.09	3.0
97.105	2.0
97.12	1.0
97.135	2.0
97.15	4.0
97.165	4.0
97.18	3.0
97.195	2.0
97.21	3.0
97.225	1.0
97.239	2.0
97.254	2.0
97.269	2.0
97.284	5.0
97.299	3.0
97.314	2.0
97.329	0.0
97.344	1.0
97.359	2.0
97.374	5.0
97.389	7.0
97.404	4.0
97.419	1.0
97.434	3.0
97.449	2.0
97.464	3.0
97.479	2.0
97.494	2.0
97.509	1.0
97.524	2.0
97.538	6.0
97.553	1.0
97.568	5.0
97.583	3.0
97.598	4.0
97.613	2.0
97.628	5.0
97.643	3.0
97.658	0.0
97.673	2.0
97.688	6.0
97.703	1.0
97.718	1.0
97.733	3.0
97.748	3.0
97.763	8.0
97.778	5.0
97.792	6.0
97.807	6.0
97.822	6.0
97.837	8.0
97.852	0.0
97.867	7.0
97.882	5.0
97.897	1.0
97.912	5.0
97.927	2.0
97.942	5.0
97.957	6.0
97.972	4.0
97.987	3.0
98.001	1.0
98.016	2.0
98.031	6.0
98.046	3.0
98.061	4.0
98.076	3.0
98.091	3.0
98.106	7.0
98.121	3.0
98.136	2.0
98.151	4.0
98.166	6.0
98.181	3.0
98.195	1.0
98.21	4.0
98.225	1.0
98.24	3.0
98.255	4.0
98.27	3.0
98.285	0.0
98.3	5.0
98.315	6.0
98.33	2.0
98.345	1.0
98.359	1.0
98.374	4.0
98.389	0.0
98.404	7.0
98.419	1.0
98.434	6.0
98.449	2.0
98.464	2.0
98.479	3.0
98.494	4.0
98.508	1.0
98.523	2.0
98.538	8.0
98.553	2.0
98.568	7.0
98.583	2.0
98.598	3.0
98.613	2.0
98.628	3.0
98.642	1.0
98.657	2.0
98.672	2.0
98.687	2.0
98.702	5.0
98.717	5.0
98.732	3.0
98.747	1.0
98.762	2.0
98.776	5.0
98.791	2.0
98.806	2.0
98.821	2.0
98.836	1.0
98.851	4.0
98.866	2.0
98.881	4.0
98.896	3.0
98.91	0.0
98.925	9.0
98.94	5.0
98.955	4.0
98.97	4.0
98.985	2.0
99.0	2.0
99.015	2.0
99.029	3.0
99.044	1.0
99.059	5.0
99.074	3.0
99.089	4.0
99.104	2.0
99.119	2.0
99.133	2.0
99.148	2.0
99.163	4.0
99.178	6.0
99.193	3.0
99.208	2.0
99.223	4.0
99.238	4.0
99.252	4.0
99.267	3.0
99.282	3.0
99.297	3.0
99.312	5.0
99.327	5.0
99.342	5.0
99.356	6.0
99.371	1.0
99.386	2.0
99.401	4.0
99.416	3.0
99.431	1.0
99.446	4.0
99.461	6.0
99.475	3.0
99.49	6.0
99.505	2.0
99.52	5.0
99.535	4.0
99.55	4.0
99.565	4.0
99.579	3.0
99.594	3.0
99.609	3.0
99.624	5.0
99.639	4.0
99.654	6.0
99.669	0.0
99.683	1.0
99.698	3.0
99.713	1.0
99.728	3.0
99.743	3.0
99.758	1.0
99.772	4.0
99.787	1.0
99.802	2.0
99.817	3.0
99.832	5.0
99.847	4.0
99.862	2.0
99.876	1.0
99.891	3.0
99.906	4.0
99.921	4.0
99.936	2.0
99.951	3.0
99.966	2.0
99.98	4.0
99.995	1.0
100.01	1.0
100.025	4.0
100.04	4.0
100.055	4.0
100.069	5.0
100.084	1.0
100.099	5.0
100.114	7.0
100.129	6.0
100.144	3.0
100.159	6.0
100.173	3.0
100.188	2.0
100.203	2.0
100.218	6.0
100.233	4.0
100.248	6.0
100.262	7.0
100.277	2.0
100.292	1.0
100.307	4.0
100.322	6.0
100.337	2.0
100.351	5.0
100.366	7.0
100.381	5.0
100.396	4.0
100.411	1.0
100.426	2.0
100.441	2.0
100.455	1.0
100.47	3.0
100.485	3.0
100.5	4.0
100.515	6.0
100.53	4.0
100.544	2.0
100.559	4.0
100.574	3.0
100.589	5.0
100.604	2.0
100.619	2.0
100.633	4.0
100.648	4.0
100.663	4.0
100.678	1.0
100.693	1.0
100.708	4.0
100.722	6.0
100.737	4.0
100.752	3.0
100.767	2.0
100.782	3.0
100.796	3.0
100.811	3.0
100.826	3.0
100.841	5.0
100.856	4.0
100.871	1.0
100.885	1.0
100.9	1.0
100.915	2.0
100.93	0.0
100.945	2.0
100.96	2.0
100.974	4.0
100.989	0.0
101.004	4.0
101.019	2.0
101.034	0.0
101.048	4.0
101.063	1.0
101.078	5.0
101.093	2.0
101.108	2.0
101.123	5.0
101.137	5.0
101.152	4.0
101.167	5.0
101.182	6.0
101.197	7.0
101.211	4.0
101.226	4.0
101.241	1.0
101.256	8.0
101.271	3.0
101.285	3.0
101.3	2.0
101.315	5.0
101.33	3.0
101.345	0.0
101.359	3.0
101.374	2.0
101.389	2.0
101.404	1.0
101.419	0.0
101.433	5.0
101.448	4.0
101.463	3.0
101.478	5.0
101.493	2.0
101.507	3.0
101.522	6.0
101.537	5.0
101.552	6.0
101.567	1.0
101.581	3.0
101.596	5.0
101.611	3.0
101.626	3.0
101.64	4.0
101.655	7.0
101.67	4.0
101.685	3.0
101.7	6.0
101.714	1.0
101.729	3.0
101.744	6.0
101.759	4.0
101.773	1.0
101.788	5.0
101.803	7.0
101.818	4.0
101.833	2.0
101.847	4.0
101.862	5.0
101.877	2.0
101.892	2.0
101.906	2.0
101.921	2.0
101.936	9.0
101.951	4.0
101.965	3.0
101.98	3.0
101.995	3.0
102.01	5.0
102.025	2.0
102.039	8.0
102.054	5.0
102.069	6.0
102.084	3.0
102.098	3.0
102.113	1.0
102.128	1.0
102.143	3.0
102.157	2.0
102.172	4.0
102.187	2.0
102.202	4.0
102.216	2.0
102.231	3.0
102.246	3.0
102.261	4.0
102.275	3.0
102.29	3.0
102.305	4.0
102.32	4.0
102.334	3.0
102.349	7.0
102.364	2.0
102.378	2.0
102.393	1.0
102.408	3.0
102.423	3.0
102.437	2.0
102.452	3.0
102.467	2.0
102.482	1.0
102.496	2.0
102.511	1.0
102.526	6.0
102.541	2.0
102.555	3.0
102.57	3.0
102.585	3.0
102.6	3.0
102.614	2.0
102.629	3.0
102.644	3.0
102.659	1.0
102.673	4.0
102.688	2.0
102.703	1.0
102.717	3.0
102.732	6.0
102.747	5.0
102.762	3.0
102.776	1.0
102.791	2.0
102.806	5.0
102.821	2.0
102.835	5.0
102.85	4.0
102.865	6.0
102.88	7.0
102.894	5.0
102.909	5.0
102.924	4.0
102.938	5.0
102.953	2.0
102.968	3.0
102.983	3.0
102.997	1.0
103.012	4.0
103.027	5.0
103.042	4.0
103.056	2.0
103.071	3.0
103.086	3.0
103.101	5.0
103.115	6.0
103.13	2.0
103.145	4.0
103.16	1.0
103.174	0.0
103.189	0.0
103.204	3.0
103.219	7.0
103.233	1.0
103.248	3.0
103.263	1.0
103.278	2.0
103.292	4.0
103.307	4.0
103.322	1.0
103.337	5.0
103.351	4.0
103.366	4.0
103.381	5.0
103.396	7.0
103.41	1.0
103.425	2.0
103.44	0.0
103.455	1.0
103.469	5.0
103.484	1.0
103.499	3.0
103.514	3.0
103.529	2.0
103.543	4.0
103.558	4.0
103.573	2.0
103.588	3.0
103.602	4.0
103.617	2.0
103.632	2.0
103.647	0.0
103.661	5.0
103.676	3.0
103.691	3.0
103.706	7.0
103.721	4.0
103.735	3.0
103.75	3.0
103.765	3.0
103.78	3.0
103.795	4.0
103.809	5.0
103.824	2.0
103.839	6.0
103.854	7.0
103.869	4.0
103.883	3.0
103.898	1.0
103.913	3.0
103.928	3.0
103.943	2.0
103.957	2.0
103.972	1.0
103.987	4.0
104.002	3.0
104.017	1.0
104.031	4.0
104.046	2.0
104.061	5.0
104.076	6.0
104.091	3.0
104.106	1.0
104.12	2.0
104.135	0.0
104.15	2.0
104.165	4.0
104.18	4.0
104.195	6.0
104.209	5.0
104.224	4.0
104.239	1.0
104.254	2.0
104.269	2.0
104.284	3.0
104.299	8.0
104.313	3.0
104.328	4.0
104.343	3.0
104.358	1.0
104.373	1.0
104.388	2.0
104.403	1.0
104.417	2.0
104.432	5.0
104.447	1.0
104.462	5.0
104.477	2.0
104.492	1.0
104.507	6.0
104.522	4.0
104.536	7.0
104.551	1.0
104.566	4.0
104.581	6.0
104.596	8.0
104.611	1.0
104.626	6.0
104.641	9.0
104.656	6.0
104.67	4.0
104.685	2.0
104.7	5.0
104.715	4.0
104.73	3.0
104.745	5.0
104.76	3.0
104.775	3.0
104.79	1.0
104.804	5.0
104.819	2.0
104.834	7.0
104.849	3.0
104.864	3.0
104.879	1.0
104.894	2.0
104.909	5.0
104.924	1.0
104.939	2.0
104.954	0.0
104.968	3.0
104.983	5.0
104.998	4.0
105.013	1.0
105.028	6.0
105.043	0.0
105.058	3.0
105.073	6.0
105.088	2.0
105.103	4.0
105.118	1.0
105.133	6.0
105.147	0.0
105.162	0.0
105.177	2.0
105.192	2.0
105.207	5.0
105.222	3.0
105.237	3.0
105.252	5.0
105.267	1.0
105.282	1.0
105.297	3.0
105.312	2.0
105.327	2.0
105.342	2.0
105.356	2.0
105.371	1.0
105.386	1.0
105.401	4.0
105.416	4.0
105.431	2.0
105.446	2.0
105.461	2.0
105.476	3.0
105.491	2.0
105.506	3.0
105.521	3.0
105.536	3.0
105.551	2.0
105.566	2.0
105.581	2.0
105.595	5.0
105.61	0.0
105.625	1.0
105.64	3.0
105.655	3.0
105.67	3.0
105.685	4.0
105.7	6.0
105.715	2.0
105.73	1.0
105.745	2.0
105.76	1.0
105.775	2.0
105.79	3.0
105.805	0.0
105.82	2.0
105.835	6.0
105.85	6.0
105.864	3.0
105.879	2.0
105.894	4.0
105.909	1.0
105.924	6.0
105.939	1.0
105.954	0.0
105.969	4.0
105.984	3.0
105.999	3.0
106.014	3.0
106.029	5.0
106.044	2.0
106.059	6.0
106.074	1.0
106.089	4.0
106.104	4.0
106.119	5.0
106.134	2.0
106.148	4.0
106.163	3.0
106.178	2.0
106.193	6.0
106.208	2.0
106.223	4.0
106.238	1.0
106.253	2.0
106.268	3.0
106.283	3.0
106.298	5.0
106.313	2.0
106.328	4.0
106.343	7.0
106.358	4.0
106.373	2.0
106.388	3.0
106.403	3.0
106.418	1.0
106.432	2.0
106.447	3.0
106.462	3.0
106.477	3.0
106.492	7.0
106.507	1.0
106.522	3.0
106.537	1.0
106.552	3.0
106.567	0.0
106.582	3.0
106.597	3.0
106.612	0.0
106.627	2.0
106.642	4.0
106.657	3.0
106.672	5.0
106.687	3.0
106.701	5.0
106.716	1.0
106.731	4.0
106.746	4.0
106.761	1.0
106.776	2.0
106.791	5.0
106.806	8.0
106.821	4.0
106.836	1.0
106.851	3.0
106.866	3.0
106.881	3.0
106.896	3.0
106.911	4.0
106.926	2.0
106.941	1.0
106.955	3.0
106.97	1.0
106.985	4.0
107.0	5.0
107.015	2.0
107.03	2.0
107.045	4.0
107.06	1.0
107.075	5.0
107.09	2.0
107.105	5.0
107.12	3.0
107.135	4.0
107.15	3.0
107.165	6.0
107.18	4.0
107.194	2.0
107.209	4.0
107.224	1.0
107.239	1.0
107.254	8.0
107.269	4.0
107.284	2.0
107.299	6.0
107.314	2.0
107.329	6.0
107.344	4.0
107.359	5.0
107.374	6.0
107.389	3.0
107.404	4.0
107.418	3.0
107.433	4.0
107.448	4.0
107.463	3.0
107.478	2.0
107.493	2.0
107.508	3.0
107.523	3.0
107.538	4.0
107.553	0.0
107.568	3.0
107.583	3.0
107.598	3.0
107.613	7.0
107.627	0.0
107.642	3.0
107.657	4.0
107.672	3.0
107.687	0.0
107.702	3.0
107.717	5.0
107.732	1.0
107.747	0.0
107.762	1.0
107.777	3.0
107.792	2.0
107.807	2.0
107.821	1.0
107.836	2.0
107.851	1.0
107.866	4.0
107.881	3.0
107.896	4.0
107.911	2.0
107.926	3.0
107.941	3.0
107.956	7.0
107.971	7.0
107.986	2.0
108.0	3.0
108.015	7.0
108.03	6.0
108.045	5.0
108.06	2.0
108.075	8.0
108.09	10.0
108.105	4.0
108.12	1.0
108.135	6.0
108.15	4.0
108.164	6.0
108.179	6.0
108.194	4.0
108.209	3.0
108.224	2.0
108.239	9.0
108.254	6.0
108.269	5.0
108.284	3.0
108.299	5.0
108.313	3.0
108.328	3.0
108.343	3.0
108.358	2.0
108.373	3.0
108.388	2.0
108.403	2.0
108.418	1.0
108.433	2.0
108.448	3.0
108.462	8.0
108.477	4.0
108.492	3.0
108.507	5.0
108.522	2.0
108.537	5.0
108.552	2.0
108.567	2.0
108.582	5.0
108.597	4.0
108.611	2.0
108.626	2.0
108.641	0.0
108.656	3.0
108.671	2.0
108.686	5.0
108.701	4.0
108.716	2.0
108.731	1.0
108.745	3.0
108.76	5.0
108.775	5.0
108.79	2.0
108.805	1.0
108.82	4.0
108.835	2.0
108.85	2.0
108.865	3.0
108.879	4.0
108.894	7.0
108.909	1.0
108.924	2.0
108.939	6.0
108.954	0.0
108.969	4.0
108.984	4.0
108.999	3.0
109.013	5.0
109.028	6.0
109.043	6.0
109.058	5.0
109.073	3.0
109.088	3.0
109.103	3.0
109.118	6.0
109.133	6.0
109.147	2.0
109.162	3.0
109.177	2.0
109.192	1.0
109.207	2.0
109.222	0.0
109.237	2.0
109.252	3.0
109.267	4.0
109.281	4.0
109.296	2.0
109.311	3.0
109.326	3.0
109.341	3.0
109.356	3.0
109.371	5.0
109.386	5.0
109.4	6.0
109.415	2.0
109.43	1.0
109.445	2.0
109.46	4.0
109.475	3.0
109.49	5.0
109.505	4.0
109.52	3.0
109.534	4.0
109.549	4.0
109.564	2.0
109.579	2.0
109.594	6.0
109.609	3.0
109.624	4.0
109.639	2.0
109.653	3.0
109.668	2.0
109.683	1.0
109.698	0.0
109.713	1.0
109.728	2.0
109.743	2.0
109.758	1.0
109.773	4.0
109.787	3.0
109.802	0.0
109.817	3.0
109.832	1.0
109.847	6.0
109.862	4.0
109.877	3.0
109.892	1.0
109.907	6.0
109.921	3.0
109.936	7.0
109.951	3.0
109.966	3.0
109.981	0.0
109.996	1.0
110.011	2.0
110.026	1.0
110.04	3.0
110.055	3.0
110.07	4.0
110.085	4.0
110.1	4.0
110.115	4.0
110.13	1.0
110.145	3.0
110.16	2.0
110.174	2.0
110.189	3.0
110.204	5.0
110.219	2.0
110.234	1.0
110.249	4.0
110.264	2.0
110.279	2.0
110.294	5.0
110.308	3.0
110.323	2.0
110.338	3.0
110.353	9.0
110.368	4.0
110.383	3.0
110.398	4.0
110.413	4.0
110.428	1.0
110.442	2.0
110.457	2.0
110.472	3.0
110.487	4.0
110.502	4.0
110.517	5.0
110.532	2.0
110.547	2.0
110.561	5.0
110.576	4.0
110.591	3.0
110.606	0.0
110.621	3.0
110.636	2.0
110.651	3.0
110.666	2.0
110.681	4.0
110.695	7.0
110.71	3.0
110.725	7.0
110.74	5.0
110.755	6.0
110.77	3.0
110.785	3.0
110.8	3.0
110.815	4.0
110.829	4.0
110.844	2.0
110.859	2.0
110.874	2.0
110.889	4.0
110.904	3.0
110.919	6.0
110.934	1.0
110.948	2.0
110.963	4.0
110.978	4.0
110.993	2.0
111.008	2.0
111.023	1.0
111.038	3.0
111.053	3.0
111.067	5.0
111.082	3.0
111.097	5.0
111.112	1.0
111.127	5.0
111.142	3.0
111.157	4.0
111.172	2.0
111.186	3.0
111.201	1.0
111.216	4.0
111.231	3.0
111.246	3.0
111.261	3.0
111.276	3.0
111.291	6.0
111.305	2.0
111.32	2.0
111.335	4.0
111.35	2.0
111.365	5.0
111.38	3.0
111.395	2.0
111.41	1.0
111.424	6.0
111.439	2.0
111.454	2.0
111.469	1.0
111.484	0.0
111.499	8.0
111.514	3.0
111.528	0.0
111.543	3.0
111.558	3.0
111.573	4.0
111.588	7.0
111.603	4.0
111.618	2.0
111.633	6.0
111.647	2.0
111.662	4.0
111.677	3.0
111.692	2.0
111.707	2.0
111.722	0.0
111.737	5.0
111.751	0.0
111.766	1.0
111.781	2.0
111.796	3.0
111.811	5.0
111.826	3.0
111.84	5.0
111.855	5.0
111.87	1.0
111.885	3.0
111.9	3.0
111.915	4.0
111.93	4.0
111.944	2.0
111.959	7.0
111.974	5.0
111.989	1.0
112.004	1.0
112.019	4.0
112.033	6.0
112.048	3.0
112.063	4.0
112.078	3.0
112.093	0.0
112.108	4.0
112.123	0.0
112.137	2.0
112.152	3.0
112.167	0.0
112.182	2.0
112.197	6.0
112.212	4.0
112.226	5.0
112.241	1.0
112.256	4.0
112.271	3.0
112.286	1.0
112.301	4.0
112.315	4.0
112.33	1.0
112.345	5.0
112.36	2.0
112.375	5.0
112.389	3.0
112.404	2.0
112.419	3.0
112.434	4.0
112.449	8.0
112.464	3.0
112.478	4.0
112.493	2.0
112.508	6.0
112.523	2.0
112.538	3.0
112.553	0.0
112.567	2.0
112.582	3.0
112.597	3.0
112.612	4.0
112.627	5.0
112.642	0.0
112.656	3.0
112.671	4.0
112.686	8.0
112.701	5.0
112.716	4.0
112.73	3.0
112.745	1.0
112.76	8.0
112.775	4.0
112.79	2.0
112.805	6.0
112.819	4.0
112.834	3.0
112.849	3.0
112.864	3.0
112.879	1.0
112.894	1.0
112.908	1.0
112.923	4.0
112.938	2.0
112.953	4.0
112.968	4.0
112.983	2.0
112.997	4.0
113.012	2.0
113.027	5.0
113.042	3.0
113.057	5.0
113.072	3.0
113.086	3.0
113.101	5.0
113.116	1.0
113.131	4.0
113.146	2.0
113.161	3.0
113.175	6.0
113.19	1.0
113.205	3.0
113.22	3.0
113.235	4.0
113.25	1.0
113.265	4.0
113.279	8.0
113.294	3.0
113.309	2.0
113.324	2.0
113.339	2.0
113.354	4.0
113.368	3.0
113.383	2.0
113.398	3.0
113.413	4.0
113.428	3.0
113.443	2.0
113.458	4.0
113.472	5.0
113.487	4.0
113.502	4.0
113.517	3.0
113.532	2.0
113.547	3.0
113.562	2.0
113.576	9.0
113.591	4.0
113.606	3.0
113.621	2.0
113.636	1.0
113.651	4.0
113.666	4.0
113.681	2.0
113.695	5.0
113.71	7.0
113.725	4.0
113.74	1.0
113.755	6.0
113.77	3.0
113.785	5.0
113.8	3.0
113.814	1.0
113.829	2.0
113.844	3.0
113.859	5.0
113.874	2.0
113.889	2.0
113.904	5.0
113.919	6.0
113.934	7.0
113.949	1.0
113.963	8.0
113.978	3.0
113.993	2.0
114.008	2.0
114.023	3.0
114.038	4.0
114.053	6.0
114.068	6.0
114.083	3.0
114.098	3.0
114.113	4.0
114.127	4.0
114.142	4.0
114.157	2.0
114.172	2.0
114.187	5.0
114.202	5.0
114.217	4.0
114.232	8.0
114.247	2.0
114.262	2.0
114.277	5.0
114.292	4.0
114.307	3.0
114.322	6.0
114.337	2.0
114.351	8.0
114.366	7.0
114.381	6.0
114.396	3.0
114.411	2.0
114.426	6.0
114.441	5.0
114.456	4.0
114.471	0.0
114.486	4.0
114.501	4.0
114.516	0.0
114.531	7.0
114.546	4.0
114.561	5.0
114.576	5.0
114.591	5.0
114.606	4.0
114.621	2.0
114.636	5.0
114.65	5.0
114.665	4.0
114.68	2.0
114.695	5.0
114.71	2.0
114.725	5.0
114.74	4.0
114.755	5.0
114.77	3.0
114.785	1.0
114.8	1.0
114.815	2.0
114.83	1.0
114.845	3.0
114.86	2.0
114.875	2.0
114.89	4.0
114.905	1.0
114.92	3.0
114.935	4.0
114.95	4.0
114.965	5.0
114.98	5.0
114.995	3.0
115.009	2.0
115.024	4.0
115.039	3.0
115.054	8.0
115.069	3.0
115.084	2.0
115.099	3.0
115.114	1.0
115.129	2.0
115.144	1.0
115.159	3.0
115.174	6.0
115.189	6.0
115.204	5.0
115.219	3.0
115.234	3.0
115.249	3.0
115.264	2.0
115.279	4.0
115.294	5.0
115.309	4.0
115.323	7.0
115.338	7.0
115.353	4.0
115.368	4.0
115.383	5.0
115.398	2.0
115.413	4.0
115.428	4.0
115.443	7.0
115.458	6.0
115.473	3.0
115.488	3.0
115.503	4.0
115.518	1.0
115.533	3.0
115.548	3.0
115.562	3.0
115.577	4.0
115.592	4.0
115.607	1.0
115.622	2.0
115.637	3.0
115.652	3.0
115.667	6.0
115.682	2.0
115.697	4.0
115.712	4.0
115.727	2.0
115.741	7.0
115.756	6.0
115.771	2.0
115.786	3.0
115.801	4.0
115.816	6.0
115.831	4.0
115.846	3.0
115.861	3.0
115.875	1.0
115.89	4.0
115.905	5.0
115.92	1.0
115.935	6.0
115.95	6.0
115.965	3.0
115.98	4.0
115.995	4.0
116.009	2.0
116.024	6.0
116.039	4.0
116.054	9.0
116.069	0.0
116.084	3.0
116.099	6.0
116.113	4.0
116.128	4.0
116.143	5.0
116.158	6.0
116.173	7.0
116.188	2.0
116.202	6.0
116.217	3.0
116.232	3.0
116.247	3.0
116.262	6.0
116.277	4.0
116.291	6.0
116.306	3.0
116.321	2.0
116.336	7.0
116.351	6.0
116.366	9.0
116.38	3.0
116.395	4.0
116.41	3.0
116.425	2.0
116.44	5.0
116.454	5.0
116.469	0.0
116.484	2.0
116.499	3.0
116.514	2.0
116.528	5.0
116.543	4.0
116.558	4.0
116.573	2.0
116.588	4.0
116.602	2.0
116.617	3.0
116.632	2.0
116.647	2.0
116.662	2.0
116.676	1.0
116.691	4.0
116.706	7.0
116.721	5.0
116.735	7.0
116.75	5.0
116.765	4.0
116.78	3.0
116.795	2.0
116.809	4.0
116.824	3.0
116.839	5.0
116.854	5.0
116.868	4.0
116.883	3.0
116.898	1.0
116.913	6.0
116.927	2.0
116.942	4.0
116.957	4.0
116.972	7.0
116.986	2.0
117.001	5.0
117.016	3.0
117.031	3.0
117.045	3.0
117.06	1.0
117.075	3.0
117.09	4.0
117.104	1.0
117.119	3.0
117.134	5.0
117.149	2.0
117.163	3.0
117.178	4.0
117.193	7.0
117.208	6.0
117.222	1.0
117.237	4.0
117.252	5.0
117.267	2.0
117.281	3.0
117.296	3.0
117.311	2.0
117.325	5.0
117.34	5.0
117.355	2.0
117.37	3.0
117.384	3.0
117.399	6.0
117.414	4.0
117.429	3.0
117.443	3.0
117.458	3.0
117.473	3.0
117.487	3.0
117.502	2.0
117.517	6.0
117.532	2.0
117.546	4.0
117.561	2.0
117.576	6.0
117.59	4.0
117.605	1.0
117.62	3.0
117.635	8.0
117.649	4.0
117.664	3.0
117.679	2.0
117.693	3.0
117.708	4.0
117.723	1.0
117.738	1.0
117.752	4.0
117.767	6.0
117.782	4.0
117.796	4.0
117.811	4.0
117.826	1.0
117.841	4.0
117.855	6.0
117.87	7.0
117.885	1.0
117.899	8.0
117.914	3.0
117.929	4.0
117.944	6.0
117.958	6.0
117.973	1.0
117.988	5.0
118.002	4.0
118.017	2.0
118.032	3.0
118.047	3.0
118.062	6.0
118.077	10.0
118.092	3.0
118.107	2.0
118.121	6.0
118.136	3.0
118.151	7.0
118.166	7.0
118.181	3.0
118.196	3.0
118.211	7.0
118.225	3.0
118.24	2.0
118.255	3.0
118.27	2.0
118.285	4.0
118.3	4.0
118.315	1.0
118.33	4.0
118.344	2.0
118.359	4.0
118.374	3.0
118.389	3.0
118.404	1.0
118.419	2.0
118.434	7.0
118.449	2.0
118.463	3.0
118.478	2.0
118.493	4.0
118.508	5.0
118.523	3.0
118.538	1.0
118.553	4.0
118.567	3.0
118.582	1.0
118.597	3.0
118.612	3.0
118.627	6.0
118.642	6.0
118.657	2.0
118.672	4.0
118.686	5.0
118.701	5.0
118.716	5.0
118.731	0.0
118.746	3.0
118.761	4.0
118.776	1.0
118.791	3.0
118.805	9.0
118.82	3.0
118.835	2.0
118.85	3.0
118.865	3.0
118.88	7.0
118.895	3.0
118.909	1.0
118.924	5.0
118.939	3.0
118.954	4.0
118.969	1.0
118.984	1.0
118.999	2.0
119.014	1.0
119.028	1.0
119.043	1.0
119.058	5.0
119.073	8.0
119.088	2.0
119.103	4.0
119.118	2.0
119.133	2.0
119.147	5.0
119.162	8.0
119.177	4.0
119.192	1.0
119.207	5.0
119.222	4.0
119.237	3.0
119.251	3.0
119.266	2.0
119.281	6.0
119.296	3.0
119.311	2.0
119.326	5.0
119.341	5.0
119.356	6.0
119.37	1.0
119.385	6.0
119.4	1.0
119.415	2.0
119.43	4.0
119.445	5.0
119.46	2.0
119.475	3.0
119.489	6.0
119.504	4.0
119.519	1.0
119.534	2.0
119.549	3.0
119.564	3.0
119.579	7.0
119.593	1.0
119.608	2.0
119.623	3.0
119.638	1.0
119.653	4.0
119.668	7.0
119.683	3.0
119.698	0.0
119.712	3.0
119.727	4.0
119.742	2.0
119.757	2.0
119.772	1.0
119.787	1.0
119.802	1.0
119.817	4.0
119.831	3.0
119.846	3.0
119.861	1.0
119.876	2.0
119.891	2.0
119.906	3.0
119.921	0.0
119.935	3.0
119.95	3.0
119.965	2.0
119.98	5.0
119.995	3.0
120.01	4.0
120.025	3.0
120.04	0.0
120.054	3.0
120.069	1.0
120.084	2.0
120.099	3.0
120.114	3.0
120.129	3.0
120.144	1.0
120.159	2.0
120.173	1.0
120.188	1.0
120.203	2.0
120.218	1.0
120.233	3.0
120.248	1.0
120.263	0.0
120.277	1.0
120.292	0.0
120.307	0.0
120.322	0.0
120.337	0.0
120.352	0.0
120.367	0.0
120.382	0.0
120.396	0.0
120.411	1.0
120.426	0.0
120.441	0.0
120.456	0.0
120.471	0.0
120.486	0.0
120.501	0.0
120.515	0.0
120.53	0.0
120.545	1.0
120.56	0.0
120.575	0.0
120.59	0.0
120.605	0.0
120.619	0.0
120.634	0.0
120.649	1.0
120.664	1.0
120.679	0.0
120.694	0.0
120.709	0.0
120.724	0.0
120.738	0.0
120.753	0.0
120.768	0.0
120.783	0.0
120.798	0.0
120.813	0.0
120.828	0.0
120.843	0.0
120.857	1.0
120.872	0.0
120.887	0.0
120.902	0.0
120.917	0.0
120.932	0.0
120.947	0.0
120.961	0.0
120.976	0.0
