-1.217	0.0
-1.202	0.0
-1.187	0.0
-1.172	0.0
-1.157	0.0
-1.142	0.0
-1.128	0.0
-1.113	0.0
-1.098	0.0
-1.083	0.0
-1.068	0.0
-1.054	0.0
-1.039	0.0
-1.024	0.0
-1.009	0.0
-0.994	0.0
-0.979	0.0
-0.965	0.0
-0.95	0.0
-0.935	0.0
-0.92	0.0
-0.905	0.0
-0.891	0.0
-0.876	1.0
-0.861	0.0
-0.846	0.0
-0.831	0.0
-0.816	0.0
-0.802	0.0
-0.787	0.0
-0.772	0.0
-0.757	0.0
-0.742	0.0
-0.728	0.0
-0.713	1.0
-0.698	0.0
-0.683	0.0
-0.668	0.0
-0.653	0.0
-0.639	0.0
-0.624	0.0
-0.609	0.0
-0.594	0.0
-0.579	0.0
-0.565	0.0
-0.55	0.0
-0.535	0.0
-0.52	0.0
-0.505	0.0
-0.49	0.0
-0.476	0.0
-0.461	0.0
-0.446	0.0
-0.431	0.0
-0.416	0.0
-0.401	0.0
-0.387	0.0
-0.372	0.0
-0.357	0.0
-0.342	0.0
-0.327	0.0
-0.313	0.0
-0.298	0.0
-0.283	0.0
-0.268	0.0
-0.253	0.0
-0.238	0.0
-0.224	0.0
-0.209	0.0
-0.194	0.0
-0.179	0.0
-0.164	0.0
-0.15	0.0
-0.135	0.0
-0.12	0.0
-0.105	0.0
-0.09	0.0
-0.075	0.0
-0.061	0.0
-0.046	0.0
-0.031	0.0
-0.016	0.0
-0.001	0.0
0.013	0.0
0.028	0.0
0.043	0.0
0.058	0.0
0.073	0.0
0.088	0.0
0.102	0.0
0.117	0.0
0.132	0.0
0.147	0.0
0.162	0.0
0.176	0.0
0.191	0.0
0.206	0.0
0.221	0.0
0.236	1.0
0.251	0.0
0.265	0.0
0.28	0.0
0.295	0.0
0.31	0.0
0.325	0.0
0.339	0.0
0.354	0.0
0.369	0.0
0.384	0.0
0.399	0.0
0.414	0.0
0.428	0.0
0.443	0.0
0.458	0.0
0.473	0.0
0.488	0.0
0.502	0.0
0.517	0.0
0.532	0.0
0.547	0.0
0.562	0.0
0.577	0.0
0.591	0.0
0.606	0.0
0.621	0.0
0.636	0.0
0.651	0.0
0.665	1.0
0.68	0.0
0.695	0.0
0.71	1.0
0.725	0.0
0.74	0.0
0.754	0.0
0.769	0.0
0.784	0.0
0.799	0.0
0.814	0.0
0.828	0.0
0.843	0.0
0.858	0.0
0.873	0.0
0.888	0.0
0.903	0.0
0.917	0.0
0.932	0.0
0.947	0.0
0.962	0.0
0.977	0.0
0.991	0.0
1.006	0.0
1.021	0.0
1.036	1.0
1.051	0.0
1.065	0.0
1.08	0.0
1.095	0.0
1.11	0.0
1.125	0.0
1.14	1.0
1.154	0.0
1.169	0.0
1.184	0.0
1.199	0.0
1.214	0.0
1.228	0.0
1.243	0.0
1.258	0.0
1.273	0.0
1.288	0.0
1.302	0.0
1.317	0.0
1.332	0.0
1.347	0.0
1.362	1.0
1.376	0.0
1.391	0.0
1.406	0.0
1.421	0.0
1.436	0.0
1.45	0.0
1.465	0.0
1.48	0.0
1.495	0.0
1.51	0.0
1.524	0.0
1.539	0.0
1.554	0.0
1.569	0.0
1.584	0.0
1.598	0.0
1.613	0.0
1.628	1.0
1.643	0.0
1.658	0.0
1.672	0.0
1.687	0.0
1.702	0.0
1.717	0.0
1.732	0.0
1.746	0.0
1.761	1.0
1.776	0.0
1.791	0.0
1.806	0.0
1.82	0.0
1.835	0.0
1.85	0.0
1.865	0.0
1.88	0.0
1.894	0.0
1.909	0.0
1.924	1.0
1.939	1.0
1.954	1.0
1.968	0.0
1.983	0.0
1.998	0.0
2.013	0.0
2.028	0.0
2.042	0.0
2.057	0.0
2.072	1.0
2.087	0.0
2.101	0.0
2.116	0.0
2.131	0.0
2.146	0.0
2.161	0.0
2.175	0.0
2.19	0.0
2.205	0.0
2.22	0.0
2.235	0.0
2.249	0.0
2.264	1.0
2.279	0.0
2.294	1.0
2.308	2.0
2.323	3.0
2.338	1.0
2.353	0.0
2.368	1.0
2.382	2.0
2.397	0.0
2.412	1.0
2.427	0.0
2.442	1.0
2.456	2.0
2.471	3.0
2.486	0.0
2.501	4.0
2.515	2.0
2.53	1.0
2.545	3.0
2.56	2.0
2.575	1.0
2.589	5.0
2.604	2.0
2.619	2.0
2.634	4.0
2.649	2.0
2.663	0.0
2.678	3.0
2.693	3.0
2.708	2.0
2.722	8.0
2.737	4.0
2.752	3.0
2.767	6.0
2.782	4.0
2.796	2.0
2.811	3.0
2.826	2.0
2.841	4.0
2.856	1.0
2.87	4.0
2.885	3.0
2.9	5.0
2.915	2.0
2.93	4.0
2.944	6.0
2.959	2.0
2.974	5.0
2.989	2.0
3.004	6.0
3.018	6.0
3.033	5.0
3.048	5.0
3.063	5.0
3.078	2.0
3.092	4.0
3.107	5.0
3.122	7.0
3.137	5.0
3.152	5.0
3.166	4.0
3.181	6.0
3.196	7.0
3.211	7.0
3.226	1.0
3.24	3.0
3.255	1.0
3.27	4.0
3.285	5.0
3.3	4.0
3.315	0.0
3.329	4.0
3.344	1.0
3.359	6.0
3.374	3.0
3.389	5.0
3.403	5.0
3.418	4.0
3.433	4.0
3.448	7.0
3.463	6.0
3.478	8.0
3.492	4.0
3.507	4.0
3.522	3.0
3.537	4.0
3.552	6.0
3.567	7.0
3.581	6.0
3.596	6.0
3.611	9.0
3.626	6.0
3.641	6.0
3.656	6.0
3.671	10.0
3.685	3.0
3.7	3.0
3.715	10.0
3.73	6.0
3.745	5.0
3.76	10.0
3.775	10.0
3.789	4.0
3.804	3.0
3.819	10.0
3.834	7.0
3.849	4.0
3.864	9.0
3.879	2.0
3.894	9.0
3.908	7.0
3.923	2.0
3.938	10.0
3.953	6.0
3.968	8.0
3.983	6.0
3.998	12.0
4.013	10.0
4.027	9.0
4.042	3.0
4.057	8.0
4.072	10.0
4.087	7.0
4.102	8.0
4.117	8.0
4.132	10.0
4.147	5.0
4.162	4.0
4.176	10.0
4.191	7.0
4.206	7.0
4.221	7.0
4.236	5.0
4.251	5.0
4.266	9.0
4.281	8.0
4.296	7.0
4.311	8.0
4.326	7.0
4.341	5.0
4.356	7.0
4.37	7.0
4.385	4.0
4.4	5.0
4.415	9.0
4.43	8.0
4.445	12.0
4.46	9.0
4.475	5.0
4.49	6.0
4.505	6.0
4.52	7.0
4.535	6.0
4.55	6.0
4.565	6.0
4.58	6.0
4.595	7.0
4.61	9.0
4.625	6.0
4.639	5.0
4.654	8.0
4.669	9.0
4.684	10.0
4.699	8.0
4.714	8.0
4.729	5.0
4.744	8.0
4.759	10.0
4.774	10.0
4.789	5.0
4.804	8.0
4.819	5.0
4.834	10.0
4.849	3.0
4.864	8.0
4.879	5.0
4.894	6.0
4.909	9.0
4.924	10.0
4.939	5.0
4.954	5.0
4.969	7.0
4.984	9.0
4.999	9.0
5.014	9.0
5.029	7.0
5.044	7.0
5.059	7.0
5.074	9.0
5.089	9.0
5.104	8.0
5.119	8.0
5.134	9.0
5.149	9.0
5.164	9.0
5.179	9.0
5.194	8.0
5.209	6.0
5.224	8.0
5.239	7.0
5.254	2.0
5.269	6.0
5.284	14.0
5.299	12.0
5.314	8.0
5.329	2.0
5.344	7.0
5.359	8.0
5.374	5.0
5.389	5.0
5.404	7.0
5.419	7.0
5.434	10.0
5.449	7.0
5.464	9.0
5.479	5.0
5.494	9.0
5.509	6.0
5.524	10.0
5.539	12.0
5.554	9.0
5.569	5.0
5.584	9.0
5.599	14.0
5.614	10.0
5.629	9.0
5.644	8.0
5.659	7.0
5.674	4.0
5.689	12.0
5.704	15.0
5.719	7.0
5.734	11.0
5.749	7.0
5.764	6.0
5.779	14.0
5.794	10.0
5.809	7.0
5.824	4.0
5.839	9.0
5.854	10.0
5.869	9.0
5.884	9.0
5.899	6.0
5.914	16.0
5.929	8.0
5.944	13.0
5.959	13.0
5.974	10.0
5.989	9.0
6.004	7.0
6.019	6.0
6.034	6.0
6.049	10.0
6.064	7.0
6.079	6.0
6.094	10.0
6.109	7.0
6.124	11.0
6.139	11.0
6.154	8.0
6.169	10.0
6.184	8.0
6.199	9.0
6.214	8.0
6.229	11.0
6.244	10.0
6.259	7.0
6.274	8.0
6.289	9.0
6.304	7.0
6.319	15.0
6.334	13.0
6.349	9.0
6.364	7.0
6.379	15.0
6.394	7.0
6.409	6.0
6.424	6.0
6.439	10.0
6.454	13.0
6.469	12.0
6.484	8.0
6.499	10.0
6.514	6.0
6.529	9.0
6.544	7.0
6.559	7.0
6.574	4.0
6.589	10.0
6.604	9.0
6.619	14.0
6.634	12.0
6.649	8.0
6.664	8.0
6.679	15.0
6.694	11.0
6.709	9.0
6.724	11.0
6.739	7.0
6.754	6.0
6.769	8.0
6.784	9.0
6.799	8.0
6.814	10.0
6.829	9.0
6.844	9.0
6.859	7.0
6.873	6.0
6.888	8.0
6.903	6.0
6.918	5.0
6.933	15.0
6.948	6.0
6.963	10.0
6.978	7.0
6.993	3.0
7.008	9.0
7.023	12.0
7.038	4.0
7.053	8.0
7.068	7.0
7.083	6.0
7.098	11.0
7.113	9.0
7.128	10.0
7.143	9.0
7.157	5.0
7.172	7.0
7.187	9.0
7.202	7.0
7.217	21.0
7.232	9.0
7.247	7.0
7.262	12.0
7.277	13.0
7.292	7.0
7.307	5.0
7.322	2.0
7.336	9.0
7.351	4.0
7.366	6.0
7.381	10.0
7.396	11.0
7.411	9.0
7.426	6.0
7.441	13.0
7.456	4.0
7.471	9.0
7.485	13.0
7.5	7.0
7.515	9.0
7.53	12.0
7.545	11.0
7.56	11.0
7.575	7.0
7.59	13.0
7.604	6.0
7.619	11.0
7.634	11.0
7.649	12.0
7.664	13.0
7.679	8.0
7.693	6.0
7.708	10.0
7.723	7.0
7.738	5.0
7.753	10.0
7.768	6.0
7.783	17.0
7.797	10.0
7.812	10.0
7.827	7.0
7.842	9.0
7.857	9.0
7.871	5.0
7.886	7.0
7.901	9.0
7.916	7.0
7.931	10.0
7.945	5.0
7.96	6.0
7.975	5.0
7.99	7.0
8.005	8.0
8.019	8.0
8.034	4.0
8.049	10.0
8.064	9.0
8.078	7.0
8.093	7.0
8.108	5.0
8.123	8.0
8.137	10.0
8.152	5.0
8.167	5.0
8.182	8.0
8.196	8.0
8.211	9.0
8.226	10.0
8.241	12.0
8.255	9.0
8.27	8.0
8.285	12.0
8.3	9.0
8.314	7.0
8.329	4.0
8.344	15.0
8.358	8.0
8.373	8.0
8.388	14.0
8.403	8.0
8.417	7.0
8.432	8.0
8.447	9.0
8.461	11.0
8.476	12.0
8.491	9.0
8.505	11.0
8.52	6.0
8.535	4.0
8.55	3.0
8.564	4.0
8.579	7.0
8.594	10.0
8.608	11.0
8.623	12.0
8.638	8.0
8.652	5.0
8.667	8.0
8.682	10.0
8.696	10.0
8.711	11.0
8.726	8.0
8.74	6.0
8.755	7.0
8.77	4.0
8.784	10.0
8.799	8.0
8.814	8.0
8.828	6.0
8.843	8.0
8.858	9.0
8.872	16.0
8.887	13.0
8.902	9.0
8.916	10.0
8.931	5.0
8.946	6.0
8.96	11.0
8.975	5.0
8.99	7.0
9.004	3.0
9.019	11.0
9.034	7.0
9.048	10.0
9.063	2.0
9.077	7.0
9.092	11.0
9.107	12.0
9.121	5.0
9.136	7.0
9.151	7.0
9.165	4.0
9.18	14.0
9.195	3.0
9.209	3.0
9.224	11.0
9.239	5.0
9.253	10.0
9.268	8.0
9.283	11.0
9.297	15.0
9.312	15.0
9.327	8.0
9.341	14.0
9.356	4.0
9.371	11.0
9.385	6.0
9.4	14.0
9.415	6.0
9.429	6.0
9.444	10.0
9.458	12.0
9.473	12.0
9.488	7.0
9.502	14.0
9.517	8.0
9.532	12.0
9.546	9.0
9.561	4.0
9.576	9.0
9.59	5.0
9.605	8.0
9.62	10.0
9.635	10.0
9.649	7.0
9.664	10.0
9.679	8.0
9.693	5.0
9.708	11.0
9.723	9.0
9.737	10.0
9.752	10.0
9.767	9.0
9.781	10.0
9.796	9.0
9.811	12.0
9.825	7.0
9.84	8.0
9.855	7.0
9.87	5.0
9.884	6.0
9.899	9.0
9.914	7.0
9.928	8.0
9.943	7.0
9.958	10.0
9.973	9.0
9.987	7.0
10.002	11.0
10.017	10.0
10.031	6.0
10.046	10.0
10.061	12.0
10.076	6.0
10.09	9.0
10.105	13.0
10.12	11.0
10.135	9.0
10.149	10.0
10.164	9.0
10.179	4.0
10.194	7.0
10.208	8.0
10.223	12.0
10.238	10.0
10.253	7.0
10.267	6.0
10.282	14.0
10.297	5.0
10.312	10.0
10.326	1.0
10.341	13.0
10.356	7.0
10.371	10.0
10.386	5.0
10.4	5.0
10.415	10.0
10.43	3.0
10.445	11.0
10.46	6.0
10.474	8.0
10.489	6.0
10.504	11.0
10.519	8.0
10.533	8.0
10.548	4.0
10.563	10.0
10.578	7.0
10.593	8.0
10.608	11.0
10.622	6.0
10.637	9.0
10.652	9.0
10.667	3.0
10.682	8.0
10.696	8.0
10.711	3.0
10.726	6.0
10.741	13.0
10.756	8.0
10.771	9.0
10.785	12.0
10.8	11.0
10.815	14.0
10.83	8.0
10.845	4.0
10.86	6.0
10.874	8.0
10.889	8.0
10.904	5.0
10.919	8.0
10.934	9.0
10.949	10.0
10.963	7.0
10.978	12.0
10.993	10.0
11.008	10.0
11.023	8.0
11.038	6.0
11.053	6.0
11.067	11.0
11.082	13.0
11.097	12.0
11.112	7.0
11.127	10.0
11.142	11.0
11.157	6.0
11.172	3.0
11.186	6.0
11.201	5.0
11.216	7.0
11.231	5.0
11.246	7.0
11.261	7.0
11.276	8.0
11.291	11.0
11.305	9.0
11.32	9.0
11.335	9.0
11.35	9.0
11.365	7.0
11.38	12.0
11.395	10.0
11.41	10.0
11.424	4.0
11.439	3.0
11.454	13.0
11.469	12.0
11.484	7.0
11.499	7.0
11.514	8.0
11.529	7.0
11.544	6.0
11.558	13.0
11.573	15.0
11.588	7.0
11.603	7.0
11.618	11.0
11.633	10.0
11.648	4.0
11.663	6.0
11.678	3.0
11.693	11.0
11.707	9.0
11.722	8.0
11.737	8.0
11.752	8.0
11.767	1.0
11.782	3.0
11.797	12.0
11.812	8.0
11.827	12.0
11.842	3.0
11.856	8.0
11.871	10.0
11.886	9.0
11.901	5.0
11.916	8.0
11.931	8.0
11.946	7.0
11.961	8.0
11.976	10.0
11.991	16.0
12.006	10.0
12.02	11.0
12.035	9.0
12.05	5.0
12.065	11.0
12.08	4.0
12.095	6.0
12.11	11.0
12.125	9.0
12.14	9.0
12.155	12.0
12.17	7.0
12.184	15.0
12.199	12.0
12.214	6.0
12.229	12.0
12.244	14.0
12.259	14.0
12.274	5.0
12.289	9.0
12.304	16.0
12.319	10.0
12.334	12.0
12.348	9.0
12.363	9.0
12.378	10.0
12.393	13.0
12.408	13.0
12.423	12.0
12.438	11.0
12.453	17.0
12.468	6.0
12.483	17.0
12.498	10.0
12.513	14.0
12.527	10.0
12.542	15.0
12.557	8.0
12.572	10.0
12.587	8.0
12.602	14.0
12.617	18.0
12.632	19.0
12.647	13.0
12.662	12.0
12.677	7.0
12.692	10.0
12.707	15.0
12.721	16.0
12.736	17.0
12.751	11.0
12.766	13.0
12.781	15.0
12.796	9.0
12.811	17.0
12.826	11.0
12.841	14.0
12.856	12.0
12.871	18.0
12.886	12.0
12.9	11.0
12.915	17.0
12.93	26.0
12.945	15.0
12.96	17.0
12.975	19.0
12.99	21.0
13.005	13.0
13.02	10.0
13.035	14.0
13.05	13.0
13.065	21.0
13.08	18.0
13.094	20.0
13.109	11.0
13.124	15.0
13.139	19.0
13.154	19.0
13.169	12.0
13.184	30.0
13.199	21.0
13.214	17.0
13.229	24.0
13.244	18.0
13.259	26.0
13.274	27.0
13.288	17.0
13.303	21.0
13.318	22.0
13.333	16.0
13.348	26.0
13.363	24.0
13.378	30.0
13.393	22.0
13.408	25.0
13.423	27.0
13.438	32.0
13.453	36.0
13.468	31.0
13.482	37.0
13.497	35.0
13.512	31.0
13.527	47.0
13.542	45.0
13.557	49.0
13.572	63.0
13.587	59.0
13.602	48.0
13.617	58.0
13.632	76.0
13.647	78.0
13.662	63.0
13.677	85.0
13.691	98.0
13.706	101.0
13.721	83.0
13.736	92.0
13.751	111.0
13.766	115.0
13.781	117.0
13.796	118.0
13.811	139.0
13.826	125.0
13.841	118.0
13.856	124.0
13.871	134.0
13.885	140.0
13.9	83.0
13.915	86.0
13.93	79.0
13.945	68.0
13.96	49.0
13.975	49.0
13.99	46.0
14.005	34.0
14.02	27.0
14.035	23.0
14.05	18.0
14.065	18.0
14.08	23.0
14.094	26.0
14.109	28.0
14.124	21.0
14.139	15.0
14.154	25.0
14.169	25.0
14.184	14.0
14.199	17.0
14.214	15.0
14.229	28.0
14.244	13.0
14.259	22.0
14.274	30.0
14.288	15.0
14.303	28.0
14.318	10.0
14.333	15.0
14.348	19.0
14.363	14.0
14.378	13.0
14.393	20.0
14.408	19.0
14.423	14.0
14.438	16.0
14.453	15.0
14.468	9.0
14.482	15.0
14.497	18.0
14.512	14.0
14.527	19.0
14.542	23.0
14.557	13.0
14.572	14.0
14.587	24.0
14.602	16.0
14.617	16.0
14.632	18.0
14.647	11.0
14.661	16.0
14.676	23.0
14.691	16.0
14.706	13.0
14.721	18.0
14.736	17.0
14.751	16.0
14.766	16.0
14.781	15.0
14.796	19.0
14.811	27.0
14.826	13.0
14.84	20.0
14.855	19.0
14.87	20.0
14.885	20.0
14.9	16.0
14.915	19.0
14.93	5.0
14.945	16.0
14.96	18.0
14.975	23.0
14.989	16.0
15.004	10.0
15.019	13.0
15.034	18.0
15.049	21.0
15.064	13.0
15.079	12.0
15.094	13.0
15.109	26.0
15.124	15.0
15.138	12.0
15.153	10.0
15.168	13.0
15.183	11.0
15.198	18.0
15.213	13.0
15.228	15.0
15.243	15.0
15.258	18.0
15.272	15.0
15.287	16.0
15.302	17.0
15.317	15.0
15.332	14.0
15.347	9.0
15.362	9.0
15.377	19.0
15.391	14.0
15.406	19.0
15.421	7.0
15.436	6.0
15.451	12.0
15.466	22.0
15.481	16.0
15.496	13.0
15.51	13.0
15.525	20.0
15.54	17.0
15.555	8.0
15.57	15.0
15.585	19.0
15.6	18.0
15.614	11.0
15.629	5.0
15.644	19.0
15.659	15.0
15.674	19.0
15.689	12.0
15.704	12.0
15.718	13.0
15.733	11.0
15.748	23.0
15.763	17.0
15.778	14.0
15.793	16.0
15.808	19.0
15.822	16.0
15.837	15.0
15.852	13.0
15.867	18.0
15.882	16.0
15.897	10.0
15.911	14.0
15.926	13.0
15.941	20.0
15.956	13.0
15.971	11.0
15.986	17.0
16.0	15.0
16.015	14.0
16.03	10.0
16.045	14.0
16.06	17.0
16.074	23.0
16.089	15.0
16.104	14.0
16.119	14.0
16.134	19.0
16.149	13.0
16.163	18.0
16.178	14.0
16.193	19.0
16.208	16.0
16.223	6.0
16.237	13.0
16.252	16.0
16.267	12.0
16.282	14.0
16.297	8.0
16.311	25.0
16.326	18.0
16.341	7.0
16.356	13.0
16.37	11.0
16.385	9.0
16.4	9.0
16.415	13.0
16.43	11.0
16.444	13.0
16.459	13.0
16.474	19.0
16.489	13.0
16.504	17.0
16.518	13.0
16.533	21.0
16.548	15.0
16.563	14.0
16.577	16.0
16.592	21.0
16.607	15.0
16.622	16.0
16.637	13.0
16.651	15.0
16.666	18.0
16.681	24.0
16.696	28.0
16.71	29.0
16.725	35.0
16.74	16.0
16.755	32.0
16.77	37.0
16.784	30.0
16.799	29.0
16.814	47.0
16.829	44.0
16.843	51.0
16.858	53.0
16.873	58.0
16.888	51.0
16.902	70.0
16.917	69.0
16.932	66.0
16.947	67.0
16.961	80.0
16.976	75.0
16.991	72.0
17.006	53.0
17.021	50.0
17.035	50.0
17.05	52.0
17.065	45.0
17.08	46.0
17.094	34.0
17.109	32.0
17.124	26.0
17.139	27.0
17.153	29.0
17.168	18.0
17.183	16.0
17.198	17.0
17.212	8.0
17.227	21.0
17.242	13.0
17.257	22.0
17.271	15.0
17.286	11.0
17.301	11.0
17.316	14.0
17.33	19.0
17.345	17.0
17.36	17.0
17.375	18.0
17.39	13.0
17.404	14.0
17.419	10.0
17.434	15.0
17.449	18.0
17.463	16.0
17.478	11.0
17.493	15.0
17.508	18.0
17.522	12.0
17.537	18.0
17.552	13.0
17.567	9.0
17.581	14.0
17.596	16.0
17.611	17.0
17.626	16.0
17.641	8.0
17.655	13.0
17.67	7.0
17.685	13.0
17.7	13.0
17.714	13.0
17.729	9.0
17.744	17.0
17.759	8.0
17.773	6.0
17.788	8.0
17.803	14.0
17.818	12.0
17.833	4.0
17.847	11.0
17.862	10.0
17.877	6.0
17.892	17.0
17.906	12.0
17.921	18.0
17.936	11.0
17.951	12.0
17.966	12.0
17.98	7.0
17.995	13.0
18.01	14.0
18.025	13.0
18.04	13.0
18.054	11.0
18.069	8.0
18.084	10.0
18.099	10.0
18.114	12.0
18.128	7.0
18.143	7.0
18.158	12.0
18.173	16.0
18.188	10.0
18.202	14.0
18.217	13.0
18.232	8.0
18.247	8.0
18.262	10.0
18.276	6.0
18.291	12.0
18.306	19.0
18.321	12.0
18.336	8.0
18.35	11.0
18.365	10.0
18.38	9.0
18.395	8.0
18.41	13.0
18.424	14.0
18.439	6.0
18.454	16.0
18.469	14.0
18.484	8.0
18.498	12.0
18.513	17.0
18.528	15.0
18.543	11.0
18.558	8.0
18.573	10.0
18.587	18.0
18.602	11.0
18.617	14.0
18.632	14.0
18.647	12.0
18.661	5.0
18.676	11.0
18.691	8.0
18.706	14.0
18.721	11.0
18.736	6.0
18.75	15.0
18.765	12.0
18.78	11.0
18.795	15.0
18.81	8.0
18.825	8.0
18.839	9.0
18.854	18.0
18.869	13.0
18.884	8.0
18.899	9.0
18.913	14.0
18.928	10.0
18.943	15.0
18.958	14.0
18.973	10.0
18.988	20.0
19.002	14.0
19.017	10.0
19.032	17.0
19.047	10.0
19.062	16.0
19.077	7.0
19.091	19.0
19.106	15.0
19.121	12.0
19.136	9.0
19.151	14.0
19.165	11.0
19.18	12.0
19.195	12.0
19.21	20.0
19.225	14.0
19.24	13.0
19.254	11.0
19.269	8.0
19.284	18.0
19.299	6.0
19.314	17.0
19.329	9.0
19.343	11.0
19.358	13.0
19.373	11.0
19.388	18.0
19.403	18.0
19.417	22.0
19.432	28.0
19.447	27.0
19.462	33.0
19.477	25.0
19.492	26.0
19.506	31.0
19.521	40.0
19.536	43.0
19.551	40.0
19.566	34.0
19.58	43.0
19.595	34.0
19.61	44.0
19.625	49.0
19.64	36.0
19.655	44.0
19.669	35.0
19.684	30.0
19.699	32.0
19.714	28.0
19.729	29.0
19.743	25.0
19.758	27.0
19.773	23.0
19.788	17.0
19.803	12.0
19.817	18.0
19.832	12.0
19.847	14.0
19.862	13.0
19.877	17.0
19.891	14.0
19.906	19.0
19.921	17.0
19.936	12.0
19.951	11.0
19.965	7.0
19.98	14.0
19.995	10.0
20.01	8.0
20.025	15.0
20.039	11.0
20.054	12.0
20.069	16.0
20.084	14.0
20.099	7.0
20.113	7.0
20.128	8.0
20.143	11.0
20.158	11.0
20.173	11.0
20.187	15.0
20.202	15.0
20.217	8.0
20.232	12.0
20.246	11.0
20.261	14.0
20.276	10.0
20.291	9.0
20.306	7.0
20.32	7.0
20.335	15.0
20.35	11.0
20.365	13.0
20.38	18.0
20.394	10.0
20.409	6.0
20.424	13.0
20.439	10.0
20.453	10.0
20.468	10.0
20.483	10.0
20.498	7.0
20.513	9.0
20.527	11.0
20.542	15.0
20.557	11.0
20.572	10.0
20.586	14.0
20.601	10.0
20.616	9.0
20.631	11.0
20.646	10.0
20.66	9.0
20.675	11.0
20.69	4.0
20.705	12.0
20.719	8.0
20.734	10.0
20.749	8.0
20.764	19.0
20.779	16.0
20.793	8.0
20.808	14.0
20.823	15.0
20.838	8.0
20.853	12.0
20.867	10.0
20.882	12.0
20.897	13.0
20.912	10.0
20.926	11.0
20.941	10.0
20.956	8.0
20.971	7.0
20.986	9.0
21.0	8.0
21.015	12.0
21.03	15.0
21.045	10.0
21.06	11.0
21.074	11.0
21.089	8.0
21.104	8.0
21.119	13.0
21.134	16.0
21.148	13.0
21.163	19.0
21.178	7.0
21.193	9.0
21.208	15.0
21.222	7.0
21.237	11.0
21.252	11.0
21.267	10.0
21.282	8.0
21.296	16.0
21.311	9.0
21.326	13.0
21.341	7.0
21.356	21.0
21.37	17.0
21.385	12.0
21.4	9.0
21.415	15.0
21.43	15.0
21.444	7.0
21.459	12.0
21.474	15.0
21.489	14.0
21.504	10.0
21.519	13.0
21.533	15.0
21.548	15.0
21.563	11.0
21.578	20.0
21.593	9.0
21.608	10.0
21.622	15.0
21.637	13.0
21.652	15.0
21.667	14.0
21.682	18.0
21.697	16.0
21.712	21.0
21.726	25.0
21.741	27.0
21.756	30.0
21.771	32.0
21.786	28.0
21.801	38.0
21.816	45.0
21.83	51.0
21.845	54.0
21.86	52.0
21.875	64.0
21.89	73.0
21.905	60.0
21.92	65.0
21.935	80.0
21.949	78.0
21.964	89.0
21.979	77.0
21.994	82.0
22.009	80.0
22.024	72.0
22.039	46.0
22.054	43.0
22.069	49.0
22.083	43.0
22.098	60.0
22.113	42.0
22.128	40.0
22.143	25.0
22.158	31.0
22.173	25.0
22.188	22.0
22.203	14.0
22.218	12.0
22.233	13.0
22.248	13.0
22.262	11.0
22.277	11.0
22.292	19.0
22.307	13.0
22.322	12.0
22.337	12.0
22.352	15.0
22.367	12.0
22.382	11.0
22.397	13.0
22.412	10.0
22.427	12.0
22.442	14.0
22.457	7.0
22.472	13.0
22.487	12.0
22.502	15.0
22.516	13.0
22.531	17.0
22.546	6.0
22.561	15.0
22.576	10.0
22.591	13.0
22.606	13.0
22.621	7.0
22.636	10.0
22.651	13.0
22.666	12.0
22.681	6.0
22.696	5.0
22.711	15.0
22.726	17.0
22.741	12.0
22.756	9.0
22.771	12.0
22.786	10.0
22.801	7.0
22.816	8.0
22.831	9.0
22.846	15.0
22.861	17.0
22.876	14.0
22.891	11.0
22.906	6.0
22.92	10.0
22.935	11.0
22.95	15.0
22.965	12.0
22.98	11.0
22.995	15.0
23.01	17.0
23.025	13.0
23.04	10.0
23.055	14.0
23.07	4.0
23.085	12.0
23.1	13.0
23.115	5.0
23.13	11.0
23.145	9.0
23.16	9.0
23.175	7.0
23.19	11.0
23.205	13.0
23.22	12.0
23.235	12.0
23.25	8.0
23.265	11.0
23.28	5.0
23.295	7.0
23.31	8.0
23.325	18.0
23.34	14.0
23.355	13.0
23.37	6.0
23.384	9.0
23.399	16.0
23.414	9.0
23.429	10.0
23.444	23.0
23.459	20.0
23.474	11.0
23.489	8.0
23.504	7.0
23.519	10.0
23.534	8.0
23.549	9.0
23.564	10.0
23.579	7.0
23.594	11.0
23.609	16.0
23.624	6.0
23.639	6.0
23.654	7.0
23.668	16.0
23.683	15.0
23.698	14.0
23.713	9.0
23.728	11.0
23.743	9.0
23.758	8.0
23.773	24.0
23.788	18.0
23.803	8.0
23.818	11.0
23.833	8.0
23.848	15.0
23.862	16.0
23.877	18.0
23.892	24.0
23.907	33.0
23.922	23.0
23.937	25.0
23.952	27.0
23.967	33.0
23.982	34.0
23.997	31.0
24.011	51.0
24.026	51.0
24.041	39.0
24.056	56.0
24.071	51.0
24.086	36.0
24.101	54.0
24.116	63.0
24.131	49.0
24.145	45.0
24.16	48.0
24.175	31.0
24.19	49.0
24.205	33.0
24.22	35.0
24.235	27.0
24.249	28.0
24.264	32.0
24.279	24.0
24.294	19.0
24.309	16.0
24.324	15.0
24.338	20.0
24.353	16.0
24.368	13.0
24.383	15.0
24.398	10.0
24.413	8.0
24.428	18.0
24.442	15.0
24.457	16.0
24.472	12.0
24.487	10.0
24.502	14.0
24.516	18.0
24.531	4.0
24.546	6.0
24.561	10.0
24.576	5.0
24.591	11.0
24.605	14.0
24.62	9.0
24.635	13.0
24.65	14.0
24.665	14.0
24.679	12.0
24.694	10.0
24.709	17.0
24.724	11.0
24.739	11.0
24.753	8.0
24.768	10.0
24.783	15.0
24.798	11.0
24.813	7.0
24.827	5.0
24.842	14.0
24.857	15.0
24.872	21.0
24.886	10.0
24.901	11.0
24.916	11.0
24.931	7.0
24.946	12.0
24.96	9.0
24.975	7.0
24.99	13.0
25.005	5.0
25.019	10.0
25.034	14.0
25.049	13.0
25.064	16.0
25.078	8.0
25.093	3.0
25.108	9.0
25.123	10.0
25.138	13.0
25.152	7.0
25.167	14.0
25.182	11.0
25.197	9.0
25.211	8.0
25.226	9.0
25.241	11.0
25.256	6.0
25.27	10.0
25.285	10.0
25.3	12.0
25.315	10.0
25.329	14.0
25.344	14.0
25.359	6.0
25.374	9.0
25.388	11.0
25.403	9.0
25.418	13.0
25.433	14.0
25.447	11.0
25.462	7.0
25.477	8.0
25.492	10.0
25.506	8.0
25.521	12.0
25.536	7.0
25.55	11.0
25.565	12.0
25.58	9.0
25.595	9.0
25.609	9.0
25.624	8.0
25.639	16.0
25.654	10.0
25.668	14.0
25.683	15.0
25.698	10.0
25.713	10.0
25.727	12.0
25.742	7.0
25.757	11.0
25.772	12.0
25.786	12.0
25.801	7.0
25.816	8.0
25.83	7.0
25.845	14.0
25.86	12.0
25.875	9.0
25.889	3.0
25.904	16.0
25.919	11.0
25.934	10.0
25.948	12.0
25.963	12.0
25.978	9.0
25.992	10.0
26.007	7.0
26.022	6.0
26.037	11.0
26.051	4.0
26.066	10.0
26.081	9.0
26.096	16.0
26.11	9.0
26.125	8.0
26.14	7.0
26.155	13.0
26.169	8.0
26.184	14.0
26.199	10.0
26.213	9.0
26.228	8.0
26.243	10.0
26.258	13.0
26.272	10.0
26.287	8.0
26.302	9.0
26.317	11.0
26.331	4.0
26.346	9.0
26.361	8.0
26.376	8.0
26.39	10.0
26.405	7.0
26.42	15.0
26.434	9.0
26.449	13.0
26.464	9.0
26.479	10.0
26.493	12.0
26.508	7.0
26.523	9.0
26.538	14.0
26.552	3.0
26.567	10.0
26.582	9.0
26.597	8.0
26.611	14.0
26.626	5.0
26.641	10.0
26.656	8.0
26.67	10.0
26.685	10.0
26.7	13.0
26.715	7.0
26.729	8.0
26.744	10.0
26.759	8.0
26.773	9.0
26.788	6.0
26.803	12.0
26.818	11.0
26.832	12.0
26.847	10.0
26.862	5.0
26.877	7.0
26.891	8.0
26.906	9.0
26.921	7.0
26.936	13.0
26.95	16.0
26.965	15.0
26.98	5.0
26.995	9.0
27.01	11.0
27.024	14.0
27.039	6.0
27.054	6.0
27.069	10.0
27.083	5.0
27.098	8.0
27.113	8.0
27.128	4.0
27.142	17.0
27.157	8.0
27.172	8.0
27.187	8.0
27.201	10.0
27.216	23.0
27.231	10.0
27.246	15.0
27.261	8.0
27.275	12.0
27.29	8.0
27.305	12.0
27.32	13.0
27.334	4.0
27.349	7.0
27.364	9.0
27.379	8.0
27.394	12.0
27.408	5.0
27.423	6.0
27.438	11.0
27.453	13.0
27.467	15.0
27.482	5.0
27.497	10.0
27.512	7.0
27.527	8.0
27.541	8.0
27.556	16.0
27.571	9.0
27.586	16.0
27.601	7.0
27.615	7.0
27.63	15.0
27.645	10.0
27.66	10.0
27.675	13.0
27.689	15.0
27.704	10.0
27.719	11.0
27.734	16.0
27.749	21.0
27.763	16.0
27.778	21.0
27.793	25.0
27.808	24.0
27.823	17.0
27.838	19.0
27.852	29.0
27.867	23.0
27.882	25.0
27.897	29.0
27.912	22.0
27.926	25.0
27.941	21.0
27.956	23.0
27.971	17.0
27.986	14.0
28.001	17.0
28.015	23.0
28.03	19.0
28.045	26.0
28.06	14.0
28.075	17.0
28.09	14.0
28.105	13.0
28.119	11.0
28.134	12.0
28.149	10.0
28.164	14.0
28.179	6.0
28.194	8.0
28.208	19.0
28.223	13.0
28.238	15.0
28.253	15.0
28.268	14.0
28.283	9.0
28.298	13.0
28.312	9.0
28.327	8.0
28.342	9.0
28.357	16.0
28.372	11.0
28.387	6.0
28.402	14.0
28.417	10.0
28.431	10.0
28.446	12.0
28.461	9.0
28.476	11.0
28.491	14.0
28.506	11.0
28.521	11.0
28.536	9.0
28.55	9.0
28.565	11.0
28.58	12.0
28.595	14.0
28.61	13.0
28.625	9.0
28.64	6.0
28.655	11.0
28.669	8.0
28.684	11.0
28.699	15.0
28.714	14.0
28.729	8.0
28.744	12.0
28.759	9.0
28.774	8.0
28.788	9.0
28.803	7.0
28.818	11.0
28.833	9.0
28.848	14.0
28.863	10.0
28.878	11.0
28.893	17.0
28.908	6.0
28.922	7.0
28.937	19.0
28.952	9.0
28.967	7.0
28.982	8.0
28.997	11.0
29.012	10.0
29.027	7.0
29.041	7.0
29.056	13.0
29.071	14.0
29.086	17.0
29.101	9.0
29.116	11.0
29.131	10.0
29.146	10.0
29.16	10.0
29.175	9.0
29.19	21.0
29.205	11.0
29.22	14.0
29.235	10.0
29.25	12.0
29.265	10.0
29.279	10.0
29.294	15.0
29.309	13.0
29.324	5.0
29.339	13.0
29.354	15.0
29.369	17.0
29.384	19.0
29.398	20.0
29.413	18.0
29.428	21.0
29.443	18.0
29.458	19.0
29.473	20.0
29.488	21.0
29.502	38.0
29.517	37.0
29.532	34.0
29.547	30.0
29.562	49.0
29.577	38.0
29.592	52.0
29.606	57.0
29.621	56.0
29.636	50.0
29.651	42.0
29.666	51.0
29.681	51.0
29.695	31.0
29.71	39.0
29.725	41.0
29.74	33.0
29.755	36.0
29.77	35.0
29.784	27.0
29.799	30.0
29.814	26.0
29.829	43.0
29.844	35.0
29.859	27.0
29.873	22.0
29.888	18.0
29.903	20.0
29.918	10.0
29.933	7.0
29.947	9.0
29.962	16.0
29.977	12.0
29.992	12.0
30.007	12.0
30.021	10.0
30.036	8.0
30.051	10.0
30.066	7.0
30.081	9.0
30.095	12.0
30.11	12.0
30.125	5.0
30.14	12.0
30.155	15.0
30.169	8.0
30.184	12.0
30.199	17.0
30.214	14.0
30.228	13.0
30.243	17.0
30.258	6.0
30.273	10.0
30.288	12.0
30.302	14.0
30.317	12.0
30.332	13.0
30.347	15.0
30.361	13.0
30.376	18.0
30.391	11.0
30.406	12.0
30.42	9.0
30.435	14.0
30.45	10.0
30.465	16.0
30.479	9.0
30.494	13.0
30.509	7.0
30.524	14.0
30.538	9.0
30.553	13.0
30.568	10.0
30.583	7.0
30.597	8.0
30.612	11.0
30.627	11.0
30.641	5.0
30.656	21.0
30.671	11.0
30.686	11.0
30.7	15.0
30.715	8.0
30.73	16.0
30.745	7.0
30.759	8.0
30.774	10.0
30.789	14.0
30.803	9.0
30.818	19.0
30.833	10.0
30.848	10.0
30.862	15.0
30.877	11.0
30.892	3.0
30.906	14.0
30.921	9.0
30.936	6.0
30.951	23.0
30.965	4.0
30.98	10.0
30.995	18.0
31.009	13.0
31.024	17.0
31.039	12.0
31.053	19.0
31.068	17.0
31.083	20.0
31.098	17.0
31.112	20.0
31.127	21.0
31.142	22.0
31.156	24.0
31.171	32.0
31.186	20.0
31.2	34.0
31.215	36.0
31.23	40.0
31.245	34.0
31.259	31.0
31.274	43.0
31.289	38.0
31.303	32.0
31.318	43.0
31.333	33.0
31.347	38.0
31.362	18.0
31.377	29.0
31.392	25.0
31.406	21.0
31.421	23.0
31.436	21.0
31.45	25.0
31.465	32.0
31.48	25.0
31.494	26.0
31.509	23.0
31.524	8.0
31.538	8.0
31.553	18.0
31.568	19.0
31.583	17.0
31.597	15.0
31.612	11.0
31.627	10.0
31.641	18.0
31.656	9.0
31.671	11.0
31.685	15.0
31.7	14.0
31.715	10.0
31.729	8.0
31.744	18.0
31.759	9.0
31.774	8.0
31.788	11.0
31.803	10.0
31.818	11.0
31.832	7.0
31.847	16.0
31.862	10.0
31.876	9.0
31.891	15.0
31.906	9.0
31.92	15.0
31.935	8.0
31.95	11.0
31.965	16.0
31.979	11.0
31.994	9.0
32.009	8.0
32.023	10.0
32.038	14.0
32.053	15.0
32.067	14.0
32.082	10.0
32.097	9.0
32.112	14.0
32.126	11.0
32.141	12.0
32.156	4.0
32.17	11.0
32.185	9.0
32.2	18.0
32.214	10.0
32.229	9.0
32.244	12.0
32.259	9.0
32.273	8.0
32.288	10.0
32.303	16.0
32.317	16.0
32.332	12.0
32.347	14.0
32.362	15.0
32.376	9.0
32.391	8.0
32.406	16.0
32.42	6.0
32.435	13.0
32.45	16.0
32.465	10.0
32.479	14.0
32.494	20.0
32.509	10.0
32.523	14.0
32.538	10.0
32.553	10.0
32.568	13.0
32.582	13.0
32.597	10.0
32.612	11.0
32.627	10.0
32.641	21.0
32.656	13.0
32.671	14.0
32.685	16.0
32.7	11.0
32.715	17.0
32.73	11.0
32.744	15.0
32.759	25.0
32.774	30.0
32.788	19.0
32.803	27.0
32.818	21.0
32.833	32.0
32.847	32.0
32.862	26.0
32.877	27.0
32.892	36.0
32.906	25.0
32.921	17.0
32.936	29.0
32.951	25.0
32.965	13.0
32.98	28.0
32.995	26.0
33.009	15.0
33.024	15.0
33.039	16.0
33.054	18.0
33.068	14.0
33.083	9.0
33.098	8.0
33.113	10.0
33.127	12.0
33.142	8.0
33.157	4.0
33.172	8.0
33.186	11.0
33.201	13.0
33.216	14.0
33.231	8.0
33.245	10.0
33.26	11.0
33.275	8.0
33.29	5.0
33.304	8.0
33.319	11.0
33.334	11.0
33.349	9.0
33.363	7.0
33.378	11.0
33.393	12.0
33.408	18.0
33.422	10.0
33.437	8.0
33.452	16.0
33.467	6.0
33.481	9.0
33.496	10.0
33.511	6.0
33.526	7.0
33.54	9.0
33.555	6.0
33.57	12.0
33.585	10.0
33.599	8.0
33.614	8.0
33.629	15.0
33.644	9.0
33.658	8.0
33.673	7.0
33.688	8.0
33.703	8.0
33.718	8.0
33.732	11.0
33.747	11.0
33.762	7.0
33.777	7.0
33.791	3.0
33.806	10.0
33.821	9.0
33.836	6.0
33.85	11.0
33.865	10.0
33.88	9.0
33.895	10.0
33.91	7.0
33.924	12.0
33.939	5.0
33.954	8.0
33.969	5.0
33.983	12.0
33.998	8.0
34.013	11.0
34.028	3.0
34.042	9.0
34.057	9.0
34.072	6.0
34.087	12.0
34.102	11.0
34.116	8.0
34.131	10.0
34.146	11.0
34.161	12.0
34.175	12.0
34.19	11.0
34.205	11.0
34.22	13.0
34.235	14.0
34.249	18.0
34.264	10.0
34.279	17.0
34.294	16.0
34.309	19.0
34.323	11.0
34.338	9.0
34.353	12.0
34.368	8.0
34.382	15.0
34.397	10.0
34.412	15.0
34.427	10.0
34.442	7.0
34.456	10.0
34.471	11.0
34.486	12.0
34.501	13.0
34.516	7.0
34.53	13.0
34.545	10.0
34.56	7.0
34.575	13.0
34.59	11.0
34.604	14.0
34.619	12.0
34.634	10.0
34.649	12.0
34.664	8.0
34.678	12.0
34.693	10.0
34.708	17.0
34.723	6.0
34.738	6.0
34.752	10.0
34.767	7.0
34.782	8.0
34.797	7.0
34.812	9.0
34.826	7.0
34.841	12.0
34.856	4.0
34.871	12.0
34.886	6.0
34.9	10.0
34.915	8.0
34.93	6.0
34.945	10.0
34.96	14.0
34.974	21.0
34.989	12.0
35.004	9.0
35.019	8.0
35.034	12.0
35.048	10.0
35.063	7.0
35.078	6.0
35.093	3.0
35.108	12.0
35.122	8.0
35.137	4.0
35.152	7.0
35.167	7.0
35.182	2.0
35.196	9.0
35.211	6.0
35.226	6.0
35.241	10.0
35.256	4.0
35.27	12.0
35.285	13.0
35.3	16.0
35.315	8.0
35.33	6.0
35.344	4.0
35.359	6.0
35.374	11.0
35.389	12.0
35.404	13.0
35.418	9.0
35.433	6.0
35.448	6.0
35.463	6.0
35.478	11.0
35.493	4.0
35.507	4.0
35.522	9.0
35.537	8.0
35.552	8.0
35.567	11.0
35.581	9.0
35.596	12.0
35.611	13.0
35.626	6.0
35.641	12.0
35.655	14.0
35.67	19.0
35.685	15.0
35.7	11.0
35.715	14.0
35.729	18.0
35.744	19.0
35.759	18.0
35.774	19.0
35.789	22.0
35.804	16.0
35.818	28.0
35.833	24.0
35.848	25.0
35.863	14.0
35.878	10.0
35.892	15.0
35.907	12.0
35.922	20.0
35.937	7.0
35.952	21.0
35.966	12.0
35.981	13.0
35.996	13.0
36.011	19.0
36.026	18.0
36.04	11.0
36.055	10.0
36.07	9.0
36.085	8.0
36.1	9.0
36.114	10.0
36.129	8.0
36.144	9.0
36.159	5.0
36.174	7.0
36.189	11.0
36.203	12.0
36.218	13.0
36.233	10.0
36.248	9.0
36.263	7.0
36.277	10.0
36.292	9.0
36.307	11.0
36.322	9.0
36.337	10.0
36.351	10.0
36.366	6.0
36.381	5.0
36.396	6.0
36.411	8.0
36.426	13.0
36.44	11.0
36.455	3.0
36.47	5.0
36.485	11.0
36.5	7.0
36.514	6.0
36.529	9.0
36.544	3.0
36.559	7.0
36.574	12.0
36.589	12.0
36.603	7.0
36.618	17.0
36.633	8.0
36.648	7.0
36.663	7.0
36.677	4.0
36.692	8.0
36.707	11.0
36.722	10.0
36.737	6.0
36.752	3.0
36.766	5.0
36.781	8.0
36.796	5.0
36.811	14.0
36.826	5.0
36.841	13.0
36.855	11.0
36.87	10.0
36.885	6.0
36.9	9.0
36.915	13.0
36.93	11.0
36.944	12.0
36.959	6.0
36.974	9.0
36.989	8.0
37.004	9.0
37.019	11.0
37.033	14.0
37.048	10.0
37.063	19.0
37.078	9.0
37.093	19.0
37.108	18.0
37.123	23.0
37.137	26.0
37.152	27.0
37.167	26.0
37.182	26.0
37.197	30.0
37.212	40.0
37.226	25.0
37.241	32.0
37.256	31.0
37.271	23.0
37.286	12.0
37.301	16.0
37.316	19.0
37.331	21.0
37.345	15.0
37.36	20.0
37.375	11.0
37.39	18.0
37.405	25.0
37.42	20.0
37.435	16.0
37.45	14.0
37.464	7.0
37.479	9.0
37.494	16.0
37.509	12.0
37.524	9.0
37.539	10.0
37.554	10.0
37.569	4.0
37.583	11.0
37.598	10.0
37.613	7.0
37.628	14.0
37.643	14.0
37.658	7.0
37.673	6.0
37.688	11.0
37.703	6.0
37.718	13.0
37.733	2.0
37.747	10.0
37.762	7.0
37.777	5.0
37.792	5.0
37.807	6.0
37.822	8.0
37.837	5.0
37.852	8.0
37.867	4.0
37.882	9.0
37.897	7.0
37.912	7.0
37.927	7.0
37.941	7.0
37.956	7.0
37.971	9.0
37.986	7.0
38.001	11.0
38.016	6.0
38.031	12.0
38.046	7.0
38.061	13.0
38.076	5.0
38.091	3.0
38.106	6.0
38.121	12.0
38.136	11.0
38.151	6.0
38.166	12.0
38.181	4.0
38.196	3.0
38.211	5.0
38.226	6.0
38.241	6.0
38.256	4.0
38.271	4.0
38.285	4.0
38.3	3.0
38.315	5.0
38.33	8.0
38.345	8.0
38.36	4.0
38.375	2.0
38.39	6.0
38.405	5.0
38.42	7.0
38.435	5.0
38.45	7.0
38.465	7.0
38.48	5.0
38.495	13.0
38.51	3.0
38.525	7.0
38.54	8.0
38.555	8.0
38.57	6.0
38.585	7.0
38.6	6.0
38.615	1.0
38.63	2.0
38.645	10.0
38.66	8.0
38.675	10.0
38.69	10.0
38.705	6.0
38.72	4.0
38.735	13.0
38.75	6.0
38.765	7.0
38.78	5.0
38.795	7.0
38.81	9.0
38.825	9.0
38.84	3.0
38.855	7.0
38.87	4.0
38.885	8.0
38.9	8.0
38.915	9.0
38.93	4.0
38.945	5.0
38.96	9.0
38.975	3.0
38.99	8.0
39.005	6.0
39.02	4.0
39.035	7.0
39.05	9.0
39.065	3.0
39.08	3.0
39.095	12.0
39.11	6.0
39.125	8.0
39.14	6.0
39.155	9.0
39.17	10.0
39.185	5.0
39.2	5.0
39.215	5.0
39.23	8.0
39.245	7.0
39.26	7.0
39.275	5.0
39.29	2.0
39.305	6.0
39.32	6.0
39.335	9.0
39.35	7.0
39.365	2.0
39.38	6.0
39.395	3.0
39.409	7.0
39.424	5.0
39.439	5.0
39.454	8.0
39.469	5.0
39.484	10.0
39.499	4.0
39.514	7.0
39.529	6.0
39.544	4.0
39.559	7.0
39.574	5.0
39.589	6.0
39.604	7.0
39.619	2.0
39.634	5.0
39.649	5.0
39.664	8.0
39.678	3.0
39.693	7.0
39.708	3.0
39.723	9.0
39.738	9.0
39.753	2.0
39.768	6.0
39.783	9.0
39.798	4.0
39.813	6.0
39.827	11.0
39.842	9.0
39.857	5.0
39.872	11.0
39.887	16.0
39.902	10.0
39.917	8.0
39.932	12.0
39.947	10.0
39.961	10.0
39.976	2.0
39.991	5.0
40.006	6.0
40.021	8.0
40.036	10.0
40.051	8.0
40.065	6.0
40.08	6.0
40.095	6.0
40.11	4.0
40.125	4.0
40.14	5.0
40.154	10.0
40.169	8.0
40.184	6.0
40.199	5.0
40.214	2.0
40.228	7.0
40.243	3.0
40.258	5.0
40.273	7.0
40.288	6.0
40.302	5.0
40.317	11.0
40.332	7.0
40.347	3.0
40.362	6.0
40.376	7.0
40.391	7.0
40.406	3.0
40.421	6.0
40.436	6.0
40.45	1.0
40.465	8.0
40.48	8.0
40.495	6.0
40.509	4.0
40.524	4.0
40.539	8.0
40.554	3.0
40.568	5.0
40.583	8.0
40.598	5.0
40.613	3.0
40.627	9.0
40.642	5.0
40.657	2.0
40.672	6.0
40.686	4.0
40.701	12.0
40.716	8.0
40.731	11.0
40.745	4.0
40.76	7.0
40.775	5.0
40.79	5.0
40.804	9.0
40.819	5.0
40.834	7.0
40.849	8.0
40.863	9.0
40.878	11.0
40.893	6.0
40.907	7.0
40.922	10.0
40.937	5.0
40.952	9.0
40.966	4.0
40.981	4.0
40.996	6.0
41.011	8.0
41.025	10.0
41.04	15.0
41.055	7.0
41.069	10.0
41.084	15.0
41.099	30.0
41.114	17.0
41.128	14.0
41.143	15.0
41.158	15.0
41.173	20.0
41.187	21.0
41.202	13.0
41.217	19.0
41.231	15.0
41.246	12.0
41.261	11.0
41.276	11.0
41.29	15.0
41.305	8.0
41.32	12.0
41.335	10.0
41.349	12.0
41.364	10.0
41.379	14.0
41.393	11.0
41.408	13.0
41.423	15.0
41.438	14.0
41.452	13.0
41.467	9.0
41.482	7.0
41.497	5.0
41.511	9.0
41.526	9.0
41.541	8.0
41.556	8.0
41.57	6.0
41.585	5.0
41.6	7.0
41.615	8.0
41.629	3.0
41.644	7.0
41.659	10.0
41.674	7.0
41.688	10.0
41.703	4.0
41.718	6.0
41.733	7.0
41.747	2.0
41.762	7.0
41.777	8.0
41.792	3.0
41.806	4.0
41.821	7.0
41.836	7.0
41.851	11.0
41.866	10.0
41.88	5.0
41.895	6.0
41.91	7.0
41.925	8.0
41.939	4.0
41.954	4.0
41.969	10.0
41.984	6.0
41.999	6.0
42.013	8.0
42.028	8.0
42.043	6.0
42.058	6.0
42.073	6.0
42.088	4.0
42.102	2.0
42.117	7.0
42.132	7.0
42.147	6.0
42.162	6.0
42.176	5.0
42.191	9.0
42.206	9.0
42.221	9.0
42.236	9.0
42.251	10.0
42.266	4.0
42.28	3.0
42.295	9.0
42.31	8.0
42.325	16.0
42.34	16.0
42.355	13.0
42.369	11.0
42.384	20.0
42.399	18.0
42.414	10.0
42.429	22.0
42.444	11.0
42.459	15.0
42.474	11.0
42.488	10.0
42.503	10.0
42.518	12.0
42.533	8.0
42.548	11.0
42.563	13.0
42.578	7.0
42.593	10.0
42.608	14.0
42.622	9.0
42.637	13.0
42.652	8.0
42.667	11.0
42.682	7.0
42.697	11.0
42.712	8.0
42.727	7.0
42.742	6.0
42.757	8.0
42.772	7.0
42.786	4.0
42.801	6.0
42.816	6.0
42.831	10.0
42.846	3.0
42.861	7.0
42.876	11.0
42.891	9.0
42.906	10.0
42.921	7.0
42.936	6.0
42.951	7.0
42.966	4.0
42.981	6.0
42.996	2.0
43.011	7.0
43.025	7.0
43.04	7.0
43.055	6.0
43.07	2.0
43.085	9.0
43.1	5.0
43.115	6.0
43.13	6.0
43.145	7.0
43.16	8.0
43.175	5.0
43.19	4.0
43.205	6.0
43.22	4.0
43.235	4.0
43.25	1.0
43.265	3.0
43.28	6.0
43.295	3.0
43.31	5.0
43.325	4.0
43.34	2.0
43.355	5.0
43.37	3.0
43.385	10.0
43.4	3.0
43.415	6.0
43.43	4.0
43.445	7.0
43.46	4.0
43.475	6.0
43.49	6.0
43.505	9.0
43.52	8.0
43.535	6.0
43.55	7.0
43.565	7.0
43.58	4.0
43.595	8.0
43.61	7.0
43.625	11.0
43.64	10.0
43.655	12.0
43.67	13.0
43.685	11.0
43.7	12.0
43.715	3.0
43.73	6.0
43.745	13.0
43.76	6.0
43.775	6.0
43.79	1.0
43.805	6.0
43.82	10.0
43.835	7.0
43.85	8.0
43.865	9.0
43.88	10.0
43.895	9.0
43.91	9.0
43.925	11.0
43.94	10.0
43.955	2.0
43.97	6.0
43.985	8.0
44.0	4.0
44.015	4.0
44.03	3.0
44.045	2.0
44.061	4.0
44.076	5.0
44.091	4.0
44.106	4.0
44.121	5.0
44.136	4.0
44.151	6.0
44.166	2.0
44.181	5.0
44.196	4.0
44.211	4.0
44.226	9.0
44.241	8.0
44.256	7.0
44.271	10.0
44.286	4.0
44.301	4.0
44.316	6.0
44.331	5.0
44.346	8.0
44.361	3.0
44.377	4.0
44.392	5.0
44.407	6.0
44.422	5.0
44.437	4.0
44.452	6.0
44.467	6.0
44.482	4.0
44.497	7.0
44.512	6.0
44.527	13.0
44.542	7.0
44.557	5.0
44.572	5.0
44.587	2.0
44.602	5.0
44.617	6.0
44.632	3.0
44.647	6.0
44.663	2.0
44.678	5.0
44.693	10.0
44.708	11.0
44.723	8.0
44.738	10.0
44.753	9.0
44.768	15.0
44.783	8.0
44.798	14.0
44.813	9.0
44.828	8.0
44.843	7.0
44.858	12.0
44.873	12.0
44.888	8.0
44.903	8.0
44.918	7.0
44.933	9.0
44.948	3.0
44.964	6.0
44.979	9.0
44.994	2.0
45.009	13.0
45.024	7.0
45.039	10.0
45.054	6.0
45.069	9.0
45.084	3.0
45.099	10.0
45.114	4.0
45.129	8.0
45.144	9.0
45.159	10.0
45.174	5.0
45.189	4.0
45.204	5.0
45.219	3.0
45.234	4.0
45.249	8.0
45.264	5.0
45.279	6.0
45.294	3.0
45.309	5.0
45.324	4.0
45.339	7.0
45.354	5.0
45.369	4.0
45.384	6.0
45.399	2.0
45.414	7.0
45.429	7.0
45.444	6.0
45.459	7.0
45.474	2.0
45.489	4.0
45.504	4.0
45.519	6.0
45.534	8.0
45.549	4.0
45.564	3.0
45.579	4.0
45.594	5.0
45.609	6.0
45.624	5.0
45.639	6.0
45.654	6.0
45.669	11.0
45.684	6.0
45.699	4.0
45.714	5.0
45.729	3.0
45.744	3.0
45.759	2.0
45.774	4.0
45.789	6.0
45.804	7.0
45.819	9.0
45.834	8.0
45.849	8.0
45.864	6.0
45.879	5.0
45.894	13.0
45.909	10.0
45.924	16.0
45.939	15.0
45.954	15.0
45.969	17.0
45.984	11.0
45.998	8.0
46.013	8.0
46.028	14.0
46.043	13.0
46.058	10.0
46.073	9.0
46.088	19.0
46.103	8.0
46.118	5.0
46.133	9.0
46.148	5.0
46.163	6.0
46.178	9.0
46.192	11.0
46.207	9.0
46.222	9.0
46.237	6.0
46.252	12.0
46.267	13.0
46.282	10.0
46.297	8.0
46.312	19.0
46.327	12.0
46.341	6.0
46.356	13.0
46.371	6.0
46.386	2.0
46.401	7.0
46.416	7.0
46.431	5.0
46.446	5.0
46.46	2.0
46.475	4.0
46.49	12.0
46.505	1.0
46.52	7.0
46.535	7.0
46.55	7.0
46.564	4.0
46.579	3.0
46.594	6.0
46.609	7.0
46.624	1.0
46.639	7.0
46.654	6.0
46.668	4.0
46.683	9.0
46.698	4.0
46.713	2.0
46.728	6.0
46.743	1.0
46.758	5.0
46.772	4.0
46.787	3.0
46.802	4.0
46.817	7.0
46.832	5.0
46.847	4.0
46.861	6.0
46.876	7.0
46.891	5.0
46.906	4.0
46.921	2.0
46.936	3.0
46.95	5.0
46.965	12.0
46.98	1.0
46.995	6.0
47.01	12.0
47.025	5.0
47.039	8.0
47.054	9.0
47.069	11.0
47.084	10.0
47.099	8.0
47.113	14.0
47.128	7.0
47.143	10.0
47.158	8.0
47.173	14.0
47.188	8.0
47.202	5.0
47.217	7.0
47.232	6.0
47.247	9.0
47.262	7.0
47.277	4.0
47.291	7.0
47.306	5.0
47.321	5.0
47.336	5.0
47.351	6.0
47.365	6.0
47.38	7.0
47.395	5.0
47.41	5.0
47.425	8.0
47.44	8.0
47.454	8.0
47.469	11.0
47.484	11.0
47.499	4.0
47.514	8.0
47.528	5.0
47.543	4.0
47.558	8.0
47.573	6.0
47.588	2.0
47.603	2.0
47.617	2.0
47.632	7.0
47.647	4.0
47.662	8.0
47.677	5.0
47.691	6.0
47.706	8.0
47.721	3.0
47.736	7.0
47.751	9.0
47.766	8.0
47.78	7.0
47.795	1.0
47.81	6.0
47.825	7.0
47.84	2.0
47.855	5.0
47.869	7.0
47.884	4.0
47.899	8.0
47.914	8.0
47.929	4.0
47.944	4.0
47.958	7.0
47.973	6.0
47.988	6.0
48.003	4.0
48.018	9.0
48.033	1.0
48.047	5.0
48.062	1.0
48.077	6.0
48.092	3.0
48.107	2.0
48.122	5.0
48.137	5.0
48.151	5.0
48.166	3.0
48.181	1.0
48.196	2.0
48.211	4.0
48.226	5.0
48.241	5.0
48.255	2.0
48.27	3.0
48.285	8.0
48.3	4.0
48.315	3.0
48.33	4.0
48.345	10.0
48.359	7.0
48.374	8.0
48.389	5.0
48.404	5.0
48.419	3.0
48.434	6.0
48.449	5.0
48.464	2.0
48.478	5.0
48.493	3.0
48.508	1.0
48.523	6.0
48.538	7.0
48.553	4.0
48.568	3.0
48.583	6.0
48.597	4.0
48.612	4.0
48.627	2.0
48.642	3.0
48.657	2.0
48.672	7.0
48.687	3.0
48.702	7.0
48.717	2.0
48.731	3.0
48.746	5.0
48.761	2.0
48.776	5.0
48.791	8.0
48.806	2.0
48.821	7.0
48.836	3.0
48.851	3.0
48.866	5.0
48.88	7.0
48.895	5.0
48.91	2.0
48.925	3.0
48.94	0.0
48.955	4.0
48.97	4.0
48.985	7.0
49.0	3.0
49.015	5.0
49.03	4.0
49.044	8.0
49.059	2.0
49.074	5.0
49.089	7.0
49.104	7.0
49.119	6.0
49.134	6.0
49.149	6.0
49.164	4.0
49.179	3.0
49.194	2.0
49.209	6.0
49.224	4.0
49.238	7.0
49.253	2.0
49.268	9.0
49.283	3.0
49.298	1.0
49.313	9.0
49.328	8.0
49.343	3.0
49.358	8.0
49.373	6.0
49.388	2.0
49.403	2.0
49.418	6.0
49.433	8.0
49.448	6.0
49.463	10.0
49.478	2.0
49.492	1.0
49.507	7.0
49.522	5.0
49.537	5.0
49.552	9.0
49.567	4.0
49.582	7.0
49.597	4.0
49.612	12.0
49.627	9.0
49.642	3.0
49.657	9.0
49.672	4.0
49.687	6.0
49.702	7.0
49.717	4.0
49.732	8.0
49.747	3.0
49.762	6.0
49.777	5.0
49.792	8.0
49.807	2.0
49.822	5.0
49.837	9.0
49.852	9.0
49.867	8.0
49.882	7.0
49.897	4.0
49.912	4.0
49.927	4.0
49.942	7.0
49.957	3.0
49.971	6.0
49.986	4.0
50.001	7.0
50.016	6.0
50.031	5.0
50.046	3.0
50.061	2.0
50.076	6.0
50.091	6.0
50.106	3.0
50.121	10.0
50.136	3.0
50.151	3.0
50.166	6.0
50.181	6.0
50.196	4.0
50.211	7.0
50.226	5.0
50.241	2.0
50.256	6.0
50.271	5.0
50.286	4.0
50.302	8.0
50.317	9.0
50.332	7.0
50.347	5.0
50.362	6.0
50.377	6.0
50.392	6.0
50.407	2.0
50.422	8.0
50.437	6.0
50.452	8.0
50.467	4.0
50.482	1.0
50.497	4.0
50.512	8.0
50.527	7.0
50.542	6.0
50.557	8.0
50.572	3.0
50.587	9.0
50.602	6.0
50.617	6.0
50.632	6.0
50.647	10.0
50.662	4.0
50.677	5.0
50.692	3.0
50.707	9.0
50.722	4.0
50.737	8.0
50.752	9.0
50.767	3.0
50.782	6.0
50.797	3.0
50.812	4.0
50.828	5.0
50.843	5.0
50.858	6.0
50.873	3.0
50.888	3.0
50.903	11.0
50.918	4.0
50.933	4.0
50.948	7.0
50.963	6.0
50.978	5.0
50.993	6.0
51.008	6.0
51.023	3.0
51.038	3.0
51.053	7.0
51.068	7.0
51.083	5.0
51.098	7.0
51.114	7.0
51.129	5.0
51.144	4.0
51.159	5.0
51.174	3.0
51.189	6.0
51.204	6.0
51.219	3.0
51.234	8.0
51.249	6.0
51.264	5.0
51.279	8.0
51.294	3.0
51.309	2.0
51.324	3.0
51.34	9.0
51.355	5.0
51.37	5.0
51.385	5.0
51.4	7.0
51.415	9.0
51.43	10.0
51.445	12.0
51.46	10.0
51.475	14.0
51.49	16.0
51.505	20.0
51.52	15.0
51.535	11.0
51.551	15.0
51.566	17.0
51.581	25.0
51.596	13.0
51.611	7.0
51.626	3.0
51.641	13.0
51.656	9.0
51.671	9.0
51.686	14.0
51.701	5.0
51.716	4.0
51.732	9.0
51.747	6.0
51.762	13.0
51.777	7.0
51.792	7.0
51.807	13.0
51.822	6.0
51.837	8.0
51.852	11.0
51.867	11.0
51.882	12.0
51.898	13.0
51.913	5.0
51.928	13.0
51.943	8.0
51.958	4.0
51.973	8.0
51.988	7.0
52.003	3.0
52.018	7.0
52.033	6.0
52.048	4.0
52.064	5.0
52.079	6.0
52.094	7.0
52.109	11.0
52.124	2.0
52.139	2.0
52.154	1.0
52.169	5.0
52.184	4.0
52.199	2.0
52.215	3.0
52.23	3.0
52.245	8.0
52.26	6.0
52.275	2.0
52.29	1.0
52.305	6.0
52.32	13.0
52.335	6.0
52.35	6.0
52.366	6.0
52.381	6.0
52.396	10.0
52.411	5.0
52.426	8.0
52.441	8.0
52.456	4.0
52.471	9.0
52.486	9.0
52.502	8.0
52.517	6.0
52.532	12.0
52.547	9.0
52.562	9.0
52.577	10.0
52.592	10.0
52.607	13.0
52.622	4.0
52.637	4.0
52.653	8.0
52.668	7.0
52.683	11.0
52.698	6.0
52.713	11.0
52.728	4.0
52.743	10.0
52.758	11.0
52.774	6.0
52.789	3.0
52.804	8.0
52.819	6.0
52.834	10.0
52.849	11.0
52.864	7.0
52.879	4.0
52.894	11.0
52.91	12.0
52.925	7.0
52.94	5.0
52.955	6.0
52.97	9.0
52.985	4.0
53.0	7.0
53.015	5.0
53.031	7.0
53.046	5.0
53.061	9.0
53.076	9.0
53.091	5.0
53.106	4.0
53.121	6.0
53.136	0.0
53.152	6.0
53.167	4.0
53.182	5.0
53.197	8.0
53.212	2.0
53.227	8.0
53.242	8.0
53.257	4.0
53.273	2.0
53.288	5.0
53.303	3.0
53.318	1.0
53.333	4.0
53.348	4.0
53.363	5.0
53.379	9.0
53.394	5.0
53.409	10.0
53.424	12.0
53.439	1.0
53.454	8.0
53.469	5.0
53.484	4.0
53.5	3.0
53.515	4.0
53.53	1.0
53.545	7.0
53.56	3.0
53.575	2.0
53.59	4.0
53.606	3.0
53.621	4.0
53.636	3.0
53.651	9.0
53.666	3.0
53.681	4.0
53.696	3.0
53.712	6.0
53.727	5.0
53.742	3.0
53.757	4.0
53.772	4.0
53.787	6.0
53.802	7.0
53.818	3.0
53.833	4.0
53.848	12.0
53.863	2.0
53.878	2.0
53.893	3.0
53.909	8.0
53.924	3.0
53.939	3.0
53.954	2.0
53.969	6.0
53.984	6.0
53.999	5.0
54.015	4.0
54.03	0.0
54.045	7.0
54.06	5.0
54.075	6.0
54.09	12.0
54.106	4.0
54.121	0.0
54.136	5.0
54.151	2.0
54.166	3.0
54.181	5.0
54.197	4.0
54.212	7.0
54.227	6.0
54.242	5.0
54.257	8.0
54.272	4.0
54.288	9.0
54.303	11.0
54.318	8.0
54.333	7.0
54.348	4.0
54.363	2.0
54.379	7.0
54.394	3.0
54.409	6.0
54.424	6.0
54.439	6.0
54.454	5.0
54.47	6.0
54.485	6.0
54.5	3.0
54.515	14.0
54.53	9.0
54.545	10.0
54.561	7.0
54.576	9.0
54.591	15.0
54.606	6.0
54.621	11.0
54.636	9.0
54.652	9.0
54.667	6.0
54.682	15.0
54.697	15.0
54.712	9.0
54.727	13.0
54.743	12.0
54.758	9.0
54.773	7.0
54.788	5.0
54.803	5.0
54.819	3.0
54.834	6.0
54.849	5.0
54.864	7.0
54.879	3.0
54.894	5.0
54.91	5.0
54.925	7.0
54.94	3.0
54.955	11.0
54.97	11.0
54.985	11.0
55.001	11.0
55.016	16.0
55.031	6.0
55.046	9.0
55.061	11.0
55.077	8.0
55.092	2.0
55.107	4.0
55.122	3.0
55.137	6.0
55.152	4.0
55.168	3.0
55.183	7.0
55.198	2.0
55.213	5.0
55.228	5.0
55.243	5.0
55.259	5.0
55.274	2.0
55.289	8.0
55.304	3.0
55.319	3.0
55.335	6.0
55.35	2.0
55.365	2.0
55.38	3.0
55.395	7.0
55.41	4.0
55.426	3.0
55.441	4.0
55.456	4.0
55.471	8.0
55.486	6.0
55.501	5.0
55.517	1.0
55.532	8.0
55.547	7.0
55.562	4.0
55.577	7.0
55.592	2.0
55.608	10.0
55.623	6.0
55.638	6.0
55.653	9.0
55.668	6.0
55.683	9.0
55.699	10.0
55.714	7.0
55.729	10.0
55.744	5.0
55.759	5.0
55.774	12.0
55.79	8.0
55.805	5.0
55.82	4.0
55.835	6.0
55.85	4.0
55.865	1.0
55.881	8.0
55.896	5.0
55.911	5.0
55.926	4.0
55.941	6.0
55.956	1.0
55.972	2.0
55.987	9.0
56.002	4.0
56.017	5.0
56.032	10.0
56.047	9.0
56.063	7.0
56.078	5.0
56.093	3.0
56.108	2.0
56.123	5.0
56.138	1.0
56.154	3.0
56.169	3.0
56.184	3.0
56.199	3.0
56.214	1.0
56.229	3.0
56.244	5.0
56.26	6.0
56.275	8.0
56.29	1.0
56.305	2.0
56.32	2.0
56.335	4.0
56.351	4.0
56.366	5.0
56.381	6.0
56.396	5.0
56.411	4.0
56.426	1.0
56.441	2.0
56.457	5.0
56.472	4.0
56.487	4.0
56.502	7.0
56.517	5.0
56.532	5.0
56.547	5.0
56.563	6.0
56.578	3.0
56.593	5.0
56.608	3.0
56.623	1.0
56.638	5.0
56.653	1.0
56.668	2.0
56.684	5.0
56.699	7.0
56.714	5.0
56.729	4.0
56.744	3.0
56.759	4.0
56.774	4.0
56.79	5.0
56.805	3.0
56.82	5.0
56.835	6.0
56.85	3.0
56.865	6.0
56.88	6.0
56.895	7.0
56.911	3.0
56.926	7.0
56.941	3.0
56.956	11.0
56.971	6.0
56.986	3.0
57.001	0.0
57.016	0.0
57.031	3.0
57.047	3.0
57.062	6.0
57.077	4.0
57.092	6.0
57.107	3.0
57.122	8.0
57.137	3.0
57.152	2.0
57.167	6.0
57.183	3.0
57.198	5.0
57.213	4.0
57.228	6.0
57.243	8.0
57.258	6.0
57.273	8.0
57.288	3.0
57.303	7.0
57.318	3.0
57.334	5.0
57.349	2.0
57.364	4.0
57.379	5.0
57.394	4.0
57.409	4.0
57.424	9.0
57.439	6.0
57.454	6.0
57.469	7.0
57.484	3.0
57.5	4.0
57.515	5.0
57.53	6.0
57.545	8.0
57.56	5.0
57.575	3.0
57.59	1.0
57.605	3.0
57.62	6.0
57.635	10.0
57.65	5.0
57.665	11.0
57.68	6.0
57.696	5.0
57.711	6.0
57.726	7.0
57.741	8.0
57.756	4.0
57.771	9.0
57.786	2.0
57.801	4.0
57.816	5.0
57.831	0.0
57.846	8.0
57.861	5.0
57.876	8.0
57.891	2.0
57.906	3.0
57.921	4.0
57.937	5.0
57.952	2.0
57.967	3.0
57.982	1.0
57.997	8.0
58.012	11.0
58.027	9.0
58.042	1.0
58.057	7.0
58.072	6.0
58.087	6.0
58.102	5.0
58.117	8.0
58.132	5.0
58.147	1.0
58.162	7.0
58.177	2.0
58.192	1.0
58.207	0.0
58.222	7.0
58.237	2.0
58.252	6.0
58.267	5.0
58.282	2.0
58.297	5.0
58.312	6.0
58.327	2.0
58.342	3.0
58.357	4.0
58.372	3.0
58.387	0.0
58.402	8.0
58.418	10.0
58.433	4.0
58.448	4.0
58.463	4.0
58.478	1.0
58.493	4.0
58.508	4.0
58.523	3.0
58.538	5.0
58.553	6.0
58.568	7.0
58.583	6.0
58.598	5.0
58.613	16.0
58.628	4.0
58.643	16.0
58.658	9.0
58.673	11.0
58.688	9.0
58.703	9.0
58.718	4.0
58.733	6.0
58.748	6.0
58.763	9.0
58.778	2.0
58.793	5.0
58.808	3.0
58.823	3.0
58.838	8.0
58.853	9.0
58.868	4.0
58.883	4.0
58.898	5.0
58.913	11.0
58.928	3.0
58.942	6.0
58.957	5.0
58.972	12.0
58.987	6.0
59.002	5.0
59.017	5.0
59.032	8.0
59.047	9.0
59.062	12.0
59.077	5.0
59.092	4.0
59.107	5.0
59.122	5.0
59.137	1.0
59.152	4.0
59.167	0.0
59.182	6.0
59.197	2.0
59.212	4.0
59.227	2.0
59.242	3.0
59.257	4.0
59.272	5.0
59.287	3.0
59.302	6.0
59.317	5.0
59.332	4.0
59.347	2.0
59.362	3.0
59.377	5.0
59.392	4.0
59.407	2.0
59.422	2.0
59.437	2.0
59.452	4.0
59.467	3.0
59.482	6.0
59.497	5.0
59.512	6.0
59.527	7.0
59.542	6.0
59.557	5.0
59.572	7.0
59.587	7.0
59.602	11.0
59.617	10.0
59.632	8.0
59.647	5.0
59.661	11.0
59.676	1.0
59.691	10.0
59.706	5.0
59.721	9.0
59.736	9.0
59.751	5.0
59.766	3.0
59.781	6.0
59.796	4.0
59.811	3.0
59.826	1.0
59.841	4.0
59.856	5.0
59.871	3.0
59.886	2.0
59.901	5.0
59.916	2.0
59.931	7.0
59.946	6.0
59.961	8.0
59.976	13.0
59.991	6.0
60.006	10.0
60.021	6.0
60.036	10.0
60.051	8.0
60.066	10.0
60.081	2.0
60.096	8.0
60.111	4.0
60.126	3.0
60.141	2.0
60.156	1.0
60.171	1.0
60.186	9.0
60.201	2.0
60.216	8.0
60.231	4.0
60.246	4.0
60.261	6.0
60.276	2.0
60.291	2.0
60.306	6.0
60.321	3.0
60.336	3.0
60.35	3.0
60.365	6.0
60.38	3.0
60.395	5.0
60.41	7.0
60.425	9.0
60.44	4.0
60.455	2.0
60.47	3.0
60.485	8.0
60.5	5.0
60.515	11.0
60.53	7.0
60.545	3.0
60.56	6.0
60.575	7.0
60.59	9.0
60.605	5.0
60.62	9.0
60.635	3.0
60.65	6.0
60.665	1.0
60.68	1.0
60.695	7.0
60.71	2.0
60.725	3.0
60.74	5.0
60.755	9.0
60.77	2.0
60.785	4.0
60.8	7.0
60.815	1.0
60.83	3.0
60.845	6.0
60.86	3.0
60.875	4.0
60.89	5.0
60.905	5.0
60.92	4.0
60.935	5.0
60.95	8.0
60.965	9.0
60.98	6.0
60.995	2.0
61.01	8.0
61.025	4.0
61.04	6.0
61.055	5.0
61.07	5.0
61.085	4.0
61.1	1.0
61.115	5.0
61.13	5.0
61.145	2.0
61.16	5.0
61.175	4.0
61.191	4.0
61.206	4.0
61.221	5.0
61.236	2.0
61.251	1.0
61.266	5.0
61.281	5.0
61.296	2.0
61.311	3.0
61.326	2.0
61.341	7.0
61.356	3.0
61.371	7.0
61.386	5.0
61.401	5.0
61.416	3.0
61.431	6.0
61.446	8.0
61.461	8.0
61.476	5.0
61.491	5.0
61.506	8.0
61.521	11.0
61.536	5.0
61.551	4.0
61.566	2.0
61.581	5.0
61.596	6.0
61.611	8.0
61.626	8.0
61.641	5.0
61.656	4.0
61.672	1.0
61.687	7.0
61.702	1.0
61.717	3.0
61.732	4.0
61.747	3.0
61.762	2.0
61.777	1.0
61.792	7.0
61.807	5.0
61.822	7.0
61.837	8.0
61.852	4.0
61.867	3.0
61.882	7.0
61.897	7.0
61.912	5.0
61.927	3.0
61.943	3.0
61.958	4.0
61.973	3.0
61.988	6.0
62.003	7.0
62.018	0.0
62.033	3.0
62.048	1.0
62.063	4.0
62.078	5.0
62.093	6.0
62.108	1.0
62.123	6.0
62.138	4.0
62.153	4.0
62.169	2.0
62.184	6.0
62.199	3.0
62.214	6.0
62.229	3.0
62.244	4.0
62.259	4.0
62.274	4.0
62.289	5.0
62.304	2.0
62.319	2.0
62.335	2.0
62.35	6.0
62.365	2.0
62.38	0.0
62.395	3.0
62.41	4.0
62.425	6.0
62.44	6.0
62.455	2.0
62.47	6.0
62.485	7.0
62.501	3.0
62.516	4.0
62.531	7.0
62.546	4.0
62.561	4.0
62.576	4.0
62.591	3.0
62.606	4.0
62.621	4.0
62.636	4.0
62.652	3.0
62.667	4.0
62.682	3.0
62.697	2.0
62.712	1.0
62.727	6.0
62.742	2.0
62.757	3.0
62.772	3.0
62.787	6.0
62.803	3.0
62.818	4.0
62.833	5.0
62.848	1.0
62.863	6.0
62.878	6.0
62.893	4.0
62.908	3.0
62.923	3.0
62.939	5.0
62.954	2.0
62.969	6.0
62.984	3.0
62.999	2.0
63.014	2.0
63.029	5.0
63.044	3.0
63.059	3.0
63.074	2.0
63.09	3.0
63.105	4.0
63.12	3.0
63.135	3.0
63.15	5.0
63.165	4.0
63.18	4.0
63.195	1.0
63.21	2.0
63.226	2.0
63.241	7.0
63.256	4.0
63.271	6.0
63.286	0.0
63.301	5.0
63.316	2.0
63.331	5.0
63.346	9.0
63.362	7.0
63.377	8.0
63.392	12.0
63.407	3.0
63.422	6.0
63.437	8.0
63.452	9.0
63.467	8.0
63.482	0.0
63.497	3.0
63.513	6.0
63.528	5.0
63.543	5.0
63.558	3.0
63.573	8.0
63.588	2.0
63.603	2.0
63.618	5.0
63.633	4.0
63.648	4.0
63.664	3.0
63.679	3.0
63.694	9.0
63.709	3.0
63.724	5.0
63.739	5.0
63.754	5.0
63.769	10.0
63.784	9.0
63.799	11.0
63.814	6.0
63.83	2.0
63.845	10.0
63.86	6.0
63.875	5.0
63.89	1.0
63.905	10.0
63.92	7.0
63.935	8.0
63.95	2.0
63.965	7.0
63.98	1.0
63.996	2.0
64.011	4.0
64.026	3.0
64.041	5.0
64.056	4.0
64.071	5.0
64.086	5.0
64.101	6.0
64.116	3.0
64.131	4.0
64.146	3.0
64.161	2.0
64.176	3.0
64.191	5.0
64.207	3.0
64.222	4.0
64.237	5.0
64.252	4.0
64.267	4.0
64.282	1.0
64.297	4.0
64.312	5.0
64.327	5.0
64.342	2.0
64.357	4.0
64.372	0.0
64.387	4.0
64.402	3.0
64.417	4.0
64.433	3.0
64.448	2.0
64.463	1.0
64.478	4.0
64.493	3.0
64.508	6.0
64.523	2.0
64.538	4.0
64.553	1.0
64.568	2.0
64.583	2.0
64.598	2.0
64.613	4.0
64.628	2.0
64.643	2.0
64.658	1.0
64.673	4.0
64.688	2.0
64.703	1.0
64.718	4.0
64.734	2.0
64.749	9.0
64.764	2.0
64.779	1.0
64.794	5.0
64.809	6.0
64.824	4.0
64.839	4.0
64.854	1.0
64.869	5.0
64.884	6.0
64.899	4.0
64.914	4.0
64.929	2.0
64.944	3.0
64.959	5.0
64.974	3.0
64.989	2.0
65.004	6.0
65.019	8.0
65.034	2.0
65.049	4.0
65.064	6.0
65.079	3.0
65.094	4.0
65.109	2.0
65.125	4.0
65.14	2.0
65.155	2.0
65.17	3.0
65.185	2.0
65.2	6.0
65.215	4.0
65.23	5.0
65.245	6.0
65.26	3.0
65.275	2.0
65.29	3.0
65.305	4.0
65.32	3.0
65.335	1.0
65.35	5.0
65.365	3.0
65.38	3.0
65.395	4.0
65.41	6.0
65.425	5.0
65.44	3.0
65.455	3.0
65.47	4.0
65.485	4.0
65.5	5.0
65.515	4.0
65.53	2.0
65.545	6.0
65.56	3.0
65.575	3.0
65.59	4.0
65.605	2.0
65.62	1.0
65.635	6.0
65.65	7.0
65.666	5.0
65.681	7.0
65.696	7.0
65.711	6.0
65.726	3.0
65.741	7.0
65.756	0.0
65.771	5.0
65.786	5.0
65.801	5.0
65.816	5.0
65.831	5.0
65.846	9.0
65.861	2.0
65.876	5.0
65.891	6.0
65.906	5.0
65.921	2.0
65.936	1.0
65.951	6.0
65.966	2.0
65.981	6.0
65.996	4.0
66.011	3.0
66.026	3.0
66.041	2.0
66.056	3.0
66.071	7.0
66.086	3.0
66.101	5.0
66.116	5.0
66.131	4.0
66.146	9.0
66.161	8.0
66.176	3.0
66.191	10.0
66.206	8.0
66.221	8.0
66.236	11.0
66.251	2.0
66.266	3.0
66.281	6.0
66.296	4.0
66.311	4.0
66.327	5.0
66.342	4.0
66.357	2.0
66.372	5.0
66.387	3.0
66.402	2.0
66.417	1.0
66.432	0.0
66.447	5.0
66.462	4.0
66.477	7.0
66.492	2.0
66.507	3.0
66.522	10.0
66.537	9.0
66.552	8.0
66.567	1.0
66.582	1.0
66.597	4.0
66.612	7.0
66.627	3.0
66.642	6.0
66.657	3.0
66.672	8.0
66.687	5.0
66.702	3.0
66.717	3.0
66.732	2.0
66.747	6.0
66.762	6.0
66.777	6.0
66.792	3.0
66.807	1.0
66.822	2.0
66.837	3.0
66.853	6.0
66.868	4.0
66.883	3.0
66.898	2.0
66.913	1.0
66.928	3.0
66.943	2.0
66.958	4.0
66.973	3.0
66.988	6.0
67.003	4.0
67.018	2.0
67.033	4.0
67.048	5.0
67.063	5.0
67.078	6.0
67.093	4.0
67.108	3.0
67.123	3.0
67.138	6.0
67.153	7.0
67.168	4.0
67.183	6.0
67.198	3.0
67.214	3.0
67.229	6.0
67.244	0.0
67.259	7.0
67.274	3.0
67.289	2.0
67.304	5.0
67.319	4.0
67.334	2.0
67.349	6.0
67.364	3.0
67.379	3.0
67.394	3.0
67.409	3.0
67.424	4.0
67.439	0.0
67.454	3.0
67.469	7.0
67.484	4.0
67.5	5.0
67.515	3.0
67.53	6.0
67.545	4.0
67.56	5.0
67.575	4.0
67.59	1.0
67.605	3.0
67.62	5.0
67.635	3.0
67.65	6.0
67.665	4.0
67.68	1.0
67.695	7.0
67.71	2.0
67.726	3.0
67.741	3.0
67.756	2.0
67.771	2.0
67.786	2.0
67.801	6.0
67.816	7.0
67.831	4.0
67.846	3.0
67.861	4.0
67.876	4.0
67.891	4.0
67.906	1.0
67.922	3.0
67.937	5.0
67.952	3.0
67.967	3.0
67.982	6.0
67.997	2.0
68.012	8.0
68.027	5.0
68.042	3.0
68.057	8.0
68.072	1.0
68.087	4.0
68.103	2.0
68.118	7.0
68.133	3.0
68.148	4.0
68.163	1.0
68.178	3.0
68.193	1.0
68.208	4.0
68.223	2.0
68.238	1.0
68.254	3.0
68.269	7.0
68.284	3.0
68.299	3.0
68.314	3.0
68.329	3.0
68.344	1.0
68.359	2.0
68.374	2.0
68.389	1.0
68.405	6.0
68.42	2.0
68.435	2.0
68.45	4.0
68.465	2.0
68.48	6.0
68.495	3.0
68.51	2.0
68.525	1.0
68.54	5.0
68.556	5.0
68.571	1.0
68.586	7.0
68.601	6.0
68.616	4.0
68.631	3.0
68.646	2.0
68.661	3.0
68.676	5.0
68.691	4.0
68.707	2.0
68.722	5.0
68.737	6.0
68.752	2.0
68.767	2.0
68.782	3.0
68.797	5.0
68.812	4.0
68.827	4.0
68.842	3.0
68.857	2.0
68.873	5.0
68.888	3.0
68.903	4.0
68.918	2.0
68.933	8.0
68.948	4.0
68.963	3.0
68.978	3.0
68.993	3.0
69.008	3.0
69.023	3.0
69.038	3.0
69.054	3.0
69.069	5.0
69.084	2.0
69.099	3.0
69.114	2.0
69.129	2.0
69.144	7.0
69.159	2.0
69.174	4.0
69.189	2.0
69.204	2.0
69.219	3.0
69.234	4.0
69.249	2.0
69.264	2.0
69.279	6.0
69.295	6.0
69.31	4.0
69.325	5.0
69.34	4.0
69.355	2.0
69.37	2.0
69.385	6.0
69.4	6.0
69.415	3.0
69.43	6.0
69.445	1.0
69.46	6.0
69.475	1.0
69.49	3.0
69.505	3.0
69.52	1.0
69.535	1.0
69.55	0.0
69.565	3.0
69.58	6.0
69.595	3.0
69.61	5.0
69.625	5.0
69.64	1.0
69.655	5.0
69.67	4.0
69.685	8.0
69.7	10.0
69.715	5.0
69.73	4.0
69.745	6.0
69.76	4.0
69.775	7.0
69.79	8.0
69.805	4.0
69.82	1.0
69.835	4.0
69.85	6.0
69.865	4.0
69.88	3.0
69.895	6.0
69.909	3.0
69.924	7.0
69.939	1.0
69.954	5.0
69.969	1.0
69.984	2.0
69.999	5.0
70.014	5.0
70.029	2.0
70.044	2.0
70.059	4.0
70.074	0.0
70.088	1.0
70.103	2.0
70.118	2.0
70.133	2.0
70.148	9.0
70.163	4.0
70.178	3.0
70.193	5.0
70.208	2.0
70.222	7.0
70.237	4.0
70.252	2.0
70.267	3.0
70.282	4.0
70.297	9.0
70.312	5.0
70.327	2.0
70.341	5.0
70.356	1.0
70.371	6.0
70.386	5.0
70.401	4.0
70.416	7.0
70.43	2.0
70.445	5.0
70.46	2.0
70.475	2.0
70.49	4.0
70.505	4.0
70.519	4.0
70.534	3.0
70.549	7.0
70.564	5.0
70.579	4.0
70.594	6.0
70.608	10.0
70.623	7.0
70.638	6.0
70.653	4.0
70.668	8.0
70.683	6.0
70.697	6.0
70.712	6.0
70.727	5.0
70.742	3.0
70.757	6.0
70.771	5.0
70.786	8.0
70.801	4.0
70.816	4.0
70.831	0.0
70.845	2.0
70.86	3.0
70.875	2.0
70.89	5.0
70.905	3.0
70.92	3.0
70.934	1.0
70.949	1.0
70.964	5.0
70.979	5.0
70.994	2.0
71.008	1.0
71.023	3.0
71.038	3.0
71.053	3.0
71.068	3.0
71.082	2.0
71.097	2.0
71.112	4.0
71.127	8.0
71.142	2.0
71.156	3.0
71.171	3.0
71.186	4.0
71.201	3.0
71.216	2.0
71.231	1.0
71.245	5.0
71.26	6.0
71.275	7.0
71.29	5.0
71.305	5.0
71.319	2.0
71.334	2.0
71.349	1.0
71.364	7.0
71.379	2.0
71.394	0.0
71.408	2.0
71.423	4.0
71.438	0.0
71.453	7.0
71.468	7.0
71.483	2.0
71.497	2.0
71.512	8.0
71.527	6.0
71.542	2.0
71.557	5.0
71.572	1.0
71.586	6.0
71.601	0.0
71.616	4.0
71.631	4.0
71.646	2.0
71.661	0.0
71.676	6.0
71.69	2.0
71.705	8.0
71.72	1.0
71.735	5.0
71.75	5.0
71.765	6.0
71.78	5.0
71.795	4.0
71.81	1.0
71.824	1.0
71.839	8.0
71.854	2.0
71.869	1.0
71.884	5.0
71.899	1.0
71.914	1.0
71.929	6.0
71.944	1.0
71.959	0.0
71.974	4.0
71.988	8.0
72.003	1.0
72.018	5.0
72.033	6.0
72.048	6.0
72.063	3.0
72.078	4.0
72.093	5.0
72.108	8.0
72.123	4.0
72.138	3.0
72.153	2.0
72.168	3.0
72.183	2.0
72.198	3.0
72.213	1.0
72.228	1.0
72.243	4.0
72.258	3.0
72.273	6.0
72.288	6.0
72.303	3.0
72.318	7.0
72.333	1.0
72.348	4.0
72.363	3.0
72.378	5.0
72.393	1.0
72.408	9.0
72.423	3.0
72.438	5.0
72.453	0.0
72.468	3.0
72.483	1.0
72.498	7.0
72.513	6.0
72.528	5.0
72.543	3.0
72.558	4.0
72.573	3.0
72.588	4.0
72.603	4.0
72.618	3.0
72.633	4.0
72.649	2.0
72.664	7.0
72.679	4.0
72.694	1.0
72.709	3.0
72.724	4.0
72.739	3.0
72.754	4.0
72.769	0.0
72.784	3.0
72.799	2.0
72.814	4.0
72.829	6.0
72.845	3.0
72.86	2.0
72.875	2.0
72.89	3.0
72.905	5.0
72.92	8.0
72.935	5.0
72.95	3.0
72.965	2.0
72.98	3.0
72.996	3.0
73.011	3.0
73.026	3.0
73.041	2.0
73.056	1.0
73.071	2.0
73.086	4.0
73.101	6.0
73.117	4.0
73.132	1.0
73.147	1.0
73.162	5.0
73.177	7.0
73.192	6.0
73.207	1.0
73.222	5.0
73.238	10.0
73.253	5.0
73.268	3.0
73.283	8.0
73.298	7.0
73.313	5.0
73.328	3.0
73.343	5.0
73.359	2.0
73.374	5.0
73.389	6.0
73.404	5.0
73.419	2.0
73.434	5.0
73.449	1.0
73.465	4.0
73.48	5.0
73.495	4.0
73.51	7.0
73.525	1.0
73.54	2.0
73.556	4.0
73.571	4.0
73.586	3.0
73.601	3.0
73.616	4.0
73.631	0.0
73.646	2.0
73.662	3.0
73.677	3.0
73.692	4.0
73.707	7.0
73.722	5.0
73.737	7.0
73.752	6.0
73.768	1.0
73.783	1.0
73.798	5.0
73.813	5.0
73.828	4.0
73.843	4.0
73.859	5.0
73.874	2.0
73.889	2.0
73.904	5.0
73.919	2.0
73.934	3.0
73.949	6.0
73.965	5.0
73.98	6.0
73.995	4.0
74.01	3.0
74.025	3.0
74.04	3.0
74.056	4.0
74.071	3.0
74.086	4.0
74.101	3.0
74.116	4.0
74.131	4.0
74.146	3.0
74.162	5.0
74.177	6.0
74.192	7.0
74.207	6.0
74.222	2.0
74.237	8.0
74.252	2.0
74.268	11.0
74.283	0.0
74.298	2.0
74.313	7.0
74.328	4.0
74.343	3.0
74.358	9.0
74.374	3.0
74.389	3.0
74.404	1.0
74.419	7.0
74.434	9.0
74.449	2.0
74.464	4.0
74.48	3.0
74.495	1.0
74.51	2.0
74.525	2.0
74.54	1.0
74.555	5.0
74.57	3.0
74.586	2.0
74.601	1.0
74.616	4.0
74.631	7.0
74.646	5.0
74.661	2.0
74.676	2.0
74.691	8.0
74.707	5.0
74.722	7.0
74.737	6.0
74.752	3.0
74.767	2.0
74.782	4.0
74.797	5.0
74.813	1.0
74.828	3.0
74.843	1.0
74.858	6.0
74.873	4.0
74.888	0.0
74.903	6.0
74.918	0.0
74.934	3.0
74.949	3.0
74.964	3.0
74.979	1.0
74.994	2.0
75.009	2.0
75.024	9.0
75.04	6.0
75.055	9.0
75.07	4.0
75.085	3.0
75.1	7.0
75.115	1.0
75.13	3.0
75.145	6.0
75.161	5.0
75.176	2.0
75.191	5.0
75.206	4.0
75.221	5.0
75.236	2.0
75.251	2.0
75.266	5.0
75.282	3.0
75.297	5.0
75.312	3.0
75.327	0.0
75.342	3.0
75.357	2.0
75.372	4.0
75.387	7.0
75.403	2.0
75.418	2.0
75.433	1.0
75.448	4.0
75.463	2.0
75.478	3.0
75.493	4.0
75.509	5.0
75.524	2.0
75.539	4.0
75.554	3.0
75.569	4.0
75.584	2.0
75.599	3.0
75.614	2.0
75.63	2.0
75.645	3.0
75.66	3.0
75.675	2.0
75.69	1.0
75.705	2.0
75.72	6.0
75.735	1.0
75.751	2.0
75.766	4.0
75.781	4.0
75.796	0.0
75.811	4.0
75.826	4.0
75.841	4.0
75.856	3.0
75.872	5.0
75.887	2.0
75.902	3.0
75.917	6.0
75.932	5.0
75.947	4.0
75.962	5.0
75.977	4.0
75.993	5.0
76.008	4.0
76.023	5.0
76.038	1.0
76.053	5.0
76.068	2.0
76.083	1.0
76.098	6.0
76.114	1.0
76.129	3.0
76.144	2.0
76.159	6.0
76.174	3.0
76.189	2.0
76.204	4.0
76.22	3.0
76.235	2.0
76.25	4.0
76.265	2.0
76.28	3.0
76.295	6.0
76.31	6.0
76.325	1.0
76.341	2.0
76.356	5.0
76.371	7.0
76.386	3.0
76.401	1.0
76.416	1.0
76.431	6.0
76.446	2.0
76.462	6.0
76.477	5.0
76.492	6.0
76.507	4.0
76.522	3.0
76.537	7.0
76.552	2.0
76.567	3.0
76.583	3.0
76.598	3.0
76.613	0.0
76.628	2.0
76.643	4.0
76.658	4.0
76.673	1.0
76.688	5.0
76.704	2.0
76.719	9.0
76.734	2.0
76.749	6.0
76.764	4.0
76.779	9.0
76.794	0.0
76.809	3.0
76.824	2.0
76.84	2.0
76.855	3.0
76.87	1.0
76.885	3.0
76.9	3.0
76.915	4.0
76.93	4.0
76.945	3.0
76.96	2.0
76.976	1.0
76.991	3.0
77.006	1.0
77.021	6.0
77.036	4.0
77.051	1.0
77.066	3.0
77.081	5.0
77.096	4.0
77.112	3.0
77.127	2.0
77.142	3.0
77.157	5.0
77.172	3.0
77.187	1.0
77.202	5.0
77.217	2.0
77.232	5.0
77.247	2.0
77.263	4.0
77.278	4.0
77.293	5.0
77.308	1.0
77.323	3.0
77.338	3.0
77.353	6.0
77.368	2.0
77.383	1.0
77.398	3.0
77.413	3.0
77.428	5.0
77.444	4.0
77.459	1.0
77.474	4.0
77.489	3.0
77.504	3.0
77.519	2.0
77.534	5.0
77.549	3.0
77.564	6.0
77.579	4.0
77.594	3.0
77.609	3.0
77.624	4.0
77.64	2.0
77.655	5.0
77.67	2.0
77.685	5.0
77.7	2.0
77.715	3.0
77.73	2.0
77.745	3.0
77.76	3.0
77.775	1.0
77.79	2.0
77.805	5.0
77.82	3.0
77.835	4.0
77.85	4.0
77.865	1.0
77.88	5.0
77.895	4.0
77.91	4.0
77.926	1.0
77.941	4.0
77.956	1.0
77.971	3.0
77.986	6.0
78.001	4.0
78.016	6.0
78.031	3.0
78.046	4.0
78.061	2.0
78.076	4.0
78.091	1.0
78.106	5.0
78.121	4.0
78.136	2.0
78.151	7.0
78.166	3.0
78.181	3.0
78.196	2.0
78.211	3.0
78.226	3.0
78.241	5.0
78.256	3.0
78.271	2.0
78.286	2.0
78.301	3.0
78.316	6.0
78.331	4.0
78.346	7.0
78.361	2.0
78.376	1.0
78.391	3.0
78.406	1.0
78.421	4.0
78.436	3.0
78.451	2.0
78.466	3.0
78.481	4.0
78.496	2.0
78.511	5.0
78.526	2.0
78.541	5.0
78.556	3.0
78.571	4.0
78.586	4.0
78.601	4.0
78.616	5.0
78.631	3.0
78.646	2.0
78.661	3.0
78.676	1.0
78.691	5.0
78.706	5.0
78.721	2.0
78.736	0.0
78.751	0.0
78.766	2.0
78.781	0.0
78.796	5.0
78.811	4.0
78.826	3.0
78.841	3.0
78.856	4.0
78.871	5.0
78.885	3.0
78.9	5.0
78.915	3.0
78.93	2.0
78.945	5.0
78.96	3.0
78.975	3.0
78.99	3.0
79.005	1.0
79.02	1.0
79.035	3.0
79.05	1.0
79.065	4.0
79.08	4.0
79.095	7.0
79.11	3.0
79.125	5.0
79.14	1.0
79.155	2.0
79.17	4.0
79.185	2.0
79.2	1.0
79.215	1.0
79.23	4.0
79.245	6.0
79.26	6.0
79.275	3.0
79.29	6.0
79.304	6.0
79.319	2.0
79.334	5.0
79.349	5.0
79.364	5.0
79.379	6.0
79.394	1.0
79.409	4.0
79.424	1.0
79.439	4.0
79.454	1.0
79.469	1.0
79.484	4.0
79.499	2.0
79.514	6.0
79.529	0.0
79.544	2.0
79.559	2.0
79.574	4.0
79.589	2.0
79.604	3.0
79.619	2.0
79.634	1.0
79.649	2.0
79.664	3.0
79.679	3.0
79.693	3.0
79.708	3.0
79.723	0.0
79.738	3.0
79.753	2.0
79.768	1.0
79.783	5.0
79.798	4.0
79.813	6.0
79.828	7.0
79.843	4.0
79.858	0.0
79.873	3.0
79.888	3.0
79.903	2.0
79.918	5.0
79.933	4.0
79.948	6.0
79.963	7.0
79.978	0.0
79.993	2.0
80.008	1.0
80.023	4.0
80.038	3.0
80.053	0.0
80.068	1.0
80.083	5.0
80.098	1.0
80.113	2.0
80.128	2.0
80.143	1.0
80.158	5.0
80.173	2.0
80.188	6.0
80.202	2.0
80.217	2.0
80.232	5.0
80.247	2.0
80.262	1.0
80.277	4.0
80.292	1.0
80.307	3.0
80.322	1.0
80.337	3.0
80.352	6.0
80.367	3.0
80.382	6.0
80.397	3.0
80.412	4.0
80.427	4.0
80.442	5.0
80.457	2.0
80.472	2.0
80.487	0.0
80.502	3.0
80.517	6.0
80.532	4.0
80.547	2.0
80.562	4.0
80.577	0.0
80.592	5.0
80.607	1.0
80.622	6.0
80.637	3.0
80.652	8.0
80.667	2.0
80.682	7.0
80.697	6.0
80.712	5.0
80.727	6.0
80.742	0.0
80.757	4.0
80.772	2.0
80.787	5.0
80.802	1.0
80.817	5.0
80.832	3.0
80.847	2.0
80.862	1.0
80.877	3.0
80.892	3.0
80.907	7.0
80.922	4.0
80.937	7.0
80.952	2.0
80.967	1.0
80.982	2.0
80.997	5.0
81.012	3.0
81.027	3.0
81.042	4.0
81.057	5.0
81.072	4.0
81.087	5.0
81.101	1.0
81.116	3.0
81.131	6.0
81.146	1.0
81.161	3.0
81.176	4.0
81.191	3.0
81.206	1.0
81.221	2.0
81.236	6.0
81.251	2.0
81.266	2.0
81.281	2.0
81.296	2.0
81.311	2.0
81.326	3.0
81.341	1.0
81.356	2.0
81.371	4.0
81.386	1.0
81.401	4.0
81.416	4.0
81.431	2.0
81.446	3.0
81.461	4.0
81.476	1.0
81.491	3.0
81.506	2.0
81.521	3.0
81.536	4.0
81.55	3.0
81.565	3.0
81.58	3.0
81.595	7.0
81.61	2.0
81.625	2.0
81.64	4.0
81.655	1.0
81.67	2.0
81.685	2.0
81.7	6.0
81.715	1.0
81.73	3.0
81.745	3.0
81.76	3.0
81.775	7.0
81.79	4.0
81.805	4.0
81.819	2.0
81.834	5.0
81.849	2.0
81.864	7.0
81.879	5.0
81.894	5.0
81.909	7.0
81.924	5.0
81.939	2.0
81.954	5.0
81.969	4.0
81.984	3.0
81.999	3.0
82.013	2.0
82.028	3.0
82.043	2.0
82.058	0.0
82.073	4.0
82.088	1.0
82.103	4.0
82.118	5.0
82.133	7.0
82.148	6.0
82.163	3.0
82.177	3.0
82.192	3.0
82.207	3.0
82.222	4.0
82.237	5.0
82.252	3.0
82.267	4.0
82.282	3.0
82.297	0.0
82.312	5.0
82.326	3.0
82.341	2.0
82.356	2.0
82.371	5.0
82.386	2.0
82.401	8.0
82.416	2.0
82.431	2.0
82.445	0.0
82.46	7.0
82.475	2.0
82.49	2.0
82.505	4.0
82.52	5.0
82.535	0.0
82.55	0.0
82.565	4.0
82.579	6.0
82.594	4.0
82.609	3.0
82.624	6.0
82.639	4.0
82.654	4.0
82.669	1.0
82.684	2.0
82.698	2.0
82.713	2.0
82.728	3.0
82.743	4.0
82.758	1.0
82.773	2.0
82.788	5.0
82.803	2.0
82.817	0.0
82.832	5.0
82.847	1.0
82.862	3.0
82.877	10.0
82.892	2.0
82.907	3.0
82.922	5.0
82.937	2.0
82.951	2.0
82.966	3.0
82.981	1.0
82.996	0.0
83.011	4.0
83.026	5.0
83.041	0.0
83.056	1.0
83.07	3.0
83.085	2.0
83.1	2.0
83.115	3.0
83.13	2.0
83.145	7.0
83.16	1.0
83.175	3.0
83.19	4.0
83.204	1.0
83.219	4.0
83.234	3.0
83.249	2.0
83.264	4.0
83.279	3.0
83.294	3.0
83.309	1.0
83.324	3.0
83.339	0.0
83.353	4.0
83.368	0.0
83.383	4.0
83.398	1.0
83.413	1.0
83.428	4.0
83.443	7.0
83.458	5.0
83.473	4.0
83.488	1.0
83.503	3.0
83.517	4.0
83.532	4.0
83.547	3.0
83.562	4.0
83.577	3.0
83.592	5.0
83.607	2.0
83.622	2.0
83.637	1.0
83.652	4.0
83.667	2.0
83.682	4.0
83.697	1.0
83.712	2.0
83.727	4.0
83.741	7.0
83.756	1.0
83.771	2.0
83.786	2.0
83.801	4.0
83.816	4.0
83.831	1.0
83.846	6.0
83.861	2.0
83.876	3.0
83.891	3.0
83.906	2.0
83.921	2.0
83.936	3.0
83.951	4.0
83.966	1.0
83.981	1.0
83.996	5.0
84.011	2.0
84.026	5.0
84.041	2.0
84.056	1.0
84.071	1.0
84.086	3.0
84.101	3.0
84.116	3.0
84.131	4.0
84.146	3.0
84.161	1.0
84.176	2.0
84.191	3.0
84.206	5.0
84.221	3.0
84.236	5.0
84.251	8.0
84.266	4.0
84.281	2.0
84.296	5.0
84.311	6.0
84.326	9.0
84.341	4.0
84.356	3.0
84.371	3.0
84.386	7.0
84.401	6.0
84.416	3.0
84.431	10.0
84.446	1.0
84.461	4.0
84.476	4.0
84.492	2.0
84.507	0.0
84.522	4.0
84.537	2.0
84.552	0.0
84.567	3.0
84.582	1.0
84.597	3.0
84.612	2.0
84.627	5.0
84.642	4.0
84.657	2.0
84.672	3.0
84.687	4.0
84.702	2.0
84.717	4.0
84.733	1.0
84.748	3.0
84.763	1.0
84.778	2.0
84.793	4.0
84.808	8.0
84.823	7.0
84.838	4.0
84.853	2.0
84.868	4.0
84.883	3.0
84.898	0.0
84.913	7.0
84.929	3.0
84.944	2.0
84.959	1.0
84.974	2.0
84.989	2.0
85.004	3.0
85.019	1.0
85.034	2.0
85.049	1.0
85.064	5.0
85.079	2.0
85.094	4.0
85.11	6.0
85.125	2.0
85.14	6.0
85.155	7.0
85.17	3.0
85.185	7.0
85.2	4.0
85.215	2.0
85.23	7.0
85.245	0.0
85.26	3.0
85.276	2.0
85.291	2.0
85.306	1.0
85.321	6.0
85.336	3.0
85.351	2.0
85.366	3.0
85.381	1.0
85.396	3.0
85.411	2.0
85.426	8.0
85.441	4.0
85.457	1.0
85.472	0.0
85.487	4.0
85.502	2.0
85.517	4.0
85.532	6.0
85.547	5.0
85.562	0.0
85.577	5.0
85.592	2.0
85.607	2.0
85.622	3.0
85.637	4.0
85.653	4.0
85.668	1.0
85.683	2.0
85.698	2.0
85.713	3.0
85.728	5.0
85.743	3.0
85.758	2.0
85.773	1.0
85.788	5.0
85.803	4.0
85.818	0.0
85.833	1.0
85.848	2.0
85.863	2.0
85.879	3.0
85.894	4.0
85.909	3.0
85.924	3.0
85.939	3.0
85.954	3.0
85.969	4.0
85.984	0.0
85.999	4.0
86.014	5.0
86.029	3.0
86.044	5.0
86.059	1.0
86.074	3.0
86.089	5.0
86.104	2.0
86.119	3.0
86.134	2.0
86.149	3.0
86.164	0.0
86.179	2.0
86.194	6.0
86.209	2.0
86.224	4.0
86.239	3.0
86.254	4.0
86.269	2.0
86.284	2.0
86.299	3.0
86.314	3.0
86.33	1.0
86.345	2.0
86.36	5.0
86.375	3.0
86.39	5.0
86.405	1.0
86.42	4.0
86.435	2.0
86.45	3.0
86.465	4.0
86.48	2.0
86.495	1.0
86.51	1.0
86.525	3.0
86.54	3.0
86.555	3.0
86.57	6.0
86.585	2.0
86.6	1.0
86.615	9.0
86.63	1.0
86.645	5.0
86.659	5.0
86.674	3.0
86.689	4.0
86.704	1.0
86.719	4.0
86.734	2.0
86.749	3.0
86.764	1.0
86.779	2.0
86.794	4.0
86.809	4.0
86.824	1.0
86.839	1.0
86.854	3.0
86.869	5.0
86.884	3.0
86.899	3.0
86.914	6.0
86.929	2.0
86.944	5.0
86.959	5.0
86.974	5.0
86.989	2.0
87.004	0.0
87.019	0.0
87.034	3.0
87.049	7.0
87.064	5.0
87.079	5.0
87.094	3.0
87.109	1.0
87.124	0.0
87.139	3.0
87.154	3.0
87.169	0.0
87.184	2.0
87.199	1.0
87.214	4.0
87.229	2.0
87.244	4.0
87.259	3.0
87.274	2.0
87.289	3.0
87.304	4.0
87.319	2.0
87.334	4.0
87.349	1.0
87.364	4.0
87.379	4.0
87.394	2.0
87.409	6.0
87.424	5.0
87.438	7.0
87.453	4.0
87.468	4.0
87.483	3.0
87.498	2.0
87.513	2.0
87.528	4.0
87.543	2.0
87.558	3.0
87.573	4.0
87.588	2.0
87.603	7.0
87.618	9.0
87.633	3.0
87.648	2.0
87.663	4.0
87.678	2.0
87.693	3.0
87.708	3.0
87.723	3.0
87.738	4.0
87.753	3.0
87.768	3.0
87.783	3.0
87.798	3.0
87.813	5.0
87.828	1.0
87.843	2.0
87.858	2.0
87.873	7.0
87.888	6.0
87.903	1.0
87.918	1.0
87.933	7.0
87.948	5.0
87.963	3.0
87.978	4.0
87.993	1.0
88.008	5.0
88.023	2.0
88.038	3.0
88.053	4.0
88.068	5.0
88.083	3.0
88.098	4.0
88.113	4.0
88.128	3.0
88.143	1.0
88.158	3.0
88.174	9.0
88.189	1.0
88.204	2.0
88.219	3.0
88.234	6.0
88.249	5.0
88.264	5.0
88.279	3.0
88.294	3.0
88.309	1.0
88.324	4.0
88.339	6.0
88.354	0.0
88.369	3.0
88.384	4.0
88.399	4.0
88.414	4.0
88.429	6.0
88.444	4.0
88.459	3.0
88.474	2.0
88.489	7.0
88.504	3.0
88.519	4.0
88.534	2.0
88.549	4.0
88.564	7.0
88.58	4.0
88.595	2.0
88.61	4.0
88.625	4.0
88.64	6.0
88.655	1.0
88.67	1.0
88.685	2.0
88.7	0.0
88.715	1.0
88.73	1.0
88.745	3.0
88.76	2.0
88.775	0.0
88.79	3.0
88.805	2.0
88.82	2.0
88.835	4.0
88.85	0.0
88.865	4.0
88.88	5.0
88.895	3.0
88.911	1.0
88.926	7.0
88.941	4.0
88.956	0.0
88.971	3.0
88.986	4.0
89.001	3.0
89.016	7.0
89.031	2.0
89.046	3.0
89.061	3.0
89.076	2.0
89.091	7.0
89.106	1.0
89.121	2.0
89.136	4.0
89.151	4.0
89.166	3.0
89.181	6.0
89.196	3.0
89.211	0.0
89.227	3.0
89.242	1.0
89.257	4.0
89.272	6.0
89.287	6.0
89.302	3.0
89.317	2.0
89.332	3.0
89.347	4.0
89.362	3.0
89.377	4.0
89.392	4.0
89.407	1.0
89.422	3.0
89.437	2.0
89.452	4.0
89.467	4.0
89.482	2.0
89.497	3.0
89.512	6.0
89.527	7.0
89.542	5.0
89.557	2.0
89.572	2.0
89.587	5.0
89.602	1.0
89.617	5.0
89.632	3.0
89.647	3.0
89.662	1.0
89.677	2.0
89.693	6.0
89.708	3.0
89.723	4.0
89.738	3.0
89.753	4.0
89.768	1.0
89.783	4.0
89.798	5.0
89.813	2.0
89.828	1.0
89.843	9.0
89.858	3.0
89.873	5.0
89.888	2.0
89.903	3.0
89.918	2.0
89.933	1.0
89.948	2.0
89.963	1.0
89.978	2.0
89.993	1.0
90.008	4.0
90.023	2.0
90.038	0.0
90.053	2.0
90.068	3.0
90.083	4.0
90.097	3.0
90.112	1.0
90.127	7.0
90.142	6.0
90.157	3.0
90.172	2.0
90.187	5.0
90.202	1.0
90.217	3.0
90.232	7.0
90.247	4.0
90.262	2.0
90.277	10.0
90.292	2.0
90.307	2.0
90.322	1.0
90.337	1.0
90.352	4.0
90.367	2.0
90.382	2.0
90.397	3.0
90.412	2.0
90.427	4.0
90.442	5.0
90.457	3.0
90.472	0.0
90.487	4.0
90.501	2.0
90.516	5.0
90.531	4.0
90.546	6.0
90.561	4.0
90.576	6.0
90.591	1.0
90.606	1.0
90.621	3.0
90.636	5.0
90.651	0.0
90.666	3.0
90.681	2.0
90.696	5.0
90.711	2.0
90.726	2.0
90.741	1.0
90.755	1.0
90.77	0.0
90.785	2.0
90.8	1.0
90.815	3.0
90.83	3.0
90.845	2.0
90.86	5.0
90.875	3.0
90.89	6.0
90.905	8.0
90.92	3.0
90.935	3.0
90.95	1.0
90.965	7.0
90.979	2.0
90.994	4.0
91.009	6.0
91.024	5.0
91.039	6.0
91.054	3.0
91.069	3.0
91.084	6.0
91.099	3.0
91.114	2.0
91.129	4.0
91.144	4.0
91.159	1.0
91.174	0.0
91.188	4.0
91.203	2.0
91.218	5.0
91.233	1.0
91.248	1.0
91.263	2.0
91.278	1.0
91.293	2.0
91.308	3.0
91.323	7.0
91.338	5.0
91.353	6.0
91.368	2.0
91.383	2.0
91.398	5.0
91.412	3.0
91.427	2.0
91.442	1.0
91.457	2.0
91.472	3.0
91.487	3.0
91.502	4.0
91.517	4.0
91.532	1.0
91.547	4.0
91.562	4.0
91.577	0.0
91.592	2.0
91.607	2.0
91.622	4.0
91.637	4.0
91.652	4.0
91.666	4.0
91.681	6.0
91.696	4.0
91.711	1.0
91.726	3.0
91.741	2.0
91.756	3.0
91.771	5.0
91.786	4.0
91.801	3.0
91.816	3.0
91.831	2.0
91.846	4.0
91.861	3.0
91.876	2.0
91.891	2.0
91.906	7.0
91.921	6.0
91.936	4.0
91.951	3.0
91.966	5.0
91.981	1.0
91.995	4.0
92.01	4.0
92.025	2.0
92.04	6.0
92.055	2.0
92.07	2.0
92.085	4.0
92.1	3.0
92.115	8.0
92.13	3.0
92.145	2.0
92.16	2.0
92.175	4.0
92.19	7.0
92.205	3.0
92.22	4.0
92.235	4.0
92.25	4.0
92.265	3.0
92.28	8.0
92.295	3.0
92.31	5.0
92.325	1.0
92.34	4.0
92.355	1.0
92.37	4.0
92.385	2.0
92.4	5.0
92.415	2.0
92.43	2.0
92.445	5.0
92.46	3.0
92.475	5.0
92.49	3.0
92.505	1.0
92.52	5.0
92.535	1.0
92.55	4.0
92.565	6.0
92.58	3.0
92.595	2.0
92.61	4.0
92.625	6.0
92.64	0.0
92.655	1.0
92.67	5.0
92.685	3.0
92.7	2.0
92.715	6.0
92.73	4.0
92.745	4.0
92.76	3.0
92.775	2.0
92.79	2.0
92.805	1.0
92.82	0.0
92.835	3.0
92.85	1.0
92.865	4.0
92.88	3.0
92.895	2.0
92.91	4.0
92.925	4.0
92.94	7.0
92.955	3.0
92.97	5.0
92.985	2.0
93.0	3.0
93.015	1.0
93.03	2.0
93.045	10.0
93.06	2.0
93.075	1.0
93.09	4.0
93.105	5.0
93.12	3.0
93.135	4.0
93.15	3.0
93.165	2.0
93.18	3.0
93.195	2.0
93.21	5.0
93.225	2.0
93.24	5.0
93.255	4.0
93.27	5.0
93.285	1.0
93.3	4.0
93.315	6.0
93.33	3.0
93.345	7.0
93.36	4.0
93.375	6.0
93.39	0.0
93.405	2.0
93.42	2.0
93.435	3.0
93.45	3.0
93.465	1.0
93.48	2.0
93.495	2.0
93.51	5.0
93.525	5.0
93.54	8.0
93.555	7.0
93.57	5.0
93.585	5.0
93.6	2.0
93.615	3.0
93.63	8.0
93.645	3.0
93.66	4.0
93.675	4.0
93.69	7.0
93.705	5.0
93.72	4.0
93.735	5.0
93.75	4.0
93.765	1.0
93.78	2.0
93.795	0.0
93.81	3.0
93.824	1.0
93.839	2.0
93.854	1.0
93.869	1.0
93.884	5.0
93.899	3.0
93.914	4.0
93.929	3.0
93.944	4.0
93.959	3.0
93.974	3.0
93.989	1.0
94.004	3.0
94.019	1.0
94.034	5.0
94.049	2.0
94.064	2.0
94.079	4.0
94.094	5.0
94.108	2.0
94.123	4.0
94.138	2.0
94.153	1.0
94.168	7.0
94.183	2.0
94.198	2.0
94.213	4.0
94.228	2.0
94.243	3.0
94.258	5.0
94.273	7.0
94.288	7.0
94.302	4.0
94.317	6.0
94.332	4.0
94.347	4.0
94.362	6.0
94.377	3.0
94.392	6.0
94.407	6.0
94.422	3.0
94.437	3.0
94.452	5.0
94.466	3.0
94.481	4.0
94.496	4.0
94.511	5.0
94.526	4.0
94.541	1.0
94.556	4.0
94.571	7.0
94.586	2.0
94.601	6.0
94.615	1.0
94.63	5.0
94.645	1.0
94.66	2.0
94.675	2.0
94.69	6.0
94.705	4.0
94.72	1.0
94.735	4.0
94.749	2.0
94.764	3.0
94.779	3.0
94.794	2.0
94.809	2.0
94.824	5.0
94.839	5.0
94.854	3.0
94.868	2.0
94.883	1.0
94.898	1.0
94.913	2.0
94.928	2.0
94.943	2.0
94.958	5.0
94.973	6.0
94.987	3.0
95.002	3.0
95.017	0.0
95.032	2.0
95.047	7.0
95.062	2.0
95.077	3.0
95.092	2.0
95.106	3.0
95.121	4.0
95.136	1.0
95.151	4.0
95.166	4.0
95.181	1.0
95.196	1.0
95.211	7.0
95.226	5.0
95.24	5.0
95.255	7.0
95.27	7.0
95.285	8.0
95.3	6.0
95.315	4.0
95.33	5.0
95.345	3.0
95.359	4.0
95.374	5.0
95.389	3.0
95.404	5.0
95.419	2.0
95.434	3.0
95.449	1.0
95.464	3.0
95.478	0.0
95.493	2.0
95.508	3.0
95.523	2.0
95.538	5.0
95.553	5.0
95.568	7.0
95.583	2.0
95.597	3.0
95.612	2.0
95.627	1.0
95.642	1.0
95.657	1.0
95.672	1.0
95.687	2.0
95.702	4.0
95.717	1.0
95.731	5.0
95.746	4.0
95.761	2.0
95.776	4.0
95.791	3.0
95.806	7.0
95.821	1.0
95.836	3.0
95.851	3.0
95.866	3.0
95.88	1.0
95.895	4.0
95.91	3.0
95.925	3.0
95.94	3.0
95.955	0.0
95.97	4.0
95.985	0.0
96.0	0.0
96.015	5.0
96.029	2.0
96.044	1.0
96.059	5.0
96.074	4.0
96.089	4.0
96.104	4.0
96.119	4.0
96.134	2.0
96.149	4.0
96.164	3.0
96.179	2.0
96.194	1.0
96.208	5.0
96.223	4.0
96.238	4.0
96.253	6.0
96.268	5.0
96.283	3.0
96.298	2.0
96.313	6.0
96.328	3.0
96.343	3.0
96.358	6.0
96.373	2.0
96.388	1.0
96.403	7.0
96.417	3.0
96.432	4.0
96.447	2.0
96.462	5.0
96.477	3.0
96.492	3.0
96.507	4.0
96.522	2.0
96.537	4.0
96.552	5.0
96.567	4.0
96.582	1.0
96.597	5.0
96.612	5.0
96.627	4.0
96.642	4.0
96.656	2.0
96.671	5.0
96.686	3.0
96.701	10.0
96.716	3.0
96.731	2.0
96.746	4.0
96.761	1.0
96.776	4.0
96.791	3.0
96.806	2.0
96.821	6.0
96.836	2.0
96.851	0.0
96.866	7.0
96.881	0.0
96.896	1.0
96.911	3.0
96.926	5.0
96.94	7.0
96.955	5.0
96.97	3.0
96.985	8.0
97.0	0.0
97.015	4.0
97.03	4.0
97.045	3.0
97.06	3.0
97.075	5.0
97.09	3.0
97.105	2.0
97.12	5.0
97.135	3.0
97.15	1.0
97.165	4.0
97.18	2.0
97.195	3.0
97.21	1.0
97.225	6.0
97.239	4.0
97.254	1.0
97.269	1.0
97.284	4.0
97.299	2.0
97.314	2.0
97.329	0.0
97.344	3.0
97.359	2.0
97.374	3.0
97.389	2.0
97.404	0.0
97.419	1.0
97.434	3.0
97.449	4.0
97.464	4.0
97.479	3.0
97.494	5.0
97.509	2.0
97.524	1.0
97.538	1.0
97.553	2.0
97.568	3.0
97.583	3.0
97.598	2.0
97.613	1.0
97.628	3.0
97.643	2.0
97.658	2.0
97.673	1.0
97.688	1.0
97.703	4.0
97.718	7.0
97.733	4.0
97.748	4.0
97.763	4.0
97.778	4.0
97.792	7.0
97.807	2.0
97.822	3.0
97.837	9.0
97.852	1.0
97.867	2.0
97.882	5.0
97.897	6.0
97.912	6.0
97.927	2.0
97.942	3.0
97.957	0.0
97.972	4.0
97.987	3.0
98.001	2.0
98.016	2.0
98.031	3.0
98.046	2.0
98.061	2.0
98.076	3.0
98.091	2.0
98.106	1.0
98.121	1.0
98.136	3.0
98.151	3.0
98.166	5.0
98.181	1.0
98.195	6.0
98.21	2.0
98.225	5.0
98.24	6.0
98.255	1.0
98.27	4.0
98.285	3.0
98.3	2.0
98.315	1.0
98.33	4.0
98.345	3.0
98.359	1.0
98.374	2.0
98.389	3.0
98.404	4.0
98.419	3.0
98.434	1.0
98.449	6.0
98.464	3.0
98.479	2.0
98.494	6.0
98.508	2.0
98.523	3.0
98.538	5.0
98.553	2.0
98.568	2.0
98.583	8.0
98.598	6.0
98.613	0.0
98.628	3.0
98.642	5.0
98.657	3.0
98.672	5.0
98.687	4.0
98.702	6.0
98.717	3.0
98.732	5.0
98.747	5.0
98.762	2.0
98.776	2.0
98.791	2.0
98.806	5.0
98.821	3.0
98.836	3.0
98.851	2.0
98.866	2.0
98.881	1.0
98.896	2.0
98.91	1.0
98.925	1.0
98.94	2.0
98.955	7.0
98.97	3.0
98.985	0.0
99.0	3.0
99.015	2.0
99.029	2.0
99.044	3.0
99.059	2.0
99.074	3.0
99.089	1.0
99.104	4.0
99.119	4.0
99.133	3.0
99.148	3.0
99.163	2.0
99.178	2.0
99.193	3.0
99.208	0.0
99.223	6.0
99.238	1.0
99.252	2.0
99.267	1.0
99.282	4.0
99.297	1.0
99.312	4.0
99.327	3.0
99.342	3.0
99.356	2.0
99.371	1.0
99.386	1.0
99.401	2.0
99.416	1.0
99.431	5.0
99.446	3.0
99.461	4.0
99.475	3.0
99.49	2.0
99.505	3.0
99.52	6.0
99.535	2.0
99.55	5.0
99.565	2.0
99.579	3.0
99.594	5.0
99.609	1.0
99.624	4.0
99.639	6.0
99.654	7.0
99.669	6.0
99.683	2.0
99.698	5.0
99.713	1.0
99.728	4.0
99.743	2.0
99.758	3.0
99.772	2.0
99.787	2.0
99.802	4.0
99.817	4.0
99.832	3.0
99.847	3.0
99.862	6.0
99.876	5.0
99.891	3.0
99.906	3.0
99.921	1.0
99.936	2.0
99.951	0.0
99.966	4.0
99.98	8.0
99.995	3.0
100.01	3.0
100.025	0.0
100.04	4.0
100.055	2.0
100.069	2.0
100.084	6.0
100.099	1.0
100.114	3.0
100.129	3.0
100.144	2.0
100.159	4.0
100.173	2.0
100.188	2.0
100.203	5.0
100.218	6.0
100.233	3.0
100.248	4.0
100.262	7.0
100.277	7.0
100.292	4.0
100.307	2.0
100.322	3.0
100.337	4.0
100.351	2.0
100.366	4.0
100.381	4.0
100.396	7.0
100.411	7.0
100.426	7.0
100.441	2.0
100.455	1.0
100.47	1.0
100.485	2.0
100.5	1.0
100.515	3.0
100.53	2.0
100.544	0.0
100.559	4.0
100.574	5.0
100.589	0.0
100.604	2.0
100.619	2.0
100.633	1.0
100.648	7.0
100.663	6.0
100.678	0.0
100.693	2.0
100.708	1.0
100.722	3.0
100.737	4.0
100.752	5.0
100.767	4.0
100.782	5.0
100.796	3.0
100.811	6.0
100.826	4.0
100.841	2.0
100.856	2.0
100.871	5.0
100.885	0.0
100.9	3.0
100.915	3.0
100.93	4.0
100.945	3.0
100.96	3.0
100.974	5.0
100.989	3.0
101.004	1.0
101.019	2.0
101.034	2.0
101.048	4.0
101.063	1.0
101.078	6.0
101.093	0.0
101.108	3.0
101.123	4.0
101.137	4.0
101.152	4.0
101.167	6.0
101.182	3.0
101.197	3.0
101.211	5.0
101.226	4.0
101.241	4.0
101.256	5.0
101.271	5.0
101.285	2.0
101.3	2.0
101.315	1.0
101.33	3.0
101.345	3.0
101.359	6.0
101.374	3.0
101.389	5.0
101.404	2.0
101.419	3.0
101.433	4.0
101.448	5.0
101.463	3.0
101.478	4.0
101.493	2.0
101.507	6.0
101.522	3.0
101.537	6.0
101.552	0.0
101.567	2.0
101.581	2.0
101.596	1.0
101.611	4.0
101.626	3.0
101.64	1.0
101.655	3.0
101.67	3.0
101.685	3.0
101.7	3.0
101.714	2.0
101.729	2.0
101.744	4.0
101.759	3.0
101.773	7.0
101.788	2.0
101.803	6.0
101.818	1.0
101.833	1.0
101.847	4.0
101.862	4.0
101.877	2.0
101.892	5.0
101.906	2.0
101.921	8.0
101.936	2.0
101.951	5.0
101.965	3.0
101.98	4.0
101.995	3.0
102.01	1.0
102.025	10.0
102.039	2.0
102.054	3.0
102.069	3.0
102.084	2.0
102.098	0.0
102.113	1.0
102.128	2.0
102.143	2.0
102.157	4.0
102.172	2.0
102.187	5.0
102.202	3.0
102.216	3.0
102.231	2.0
102.246	3.0
102.261	5.0
102.275	4.0
102.29	3.0
102.305	5.0
102.32	2.0
102.334	1.0
102.349	1.0
102.364	3.0
102.378	4.0
102.393	3.0
102.408	3.0
102.423	3.0
102.437	1.0
102.452	1.0
102.467	3.0
102.482	1.0
102.496	0.0
102.511	3.0
102.526	5.0
102.541	4.0
102.555	3.0
102.57	2.0
102.585	2.0
102.6	4.0
102.614	2.0
102.629	4.0
102.644	0.0
102.659	2.0
102.673	4.0
102.688	3.0
102.703	2.0
102.717	3.0
102.732	5.0
102.747	6.0
102.762	3.0
102.776	4.0
102.791	6.0
102.806	5.0
102.821	2.0
102.835	1.0
102.85	1.0
102.865	2.0
102.88	4.0
102.894	2.0
102.909	3.0
102.924	4.0
102.938	2.0
102.953	3.0
102.968	3.0
102.983	2.0
102.997	7.0
103.012	2.0
103.027	2.0
103.042	1.0
103.056	1.0
103.071	1.0
103.086	1.0
103.101	2.0
103.115	8.0
103.13	5.0
103.145	2.0
103.16	2.0
103.174	4.0
103.189	4.0
103.204	3.0
103.219	3.0
103.233	3.0
103.248	0.0
103.263	2.0
103.278	4.0
103.292	5.0
103.307	2.0
103.322	6.0
103.337	1.0
103.351	6.0
103.366	4.0
103.381	4.0
103.396	3.0
103.41	2.0
103.425	3.0
103.44	3.0
103.455	3.0
103.469	4.0
103.484	3.0
103.499	5.0
103.514	3.0
103.529	3.0
103.543	6.0
103.558	8.0
103.573	6.0
103.588	5.0
103.602	1.0
103.617	2.0
103.632	3.0
103.647	4.0
103.661	2.0
103.676	3.0
103.691	1.0
103.706	2.0
103.721	3.0
103.735	2.0
103.75	4.0
103.765	6.0
103.78	5.0
103.795	2.0
103.809	4.0
103.824	1.0
103.839	3.0
103.854	5.0
103.869	1.0
103.883	3.0
103.898	2.0
103.913	6.0
103.928	4.0
103.943	2.0
103.957	2.0
103.972	8.0
103.987	4.0
104.002	6.0
104.017	3.0
104.031	3.0
104.046	4.0
104.061	3.0
104.076	4.0
104.091	3.0
104.106	4.0
104.12	6.0
104.135	4.0
104.15	2.0
104.165	2.0
104.18	3.0
104.195	2.0
104.209	3.0
104.224	2.0
104.239	7.0
104.254	4.0
104.269	3.0
104.284	2.0
104.299	7.0
104.313	3.0
104.328	3.0
104.343	2.0
104.358	2.0
104.373	3.0
104.388	2.0
104.403	0.0
104.417	3.0
104.432	3.0
104.447	5.0
104.462	7.0
104.477	1.0
104.492	6.0
104.507	4.0
104.522	3.0
104.536	4.0
104.551	5.0
104.566	4.0
104.581	9.0
104.596	7.0
104.611	4.0
104.626	5.0
104.641	3.0
104.656	4.0
104.67	3.0
104.685	3.0
104.7	3.0
104.715	0.0
104.73	3.0
104.745	5.0
104.76	2.0
104.775	3.0
104.79	3.0
104.804	4.0
104.819	6.0
104.834	2.0
104.849	2.0
104.864	2.0
104.879	4.0
104.894	5.0
104.909	4.0
104.924	2.0
104.939	3.0
104.954	2.0
104.968	4.0
104.983	3.0
104.998	2.0
105.013	1.0
105.028	2.0
105.043	4.0
105.058	2.0
105.073	4.0
105.088	3.0
105.103	1.0
105.118	3.0
105.133	6.0
105.147	5.0
105.162	2.0
105.177	2.0
105.192	4.0
105.207	3.0
105.222	1.0
105.237	0.0
105.252	4.0
105.267	5.0
105.282	2.0
105.297	2.0
105.312	7.0
105.327	5.0
105.342	3.0
105.356	6.0
105.371	5.0
105.386	5.0
105.401	4.0
105.416	5.0
105.431	1.0
105.446	5.0
105.461	7.0
105.476	3.0
105.491	2.0
105.506	3.0
105.521	6.0
105.536	2.0
105.551	2.0
105.566	3.0
105.581	2.0
105.595	7.0
105.61	4.0
105.625	1.0
105.64	1.0
105.655	2.0
105.67	4.0
105.685	2.0
105.7	3.0
105.715	6.0
105.73	0.0
105.745	2.0
105.76	0.0
105.775	2.0
105.79	2.0
105.805	2.0
105.82	4.0
105.835	3.0
105.85	3.0
105.864	4.0
105.879	0.0
105.894	0.0
105.909	4.0
105.924	5.0
105.939	4.0
105.954	1.0
105.969	3.0
105.984	2.0
105.999	5.0
106.014	3.0
106.029	1.0
106.044	2.0
106.059	1.0
106.074	3.0
106.089	3.0
106.104	2.0
106.119	4.0
106.134	4.0
106.148	0.0
106.163	5.0
106.178	3.0
106.193	5.0
106.208	5.0
106.223	3.0
106.238	2.0
106.253	0.0
106.268	1.0
106.283	4.0
106.298	3.0
106.313	3.0
106.328	2.0
106.343	3.0
106.358	4.0
106.373	1.0
106.388	2.0
106.403	1.0
106.418	1.0
106.432	3.0
106.447	3.0
106.462	6.0
106.477	3.0
106.492	4.0
106.507	1.0
106.522	3.0
106.537	4.0
106.552	4.0
106.567	6.0
106.582	7.0
106.597	2.0
106.612	5.0
106.627	4.0
106.642	0.0
106.657	2.0
106.672	2.0
106.687	2.0
106.701	4.0
106.716	2.0
106.731	1.0
106.746	4.0
106.761	4.0
106.776	2.0
106.791	10.0
106.806	5.0
106.821	3.0
106.836	7.0
106.851	1.0
106.866	4.0
106.881	6.0
106.896	2.0
106.911	2.0
106.926	1.0
106.941	2.0
106.955	2.0
106.97	4.0
106.985	6.0
107.0	2.0
107.015	4.0
107.03	1.0
107.045	7.0
107.06	1.0
107.075	3.0
107.09	3.0
107.105	1.0
107.12	5.0
107.135	3.0
107.15	7.0
107.165	7.0
107.18	5.0
107.194	2.0
107.209	6.0
107.224	6.0
107.239	8.0
107.254	3.0
107.269	4.0
107.284	5.0
107.299	4.0
107.314	3.0
107.329	1.0
107.344	3.0
107.359	7.0
107.374	1.0
107.389	3.0
107.404	3.0
107.418	3.0
107.433	4.0
107.448	2.0
107.463	3.0
107.478	3.0
107.493	7.0
107.508	3.0
107.523	2.0
107.538	2.0
107.553	0.0
107.568	7.0
107.583	2.0
107.598	1.0
107.613	0.0
107.627	2.0
107.642	4.0
107.657	3.0
107.672	3.0
107.687	1.0
107.702	3.0
107.717	5.0
107.732	1.0
107.747	4.0
107.762	0.0
107.777	4.0
107.792	2.0
107.807	3.0
107.821	2.0
107.836	3.0
107.851	3.0
107.866	2.0
107.881	7.0
107.896	2.0
107.911	4.0
107.926	3.0
107.941	3.0
107.956	2.0
107.971	8.0
107.986	8.0
108.0	1.0
108.015	1.0
108.03	5.0
108.045	2.0
108.06	2.0
108.075	3.0
108.09	5.0
108.105	7.0
108.12	0.0
108.135	8.0
108.15	5.0
108.164	6.0
108.179	6.0
108.194	4.0
108.209	4.0
108.224	7.0
108.239	5.0
108.254	3.0
108.269	3.0
108.284	6.0
108.299	6.0
108.313	7.0
108.328	1.0
108.343	2.0
108.358	2.0
108.373	4.0
108.388	3.0
108.403	3.0
108.418	3.0
108.433	2.0
108.448	4.0
108.462	3.0
108.477	1.0
108.492	5.0
108.507	5.0
108.522	2.0
108.537	4.0
108.552	2.0
108.567	4.0
108.582	3.0
108.597	3.0
108.611	4.0
108.626	4.0
108.641	3.0
108.656	2.0
108.671	5.0
108.686	3.0
108.701	1.0
108.716	2.0
108.731	9.0
108.745	2.0
108.76	5.0
108.775	3.0
108.79	4.0
108.805	3.0
108.82	4.0
108.835	6.0
108.85	1.0
108.865	3.0
108.879	5.0
108.894	1.0
108.909	2.0
108.924	5.0
108.939	4.0
108.954	7.0
108.969	3.0
108.984	4.0
108.999	3.0
109.013	1.0
109.028	3.0
109.043	1.0
109.058	2.0
109.073	5.0
109.088	3.0
109.103	8.0
109.118	2.0
109.133	3.0
109.147	4.0
109.162	4.0
109.177	1.0
109.192	2.0
109.207	2.0
109.222	1.0
109.237	4.0
109.252	3.0
109.267	4.0
109.281	5.0
109.296	2.0
109.311	4.0
109.326	8.0
109.341	3.0
109.356	1.0
109.371	3.0
109.386	1.0
109.4	2.0
109.415	3.0
109.43	3.0
109.445	2.0
109.46	2.0
109.475	4.0
109.49	2.0
109.505	2.0
109.52	5.0
109.534	2.0
109.549	7.0
109.564	5.0
109.579	1.0
109.594	3.0
109.609	4.0
109.624	1.0
109.639	4.0
109.653	4.0
109.668	4.0
109.683	5.0
109.698	4.0
109.713	3.0
109.728	0.0
109.743	3.0
109.758	4.0
109.773	1.0
109.787	3.0
109.802	3.0
109.817	3.0
109.832	2.0
109.847	1.0
109.862	5.0
109.877	4.0
109.892	3.0
109.907	6.0
109.921	0.0
109.936	3.0
109.951	4.0
109.966	5.0
109.981	4.0
109.996	3.0
110.011	4.0
110.026	4.0
110.04	6.0
110.055	3.0
110.07	3.0
110.085	4.0
110.1	0.0
110.115	0.0
110.13	4.0
110.145	2.0
110.16	4.0
110.174	1.0
110.189	3.0
110.204	6.0
110.219	4.0
110.234	5.0
110.249	2.0
110.264	4.0
110.279	1.0
110.294	0.0
110.308	3.0
110.323	4.0
110.338	6.0
110.353	5.0
110.368	4.0
110.383	3.0
110.398	4.0
110.413	6.0
110.428	2.0
110.442	0.0
110.457	6.0
110.472	3.0
110.487	2.0
110.502	3.0
110.517	0.0
110.532	6.0
110.547	7.0
110.561	1.0
110.576	3.0
110.591	3.0
110.606	5.0
110.621	4.0
110.636	2.0
110.651	4.0
110.666	10.0
110.681	4.0
110.695	3.0
110.71	3.0
110.725	1.0
110.74	2.0
110.755	2.0
110.77	5.0
110.785	4.0
110.8	2.0
110.815	1.0
110.829	2.0
110.844	3.0
110.859	3.0
110.874	2.0
110.889	1.0
110.904	8.0
110.919	4.0
110.934	2.0
110.948	2.0
110.963	3.0
110.978	4.0
110.993	4.0
111.008	3.0
111.023	3.0
111.038	3.0
111.053	1.0
111.067	2.0
111.082	0.0
111.097	1.0
111.112	2.0
111.127	5.0
111.142	8.0
111.157	0.0
111.172	1.0
111.186	4.0
111.201	5.0
111.216	2.0
111.231	3.0
111.246	5.0
111.261	2.0
111.276	3.0
111.291	4.0
111.305	1.0
111.32	2.0
111.335	4.0
111.35	8.0
111.365	3.0
111.38	4.0
111.395	2.0
111.41	2.0
111.424	3.0
111.439	2.0
111.454	8.0
111.469	1.0
111.484	4.0
111.499	5.0
111.514	7.0
111.528	5.0
111.543	1.0
111.558	4.0
111.573	3.0
111.588	2.0
111.603	2.0
111.618	4.0
111.633	9.0
111.647	4.0
111.662	1.0
111.677	6.0
111.692	6.0
111.707	5.0
111.722	1.0
111.737	0.0
111.751	5.0
111.766	2.0
111.781	2.0
111.796	2.0
111.811	2.0
111.826	2.0
111.84	4.0
111.855	1.0
111.87	3.0
111.885	3.0
111.9	6.0
111.915	3.0
111.93	3.0
111.944	1.0
111.959	3.0
111.974	2.0
111.989	2.0
112.004	2.0
112.019	2.0
112.033	7.0
112.048	4.0
112.063	3.0
112.078	1.0
112.093	3.0
112.108	0.0
112.123	4.0
112.137	3.0
112.152	3.0
112.167	0.0
112.182	3.0
112.197	2.0
112.212	1.0
112.226	4.0
112.241	4.0
112.256	4.0
112.271	3.0
112.286	0.0
112.301	6.0
112.315	2.0
112.33	4.0
112.345	3.0
112.36	4.0
112.375	3.0
112.389	4.0
112.404	7.0
112.419	4.0
112.434	4.0
112.449	3.0
112.464	4.0
112.478	6.0
112.493	3.0
112.508	1.0
112.523	7.0
112.538	2.0
112.553	7.0
112.567	6.0
112.582	4.0
112.597	5.0
112.612	3.0
112.627	3.0
112.642	3.0
112.656	4.0
112.671	5.0
112.686	6.0
112.701	4.0
112.716	2.0
112.73	7.0
112.745	4.0
112.76	4.0
112.775	6.0
112.79	6.0
112.805	8.0
112.819	3.0
112.834	4.0
112.849	5.0
112.864	3.0
112.879	0.0
112.894	3.0
112.908	1.0
112.923	2.0
112.938	9.0
112.953	3.0
112.968	8.0
112.983	4.0
112.997	2.0
113.012	0.0
113.027	6.0
113.042	2.0
113.057	3.0
113.072	2.0
113.086	2.0
113.101	5.0
113.116	2.0
113.131	4.0
113.146	7.0
113.161	2.0
113.175	3.0
113.19	3.0
113.205	5.0
113.22	5.0
113.235	5.0
113.25	4.0
113.265	0.0
113.279	3.0
113.294	4.0
113.309	3.0
113.324	5.0
113.339	3.0
113.354	4.0
113.368	4.0
113.383	1.0
113.398	3.0
113.413	5.0
113.428	2.0
113.443	1.0
113.458	5.0
113.472	2.0
113.487	3.0
113.502	3.0
113.517	3.0
113.532	2.0
113.547	3.0
113.562	4.0
113.576	0.0
113.591	2.0
113.606	2.0
113.621	4.0
113.636	1.0
113.651	6.0
113.666	8.0
113.681	3.0
113.695	3.0
113.71	2.0
113.725	3.0
113.74	3.0
113.755	1.0
113.77	0.0
113.785	2.0
113.8	2.0
113.814	1.0
113.829	0.0
113.844	2.0
113.859	4.0
113.874	2.0
113.889	0.0
113.904	3.0
113.919	2.0
113.934	1.0
113.949	1.0
113.963	4.0
113.978	2.0
113.993	3.0
114.008	3.0
114.023	3.0
114.038	4.0
114.053	2.0
114.068	4.0
114.083	0.0
114.098	2.0
114.113	4.0
114.127	2.0
114.142	6.0
114.157	5.0
114.172	4.0
114.187	3.0
114.202	4.0
114.217	3.0
114.232	2.0
114.247	7.0
114.262	4.0
114.277	5.0
114.292	4.0
114.307	9.0
114.322	8.0
114.337	2.0
114.351	3.0
114.366	4.0
114.381	2.0
114.396	6.0
114.411	4.0
114.426	1.0
114.441	3.0
114.456	5.0
114.471	4.0
114.486	5.0
114.501	4.0
114.516	6.0
114.531	4.0
114.546	2.0
114.561	1.0
114.576	6.0
114.591	3.0
114.606	5.0
114.621	5.0
114.636	4.0
114.65	2.0
114.665	4.0
114.68	5.0
114.695	0.0
114.71	3.0
114.725	8.0
114.74	1.0
114.755	1.0
114.77	7.0
114.785	8.0
114.8	2.0
114.815	5.0
114.83	5.0
114.845	1.0
114.86	2.0
114.875	2.0
114.89	3.0
114.905	5.0
114.92	4.0
114.935	1.0
114.95	4.0
114.965	8.0
114.98	3.0
114.995	2.0
115.009	2.0
115.024	6.0
115.039	1.0
115.054	7.0
115.069	3.0
115.084	3.0
115.099	0.0
115.114	2.0
115.129	5.0
115.144	5.0
115.159	2.0
115.174	5.0
115.189	2.0
115.204	5.0
115.219	6.0
115.234	3.0
115.249	1.0
115.264	5.0
115.279	6.0
115.294	4.0
115.309	2.0
115.323	7.0
115.338	9.0
115.353	2.0
115.368	5.0
115.383	5.0
115.398	3.0
115.413	4.0
115.428	3.0
115.443	0.0
115.458	3.0
115.473	3.0
115.488	8.0
115.503	4.0
115.518	6.0
115.533	7.0
115.548	4.0
115.562	4.0
115.577	4.0
115.592	10.0
115.607	4.0
115.622	4.0
115.637	2.0
115.652	2.0
115.667	7.0
115.682	6.0
115.697	1.0
115.712	2.0
115.727	4.0
115.741	3.0
115.756	5.0
115.771	0.0
115.786	5.0
115.801	4.0
115.816	3.0
115.831	3.0
115.846	4.0
115.861	4.0
115.875	4.0
115.89	5.0
115.905	4.0
115.92	4.0
115.935	1.0
115.95	3.0
115.965	8.0
115.98	6.0
115.995	7.0
116.009	4.0
116.024	5.0
116.039	5.0
116.054	2.0
116.069	8.0
116.084	2.0
116.099	5.0
116.113	1.0
116.128	2.0
116.143	5.0
116.158	4.0
116.173	3.0
116.188	0.0
116.202	4.0
116.217	4.0
116.232	4.0
116.247	5.0
116.262	2.0
116.277	3.0
116.291	1.0
116.306	3.0
116.321	4.0
116.336	3.0
116.351	9.0
116.366	0.0
116.38	4.0
116.395	7.0
116.41	2.0
116.425	5.0
116.44	3.0
116.454	5.0
116.469	1.0
116.484	3.0
116.499	1.0
116.514	5.0
116.528	4.0
116.543	3.0
116.558	4.0
116.573	5.0
116.588	3.0
116.602	2.0
116.617	1.0
116.632	9.0
116.647	5.0
116.662	2.0
116.676	5.0
116.691	5.0
116.706	4.0
116.721	0.0
116.735	0.0
116.75	4.0
116.765	4.0
116.78	3.0
116.795	6.0
116.809	2.0
116.824	4.0
116.839	5.0
116.854	1.0
116.868	4.0
116.883	7.0
116.898	4.0
116.913	1.0
116.927	1.0
116.942	4.0
116.957	7.0
116.972	1.0
116.986	6.0
117.001	1.0
117.016	2.0
117.031	2.0
117.045	3.0
117.06	2.0
117.075	8.0
117.09	1.0
117.104	4.0
117.119	6.0
117.134	1.0
117.149	2.0
117.163	5.0
117.178	6.0
117.193	2.0
117.208	2.0
117.222	3.0
117.237	2.0
117.252	9.0
117.267	0.0
117.281	5.0
117.296	5.0
117.311	7.0
117.325	3.0
117.34	3.0
117.355	6.0
117.37	5.0
117.384	3.0
117.399	3.0
117.414	4.0
117.429	4.0
117.443	4.0
117.458	5.0
117.473	6.0
117.487	5.0
117.502	2.0
117.517	4.0
117.532	1.0
117.546	6.0
117.561	3.0
117.576	1.0
117.59	1.0
117.605	6.0
117.62	3.0
117.635	4.0
117.649	4.0
117.664	1.0
117.679	5.0
117.693	3.0
117.708	2.0
117.723	4.0
117.738	0.0
117.752	1.0
117.767	7.0
117.782	2.0
117.796	1.0
117.811	5.0
117.826	3.0
117.841	2.0
117.855	4.0
117.87	1.0
117.885	4.0
117.899	3.0
117.914	2.0
117.929	3.0
117.944	3.0
117.958	4.0
117.973	7.0
117.988	5.0
118.002	2.0
118.017	0.0
118.032	4.0
118.047	7.0
118.062	2.0
118.077	3.0
118.092	6.0
118.107	7.0
118.121	3.0
118.136	3.0
118.151	4.0
118.166	6.0
118.181	4.0
118.196	4.0
118.211	3.0
118.225	2.0
118.24	1.0
118.255	4.0
118.27	3.0
118.285	1.0
118.3	5.0
118.315	4.0
118.33	8.0
118.344	5.0
118.359	7.0
118.374	5.0
118.389	4.0
118.404	1.0
118.419	3.0
118.434	2.0
118.449	1.0
118.463	3.0
118.478	5.0
118.493	4.0
118.508	7.0
118.523	5.0
118.538	11.0
118.553	2.0
118.567	3.0
118.582	1.0
118.597	5.0
118.612	2.0
118.627	2.0
118.642	4.0
118.657	3.0
118.672	5.0
118.686	5.0
118.701	2.0
118.716	2.0
118.731	6.0
118.746	4.0
118.761	3.0
118.776	4.0
118.791	3.0
118.805	6.0
118.82	5.0
118.835	2.0
118.85	4.0
118.865	9.0
118.88	2.0
118.895	1.0
118.909	5.0
118.924	3.0
118.939	4.0
118.954	4.0
118.969	1.0
118.984	1.0
118.999	4.0
119.014	5.0
119.028	6.0
119.043	3.0
119.058	2.0
119.073	5.0
119.088	0.0
119.103	2.0
119.118	7.0
119.133	4.0
119.147	4.0
119.162	2.0
119.177	3.0
119.192	2.0
119.207	3.0
119.222	4.0
119.237	2.0
119.251	4.0
119.266	7.0
119.281	3.0
119.296	3.0
119.311	5.0
119.326	8.0
119.341	2.0
119.356	7.0
119.37	3.0
119.385	6.0
119.4	6.0
119.415	7.0
119.43	1.0
119.445	2.0
119.46	4.0
119.475	1.0
119.489	6.0
119.504	2.0
119.519	6.0
119.534	3.0
119.549	1.0
119.564	0.0
119.579	4.0
119.593	3.0
119.608	1.0
119.623	8.0
119.638	5.0
119.653	4.0
119.668	2.0
119.683	3.0
119.698	4.0
119.712	5.0
119.727	2.0
119.742	4.0
119.757	3.0
119.772	6.0
119.787	4.0
119.802	2.0
119.817	2.0
119.831	1.0
119.846	4.0
119.861	6.0
119.876	2.0
119.891	3.0
119.906	2.0
119.921	2.0
119.935	4.0
119.95	6.0
119.965	1.0
119.98	3.0
119.995	2.0
120.01	3.0
120.025	3.0
120.04	0.0
120.054	1.0
120.069	1.0
120.084	7.0
120.099	1.0
120.114	1.0
120.129	1.0
120.144	2.0
120.159	2.0
120.173	1.0
120.188	2.0
120.203	3.0
120.218	1.0
120.233	2.0
120.248	1.0
120.263	0.0
120.277	1.0
120.292	0.0
120.307	0.0
120.322	2.0
120.337	0.0
120.352	0.0
120.367	2.0
120.382	0.0
120.396	0.0
120.411	0.0
120.426	0.0
120.441	0.0
120.456	0.0
120.471	0.0
120.486	0.0
120.501	0.0
120.515	0.0
120.53	0.0
120.545	0.0
120.56	0.0
120.575	0.0
120.59	1.0
120.605	0.0
120.619	1.0
120.634	0.0
120.649	0.0
120.664	1.0
120.679	0.0
120.694	0.0
120.709	1.0
120.724	0.0
120.738	0.0
120.753	0.0
120.768	0.0
120.783	0.0
120.798	0.0
120.813	0.0
120.828	0.0
120.843	0.0
120.857	0.0
120.872	0.0
120.887	0.0
120.902	0.0
120.917	0.0
120.932	0.0
120.947	1.0
120.961	0.0
120.976	0.0
