-1.217	0.0
-1.202	0.0
-1.187	0.0
-1.172	1.0
-1.157	0.0
-1.142	0.0
-1.128	0.0
-1.113	0.0
-1.098	0.0
-1.083	0.0
-1.068	0.0
-1.054	0.0
-1.039	0.0
-1.024	0.0
-1.009	0.0
-0.994	0.0
-0.979	0.0
-0.965	0.0
-0.95	0.0
-0.935	0.0
-0.92	0.0
-0.905	0.0
-0.891	0.0
-0.876	0.0
-0.861	0.0
-0.846	0.0
-0.831	0.0
-0.816	0.0
-0.802	0.0
-0.787	0.0
-0.772	0.0
-0.757	0.0
-0.742	0.0
-0.728	0.0
-0.713	0.0
-0.698	0.0
-0.683	0.0
-0.668	0.0
-0.653	0.0
-0.639	0.0
-0.624	0.0
-0.609	0.0
-0.594	0.0
-0.579	0.0
-0.565	0.0
-0.55	0.0
-0.535	0.0
-0.52	0.0
-0.505	0.0
-0.49	0.0
-0.476	0.0
-0.461	0.0
-0.446	0.0
-0.431	0.0
-0.416	0.0
-0.401	0.0
-0.387	0.0
-0.372	0.0
-0.357	0.0
-0.342	0.0
-0.327	0.0
-0.313	0.0
-0.298	0.0
-0.283	0.0
-0.268	0.0
-0.253	0.0
-0.238	0.0
-0.224	0.0
-0.209	0.0
-0.194	0.0
-0.179	0.0
-0.164	0.0
-0.15	0.0
-0.135	0.0
-0.12	0.0
-0.105	0.0
-0.09	0.0
-0.075	1.0
-0.061	0.0
-0.046	1.0
-0.031	0.0
-0.016	0.0
-0.001	0.0
0.013	0.0
0.028	0.0
0.043	0.0
0.058	0.0
0.073	0.0
0.088	0.0
0.102	0.0
0.117	0.0
0.132	0.0
0.147	0.0
0.162	0.0
0.176	0.0
0.191	0.0
0.206	0.0
0.221	0.0
0.236	0.0
0.251	0.0
0.265	0.0
0.28	0.0
0.295	0.0
0.31	0.0
0.325	0.0
0.339	0.0
0.354	0.0
0.369	0.0
0.384	0.0
0.399	0.0
0.414	1.0
0.428	0.0
0.443	0.0
0.458	0.0
0.473	0.0
0.488	0.0
0.502	0.0
0.517	0.0
0.532	0.0
0.547	0.0
0.562	0.0
0.577	0.0
0.591	0.0
0.606	0.0
0.621	0.0
0.636	0.0
0.651	0.0
0.665	0.0
0.68	0.0
0.695	0.0
0.71	0.0
0.725	0.0
0.74	0.0
0.754	0.0
0.769	0.0
0.784	0.0
0.799	0.0
0.814	0.0
0.828	0.0
0.843	0.0
0.858	0.0
0.873	0.0
0.888	0.0
0.903	1.0
0.917	0.0
0.932	0.0
0.947	0.0
0.962	0.0
0.977	0.0
0.991	0.0
1.006	0.0
1.021	0.0
1.036	0.0
1.051	0.0
1.065	0.0
1.08	0.0
1.095	0.0
1.11	1.0
1.125	0.0
1.14	0.0
1.154	0.0
1.169	0.0
1.184	0.0
1.199	0.0
1.214	0.0
1.228	0.0
1.243	0.0
1.258	0.0
1.273	0.0
1.288	0.0
1.302	0.0
1.317	0.0
1.332	0.0
1.347	0.0
1.362	0.0
1.376	0.0
1.391	1.0
1.406	0.0
1.421	0.0
1.436	1.0
1.45	0.0
1.465	0.0
1.48	0.0
1.495	1.0
1.51	0.0
1.524	0.0
1.539	0.0
1.554	0.0
1.569	0.0
1.584	1.0
1.598	0.0
1.613	0.0
1.628	0.0
1.643	0.0
1.658	0.0
1.672	0.0
1.687	0.0
1.702	0.0
1.717	0.0
1.732	0.0
1.746	1.0
1.761	0.0
1.776	0.0
1.791	0.0
1.806	0.0
1.82	0.0
1.835	0.0
1.85	1.0
1.865	0.0
1.88	0.0
1.894	0.0
1.909	0.0
1.924	0.0
1.939	1.0
1.954	0.0
1.968	0.0
1.983	2.0
1.998	0.0
2.013	0.0
2.028	0.0
2.042	0.0
2.057	0.0
2.072	0.0
2.087	3.0
2.101	0.0
2.116	1.0
2.131	0.0
2.146	0.0
2.161	0.0
2.175	1.0
2.19	0.0
2.205	0.0
2.22	1.0
2.235	0.0
2.249	1.0
2.264	1.0
2.279	2.0
2.294	0.0
2.308	1.0
2.323	3.0
2.338	0.0
2.353	0.0
2.368	2.0
2.382	1.0
2.397	1.0
2.412	0.0
2.427	0.0
2.442	1.0
2.456	0.0
2.471	1.0
2.486	1.0
2.501	2.0
2.515	1.0
2.53	0.0
2.545	0.0
2.56	1.0
2.575	1.0
2.589	2.0
2.604	1.0
2.619	3.0
2.634	3.0
2.649	1.0
2.663	1.0
2.678	5.0
2.693	5.0
2.708	3.0
2.722	0.0
2.737	3.0
2.752	1.0
2.767	1.0
2.782	1.0
2.796	4.0
2.811	1.0
2.826	0.0
2.841	4.0
2.856	2.0
2.87	3.0
2.885	4.0
2.9	0.0
2.915	3.0
2.93	3.0
2.944	5.0
2.959	1.0
2.974	7.0
2.989	6.0
3.004	9.0
3.018	3.0
3.033	1.0
3.048	3.0
3.063	2.0
3.078	5.0
3.092	3.0
3.107	2.0
3.122	6.0
3.137	6.0
3.152	6.0
3.166	7.0
3.181	3.0
3.196	2.0
3.211	7.0
3.226	9.0
3.24	3.0
3.255	4.0
3.27	4.0
3.285	2.0
3.3	4.0
3.315	5.0
3.329	5.0
3.344	5.0
3.359	2.0
3.374	6.0
3.389	5.0
3.403	6.0
3.418	0.0
3.433	7.0
3.448	11.0
3.463	5.0
3.478	4.0
3.492	5.0
3.507	4.0
3.522	3.0
3.537	6.0
3.552	1.0
3.567	10.0
3.581	4.0
3.596	6.0
3.611	7.0
3.626	5.0
3.641	4.0
3.656	6.0
3.671	2.0
3.685	8.0
3.7	4.0
3.715	3.0
3.73	1.0
3.745	4.0
3.76	8.0
3.775	2.0
3.789	4.0
3.804	3.0
3.819	11.0
3.834	8.0
3.849	5.0
3.864	4.0
3.879	5.0
3.894	3.0
3.908	5.0
3.923	4.0
3.938	7.0
3.953	3.0
3.968	4.0
3.983	6.0
3.998	9.0
4.013	5.0
4.027	8.0
4.042	4.0
4.057	5.0
4.072	8.0
4.087	7.0
4.102	6.0
4.117	3.0
4.132	9.0
4.147	8.0
4.162	6.0
4.176	7.0
4.191	8.0
4.206	9.0
4.221	6.0
4.236	5.0
4.251	4.0
4.266	8.0
4.281	7.0
4.296	6.0
4.311	7.0
4.326	9.0
4.341	4.0
4.356	6.0
4.37	10.0
4.385	11.0
4.4	4.0
4.415	10.0
4.43	5.0
4.445	7.0
4.46	9.0
4.475	6.0
4.49	13.0
4.505	6.0
4.52	6.0
4.535	6.0
4.55	7.0
4.565	3.0
4.58	7.0
4.595	12.0
4.61	6.0
4.625	7.0
4.639	7.0
4.654	3.0
4.669	5.0
4.684	6.0
4.699	7.0
4.714	7.0
4.729	3.0
4.744	4.0
4.759	5.0
4.774	9.0
4.789	3.0
4.804	5.0
4.819	7.0
4.834	5.0
4.849	4.0
4.864	7.0
4.879	6.0
4.894	3.0
4.909	6.0
4.924	11.0
4.939	8.0
4.954	4.0
4.969	7.0
4.984	8.0
4.999	8.0
5.014	6.0
5.029	11.0
5.044	11.0
5.059	7.0
5.074	5.0
5.089	10.0
5.104	8.0
5.119	8.0
5.134	5.0
5.149	7.0
5.164	13.0
5.179	5.0
5.194	8.0
5.209	7.0
5.224	11.0
5.239	8.0
5.254	5.0
5.269	10.0
5.284	4.0
5.299	4.0
5.314	7.0
5.329	5.0
5.344	13.0
5.359	9.0
5.374	13.0
5.389	9.0
5.404	10.0
5.419	8.0
5.434	5.0
5.449	9.0
5.464	8.0
5.479	9.0
5.494	9.0
5.509	6.0
5.524	8.0
5.539	5.0
5.554	8.0
5.569	5.0
5.584	7.0
5.599	11.0
5.614	7.0
5.629	8.0
5.644	5.0
5.659	5.0
5.674	5.0
5.689	7.0
5.704	6.0
5.719	6.0
5.734	13.0
5.749	9.0
5.764	7.0
5.779	7.0
5.794	8.0
5.809	6.0
5.824	9.0
5.839	4.0
5.854	5.0
5.869	10.0
5.884	8.0
5.899	11.0
5.914	6.0
5.929	11.0
5.944	7.0
5.959	4.0
5.974	7.0
5.989	11.0
6.004	4.0
6.019	4.0
6.034	6.0
6.049	10.0
6.064	9.0
6.079	5.0
6.094	4.0
6.109	9.0
6.124	6.0
6.139	8.0
6.154	4.0
6.169	4.0
6.184	9.0
6.199	6.0
6.214	11.0
6.229	11.0
6.244	5.0
6.259	12.0
6.274	10.0
6.289	4.0
6.304	9.0
6.319	7.0
6.334	8.0
6.349	4.0
6.364	10.0
6.379	3.0
6.394	3.0
6.409	7.0
6.424	15.0
6.439	4.0
6.454	8.0
6.469	3.0
6.484	3.0
6.499	11.0
6.514	3.0
6.529	12.0
6.544	3.0
6.559	10.0
6.574	8.0
6.589	14.0
6.604	8.0
6.619	7.0
6.634	7.0
6.649	9.0
6.664	9.0
6.679	7.0
6.694	10.0
6.709	7.0
6.724	10.0
6.739	12.0
6.754	8.0
6.769	9.0
6.784	7.0
6.799	8.0
6.814	8.0
6.829	10.0
6.844	7.0
6.859	5.0
6.873	9.0
6.888	12.0
6.903	15.0
6.918	10.0
6.933	13.0
6.948	8.0
6.963	10.0
6.978	11.0
6.993	8.0
7.008	8.0
7.023	12.0
7.038	13.0
7.053	14.0
7.068	6.0
7.083	8.0
7.098	9.0
7.113	7.0
7.128	10.0
7.143	11.0
7.157	7.0
7.172	11.0
7.187	9.0
7.202	12.0
7.217	7.0
7.232	12.0
7.247	3.0
7.262	9.0
7.277	10.0
7.292	11.0
7.307	10.0
7.322	7.0
7.336	8.0
7.351	6.0
7.366	5.0
7.381	7.0
7.396	15.0
7.411	6.0
7.426	13.0
7.441	10.0
7.456	12.0
7.471	8.0
7.485	9.0
7.5	14.0
7.515	8.0
7.53	7.0
7.545	17.0
7.56	8.0
7.575	11.0
7.59	9.0
7.604	7.0
7.619	9.0
7.634	9.0
7.649	12.0
7.664	9.0
7.679	7.0
7.693	6.0
7.708	13.0
7.723	8.0
7.738	8.0
7.753	9.0
7.768	8.0
7.783	12.0
7.797	10.0
7.812	7.0
7.827	9.0
7.842	8.0
7.857	8.0
7.871	10.0
7.886	7.0
7.901	7.0
7.916	9.0
7.931	9.0
7.945	8.0
7.96	4.0
7.975	13.0
7.99	7.0
8.005	6.0
8.019	4.0
8.034	11.0
8.049	7.0
8.064	5.0
8.078	8.0
8.093	8.0
8.108	10.0
8.123	12.0
8.137	11.0
8.152	4.0
8.167	7.0
8.182	5.0
8.196	6.0
8.211	8.0
8.226	10.0
8.241	7.0
8.255	7.0
8.27	10.0
8.285	8.0
8.3	7.0
8.314	8.0
8.329	10.0
8.344	9.0
8.358	7.0
8.373	10.0
8.388	12.0
8.403	10.0
8.417	9.0
8.432	4.0
8.447	7.0
8.461	11.0
8.476	11.0
8.491	12.0
8.505	8.0
8.52	9.0
8.535	9.0
8.55	10.0
8.564	3.0
8.579	9.0
8.594	6.0
8.608	12.0
8.623	9.0
8.638	10.0
8.652	14.0
8.667	12.0
8.682	5.0
8.696	10.0
8.711	4.0
8.726	8.0
8.74	6.0
8.755	6.0
8.77	11.0
8.784	10.0
8.799	8.0
8.814	5.0
8.828	14.0
8.843	8.0
8.858	10.0
8.872	6.0
8.887	8.0
8.902	7.0
8.916	15.0
8.931	7.0
8.946	8.0
8.96	17.0
8.975	6.0
8.99	7.0
9.004	10.0
9.019	6.0
9.034	10.0
9.048	10.0
9.063	9.0
9.077	7.0
9.092	11.0
9.107	6.0
9.121	5.0
9.136	10.0
9.151	11.0
9.165	6.0
9.18	6.0
9.195	6.0
9.209	3.0
9.224	13.0
9.239	7.0
9.253	7.0
9.268	7.0
9.283	7.0
9.297	8.0
9.312	7.0
9.327	3.0
9.341	7.0
9.356	10.0
9.371	8.0
9.385	6.0
9.4	8.0
9.415	9.0
9.429	7.0
9.444	10.0
9.458	10.0
9.473	11.0
9.488	8.0
9.502	9.0
9.517	9.0
9.532	11.0
9.546	3.0
9.561	11.0
9.576	5.0
9.59	2.0
9.605	8.0
9.62	6.0
9.635	6.0
9.649	12.0
9.664	5.0
9.679	5.0
9.693	8.0
9.708	6.0
9.723	9.0
9.737	4.0
9.752	8.0
9.767	7.0
9.781	4.0
9.796	6.0
9.811	11.0
9.825	7.0
9.84	8.0
9.855	11.0
9.87	5.0
9.884	10.0
9.899	3.0
9.914	12.0
9.928	7.0
9.943	5.0
9.958	11.0
9.973	10.0
9.987	8.0
10.002	9.0
10.017	10.0
10.031	4.0
10.046	15.0
10.061	17.0
10.076	6.0
10.09	13.0
10.105	6.0
10.12	8.0
10.135	9.0
10.149	7.0
10.164	6.0
10.179	10.0
10.194	12.0
10.208	8.0
10.223	3.0
10.238	5.0
10.253	10.0
10.267	9.0
10.282	7.0
10.297	12.0
10.312	8.0
10.326	9.0
10.341	10.0
10.356	6.0
10.371	7.0
10.386	5.0
10.4	4.0
10.415	10.0
10.43	8.0
10.445	8.0
10.46	11.0
10.474	8.0
10.489	7.0
10.504	9.0
10.519	5.0
10.533	8.0
10.548	5.0
10.563	7.0
10.578	4.0
10.593	3.0
10.608	13.0
10.622	12.0
10.637	3.0
10.652	12.0
10.667	3.0
10.682	15.0
10.696	9.0
10.711	6.0
10.726	12.0
10.741	10.0
10.756	7.0
10.771	3.0
10.785	18.0
10.8	11.0
10.815	8.0
10.83	7.0
10.845	4.0
10.86	8.0
10.874	6.0
10.889	6.0
10.904	5.0
10.919	13.0
10.934	9.0
10.949	3.0
10.963	8.0
10.978	8.0
10.993	7.0
11.008	5.0
11.023	5.0
11.038	9.0
11.053	13.0
11.067	4.0
11.082	5.0
11.097	1.0
11.112	9.0
11.127	8.0
11.142	11.0
11.157	10.0
11.172	6.0
11.186	11.0
11.201	8.0
11.216	4.0
11.231	7.0
11.246	10.0
11.261	9.0
11.276	7.0
11.291	7.0
11.305	10.0
11.32	6.0
11.335	7.0
11.35	7.0
11.365	6.0
11.38	6.0
11.395	11.0
11.41	4.0
11.424	8.0
11.439	7.0
11.454	9.0
11.469	8.0
11.484	4.0
11.499	5.0
11.514	5.0
11.529	9.0
11.544	7.0
11.558	10.0
11.573	10.0
11.588	8.0
11.603	4.0
11.618	6.0
11.633	10.0
11.648	10.0
11.663	11.0
11.678	8.0
11.693	7.0
11.707	10.0
11.722	9.0
11.737	5.0
11.752	3.0
11.767	8.0
11.782	12.0
11.797	9.0
11.812	7.0
11.827	7.0
11.842	3.0
11.856	10.0
11.871	8.0
11.886	8.0
11.901	11.0
11.916	8.0
11.931	5.0
11.946	11.0
11.961	8.0
11.976	6.0
11.991	10.0
12.006	10.0
12.02	12.0
12.035	10.0
12.05	5.0
12.065	6.0
12.08	10.0
12.095	9.0
12.11	13.0
12.125	8.0
12.14	11.0
12.155	7.0
12.17	8.0
12.184	11.0
12.199	6.0
12.214	6.0
12.229	9.0
12.244	12.0
12.259	8.0
12.274	13.0
12.289	9.0
12.304	11.0
12.319	17.0
12.334	9.0
12.348	11.0
12.363	15.0
12.378	12.0
12.393	6.0
12.408	16.0
12.423	6.0
12.438	7.0
12.453	8.0
12.468	9.0
12.483	12.0
12.498	7.0
12.513	11.0
12.527	19.0
12.542	19.0
12.557	9.0
12.572	17.0
12.587	14.0
12.602	13.0
12.617	7.0
12.632	10.0
12.647	7.0
12.662	9.0
12.677	17.0
12.692	14.0
12.707	15.0
12.721	15.0
12.736	14.0
12.751	11.0
12.766	14.0
12.781	14.0
12.796	12.0
12.811	12.0
12.826	9.0
12.841	14.0
12.856	13.0
12.871	7.0
12.886	14.0
12.9	8.0
12.915	18.0
12.93	8.0
12.945	15.0
12.96	19.0
12.975	14.0
12.99	11.0
13.005	22.0
13.02	24.0
13.035	6.0
13.05	12.0
13.065	16.0
13.08	20.0
13.094	19.0
13.109	13.0
13.124	22.0
13.139	11.0
13.154	16.0
13.169	14.0
13.184	16.0
13.199	15.0
13.214	17.0
13.229	14.0
13.244	24.0
13.259	22.0
13.274	20.0
13.288	20.0
13.303	14.0
13.318	20.0
13.333	23.0
13.348	17.0
13.363	24.0
13.378	15.0
13.393	29.0
13.408	23.0
13.423	25.0
13.438	16.0
13.453	30.0
13.468	26.0
13.482	32.0
13.497	42.0
13.512	40.0
13.527	43.0
13.542	38.0
13.557	44.0
13.572	56.0
13.587	64.0
13.602	50.0
13.617	59.0
13.632	49.0
13.647	72.0
13.662	78.0
13.677	71.0
13.691	80.0
13.706	88.0
13.721	80.0
13.736	86.0
13.751	109.0
13.766	93.0
13.781	110.0
13.796	125.0
13.811	132.0
13.826	123.0
13.841	132.0
13.856	126.0
13.871	93.0
13.885	92.0
13.9	90.0
13.915	67.0
13.93	72.0
13.945	60.0
13.96	46.0
13.975	47.0
13.99	32.0
14.005	38.0
14.02	34.0
14.035	20.0
14.05	17.0
14.065	23.0
14.08	22.0
14.094	23.0
14.109	19.0
14.124	19.0
14.139	25.0
14.154	20.0
14.169	20.0
14.184	22.0
14.199	23.0
14.214	23.0
14.229	20.0
14.244	14.0
14.259	17.0
14.274	9.0
14.288	24.0
14.303	16.0
14.318	13.0
14.333	14.0
14.348	17.0
14.363	14.0
14.378	21.0
14.393	19.0
14.408	22.0
14.423	15.0
14.438	24.0
14.453	19.0
14.468	13.0
14.482	16.0
14.497	22.0
14.512	20.0
14.527	15.0
14.542	18.0
14.557	10.0
14.572	11.0
14.587	18.0
14.602	17.0
14.617	22.0
14.632	13.0
14.647	11.0
14.661	17.0
14.676	19.0
14.691	10.0
14.706	14.0
14.721	15.0
14.736	11.0
14.751	15.0
14.766	18.0
14.781	15.0
14.796	15.0
14.811	10.0
14.826	11.0
14.84	10.0
14.855	13.0
14.87	16.0
14.885	13.0
14.9	11.0
14.915	10.0
14.93	18.0
14.945	13.0
14.96	13.0
14.975	9.0
14.989	10.0
15.004	13.0
15.019	17.0
15.034	9.0
15.049	12.0
15.064	17.0
15.079	16.0
15.094	15.0
15.109	14.0
15.124	5.0
15.138	20.0
15.153	15.0
15.168	14.0
15.183	12.0
15.198	27.0
15.213	16.0
15.228	17.0
15.243	19.0
15.258	12.0
15.272	13.0
15.287	18.0
15.302	10.0
15.317	15.0
15.332	16.0
15.347	10.0
15.362	19.0
15.377	14.0
15.391	11.0
15.406	17.0
15.421	10.0
15.436	15.0
15.451	16.0
15.466	13.0
15.481	21.0
15.496	13.0
15.51	15.0
15.525	11.0
15.54	9.0
15.555	10.0
15.57	16.0
15.585	9.0
15.6	8.0
15.614	15.0
15.629	18.0
15.644	6.0
15.659	10.0
15.674	14.0
15.689	14.0
15.704	20.0
15.718	14.0
15.733	14.0
15.748	12.0
15.763	12.0
15.778	20.0
15.793	10.0
15.808	11.0
15.822	15.0
15.837	19.0
15.852	20.0
15.867	10.0
15.882	12.0
15.897	9.0
15.911	15.0
15.926	18.0
15.941	19.0
15.956	9.0
15.971	10.0
15.986	6.0
16.0	17.0
16.015	12.0
16.03	18.0
16.045	9.0
16.06	11.0
16.074	10.0
16.089	17.0
16.104	16.0
16.119	19.0
16.134	13.0
16.149	12.0
16.163	12.0
16.178	14.0
16.193	17.0
16.208	15.0
16.223	16.0
16.237	9.0
16.252	10.0
16.267	13.0
16.282	6.0
16.297	11.0
16.311	15.0
16.326	12.0
16.341	10.0
16.356	12.0
16.37	10.0
16.385	9.0
16.4	16.0
16.415	17.0
16.43	12.0
16.444	16.0
16.459	16.0
16.474	14.0
16.489	9.0
16.504	16.0
16.518	19.0
16.533	16.0
16.548	13.0
16.563	11.0
16.577	23.0
16.592	23.0
16.607	11.0
16.622	11.0
16.637	22.0
16.651	24.0
16.666	20.0
16.681	9.0
16.696	15.0
16.71	22.0
16.725	30.0
16.74	26.0
16.755	32.0
16.77	34.0
16.784	31.0
16.799	33.0
16.814	42.0
16.829	53.0
16.843	49.0
16.858	45.0
16.873	57.0
16.888	57.0
16.902	79.0
16.917	70.0
16.932	74.0
16.947	87.0
16.961	75.0
16.976	53.0
16.991	53.0
17.006	80.0
17.021	63.0
17.035	52.0
17.05	35.0
17.065	44.0
17.08	35.0
17.094	39.0
17.109	24.0
17.124	25.0
17.139	20.0
17.153	20.0
17.168	17.0
17.183	11.0
17.198	13.0
17.212	23.0
17.227	14.0
17.242	10.0
17.257	18.0
17.271	12.0
17.286	8.0
17.301	14.0
17.316	13.0
17.33	18.0
17.345	20.0
17.36	13.0
17.375	11.0
17.39	14.0
17.404	11.0
17.419	15.0
17.434	13.0
17.449	18.0
17.463	15.0
17.478	18.0
17.493	15.0
17.508	14.0
17.522	12.0
17.537	8.0
17.552	7.0
17.567	11.0
17.581	9.0
17.596	9.0
17.611	17.0
17.626	18.0
17.641	11.0
17.655	11.0
17.67	12.0
17.685	16.0
17.7	8.0
17.714	13.0
17.729	12.0
17.744	8.0
17.759	12.0
17.773	11.0
17.788	8.0
17.803	14.0
17.818	15.0
17.833	13.0
17.847	17.0
17.862	10.0
17.877	9.0
17.892	17.0
17.906	15.0
17.921	7.0
17.936	6.0
17.951	10.0
17.966	11.0
17.98	18.0
17.995	14.0
18.01	12.0
18.025	16.0
18.04	15.0
18.054	9.0
18.069	11.0
18.084	15.0
18.099	11.0
18.114	11.0
18.128	7.0
18.143	11.0
18.158	8.0
18.173	10.0
18.188	9.0
18.202	8.0
18.217	10.0
18.232	9.0
18.247	12.0
18.262	8.0
18.276	14.0
18.291	5.0
18.306	10.0
18.321	11.0
18.336	13.0
18.35	12.0
18.365	11.0
18.38	8.0
18.395	8.0
18.41	6.0
18.424	14.0
18.439	14.0
18.454	19.0
18.469	13.0
18.484	10.0
18.498	4.0
18.513	8.0
18.528	6.0
18.543	13.0
18.558	10.0
18.573	11.0
18.587	15.0
18.602	10.0
18.617	9.0
18.632	9.0
18.647	15.0
18.661	13.0
18.676	9.0
18.691	8.0
18.706	19.0
18.721	9.0
18.736	12.0
18.75	12.0
18.765	15.0
18.78	15.0
18.795	8.0
18.81	11.0
18.825	7.0
18.839	9.0
18.854	10.0
18.869	6.0
18.884	8.0
18.899	11.0
18.913	12.0
18.928	14.0
18.943	15.0
18.958	20.0
18.973	12.0
18.988	14.0
19.002	13.0
19.017	11.0
19.032	9.0
19.047	11.0
19.062	11.0
19.077	9.0
19.091	8.0
19.106	11.0
19.121	14.0
19.136	14.0
19.151	11.0
19.165	14.0
19.18	14.0
19.195	13.0
19.21	8.0
19.225	11.0
19.24	13.0
19.254	17.0
19.269	12.0
19.284	11.0
19.299	11.0
19.314	15.0
19.329	13.0
19.343	11.0
19.358	16.0
19.373	18.0
19.388	15.0
19.403	18.0
19.417	16.0
19.432	15.0
19.447	22.0
19.462	23.0
19.477	32.0
19.492	31.0
19.506	22.0
19.521	38.0
19.536	34.0
19.551	31.0
19.566	36.0
19.58	35.0
19.595	34.0
19.61	48.0
19.625	51.0
19.64	39.0
19.655	33.0
19.669	36.0
19.684	33.0
19.699	35.0
19.714	35.0
19.729	25.0
19.743	37.0
19.758	19.0
19.773	22.0
19.788	12.0
19.803	22.0
19.817	15.0
19.832	16.0
19.847	14.0
19.862	15.0
19.877	18.0
19.891	18.0
19.906	11.0
19.921	14.0
19.936	10.0
19.951	21.0
19.965	15.0
19.98	9.0
19.995	16.0
20.01	8.0
20.025	16.0
20.039	7.0
20.054	12.0
20.069	10.0
20.084	8.0
20.099	10.0
20.113	8.0
20.128	19.0
20.143	9.0
20.158	8.0
20.173	5.0
20.187	12.0
20.202	14.0
20.217	6.0
20.232	16.0
20.246	14.0
20.261	13.0
20.276	15.0
20.291	11.0
20.306	11.0
20.32	9.0
20.335	9.0
20.35	5.0
20.365	7.0
20.38	14.0
20.394	12.0
20.409	11.0
20.424	11.0
20.439	11.0
20.453	11.0
20.468	8.0
20.483	10.0
20.498	16.0
20.513	17.0
20.527	16.0
20.542	7.0
20.557	13.0
20.572	14.0
20.586	16.0
20.601	10.0
20.616	13.0
20.631	11.0
20.646	11.0
20.66	8.0
20.675	7.0
20.69	10.0
20.705	10.0
20.719	6.0
20.734	14.0
20.749	14.0
20.764	14.0
20.779	10.0
20.793	13.0
20.808	11.0
20.823	10.0
20.838	8.0
20.853	14.0
20.867	8.0
20.882	9.0
20.897	15.0
20.912	14.0
20.926	11.0
20.941	6.0
20.956	9.0
20.971	14.0
20.986	11.0
21.0	6.0
21.015	16.0
21.03	6.0
21.045	10.0
21.06	10.0
21.074	14.0
21.089	16.0
21.104	8.0
21.119	11.0
21.134	12.0
21.148	11.0
21.163	12.0
21.178	6.0
21.193	9.0
21.208	11.0
21.222	9.0
21.237	12.0
21.252	14.0
21.267	13.0
21.282	9.0
21.296	13.0
21.311	6.0
21.326	18.0
21.341	7.0
21.356	12.0
21.37	18.0
21.385	12.0
21.4	16.0
21.415	15.0
21.43	6.0
21.444	9.0
21.459	12.0
21.474	12.0
21.489	9.0
21.504	11.0
21.519	13.0
21.533	10.0
21.548	10.0
21.563	13.0
21.578	10.0
21.593	9.0
21.608	16.0
21.622	9.0
21.637	13.0
21.652	31.0
21.667	13.0
21.682	19.0
21.697	11.0
21.712	20.0
21.726	22.0
21.741	21.0
21.756	21.0
21.771	19.0
21.786	33.0
21.801	38.0
21.816	32.0
21.83	41.0
21.845	43.0
21.86	49.0
21.875	63.0
21.89	64.0
21.905	76.0
21.92	61.0
21.935	81.0
21.949	70.0
21.964	80.0
21.979	65.0
21.994	63.0
22.009	68.0
22.024	52.0
22.039	49.0
22.054	53.0
22.069	47.0
22.083	35.0
22.098	45.0
22.113	39.0
22.128	21.0
22.143	20.0
22.158	20.0
22.173	20.0
22.188	26.0
22.203	18.0
22.218	15.0
22.233	15.0
22.248	7.0
22.262	19.0
22.277	8.0
22.292	9.0
22.307	15.0
22.322	12.0
22.337	9.0
22.352	10.0
22.367	13.0
22.382	8.0
22.397	8.0
22.412	9.0
22.427	16.0
22.442	8.0
22.457	12.0
22.472	10.0
22.487	12.0
22.502	15.0
22.516	16.0
22.531	6.0
22.546	7.0
22.561	6.0
22.576	11.0
22.591	13.0
22.606	17.0
22.621	15.0
22.636	15.0
22.651	7.0
22.666	6.0
22.681	9.0
22.696	10.0
22.711	12.0
22.726	4.0
22.741	8.0
22.756	9.0
22.771	9.0
22.786	7.0
22.801	11.0
22.816	5.0
22.831	9.0
22.846	8.0
22.861	9.0
22.876	9.0
22.891	7.0
22.906	13.0
22.92	5.0
22.935	10.0
22.95	12.0
22.965	10.0
22.98	15.0
22.995	10.0
23.01	13.0
23.025	8.0
23.04	14.0
23.055	6.0
23.07	16.0
23.085	12.0
23.1	11.0
23.115	9.0
23.13	6.0
23.145	6.0
23.16	6.0
23.175	6.0
23.19	10.0
23.205	10.0
23.22	10.0
23.235	3.0
23.25	8.0
23.265	11.0
23.28	7.0
23.295	10.0
23.31	3.0
23.325	8.0
23.34	10.0
23.355	11.0
23.37	9.0
23.384	13.0
23.399	12.0
23.414	20.0
23.429	8.0
23.444	9.0
23.459	7.0
23.474	9.0
23.489	6.0
23.504	12.0
23.519	9.0
23.534	8.0
23.549	11.0
23.564	7.0
23.579	11.0
23.594	10.0
23.609	9.0
23.624	14.0
23.639	11.0
23.654	15.0
23.668	11.0
23.683	9.0
23.698	8.0
23.713	3.0
23.728	12.0
23.743	10.0
23.758	12.0
23.773	13.0
23.788	18.0
23.803	9.0
23.818	15.0
23.833	18.0
23.848	17.0
23.862	14.0
23.877	20.0
23.892	20.0
23.907	22.0
23.922	35.0
23.937	23.0
23.952	30.0
23.967	22.0
23.982	46.0
23.997	35.0
24.011	32.0
24.026	43.0
24.041	52.0
24.056	38.0
24.071	58.0
24.086	58.0
24.101	50.0
24.116	40.0
24.131	39.0
24.145	40.0
24.16	40.0
24.175	31.0
24.19	35.0
24.205	27.0
24.22	37.0
24.235	25.0
24.249	33.0
24.264	33.0
24.279	23.0
24.294	21.0
24.309	22.0
24.324	19.0
24.338	17.0
24.353	16.0
24.368	9.0
24.383	9.0
24.398	3.0
24.413	11.0
24.428	7.0
24.442	9.0
24.457	14.0
24.472	9.0
24.487	10.0
24.502	10.0
24.516	15.0
24.531	6.0
24.546	8.0
24.561	11.0
24.576	9.0
24.591	16.0
24.605	7.0
24.62	12.0
24.635	11.0
24.65	7.0
24.665	14.0
24.679	15.0
24.694	20.0
24.709	8.0
24.724	7.0
24.739	12.0
24.753	8.0
24.768	8.0
24.783	7.0
24.798	15.0
24.813	5.0
24.827	8.0
24.842	8.0
24.857	11.0
24.872	10.0
24.886	7.0
24.901	6.0
24.916	11.0
24.931	10.0
24.946	11.0
24.96	6.0
24.975	10.0
24.99	10.0
25.005	5.0
25.019	8.0
25.034	6.0
25.049	17.0
25.064	14.0
25.078	10.0
25.093	7.0
25.108	12.0
25.123	9.0
25.138	12.0
25.152	5.0
25.167	9.0
25.182	11.0
25.197	6.0
25.211	9.0
25.226	5.0
25.241	13.0
25.256	6.0
25.27	15.0
25.285	10.0
25.3	16.0
25.315	8.0
25.329	15.0
25.344	16.0
25.359	15.0
25.374	9.0
25.388	16.0
25.403	12.0
25.418	13.0
25.433	13.0
25.447	8.0
25.462	8.0
25.477	4.0
25.492	15.0
25.506	7.0
25.521	7.0
25.536	8.0
25.55	13.0
25.565	10.0
25.58	7.0
25.595	13.0
25.609	14.0
25.624	9.0
25.639	8.0
25.654	10.0
25.668	11.0
25.683	6.0
25.698	7.0
25.713	9.0
25.727	12.0
25.742	8.0
25.757	8.0
25.772	7.0
25.786	12.0
25.801	14.0
25.816	6.0
25.83	13.0
25.845	10.0
25.86	15.0
25.875	3.0
25.889	15.0
25.904	12.0
25.919	8.0
25.934	12.0
25.948	4.0
25.963	14.0
25.978	10.0
25.992	8.0
26.007	7.0
26.022	6.0
26.037	15.0
26.051	11.0
26.066	9.0
26.081	11.0
26.096	11.0
26.11	9.0
26.125	5.0
26.14	8.0
26.155	8.0
26.169	9.0
26.184	12.0
26.199	9.0
26.213	14.0
26.228	15.0
26.243	10.0
26.258	9.0
26.272	6.0
26.287	6.0
26.302	9.0
26.317	6.0
26.331	12.0
26.346	15.0
26.361	15.0
26.376	11.0
26.39	10.0
26.405	10.0
26.42	9.0
26.434	5.0
26.449	11.0
26.464	10.0
26.479	9.0
26.493	10.0
26.508	9.0
26.523	10.0
26.538	10.0
26.552	11.0
26.567	13.0
26.582	9.0
26.597	6.0
26.611	7.0
26.626	6.0
26.641	11.0
26.656	7.0
26.67	2.0
26.685	14.0
26.7	13.0
26.715	5.0
26.729	11.0
26.744	7.0
26.759	10.0
26.773	12.0
26.788	10.0
26.803	12.0
26.818	15.0
26.832	6.0
26.847	6.0
26.862	11.0
26.877	17.0
26.891	7.0
26.906	9.0
26.921	8.0
26.936	8.0
26.95	5.0
26.965	8.0
26.98	6.0
26.995	9.0
27.01	12.0
27.024	13.0
27.039	11.0
27.054	8.0
27.069	5.0
27.083	13.0
27.098	7.0
27.113	6.0
27.128	10.0
27.142	13.0
27.157	14.0
27.172	12.0
27.187	5.0
27.201	12.0
27.216	10.0
27.231	11.0
27.246	10.0
27.261	11.0
27.275	10.0
27.29	8.0
27.305	6.0
27.32	13.0
27.334	7.0
27.349	6.0
27.364	10.0
27.379	9.0
27.394	7.0
27.408	11.0
27.423	10.0
27.438	18.0
27.453	11.0
27.467	4.0
27.482	10.0
27.497	2.0
27.512	9.0
27.527	11.0
27.541	6.0
27.556	6.0
27.571	14.0
27.586	11.0
27.601	10.0
27.615	11.0
27.63	9.0
27.645	10.0
27.66	11.0
27.675	13.0
27.689	15.0
27.704	10.0
27.719	17.0
27.734	13.0
27.749	18.0
27.763	22.0
27.778	18.0
27.793	20.0
27.808	22.0
27.823	27.0
27.838	21.0
27.852	20.0
27.867	19.0
27.882	24.0
27.897	16.0
27.912	17.0
27.926	26.0
27.941	17.0
27.956	17.0
27.971	23.0
27.986	22.0
28.001	11.0
28.015	23.0
28.03	15.0
28.045	9.0
28.06	12.0
28.075	24.0
28.09	18.0
28.105	12.0
28.119	14.0
28.134	8.0
28.149	22.0
28.164	14.0
28.179	14.0
28.194	11.0
28.208	16.0
28.223	6.0
28.238	12.0
28.253	12.0
28.268	9.0
28.283	14.0
28.298	17.0
28.312	8.0
28.327	13.0
28.342	10.0
28.357	6.0
28.372	7.0
28.387	5.0
28.402	7.0
28.417	11.0
28.431	7.0
28.446	11.0
28.461	9.0
28.476	12.0
28.491	12.0
28.506	15.0
28.521	9.0
28.536	7.0
28.55	15.0
28.565	7.0
28.58	10.0
28.595	7.0
28.61	11.0
28.625	11.0
28.64	11.0
28.655	13.0
28.669	9.0
28.684	12.0
28.699	8.0
28.714	8.0
28.729	9.0
28.744	9.0
28.759	13.0
28.774	11.0
28.788	11.0
28.803	9.0
28.818	9.0
28.833	10.0
28.848	10.0
28.863	12.0
28.878	9.0
28.893	8.0
28.908	12.0
28.922	6.0
28.937	16.0
28.952	8.0
28.967	13.0
28.982	13.0
28.997	7.0
29.012	9.0
29.027	8.0
29.041	9.0
29.056	9.0
29.071	9.0
29.086	12.0
29.101	5.0
29.116	16.0
29.131	10.0
29.146	8.0
29.16	6.0
29.175	8.0
29.19	13.0
29.205	8.0
29.22	15.0
29.235	13.0
29.25	11.0
29.265	5.0
29.279	17.0
29.294	11.0
29.309	13.0
29.324	13.0
29.339	6.0
29.354	22.0
29.369	12.0
29.384	16.0
29.398	13.0
29.413	13.0
29.428	17.0
29.443	23.0
29.458	17.0
29.473	17.0
29.488	26.0
29.502	30.0
29.517	19.0
29.532	38.0
29.547	48.0
29.562	42.0
29.577	46.0
29.592	47.0
29.606	56.0
29.621	52.0
29.636	64.0
29.651	44.0
29.666	54.0
29.681	24.0
29.695	40.0
29.71	27.0
29.725	34.0
29.74	36.0
29.755	25.0
29.77	31.0
29.784	34.0
29.799	24.0
29.814	28.0
29.829	26.0
29.844	24.0
29.859	21.0
29.873	17.0
29.888	21.0
29.903	21.0
29.918	11.0
29.933	15.0
29.947	9.0
29.962	9.0
29.977	9.0
29.992	7.0
30.007	8.0
30.021	12.0
30.036	6.0
30.051	8.0
30.066	13.0
30.081	6.0
30.095	11.0
30.11	10.0
30.125	14.0
30.14	11.0
30.155	11.0
30.169	8.0
30.184	12.0
30.199	11.0
30.214	12.0
30.228	7.0
30.243	8.0
30.258	5.0
30.273	11.0
30.288	11.0
30.302	10.0
30.317	10.0
30.332	15.0
30.347	9.0
30.361	12.0
30.376	7.0
30.391	11.0
30.406	7.0
30.42	12.0
30.435	7.0
30.45	4.0
30.465	15.0
30.479	10.0
30.494	13.0
30.509	13.0
30.524	12.0
30.538	7.0
30.553	11.0
30.568	14.0
30.583	8.0
30.597	18.0
30.612	15.0
30.627	9.0
30.641	17.0
30.656	12.0
30.671	8.0
30.686	12.0
30.7	9.0
30.715	13.0
30.73	6.0
30.745	16.0
30.759	5.0
30.774	10.0
30.789	14.0
30.803	13.0
30.818	13.0
30.833	4.0
30.848	9.0
30.862	12.0
30.877	6.0
30.892	11.0
30.906	17.0
30.921	10.0
30.936	11.0
30.951	13.0
30.965	13.0
30.98	9.0
30.995	10.0
31.009	17.0
31.024	11.0
31.039	10.0
31.053	14.0
31.068	9.0
31.083	18.0
31.098	12.0
31.112	9.0
31.127	14.0
31.142	28.0
31.156	17.0
31.171	23.0
31.186	23.0
31.2	32.0
31.215	29.0
31.23	30.0
31.245	30.0
31.259	41.0
31.274	43.0
31.289	36.0
31.303	43.0
31.318	25.0
31.333	21.0
31.347	16.0
31.362	33.0
31.377	23.0
31.392	27.0
31.406	25.0
31.421	21.0
31.436	25.0
31.45	29.0
31.465	21.0
31.48	10.0
31.494	18.0
31.509	21.0
31.524	14.0
31.538	11.0
31.553	19.0
31.568	12.0
31.583	16.0
31.597	11.0
31.612	14.0
31.627	11.0
31.641	12.0
31.656	11.0
31.671	11.0
31.685	7.0
31.7	17.0
31.715	17.0
31.729	7.0
31.744	8.0
31.759	13.0
31.774	6.0
31.788	11.0
31.803	11.0
31.818	8.0
31.832	6.0
31.847	10.0
31.862	12.0
31.876	8.0
31.891	10.0
31.906	7.0
31.92	7.0
31.935	10.0
31.95	11.0
31.965	4.0
31.979	9.0
31.994	19.0
32.009	6.0
32.023	10.0
32.038	10.0
32.053	10.0
32.067	8.0
32.082	6.0
32.097	5.0
32.112	13.0
32.126	9.0
32.141	7.0
32.156	17.0
32.17	12.0
32.185	13.0
32.2	10.0
32.214	10.0
32.229	7.0
32.244	18.0
32.259	8.0
32.273	9.0
32.288	15.0
32.303	13.0
32.317	6.0
32.332	8.0
32.347	6.0
32.362	10.0
32.376	17.0
32.391	14.0
32.406	8.0
32.42	7.0
32.435	7.0
32.45	10.0
32.465	7.0
32.479	9.0
32.494	10.0
32.509	6.0
32.523	4.0
32.538	10.0
32.553	14.0
32.568	14.0
32.582	9.0
32.597	11.0
32.612	10.0
32.627	14.0
32.641	7.0
32.656	14.0
32.671	12.0
32.685	11.0
32.7	17.0
32.715	15.0
32.73	17.0
32.744	16.0
32.759	21.0
32.774	27.0
32.788	19.0
32.803	26.0
32.818	25.0
32.833	29.0
32.847	36.0
32.862	25.0
32.877	32.0
32.892	20.0
32.906	24.0
32.921	20.0
32.936	16.0
32.951	14.0
32.965	14.0
32.98	18.0
32.995	11.0
33.009	19.0
33.024	20.0
33.039	23.0
33.054	18.0
33.068	12.0
33.083	19.0
33.098	19.0
33.113	13.0
33.127	10.0
33.142	7.0
33.157	10.0
33.172	12.0
33.186	6.0
33.201	16.0
33.216	9.0
33.231	13.0
33.245	6.0
33.26	10.0
33.275	4.0
33.29	12.0
33.304	11.0
33.319	11.0
33.334	14.0
33.349	10.0
33.363	8.0
33.378	8.0
33.393	9.0
33.408	17.0
33.422	14.0
33.437	14.0
33.452	10.0
33.467	6.0
33.481	7.0
33.496	9.0
33.511	11.0
33.526	10.0
33.54	5.0
33.555	9.0
33.57	10.0
33.585	8.0
33.599	9.0
33.614	16.0
33.629	10.0
33.644	7.0
33.658	10.0
33.673	5.0
33.688	6.0
33.703	8.0
33.718	8.0
33.732	11.0
33.747	9.0
33.762	10.0
33.777	8.0
33.791	10.0
33.806	10.0
33.821	7.0
33.836	6.0
33.85	10.0
33.865	11.0
33.88	9.0
33.895	8.0
33.91	13.0
33.924	8.0
33.939	9.0
33.954	7.0
33.969	8.0
33.983	7.0
33.998	7.0
34.013	9.0
34.028	17.0
34.042	5.0
34.057	15.0
34.072	8.0
34.087	13.0
34.102	4.0
34.116	6.0
34.131	6.0
34.146	12.0
34.161	11.0
34.175	7.0
34.19	7.0
34.205	8.0
34.22	11.0
34.235	7.0
34.249	10.0
34.264	13.0
34.279	9.0
34.294	17.0
34.309	14.0
34.323	15.0
34.338	12.0
34.353	14.0
34.368	14.0
34.382	3.0
34.397	17.0
34.412	13.0
34.427	11.0
34.442	7.0
34.456	9.0
34.471	13.0
34.486	11.0
34.501	11.0
34.516	13.0
34.53	12.0
34.545	21.0
34.56	15.0
34.575	11.0
34.59	14.0
34.604	11.0
34.619	11.0
34.634	3.0
34.649	16.0
34.664	8.0
34.678	8.0
34.693	7.0
34.708	11.0
34.723	7.0
34.738	13.0
34.752	9.0
34.767	5.0
34.782	8.0
34.797	6.0
34.812	5.0
34.826	11.0
34.841	12.0
34.856	14.0
34.871	9.0
34.886	7.0
34.9	7.0
34.915	10.0
34.93	9.0
34.945	9.0
34.96	9.0
34.974	7.0
34.989	8.0
35.004	12.0
35.019	13.0
35.034	13.0
35.048	10.0
35.063	5.0
35.078	9.0
35.093	4.0
35.108	12.0
35.122	10.0
35.137	6.0
35.152	12.0
35.167	6.0
35.182	9.0
35.196	3.0
35.211	9.0
35.226	7.0
35.241	12.0
35.256	3.0
35.27	4.0
35.285	6.0
35.3	10.0
35.315	3.0
35.33	8.0
35.344	5.0
35.359	6.0
35.374	15.0
35.389	7.0
35.404	10.0
35.418	12.0
35.433	11.0
35.448	12.0
35.463	4.0
35.478	5.0
35.493	11.0
35.507	8.0
35.522	5.0
35.537	5.0
35.552	6.0
35.567	9.0
35.581	8.0
35.596	7.0
35.611	12.0
35.626	13.0
35.641	14.0
35.655	13.0
35.67	13.0
35.685	8.0
35.7	13.0
35.715	17.0
35.729	13.0
35.744	12.0
35.759	18.0
35.774	19.0
35.789	18.0
35.804	20.0
35.818	21.0
35.833	13.0
35.848	18.0
35.863	21.0
35.878	16.0
35.892	12.0
35.907	11.0
35.922	19.0
35.937	21.0
35.952	14.0
35.966	10.0
35.981	10.0
35.996	15.0
36.011	10.0
36.026	21.0
36.04	12.0
36.055	12.0
36.07	9.0
36.085	9.0
36.1	10.0
36.114	12.0
36.129	10.0
36.144	8.0
36.159	11.0
36.174	9.0
36.189	5.0
36.203	12.0
36.218	13.0
36.233	4.0
36.248	9.0
36.263	6.0
36.277	4.0
36.292	7.0
36.307	4.0
36.322	4.0
36.337	4.0
36.351	2.0
36.366	6.0
36.381	15.0
36.396	8.0
36.411	8.0
36.426	5.0
36.44	10.0
36.455	7.0
36.47	6.0
36.485	8.0
36.5	4.0
36.514	7.0
36.529	7.0
36.544	16.0
36.559	8.0
36.574	8.0
36.589	7.0
36.603	7.0
36.618	13.0
36.633	12.0
36.648	6.0
36.663	9.0
36.677	6.0
36.692	5.0
36.707	8.0
36.722	5.0
36.737	12.0
36.752	6.0
36.766	7.0
36.781	7.0
36.796	6.0
36.811	7.0
36.826	5.0
36.841	8.0
36.855	7.0
36.87	9.0
36.885	9.0
36.9	10.0
36.915	10.0
36.93	7.0
36.944	8.0
36.959	7.0
36.974	8.0
36.989	12.0
37.004	7.0
37.019	13.0
37.033	15.0
37.048	9.0
37.063	14.0
37.078	20.0
37.093	19.0
37.108	18.0
37.123	19.0
37.137	24.0
37.152	29.0
37.167	32.0
37.182	35.0
37.197	29.0
37.212	31.0
37.226	16.0
37.241	31.0
37.256	18.0
37.271	22.0
37.286	16.0
37.301	17.0
37.316	7.0
37.331	24.0
37.345	11.0
37.36	17.0
37.375	12.0
37.39	18.0
37.405	16.0
37.42	16.0
37.435	23.0
37.45	14.0
37.464	18.0
37.479	10.0
37.494	9.0
37.509	4.0
37.524	8.0
37.539	5.0
37.554	12.0
37.569	4.0
37.583	7.0
37.598	5.0
37.613	8.0
37.628	10.0
37.643	13.0
37.658	4.0
37.673	5.0
37.688	5.0
37.703	5.0
37.718	4.0
37.733	10.0
37.747	7.0
37.762	6.0
37.777	5.0
37.792	5.0
37.807	5.0
37.822	3.0
37.837	7.0
37.852	10.0
37.867	5.0
37.882	5.0
37.897	5.0
37.912	8.0
37.927	7.0
37.941	8.0
37.956	7.0
37.971	6.0
37.986	10.0
38.001	5.0
38.016	3.0
38.031	5.0
38.046	6.0
38.061	4.0
38.076	5.0
38.091	5.0
38.106	9.0
38.121	2.0
38.136	5.0
38.151	3.0
38.166	9.0
38.181	8.0
38.196	5.0
38.211	10.0
38.226	10.0
38.241	6.0
38.256	7.0
38.271	3.0
38.285	8.0
38.3	5.0
38.315	8.0
38.33	8.0
38.345	9.0
38.36	10.0
38.375	5.0
38.39	4.0
38.405	7.0
38.42	6.0
38.435	2.0
38.45	8.0
38.465	8.0
38.48	6.0
38.495	8.0
38.51	7.0
38.525	3.0
38.54	7.0
38.555	7.0
38.57	8.0
38.585	6.0
38.6	6.0
38.615	8.0
38.63	7.0
38.645	9.0
38.66	6.0
38.675	3.0
38.69	4.0
38.705	5.0
38.72	5.0
38.735	3.0
38.75	5.0
38.765	6.0
38.78	13.0
38.795	1.0
38.81	3.0
38.825	6.0
38.84	6.0
38.855	5.0
38.87	6.0
38.885	5.0
38.9	2.0
38.915	5.0
38.93	5.0
38.945	7.0
38.96	9.0
38.975	7.0
38.99	10.0
39.005	4.0
39.02	3.0
39.035	4.0
39.05	8.0
39.065	7.0
39.08	4.0
39.095	6.0
39.11	3.0
39.125	3.0
39.14	2.0
39.155	3.0
39.17	4.0
39.185	7.0
39.2	6.0
39.215	3.0
39.23	6.0
39.245	11.0
39.26	5.0
39.275	6.0
39.29	4.0
39.305	5.0
39.32	4.0
39.335	11.0
39.35	9.0
39.365	8.0
39.38	5.0
39.395	6.0
39.409	7.0
39.424	4.0
39.439	7.0
39.454	5.0
39.469	1.0
39.484	6.0
39.499	5.0
39.514	4.0
39.529	7.0
39.544	7.0
39.559	7.0
39.574	5.0
39.589	2.0
39.604	7.0
39.619	6.0
39.634	3.0
39.649	10.0
39.664	5.0
39.678	9.0
39.693	8.0
39.708	3.0
39.723	5.0
39.738	2.0
39.753	6.0
39.768	7.0
39.783	4.0
39.798	8.0
39.813	10.0
39.827	5.0
39.842	11.0
39.857	11.0
39.872	8.0
39.887	7.0
39.902	10.0
39.917	3.0
39.932	12.0
39.947	4.0
39.961	9.0
39.976	7.0
39.991	8.0
40.006	7.0
40.021	6.0
40.036	8.0
40.051	6.0
40.065	10.0
40.08	4.0
40.095	8.0
40.11	11.0
40.125	6.0
40.14	4.0
40.154	8.0
40.169	12.0
40.184	4.0
40.199	7.0
40.214	12.0
40.228	6.0
40.243	2.0
40.258	8.0
40.273	4.0
40.288	3.0
40.302	7.0
40.317	7.0
40.332	8.0
40.347	4.0
40.362	5.0
40.376	4.0
40.391	8.0
40.406	7.0
40.421	10.0
40.436	7.0
40.45	9.0
40.465	7.0
40.48	6.0
40.495	4.0
40.509	8.0
40.524	5.0
40.539	1.0
40.554	4.0
40.568	5.0
40.583	6.0
40.598	8.0
40.613	6.0
40.627	4.0
40.642	6.0
40.657	8.0
40.672	2.0
40.686	8.0
40.701	3.0
40.716	4.0
40.731	4.0
40.745	4.0
40.76	10.0
40.775	5.0
40.79	5.0
40.804	2.0
40.819	6.0
40.834	3.0
40.849	3.0
40.863	9.0
40.878	6.0
40.893	5.0
40.907	8.0
40.922	5.0
40.937	5.0
40.952	7.0
40.966	8.0
40.981	11.0
40.996	5.0
41.011	15.0
41.025	8.0
41.04	11.0
41.055	2.0
41.069	16.0
41.084	14.0
41.099	22.0
41.114	21.0
41.128	26.0
41.143	30.0
41.158	13.0
41.173	17.0
41.187	12.0
41.202	16.0
41.217	15.0
41.231	22.0
41.246	14.0
41.261	11.0
41.276	8.0
41.29	7.0
41.305	6.0
41.32	11.0
41.335	12.0
41.349	11.0
41.364	12.0
41.379	16.0
41.393	13.0
41.408	17.0
41.423	5.0
41.438	9.0
41.452	9.0
41.467	7.0
41.482	7.0
41.497	15.0
41.511	10.0
41.526	8.0
41.541	8.0
41.556	6.0
41.57	12.0
41.585	9.0
41.6	3.0
41.615	5.0
41.629	6.0
41.644	4.0
41.659	6.0
41.674	5.0
41.688	6.0
41.703	4.0
41.718	4.0
41.733	3.0
41.747	7.0
41.762	5.0
41.777	4.0
41.792	5.0
41.806	8.0
41.821	5.0
41.836	10.0
41.851	5.0
41.866	5.0
41.88	6.0
41.895	6.0
41.91	6.0
41.925	3.0
41.939	7.0
41.954	3.0
41.969	6.0
41.984	5.0
41.999	7.0
42.013	5.0
42.028	2.0
42.043	4.0
42.058	4.0
42.073	3.0
42.088	7.0
42.102	4.0
42.117	5.0
42.132	6.0
42.147	7.0
42.162	5.0
42.176	6.0
42.191	1.0
42.206	6.0
42.221	2.0
42.236	9.0
42.251	10.0
42.266	5.0
42.28	9.0
42.295	14.0
42.31	8.0
42.325	9.0
42.34	12.0
42.355	9.0
42.369	11.0
42.384	20.0
42.399	16.0
42.414	14.0
42.429	18.0
42.444	11.0
42.459	13.0
42.474	13.0
42.488	15.0
42.503	6.0
42.518	10.0
42.533	5.0
42.548	11.0
42.563	10.0
42.578	6.0
42.593	11.0
42.608	12.0
42.622	11.0
42.637	16.0
42.652	9.0
42.667	10.0
42.682	10.0
42.697	12.0
42.712	8.0
42.727	8.0
42.742	7.0
42.757	10.0
42.772	7.0
42.786	8.0
42.801	7.0
42.816	7.0
42.831	5.0
42.846	7.0
42.861	3.0
42.876	4.0
42.891	4.0
42.906	6.0
42.921	8.0
42.936	3.0
42.951	6.0
42.966	6.0
42.981	8.0
42.996	6.0
43.011	2.0
43.025	5.0
43.04	4.0
43.055	7.0
43.07	7.0
43.085	10.0
43.1	8.0
43.115	5.0
43.13	4.0
43.145	2.0
43.16	5.0
43.175	4.0
43.19	9.0
43.205	5.0
43.22	3.0
43.235	6.0
43.25	6.0
43.265	7.0
43.28	6.0
43.295	5.0
43.31	8.0
43.325	6.0
43.34	4.0
43.355	3.0
43.37	8.0
43.385	5.0
43.4	3.0
43.415	5.0
43.43	5.0
43.445	2.0
43.46	3.0
43.475	12.0
43.49	9.0
43.505	4.0
43.52	7.0
43.535	6.0
43.55	5.0
43.565	3.0
43.58	6.0
43.595	13.0
43.61	10.0
43.625	13.0
43.64	9.0
43.655	8.0
43.67	7.0
43.685	10.0
43.7	7.0
43.715	12.0
43.73	7.0
43.745	12.0
43.76	8.0
43.775	7.0
43.79	3.0
43.805	5.0
43.82	6.0
43.835	12.0
43.85	3.0
43.865	4.0
43.88	9.0
43.895	11.0
43.91	7.0
43.925	9.0
43.94	9.0
43.955	6.0
43.97	6.0
43.985	6.0
44.0	6.0
44.015	6.0
44.03	11.0
44.045	7.0
44.061	2.0
44.076	7.0
44.091	4.0
44.106	8.0
44.121	3.0
44.136	3.0
44.151	5.0
44.166	6.0
44.181	4.0
44.196	5.0
44.211	6.0
44.226	1.0
44.241	5.0
44.256	8.0
44.271	5.0
44.286	5.0
44.301	4.0
44.316	8.0
44.331	3.0
44.346	4.0
44.361	7.0
44.377	4.0
44.392	10.0
44.407	3.0
44.422	3.0
44.437	5.0
44.452	4.0
44.467	5.0
44.482	5.0
44.497	6.0
44.512	5.0
44.527	3.0
44.542	8.0
44.557	5.0
44.572	5.0
44.587	1.0
44.602	12.0
44.617	3.0
44.632	7.0
44.647	10.0
44.663	7.0
44.678	5.0
44.693	7.0
44.708	9.0
44.723	5.0
44.738	9.0
44.753	15.0
44.768	7.0
44.783	11.0
44.798	15.0
44.813	9.0
44.828	7.0
44.843	7.0
44.858	8.0
44.873	6.0
44.888	11.0
44.903	4.0
44.918	4.0
44.933	7.0
44.948	5.0
44.964	7.0
44.979	7.0
44.994	6.0
45.009	9.0
45.024	12.0
45.039	12.0
45.054	4.0
45.069	7.0
45.084	9.0
45.099	4.0
45.114	5.0
45.129	13.0
45.144	7.0
45.159	9.0
45.174	2.0
45.189	5.0
45.204	3.0
45.219	10.0
45.234	2.0
45.249	3.0
45.264	6.0
45.279	9.0
45.294	7.0
45.309	5.0
45.324	2.0
45.339	4.0
45.354	5.0
45.369	5.0
45.384	3.0
45.399	2.0
45.414	7.0
45.429	6.0
45.444	4.0
45.459	1.0
45.474	4.0
45.489	8.0
45.504	4.0
45.519	4.0
45.534	3.0
45.549	0.0
45.564	7.0
45.579	8.0
45.594	4.0
45.609	4.0
45.624	7.0
45.639	3.0
45.654	9.0
45.669	2.0
45.684	5.0
45.699	5.0
45.714	4.0
45.729	4.0
45.744	5.0
45.759	7.0
45.774	7.0
45.789	5.0
45.804	6.0
45.819	9.0
45.834	6.0
45.849	8.0
45.864	12.0
45.879	11.0
45.894	10.0
45.909	8.0
45.924	11.0
45.939	16.0
45.954	10.0
45.969	22.0
45.984	26.0
45.998	18.0
46.013	7.0
46.028	14.0
46.043	19.0
46.058	16.0
46.073	7.0
46.088	7.0
46.103	8.0
46.118	6.0
46.133	9.0
46.148	6.0
46.163	6.0
46.178	5.0
46.192	12.0
46.207	11.0
46.222	15.0
46.237	12.0
46.252	13.0
46.267	12.0
46.282	9.0
46.297	17.0
46.312	15.0
46.327	14.0
46.341	8.0
46.356	7.0
46.371	5.0
46.386	8.0
46.401	7.0
46.416	6.0
46.431	5.0
46.446	5.0
46.46	4.0
46.475	4.0
46.49	2.0
46.505	4.0
46.52	6.0
46.535	6.0
46.55	2.0
46.564	0.0
46.579	9.0
46.594	10.0
46.609	5.0
46.624	2.0
46.639	4.0
46.654	5.0
46.668	6.0
46.683	5.0
46.698	2.0
46.713	6.0
46.728	10.0
46.743	3.0
46.758	9.0
46.772	6.0
46.787	7.0
46.802	1.0
46.817	6.0
46.832	4.0
46.847	5.0
46.861	4.0
46.876	5.0
46.891	6.0
46.906	5.0
46.921	4.0
46.936	6.0
46.95	1.0
46.965	5.0
46.98	5.0
46.995	4.0
47.01	6.0
47.025	10.0
47.039	10.0
47.054	7.0
47.069	9.0
47.084	5.0
47.099	8.0
47.113	11.0
47.128	7.0
47.143	7.0
47.158	9.0
47.173	14.0
47.188	8.0
47.202	4.0
47.217	8.0
47.232	5.0
47.247	4.0
47.262	5.0
47.277	6.0
47.291	5.0
47.306	5.0
47.321	1.0
47.336	6.0
47.351	5.0
47.365	6.0
47.38	9.0
47.395	6.0
47.41	12.0
47.425	5.0
47.44	1.0
47.454	6.0
47.469	5.0
47.484	10.0
47.499	6.0
47.514	3.0
47.528	9.0
47.543	2.0
47.558	4.0
47.573	4.0
47.588	5.0
47.603	4.0
47.617	5.0
47.632	1.0
47.647	4.0
47.662	9.0
47.677	4.0
47.691	6.0
47.706	4.0
47.721	5.0
47.736	5.0
47.751	2.0
47.766	8.0
47.78	3.0
47.795	5.0
47.81	4.0
47.825	8.0
47.84	2.0
47.855	5.0
47.869	5.0
47.884	6.0
47.899	6.0
47.914	7.0
47.929	6.0
47.944	4.0
47.958	2.0
47.973	2.0
47.988	2.0
48.003	6.0
48.018	7.0
48.033	4.0
48.047	4.0
48.062	1.0
48.077	4.0
48.092	6.0
48.107	5.0
48.122	5.0
48.137	5.0
48.151	5.0
48.166	3.0
48.181	3.0
48.196	6.0
48.211	3.0
48.226	3.0
48.241	6.0
48.255	6.0
48.27	4.0
48.285	5.0
48.3	1.0
48.315	5.0
48.33	5.0
48.345	5.0
48.359	7.0
48.374	7.0
48.389	4.0
48.404	2.0
48.419	2.0
48.434	4.0
48.449	6.0
48.464	6.0
48.478	4.0
48.493	2.0
48.508	7.0
48.523	3.0
48.538	6.0
48.553	4.0
48.568	5.0
48.583	5.0
48.597	3.0
48.612	2.0
48.627	4.0
48.642	3.0
48.657	3.0
48.672	3.0
48.687	3.0
48.702	2.0
48.717	3.0
48.731	1.0
48.746	9.0
48.761	3.0
48.776	4.0
48.791	7.0
48.806	6.0
48.821	5.0
48.836	4.0
48.851	6.0
48.866	5.0
48.88	3.0
48.895	5.0
48.91	2.0
48.925	6.0
48.94	3.0
48.955	4.0
48.97	4.0
48.985	2.0
49.0	3.0
49.015	1.0
49.03	9.0
49.044	3.0
49.059	6.0
49.074	5.0
49.089	2.0
49.104	9.0
49.119	7.0
49.134	1.0
49.149	2.0
49.164	6.0
49.179	4.0
49.194	6.0
49.209	3.0
49.224	6.0
49.238	5.0
49.253	6.0
49.268	5.0
49.283	8.0
49.298	7.0
49.313	6.0
49.328	7.0
49.343	8.0
49.358	10.0
49.373	5.0
49.388	9.0
49.403	7.0
49.418	12.0
49.433	9.0
49.448	5.0
49.463	7.0
49.478	6.0
49.492	5.0
49.507	5.0
49.522	1.0
49.537	4.0
49.552	4.0
49.567	7.0
49.582	4.0
49.597	3.0
49.612	7.0
49.627	7.0
49.642	4.0
49.657	6.0
49.672	5.0
49.687	10.0
49.702	10.0
49.717	4.0
49.732	5.0
49.747	4.0
49.762	6.0
49.777	5.0
49.792	3.0
49.807	9.0
49.822	5.0
49.837	7.0
49.852	4.0
49.867	8.0
49.882	2.0
49.897	4.0
49.912	3.0
49.927	3.0
49.942	3.0
49.957	9.0
49.971	4.0
49.986	6.0
50.001	5.0
50.016	3.0
50.031	2.0
50.046	4.0
50.061	1.0
50.076	4.0
50.091	3.0
50.106	4.0
50.121	3.0
50.136	8.0
50.151	5.0
50.166	4.0
50.181	3.0
50.196	7.0
50.211	6.0
50.226	2.0
50.241	3.0
50.256	7.0
50.271	2.0
50.286	4.0
50.302	8.0
50.317	3.0
50.332	4.0
50.347	3.0
50.362	7.0
50.377	6.0
50.392	5.0
50.407	11.0
50.422	4.0
50.437	6.0
50.452	9.0
50.467	15.0
50.482	8.0
50.497	8.0
50.512	8.0
50.527	7.0
50.542	7.0
50.557	2.0
50.572	5.0
50.587	3.0
50.602	6.0
50.617	3.0
50.632	6.0
50.647	6.0
50.662	1.0
50.677	4.0
50.692	7.0
50.707	6.0
50.722	4.0
50.737	2.0
50.752	11.0
50.767	6.0
50.782	6.0
50.797	9.0
50.812	7.0
50.828	2.0
50.843	7.0
50.858	3.0
50.873	7.0
50.888	3.0
50.903	5.0
50.918	5.0
50.933	3.0
50.948	2.0
50.963	7.0
50.978	1.0
50.993	4.0
51.008	9.0
51.023	6.0
51.038	3.0
51.053	7.0
51.068	6.0
51.083	7.0
51.098	7.0
51.114	4.0
51.129	7.0
51.144	4.0
51.159	3.0
51.174	4.0
51.189	6.0
51.204	2.0
51.219	3.0
51.234	2.0
51.249	7.0
51.264	8.0
51.279	5.0
51.294	7.0
51.309	5.0
51.324	9.0
51.34	5.0
51.355	0.0
51.37	5.0
51.385	5.0
51.4	3.0
51.415	5.0
51.43	6.0
51.445	10.0
51.46	12.0
51.475	17.0
51.49	9.0
51.505	11.0
51.52	13.0
51.535	15.0
51.551	19.0
51.566	19.0
51.581	12.0
51.596	8.0
51.611	13.0
51.626	11.0
51.641	8.0
51.656	11.0
51.671	5.0
51.686	12.0
51.701	4.0
51.716	7.0
51.732	11.0
51.747	15.0
51.762	7.0
51.777	3.0
51.792	9.0
51.807	13.0
51.822	12.0
51.837	11.0
51.852	6.0
51.867	8.0
51.882	9.0
51.898	9.0
51.913	6.0
51.928	10.0
51.943	9.0
51.958	3.0
51.973	4.0
51.988	4.0
52.003	5.0
52.018	3.0
52.033	4.0
52.048	3.0
52.064	4.0
52.079	6.0
52.094	6.0
52.109	7.0
52.124	3.0
52.139	2.0
52.154	11.0
52.169	6.0
52.184	7.0
52.199	5.0
52.215	6.0
52.23	4.0
52.245	4.0
52.26	6.0
52.275	7.0
52.29	3.0
52.305	4.0
52.32	3.0
52.335	1.0
52.35	4.0
52.366	2.0
52.381	4.0
52.396	4.0
52.411	4.0
52.426	5.0
52.441	4.0
52.456	6.0
52.471	8.0
52.486	3.0
52.502	6.0
52.517	12.0
52.532	10.0
52.547	15.0
52.562	8.0
52.577	11.0
52.592	7.0
52.607	7.0
52.622	3.0
52.637	15.0
52.653	5.0
52.668	15.0
52.683	6.0
52.698	7.0
52.713	9.0
52.728	6.0
52.743	9.0
52.758	5.0
52.774	7.0
52.789	3.0
52.804	6.0
52.819	4.0
52.834	4.0
52.849	10.0
52.864	5.0
52.879	7.0
52.894	2.0
52.91	14.0
52.925	4.0
52.94	2.0
52.955	10.0
52.97	8.0
52.985	4.0
53.0	14.0
53.015	12.0
53.031	2.0
53.046	4.0
53.061	2.0
53.076	9.0
53.091	3.0
53.106	3.0
53.121	6.0
53.136	4.0
53.152	4.0
53.167	6.0
53.182	2.0
53.197	8.0
53.212	5.0
53.227	5.0
53.242	9.0
53.257	6.0
53.273	6.0
53.288	5.0
53.303	6.0
53.318	9.0
53.333	3.0
53.348	9.0
53.363	3.0
53.379	4.0
53.394	6.0
53.409	6.0
53.424	3.0
53.439	7.0
53.454	4.0
53.469	7.0
53.484	5.0
53.5	5.0
53.515	4.0
53.53	5.0
53.545	4.0
53.56	4.0
53.575	5.0
53.59	0.0
53.606	4.0
53.621	3.0
53.636	1.0
53.651	6.0
53.666	0.0
53.681	6.0
53.696	2.0
53.712	6.0
53.727	3.0
53.742	4.0
53.757	5.0
53.772	5.0
53.787	6.0
53.802	8.0
53.818	0.0
53.833	8.0
53.848	2.0
53.863	5.0
53.878	4.0
53.893	5.0
53.909	7.0
53.924	3.0
53.939	10.0
53.954	4.0
53.969	4.0
53.984	5.0
53.999	4.0
54.015	3.0
54.03	7.0
54.045	4.0
54.06	5.0
54.075	2.0
54.09	6.0
54.106	12.0
54.121	5.0
54.136	5.0
54.151	3.0
54.166	4.0
54.181	6.0
54.197	5.0
54.212	3.0
54.227	4.0
54.242	3.0
54.257	5.0
54.272	6.0
54.288	3.0
54.303	3.0
54.318	1.0
54.333	0.0
54.348	3.0
54.363	4.0
54.379	2.0
54.394	3.0
54.409	3.0
54.424	5.0
54.439	5.0
54.454	9.0
54.47	5.0
54.485	6.0
54.5	6.0
54.515	6.0
54.53	7.0
54.545	6.0
54.561	7.0
54.576	9.0
54.591	9.0
54.606	4.0
54.621	10.0
54.636	11.0
54.652	13.0
54.667	10.0
54.682	5.0
54.697	19.0
54.712	10.0
54.727	12.0
54.743	11.0
54.758	5.0
54.773	4.0
54.788	7.0
54.803	8.0
54.819	6.0
54.834	3.0
54.849	7.0
54.864	5.0
54.879	6.0
54.894	7.0
54.91	5.0
54.925	7.0
54.94	7.0
54.955	10.0
54.97	8.0
54.985	6.0
55.001	10.0
55.016	10.0
55.031	8.0
55.046	8.0
55.061	11.0
55.077	4.0
55.092	7.0
55.107	6.0
55.122	6.0
55.137	4.0
55.152	4.0
55.168	7.0
55.183	9.0
55.198	8.0
55.213	8.0
55.228	4.0
55.243	7.0
55.259	5.0
55.274	8.0
55.289	5.0
55.304	2.0
55.319	0.0
55.335	4.0
55.35	6.0
55.365	2.0
55.38	0.0
55.395	2.0
55.41	6.0
55.426	5.0
55.441	1.0
55.456	3.0
55.471	3.0
55.486	3.0
55.501	4.0
55.517	5.0
55.532	6.0
55.547	9.0
55.562	4.0
55.577	8.0
55.592	7.0
55.608	5.0
55.623	3.0
55.638	5.0
55.653	14.0
55.668	6.0
55.683	7.0
55.699	6.0
55.714	10.0
55.729	8.0
55.744	6.0
55.759	6.0
55.774	8.0
55.79	5.0
55.805	6.0
55.82	7.0
55.835	3.0
55.85	2.0
55.865	4.0
55.881	5.0
55.896	4.0
55.911	3.0
55.926	3.0
55.941	6.0
55.956	7.0
55.972	4.0
55.987	7.0
56.002	5.0
56.017	9.0
56.032	6.0
56.047	7.0
56.063	9.0
56.078	7.0
56.093	5.0
56.108	5.0
56.123	2.0
56.138	5.0
56.154	1.0
56.169	7.0
56.184	0.0
56.199	8.0
56.214	3.0
56.229	6.0
56.244	5.0
56.26	9.0
56.275	5.0
56.29	5.0
56.305	2.0
56.32	3.0
56.335	5.0
56.351	6.0
56.366	2.0
56.381	4.0
56.396	6.0
56.411	2.0
56.426	0.0
56.441	5.0
56.457	3.0
56.472	6.0
56.487	3.0
56.502	2.0
56.517	2.0
56.532	2.0
56.547	10.0
56.563	5.0
56.578	5.0
56.593	3.0
56.608	6.0
56.623	5.0
56.638	2.0
56.653	3.0
56.668	6.0
56.684	3.0
56.699	3.0
56.714	4.0
56.729	3.0
56.744	5.0
56.759	5.0
56.774	5.0
56.79	4.0
56.805	5.0
56.82	3.0
56.835	3.0
56.85	2.0
56.865	5.0
56.88	2.0
56.895	2.0
56.911	8.0
56.926	2.0
56.941	6.0
56.956	1.0
56.971	1.0
56.986	5.0
57.001	3.0
57.016	5.0
57.031	4.0
57.047	9.0
57.062	4.0
57.077	2.0
57.092	1.0
57.107	2.0
57.122	3.0
57.137	3.0
57.152	6.0
57.167	5.0
57.183	1.0
57.198	4.0
57.213	2.0
57.228	5.0
57.243	6.0
57.258	6.0
57.273	6.0
57.288	6.0
57.303	2.0
57.318	1.0
57.334	6.0
57.349	7.0
57.364	3.0
57.379	5.0
57.394	3.0
57.409	7.0
57.424	0.0
57.439	2.0
57.454	4.0
57.469	4.0
57.484	4.0
57.5	0.0
57.515	2.0
57.53	2.0
57.545	4.0
57.56	5.0
57.575	2.0
57.59	5.0
57.605	2.0
57.62	6.0
57.635	9.0
57.65	5.0
57.665	7.0
57.68	5.0
57.696	3.0
57.711	8.0
57.726	5.0
57.741	8.0
57.756	6.0
57.771	8.0
57.786	3.0
57.801	7.0
57.816	1.0
57.831	3.0
57.846	4.0
57.861	6.0
57.876	2.0
57.891	4.0
57.906	2.0
57.921	2.0
57.937	1.0
57.952	3.0
57.967	3.0
57.982	5.0
57.997	2.0
58.012	3.0
58.027	2.0
58.042	3.0
58.057	3.0
58.072	3.0
58.087	5.0
58.102	6.0
58.117	2.0
58.132	7.0
58.147	6.0
58.162	4.0
58.177	5.0
58.192	1.0
58.207	3.0
58.222	3.0
58.237	2.0
58.252	2.0
58.267	3.0
58.282	5.0
58.297	2.0
58.312	6.0
58.327	1.0
58.342	1.0
58.357	7.0
58.372	1.0
58.387	4.0
58.402	3.0
58.418	2.0
58.433	4.0
58.448	9.0
58.463	0.0
58.478	7.0
58.493	3.0
58.508	4.0
58.523	9.0
58.538	14.0
58.553	3.0
58.568	9.0
58.583	4.0
58.598	8.0
58.613	9.0
58.628	8.0
58.643	3.0
58.658	10.0
58.673	8.0
58.688	9.0
58.703	9.0
58.718	9.0
58.733	7.0
58.748	7.0
58.763	5.0
58.778	8.0
58.793	4.0
58.808	7.0
58.823	4.0
58.838	1.0
58.853	6.0
58.868	9.0
58.883	6.0
58.898	5.0
58.913	1.0
58.928	8.0
58.942	7.0
58.957	6.0
58.972	2.0
58.987	4.0
59.002	5.0
59.017	5.0
59.032	3.0
59.047	9.0
59.062	9.0
59.077	7.0
59.092	3.0
59.107	3.0
59.122	5.0
59.137	3.0
59.152	1.0
59.167	4.0
59.182	2.0
59.197	2.0
59.212	6.0
59.227	5.0
59.242	3.0
59.257	3.0
59.272	3.0
59.287	8.0
59.302	3.0
59.317	2.0
59.332	6.0
59.347	7.0
59.362	3.0
59.377	4.0
59.392	9.0
59.407	5.0
59.422	4.0
59.437	6.0
59.452	5.0
59.467	5.0
59.482	4.0
59.497	6.0
59.512	10.0
59.527	8.0
59.542	5.0
59.557	5.0
59.572	7.0
59.587	8.0
59.602	10.0
59.617	5.0
59.632	10.0
59.647	6.0
59.661	12.0
59.676	9.0
59.691	6.0
59.706	7.0
59.721	5.0
59.736	8.0
59.751	7.0
59.766	6.0
59.781	6.0
59.796	5.0
59.811	5.0
59.826	6.0
59.841	3.0
59.856	6.0
59.871	4.0
59.886	6.0
59.901	6.0
59.916	4.0
59.931	4.0
59.946	3.0
59.961	9.0
59.976	9.0
59.991	6.0
60.006	5.0
60.021	8.0
60.036	7.0
60.051	3.0
60.066	5.0
60.081	8.0
60.096	3.0
60.111	3.0
60.126	6.0
60.141	4.0
60.156	4.0
60.171	5.0
60.186	6.0
60.201	6.0
60.216	5.0
60.231	3.0
60.246	9.0
60.261	3.0
60.276	3.0
60.291	2.0
60.306	1.0
60.321	4.0
60.336	3.0
60.35	1.0
60.365	3.0
60.38	1.0
60.395	0.0
60.41	7.0
60.425	3.0
60.44	4.0
60.455	7.0
60.47	6.0
60.485	4.0
60.5	10.0
60.515	11.0
60.53	7.0
60.545	9.0
60.56	7.0
60.575	9.0
60.59	4.0
60.605	6.0
60.62	10.0
60.635	6.0
60.65	5.0
60.665	4.0
60.68	5.0
60.695	2.0
60.71	4.0
60.725	3.0
60.74	1.0
60.755	7.0
60.77	5.0
60.785	5.0
60.8	4.0
60.815	4.0
60.83	3.0
60.845	3.0
60.86	4.0
60.875	5.0
60.89	5.0
60.905	6.0
60.92	4.0
60.935	7.0
60.95	5.0
60.965	4.0
60.98	6.0
60.995	0.0
61.01	3.0
61.025	5.0
61.04	5.0
61.055	5.0
61.07	4.0
61.085	3.0
61.1	5.0
61.115	3.0
61.13	4.0
61.145	1.0
61.16	8.0
61.175	1.0
61.191	3.0
61.206	5.0
61.221	5.0
61.236	6.0
61.251	3.0
61.266	1.0
61.281	6.0
61.296	3.0
61.311	4.0
61.326	2.0
61.341	2.0
61.356	5.0
61.371	3.0
61.386	2.0
61.401	5.0
61.416	8.0
61.431	2.0
61.446	3.0
61.461	3.0
61.476	3.0
61.491	3.0
61.506	8.0
61.521	7.0
61.536	6.0
61.551	4.0
61.566	8.0
61.581	4.0
61.596	6.0
61.611	3.0
61.626	3.0
61.641	5.0
61.656	6.0
61.672	5.0
61.687	4.0
61.702	4.0
61.717	5.0
61.732	4.0
61.747	4.0
61.762	2.0
61.777	5.0
61.792	1.0
61.807	9.0
61.822	4.0
61.837	2.0
61.852	0.0
61.867	4.0
61.882	2.0
61.897	2.0
61.912	8.0
61.927	6.0
61.943	6.0
61.958	6.0
61.973	7.0
61.988	8.0
62.003	5.0
62.018	4.0
62.033	3.0
62.048	1.0
62.063	3.0
62.078	4.0
62.093	1.0
62.108	6.0
62.123	1.0
62.138	2.0
62.153	4.0
62.169	5.0
62.184	6.0
62.199	1.0
62.214	5.0
62.229	4.0
62.244	2.0
62.259	1.0
62.274	1.0
62.289	7.0
62.304	1.0
62.319	1.0
62.335	3.0
62.35	6.0
62.365	5.0
62.38	6.0
62.395	4.0
62.41	3.0
62.425	5.0
62.44	2.0
62.455	2.0
62.47	4.0
62.485	4.0
62.501	2.0
62.516	6.0
62.531	5.0
62.546	5.0
62.561	4.0
62.576	3.0
62.591	2.0
62.606	5.0
62.621	4.0
62.636	5.0
62.652	2.0
62.667	2.0
62.682	3.0
62.697	2.0
62.712	8.0
62.727	5.0
62.742	2.0
62.757	3.0
62.772	3.0
62.787	3.0
62.803	5.0
62.818	6.0
62.833	4.0
62.848	0.0
62.863	8.0
62.878	6.0
62.893	4.0
62.908	1.0
62.923	4.0
62.939	1.0
62.954	2.0
62.969	0.0
62.984	4.0
62.999	1.0
63.014	1.0
63.029	2.0
63.044	4.0
63.059	1.0
63.074	6.0
63.09	2.0
63.105	2.0
63.12	3.0
63.135	3.0
63.15	7.0
63.165	3.0
63.18	4.0
63.195	1.0
63.21	3.0
63.226	3.0
63.241	1.0
63.256	6.0
63.271	4.0
63.286	3.0
63.301	4.0
63.316	5.0
63.331	6.0
63.346	1.0
63.362	7.0
63.377	11.0
63.392	5.0
63.407	5.0
63.422	10.0
63.437	13.0
63.452	9.0
63.467	8.0
63.482	4.0
63.497	7.0
63.513	6.0
63.528	8.0
63.543	4.0
63.558	5.0
63.573	0.0
63.588	3.0
63.603	2.0
63.618	3.0
63.633	1.0
63.648	1.0
63.664	4.0
63.679	4.0
63.694	2.0
63.709	5.0
63.724	8.0
63.739	4.0
63.754	3.0
63.769	4.0
63.784	5.0
63.799	3.0
63.814	6.0
63.83	3.0
63.845	4.0
63.86	6.0
63.875	3.0
63.89	4.0
63.905	8.0
63.92	5.0
63.935	8.0
63.95	4.0
63.965	3.0
63.98	4.0
63.996	6.0
64.011	5.0
64.026	6.0
64.041	2.0
64.056	4.0
64.071	3.0
64.086	1.0
64.101	3.0
64.116	4.0
64.131	3.0
64.146	5.0
64.161	1.0
64.176	3.0
64.191	4.0
64.207	2.0
64.222	4.0
64.237	2.0
64.252	5.0
64.267	3.0
64.282	6.0
64.297	6.0
64.312	4.0
64.327	4.0
64.342	5.0
64.357	1.0
64.372	6.0
64.387	3.0
64.402	4.0
64.417	4.0
64.433	1.0
64.448	5.0
64.463	5.0
64.478	2.0
64.493	3.0
64.508	4.0
64.523	2.0
64.538	8.0
64.553	6.0
64.568	4.0
64.583	3.0
64.598	4.0
64.613	4.0
64.628	5.0
64.643	3.0
64.658	5.0
64.673	7.0
64.688	4.0
64.703	6.0
64.718	0.0
64.734	5.0
64.749	1.0
64.764	2.0
64.779	3.0
64.794	2.0
64.809	2.0
64.824	2.0
64.839	3.0
64.854	5.0
64.869	8.0
64.884	3.0
64.899	2.0
64.914	4.0
64.929	2.0
64.944	7.0
64.959	6.0
64.974	5.0
64.989	4.0
65.004	3.0
65.019	3.0
65.034	4.0
65.049	5.0
65.064	7.0
65.079	6.0
65.094	0.0
65.109	2.0
65.125	1.0
65.14	2.0
65.155	8.0
65.17	3.0
65.185	8.0
65.2	6.0
65.215	8.0
65.23	1.0
65.245	2.0
65.26	6.0
65.275	5.0
65.29	3.0
65.305	2.0
65.32	4.0
65.335	4.0
65.35	4.0
65.365	6.0
65.38	5.0
65.395	1.0
65.41	2.0
65.425	3.0
65.44	0.0
65.455	3.0
65.47	3.0
65.485	2.0
65.5	5.0
65.515	7.0
65.53	4.0
65.545	4.0
65.56	5.0
65.575	8.0
65.59	2.0
65.605	3.0
65.62	4.0
65.635	3.0
65.65	3.0
65.666	4.0
65.681	1.0
65.696	3.0
65.711	2.0
65.726	4.0
65.741	4.0
65.756	4.0
65.771	7.0
65.786	2.0
65.801	2.0
65.816	5.0
65.831	2.0
65.846	4.0
65.861	2.0
65.876	2.0
65.891	3.0
65.906	3.0
65.921	3.0
65.936	1.0
65.951	3.0
65.966	3.0
65.981	5.0
65.996	3.0
66.011	7.0
66.026	0.0
66.041	3.0
66.056	1.0
66.071	5.0
66.086	5.0
66.101	9.0
66.116	3.0
66.131	9.0
66.146	6.0
66.161	7.0
66.176	5.0
66.191	11.0
66.206	8.0
66.221	12.0
66.236	8.0
66.251	6.0
66.266	6.0
66.281	3.0
66.296	4.0
66.311	9.0
66.327	6.0
66.342	4.0
66.357	4.0
66.372	5.0
66.387	2.0
66.402	7.0
66.417	3.0
66.432	4.0
66.447	6.0
66.462	4.0
66.477	4.0
66.492	5.0
66.507	3.0
66.522	4.0
66.537	5.0
66.552	5.0
66.567	5.0
66.582	3.0
66.597	4.0
66.612	5.0
66.627	7.0
66.642	2.0
66.657	7.0
66.672	4.0
66.687	9.0
66.702	4.0
66.717	4.0
66.732	2.0
66.747	4.0
66.762	4.0
66.777	6.0
66.792	4.0
66.807	1.0
66.822	7.0
66.837	6.0
66.853	1.0
66.868	2.0
66.883	2.0
66.898	3.0
66.913	2.0
66.928	1.0
66.943	2.0
66.958	3.0
66.973	3.0
66.988	3.0
67.003	3.0
67.018	8.0
67.033	4.0
67.048	5.0
67.063	5.0
67.078	6.0
67.093	7.0
67.108	3.0
67.123	5.0
67.138	1.0
67.153	5.0
67.168	2.0
67.183	3.0
67.198	5.0
67.214	2.0
67.229	5.0
67.244	6.0
67.259	1.0
67.274	8.0
67.289	2.0
67.304	6.0
67.319	2.0
67.334	5.0
67.349	2.0
67.364	1.0
67.379	2.0
67.394	4.0
67.409	5.0
67.424	5.0
67.439	5.0
67.454	4.0
67.469	4.0
67.484	7.0
67.5	1.0
67.515	3.0
67.53	1.0
67.545	6.0
67.56	4.0
67.575	2.0
67.59	1.0
67.605	6.0
67.62	4.0
67.635	4.0
67.65	5.0
67.665	0.0
67.68	3.0
67.695	3.0
67.71	3.0
67.726	5.0
67.741	5.0
67.756	6.0
67.771	2.0
67.786	5.0
67.801	6.0
67.816	5.0
67.831	2.0
67.846	3.0
67.861	3.0
67.876	1.0
67.891	7.0
67.906	7.0
67.922	3.0
67.937	6.0
67.952	2.0
67.967	3.0
67.982	1.0
67.997	4.0
68.012	7.0
68.027	0.0
68.042	4.0
68.057	5.0
68.072	5.0
68.087	6.0
68.103	4.0
68.118	1.0
68.133	3.0
68.148	3.0
68.163	2.0
68.178	4.0
68.193	2.0
68.208	2.0
68.223	4.0
68.238	2.0
68.254	3.0
68.269	2.0
68.284	2.0
68.299	2.0
68.314	4.0
68.329	4.0
68.344	2.0
68.359	2.0
68.374	4.0
68.389	4.0
68.405	2.0
68.42	1.0
68.435	1.0
68.45	2.0
68.465	3.0
68.48	0.0
68.495	4.0
68.51	2.0
68.525	0.0
68.54	3.0
68.556	5.0
68.571	4.0
68.586	2.0
68.601	4.0
68.616	4.0
68.631	2.0
68.646	4.0
68.661	3.0
68.676	6.0
68.691	0.0
68.707	5.0
68.722	2.0
68.737	3.0
68.752	1.0
68.767	1.0
68.782	3.0
68.797	0.0
68.812	5.0
68.827	4.0
68.842	4.0
68.857	2.0
68.873	4.0
68.888	3.0
68.903	4.0
68.918	4.0
68.933	3.0
68.948	6.0
68.963	5.0
68.978	2.0
68.993	1.0
69.008	2.0
69.023	3.0
69.038	8.0
69.054	6.0
69.069	4.0
69.084	2.0
69.099	4.0
69.114	5.0
69.129	4.0
69.144	4.0
69.159	5.0
69.174	2.0
69.189	2.0
69.204	2.0
69.219	1.0
69.234	0.0
69.249	1.0
69.264	4.0
69.279	2.0
69.295	4.0
69.31	2.0
69.325	2.0
69.34	6.0
69.355	5.0
69.37	2.0
69.385	8.0
69.4	5.0
69.415	3.0
69.43	4.0
69.445	3.0
69.46	2.0
69.475	11.0
69.49	3.0
69.505	2.0
69.52	4.0
69.535	3.0
69.55	5.0
69.565	4.0
69.58	3.0
69.595	1.0
69.61	2.0
69.625	3.0
69.64	1.0
69.655	4.0
69.67	6.0
69.685	5.0
69.7	6.0
69.715	7.0
69.73	6.0
69.745	5.0
69.76	6.0
69.775	5.0
69.79	4.0
69.805	12.0
69.82	7.0
69.835	12.0
69.85	10.0
69.865	3.0
69.88	5.0
69.895	5.0
69.909	2.0
69.924	3.0
69.939	4.0
69.954	3.0
69.969	4.0
69.984	2.0
69.999	2.0
70.014	3.0
70.029	6.0
70.044	4.0
70.059	3.0
70.074	4.0
70.088	2.0
70.103	5.0
70.118	5.0
70.133	3.0
70.148	3.0
70.163	2.0
70.178	4.0
70.193	2.0
70.208	3.0
70.222	5.0
70.237	5.0
70.252	8.0
70.267	3.0
70.282	2.0
70.297	5.0
70.312	7.0
70.327	6.0
70.341	5.0
70.356	4.0
70.371	4.0
70.386	3.0
70.401	4.0
70.416	4.0
70.43	2.0
70.445	1.0
70.46	5.0
70.475	4.0
70.49	8.0
70.505	2.0
70.519	1.0
70.534	6.0
70.549	4.0
70.564	6.0
70.579	2.0
70.594	3.0
70.608	4.0
70.623	9.0
70.638	6.0
70.653	4.0
70.668	8.0
70.683	4.0
70.697	6.0
70.712	4.0
70.727	6.0
70.742	4.0
70.757	5.0
70.771	4.0
70.786	1.0
70.801	8.0
70.816	3.0
70.831	6.0
70.845	2.0
70.86	1.0
70.875	5.0
70.89	2.0
70.905	5.0
70.92	2.0
70.934	3.0
70.949	3.0
70.964	7.0
70.979	3.0
70.994	3.0
71.008	3.0
71.023	4.0
71.038	6.0
71.053	2.0
71.068	4.0
71.082	4.0
71.097	6.0
71.112	5.0
71.127	7.0
71.142	9.0
71.156	4.0
71.171	4.0
71.186	7.0
71.201	6.0
71.216	6.0
71.231	5.0
71.245	2.0
71.26	2.0
71.275	2.0
71.29	5.0
71.305	1.0
71.319	4.0
71.334	4.0
71.349	1.0
71.364	3.0
71.379	2.0
71.394	4.0
71.408	6.0
71.423	2.0
71.438	4.0
71.453	2.0
71.468	8.0
71.483	3.0
71.497	5.0
71.512	1.0
71.527	3.0
71.542	3.0
71.557	2.0
71.572	8.0
71.586	6.0
71.601	0.0
71.616	2.0
71.631	3.0
71.646	4.0
71.661	1.0
71.676	2.0
71.69	2.0
71.705	5.0
71.72	3.0
71.735	2.0
71.75	3.0
71.765	2.0
71.78	0.0
71.795	3.0
71.81	2.0
71.824	6.0
71.839	1.0
71.854	4.0
71.869	4.0
71.884	3.0
71.899	3.0
71.914	2.0
71.929	2.0
71.944	1.0
71.959	4.0
71.974	4.0
71.988	4.0
72.003	2.0
72.018	2.0
72.033	1.0
72.048	1.0
72.063	2.0
72.078	1.0
72.093	4.0
72.108	4.0
72.123	4.0
72.138	1.0
72.153	2.0
72.168	2.0
72.183	3.0
72.198	4.0
72.213	0.0
72.228	3.0
72.243	3.0
72.258	3.0
72.273	2.0
72.288	3.0
72.303	1.0
72.318	4.0
72.333	2.0
72.348	2.0
72.363	2.0
72.378	2.0
72.393	0.0
72.408	5.0
72.423	3.0
72.438	4.0
72.453	3.0
72.468	2.0
72.483	3.0
72.498	2.0
72.513	3.0
72.528	4.0
72.543	4.0
72.558	1.0
72.573	2.0
72.588	4.0
72.603	7.0
72.618	1.0
72.633	4.0
72.649	4.0
72.664	5.0
72.679	4.0
72.694	5.0
72.709	9.0
72.724	1.0
72.739	2.0
72.754	3.0
72.769	3.0
72.784	3.0
72.799	5.0
72.814	5.0
72.829	3.0
72.845	4.0
72.86	2.0
72.875	4.0
72.89	2.0
72.905	3.0
72.92	5.0
72.935	5.0
72.95	3.0
72.965	3.0
72.98	0.0
72.996	3.0
73.011	5.0
73.026	0.0
73.041	4.0
73.056	0.0
73.071	4.0
73.086	2.0
73.101	3.0
73.117	1.0
73.132	4.0
73.147	3.0
73.162	3.0
73.177	6.0
73.192	7.0
73.207	9.0
73.222	6.0
73.238	5.0
73.253	6.0
73.268	4.0
73.283	2.0
73.298	7.0
73.313	6.0
73.328	4.0
73.343	1.0
73.359	5.0
73.374	5.0
73.389	3.0
73.404	5.0
73.419	2.0
73.434	1.0
73.449	4.0
73.465	4.0
73.48	4.0
73.495	1.0
73.51	3.0
73.525	1.0
73.54	6.0
73.556	3.0
73.571	2.0
73.586	1.0
73.601	2.0
73.616	2.0
73.631	3.0
73.646	4.0
73.662	1.0
73.677	2.0
73.692	2.0
73.707	2.0
73.722	4.0
73.737	4.0
73.752	4.0
73.768	3.0
73.783	5.0
73.798	4.0
73.813	4.0
73.828	1.0
73.843	3.0
73.859	5.0
73.874	4.0
73.889	2.0
73.904	3.0
73.919	5.0
73.934	4.0
73.949	3.0
73.965	3.0
73.98	6.0
73.995	6.0
74.01	2.0
74.025	4.0
74.04	4.0
74.056	6.0
74.071	5.0
74.086	5.0
74.101	2.0
74.116	4.0
74.131	9.0
74.146	4.0
74.162	2.0
74.177	6.0
74.192	7.0
74.207	4.0
74.222	3.0
74.237	6.0
74.252	1.0
74.268	8.0
74.283	3.0
74.298	3.0
74.313	3.0
74.328	6.0
74.343	3.0
74.358	1.0
74.374	3.0
74.389	2.0
74.404	4.0
74.419	3.0
74.434	1.0
74.449	3.0
74.464	5.0
74.48	4.0
74.495	0.0
74.51	1.0
74.525	1.0
74.54	3.0
74.555	3.0
74.57	2.0
74.586	7.0
74.601	7.0
74.616	6.0
74.631	2.0
74.646	3.0
74.661	4.0
74.676	9.0
74.691	4.0
74.707	8.0
74.722	2.0
74.737	4.0
74.752	4.0
74.767	2.0
74.782	4.0
74.797	5.0
74.813	3.0
74.828	6.0
74.843	4.0
74.858	4.0
74.873	2.0
74.888	4.0
74.903	2.0
74.918	3.0
74.934	4.0
74.949	2.0
74.964	3.0
74.979	5.0
74.994	5.0
75.009	6.0
75.024	2.0
75.04	3.0
75.055	6.0
75.07	2.0
75.085	3.0
75.1	6.0
75.115	5.0
75.13	3.0
75.145	4.0
75.161	8.0
75.176	2.0
75.191	1.0
75.206	3.0
75.221	1.0
75.236	2.0
75.251	5.0
75.266	3.0
75.282	6.0
75.297	3.0
75.312	2.0
75.327	4.0
75.342	2.0
75.357	2.0
75.372	4.0
75.387	3.0
75.403	2.0
75.418	2.0
75.433	2.0
75.448	4.0
75.463	1.0
75.478	3.0
75.493	2.0
75.509	3.0
75.524	4.0
75.539	2.0
75.554	3.0
75.569	1.0
75.584	4.0
75.599	4.0
75.614	4.0
75.63	6.0
75.645	6.0
75.66	2.0
75.675	1.0
75.69	3.0
75.705	4.0
75.72	7.0
75.735	4.0
75.751	3.0
75.766	0.0
75.781	3.0
75.796	4.0
75.811	2.0
75.826	4.0
75.841	7.0
75.856	1.0
75.872	6.0
75.887	2.0
75.902	6.0
75.917	7.0
75.932	2.0
75.947	2.0
75.962	1.0
75.977	5.0
75.993	1.0
76.008	3.0
76.023	5.0
76.038	4.0
76.053	1.0
76.068	3.0
76.083	4.0
76.098	3.0
76.114	5.0
76.129	2.0
76.144	3.0
76.159	1.0
76.174	2.0
76.189	3.0
76.204	4.0
76.22	2.0
76.235	3.0
76.25	3.0
76.265	6.0
76.28	1.0
76.295	3.0
76.31	7.0
76.325	1.0
76.341	6.0
76.356	2.0
76.371	2.0
76.386	3.0
76.401	6.0
76.416	1.0
76.431	3.0
76.446	4.0
76.462	8.0
76.477	2.0
76.492	0.0
76.507	3.0
76.522	2.0
76.537	2.0
76.552	0.0
76.567	2.0
76.583	5.0
76.598	3.0
76.613	3.0
76.628	1.0
76.643	3.0
76.658	5.0
76.673	3.0
76.688	4.0
76.704	2.0
76.719	5.0
76.734	6.0
76.749	10.0
76.764	4.0
76.779	3.0
76.794	7.0
76.809	3.0
76.824	2.0
76.84	3.0
76.855	5.0
76.87	5.0
76.885	5.0
76.9	4.0
76.915	2.0
76.93	2.0
76.945	3.0
76.96	1.0
76.976	3.0
76.991	4.0
77.006	1.0
77.021	6.0
77.036	2.0
77.051	2.0
77.066	4.0
77.081	0.0
77.096	4.0
77.112	4.0
77.127	1.0
77.142	6.0
77.157	4.0
77.172	1.0
77.187	6.0
77.202	3.0
77.217	3.0
77.232	4.0
77.247	2.0
77.263	6.0
77.278	4.0
77.293	5.0
77.308	2.0
77.323	1.0
77.338	6.0
77.353	3.0
77.368	2.0
77.383	2.0
77.398	3.0
77.413	4.0
77.428	1.0
77.444	0.0
77.459	4.0
77.474	3.0
77.489	2.0
77.504	7.0
77.519	5.0
77.534	5.0
77.549	9.0
77.564	5.0
77.579	2.0
77.594	4.0
77.609	6.0
77.624	6.0
77.64	1.0
77.655	5.0
77.67	5.0
77.685	5.0
77.7	1.0
77.715	2.0
77.73	2.0
77.745	6.0
77.76	2.0
77.775	3.0
77.79	5.0
77.805	5.0
77.82	3.0
77.835	5.0
77.85	2.0
77.865	2.0
77.88	0.0
77.895	3.0
77.91	1.0
77.926	5.0
77.941	4.0
77.956	1.0
77.971	5.0
77.986	4.0
78.001	6.0
78.016	4.0
78.031	3.0
78.046	0.0
78.061	2.0
78.076	2.0
78.091	3.0
78.106	1.0
78.121	3.0
78.136	5.0
78.151	2.0
78.166	4.0
78.181	5.0
78.196	4.0
78.211	6.0
78.226	1.0
78.241	7.0
78.256	4.0
78.271	3.0
78.286	2.0
78.301	4.0
78.316	4.0
78.331	3.0
78.346	1.0
78.361	0.0
78.376	1.0
78.391	1.0
78.406	4.0
78.421	7.0
78.436	4.0
78.451	6.0
78.466	2.0
78.481	1.0
78.496	4.0
78.511	5.0
78.526	1.0
78.541	1.0
78.556	3.0
78.571	5.0
78.586	4.0
78.601	1.0
78.616	6.0
78.631	1.0
78.646	5.0
78.661	5.0
78.676	3.0
78.691	4.0
78.706	5.0
78.721	2.0
78.736	2.0
78.751	4.0
78.766	6.0
78.781	4.0
78.796	5.0
78.811	2.0
78.826	5.0
78.841	4.0
78.856	5.0
78.871	5.0
78.885	3.0
78.9	0.0
78.915	5.0
78.93	3.0
78.945	1.0
78.96	4.0
78.975	4.0
78.99	1.0
79.005	2.0
79.02	2.0
79.035	5.0
79.05	3.0
79.065	4.0
79.08	3.0
79.095	3.0
79.11	3.0
79.125	3.0
79.14	3.0
79.155	0.0
79.17	3.0
79.185	4.0
79.2	3.0
79.215	3.0
79.23	3.0
79.245	2.0
79.26	8.0
79.275	2.0
79.29	4.0
79.304	2.0
79.319	1.0
79.334	3.0
79.349	7.0
79.364	5.0
79.379	7.0
79.394	3.0
79.409	4.0
79.424	5.0
79.439	5.0
79.454	2.0
79.469	5.0
79.484	2.0
79.499	1.0
79.514	2.0
79.529	6.0
79.544	2.0
79.559	4.0
79.574	4.0
79.589	4.0
79.604	1.0
79.619	0.0
79.634	2.0
79.649	1.0
79.664	5.0
79.679	3.0
79.693	4.0
79.708	1.0
79.723	5.0
79.738	4.0
79.753	3.0
79.768	2.0
79.783	1.0
79.798	2.0
79.813	4.0
79.828	1.0
79.843	3.0
79.858	2.0
79.873	3.0
79.888	5.0
79.903	2.0
79.918	3.0
79.933	2.0
79.948	4.0
79.963	0.0
79.978	6.0
79.993	3.0
80.008	2.0
80.023	3.0
80.038	8.0
80.053	4.0
80.068	1.0
80.083	2.0
80.098	3.0
80.113	2.0
80.128	2.0
80.143	1.0
80.158	1.0
80.173	6.0
80.188	5.0
80.202	3.0
80.217	4.0
80.232	3.0
80.247	4.0
80.262	6.0
80.277	0.0
80.292	4.0
80.307	3.0
80.322	0.0
80.337	4.0
80.352	3.0
80.367	3.0
80.382	1.0
80.397	4.0
80.412	2.0
80.427	3.0
80.442	4.0
80.457	0.0
80.472	3.0
80.487	3.0
80.502	3.0
80.517	2.0
80.532	4.0
80.547	1.0
80.562	1.0
80.577	3.0
80.592	1.0
80.607	3.0
80.622	6.0
80.637	6.0
80.652	5.0
80.667	8.0
80.682	1.0
80.697	2.0
80.712	2.0
80.727	3.0
80.742	1.0
80.757	1.0
80.772	4.0
80.787	3.0
80.802	5.0
80.817	4.0
80.832	5.0
80.847	0.0
80.862	3.0
80.877	2.0
80.892	2.0
80.907	2.0
80.922	3.0
80.937	3.0
80.952	0.0
80.967	2.0
80.982	3.0
80.997	3.0
81.012	3.0
81.027	2.0
81.042	6.0
81.057	5.0
81.072	4.0
81.087	3.0
81.101	7.0
81.116	2.0
81.131	6.0
81.146	6.0
81.161	2.0
81.176	1.0
81.191	3.0
81.206	6.0
81.221	2.0
81.236	1.0
81.251	1.0
81.266	1.0
81.281	1.0
81.296	3.0
81.311	2.0
81.326	3.0
81.341	4.0
81.356	2.0
81.371	6.0
81.386	1.0
81.401	4.0
81.416	5.0
81.431	3.0
81.446	2.0
81.461	2.0
81.476	3.0
81.491	2.0
81.506	2.0
81.521	3.0
81.536	5.0
81.55	2.0
81.565	3.0
81.58	2.0
81.595	2.0
81.61	3.0
81.625	5.0
81.64	3.0
81.655	3.0
81.67	2.0
81.685	1.0
81.7	4.0
81.715	2.0
81.73	2.0
81.745	1.0
81.76	3.0
81.775	5.0
81.79	5.0
81.805	2.0
81.819	1.0
81.834	2.0
81.849	9.0
81.864	5.0
81.879	3.0
81.894	5.0
81.909	5.0
81.924	5.0
81.939	2.0
81.954	1.0
81.969	4.0
81.984	5.0
81.999	4.0
82.013	4.0
82.028	3.0
82.043	2.0
82.058	3.0
82.073	2.0
82.088	3.0
82.103	1.0
82.118	4.0
82.133	5.0
82.148	3.0
82.163	1.0
82.177	1.0
82.192	3.0
82.207	5.0
82.222	1.0
82.237	3.0
82.252	4.0
82.267	3.0
82.282	6.0
82.297	5.0
82.312	5.0
82.326	0.0
82.341	3.0
82.356	4.0
82.371	5.0
82.386	3.0
82.401	4.0
82.416	2.0
82.431	4.0
82.445	4.0
82.46	2.0
82.475	2.0
82.49	8.0
82.505	0.0
82.52	6.0
82.535	4.0
82.55	4.0
82.565	1.0
82.579	3.0
82.594	1.0
82.609	1.0
82.624	5.0
82.639	4.0
82.654	1.0
82.669	4.0
82.684	4.0
82.698	2.0
82.713	3.0
82.728	2.0
82.743	2.0
82.758	1.0
82.773	1.0
82.788	2.0
82.803	7.0
82.817	1.0
82.832	3.0
82.847	4.0
82.862	3.0
82.877	6.0
82.892	2.0
82.907	3.0
82.922	4.0
82.937	2.0
82.951	2.0
82.966	3.0
82.981	1.0
82.996	5.0
83.011	3.0
83.026	4.0
83.041	3.0
83.056	2.0
83.07	3.0
83.085	3.0
83.1	4.0
83.115	1.0
83.13	4.0
83.145	2.0
83.16	1.0
83.175	0.0
83.19	4.0
83.204	2.0
83.219	3.0
83.234	5.0
83.249	2.0
83.264	3.0
83.279	2.0
83.294	2.0
83.309	2.0
83.324	1.0
83.339	2.0
83.353	4.0
83.368	2.0
83.383	5.0
83.398	5.0
83.413	5.0
83.428	2.0
83.443	3.0
83.458	3.0
83.473	2.0
83.488	3.0
83.503	9.0
83.517	8.0
83.532	2.0
83.547	7.0
83.562	5.0
83.577	5.0
83.592	7.0
83.607	2.0
83.622	4.0
83.637	6.0
83.652	1.0
83.667	3.0
83.682	1.0
83.697	2.0
83.712	6.0
83.727	3.0
83.741	2.0
83.756	4.0
83.771	0.0
83.786	4.0
83.801	3.0
83.816	2.0
83.831	5.0
83.846	3.0
83.861	1.0
83.876	2.0
83.891	6.0
83.906	3.0
83.921	3.0
83.936	2.0
83.951	4.0
83.966	2.0
83.981	4.0
83.996	1.0
84.011	2.0
84.026	2.0
84.041	0.0
84.056	4.0
84.071	5.0
84.086	7.0
84.101	1.0
84.116	5.0
84.131	3.0
84.146	2.0
84.161	5.0
84.176	1.0
84.191	4.0
84.206	3.0
84.221	2.0
84.236	2.0
84.251	1.0
84.266	3.0
84.281	5.0
84.296	1.0
84.311	0.0
84.326	3.0
84.341	7.0
84.356	5.0
84.371	6.0
84.386	7.0
84.401	5.0
84.416	4.0
84.431	2.0
84.446	5.0
84.461	5.0
84.476	3.0
84.492	7.0
84.507	5.0
84.522	2.0
84.537	2.0
84.552	4.0
84.567	4.0
84.582	1.0
84.597	5.0
84.612	2.0
84.627	1.0
84.642	5.0
84.657	2.0
84.672	1.0
84.687	4.0
84.702	2.0
84.717	2.0
84.733	1.0
84.748	0.0
84.763	1.0
84.778	5.0
84.793	2.0
84.808	4.0
84.823	3.0
84.838	2.0
84.853	4.0
84.868	1.0
84.883	4.0
84.898	4.0
84.913	3.0
84.929	3.0
84.944	3.0
84.959	2.0
84.974	3.0
84.989	3.0
85.004	4.0
85.019	7.0
85.034	1.0
85.049	2.0
85.064	4.0
85.079	1.0
85.094	3.0
85.11	2.0
85.125	0.0
85.14	2.0
85.155	5.0
85.17	2.0
85.185	4.0
85.2	0.0
85.215	3.0
85.23	5.0
85.245	1.0
85.26	6.0
85.276	3.0
85.291	4.0
85.306	3.0
85.321	2.0
85.336	1.0
85.351	0.0
85.366	2.0
85.381	4.0
85.396	2.0
85.411	3.0
85.426	5.0
85.441	1.0
85.457	1.0
85.472	1.0
85.487	3.0
85.502	4.0
85.517	4.0
85.532	2.0
85.547	2.0
85.562	4.0
85.577	0.0
85.592	3.0
85.607	2.0
85.622	4.0
85.637	5.0
85.653	4.0
85.668	4.0
85.683	3.0
85.698	3.0
85.713	5.0
85.728	1.0
85.743	1.0
85.758	2.0
85.773	3.0
85.788	2.0
85.803	2.0
85.818	4.0
85.833	2.0
85.848	3.0
85.863	3.0
85.879	4.0
85.894	4.0
85.909	7.0
85.924	3.0
85.939	3.0
85.954	2.0
85.969	3.0
85.984	1.0
85.999	6.0
86.014	2.0
86.029	2.0
86.044	9.0
86.059	1.0
86.074	3.0
86.089	3.0
86.104	1.0
86.119	0.0
86.134	3.0
86.149	2.0
86.164	0.0
86.179	4.0
86.194	4.0
86.209	3.0
86.224	3.0
86.239	4.0
86.254	8.0
86.269	4.0
86.284	2.0
86.299	2.0
86.314	3.0
86.33	3.0
86.345	2.0
86.36	2.0
86.375	5.0
86.39	2.0
86.405	1.0
86.42	1.0
86.435	4.0
86.45	8.0
86.465	2.0
86.48	2.0
86.495	5.0
86.51	6.0
86.525	3.0
86.54	3.0
86.555	7.0
86.57	8.0
86.585	6.0
86.6	5.0
86.615	2.0
86.63	5.0
86.645	5.0
86.659	3.0
86.674	4.0
86.689	2.0
86.704	5.0
86.719	4.0
86.734	2.0
86.749	4.0
86.764	1.0
86.779	4.0
86.794	1.0
86.809	4.0
86.824	4.0
86.839	2.0
86.854	4.0
86.869	3.0
86.884	4.0
86.899	7.0
86.914	5.0
86.929	5.0
86.944	2.0
86.959	6.0
86.974	4.0
86.989	4.0
87.004	5.0
87.019	4.0
87.034	7.0
87.049	6.0
87.064	2.0
87.079	2.0
87.094	3.0
87.109	4.0
87.124	2.0
87.139	3.0
87.154	5.0
87.169	7.0
87.184	4.0
87.199	3.0
87.214	2.0
87.229	1.0
87.244	2.0
87.259	2.0
87.274	5.0
87.289	7.0
87.304	0.0
87.319	5.0
87.334	5.0
87.349	3.0
87.364	2.0
87.379	2.0
87.394	2.0
87.409	0.0
87.424	5.0
87.438	2.0
87.453	9.0
87.468	6.0
87.483	3.0
87.498	3.0
87.513	2.0
87.528	5.0
87.543	2.0
87.558	5.0
87.573	7.0
87.588	7.0
87.603	3.0
87.618	8.0
87.633	2.0
87.648	3.0
87.663	7.0
87.678	2.0
87.693	2.0
87.708	3.0
87.723	5.0
87.738	4.0
87.753	4.0
87.768	2.0
87.783	4.0
87.798	3.0
87.813	2.0
87.828	6.0
87.843	2.0
87.858	4.0
87.873	2.0
87.888	1.0
87.903	1.0
87.918	3.0
87.933	1.0
87.948	0.0
87.963	0.0
87.978	0.0
87.993	1.0
88.008	2.0
88.023	3.0
88.038	5.0
88.053	6.0
88.068	3.0
88.083	3.0
88.098	1.0
88.113	4.0
88.128	3.0
88.143	1.0
88.158	4.0
88.174	6.0
88.189	3.0
88.204	6.0
88.219	2.0
88.234	3.0
88.249	2.0
88.264	1.0
88.279	2.0
88.294	3.0
88.309	2.0
88.324	2.0
88.339	3.0
88.354	2.0
88.369	3.0
88.384	4.0
88.399	3.0
88.414	5.0
88.429	4.0
88.444	6.0
88.459	1.0
88.474	3.0
88.489	5.0
88.504	6.0
88.519	1.0
88.534	2.0
88.549	2.0
88.564	2.0
88.58	2.0
88.595	2.0
88.61	5.0
88.625	3.0
88.64	0.0
88.655	0.0
88.67	1.0
88.685	2.0
88.7	2.0
88.715	4.0
88.73	4.0
88.745	0.0
88.76	3.0
88.775	2.0
88.79	5.0
88.805	3.0
88.82	1.0
88.835	6.0
88.85	4.0
88.865	4.0
88.88	2.0
88.895	2.0
88.911	4.0
88.926	5.0
88.941	5.0
88.956	5.0
88.971	2.0
88.986	1.0
89.001	2.0
89.016	3.0
89.031	2.0
89.046	1.0
89.061	6.0
89.076	1.0
89.091	2.0
89.106	2.0
89.121	4.0
89.136	1.0
89.151	3.0
89.166	1.0
89.181	6.0
89.196	3.0
89.211	3.0
89.227	3.0
89.242	3.0
89.257	3.0
89.272	5.0
89.287	2.0
89.302	3.0
89.317	5.0
89.332	2.0
89.347	1.0
89.362	3.0
89.377	0.0
89.392	1.0
89.407	4.0
89.422	4.0
89.437	3.0
89.452	1.0
89.467	1.0
89.482	2.0
89.497	1.0
89.512	3.0
89.527	3.0
89.542	2.0
89.557	4.0
89.572	5.0
89.587	2.0
89.602	6.0
89.617	1.0
89.632	3.0
89.647	1.0
89.662	4.0
89.677	2.0
89.693	1.0
89.708	1.0
89.723	4.0
89.738	3.0
89.753	3.0
89.768	3.0
89.783	5.0
89.798	2.0
89.813	6.0
89.828	5.0
89.843	1.0
89.858	6.0
89.873	4.0
89.888	2.0
89.903	2.0
89.918	4.0
89.933	3.0
89.948	2.0
89.963	0.0
89.978	4.0
89.993	0.0
90.008	1.0
90.023	3.0
90.038	5.0
90.053	4.0
90.068	1.0
90.083	3.0
90.097	10.0
90.112	3.0
90.127	6.0
90.142	2.0
90.157	5.0
90.172	1.0
90.187	6.0
90.202	4.0
90.217	1.0
90.232	8.0
90.247	4.0
90.262	4.0
90.277	6.0
90.292	4.0
90.307	6.0
90.322	2.0
90.337	3.0
90.352	2.0
90.367	4.0
90.382	4.0
90.397	5.0
90.412	2.0
90.427	4.0
90.442	1.0
90.457	1.0
90.472	4.0
90.487	2.0
90.501	0.0
90.516	3.0
90.531	5.0
90.546	4.0
90.561	4.0
90.576	3.0
90.591	3.0
90.606	5.0
90.621	4.0
90.636	4.0
90.651	2.0
90.666	7.0
90.681	5.0
90.696	1.0
90.711	6.0
90.726	3.0
90.741	3.0
90.755	9.0
90.77	2.0
90.785	2.0
90.8	1.0
90.815	2.0
90.83	4.0
90.845	3.0
90.86	3.0
90.875	9.0
90.89	7.0
90.905	4.0
90.92	5.0
90.935	3.0
90.95	3.0
90.965	3.0
90.979	4.0
90.994	4.0
91.009	7.0
91.024	7.0
91.039	4.0
91.054	6.0
91.069	7.0
91.084	4.0
91.099	3.0
91.114	1.0
91.129	7.0
91.144	4.0
91.159	3.0
91.174	5.0
91.188	2.0
91.203	3.0
91.218	2.0
91.233	6.0
91.248	0.0
91.263	1.0
91.278	1.0
91.293	4.0
91.308	1.0
91.323	0.0
91.338	5.0
91.353	2.0
91.368	1.0
91.383	1.0
91.398	5.0
91.412	3.0
91.427	5.0
91.442	3.0
91.457	4.0
91.472	2.0
91.487	2.0
91.502	2.0
91.517	5.0
91.532	2.0
91.547	3.0
91.562	1.0
91.577	4.0
91.592	4.0
91.607	3.0
91.622	1.0
91.637	0.0
91.652	6.0
91.666	1.0
91.681	2.0
91.696	4.0
91.711	3.0
91.726	6.0
91.741	3.0
91.756	4.0
91.771	0.0
91.786	2.0
91.801	2.0
91.816	4.0
91.831	2.0
91.846	2.0
91.861	4.0
91.876	2.0
91.891	6.0
91.906	3.0
91.921	1.0
91.936	1.0
91.951	4.0
91.966	1.0
91.981	4.0
91.995	5.0
92.01	0.0
92.025	2.0
92.04	2.0
92.055	3.0
92.07	3.0
92.085	1.0
92.1	4.0
92.115	1.0
92.13	2.0
92.145	3.0
92.16	6.0
92.175	4.0
92.19	3.0
92.205	5.0
92.22	5.0
92.235	3.0
92.25	3.0
92.265	2.0
92.28	3.0
92.295	2.0
92.31	2.0
92.325	3.0
92.34	4.0
92.355	7.0
92.37	2.0
92.385	1.0
92.4	6.0
92.415	1.0
92.43	3.0
92.445	2.0
92.46	4.0
92.475	5.0
92.49	5.0
92.505	2.0
92.52	1.0
92.535	5.0
92.55	5.0
92.565	2.0
92.58	5.0
92.595	2.0
92.61	4.0
92.625	4.0
92.64	3.0
92.655	2.0
92.67	2.0
92.685	8.0
92.7	0.0
92.715	5.0
92.73	1.0
92.745	6.0
92.76	2.0
92.775	4.0
92.79	4.0
92.805	2.0
92.82	4.0
92.835	3.0
92.85	4.0
92.865	4.0
92.88	4.0
92.895	4.0
92.91	0.0
92.925	0.0
92.94	2.0
92.955	4.0
92.97	3.0
92.985	2.0
93.0	1.0
93.015	3.0
93.03	2.0
93.045	4.0
93.06	3.0
93.075	0.0
93.09	2.0
93.105	3.0
93.12	2.0
93.135	3.0
93.15	5.0
93.165	2.0
93.18	2.0
93.195	4.0
93.21	4.0
93.225	2.0
93.24	3.0
93.255	2.0
93.27	4.0
93.285	2.0
93.3	5.0
93.315	4.0
93.33	7.0
93.345	2.0
93.36	4.0
93.375	6.0
93.39	2.0
93.405	3.0
93.42	2.0
93.435	5.0
93.45	10.0
93.465	3.0
93.48	3.0
93.495	1.0
93.51	5.0
93.525	5.0
93.54	4.0
93.555	2.0
93.57	5.0
93.585	4.0
93.6	3.0
93.615	3.0
93.63	2.0
93.645	5.0
93.66	5.0
93.675	3.0
93.69	5.0
93.705	3.0
93.72	2.0
93.735	4.0
93.75	1.0
93.765	5.0
93.78	0.0
93.795	3.0
93.81	1.0
93.824	4.0
93.839	2.0
93.854	2.0
93.869	3.0
93.884	2.0
93.899	0.0
93.914	1.0
93.929	2.0
93.944	4.0
93.959	3.0
93.974	3.0
93.989	3.0
94.004	1.0
94.019	5.0
94.034	1.0
94.049	0.0
94.064	2.0
94.079	1.0
94.094	5.0
94.108	1.0
94.123	4.0
94.138	7.0
94.153	5.0
94.168	1.0
94.183	2.0
94.198	2.0
94.213	3.0
94.228	2.0
94.243	1.0
94.258	5.0
94.273	2.0
94.288	3.0
94.302	3.0
94.317	6.0
94.332	3.0
94.347	5.0
94.362	4.0
94.377	3.0
94.392	3.0
94.407	4.0
94.422	4.0
94.437	4.0
94.452	9.0
94.466	8.0
94.481	1.0
94.496	3.0
94.511	0.0
94.526	1.0
94.541	3.0
94.556	0.0
94.571	1.0
94.586	5.0
94.601	4.0
94.615	2.0
94.63	2.0
94.645	3.0
94.66	0.0
94.675	2.0
94.69	2.0
94.705	4.0
94.72	2.0
94.735	4.0
94.749	4.0
94.764	0.0
94.779	2.0
94.794	6.0
94.809	1.0
94.824	3.0
94.839	1.0
94.854	5.0
94.868	3.0
94.883	4.0
94.898	1.0
94.913	3.0
94.928	3.0
94.943	5.0
94.958	4.0
94.973	1.0
94.987	5.0
95.002	2.0
95.017	3.0
95.032	3.0
95.047	3.0
95.062	4.0
95.077	1.0
95.092	1.0
95.106	4.0
95.121	3.0
95.136	6.0
95.151	3.0
95.166	7.0
95.181	3.0
95.196	2.0
95.211	6.0
95.226	1.0
95.24	4.0
95.255	2.0
95.27	2.0
95.285	3.0
95.3	4.0
95.315	5.0
95.33	1.0
95.345	1.0
95.359	5.0
95.374	7.0
95.389	4.0
95.404	0.0
95.419	1.0
95.434	2.0
95.449	4.0
95.464	3.0
95.478	6.0
95.493	10.0
95.508	2.0
95.523	3.0
95.538	2.0
95.553	1.0
95.568	4.0
95.583	1.0
95.597	2.0
95.612	3.0
95.627	2.0
95.642	5.0
95.657	5.0
95.672	3.0
95.687	6.0
95.702	3.0
95.717	1.0
95.731	7.0
95.746	5.0
95.761	2.0
95.776	1.0
95.791	5.0
95.806	0.0
95.821	5.0
95.836	2.0
95.851	6.0
95.866	3.0
95.88	1.0
95.895	2.0
95.91	3.0
95.925	3.0
95.94	3.0
95.955	2.0
95.97	3.0
95.985	4.0
96.0	3.0
96.015	2.0
96.029	5.0
96.044	3.0
96.059	3.0
96.074	3.0
96.089	6.0
96.104	2.0
96.119	2.0
96.134	3.0
96.149	3.0
96.164	0.0
96.179	3.0
96.194	3.0
96.208	3.0
96.223	2.0
96.238	4.0
96.253	3.0
96.268	3.0
96.283	1.0
96.298	3.0
96.313	3.0
96.328	2.0
96.343	2.0
96.358	1.0
96.373	2.0
96.388	3.0
96.403	2.0
96.417	4.0
96.432	1.0
96.447	3.0
96.462	4.0
96.477	4.0
96.492	4.0
96.507	2.0
96.522	4.0
96.537	3.0
96.552	5.0
96.567	5.0
96.582	4.0
96.597	7.0
96.612	1.0
96.627	4.0
96.642	3.0
96.656	3.0
96.671	2.0
96.686	2.0
96.701	4.0
96.716	4.0
96.731	3.0
96.746	1.0
96.761	1.0
96.776	5.0
96.791	2.0
96.806	5.0
96.821	4.0
96.836	4.0
96.851	3.0
96.866	3.0
96.881	1.0
96.896	6.0
96.911	6.0
96.926	0.0
96.94	5.0
96.955	2.0
96.97	7.0
96.985	1.0
97.0	5.0
97.015	4.0
97.03	7.0
97.045	2.0
97.06	1.0
97.075	4.0
97.09	1.0
97.105	3.0
97.12	1.0
97.135	3.0
97.15	2.0
97.165	4.0
97.18	3.0
97.195	5.0
97.21	2.0
97.225	2.0
97.239	3.0
97.254	3.0
97.269	4.0
97.284	7.0
97.299	4.0
97.314	4.0
97.329	3.0
97.344	6.0
97.359	5.0
97.374	4.0
97.389	3.0
97.404	2.0
97.419	4.0
97.434	1.0
97.449	4.0
97.464	4.0
97.479	2.0
97.494	3.0
97.509	4.0
97.524	4.0
97.538	2.0
97.553	6.0
97.568	2.0
97.583	3.0
97.598	2.0
97.613	1.0
97.628	4.0
97.643	3.0
97.658	2.0
97.673	3.0
97.688	3.0
97.703	4.0
97.718	2.0
97.733	3.0
97.748	3.0
97.763	4.0
97.778	5.0
97.792	5.0
97.807	4.0
97.822	4.0
97.837	3.0
97.852	5.0
97.867	3.0
97.882	2.0
97.897	3.0
97.912	7.0
97.927	5.0
97.942	3.0
97.957	3.0
97.972	1.0
97.987	2.0
98.001	7.0
98.016	3.0
98.031	3.0
98.046	4.0
98.061	2.0
98.076	2.0
98.091	2.0
98.106	2.0
98.121	3.0
98.136	3.0
98.151	4.0
98.166	2.0
98.181	2.0
98.195	2.0
98.21	3.0
98.225	4.0
98.24	1.0
98.255	2.0
98.27	2.0
98.285	4.0
98.3	1.0
98.315	3.0
98.33	1.0
98.345	3.0
98.359	2.0
98.374	3.0
98.389	1.0
98.404	2.0
98.419	3.0
98.434	3.0
98.449	0.0
98.464	0.0
98.479	6.0
98.494	3.0
98.508	7.0
98.523	3.0
98.538	3.0
98.553	0.0
98.568	2.0
98.583	2.0
98.598	3.0
98.613	0.0
98.628	3.0
98.642	6.0
98.657	2.0
98.672	6.0
98.687	3.0
98.702	5.0
98.717	4.0
98.732	3.0
98.747	4.0
98.762	3.0
98.776	2.0
98.791	6.0
98.806	3.0
98.821	4.0
98.836	1.0
98.851	1.0
98.866	3.0
98.881	4.0
98.896	4.0
98.91	1.0
98.925	0.0
98.94	5.0
98.955	2.0
98.97	5.0
98.985	4.0
99.0	2.0
99.015	4.0
99.029	1.0
99.044	2.0
99.059	5.0
99.074	7.0
99.089	6.0
99.104	2.0
99.119	4.0
99.133	3.0
99.148	6.0
99.163	4.0
99.178	1.0
99.193	5.0
99.208	0.0
99.223	2.0
99.238	2.0
99.252	5.0
99.267	5.0
99.282	2.0
99.297	2.0
99.312	2.0
99.327	2.0
99.342	3.0
99.356	6.0
99.371	3.0
99.386	2.0
99.401	4.0
99.416	1.0
99.431	2.0
99.446	3.0
99.461	5.0
99.475	4.0
99.49	2.0
99.505	4.0
99.52	2.0
99.535	1.0
99.55	2.0
99.565	5.0
99.579	8.0
99.594	9.0
99.609	6.0
99.624	4.0
99.639	6.0
99.654	6.0
99.669	7.0
99.683	0.0
99.698	3.0
99.713	3.0
99.728	3.0
99.743	6.0
99.758	3.0
99.772	2.0
99.787	5.0
99.802	2.0
99.817	1.0
99.832	3.0
99.847	3.0
99.862	3.0
99.876	4.0
99.891	2.0
99.906	4.0
99.921	1.0
99.936	3.0
99.951	3.0
99.966	4.0
99.98	2.0
99.995	1.0
100.01	1.0
100.025	4.0
100.04	1.0
100.055	5.0
100.069	2.0
100.084	3.0
100.099	3.0
100.114	6.0
100.129	5.0
100.144	0.0
100.159	2.0
100.173	4.0
100.188	2.0
100.203	6.0
100.218	4.0
100.233	3.0
100.248	2.0
100.262	5.0
100.277	2.0
100.292	2.0
100.307	5.0
100.322	4.0
100.337	2.0
100.351	7.0
100.366	1.0
100.381	7.0
100.396	7.0
100.411	3.0
100.426	2.0
100.441	1.0
100.455	3.0
100.47	3.0
100.485	2.0
100.5	6.0
100.515	0.0
100.53	2.0
100.544	3.0
100.559	0.0
100.574	0.0
100.589	2.0
100.604	6.0
100.619	3.0
100.633	8.0
100.648	8.0
100.663	1.0
100.678	6.0
100.693	4.0
100.708	5.0
100.722	2.0
100.737	5.0
100.752	2.0
100.767	7.0
100.782	2.0
100.796	4.0
100.811	3.0
100.826	5.0
100.841	9.0
100.856	2.0
100.871	1.0
100.885	1.0
100.9	1.0
100.915	4.0
100.93	1.0
100.945	5.0
100.96	3.0
100.974	3.0
100.989	5.0
101.004	1.0
101.019	2.0
101.034	2.0
101.048	5.0
101.063	6.0
101.078	3.0
101.093	3.0
101.108	6.0
101.123	3.0
101.137	2.0
101.152	0.0
101.167	8.0
101.182	4.0
101.197	5.0
101.211	2.0
101.226	6.0
101.241	2.0
101.256	1.0
101.271	4.0
101.285	3.0
101.3	3.0
101.315	0.0
101.33	4.0
101.345	0.0
101.359	3.0
101.374	2.0
101.389	2.0
101.404	4.0
101.419	3.0
101.433	5.0
101.448	2.0
101.463	2.0
101.478	4.0
101.493	3.0
101.507	2.0
101.522	2.0
101.537	2.0
101.552	1.0
101.567	4.0
101.581	5.0
101.596	4.0
101.611	2.0
101.626	4.0
101.64	6.0
101.655	2.0
101.67	1.0
101.685	3.0
101.7	4.0
101.714	5.0
101.729	2.0
101.744	5.0
101.759	4.0
101.773	3.0
101.788	5.0
101.803	4.0
101.818	3.0
101.833	2.0
101.847	0.0
101.862	5.0
101.877	1.0
101.892	3.0
101.906	3.0
101.921	1.0
101.936	3.0
101.951	2.0
101.965	3.0
101.98	3.0
101.995	2.0
102.01	4.0
102.025	3.0
102.039	3.0
102.054	3.0
102.069	5.0
102.084	3.0
102.098	6.0
102.113	2.0
102.128	7.0
102.143	5.0
102.157	4.0
102.172	5.0
102.187	1.0
102.202	3.0
102.216	8.0
102.231	5.0
102.246	6.0
102.261	4.0
102.275	5.0
102.29	4.0
102.305	5.0
102.32	4.0
102.334	5.0
102.349	4.0
102.364	4.0
102.378	1.0
102.393	2.0
102.408	3.0
102.423	3.0
102.437	3.0
102.452	5.0
102.467	6.0
102.482	1.0
102.496	4.0
102.511	4.0
102.526	4.0
102.541	4.0
102.555	4.0
102.57	6.0
102.585	1.0
102.6	3.0
102.614	2.0
102.629	2.0
102.644	4.0
102.659	1.0
102.673	0.0
102.688	7.0
102.703	4.0
102.717	1.0
102.732	4.0
102.747	2.0
102.762	3.0
102.776	3.0
102.791	0.0
102.806	0.0
102.821	2.0
102.835	5.0
102.85	2.0
102.865	3.0
102.88	2.0
102.894	4.0
102.909	3.0
102.924	4.0
102.938	4.0
102.953	1.0
102.968	5.0
102.983	5.0
102.997	3.0
103.012	3.0
103.027	3.0
103.042	1.0
103.056	1.0
103.071	2.0
103.086	4.0
103.101	1.0
103.115	2.0
103.13	2.0
103.145	4.0
103.16	3.0
103.174	2.0
103.189	3.0
103.204	3.0
103.219	3.0
103.233	2.0
103.248	1.0
103.263	3.0
103.278	3.0
103.292	3.0
103.307	2.0
103.322	6.0
103.337	3.0
103.351	5.0
103.366	3.0
103.381	4.0
103.396	1.0
103.41	1.0
103.425	3.0
103.44	5.0
103.455	4.0
103.469	2.0
103.484	1.0
103.499	4.0
103.514	2.0
103.529	4.0
103.543	2.0
103.558	1.0
103.573	3.0
103.588	0.0
103.602	3.0
103.617	2.0
103.632	3.0
103.647	1.0
103.661	6.0
103.676	1.0
103.691	7.0
103.706	5.0
103.721	5.0
103.735	5.0
103.75	4.0
103.765	2.0
103.78	4.0
103.795	6.0
103.809	4.0
103.824	4.0
103.839	2.0
103.854	2.0
103.869	4.0
103.883	1.0
103.898	3.0
103.913	5.0
103.928	7.0
103.943	3.0
103.957	3.0
103.972	4.0
103.987	1.0
104.002	4.0
104.017	2.0
104.031	3.0
104.046	4.0
104.061	4.0
104.076	0.0
104.091	6.0
104.106	4.0
104.12	0.0
104.135	6.0
104.15	2.0
104.165	3.0
104.18	3.0
104.195	4.0
104.209	1.0
104.224	3.0
104.239	0.0
104.254	5.0
104.269	1.0
104.284	2.0
104.299	4.0
104.313	3.0
104.328	8.0
104.343	4.0
104.358	4.0
104.373	1.0
104.388	4.0
104.403	1.0
104.417	3.0
104.432	4.0
104.447	1.0
104.462	2.0
104.477	1.0
104.492	3.0
104.507	2.0
104.522	6.0
104.536	6.0
104.551	2.0
104.566	4.0
104.581	1.0
104.596	7.0
104.611	3.0
104.626	6.0
104.641	4.0
104.656	4.0
104.67	4.0
104.685	3.0
104.7	4.0
104.715	7.0
104.73	3.0
104.745	3.0
104.76	3.0
104.775	4.0
104.79	3.0
104.804	4.0
104.819	2.0
104.834	2.0
104.849	4.0
104.864	6.0
104.879	7.0
104.894	4.0
104.909	2.0
104.924	0.0
104.939	2.0
104.954	1.0
104.968	0.0
104.983	6.0
104.998	2.0
105.013	1.0
105.028	0.0
105.043	2.0
105.058	3.0
105.073	3.0
105.088	0.0
105.103	3.0
105.118	3.0
105.133	4.0
105.147	2.0
105.162	3.0
105.177	3.0
105.192	5.0
105.207	2.0
105.222	7.0
105.237	6.0
105.252	3.0
105.267	3.0
105.282	1.0
105.297	0.0
105.312	7.0
105.327	3.0
105.342	4.0
105.356	3.0
105.371	2.0
105.386	2.0
105.401	2.0
105.416	3.0
105.431	3.0
105.446	3.0
105.461	7.0
105.476	1.0
105.491	2.0
105.506	1.0
105.521	6.0
105.536	0.0
105.551	5.0
105.566	4.0
105.581	5.0
105.595	4.0
105.61	4.0
105.625	3.0
105.64	2.0
105.655	4.0
105.67	2.0
105.685	1.0
105.7	2.0
105.715	3.0
105.73	2.0
105.745	1.0
105.76	3.0
105.775	5.0
105.79	6.0
105.805	1.0
105.82	3.0
105.835	3.0
105.85	3.0
105.864	1.0
105.879	2.0
105.894	3.0
105.909	2.0
105.924	2.0
105.939	1.0
105.954	0.0
105.969	5.0
105.984	1.0
105.999	1.0
106.014	1.0
106.029	3.0
106.044	2.0
106.059	1.0
106.074	2.0
106.089	3.0
106.104	0.0
106.119	5.0
106.134	4.0
106.148	3.0
106.163	4.0
106.178	2.0
106.193	4.0
106.208	4.0
106.223	2.0
106.238	1.0
106.253	4.0
106.268	3.0
106.283	6.0
106.298	1.0
106.313	1.0
106.328	4.0
106.343	3.0
106.358	6.0
106.373	3.0
106.388	2.0
106.403	4.0
106.418	6.0
106.432	2.0
106.447	4.0
106.462	0.0
106.477	6.0
106.492	3.0
106.507	1.0
106.522	3.0
106.537	6.0
106.552	6.0
106.567	2.0
106.582	2.0
106.597	2.0
106.612	1.0
106.627	5.0
106.642	3.0
106.657	1.0
106.672	1.0
106.687	2.0
106.701	4.0
106.716	0.0
106.731	3.0
106.746	4.0
106.761	2.0
106.776	4.0
106.791	2.0
106.806	1.0
106.821	3.0
106.836	1.0
106.851	1.0
106.866	3.0
106.881	3.0
106.896	3.0
106.911	3.0
106.926	3.0
106.941	4.0
106.955	4.0
106.97	1.0
106.985	3.0
107.0	4.0
107.015	4.0
107.03	4.0
107.045	6.0
107.06	1.0
107.075	5.0
107.09	5.0
107.105	5.0
107.12	8.0
107.135	3.0
107.15	0.0
107.165	4.0
107.18	2.0
107.194	3.0
107.209	4.0
107.224	6.0
107.239	4.0
107.254	5.0
107.269	8.0
107.284	1.0
107.299	5.0
107.314	5.0
107.329	3.0
107.344	0.0
107.359	3.0
107.374	1.0
107.389	3.0
107.404	3.0
107.418	2.0
107.433	4.0
107.448	3.0
107.463	4.0
107.478	4.0
107.493	4.0
107.508	1.0
107.523	2.0
107.538	6.0
107.553	3.0
107.568	2.0
107.583	4.0
107.598	1.0
107.613	4.0
107.627	1.0
107.642	1.0
107.657	5.0
107.672	1.0
107.687	3.0
107.702	2.0
107.717	4.0
107.732	4.0
107.747	5.0
107.762	3.0
107.777	0.0
107.792	6.0
107.807	3.0
107.821	6.0
107.836	1.0
107.851	3.0
107.866	1.0
107.881	7.0
107.896	1.0
107.911	4.0
107.926	4.0
107.941	4.0
107.956	7.0
107.971	2.0
107.986	2.0
108.0	4.0
108.015	2.0
108.03	2.0
108.045	5.0
108.06	4.0
108.075	3.0
108.09	2.0
108.105	8.0
108.12	7.0
108.135	3.0
108.15	4.0
108.164	3.0
108.179	5.0
108.194	1.0
108.209	2.0
108.224	1.0
108.239	1.0
108.254	2.0
108.269	2.0
108.284	2.0
108.299	2.0
108.313	4.0
108.328	5.0
108.343	6.0
108.358	6.0
108.373	5.0
108.388	4.0
108.403	1.0
108.418	4.0
108.433	3.0
108.448	3.0
108.462	3.0
108.477	1.0
108.492	3.0
108.507	4.0
108.522	4.0
108.537	3.0
108.552	4.0
108.567	3.0
108.582	2.0
108.597	4.0
108.611	2.0
108.626	3.0
108.641	6.0
108.656	1.0
108.671	1.0
108.686	1.0
108.701	2.0
108.716	5.0
108.731	4.0
108.745	2.0
108.76	0.0
108.775	4.0
108.79	3.0
108.805	1.0
108.82	3.0
108.835	4.0
108.85	5.0
108.865	3.0
108.879	3.0
108.894	6.0
108.909	1.0
108.924	5.0
108.939	2.0
108.954	2.0
108.969	5.0
108.984	5.0
108.999	1.0
109.013	3.0
109.028	3.0
109.043	3.0
109.058	7.0
109.073	4.0
109.088	4.0
109.103	4.0
109.118	5.0
109.133	3.0
109.147	8.0
109.162	2.0
109.177	2.0
109.192	6.0
109.207	4.0
109.222	3.0
109.237	1.0
109.252	4.0
109.267	2.0
109.281	3.0
109.296	3.0
109.311	2.0
109.326	1.0
109.341	3.0
109.356	2.0
109.371	1.0
109.386	1.0
109.4	1.0
109.415	4.0
109.43	4.0
109.445	3.0
109.46	4.0
109.475	4.0
109.49	2.0
109.505	3.0
109.52	1.0
109.534	3.0
109.549	4.0
109.564	2.0
109.579	10.0
109.594	2.0
109.609	2.0
109.624	7.0
109.639	3.0
109.653	5.0
109.668	2.0
109.683	2.0
109.698	4.0
109.713	0.0
109.728	3.0
109.743	4.0
109.758	4.0
109.773	1.0
109.787	7.0
109.802	6.0
109.817	4.0
109.832	3.0
109.847	3.0
109.862	4.0
109.877	4.0
109.892	1.0
109.907	4.0
109.921	2.0
109.936	2.0
109.951	4.0
109.966	3.0
109.981	4.0
109.996	2.0
110.011	2.0
110.026	2.0
110.04	2.0
110.055	3.0
110.07	2.0
110.085	4.0
110.1	4.0
110.115	1.0
110.13	1.0
110.145	1.0
110.16	4.0
110.174	2.0
110.189	2.0
110.204	1.0
110.219	3.0
110.234	2.0
110.249	2.0
110.264	6.0
110.279	3.0
110.294	1.0
110.308	4.0
110.323	7.0
110.338	3.0
110.353	3.0
110.368	6.0
110.383	2.0
110.398	3.0
110.413	2.0
110.428	2.0
110.442	5.0
110.457	1.0
110.472	4.0
110.487	4.0
110.502	2.0
110.517	2.0
110.532	2.0
110.547	1.0
110.561	2.0
110.576	5.0
110.591	3.0
110.606	1.0
110.621	3.0
110.636	3.0
110.651	3.0
110.666	6.0
110.681	2.0
110.695	3.0
110.71	9.0
110.725	1.0
110.74	3.0
110.755	3.0
110.77	1.0
110.785	3.0
110.8	3.0
110.815	2.0
110.829	6.0
110.844	4.0
110.859	3.0
110.874	3.0
110.889	0.0
110.904	5.0
110.919	0.0
110.934	3.0
110.948	2.0
110.963	1.0
110.978	4.0
110.993	2.0
111.008	3.0
111.023	7.0
111.038	3.0
111.053	4.0
111.067	0.0
111.082	3.0
111.097	8.0
111.112	6.0
111.127	3.0
111.142	3.0
111.157	1.0
111.172	1.0
111.186	2.0
111.201	4.0
111.216	5.0
111.231	2.0
111.246	4.0
111.261	3.0
111.276	4.0
111.291	0.0
111.305	2.0
111.32	6.0
111.335	6.0
111.35	1.0
111.365	1.0
111.38	4.0
111.395	6.0
111.41	2.0
111.424	3.0
111.439	4.0
111.454	3.0
111.469	3.0
111.484	4.0
111.499	1.0
111.514	2.0
111.528	4.0
111.543	2.0
111.558	4.0
111.573	5.0
111.588	1.0
111.603	2.0
111.618	7.0
111.633	6.0
111.647	3.0
111.662	7.0
111.677	3.0
111.692	3.0
111.707	5.0
111.722	2.0
111.737	2.0
111.751	3.0
111.766	2.0
111.781	5.0
111.796	1.0
111.811	0.0
111.826	5.0
111.84	4.0
111.855	2.0
111.87	5.0
111.885	5.0
111.9	2.0
111.915	2.0
111.93	5.0
111.944	0.0
111.959	4.0
111.974	4.0
111.989	0.0
112.004	3.0
112.019	6.0
112.033	4.0
112.048	1.0
112.063	4.0
112.078	4.0
112.093	3.0
112.108	4.0
112.123	3.0
112.137	3.0
112.152	3.0
112.167	1.0
112.182	2.0
112.197	1.0
112.212	5.0
112.226	2.0
112.241	4.0
112.256	5.0
112.271	2.0
112.286	1.0
112.301	2.0
112.315	1.0
112.33	1.0
112.345	6.0
112.36	4.0
112.375	0.0
112.389	2.0
112.404	1.0
112.419	3.0
112.434	4.0
112.449	6.0
112.464	4.0
112.478	3.0
112.493	4.0
112.508	2.0
112.523	2.0
112.538	1.0
112.553	0.0
112.567	4.0
112.582	6.0
112.597	2.0
112.612	2.0
112.627	3.0
112.642	6.0
112.656	5.0
112.671	5.0
112.686	4.0
112.701	2.0
112.716	7.0
112.73	2.0
112.745	6.0
112.76	2.0
112.775	2.0
112.79	6.0
112.805	3.0
112.819	3.0
112.834	4.0
112.849	2.0
112.864	2.0
112.879	4.0
112.894	3.0
112.908	3.0
112.923	3.0
112.938	4.0
112.953	7.0
112.968	5.0
112.983	3.0
112.997	1.0
113.012	3.0
113.027	1.0
113.042	6.0
113.057	3.0
113.072	3.0
113.086	7.0
113.101	3.0
113.116	1.0
113.131	1.0
113.146	2.0
113.161	4.0
113.175	2.0
113.19	1.0
113.205	3.0
113.22	4.0
113.235	6.0
113.25	3.0
113.265	3.0
113.279	5.0
113.294	5.0
113.309	8.0
113.324	3.0
113.339	4.0
113.354	2.0
113.368	2.0
113.383	3.0
113.398	2.0
113.413	1.0
113.428	3.0
113.443	5.0
113.458	0.0
113.472	4.0
113.487	5.0
113.502	9.0
113.517	1.0
113.532	2.0
113.547	1.0
113.562	1.0
113.576	5.0
113.591	4.0
113.606	1.0
113.621	6.0
113.636	2.0
113.651	4.0
113.666	3.0
113.681	3.0
113.695	4.0
113.71	2.0
113.725	2.0
113.74	4.0
113.755	2.0
113.77	5.0
113.785	4.0
113.8	4.0
113.814	3.0
113.829	4.0
113.844	3.0
113.859	8.0
113.874	5.0
113.889	5.0
113.904	3.0
113.919	2.0
113.934	5.0
113.949	5.0
113.963	4.0
113.978	3.0
113.993	3.0
114.008	3.0
114.023	6.0
114.038	1.0
114.053	2.0
114.068	5.0
114.083	7.0
114.098	1.0
114.113	6.0
114.127	6.0
114.142	4.0
114.157	5.0
114.172	1.0
114.187	6.0
114.202	3.0
114.217	1.0
114.232	1.0
114.247	1.0
114.262	3.0
114.277	3.0
114.292	4.0
114.307	1.0
114.322	4.0
114.337	2.0
114.351	2.0
114.366	1.0
114.381	7.0
114.396	1.0
114.411	1.0
114.426	6.0
114.441	7.0
114.456	2.0
114.471	2.0
114.486	6.0
114.501	4.0
114.516	6.0
114.531	3.0
114.546	3.0
114.561	3.0
114.576	6.0
114.591	4.0
114.606	2.0
114.621	4.0
114.636	4.0
114.65	3.0
114.665	2.0
114.68	5.0
114.695	6.0
114.71	4.0
114.725	3.0
114.74	2.0
114.755	2.0
114.77	3.0
114.785	3.0
114.8	2.0
114.815	4.0
114.83	2.0
114.845	6.0
114.86	4.0
114.875	6.0
114.89	10.0
114.905	6.0
114.92	4.0
114.935	6.0
114.95	3.0
114.965	5.0
114.98	2.0
114.995	3.0
115.009	2.0
115.024	1.0
115.039	0.0
115.054	4.0
115.069	4.0
115.084	3.0
115.099	4.0
115.114	4.0
115.129	2.0
115.144	3.0
115.159	2.0
115.174	3.0
115.189	4.0
115.204	4.0
115.219	1.0
115.234	8.0
115.249	4.0
115.264	8.0
115.279	6.0
115.294	2.0
115.309	2.0
115.323	1.0
115.338	5.0
115.353	3.0
115.368	4.0
115.383	3.0
115.398	6.0
115.413	2.0
115.428	5.0
115.443	6.0
115.458	5.0
115.473	5.0
115.488	4.0
115.503	5.0
115.518	2.0
115.533	6.0
115.548	4.0
115.562	6.0
115.577	4.0
115.592	3.0
115.607	5.0
115.622	2.0
115.637	2.0
115.652	6.0
115.667	4.0
115.682	3.0
115.697	2.0
115.712	2.0
115.727	6.0
115.741	1.0
115.756	1.0
115.771	5.0
115.786	2.0
115.801	2.0
115.816	3.0
115.831	1.0
115.846	8.0
115.861	5.0
115.875	3.0
115.89	4.0
115.905	5.0
115.92	3.0
115.935	5.0
115.95	4.0
115.965	5.0
115.98	3.0
115.995	1.0
116.009	1.0
116.024	4.0
116.039	6.0
116.054	4.0
116.069	4.0
116.084	4.0
116.099	0.0
116.113	4.0
116.128	4.0
116.143	1.0
116.158	3.0
116.173	0.0
116.188	4.0
116.202	5.0
116.217	2.0
116.232	5.0
116.247	4.0
116.262	5.0
116.277	4.0
116.291	3.0
116.306	2.0
116.321	4.0
116.336	5.0
116.351	1.0
116.366	3.0
116.38	3.0
116.395	3.0
116.41	2.0
116.425	5.0
116.44	1.0
116.454	2.0
116.469	4.0
116.484	4.0
116.499	3.0
116.514	4.0
116.528	2.0
116.543	3.0
116.558	6.0
116.573	7.0
116.588	1.0
116.602	3.0
116.617	0.0
116.632	5.0
116.647	5.0
116.662	4.0
116.676	1.0
116.691	4.0
116.706	6.0
116.721	3.0
116.735	3.0
116.75	2.0
116.765	0.0
116.78	3.0
116.795	1.0
116.809	2.0
116.824	2.0
116.839	3.0
116.854	3.0
116.868	3.0
116.883	5.0
116.898	2.0
116.913	2.0
116.927	5.0
116.942	5.0
116.957	3.0
116.972	4.0
116.986	7.0
117.001	4.0
117.016	3.0
117.031	6.0
117.045	2.0
117.06	0.0
117.075	1.0
117.09	7.0
117.104	5.0
117.119	4.0
117.134	6.0
117.149	3.0
117.163	5.0
117.178	4.0
117.193	3.0
117.208	10.0
117.222	1.0
117.237	3.0
117.252	1.0
117.267	4.0
117.281	0.0
117.296	5.0
117.311	4.0
117.325	2.0
117.34	4.0
117.355	3.0
117.37	7.0
117.384	2.0
117.399	5.0
117.414	3.0
117.429	1.0
117.443	4.0
117.458	2.0
117.473	4.0
117.487	1.0
117.502	3.0
117.517	3.0
117.532	4.0
117.546	4.0
117.561	3.0
117.576	5.0
117.59	5.0
117.605	9.0
117.62	2.0
117.635	3.0
117.649	1.0
117.664	1.0
117.679	4.0
117.693	2.0
117.708	2.0
117.723	2.0
117.738	3.0
117.752	8.0
117.767	3.0
117.782	4.0
117.796	5.0
117.811	2.0
117.826	4.0
117.841	4.0
117.855	5.0
117.87	5.0
117.885	3.0
117.899	3.0
117.914	5.0
117.929	4.0
117.944	5.0
117.958	5.0
117.973	3.0
117.988	1.0
118.002	4.0
118.017	3.0
118.032	4.0
118.047	2.0
118.062	3.0
118.077	2.0
118.092	3.0
118.107	1.0
118.121	4.0
118.136	2.0
118.151	2.0
118.166	3.0
118.181	1.0
118.196	0.0
118.211	4.0
118.225	2.0
118.24	4.0
118.255	5.0
118.27	2.0
118.285	2.0
118.3	1.0
118.315	7.0
118.33	5.0
118.344	2.0
118.359	3.0
118.374	3.0
118.389	1.0
118.404	5.0
118.419	3.0
118.434	5.0
118.449	1.0
118.463	2.0
118.478	4.0
118.493	6.0
118.508	3.0
118.523	1.0
118.538	3.0
118.553	2.0
118.567	4.0
118.582	4.0
118.597	2.0
118.612	6.0
118.627	4.0
118.642	7.0
118.657	1.0
118.672	5.0
118.686	2.0
118.701	3.0
118.716	1.0
118.731	4.0
118.746	1.0
118.761	2.0
118.776	6.0
118.791	3.0
118.805	2.0
118.82	1.0
118.835	2.0
118.85	2.0
118.865	10.0
118.88	2.0
118.895	2.0
118.909	2.0
118.924	6.0
118.939	3.0
118.954	1.0
118.969	3.0
118.984	3.0
118.999	3.0
119.014	2.0
119.028	2.0
119.043	5.0
119.058	1.0
119.073	3.0
119.088	3.0
119.103	1.0
119.118	4.0
119.133	4.0
119.147	0.0
119.162	5.0
119.177	8.0
119.192	5.0
119.207	4.0
119.222	7.0
119.237	4.0
119.251	6.0
119.266	2.0
119.281	3.0
119.296	3.0
119.311	3.0
119.326	5.0
119.341	2.0
119.356	0.0
119.37	3.0
119.385	3.0
119.4	2.0
119.415	4.0
119.43	4.0
119.445	3.0
119.46	4.0
119.475	2.0
119.489	3.0
119.504	1.0
119.519	3.0
119.534	0.0
119.549	3.0
119.564	1.0
119.579	6.0
119.593	4.0
119.608	2.0
119.623	5.0
119.638	2.0
119.653	1.0
119.668	3.0
119.683	3.0
119.698	2.0
119.712	0.0
119.727	3.0
119.742	1.0
119.757	4.0
119.772	2.0
119.787	6.0
119.802	2.0
119.817	1.0
119.831	5.0
119.846	3.0
119.861	2.0
119.876	2.0
119.891	3.0
119.906	3.0
119.921	1.0
119.935	3.0
119.95	4.0
119.965	5.0
119.98	6.0
119.995	2.0
120.01	1.0
120.025	4.0
120.04	2.0
120.054	3.0
120.069	1.0
120.084	1.0
120.099	1.0
120.114	2.0
120.129	2.0
120.144	3.0
120.159	1.0
120.173	0.0
120.188	1.0
120.203	1.0
120.218	1.0
120.233	3.0
120.248	0.0
120.263	0.0
120.277	2.0
120.292	0.0
120.307	1.0
120.322	0.0
120.337	0.0
120.352	0.0
120.367	0.0
120.382	0.0
120.396	0.0
120.411	0.0
120.426	0.0
120.441	1.0
120.456	0.0
120.471	0.0
120.486	0.0
120.501	0.0
120.515	0.0
120.53	0.0
120.545	0.0
120.56	0.0
120.575	0.0
120.59	0.0
120.605	0.0
120.619	1.0
120.634	0.0
120.649	0.0
120.664	0.0
120.679	0.0
120.694	1.0
120.709	0.0
120.724	0.0
120.738	0.0
120.753	0.0
120.768	0.0
120.783	0.0
120.798	0.0
120.813	0.0
120.828	0.0
120.843	0.0
120.857	0.0
120.872	0.0
120.887	0.0
120.902	0.0
120.917	0.0
120.932	2.0
120.947	0.0
120.961	0.0
120.976	0.0
