-1.217	0.0
-1.202	0.0
-1.187	0.0
-1.172	1.0
-1.157	0.0
-1.142	0.0
-1.128	0.0
-1.113	0.0
-1.098	0.0
-1.083	0.0
-1.068	0.0
-1.054	0.0
-1.039	0.0
-1.024	0.0
-1.009	0.0
-0.994	0.0
-0.979	0.0
-0.965	0.0
-0.95	0.0
-0.935	0.0
-0.92	0.0
-0.905	0.0
-0.891	0.0
-0.876	0.0
-0.861	0.0
-0.846	0.0
-0.831	0.0
-0.816	0.0
-0.802	0.0
-0.787	0.0
-0.772	0.0
-0.757	0.0
-0.742	0.0
-0.728	0.0
-0.713	0.0
-0.698	0.0
-0.683	0.0
-0.668	0.0
-0.653	0.0
-0.639	0.0
-0.624	0.0
-0.609	0.0
-0.594	0.0
-0.579	0.0
-0.565	0.0
-0.55	0.0
-0.535	0.0
-0.52	0.0
-0.505	0.0
-0.49	0.0
-0.476	0.0
-0.461	0.0
-0.446	0.0
-0.431	0.0
-0.416	0.0
-0.401	0.0
-0.387	0.0
-0.372	0.0
-0.357	0.0
-0.342	1.0
-0.327	0.0
-0.313	0.0
-0.298	0.0
-0.283	0.0
-0.268	0.0
-0.253	0.0
-0.238	0.0
-0.224	0.0
-0.209	0.0
-0.194	1.0
-0.179	0.0
-0.164	0.0
-0.15	0.0
-0.135	0.0
-0.12	0.0
-0.105	0.0
-0.09	0.0
-0.075	0.0
-0.061	0.0
-0.046	0.0
-0.031	0.0
-0.016	0.0
-0.001	0.0
0.013	0.0
0.028	0.0
0.043	0.0
0.058	0.0
0.073	0.0
0.088	0.0
0.102	0.0
0.117	0.0
0.132	0.0
0.147	0.0
0.162	0.0
0.176	0.0
0.191	0.0
0.206	0.0
0.221	0.0
0.236	0.0
0.251	0.0
0.265	0.0
0.28	0.0
0.295	0.0
0.31	0.0
0.325	0.0
0.339	0.0
0.354	0.0
0.369	0.0
0.384	0.0
0.399	0.0
0.414	0.0
0.428	0.0
0.443	0.0
0.458	0.0
0.473	0.0
0.488	0.0
0.502	0.0
0.517	0.0
0.532	0.0
0.547	0.0
0.562	0.0
0.577	0.0
0.591	0.0
0.606	0.0
0.621	0.0
0.636	0.0
0.651	0.0
0.665	0.0
0.68	0.0
0.695	0.0
0.71	0.0
0.725	0.0
0.74	0.0
0.754	0.0
0.769	0.0
0.784	0.0
0.799	0.0
0.814	0.0
0.828	0.0
0.843	0.0
0.858	0.0
0.873	0.0
0.888	0.0
0.903	0.0
0.917	0.0
0.932	0.0
0.947	0.0
0.962	0.0
0.977	0.0
0.991	0.0
1.006	0.0
1.021	0.0
1.036	0.0
1.051	0.0
1.065	0.0
1.08	0.0
1.095	0.0
1.11	0.0
1.125	0.0
1.14	0.0
1.154	0.0
1.169	0.0
1.184	0.0
1.199	0.0
1.214	0.0
1.228	0.0
1.243	0.0
1.258	0.0
1.273	0.0
1.288	0.0
1.302	0.0
1.317	0.0
1.332	0.0
1.347	0.0
1.362	0.0
1.376	0.0
1.391	0.0
1.406	0.0
1.421	0.0
1.436	0.0
1.45	0.0
1.465	0.0
1.48	0.0
1.495	0.0
1.51	0.0
1.524	0.0
1.539	0.0
1.554	0.0
1.569	0.0
1.584	1.0
1.598	0.0
1.613	0.0
1.628	0.0
1.643	0.0
1.658	1.0
1.672	1.0
1.687	0.0
1.702	0.0
1.717	0.0
1.732	0.0
1.746	0.0
1.761	0.0
1.776	1.0
1.791	0.0
1.806	0.0
1.82	0.0
1.835	0.0
1.85	0.0
1.865	0.0
1.88	0.0
1.894	1.0
1.909	0.0
1.924	0.0
1.939	0.0
1.954	0.0
1.968	0.0
1.983	1.0
1.998	0.0
2.013	0.0
2.028	0.0
2.042	0.0
2.057	2.0
2.072	1.0
2.087	0.0
2.101	0.0
2.116	0.0
2.131	0.0
2.146	0.0
2.161	0.0
2.175	0.0
2.19	0.0
2.205	1.0
2.22	1.0
2.235	0.0
2.249	1.0
2.264	0.0
2.279	0.0
2.294	0.0
2.308	0.0
2.323	0.0
2.338	2.0
2.353	2.0
2.368	0.0
2.382	0.0
2.397	3.0
2.412	1.0
2.427	1.0
2.442	1.0
2.456	1.0
2.471	5.0
2.486	2.0
2.501	0.0
2.515	6.0
2.53	2.0
2.545	3.0
2.56	3.0
2.575	1.0
2.589	3.0
2.604	3.0
2.619	3.0
2.634	2.0
2.649	1.0
2.663	4.0
2.678	3.0
2.693	4.0
2.708	3.0
2.722	4.0
2.737	3.0
2.752	2.0
2.767	2.0
2.782	5.0
2.796	2.0
2.811	2.0
2.826	2.0
2.841	1.0
2.856	1.0
2.87	3.0
2.885	3.0
2.9	1.0
2.915	4.0
2.93	2.0
2.944	4.0
2.959	3.0
2.974	5.0
2.989	4.0
3.004	4.0
3.018	3.0
3.033	4.0
3.048	8.0
3.063	3.0
3.078	3.0
3.092	1.0
3.107	6.0
3.122	7.0
3.137	4.0
3.152	6.0
3.166	2.0
3.181	3.0
3.196	4.0
3.211	7.0
3.226	2.0
3.24	5.0
3.255	4.0
3.27	3.0
3.285	7.0
3.3	4.0
3.315	3.0
3.329	4.0
3.344	3.0
3.359	6.0
3.374	0.0
3.389	11.0
3.403	5.0
3.418	3.0
3.433	5.0
3.448	4.0
3.463	5.0
3.478	2.0
3.492	8.0
3.507	3.0
3.522	8.0
3.537	7.0
3.552	6.0
3.567	4.0
3.581	5.0
3.596	7.0
3.611	8.0
3.626	5.0
3.641	3.0
3.656	7.0
3.671	6.0
3.685	6.0
3.7	6.0
3.715	6.0
3.73	8.0
3.745	7.0
3.76	8.0
3.775	8.0
3.789	7.0
3.804	8.0
3.819	6.0
3.834	7.0
3.849	6.0
3.864	5.0
3.879	3.0
3.894	5.0
3.908	6.0
3.923	3.0
3.938	0.0
3.953	3.0
3.968	6.0
3.983	7.0
3.998	7.0
4.013	1.0
4.027	10.0
4.042	7.0
4.057	8.0
4.072	4.0
4.087	5.0
4.102	7.0
4.117	9.0
4.132	6.0
4.147	12.0
4.162	9.0
4.176	5.0
4.191	7.0
4.206	10.0
4.221	6.0
4.236	8.0
4.251	4.0
4.266	15.0
4.281	9.0
4.296	7.0
4.311	6.0
4.326	6.0
4.341	8.0
4.356	5.0
4.37	7.0
4.385	9.0
4.4	8.0
4.415	9.0
4.43	7.0
4.445	7.0
4.46	5.0
4.475	12.0
4.49	8.0
4.505	15.0
4.52	8.0
4.535	9.0
4.55	4.0
4.565	9.0
4.58	11.0
4.595	5.0
4.61	9.0
4.625	11.0
4.639	5.0
4.654	4.0
4.669	8.0
4.684	4.0
4.699	6.0
4.714	7.0
4.729	8.0
4.744	9.0
4.759	4.0
4.774	10.0
4.789	5.0
4.804	3.0
4.819	8.0
4.834	8.0
4.849	8.0
4.864	8.0
4.879	5.0
4.894	10.0
4.909	6.0
4.924	9.0
4.939	10.0
4.954	6.0
4.969	11.0
4.984	5.0
4.999	3.0
5.014	6.0
5.029	11.0
5.044	7.0
5.059	7.0
5.074	13.0
5.089	5.0
5.104	10.0
5.119	8.0
5.134	7.0
5.149	4.0
5.164	8.0
5.179	11.0
5.194	9.0
5.209	7.0
5.224	10.0
5.239	10.0
5.254	8.0
5.269	9.0
5.284	13.0
5.299	6.0
5.314	13.0
5.329	8.0
5.344	6.0
5.359	9.0
5.374	7.0
5.389	8.0
5.404	8.0
5.419	6.0
5.434	3.0
5.449	8.0
5.464	9.0
5.479	10.0
5.494	7.0
5.509	5.0
5.524	7.0
5.539	6.0
5.554	7.0
5.569	5.0
5.584	6.0
5.599	10.0
5.614	8.0
5.629	10.0
5.644	4.0
5.659	9.0
5.674	3.0
5.689	4.0
5.704	11.0
5.719	9.0
5.734	10.0
5.749	3.0
5.764	9.0
5.779	10.0
5.794	13.0
5.809	8.0
5.824	10.0
5.839	7.0
5.854	15.0
5.869	11.0
5.884	6.0
5.899	9.0
5.914	7.0
5.929	5.0
5.944	9.0
5.959	10.0
5.974	17.0
5.989	9.0
6.004	13.0
6.019	8.0
6.034	6.0
6.049	8.0
6.064	9.0
6.079	5.0
6.094	8.0
6.109	8.0
6.124	3.0
6.139	6.0
6.154	7.0
6.169	12.0
6.184	11.0
6.199	9.0
6.214	17.0
6.229	8.0
6.244	8.0
6.259	10.0
6.274	10.0
6.289	8.0
6.304	6.0
6.319	8.0
6.334	8.0
6.349	17.0
6.364	8.0
6.379	5.0
6.394	7.0
6.409	13.0
6.424	10.0
6.439	10.0
6.454	12.0
6.469	8.0
6.484	4.0
6.499	7.0
6.514	5.0
6.529	10.0
6.544	11.0
6.559	13.0
6.574	10.0
6.589	7.0
6.604	14.0
6.619	11.0
6.634	11.0
6.649	7.0
6.664	11.0
6.679	16.0
6.694	6.0
6.709	7.0
6.724	7.0
6.739	10.0
6.754	10.0
6.769	6.0
6.784	4.0
6.799	6.0
6.814	6.0
6.829	9.0
6.844	14.0
6.859	8.0
6.873	8.0
6.888	8.0
6.903	10.0
6.918	8.0
6.933	10.0
6.948	7.0
6.963	11.0
6.978	10.0
6.993	5.0
7.008	8.0
7.023	6.0
7.038	9.0
7.053	7.0
7.068	10.0
7.083	4.0
7.098	7.0
7.113	7.0
7.128	9.0
7.143	6.0
7.157	8.0
7.172	10.0
7.187	7.0
7.202	6.0
7.217	8.0
7.232	10.0
7.247	11.0
7.262	8.0
7.277	14.0
7.292	18.0
7.307	10.0
7.322	11.0
7.336	4.0
7.351	11.0
7.366	12.0
7.381	10.0
7.396	11.0
7.411	8.0
7.426	17.0
7.441	8.0
7.456	12.0
7.471	8.0
7.485	13.0
7.5	8.0
7.515	7.0
7.53	6.0
7.545	5.0
7.56	7.0
7.575	10.0
7.59	10.0
7.604	9.0
7.619	10.0
7.634	15.0
7.649	9.0
7.664	9.0
7.679	8.0
7.693	7.0
7.708	10.0
7.723	10.0
7.738	7.0
7.753	10.0
7.768	13.0
7.783	6.0
7.797	10.0
7.812	10.0
7.827	10.0
7.842	9.0
7.857	10.0
7.871	10.0
7.886	6.0
7.901	9.0
7.916	9.0
7.931	14.0
7.945	6.0
7.96	8.0
7.975	11.0
7.99	9.0
8.005	9.0
8.019	9.0
8.034	8.0
8.049	9.0
8.064	4.0
8.078	7.0
8.093	8.0
8.108	8.0
8.123	13.0
8.137	9.0
8.152	5.0
8.167	10.0
8.182	5.0
8.196	9.0
8.211	9.0
8.226	10.0
8.241	15.0
8.255	10.0
8.27	9.0
8.285	6.0
8.3	12.0
8.314	10.0
8.329	5.0
8.344	10.0
8.358	11.0
8.373	10.0
8.388	11.0
8.403	9.0
8.417	13.0
8.432	13.0
8.447	7.0
8.461	9.0
8.476	7.0
8.491	5.0
8.505	7.0
8.52	12.0
8.535	13.0
8.55	6.0
8.564	7.0
8.579	5.0
8.594	9.0
8.608	11.0
8.623	7.0
8.638	7.0
8.652	10.0
8.667	14.0
8.682	9.0
8.696	8.0
8.711	7.0
8.726	11.0
8.74	10.0
8.755	8.0
8.77	11.0
8.784	8.0
8.799	10.0
8.814	12.0
8.828	11.0
8.843	9.0
8.858	6.0
8.872	9.0
8.887	10.0
8.902	14.0
8.916	9.0
8.931	11.0
8.946	9.0
8.96	11.0
8.975	10.0
8.99	5.0
9.004	5.0
9.019	4.0
9.034	11.0
9.048	9.0
9.063	7.0
9.077	11.0
9.092	8.0
9.107	6.0
9.121	9.0
9.136	10.0
9.151	9.0
9.165	3.0
9.18	8.0
9.195	7.0
9.209	8.0
9.224	6.0
9.239	11.0
9.253	11.0
9.268	8.0
9.283	7.0
9.297	12.0
9.312	10.0
9.327	15.0
9.341	11.0
9.356	11.0
9.371	7.0
9.385	8.0
9.4	14.0
9.415	7.0
9.429	10.0
9.444	8.0
9.458	9.0
9.473	12.0
9.488	9.0
9.502	6.0
9.517	7.0
9.532	12.0
9.546	14.0
9.561	6.0
9.576	7.0
9.59	9.0
9.605	8.0
9.62	4.0
9.635	10.0
9.649	16.0
9.664	10.0
9.679	8.0
9.693	9.0
9.708	15.0
9.723	8.0
9.737	4.0
9.752	10.0
9.767	9.0
9.781	11.0
9.796	14.0
9.811	11.0
9.825	7.0
9.84	9.0
9.855	6.0
9.87	13.0
9.884	9.0
9.899	13.0
9.914	4.0
9.928	7.0
9.943	8.0
9.958	5.0
9.973	8.0
9.987	11.0
10.002	9.0
10.017	8.0
10.031	10.0
10.046	5.0
10.061	8.0
10.076	5.0
10.09	9.0
10.105	14.0
10.12	11.0
10.135	16.0
10.149	5.0
10.164	14.0
10.179	4.0
10.194	8.0
10.208	10.0
10.223	6.0
10.238	9.0
10.253	3.0
10.267	6.0
10.282	9.0
10.297	10.0
10.312	11.0
10.326	8.0
10.341	8.0
10.356	8.0
10.371	12.0
10.386	4.0
10.4	6.0
10.415	6.0
10.43	7.0
10.445	6.0
10.46	7.0
10.474	6.0
10.489	7.0
10.504	7.0
10.519	10.0
10.533	8.0
10.548	6.0
10.563	10.0
10.578	6.0
10.593	7.0
10.608	10.0
10.622	8.0
10.637	8.0
10.652	8.0
10.667	12.0
10.682	4.0
10.696	6.0
10.711	8.0
10.726	6.0
10.741	8.0
10.756	8.0
10.771	7.0
10.785	10.0
10.8	11.0
10.815	16.0
10.83	5.0
10.845	7.0
10.86	4.0
10.874	10.0
10.889	7.0
10.904	10.0
10.919	7.0
10.934	12.0
10.949	6.0
10.963	9.0
10.978	9.0
10.993	11.0
11.008	10.0
11.023	7.0
11.038	13.0
11.053	14.0
11.067	8.0
11.082	8.0
11.097	5.0
11.112	12.0
11.127	14.0
11.142	6.0
11.157	5.0
11.172	8.0
11.186	7.0
11.201	11.0
11.216	5.0
11.231	4.0
11.246	10.0
11.261	7.0
11.276	10.0
11.291	7.0
11.305	9.0
11.32	9.0
11.335	5.0
11.35	8.0
11.365	5.0
11.38	12.0
11.395	10.0
11.41	11.0
11.424	6.0
11.439	10.0
11.454	6.0
11.469	8.0
11.484	8.0
11.499	8.0
11.514	6.0
11.529	7.0
11.544	8.0
11.558	13.0
11.573	8.0
11.588	12.0
11.603	6.0
11.618	7.0
11.633	8.0
11.648	11.0
11.663	4.0
11.678	6.0
11.693	11.0
11.707	5.0
11.722	7.0
11.737	10.0
11.752	6.0
11.767	3.0
11.782	13.0
11.797	7.0
11.812	4.0
11.827	12.0
11.842	7.0
11.856	7.0
11.871	10.0
11.886	12.0
11.901	8.0
11.916	9.0
11.931	5.0
11.946	8.0
11.961	7.0
11.976	16.0
11.991	10.0
12.006	12.0
12.02	12.0
12.035	7.0
12.05	10.0
12.065	10.0
12.08	13.0
12.095	3.0
12.11	10.0
12.125	8.0
12.14	12.0
12.155	10.0
12.17	12.0
12.184	8.0
12.199	5.0
12.214	10.0
12.229	15.0
12.244	17.0
12.259	14.0
12.274	9.0
12.289	7.0
12.304	12.0
12.319	12.0
12.334	7.0
12.348	6.0
12.363	11.0
12.378	9.0
12.393	5.0
12.408	7.0
12.423	12.0
12.438	12.0
12.453	14.0
12.468	8.0
12.483	15.0
12.498	14.0
12.513	13.0
12.527	17.0
12.542	9.0
12.557	9.0
12.572	14.0
12.587	17.0
12.602	9.0
12.617	18.0
12.632	15.0
12.647	8.0
12.662	7.0
12.677	13.0
12.692	18.0
12.707	15.0
12.721	14.0
12.736	14.0
12.751	18.0
12.766	16.0
12.781	16.0
12.796	18.0
12.811	14.0
12.826	16.0
12.841	13.0
12.856	16.0
12.871	12.0
12.886	14.0
12.9	14.0
12.915	14.0
12.93	10.0
12.945	14.0
12.96	13.0
12.975	14.0
12.99	24.0
13.005	16.0
13.02	16.0
13.035	15.0
13.05	19.0
13.065	16.0
13.08	13.0
13.094	15.0
13.109	22.0
13.124	18.0
13.139	21.0
13.154	15.0
13.169	18.0
13.184	17.0
13.199	17.0
13.214	19.0
13.229	13.0
13.244	15.0
13.259	17.0
13.274	22.0
13.288	13.0
13.303	18.0
13.318	16.0
13.333	16.0
13.348	24.0
13.363	23.0
13.378	20.0
13.393	26.0
13.408	33.0
13.423	27.0
13.438	20.0
13.453	28.0
13.468	30.0
13.482	34.0
13.497	32.0
13.512	41.0
13.527	50.0
13.542	41.0
13.557	48.0
13.572	60.0
13.587	86.0
13.602	60.0
13.617	61.0
13.632	71.0
13.647	66.0
13.662	75.0
13.677	82.0
13.691	83.0
13.706	91.0
13.721	104.0
13.736	90.0
13.751	93.0
13.766	112.0
13.781	138.0
13.796	132.0
13.811	129.0
13.826	121.0
13.841	130.0
13.856	126.0
13.871	119.0
13.885	96.0
13.9	110.0
13.915	92.0
13.93	78.0
13.945	51.0
13.96	45.0
13.975	39.0
13.99	34.0
14.005	31.0
14.02	25.0
14.035	27.0
14.05	20.0
14.065	34.0
14.08	20.0
14.094	29.0
14.109	24.0
14.124	20.0
14.139	20.0
14.154	18.0
14.169	18.0
14.184	24.0
14.199	26.0
14.214	18.0
14.229	32.0
14.244	24.0
14.259	20.0
14.274	26.0
14.288	17.0
14.303	20.0
14.318	14.0
14.333	16.0
14.348	21.0
14.363	24.0
14.378	27.0
14.393	24.0
14.408	24.0
14.423	14.0
14.438	21.0
14.453	24.0
14.468	16.0
14.482	10.0
14.497	26.0
14.512	19.0
14.527	14.0
14.542	20.0
14.557	18.0
14.572	17.0
14.587	13.0
14.602	14.0
14.617	16.0
14.632	16.0
14.647	19.0
14.661	15.0
14.676	19.0
14.691	15.0
14.706	21.0
14.721	27.0
14.736	15.0
14.751	13.0
14.766	14.0
14.781	13.0
14.796	20.0
14.811	13.0
14.826	17.0
14.84	15.0
14.855	21.0
14.87	15.0
14.885	17.0
14.9	16.0
14.915	16.0
14.93	12.0
14.945	10.0
14.96	11.0
14.975	19.0
14.989	13.0
15.004	21.0
15.019	11.0
15.034	10.0
15.049	19.0
15.064	18.0
15.079	19.0
15.094	4.0
15.109	15.0
15.124	14.0
15.138	16.0
15.153	21.0
15.168	9.0
15.183	11.0
15.198	11.0
15.213	8.0
15.228	16.0
15.243	16.0
15.258	16.0
15.272	14.0
15.287	20.0
15.302	14.0
15.317	17.0
15.332	19.0
15.347	18.0
15.362	20.0
15.377	15.0
15.391	17.0
15.406	16.0
15.421	9.0
15.436	18.0
15.451	11.0
15.466	14.0
15.481	8.0
15.496	16.0
15.51	16.0
15.525	8.0
15.54	16.0
15.555	9.0
15.57	16.0
15.585	9.0
15.6	14.0
15.614	12.0
15.629	21.0
15.644	18.0
15.659	22.0
15.674	10.0
15.689	15.0
15.704	15.0
15.718	14.0
15.733	11.0
15.748	16.0
15.763	16.0
15.778	13.0
15.793	8.0
15.808	9.0
15.822	13.0
15.837	7.0
15.852	13.0
15.867	6.0
15.882	16.0
15.897	12.0
15.911	14.0
15.926	17.0
15.941	13.0
15.956	18.0
15.971	15.0
15.986	19.0
16.0	10.0
16.015	17.0
16.03	16.0
16.045	10.0
16.06	8.0
16.074	21.0
16.089	15.0
16.104	12.0
16.119	20.0
16.134	21.0
16.149	11.0
16.163	10.0
16.178	15.0
16.193	12.0
16.208	15.0
16.223	15.0
16.237	17.0
16.252	18.0
16.267	11.0
16.282	14.0
16.297	10.0
16.311	21.0
16.326	17.0
16.341	17.0
16.356	14.0
16.37	17.0
16.385	22.0
16.4	12.0
16.415	21.0
16.43	9.0
16.444	14.0
16.459	9.0
16.474	10.0
16.489	13.0
16.504	17.0
16.518	15.0
16.533	19.0
16.548	19.0
16.563	14.0
16.577	15.0
16.592	20.0
16.607	13.0
16.622	20.0
16.637	20.0
16.651	22.0
16.666	20.0
16.681	24.0
16.696	23.0
16.71	24.0
16.725	38.0
16.74	25.0
16.755	30.0
16.77	44.0
16.784	23.0
16.799	38.0
16.814	48.0
16.829	47.0
16.843	43.0
16.858	37.0
16.873	47.0
16.888	64.0
16.902	66.0
16.917	62.0
16.932	73.0
16.947	72.0
16.961	74.0
16.976	70.0
16.991	71.0
17.006	46.0
17.021	65.0
17.035	57.0
17.05	54.0
17.065	45.0
17.08	51.0
17.094	35.0
17.109	32.0
17.124	25.0
17.139	29.0
17.153	18.0
17.168	14.0
17.183	19.0
17.198	20.0
17.212	15.0
17.227	18.0
17.242	18.0
17.257	15.0
17.271	19.0
17.286	15.0
17.301	6.0
17.316	18.0
17.33	14.0
17.345	19.0
17.36	21.0
17.375	12.0
17.39	13.0
17.404	10.0
17.419	21.0
17.434	9.0
17.449	16.0
17.463	11.0
17.478	17.0
17.493	12.0
17.508	12.0
17.522	20.0
17.537	17.0
17.552	5.0
17.567	16.0
17.581	16.0
17.596	12.0
17.611	17.0
17.626	10.0
17.641	9.0
17.655	10.0
17.67	12.0
17.685	16.0
17.7	25.0
17.714	15.0
17.729	15.0
17.744	23.0
17.759	10.0
17.773	9.0
17.788	14.0
17.803	11.0
17.818	11.0
17.833	15.0
17.847	15.0
17.862	9.0
17.877	13.0
17.892	7.0
17.906	12.0
17.921	18.0
17.936	11.0
17.951	21.0
17.966	16.0
17.98	10.0
17.995	11.0
18.01	11.0
18.025	11.0
18.04	11.0
18.054	12.0
18.069	10.0
18.084	17.0
18.099	10.0
18.114	10.0
18.128	7.0
18.143	10.0
18.158	11.0
18.173	13.0
18.188	12.0
18.202	13.0
18.217	16.0
18.232	11.0
18.247	12.0
18.262	9.0
18.276	16.0
18.291	14.0
18.306	8.0
18.321	16.0
18.336	15.0
18.35	13.0
18.365	8.0
18.38	12.0
18.395	15.0
18.41	9.0
18.424	20.0
18.439	6.0
18.454	10.0
18.469	8.0
18.484	12.0
18.498	11.0
18.513	8.0
18.528	7.0
18.543	9.0
18.558	9.0
18.573	11.0
18.587	15.0
18.602	16.0
18.617	11.0
18.632	17.0
18.647	12.0
18.661	13.0
18.676	6.0
18.691	13.0
18.706	11.0
18.721	19.0
18.736	10.0
18.75	10.0
18.765	13.0
18.78	13.0
18.795	12.0
18.81	9.0
18.825	17.0
18.839	19.0
18.854	16.0
18.869	10.0
18.884	14.0
18.899	14.0
18.913	8.0
18.928	8.0
18.943	12.0
18.958	11.0
18.973	8.0
18.988	7.0
19.002	10.0
19.017	11.0
19.032	5.0
19.047	14.0
19.062	10.0
19.077	14.0
19.091	8.0
19.106	10.0
19.121	6.0
19.136	12.0
19.151	13.0
19.165	13.0
19.18	9.0
19.195	12.0
19.21	11.0
19.225	12.0
19.24	8.0
19.254	13.0
19.269	19.0
19.284	8.0
19.299	17.0
19.314	18.0
19.329	15.0
19.343	18.0
19.358	13.0
19.373	15.0
19.388	13.0
19.403	22.0
19.417	24.0
19.432	26.0
19.447	20.0
19.462	24.0
19.477	30.0
19.492	20.0
19.506	31.0
19.521	32.0
19.536	31.0
19.551	35.0
19.566	44.0
19.58	39.0
19.595	58.0
19.61	45.0
19.625	29.0
19.64	33.0
19.655	32.0
19.669	38.0
19.684	26.0
19.699	28.0
19.714	26.0
19.729	27.0
19.743	19.0
19.758	19.0
19.773	12.0
19.788	25.0
19.803	17.0
19.817	10.0
19.832	24.0
19.847	18.0
19.862	11.0
19.877	10.0
19.891	15.0
19.906	11.0
19.921	12.0
19.936	9.0
19.951	13.0
19.965	16.0
19.98	8.0
19.995	8.0
20.01	9.0
20.025	16.0
20.039	7.0
20.054	15.0
20.069	12.0
20.084	11.0
20.099	15.0
20.113	7.0
20.128	12.0
20.143	10.0
20.158	13.0
20.173	15.0
20.187	14.0
20.202	10.0
20.217	15.0
20.232	10.0
20.246	14.0
20.261	9.0
20.276	7.0
20.291	15.0
20.306	9.0
20.32	11.0
20.335	17.0
20.35	14.0
20.365	9.0
20.38	12.0
20.394	5.0
20.409	14.0
20.424	10.0
20.439	9.0
20.453	15.0
20.468	11.0
20.483	20.0
20.498	6.0
20.513	8.0
20.527	10.0
20.542	15.0
20.557	8.0
20.572	14.0
20.586	14.0
20.601	7.0
20.616	10.0
20.631	18.0
20.646	9.0
20.66	6.0
20.675	9.0
20.69	10.0
20.705	8.0
20.719	15.0
20.734	14.0
20.749	13.0
20.764	12.0
20.779	10.0
20.793	6.0
20.808	13.0
20.823	10.0
20.838	10.0
20.853	11.0
20.867	10.0
20.882	19.0
20.897	15.0
20.912	8.0
20.926	10.0
20.941	8.0
20.956	7.0
20.971	15.0
20.986	9.0
21.0	14.0
21.015	9.0
21.03	10.0
21.045	10.0
21.06	10.0
21.074	12.0
21.089	7.0
21.104	9.0
21.119	12.0
21.134	11.0
21.148	6.0
21.163	9.0
21.178	13.0
21.193	15.0
21.208	18.0
21.222	15.0
21.237	13.0
21.252	8.0
21.267	11.0
21.282	6.0
21.296	7.0
21.311	11.0
21.326	12.0
21.341	11.0
21.356	10.0
21.37	11.0
21.385	14.0
21.4	17.0
21.415	10.0
21.43	14.0
21.444	9.0
21.459	11.0
21.474	14.0
21.489	16.0
21.504	11.0
21.519	9.0
21.533	13.0
21.548	7.0
21.563	12.0
21.578	13.0
21.593	21.0
21.608	9.0
21.622	19.0
21.637	15.0
21.652	17.0
21.667	10.0
21.682	17.0
21.697	13.0
21.712	26.0
21.726	17.0
21.741	19.0
21.756	26.0
21.771	26.0
21.786	28.0
21.801	39.0
21.816	38.0
21.83	41.0
21.845	46.0
21.86	56.0
21.875	58.0
21.89	67.0
21.905	63.0
21.92	75.0
21.935	61.0
21.949	73.0
21.964	95.0
21.979	71.0
21.994	73.0
22.009	76.0
22.024	56.0
22.039	61.0
22.054	59.0
22.069	52.0
22.083	50.0
22.098	43.0
22.113	41.0
22.128	37.0
22.143	23.0
22.158	22.0
22.173	22.0
22.188	22.0
22.203	17.0
22.218	14.0
22.233	17.0
22.248	14.0
22.262	20.0
22.277	18.0
22.292	10.0
22.307	15.0
22.322	12.0
22.337	10.0
22.352	17.0
22.367	10.0
22.382	9.0
22.397	12.0
22.412	8.0
22.427	19.0
22.442	11.0
22.457	11.0
22.472	16.0
22.487	15.0
22.502	13.0
22.516	14.0
22.531	10.0
22.546	14.0
22.561	17.0
22.576	11.0
22.591	16.0
22.606	11.0
22.621	10.0
22.636	14.0
22.651	14.0
22.666	12.0
22.681	11.0
22.696	10.0
22.711	15.0
22.726	17.0
22.741	10.0
22.756	14.0
22.771	7.0
22.786	9.0
22.801	12.0
22.816	13.0
22.831	7.0
22.846	12.0
22.861	16.0
22.876	14.0
22.891	10.0
22.906	15.0
22.92	12.0
22.935	9.0
22.95	7.0
22.965	15.0
22.98	12.0
22.995	12.0
23.01	11.0
23.025	14.0
23.04	10.0
23.055	10.0
23.07	12.0
23.085	11.0
23.1	7.0
23.115	10.0
23.13	9.0
23.145	9.0
23.16	14.0
23.175	9.0
23.19	6.0
23.205	12.0
23.22	14.0
23.235	11.0
23.25	11.0
23.265	14.0
23.28	15.0
23.295	13.0
23.31	12.0
23.325	9.0
23.34	11.0
23.355	14.0
23.37	8.0
23.384	13.0
23.399	9.0
23.414	15.0
23.429	7.0
23.444	9.0
23.459	14.0
23.474	12.0
23.489	14.0
23.504	10.0
23.519	5.0
23.534	14.0
23.549	3.0
23.564	10.0
23.579	13.0
23.594	9.0
23.609	13.0
23.624	13.0
23.639	9.0
23.654	10.0
23.668	10.0
23.683	17.0
23.698	8.0
23.713	12.0
23.728	10.0
23.743	12.0
23.758	7.0
23.773	5.0
23.788	13.0
23.803	14.0
23.818	15.0
23.833	6.0
23.848	11.0
23.862	13.0
23.877	19.0
23.892	26.0
23.907	18.0
23.922	13.0
23.937	37.0
23.952	23.0
23.967	24.0
23.982	41.0
23.997	34.0
24.011	33.0
24.026	56.0
24.041	57.0
24.056	40.0
24.071	38.0
24.086	69.0
24.101	44.0
24.116	63.0
24.131	35.0
24.145	40.0
24.16	35.0
24.175	42.0
24.19	41.0
24.205	35.0
24.22	24.0
24.235	38.0
24.249	33.0
24.264	19.0
24.279	27.0
24.294	24.0
24.309	24.0
24.324	22.0
24.338	18.0
24.353	17.0
24.368	18.0
24.383	18.0
24.398	11.0
24.413	8.0
24.428	14.0
24.442	9.0
24.457	15.0
24.472	19.0
24.487	11.0
24.502	8.0
24.516	11.0
24.531	10.0
24.546	10.0
24.561	10.0
24.576	11.0
24.591	11.0
24.605	11.0
24.62	16.0
24.635	14.0
24.65	8.0
24.665	14.0
24.679	12.0
24.694	7.0
24.709	10.0
24.724	10.0
24.739	10.0
24.753	7.0
24.768	11.0
24.783	11.0
24.798	6.0
24.813	15.0
24.827	6.0
24.842	13.0
24.857	15.0
24.872	8.0
24.886	4.0
24.901	11.0
24.916	13.0
24.931	8.0
24.946	12.0
24.96	11.0
24.975	16.0
24.99	12.0
25.005	12.0
25.019	11.0
25.034	10.0
25.049	7.0
25.064	9.0
25.078	7.0
25.093	14.0
25.108	11.0
25.123	9.0
25.138	13.0
25.152	14.0
25.167	9.0
25.182	9.0
25.197	8.0
25.211	11.0
25.226	9.0
25.241	7.0
25.256	10.0
25.27	13.0
25.285	14.0
25.3	9.0
25.315	10.0
25.329	7.0
25.344	9.0
25.359	7.0
25.374	11.0
25.388	10.0
25.403	10.0
25.418	8.0
25.433	13.0
25.447	6.0
25.462	13.0
25.477	15.0
25.492	8.0
25.506	7.0
25.521	8.0
25.536	9.0
25.55	13.0
25.565	6.0
25.58	9.0
25.595	7.0
25.609	9.0
25.624	8.0
25.639	10.0
25.654	13.0
25.668	7.0
25.683	8.0
25.698	10.0
25.713	8.0
25.727	9.0
25.742	12.0
25.757	7.0
25.772	5.0
25.786	11.0
25.801	10.0
25.816	8.0
25.83	5.0
25.845	8.0
25.86	9.0
25.875	7.0
25.889	10.0
25.904	9.0
25.919	6.0
25.934	9.0
25.948	11.0
25.963	7.0
25.978	14.0
25.992	9.0
26.007	7.0
26.022	11.0
26.037	8.0
26.051	5.0
26.066	12.0
26.081	12.0
26.096	12.0
26.11	14.0
26.125	12.0
26.14	10.0
26.155	13.0
26.169	11.0
26.184	10.0
26.199	10.0
26.213	10.0
26.228	9.0
26.243	10.0
26.258	15.0
26.272	9.0
26.287	6.0
26.302	7.0
26.317	7.0
26.331	9.0
26.346	7.0
26.361	11.0
26.376	8.0
26.39	7.0
26.405	10.0
26.42	9.0
26.434	9.0
26.449	5.0
26.464	14.0
26.479	4.0
26.493	13.0
26.508	9.0
26.523	6.0
26.538	15.0
26.552	11.0
26.567	7.0
26.582	10.0
26.597	8.0
26.611	8.0
26.626	5.0
26.641	9.0
26.656	14.0
26.67	8.0
26.685	9.0
26.7	9.0
26.715	5.0
26.729	7.0
26.744	12.0
26.759	7.0
26.773	7.0
26.788	11.0
26.803	9.0
26.818	10.0
26.832	13.0
26.847	8.0
26.862	9.0
26.877	20.0
26.891	5.0
26.906	7.0
26.921	12.0
26.936	5.0
26.95	10.0
26.965	9.0
26.98	9.0
26.995	10.0
27.01	9.0
27.024	7.0
27.039	7.0
27.054	8.0
27.069	18.0
27.083	12.0
27.098	10.0
27.113	7.0
27.128	16.0
27.142	9.0
27.157	10.0
27.172	6.0
27.187	13.0
27.201	13.0
27.216	6.0
27.231	12.0
27.246	13.0
27.261	7.0
27.275	9.0
27.29	5.0
27.305	18.0
27.32	8.0
27.334	13.0
27.349	12.0
27.364	10.0
27.379	14.0
27.394	7.0
27.408	8.0
27.423	8.0
27.438	7.0
27.453	7.0
27.467	10.0
27.482	10.0
27.497	13.0
27.512	9.0
27.527	17.0
27.541	9.0
27.556	8.0
27.571	8.0
27.586	14.0
27.601	11.0
27.615	8.0
27.63	11.0
27.645	11.0
27.66	9.0
27.675	9.0
27.689	11.0
27.704	8.0
27.719	13.0
27.734	15.0
27.749	15.0
27.763	21.0
27.778	19.0
27.793	14.0
27.808	17.0
27.823	18.0
27.838	28.0
27.852	29.0
27.867	24.0
27.882	32.0
27.897	28.0
27.912	24.0
27.926	17.0
27.941	25.0
27.956	16.0
27.971	13.0
27.986	27.0
28.001	13.0
28.015	12.0
28.03	16.0
28.045	10.0
28.06	19.0
28.075	14.0
28.09	16.0
28.105	10.0
28.119	9.0
28.134	19.0
28.149	9.0
28.164	12.0
28.179	12.0
28.194	17.0
28.208	11.0
28.223	12.0
28.238	13.0
28.253	10.0
28.268	13.0
28.283	9.0
28.298	6.0
28.312	11.0
28.327	8.0
28.342	7.0
28.357	8.0
28.372	17.0
28.387	14.0
28.402	14.0
28.417	13.0
28.431	7.0
28.446	18.0
28.461	9.0
28.476	8.0
28.491	12.0
28.506	11.0
28.521	8.0
28.536	8.0
28.55	16.0
28.565	12.0
28.58	9.0
28.595	13.0
28.61	14.0
28.625	12.0
28.64	10.0
28.655	12.0
28.669	9.0
28.684	14.0
28.699	13.0
28.714	7.0
28.729	12.0
28.744	6.0
28.759	9.0
28.774	9.0
28.788	8.0
28.803	8.0
28.818	8.0
28.833	19.0
28.848	8.0
28.863	9.0
28.878	13.0
28.893	10.0
28.908	13.0
28.922	7.0
28.937	13.0
28.952	8.0
28.967	6.0
28.982	15.0
28.997	4.0
29.012	14.0
29.027	10.0
29.041	13.0
29.056	16.0
29.071	14.0
29.086	11.0
29.101	11.0
29.116	14.0
29.131	15.0
29.146	7.0
29.16	9.0
29.175	4.0
29.19	15.0
29.205	9.0
29.22	8.0
29.235	15.0
29.25	10.0
29.265	13.0
29.279	13.0
29.294	8.0
29.309	11.0
29.324	15.0
29.339	14.0
29.354	16.0
29.369	16.0
29.384	14.0
29.398	18.0
29.413	21.0
29.428	11.0
29.443	28.0
29.458	22.0
29.473	22.0
29.488	26.0
29.502	40.0
29.517	33.0
29.532	36.0
29.547	35.0
29.562	50.0
29.577	51.0
29.592	51.0
29.606	60.0
29.621	43.0
29.636	46.0
29.651	48.0
29.666	43.0
29.681	41.0
29.695	47.0
29.71	37.0
29.725	35.0
29.74	32.0
29.755	36.0
29.77	38.0
29.784	31.0
29.799	36.0
29.814	28.0
29.829	23.0
29.844	20.0
29.859	23.0
29.873	18.0
29.888	19.0
29.903	19.0
29.918	16.0
29.933	10.0
29.947	17.0
29.962	19.0
29.977	7.0
29.992	11.0
30.007	10.0
30.021	14.0
30.036	12.0
30.051	11.0
30.066	12.0
30.081	16.0
30.095	9.0
30.11	13.0
30.125	17.0
30.14	7.0
30.155	10.0
30.169	8.0
30.184	14.0
30.199	10.0
30.214	13.0
30.228	7.0
30.243	10.0
30.258	14.0
30.273	11.0
30.288	14.0
30.302	10.0
30.317	8.0
30.332	16.0
30.347	7.0
30.361	9.0
30.376	6.0
30.391	9.0
30.406	11.0
30.42	13.0
30.435	9.0
30.45	11.0
30.465	12.0
30.479	10.0
30.494	11.0
30.509	9.0
30.524	12.0
30.538	10.0
30.553	13.0
30.568	10.0
30.583	15.0
30.597	5.0
30.612	12.0
30.627	12.0
30.641	14.0
30.656	8.0
30.671	8.0
30.686	10.0
30.7	11.0
30.715	10.0
30.73	10.0
30.745	6.0
30.759	13.0
30.774	13.0
30.789	10.0
30.803	6.0
30.818	14.0
30.833	14.0
30.848	6.0
30.862	7.0
30.877	8.0
30.892	12.0
30.906	12.0
30.921	10.0
30.936	15.0
30.951	9.0
30.965	8.0
30.98	11.0
30.995	10.0
31.009	11.0
31.024	15.0
31.039	18.0
31.053	12.0
31.068	12.0
31.083	24.0
31.098	14.0
31.112	17.0
31.127	30.0
31.142	19.0
31.156	28.0
31.171	35.0
31.186	27.0
31.2	27.0
31.215	35.0
31.23	39.0
31.245	40.0
31.259	35.0
31.274	38.0
31.289	39.0
31.303	37.0
31.318	37.0
31.333	38.0
31.347	23.0
31.362	27.0
31.377	25.0
31.392	24.0
31.406	34.0
31.421	25.0
31.436	20.0
31.45	29.0
31.465	26.0
31.48	19.0
31.494	27.0
31.509	25.0
31.524	19.0
31.538	17.0
31.553	11.0
31.568	12.0
31.583	9.0
31.597	14.0
31.612	13.0
31.627	11.0
31.641	23.0
31.656	8.0
31.671	15.0
31.685	12.0
31.7	6.0
31.715	11.0
31.729	9.0
31.744	13.0
31.759	9.0
31.774	8.0
31.788	7.0
31.803	15.0
31.818	11.0
31.832	12.0
31.847	10.0
31.862	8.0
31.876	13.0
31.891	17.0
31.906	11.0
31.92	6.0
31.935	12.0
31.95	7.0
31.965	8.0
31.979	10.0
31.994	9.0
32.009	10.0
32.023	10.0
32.038	10.0
32.053	5.0
32.067	10.0
32.082	7.0
32.097	5.0
32.112	7.0
32.126	11.0
32.141	11.0
32.156	13.0
32.17	14.0
32.185	10.0
32.2	9.0
32.214	10.0
32.229	12.0
32.244	16.0
32.259	10.0
32.273	10.0
32.288	16.0
32.303	7.0
32.317	10.0
32.332	11.0
32.347	9.0
32.362	9.0
32.376	12.0
32.391	14.0
32.406	13.0
32.42	10.0
32.435	11.0
32.45	9.0
32.465	9.0
32.479	13.0
32.494	9.0
32.509	13.0
32.523	7.0
32.538	6.0
32.553	11.0
32.568	8.0
32.582	7.0
32.597	10.0
32.612	7.0
32.627	16.0
32.641	9.0
32.656	12.0
32.671	18.0
32.685	8.0
32.7	13.0
32.715	5.0
32.73	17.0
32.744	27.0
32.759	27.0
32.774	30.0
32.788	32.0
32.803	23.0
32.818	17.0
32.833	23.0
32.847	37.0
32.862	33.0
32.877	24.0
32.892	24.0
32.906	28.0
32.921	21.0
32.936	22.0
32.951	14.0
32.965	15.0
32.98	27.0
32.995	24.0
33.009	23.0
33.024	24.0
33.039	13.0
33.054	20.0
33.068	24.0
33.083	18.0
33.098	12.0
33.113	11.0
33.127	22.0
33.142	11.0
33.157	11.0
33.172	9.0
33.186	12.0
33.201	11.0
33.216	10.0
33.231	7.0
33.245	11.0
33.26	12.0
33.275	18.0
33.29	9.0
33.304	14.0
33.319	7.0
33.334	12.0
33.349	7.0
33.363	14.0
33.378	8.0
33.393	6.0
33.408	6.0
33.422	14.0
33.437	15.0
33.452	3.0
33.467	12.0
33.481	9.0
33.496	10.0
33.511	9.0
33.526	8.0
33.54	8.0
33.555	12.0
33.57	8.0
33.585	5.0
33.599	9.0
33.614	12.0
33.629	4.0
33.644	16.0
33.658	13.0
33.673	6.0
33.688	7.0
33.703	7.0
33.718	4.0
33.732	18.0
33.747	9.0
33.762	10.0
33.777	4.0
33.791	4.0
33.806	10.0
33.821	6.0
33.836	8.0
33.85	11.0
33.865	13.0
33.88	8.0
33.895	6.0
33.91	14.0
33.924	7.0
33.939	5.0
33.954	11.0
33.969	11.0
33.983	6.0
33.998	12.0
34.013	7.0
34.028	12.0
34.042	12.0
34.057	19.0
34.072	7.0
34.087	9.0
34.102	7.0
34.116	14.0
34.131	8.0
34.146	16.0
34.161	12.0
34.175	14.0
34.19	17.0
34.205	14.0
34.22	15.0
34.235	14.0
34.249	17.0
34.264	13.0
34.279	6.0
34.294	11.0
34.309	17.0
34.323	15.0
34.338	9.0
34.353	15.0
34.368	7.0
34.382	12.0
34.397	22.0
34.412	14.0
34.427	12.0
34.442	11.0
34.456	10.0
34.471	12.0
34.486	10.0
34.501	9.0
34.516	11.0
34.53	15.0
34.545	16.0
34.56	16.0
34.575	11.0
34.59	5.0
34.604	9.0
34.619	9.0
34.634	7.0
34.649	12.0
34.664	17.0
34.678	6.0
34.693	10.0
34.708	18.0
34.723	11.0
34.738	11.0
34.752	11.0
34.767	13.0
34.782	12.0
34.797	10.0
34.812	6.0
34.826	7.0
34.841	4.0
34.856	8.0
34.871	16.0
34.886	13.0
34.9	13.0
34.915	6.0
34.93	5.0
34.945	9.0
34.96	6.0
34.974	7.0
34.989	2.0
35.004	6.0
35.019	9.0
35.034	9.0
35.048	6.0
35.063	9.0
35.078	12.0
35.093	8.0
35.108	6.0
35.122	8.0
35.137	11.0
35.152	12.0
35.167	10.0
35.182	9.0
35.196	7.0
35.211	6.0
35.226	6.0
35.241	9.0
35.256	12.0
35.27	10.0
35.285	5.0
35.3	16.0
35.315	10.0
35.33	6.0
35.344	9.0
35.359	11.0
35.374	11.0
35.389	13.0
35.404	11.0
35.418	11.0
35.433	12.0
35.448	10.0
35.463	14.0
35.478	9.0
35.493	11.0
35.507	5.0
35.522	14.0
35.537	6.0
35.552	7.0
35.567	7.0
35.581	11.0
35.596	5.0
35.611	9.0
35.626	13.0
35.641	17.0
35.655	12.0
35.67	13.0
35.685	22.0
35.7	13.0
35.715	16.0
35.729	20.0
35.744	10.0
35.759	11.0
35.774	24.0
35.789	18.0
35.804	20.0
35.818	12.0
35.833	21.0
35.848	24.0
35.863	15.0
35.878	10.0
35.892	12.0
35.907	16.0
35.922	9.0
35.937	18.0
35.952	10.0
35.966	13.0
35.981	12.0
35.996	15.0
36.011	13.0
36.026	14.0
36.04	17.0
36.055	13.0
36.07	6.0
36.085	8.0
36.1	14.0
36.114	10.0
36.129	7.0
36.144	11.0
36.159	11.0
36.174	6.0
36.189	11.0
36.203	12.0
36.218	7.0
36.233	7.0
36.248	6.0
36.263	9.0
36.277	10.0
36.292	6.0
36.307	9.0
36.322	8.0
36.337	5.0
36.351	6.0
36.366	5.0
36.381	6.0
36.396	8.0
36.411	10.0
36.426	7.0
36.44	10.0
36.455	11.0
36.47	10.0
36.485	12.0
36.5	6.0
36.514	6.0
36.529	2.0
36.544	10.0
36.559	13.0
36.574	10.0
36.589	8.0
36.603	10.0
36.618	9.0
36.633	15.0
36.648	10.0
36.663	6.0
36.677	4.0
36.692	9.0
36.707	8.0
36.722	11.0
36.737	6.0
36.752	8.0
36.766	7.0
36.781	7.0
36.796	7.0
36.811	6.0
36.826	9.0
36.841	9.0
36.855	7.0
36.87	9.0
36.885	11.0
36.9	6.0
36.915	11.0
36.93	8.0
36.944	13.0
36.959	6.0
36.974	9.0
36.989	10.0
37.004	12.0
37.019	15.0
37.033	11.0
37.048	16.0
37.063	23.0
37.078	21.0
37.093	18.0
37.108	18.0
37.123	28.0
37.137	31.0
37.152	29.0
37.167	30.0
37.182	42.0
37.197	33.0
37.212	30.0
37.226	20.0
37.241	24.0
37.256	22.0
37.271	25.0
37.286	16.0
37.301	23.0
37.316	13.0
37.331	15.0
37.345	16.0
37.36	25.0
37.375	17.0
37.39	21.0
37.405	16.0
37.42	16.0
37.435	17.0
37.45	11.0
37.464	22.0
37.479	16.0
37.494	15.0
37.509	9.0
37.524	12.0
37.539	10.0
37.554	10.0
37.569	6.0
37.583	6.0
37.598	18.0
37.613	3.0
37.628	3.0
37.643	7.0
37.658	5.0
37.673	14.0
37.688	12.0
37.703	9.0
37.718	9.0
37.733	10.0
37.747	4.0
37.762	10.0
37.777	7.0
37.792	10.0
37.807	4.0
37.822	3.0
37.837	8.0
37.852	5.0
37.867	7.0
37.882	13.0
37.897	3.0
37.912	2.0
37.927	8.0
37.941	4.0
37.956	6.0
37.971	3.0
37.986	7.0
38.001	4.0
38.016	7.0
38.031	9.0
38.046	6.0
38.061	9.0
38.076	8.0
38.091	4.0
38.106	9.0
38.121	10.0
38.136	13.0
38.151	10.0
38.166	4.0
38.181	9.0
38.196	4.0
38.211	11.0
38.226	5.0
38.241	7.0
38.256	1.0
38.271	6.0
38.285	6.0
38.3	8.0
38.315	6.0
38.33	8.0
38.345	8.0
38.36	6.0
38.375	9.0
38.39	4.0
38.405	7.0
38.42	10.0
38.435	7.0
38.45	3.0
38.465	7.0
38.48	10.0
38.495	8.0
38.51	3.0
38.525	10.0
38.54	6.0
38.555	2.0
38.57	7.0
38.585	2.0
38.6	6.0
38.615	4.0
38.63	9.0
38.645	6.0
38.66	5.0
38.675	5.0
38.69	4.0
38.705	6.0
38.72	4.0
38.735	5.0
38.75	7.0
38.765	9.0
38.78	6.0
38.795	7.0
38.81	9.0
38.825	9.0
38.84	6.0
38.855	6.0
38.87	6.0
38.885	3.0
38.9	10.0
38.915	4.0
38.93	6.0
38.945	9.0
38.96	8.0
38.975	11.0
38.99	7.0
39.005	9.0
39.02	4.0
39.035	4.0
39.05	8.0
39.065	4.0
39.08	5.0
39.095	9.0
39.11	5.0
39.125	5.0
39.14	9.0
39.155	5.0
39.17	14.0
39.185	4.0
39.2	1.0
39.215	6.0
39.23	2.0
39.245	5.0
39.26	7.0
39.275	4.0
39.29	5.0
39.305	7.0
39.32	5.0
39.335	8.0
39.35	7.0
39.365	5.0
39.38	7.0
39.395	4.0
39.409	1.0
39.424	3.0
39.439	5.0
39.454	8.0
39.469	5.0
39.484	9.0
39.499	3.0
39.514	5.0
39.529	10.0
39.544	7.0
39.559	11.0
39.574	9.0
39.589	10.0
39.604	8.0
39.619	4.0
39.634	7.0
39.649	5.0
39.664	6.0
39.678	10.0
39.693	8.0
39.708	11.0
39.723	9.0
39.738	8.0
39.753	6.0
39.768	6.0
39.783	13.0
39.798	9.0
39.813	15.0
39.827	7.0
39.842	10.0
39.857	7.0
39.872	9.0
39.887	5.0
39.902	9.0
39.917	10.0
39.932	8.0
39.947	6.0
39.961	10.0
39.976	4.0
39.991	4.0
40.006	9.0
40.021	9.0
40.036	4.0
40.051	11.0
40.065	9.0
40.08	4.0
40.095	11.0
40.11	8.0
40.125	8.0
40.14	12.0
40.154	3.0
40.169	7.0
40.184	4.0
40.199	8.0
40.214	10.0
40.228	8.0
40.243	7.0
40.258	6.0
40.273	3.0
40.288	8.0
40.302	7.0
40.317	5.0
40.332	5.0
40.347	10.0
40.362	4.0
40.376	8.0
40.391	4.0
40.406	9.0
40.421	6.0
40.436	8.0
40.45	7.0
40.465	2.0
40.48	9.0
40.495	7.0
40.509	5.0
40.524	5.0
40.539	11.0
40.554	7.0
40.568	7.0
40.583	3.0
40.598	3.0
40.613	7.0
40.627	10.0
40.642	8.0
40.657	5.0
40.672	7.0
40.686	10.0
40.701	4.0
40.716	6.0
40.731	4.0
40.745	2.0
40.76	6.0
40.775	3.0
40.79	10.0
40.804	5.0
40.819	3.0
40.834	6.0
40.849	14.0
40.863	12.0
40.878	7.0
40.893	11.0
40.907	7.0
40.922	5.0
40.937	4.0
40.952	10.0
40.966	10.0
40.981	8.0
40.996	6.0
41.011	6.0
41.025	13.0
41.04	17.0
41.055	16.0
41.069	12.0
41.084	20.0
41.099	21.0
41.114	15.0
41.128	22.0
41.143	14.0
41.158	17.0
41.173	19.0
41.187	23.0
41.202	18.0
41.217	11.0
41.231	14.0
41.246	13.0
41.261	13.0
41.276	9.0
41.29	6.0
41.305	14.0
41.32	10.0
41.335	15.0
41.349	15.0
41.364	10.0
41.379	9.0
41.393	11.0
41.408	12.0
41.423	14.0
41.438	11.0
41.452	12.0
41.467	7.0
41.482	9.0
41.497	10.0
41.511	8.0
41.526	4.0
41.541	6.0
41.556	8.0
41.57	9.0
41.585	1.0
41.6	4.0
41.615	7.0
41.629	2.0
41.644	3.0
41.659	3.0
41.674	10.0
41.688	3.0
41.703	6.0
41.718	6.0
41.733	7.0
41.747	13.0
41.762	8.0
41.777	8.0
41.792	3.0
41.806	6.0
41.821	4.0
41.836	8.0
41.851	7.0
41.866	4.0
41.88	8.0
41.895	5.0
41.91	1.0
41.925	6.0
41.939	7.0
41.954	10.0
41.969	3.0
41.984	7.0
41.999	12.0
42.013	5.0
42.028	4.0
42.043	7.0
42.058	6.0
42.073	5.0
42.088	6.0
42.102	6.0
42.117	10.0
42.132	3.0
42.147	8.0
42.162	6.0
42.176	7.0
42.191	4.0
42.206	5.0
42.221	10.0
42.236	5.0
42.251	6.0
42.266	9.0
42.28	9.0
42.295	13.0
42.31	12.0
42.325	18.0
42.34	13.0
42.355	17.0
42.369	17.0
42.384	25.0
42.399	16.0
42.414	21.0
42.429	5.0
42.444	15.0
42.459	14.0
42.474	16.0
42.488	8.0
42.503	11.0
42.518	5.0
42.533	7.0
42.548	10.0
42.563	8.0
42.578	8.0
42.593	16.0
42.608	6.0
42.622	12.0
42.637	6.0
42.652	11.0
42.667	12.0
42.682	14.0
42.697	6.0
42.712	6.0
42.727	5.0
42.742	6.0
42.757	9.0
42.772	9.0
42.786	9.0
42.801	5.0
42.816	4.0
42.831	8.0
42.846	4.0
42.861	4.0
42.876	3.0
42.891	4.0
42.906	3.0
42.921	5.0
42.936	7.0
42.951	7.0
42.966	6.0
42.981	4.0
42.996	8.0
43.011	3.0
43.025	3.0
43.04	10.0
43.055	10.0
43.07	4.0
43.085	3.0
43.1	4.0
43.115	2.0
43.13	4.0
43.145	4.0
43.16	4.0
43.175	4.0
43.19	8.0
43.205	3.0
43.22	5.0
43.235	6.0
43.25	2.0
43.265	4.0
43.28	5.0
43.295	3.0
43.31	2.0
43.325	7.0
43.34	5.0
43.355	5.0
43.37	10.0
43.385	3.0
43.4	8.0
43.415	14.0
43.43	11.0
43.445	7.0
43.46	2.0
43.475	12.0
43.49	6.0
43.505	4.0
43.52	7.0
43.535	9.0
43.55	15.0
43.565	5.0
43.58	13.0
43.595	9.0
43.61	3.0
43.625	10.0
43.64	9.0
43.655	13.0
43.67	9.0
43.685	12.0
43.7	11.0
43.715	7.0
43.73	8.0
43.745	9.0
43.76	9.0
43.775	8.0
43.79	8.0
43.805	8.0
43.82	6.0
43.835	8.0
43.85	6.0
43.865	5.0
43.88	6.0
43.895	13.0
43.91	10.0
43.925	11.0
43.94	8.0
43.955	5.0
43.97	7.0
43.985	7.0
44.0	4.0
44.015	5.0
44.03	5.0
44.045	0.0
44.061	11.0
44.076	5.0
44.091	9.0
44.106	7.0
44.121	4.0
44.136	5.0
44.151	7.0
44.166	3.0
44.181	7.0
44.196	4.0
44.211	7.0
44.226	8.0
44.241	8.0
44.256	7.0
44.271	5.0
44.286	3.0
44.301	8.0
44.316	3.0
44.331	6.0
44.346	4.0
44.361	5.0
44.377	3.0
44.392	9.0
44.407	3.0
44.422	4.0
44.437	7.0
44.452	5.0
44.467	6.0
44.482	4.0
44.497	6.0
44.512	11.0
44.527	4.0
44.542	7.0
44.557	6.0
44.572	2.0
44.587	7.0
44.602	8.0
44.617	2.0
44.632	3.0
44.647	7.0
44.663	6.0
44.678	8.0
44.693	4.0
44.708	8.0
44.723	7.0
44.738	7.0
44.753	10.0
44.768	12.0
44.783	8.0
44.798	11.0
44.813	12.0
44.828	6.0
44.843	10.0
44.858	13.0
44.873	12.0
44.888	2.0
44.903	7.0
44.918	2.0
44.933	6.0
44.948	6.0
44.964	4.0
44.979	13.0
44.994	8.0
45.009	4.0
45.024	7.0
45.039	7.0
45.054	2.0
45.069	7.0
45.084	12.0
45.099	7.0
45.114	4.0
45.129	8.0
45.144	3.0
45.159	13.0
45.174	7.0
45.189	7.0
45.204	4.0
45.219	5.0
45.234	5.0
45.249	5.0
45.264	7.0
45.279	6.0
45.294	6.0
45.309	10.0
45.324	2.0
45.339	2.0
45.354	4.0
45.369	9.0
45.384	1.0
45.399	4.0
45.414	11.0
45.429	4.0
45.444	2.0
45.459	4.0
45.474	12.0
45.489	5.0
45.504	1.0
45.519	4.0
45.534	4.0
45.549	10.0
45.564	4.0
45.579	7.0
45.594	3.0
45.609	4.0
45.624	3.0
45.639	8.0
45.654	7.0
45.669	5.0
45.684	10.0
45.699	5.0
45.714	7.0
45.729	7.0
45.744	6.0
45.759	4.0
45.774	4.0
45.789	8.0
45.804	9.0
45.819	7.0
45.834	5.0
45.849	9.0
45.864	6.0
45.879	5.0
45.894	13.0
45.909	11.0
45.924	9.0
45.939	12.0
45.954	14.0
45.969	13.0
45.984	15.0
45.998	17.0
46.013	17.0
46.028	11.0
46.043	10.0
46.058	11.0
46.073	12.0
46.088	9.0
46.103	9.0
46.118	7.0
46.133	13.0
46.148	10.0
46.163	6.0
46.178	8.0
46.192	8.0
46.207	7.0
46.222	7.0
46.237	11.0
46.252	9.0
46.267	11.0
46.282	13.0
46.297	8.0
46.312	7.0
46.327	9.0
46.341	6.0
46.356	14.0
46.371	14.0
46.386	3.0
46.401	4.0
46.416	2.0
46.431	3.0
46.446	3.0
46.46	2.0
46.475	6.0
46.49	2.0
46.505	4.0
46.52	2.0
46.535	4.0
46.55	4.0
46.564	5.0
46.579	10.0
46.594	8.0
46.609	7.0
46.624	9.0
46.639	4.0
46.654	4.0
46.668	7.0
46.683	4.0
46.698	7.0
46.713	2.0
46.728	5.0
46.743	4.0
46.758	3.0
46.772	5.0
46.787	5.0
46.802	5.0
46.817	6.0
46.832	5.0
46.847	8.0
46.861	7.0
46.876	4.0
46.891	4.0
46.906	4.0
46.921	6.0
46.936	3.0
46.95	4.0
46.965	5.0
46.98	11.0
46.995	0.0
47.01	0.0
47.025	6.0
47.039	11.0
47.054	9.0
47.069	11.0
47.084	8.0
47.099	10.0
47.113	12.0
47.128	8.0
47.143	11.0
47.158	9.0
47.173	8.0
47.188	7.0
47.202	6.0
47.217	11.0
47.232	7.0
47.247	9.0
47.262	3.0
47.277	6.0
47.291	9.0
47.306	10.0
47.321	4.0
47.336	5.0
47.351	10.0
47.365	8.0
47.38	9.0
47.395	5.0
47.41	5.0
47.425	10.0
47.44	11.0
47.454	6.0
47.469	3.0
47.484	7.0
47.499	6.0
47.514	3.0
47.528	2.0
47.543	5.0
47.558	5.0
47.573	0.0
47.588	3.0
47.603	5.0
47.617	4.0
47.632	12.0
47.647	4.0
47.662	6.0
47.677	4.0
47.691	5.0
47.706	5.0
47.721	9.0
47.736	3.0
47.751	7.0
47.766	3.0
47.78	5.0
47.795	3.0
47.81	4.0
47.825	2.0
47.84	5.0
47.855	6.0
47.869	1.0
47.884	3.0
47.899	2.0
47.914	4.0
47.929	4.0
47.944	11.0
47.958	4.0
47.973	6.0
47.988	7.0
48.003	3.0
48.018	10.0
48.033	5.0
48.047	6.0
48.062	7.0
48.077	8.0
48.092	9.0
48.107	5.0
48.122	6.0
48.137	3.0
48.151	8.0
48.166	3.0
48.181	7.0
48.196	10.0
48.211	4.0
48.226	4.0
48.241	3.0
48.255	11.0
48.27	6.0
48.285	3.0
48.3	7.0
48.315	4.0
48.33	7.0
48.345	3.0
48.359	8.0
48.374	8.0
48.389	5.0
48.404	5.0
48.419	4.0
48.434	4.0
48.449	2.0
48.464	6.0
48.478	4.0
48.493	3.0
48.508	3.0
48.523	4.0
48.538	4.0
48.553	5.0
48.568	2.0
48.583	3.0
48.597	5.0
48.612	3.0
48.627	8.0
48.642	2.0
48.657	6.0
48.672	5.0
48.687	4.0
48.702	9.0
48.717	6.0
48.731	1.0
48.746	7.0
48.761	4.0
48.776	4.0
48.791	7.0
48.806	5.0
48.821	5.0
48.836	1.0
48.851	0.0
48.866	3.0
48.88	3.0
48.895	3.0
48.91	5.0
48.925	6.0
48.94	1.0
48.955	4.0
48.97	3.0
48.985	6.0
49.0	2.0
49.015	3.0
49.03	3.0
49.044	8.0
49.059	3.0
49.074	4.0
49.089	3.0
49.104	3.0
49.119	4.0
49.134	6.0
49.149	8.0
49.164	4.0
49.179	1.0
49.194	5.0
49.209	2.0
49.224	4.0
49.238	5.0
49.253	6.0
49.268	2.0
49.283	5.0
49.298	5.0
49.313	9.0
49.328	8.0
49.343	10.0
49.358	3.0
49.373	11.0
49.388	11.0
49.403	11.0
49.418	5.0
49.433	9.0
49.448	4.0
49.463	6.0
49.478	3.0
49.492	4.0
49.507	12.0
49.522	8.0
49.537	6.0
49.552	8.0
49.567	8.0
49.582	6.0
49.597	6.0
49.612	8.0
49.627	8.0
49.642	8.0
49.657	7.0
49.672	9.0
49.687	6.0
49.702	8.0
49.717	8.0
49.732	2.0
49.747	10.0
49.762	7.0
49.777	4.0
49.792	4.0
49.807	3.0
49.822	6.0
49.837	3.0
49.852	1.0
49.867	5.0
49.882	6.0
49.897	5.0
49.912	4.0
49.927	2.0
49.942	5.0
49.957	6.0
49.971	6.0
49.986	2.0
50.001	11.0
50.016	4.0
50.031	4.0
50.046	4.0
50.061	6.0
50.076	8.0
50.091	2.0
50.106	4.0
50.121	5.0
50.136	3.0
50.151	4.0
50.166	4.0
50.181	3.0
50.196	4.0
50.211	4.0
50.226	5.0
50.241	4.0
50.256	7.0
50.271	6.0
50.286	2.0
50.302	2.0
50.317	5.0
50.332	4.0
50.347	4.0
50.362	9.0
50.377	9.0
50.392	6.0
50.407	6.0
50.422	1.0
50.437	5.0
50.452	10.0
50.467	6.0
50.482	4.0
50.497	3.0
50.512	6.0
50.527	14.0
50.542	4.0
50.557	5.0
50.572	9.0
50.587	5.0
50.602	6.0
50.617	6.0
50.632	2.0
50.647	7.0
50.662	7.0
50.677	3.0
50.692	10.0
50.707	8.0
50.722	9.0
50.737	4.0
50.752	11.0
50.767	6.0
50.782	4.0
50.797	4.0
50.812	6.0
50.828	7.0
50.843	8.0
50.858	2.0
50.873	6.0
50.888	3.0
50.903	5.0
50.918	7.0
50.933	7.0
50.948	2.0
50.963	7.0
50.978	6.0
50.993	6.0
51.008	2.0
51.023	8.0
51.038	2.0
51.053	6.0
51.068	7.0
51.083	10.0
51.098	3.0
51.114	5.0
51.129	5.0
51.144	3.0
51.159	8.0
51.174	5.0
51.189	8.0
51.204	3.0
51.219	3.0
51.234	10.0
51.249	2.0
51.264	6.0
51.279	3.0
51.294	4.0
51.309	9.0
51.324	4.0
51.34	1.0
51.355	7.0
51.37	6.0
51.385	15.0
51.4	7.0
51.415	5.0
51.43	7.0
51.445	9.0
51.46	11.0
51.475	8.0
51.49	15.0
51.505	13.0
51.52	19.0
51.535	12.0
51.551	10.0
51.566	11.0
51.581	8.0
51.596	6.0
51.611	9.0
51.626	4.0
51.641	14.0
51.656	12.0
51.671	6.0
51.686	6.0
51.701	5.0
51.716	6.0
51.732	8.0
51.747	4.0
51.762	10.0
51.777	9.0
51.792	11.0
51.807	7.0
51.822	13.0
51.837	7.0
51.852	8.0
51.867	13.0
51.882	8.0
51.898	7.0
51.913	7.0
51.928	12.0
51.943	10.0
51.958	8.0
51.973	5.0
51.988	8.0
52.003	4.0
52.018	7.0
52.033	6.0
52.048	6.0
52.064	3.0
52.079	5.0
52.094	1.0
52.109	4.0
52.124	1.0
52.139	8.0
52.154	4.0
52.169	5.0
52.184	4.0
52.199	7.0
52.215	8.0
52.23	10.0
52.245	4.0
52.26	4.0
52.275	4.0
52.29	4.0
52.305	3.0
52.32	3.0
52.335	6.0
52.35	3.0
52.366	6.0
52.381	2.0
52.396	4.0
52.411	5.0
52.426	6.0
52.441	3.0
52.456	10.0
52.471	7.0
52.486	8.0
52.502	8.0
52.517	7.0
52.532	5.0
52.547	6.0
52.562	6.0
52.577	9.0
52.592	11.0
52.607	9.0
52.622	7.0
52.637	5.0
52.653	11.0
52.668	4.0
52.683	4.0
52.698	5.0
52.713	7.0
52.728	2.0
52.743	8.0
52.758	4.0
52.774	4.0
52.789	2.0
52.804	6.0
52.819	5.0
52.834	3.0
52.849	4.0
52.864	8.0
52.879	3.0
52.894	8.0
52.91	7.0
52.925	7.0
52.94	14.0
52.955	7.0
52.97	7.0
52.985	8.0
53.0	7.0
53.015	7.0
53.031	7.0
53.046	3.0
53.061	8.0
53.076	4.0
53.091	4.0
53.106	6.0
53.121	5.0
53.136	3.0
53.152	2.0
53.167	6.0
53.182	8.0
53.197	0.0
53.212	6.0
53.227	7.0
53.242	3.0
53.257	3.0
53.273	3.0
53.288	4.0
53.303	7.0
53.318	4.0
53.333	4.0
53.348	4.0
53.363	3.0
53.379	8.0
53.394	3.0
53.409	6.0
53.424	4.0
53.439	4.0
53.454	4.0
53.469	7.0
53.484	8.0
53.5	4.0
53.515	3.0
53.53	6.0
53.545	4.0
53.56	6.0
53.575	2.0
53.59	4.0
53.606	8.0
53.621	5.0
53.636	4.0
53.651	4.0
53.666	2.0
53.681	3.0
53.696	6.0
53.712	2.0
53.727	4.0
53.742	8.0
53.757	4.0
53.772	7.0
53.787	9.0
53.802	5.0
53.818	3.0
53.833	2.0
53.848	2.0
53.863	5.0
53.878	4.0
53.893	5.0
53.909	5.0
53.924	5.0
53.939	5.0
53.954	10.0
53.969	5.0
53.984	5.0
53.999	2.0
54.015	3.0
54.03	5.0
54.045	8.0
54.06	5.0
54.075	6.0
54.09	5.0
54.106	5.0
54.121	5.0
54.136	5.0
54.151	3.0
54.166	4.0
54.181	3.0
54.197	5.0
54.212	6.0
54.227	3.0
54.242	3.0
54.257	3.0
54.272	3.0
54.288	3.0
54.303	4.0
54.318	2.0
54.333	7.0
54.348	3.0
54.363	2.0
54.379	4.0
54.394	7.0
54.409	3.0
54.424	6.0
54.439	5.0
54.454	7.0
54.47	7.0
54.485	9.0
54.5	5.0
54.515	9.0
54.53	8.0
54.545	6.0
54.561	8.0
54.576	11.0
54.591	11.0
54.606	9.0
54.621	11.0
54.636	10.0
54.652	12.0
54.667	15.0
54.682	11.0
54.697	8.0
54.712	10.0
54.727	12.0
54.743	6.0
54.758	7.0
54.773	8.0
54.788	6.0
54.803	5.0
54.819	8.0
54.834	5.0
54.849	7.0
54.864	6.0
54.879	2.0
54.894	5.0
54.91	2.0
54.925	8.0
54.94	5.0
54.955	13.0
54.97	7.0
54.985	7.0
55.001	12.0
55.016	7.0
55.031	6.0
55.046	11.0
55.061	11.0
55.077	4.0
55.092	9.0
55.107	2.0
55.122	8.0
55.137	6.0
55.152	4.0
55.168	9.0
55.183	3.0
55.198	3.0
55.213	5.0
55.228	8.0
55.243	7.0
55.259	4.0
55.274	4.0
55.289	1.0
55.304	6.0
55.319	5.0
55.335	4.0
55.35	9.0
55.365	5.0
55.38	8.0
55.395	2.0
55.41	8.0
55.426	6.0
55.441	2.0
55.456	2.0
55.471	3.0
55.486	7.0
55.501	4.0
55.517	5.0
55.532	5.0
55.547	3.0
55.562	10.0
55.577	5.0
55.592	1.0
55.608	5.0
55.623	12.0
55.638	7.0
55.653	6.0
55.668	6.0
55.683	5.0
55.699	8.0
55.714	7.0
55.729	5.0
55.744	5.0
55.759	7.0
55.774	4.0
55.79	8.0
55.805	4.0
55.82	2.0
55.835	4.0
55.85	6.0
55.865	7.0
55.881	5.0
55.896	12.0
55.911	4.0
55.926	6.0
55.941	2.0
55.956	5.0
55.972	4.0
55.987	4.0
56.002	5.0
56.017	6.0
56.032	6.0
56.047	6.0
56.063	10.0
56.078	7.0
56.093	6.0
56.108	5.0
56.123	6.0
56.138	7.0
56.154	5.0
56.169	7.0
56.184	3.0
56.199	3.0
56.214	3.0
56.229	4.0
56.244	6.0
56.26	2.0
56.275	4.0
56.29	4.0
56.305	1.0
56.32	2.0
56.335	2.0
56.351	4.0
56.366	4.0
56.381	5.0
56.396	3.0
56.411	2.0
56.426	3.0
56.441	4.0
56.457	0.0
56.472	3.0
56.487	4.0
56.502	1.0
56.517	7.0
56.532	4.0
56.547	4.0
56.563	6.0
56.578	4.0
56.593	3.0
56.608	6.0
56.623	5.0
56.638	8.0
56.653	4.0
56.668	4.0
56.684	7.0
56.699	1.0
56.714	5.0
56.729	0.0
56.744	3.0
56.759	7.0
56.774	3.0
56.79	4.0
56.805	7.0
56.82	2.0
56.835	7.0
56.85	7.0
56.865	5.0
56.88	4.0
56.895	6.0
56.911	2.0
56.926	3.0
56.941	2.0
56.956	7.0
56.971	5.0
56.986	2.0
57.001	1.0
57.016	3.0
57.031	5.0
57.047	1.0
57.062	4.0
57.077	8.0
57.092	3.0
57.107	3.0
57.122	6.0
57.137	5.0
57.152	7.0
57.167	3.0
57.183	2.0
57.198	3.0
57.213	3.0
57.228	5.0
57.243	5.0
57.258	5.0
57.273	6.0
57.288	6.0
57.303	4.0
57.318	6.0
57.334	3.0
57.349	7.0
57.364	9.0
57.379	8.0
57.394	4.0
57.409	6.0
57.424	8.0
57.439	9.0
57.454	7.0
57.469	7.0
57.484	5.0
57.5	2.0
57.515	3.0
57.53	7.0
57.545	4.0
57.56	3.0
57.575	5.0
57.59	4.0
57.605	2.0
57.62	5.0
57.635	6.0
57.65	4.0
57.665	7.0
57.68	10.0
57.696	5.0
57.711	6.0
57.726	8.0
57.741	11.0
57.756	9.0
57.771	6.0
57.786	5.0
57.801	5.0
57.816	2.0
57.831	3.0
57.846	5.0
57.861	7.0
57.876	1.0
57.891	6.0
57.906	9.0
57.921	5.0
57.937	5.0
57.952	6.0
57.967	7.0
57.982	4.0
57.997	7.0
58.012	7.0
58.027	4.0
58.042	3.0
58.057	4.0
58.072	7.0
58.087	5.0
58.102	3.0
58.117	2.0
58.132	6.0
58.147	3.0
58.162	5.0
58.177	3.0
58.192	5.0
58.207	1.0
58.222	3.0
58.237	3.0
58.252	3.0
58.267	6.0
58.282	6.0
58.297	4.0
58.312	3.0
58.327	4.0
58.342	7.0
58.357	4.0
58.372	8.0
58.387	3.0
58.402	4.0
58.418	5.0
58.433	3.0
58.448	5.0
58.463	0.0
58.478	5.0
58.493	6.0
58.508	4.0
58.523	4.0
58.538	4.0
58.553	7.0
58.568	6.0
58.583	6.0
58.598	4.0
58.613	4.0
58.628	9.0
58.643	9.0
58.658	7.0
58.673	11.0
58.688	7.0
58.703	10.0
58.718	8.0
58.733	5.0
58.748	4.0
58.763	7.0
58.778	1.0
58.793	5.0
58.808	3.0
58.823	7.0
58.838	5.0
58.853	4.0
58.868	2.0
58.883	2.0
58.898	4.0
58.913	8.0
58.928	6.0
58.942	3.0
58.957	8.0
58.972	5.0
58.987	7.0
59.002	5.0
59.017	5.0
59.032	10.0
59.047	5.0
59.062	2.0
59.077	8.0
59.092	6.0
59.107	2.0
59.122	4.0
59.137	3.0
59.152	11.0
59.167	4.0
59.182	5.0
59.197	1.0
59.212	7.0
59.227	5.0
59.242	4.0
59.257	3.0
59.272	3.0
59.287	4.0
59.302	4.0
59.317	5.0
59.332	4.0
59.347	4.0
59.362	6.0
59.377	6.0
59.392	4.0
59.407	7.0
59.422	4.0
59.437	7.0
59.452	9.0
59.467	5.0
59.482	6.0
59.497	3.0
59.512	7.0
59.527	4.0
59.542	5.0
59.557	11.0
59.572	12.0
59.587	11.0
59.602	9.0
59.617	12.0
59.632	4.0
59.647	5.0
59.661	5.0
59.676	7.0
59.691	12.0
59.706	5.0
59.721	3.0
59.736	8.0
59.751	10.0
59.766	1.0
59.781	7.0
59.796	5.0
59.811	2.0
59.826	5.0
59.841	2.0
59.856	3.0
59.871	3.0
59.886	4.0
59.901	3.0
59.916	6.0
59.931	8.0
59.946	6.0
59.961	7.0
59.976	9.0
59.991	4.0
60.006	5.0
60.021	6.0
60.036	8.0
60.051	16.0
60.066	5.0
60.081	4.0
60.096	2.0
60.111	5.0
60.126	4.0
60.141	1.0
60.156	3.0
60.171	2.0
60.186	0.0
60.201	8.0
60.216	4.0
60.231	5.0
60.246	7.0
60.261	4.0
60.276	2.0
60.291	5.0
60.306	3.0
60.321	7.0
60.336	3.0
60.35	7.0
60.365	1.0
60.38	4.0
60.395	3.0
60.41	4.0
60.425	8.0
60.44	4.0
60.455	0.0
60.47	10.0
60.485	2.0
60.5	8.0
60.515	9.0
60.53	6.0
60.545	8.0
60.56	10.0
60.575	6.0
60.59	9.0
60.605	10.0
60.62	2.0
60.635	6.0
60.65	8.0
60.665	2.0
60.68	6.0
60.695	5.0
60.71	1.0
60.725	4.0
60.74	5.0
60.755	1.0
60.77	4.0
60.785	3.0
60.8	5.0
60.815	5.0
60.83	5.0
60.845	8.0
60.86	9.0
60.875	4.0
60.89	6.0
60.905	4.0
60.92	4.0
60.935	3.0
60.95	5.0
60.965	9.0
60.98	6.0
60.995	3.0
61.01	5.0
61.025	3.0
61.04	6.0
61.055	6.0
61.07	8.0
61.085	8.0
61.1	2.0
61.115	3.0
61.13	3.0
61.145	6.0
61.16	4.0
61.175	3.0
61.191	7.0
61.206	3.0
61.221	5.0
61.236	7.0
61.251	1.0
61.266	1.0
61.281	7.0
61.296	3.0
61.311	3.0
61.326	4.0
61.341	5.0
61.356	2.0
61.371	5.0
61.386	4.0
61.401	3.0
61.416	7.0
61.431	4.0
61.446	2.0
61.461	6.0
61.476	2.0
61.491	8.0
61.506	2.0
61.521	7.0
61.536	6.0
61.551	8.0
61.566	7.0
61.581	3.0
61.596	8.0
61.611	3.0
61.626	2.0
61.641	4.0
61.656	2.0
61.672	3.0
61.687	5.0
61.702	4.0
61.717	2.0
61.732	7.0
61.747	4.0
61.762	2.0
61.777	6.0
61.792	3.0
61.807	6.0
61.822	4.0
61.837	8.0
61.852	3.0
61.867	5.0
61.882	9.0
61.897	3.0
61.912	4.0
61.927	2.0
61.943	9.0
61.958	4.0
61.973	4.0
61.988	5.0
62.003	6.0
62.018	7.0
62.033	3.0
62.048	2.0
62.063	5.0
62.078	5.0
62.093	4.0
62.108	3.0
62.123	0.0
62.138	4.0
62.153	2.0
62.169	4.0
62.184	3.0
62.199	2.0
62.214	4.0
62.229	2.0
62.244	1.0
62.259	5.0
62.274	3.0
62.289	4.0
62.304	2.0
62.319	1.0
62.335	4.0
62.35	5.0
62.365	8.0
62.38	6.0
62.395	8.0
62.41	7.0
62.425	6.0
62.44	3.0
62.455	7.0
62.47	9.0
62.485	7.0
62.501	5.0
62.516	4.0
62.531	9.0
62.546	2.0
62.561	0.0
62.576	3.0
62.591	4.0
62.606	5.0
62.621	7.0
62.636	2.0
62.652	3.0
62.667	1.0
62.682	6.0
62.697	4.0
62.712	2.0
62.727	5.0
62.742	6.0
62.757	3.0
62.772	4.0
62.787	8.0
62.803	5.0
62.818	4.0
62.833	4.0
62.848	4.0
62.863	6.0
62.878	5.0
62.893	0.0
62.908	3.0
62.923	11.0
62.939	4.0
62.954	1.0
62.969	4.0
62.984	5.0
62.999	7.0
63.014	2.0
63.029	3.0
63.044	0.0
63.059	7.0
63.074	3.0
63.09	2.0
63.105	4.0
63.12	6.0
63.135	5.0
63.15	6.0
63.165	2.0
63.18	5.0
63.195	2.0
63.21	2.0
63.226	1.0
63.241	1.0
63.256	5.0
63.271	7.0
63.286	2.0
63.301	3.0
63.316	5.0
63.331	7.0
63.346	7.0
63.362	7.0
63.377	4.0
63.392	5.0
63.407	6.0
63.422	10.0
63.437	11.0
63.452	7.0
63.467	7.0
63.482	5.0
63.497	4.0
63.513	6.0
63.528	7.0
63.543	5.0
63.558	3.0
63.573	5.0
63.588	6.0
63.603	3.0
63.618	5.0
63.633	6.0
63.648	5.0
63.664	4.0
63.679	7.0
63.694	1.0
63.709	6.0
63.724	6.0
63.739	7.0
63.754	6.0
63.769	8.0
63.784	8.0
63.799	11.0
63.814	11.0
63.83	6.0
63.845	6.0
63.86	6.0
63.875	10.0
63.89	2.0
63.905	8.0
63.92	4.0
63.935	1.0
63.95	1.0
63.965	2.0
63.98	1.0
63.996	1.0
64.011	5.0
64.026	3.0
64.041	3.0
64.056	2.0
64.071	4.0
64.086	4.0
64.101	3.0
64.116	2.0
64.131	3.0
64.146	5.0
64.161	4.0
64.176	2.0
64.191	5.0
64.207	5.0
64.222	4.0
64.237	1.0
64.252	3.0
64.267	6.0
64.282	4.0
64.297	5.0
64.312	2.0
64.327	4.0
64.342	3.0
64.357	1.0
64.372	9.0
64.387	6.0
64.402	4.0
64.417	3.0
64.433	4.0
64.448	1.0
64.463	5.0
64.478	3.0
64.493	3.0
64.508	7.0
64.523	1.0
64.538	5.0
64.553	1.0
64.568	4.0
64.583	4.0
64.598	3.0
64.613	2.0
64.628	3.0
64.643	0.0
64.658	3.0
64.673	1.0
64.688	4.0
64.703	7.0
64.718	6.0
64.734	1.0
64.749	3.0
64.764	4.0
64.779	7.0
64.794	5.0
64.809	1.0
64.824	0.0
64.839	5.0
64.854	1.0
64.869	4.0
64.884	5.0
64.899	5.0
64.914	4.0
64.929	3.0
64.944	5.0
64.959	3.0
64.974	3.0
64.989	5.0
65.004	3.0
65.019	7.0
65.034	1.0
65.049	2.0
65.064	5.0
65.079	2.0
65.094	5.0
65.109	5.0
65.125	0.0
65.14	6.0
65.155	2.0
65.17	6.0
65.185	6.0
65.2	5.0
65.215	6.0
65.23	7.0
65.245	3.0
65.26	4.0
65.275	2.0
65.29	6.0
65.305	3.0
65.32	9.0
65.335	10.0
65.35	2.0
65.365	3.0
65.38	3.0
65.395	5.0
65.41	1.0
65.425	3.0
65.44	1.0
65.455	3.0
65.47	5.0
65.485	4.0
65.5	6.0
65.515	3.0
65.53	4.0
65.545	7.0
65.56	8.0
65.575	1.0
65.59	3.0
65.605	4.0
65.62	3.0
65.635	3.0
65.65	5.0
65.666	1.0
65.681	1.0
65.696	4.0
65.711	6.0
65.726	9.0
65.741	6.0
65.756	6.0
65.771	4.0
65.786	4.0
65.801	8.0
65.816	1.0
65.831	4.0
65.846	3.0
65.861	2.0
65.876	3.0
65.891	2.0
65.906	2.0
65.921	4.0
65.936	2.0
65.951	5.0
65.966	8.0
65.981	4.0
65.996	5.0
66.011	6.0
66.026	2.0
66.041	3.0
66.056	0.0
66.071	3.0
66.086	3.0
66.101	5.0
66.116	6.0
66.131	12.0
66.146	6.0
66.161	7.0
66.176	6.0
66.191	7.0
66.206	7.0
66.221	5.0
66.236	8.0
66.251	4.0
66.266	9.0
66.281	5.0
66.296	11.0
66.311	7.0
66.327	5.0
66.342	6.0
66.357	2.0
66.372	3.0
66.387	3.0
66.402	2.0
66.417	4.0
66.432	4.0
66.447	2.0
66.462	4.0
66.477	1.0
66.492	3.0
66.507	2.0
66.522	4.0
66.537	8.0
66.552	5.0
66.567	8.0
66.582	5.0
66.597	4.0
66.612	3.0
66.627	7.0
66.642	7.0
66.657	8.0
66.672	4.0
66.687	5.0
66.702	5.0
66.717	2.0
66.732	4.0
66.747	4.0
66.762	5.0
66.777	6.0
66.792	2.0
66.807	2.0
66.822	4.0
66.837	3.0
66.853	3.0
66.868	7.0
66.883	4.0
66.898	6.0
66.913	4.0
66.928	2.0
66.943	4.0
66.958	8.0
66.973	7.0
66.988	2.0
67.003	9.0
67.018	1.0
67.033	4.0
67.048	8.0
67.063	2.0
67.078	6.0
67.093	1.0
67.108	2.0
67.123	11.0
67.138	6.0
67.153	6.0
67.168	3.0
67.183	3.0
67.198	3.0
67.214	5.0
67.229	7.0
67.244	5.0
67.259	5.0
67.274	4.0
67.289	6.0
67.304	4.0
67.319	5.0
67.334	5.0
67.349	4.0
67.364	5.0
67.379	4.0
67.394	2.0
67.409	2.0
67.424	2.0
67.439	4.0
67.454	3.0
67.469	4.0
67.484	2.0
67.5	5.0
67.515	6.0
67.53	1.0
67.545	4.0
67.56	1.0
67.575	6.0
67.59	4.0
67.605	6.0
67.62	4.0
67.635	5.0
67.65	3.0
67.665	3.0
67.68	4.0
67.695	7.0
67.71	6.0
67.726	3.0
67.741	2.0
67.756	5.0
67.771	5.0
67.786	1.0
67.801	4.0
67.816	3.0
67.831	1.0
67.846	7.0
67.861	3.0
67.876	1.0
67.891	5.0
67.906	5.0
67.922	1.0
67.937	7.0
67.952	7.0
67.967	2.0
67.982	1.0
67.997	7.0
68.012	4.0
68.027	3.0
68.042	3.0
68.057	3.0
68.072	3.0
68.087	2.0
68.103	3.0
68.118	1.0
68.133	5.0
68.148	6.0
68.163	4.0
68.178	4.0
68.193	2.0
68.208	5.0
68.223	4.0
68.238	3.0
68.254	0.0
68.269	2.0
68.284	4.0
68.299	3.0
68.314	2.0
68.329	6.0
68.344	4.0
68.359	2.0
68.374	5.0
68.389	1.0
68.405	4.0
68.42	2.0
68.435	2.0
68.45	2.0
68.465	5.0
68.48	3.0
68.495	5.0
68.51	3.0
68.525	4.0
68.54	5.0
68.556	8.0
68.571	4.0
68.586	3.0
68.601	2.0
68.616	4.0
68.631	3.0
68.646	2.0
68.661	4.0
68.676	2.0
68.691	3.0
68.707	5.0
68.722	3.0
68.737	2.0
68.752	2.0
68.767	6.0
68.782	6.0
68.797	4.0
68.812	6.0
68.827	2.0
68.842	1.0
68.857	4.0
68.873	2.0
68.888	2.0
68.903	3.0
68.918	2.0
68.933	3.0
68.948	4.0
68.963	4.0
68.978	4.0
68.993	5.0
69.008	1.0
69.023	4.0
69.038	2.0
69.054	3.0
69.069	1.0
69.084	4.0
69.099	3.0
69.114	5.0
69.129	1.0
69.144	1.0
69.159	1.0
69.174	5.0
69.189	6.0
69.204	6.0
69.219	4.0
69.234	5.0
69.249	2.0
69.264	3.0
69.279	2.0
69.295	5.0
69.31	3.0
69.325	2.0
69.34	5.0
69.355	3.0
69.37	2.0
69.385	2.0
69.4	5.0
69.415	4.0
69.43	5.0
69.445	4.0
69.46	4.0
69.475	4.0
69.49	2.0
69.505	4.0
69.52	1.0
69.535	1.0
69.55	0.0
69.565	6.0
69.58	2.0
69.595	6.0
69.61	3.0
69.625	4.0
69.64	5.0
69.655	2.0
69.67	1.0
69.685	1.0
69.7	8.0
69.715	7.0
69.73	1.0
69.745	3.0
69.76	3.0
69.775	4.0
69.79	5.0
69.805	3.0
69.82	4.0
69.835	8.0
69.85	6.0
69.865	1.0
69.88	6.0
69.895	2.0
69.909	5.0
69.924	4.0
69.939	7.0
69.954	8.0
69.969	8.0
69.984	3.0
69.999	5.0
70.014	6.0
70.029	2.0
70.044	3.0
70.059	4.0
70.074	2.0
70.088	6.0
70.103	5.0
70.118	3.0
70.133	5.0
70.148	4.0
70.163	3.0
70.178	4.0
70.193	7.0
70.208	3.0
70.222	6.0
70.237	4.0
70.252	5.0
70.267	2.0
70.282	5.0
70.297	5.0
70.312	3.0
70.327	5.0
70.341	2.0
70.356	3.0
70.371	4.0
70.386	7.0
70.401	5.0
70.416	3.0
70.43	4.0
70.445	1.0
70.46	4.0
70.475	4.0
70.49	2.0
70.505	2.0
70.519	4.0
70.534	2.0
70.549	5.0
70.564	3.0
70.579	4.0
70.594	5.0
70.608	5.0
70.623	4.0
70.638	4.0
70.653	5.0
70.668	3.0
70.683	11.0
70.697	4.0
70.712	4.0
70.727	1.0
70.742	2.0
70.757	6.0
70.771	5.0
70.786	2.0
70.801	1.0
70.816	3.0
70.831	3.0
70.845	6.0
70.86	4.0
70.875	2.0
70.89	4.0
70.905	3.0
70.92	3.0
70.934	3.0
70.949	4.0
70.964	5.0
70.979	5.0
70.994	3.0
71.008	3.0
71.023	3.0
71.038	3.0
71.053	2.0
71.068	4.0
71.082	6.0
71.097	5.0
71.112	4.0
71.127	3.0
71.142	2.0
71.156	9.0
71.171	10.0
71.186	2.0
71.201	2.0
71.216	6.0
71.231	6.0
71.245	5.0
71.26	4.0
71.275	3.0
71.29	2.0
71.305	5.0
71.319	3.0
71.334	4.0
71.349	3.0
71.364	5.0
71.379	1.0
71.394	0.0
71.408	3.0
71.423	1.0
71.438	2.0
71.453	5.0
71.468	5.0
71.483	4.0
71.497	4.0
71.512	5.0
71.527	4.0
71.542	2.0
71.557	9.0
71.572	1.0
71.586	2.0
71.601	2.0
71.616	2.0
71.631	3.0
71.646	3.0
71.661	2.0
71.676	7.0
71.69	6.0
71.705	7.0
71.72	1.0
71.735	3.0
71.75	3.0
71.765	2.0
71.78	5.0
71.795	3.0
71.81	5.0
71.824	4.0
71.839	4.0
71.854	1.0
71.869	8.0
71.884	4.0
71.899	1.0
71.914	1.0
71.929	2.0
71.944	4.0
71.959	3.0
71.974	5.0
71.988	3.0
72.003	3.0
72.018	3.0
72.033	7.0
72.048	4.0
72.063	7.0
72.078	4.0
72.093	3.0
72.108	4.0
72.123	4.0
72.138	1.0
72.153	3.0
72.168	6.0
72.183	5.0
72.198	2.0
72.213	4.0
72.228	3.0
72.243	5.0
72.258	1.0
72.273	2.0
72.288	5.0
72.303	6.0
72.318	2.0
72.333	2.0
72.348	5.0
72.363	5.0
72.378	2.0
72.393	3.0
72.408	2.0
72.423	4.0
72.438	5.0
72.453	5.0
72.468	3.0
72.483	2.0
72.498	0.0
72.513	3.0
72.528	2.0
72.543	4.0
72.558	1.0
72.573	2.0
72.588	4.0
72.603	6.0
72.618	4.0
72.633	4.0
72.649	1.0
72.664	2.0
72.679	1.0
72.694	3.0
72.709	3.0
72.724	1.0
72.739	2.0
72.754	2.0
72.769	4.0
72.784	2.0
72.799	3.0
72.814	3.0
72.829	1.0
72.845	4.0
72.86	5.0
72.875	2.0
72.89	2.0
72.905	4.0
72.92	3.0
72.935	3.0
72.95	2.0
72.965	9.0
72.98	4.0
72.996	0.0
73.011	4.0
73.026	4.0
73.041	2.0
73.056	3.0
73.071	5.0
73.086	2.0
73.101	6.0
73.117	4.0
73.132	5.0
73.147	2.0
73.162	4.0
73.177	3.0
73.192	6.0
73.207	3.0
73.222	5.0
73.238	4.0
73.253	4.0
73.268	4.0
73.283	3.0
73.298	4.0
73.313	5.0
73.328	2.0
73.343	4.0
73.359	4.0
73.374	6.0
73.389	4.0
73.404	6.0
73.419	6.0
73.434	7.0
73.449	1.0
73.465	3.0
73.48	6.0
73.495	2.0
73.51	4.0
73.525	1.0
73.54	3.0
73.556	4.0
73.571	4.0
73.586	2.0
73.601	5.0
73.616	5.0
73.631	4.0
73.646	4.0
73.662	1.0
73.677	3.0
73.692	1.0
73.707	3.0
73.722	10.0
73.737	2.0
73.752	6.0
73.768	2.0
73.783	7.0
73.798	1.0
73.813	5.0
73.828	4.0
73.843	6.0
73.859	5.0
73.874	5.0
73.889	5.0
73.904	4.0
73.919	6.0
73.934	4.0
73.949	3.0
73.965	2.0
73.98	2.0
73.995	5.0
74.01	5.0
74.025	2.0
74.04	3.0
74.056	1.0
74.071	3.0
74.086	5.0
74.101	4.0
74.116	5.0
74.131	7.0
74.146	4.0
74.162	2.0
74.177	7.0
74.192	7.0
74.207	7.0
74.222	2.0
74.237	7.0
74.252	4.0
74.268	4.0
74.283	3.0
74.298	0.0
74.313	6.0
74.328	2.0
74.343	8.0
74.358	2.0
74.374	6.0
74.389	5.0
74.404	1.0
74.419	1.0
74.434	6.0
74.449	4.0
74.464	2.0
74.48	6.0
74.495	6.0
74.51	3.0
74.525	3.0
74.54	7.0
74.555	2.0
74.57	3.0
74.586	1.0
74.601	4.0
74.616	5.0
74.631	5.0
74.646	4.0
74.661	4.0
74.676	7.0
74.691	7.0
74.707	6.0
74.722	7.0
74.737	7.0
74.752	4.0
74.767	2.0
74.782	2.0
74.797	5.0
74.813	2.0
74.828	0.0
74.843	2.0
74.858	5.0
74.873	2.0
74.888	5.0
74.903	3.0
74.918	2.0
74.934	3.0
74.949	5.0
74.964	3.0
74.979	4.0
74.994	6.0
75.009	3.0
75.024	6.0
75.04	1.0
75.055	5.0
75.07	5.0
75.085	4.0
75.1	7.0
75.115	6.0
75.13	3.0
75.145	4.0
75.161	6.0
75.176	2.0
75.191	1.0
75.206	2.0
75.221	2.0
75.236	3.0
75.251	0.0
75.266	6.0
75.282	6.0
75.297	6.0
75.312	4.0
75.327	3.0
75.342	1.0
75.357	4.0
75.372	2.0
75.387	2.0
75.403	3.0
75.418	6.0
75.433	5.0
75.448	4.0
75.463	2.0
75.478	8.0
75.493	4.0
75.509	4.0
75.524	5.0
75.539	3.0
75.554	2.0
75.569	3.0
75.584	2.0
75.599	7.0
75.614	4.0
75.63	4.0
75.645	2.0
75.66	4.0
75.675	3.0
75.69	5.0
75.705	3.0
75.72	5.0
75.735	6.0
75.751	1.0
75.766	4.0
75.781	5.0
75.796	3.0
75.811	4.0
75.826	6.0
75.841	4.0
75.856	4.0
75.872	2.0
75.887	3.0
75.902	4.0
75.917	1.0
75.932	2.0
75.947	4.0
75.962	3.0
75.977	2.0
75.993	2.0
76.008	5.0
76.023	5.0
76.038	3.0
76.053	4.0
76.068	4.0
76.083	8.0
76.098	3.0
76.114	3.0
76.129	3.0
76.144	2.0
76.159	2.0
76.174	2.0
76.189	1.0
76.204	1.0
76.22	1.0
76.235	3.0
76.25	5.0
76.265	7.0
76.28	4.0
76.295	4.0
76.31	1.0
76.325	3.0
76.341	4.0
76.356	3.0
76.371	2.0
76.386	0.0
76.401	0.0
76.416	4.0
76.431	3.0
76.446	5.0
76.462	5.0
76.477	2.0
76.492	1.0
76.507	1.0
76.522	3.0
76.537	5.0
76.552	3.0
76.567	3.0
76.583	3.0
76.598	3.0
76.613	1.0
76.628	1.0
76.643	3.0
76.658	3.0
76.673	2.0
76.688	2.0
76.704	4.0
76.719	6.0
76.734	5.0
76.749	3.0
76.764	6.0
76.779	9.0
76.794	3.0
76.809	1.0
76.824	3.0
76.84	4.0
76.855	4.0
76.87	3.0
76.885	5.0
76.9	2.0
76.915	3.0
76.93	4.0
76.945	5.0
76.96	2.0
76.976	4.0
76.991	5.0
77.006	5.0
77.021	5.0
77.036	3.0
77.051	3.0
77.066	1.0
77.081	1.0
77.096	5.0
77.112	3.0
77.127	2.0
77.142	8.0
77.157	0.0
77.172	2.0
77.187	4.0
77.202	4.0
77.217	5.0
77.232	7.0
77.247	4.0
77.263	4.0
77.278	3.0
77.293	1.0
77.308	3.0
77.323	6.0
77.338	4.0
77.353	2.0
77.368	4.0
77.383	2.0
77.398	2.0
77.413	3.0
77.428	4.0
77.444	1.0
77.459	1.0
77.474	3.0
77.489	3.0
77.504	5.0
77.519	5.0
77.534	1.0
77.549	4.0
77.564	5.0
77.579	7.0
77.594	5.0
77.609	6.0
77.624	3.0
77.64	6.0
77.655	3.0
77.67	3.0
77.685	4.0
77.7	3.0
77.715	7.0
77.73	4.0
77.745	3.0
77.76	3.0
77.775	5.0
77.79	1.0
77.805	3.0
77.82	2.0
77.835	3.0
77.85	4.0
77.865	4.0
77.88	3.0
77.895	3.0
77.91	3.0
77.926	2.0
77.941	0.0
77.956	3.0
77.971	1.0
77.986	3.0
78.001	2.0
78.016	1.0
78.031	4.0
78.046	2.0
78.061	2.0
78.076	5.0
78.091	4.0
78.106	5.0
78.121	2.0
78.136	5.0
78.151	3.0
78.166	5.0
78.181	4.0
78.196	5.0
78.211	8.0
78.226	6.0
78.241	2.0
78.256	2.0
78.271	3.0
78.286	4.0
78.301	1.0
78.316	4.0
78.331	3.0
78.346	1.0
78.361	4.0
78.376	1.0
78.391	1.0
78.406	0.0
78.421	2.0
78.436	3.0
78.451	1.0
78.466	0.0
78.481	5.0
78.496	4.0
78.511	3.0
78.526	1.0
78.541	1.0
78.556	4.0
78.571	4.0
78.586	3.0
78.601	1.0
78.616	4.0
78.631	4.0
78.646	1.0
78.661	5.0
78.676	7.0
78.691	1.0
78.706	5.0
78.721	4.0
78.736	4.0
78.751	8.0
78.766	2.0
78.781	2.0
78.796	3.0
78.811	4.0
78.826	3.0
78.841	3.0
78.856	2.0
78.871	2.0
78.885	2.0
78.9	4.0
78.915	3.0
78.93	5.0
78.945	3.0
78.96	1.0
78.975	2.0
78.99	2.0
79.005	1.0
79.02	4.0
79.035	3.0
79.05	3.0
79.065	2.0
79.08	1.0
79.095	3.0
79.11	2.0
79.125	3.0
79.14	2.0
79.155	0.0
79.17	3.0
79.185	6.0
79.2	7.0
79.215	5.0
79.23	6.0
79.245	3.0
79.26	4.0
79.275	1.0
79.29	3.0
79.304	2.0
79.319	4.0
79.334	5.0
79.349	4.0
79.364	5.0
79.379	4.0
79.394	4.0
79.409	1.0
79.424	4.0
79.439	4.0
79.454	5.0
79.469	2.0
79.484	4.0
79.499	2.0
79.514	6.0
79.529	1.0
79.544	2.0
79.559	3.0
79.574	5.0
79.589	2.0
79.604	3.0
79.619	2.0
79.634	2.0
79.649	3.0
79.664	2.0
79.679	5.0
79.693	5.0
79.708	3.0
79.723	2.0
79.738	1.0
79.753	1.0
79.768	4.0
79.783	1.0
79.798	2.0
79.813	2.0
79.828	6.0
79.843	6.0
79.858	3.0
79.873	2.0
79.888	2.0
79.903	3.0
79.918	6.0
79.933	1.0
79.948	3.0
79.963	2.0
79.978	3.0
79.993	5.0
80.008	2.0
80.023	4.0
80.038	0.0
80.053	1.0
80.068	7.0
80.083	1.0
80.098	5.0
80.113	0.0
80.128	3.0
80.143	5.0
80.158	3.0
80.173	4.0
80.188	4.0
80.202	3.0
80.217	3.0
80.232	7.0
80.247	2.0
80.262	3.0
80.277	3.0
80.292	1.0
80.307	4.0
80.322	3.0
80.337	3.0
80.352	2.0
80.367	0.0
80.382	2.0
80.397	4.0
80.412	2.0
80.427	2.0
80.442	6.0
80.457	7.0
80.472	7.0
80.487	3.0
80.502	1.0
80.517	2.0
80.532	2.0
80.547	1.0
80.562	2.0
80.577	3.0
80.592	5.0
80.607	1.0
80.622	1.0
80.637	2.0
80.652	5.0
80.667	6.0
80.682	0.0
80.697	1.0
80.712	0.0
80.727	2.0
80.742	3.0
80.757	2.0
80.772	4.0
80.787	7.0
80.802	5.0
80.817	4.0
80.832	4.0
80.847	2.0
80.862	1.0
80.877	4.0
80.892	2.0
80.907	2.0
80.922	3.0
80.937	2.0
80.952	4.0
80.967	4.0
80.982	0.0
80.997	4.0
81.012	2.0
81.027	6.0
81.042	4.0
81.057	8.0
81.072	5.0
81.087	0.0
81.101	3.0
81.116	1.0
81.131	2.0
81.146	2.0
81.161	1.0
81.176	2.0
81.191	0.0
81.206	3.0
81.221	6.0
81.236	2.0
81.251	3.0
81.266	1.0
81.281	2.0
81.296	3.0
81.311	0.0
81.326	5.0
81.341	3.0
81.356	3.0
81.371	3.0
81.386	2.0
81.401	2.0
81.416	3.0
81.431	1.0
81.446	1.0
81.461	2.0
81.476	3.0
81.491	2.0
81.506	5.0
81.521	3.0
81.536	3.0
81.55	4.0
81.565	7.0
81.58	4.0
81.595	1.0
81.61	3.0
81.625	2.0
81.64	2.0
81.655	2.0
81.67	2.0
81.685	1.0
81.7	6.0
81.715	0.0
81.73	1.0
81.745	3.0
81.76	4.0
81.775	6.0
81.79	6.0
81.805	2.0
81.819	2.0
81.834	5.0
81.849	0.0
81.864	5.0
81.879	2.0
81.894	5.0
81.909	2.0
81.924	5.0
81.939	5.0
81.954	0.0
81.969	2.0
81.984	2.0
81.999	4.0
82.013	6.0
82.028	5.0
82.043	6.0
82.058	3.0
82.073	4.0
82.088	1.0
82.103	3.0
82.118	1.0
82.133	4.0
82.148	2.0
82.163	4.0
82.177	1.0
82.192	4.0
82.207	4.0
82.222	4.0
82.237	2.0
82.252	5.0
82.267	4.0
82.282	3.0
82.297	4.0
82.312	3.0
82.326	2.0
82.341	2.0
82.356	6.0
82.371	1.0
82.386	3.0
82.401	5.0
82.416	7.0
82.431	4.0
82.445	4.0
82.46	4.0
82.475	3.0
82.49	4.0
82.505	2.0
82.52	2.0
82.535	1.0
82.55	5.0
82.565	4.0
82.579	5.0
82.594	4.0
82.609	5.0
82.624	4.0
82.639	3.0
82.654	2.0
82.669	5.0
82.684	3.0
82.698	2.0
82.713	2.0
82.728	4.0
82.743	2.0
82.758	2.0
82.773	2.0
82.788	3.0
82.803	2.0
82.817	2.0
82.832	2.0
82.847	3.0
82.862	1.0
82.877	2.0
82.892	3.0
82.907	5.0
82.922	2.0
82.937	1.0
82.951	0.0
82.966	4.0
82.981	2.0
82.996	7.0
83.011	3.0
83.026	2.0
83.041	5.0
83.056	2.0
83.07	0.0
83.085	0.0
83.1	2.0
83.115	2.0
83.13	1.0
83.145	7.0
83.16	4.0
83.175	2.0
83.19	2.0
83.204	4.0
83.219	4.0
83.234	3.0
83.249	3.0
83.264	3.0
83.279	4.0
83.294	3.0
83.309	4.0
83.324	2.0
83.339	3.0
83.353	2.0
83.368	6.0
83.383	0.0
83.398	2.0
83.413	4.0
83.428	2.0
83.443	2.0
83.458	7.0
83.473	6.0
83.488	2.0
83.503	4.0
83.517	3.0
83.532	6.0
83.547	2.0
83.562	4.0
83.577	2.0
83.592	2.0
83.607	7.0
83.622	7.0
83.637	4.0
83.652	5.0
83.667	2.0
83.682	7.0
83.697	4.0
83.712	2.0
83.727	1.0
83.741	0.0
83.756	3.0
83.771	5.0
83.786	3.0
83.801	3.0
83.816	2.0
83.831	1.0
83.846	3.0
83.861	6.0
83.876	6.0
83.891	6.0
83.906	1.0
83.921	5.0
83.936	2.0
83.951	2.0
83.966	7.0
83.981	2.0
83.996	2.0
84.011	3.0
84.026	1.0
84.041	7.0
84.056	5.0
84.071	3.0
84.086	1.0
84.101	1.0
84.116	2.0
84.131	4.0
84.146	2.0
84.161	4.0
84.176	5.0
84.191	2.0
84.206	4.0
84.221	3.0
84.236	4.0
84.251	4.0
84.266	2.0
84.281	2.0
84.296	5.0
84.311	0.0
84.326	3.0
84.341	3.0
84.356	6.0
84.371	5.0
84.386	1.0
84.401	3.0
84.416	2.0
84.431	5.0
84.446	4.0
84.461	4.0
84.476	0.0
84.492	0.0
84.507	3.0
84.522	5.0
84.537	5.0
84.552	5.0
84.567	9.0
84.582	3.0
84.597	3.0
84.612	4.0
84.627	2.0
84.642	6.0
84.657	3.0
84.672	4.0
84.687	2.0
84.702	3.0
84.717	4.0
84.733	2.0
84.748	3.0
84.763	5.0
84.778	2.0
84.793	4.0
84.808	5.0
84.823	5.0
84.838	3.0
84.853	3.0
84.868	3.0
84.883	1.0
84.898	4.0
84.913	2.0
84.929	5.0
84.944	2.0
84.959	4.0
84.974	4.0
84.989	5.0
85.004	5.0
85.019	4.0
85.034	1.0
85.049	2.0
85.064	3.0
85.079	1.0
85.094	3.0
85.11	2.0
85.125	2.0
85.14	2.0
85.155	6.0
85.17	2.0
85.185	3.0
85.2	3.0
85.215	1.0
85.23	3.0
85.245	0.0
85.26	4.0
85.276	4.0
85.291	4.0
85.306	2.0
85.321	3.0
85.336	1.0
85.351	5.0
85.366	6.0
85.381	3.0
85.396	5.0
85.411	3.0
85.426	1.0
85.441	2.0
85.457	5.0
85.472	3.0
85.487	2.0
85.502	4.0
85.517	0.0
85.532	3.0
85.547	3.0
85.562	3.0
85.577	4.0
85.592	4.0
85.607	5.0
85.622	3.0
85.637	5.0
85.653	3.0
85.668	2.0
85.683	3.0
85.698	2.0
85.713	4.0
85.728	3.0
85.743	4.0
85.758	2.0
85.773	3.0
85.788	3.0
85.803	2.0
85.818	3.0
85.833	2.0
85.848	3.0
85.863	3.0
85.879	1.0
85.894	3.0
85.909	0.0
85.924	3.0
85.939	8.0
85.954	3.0
85.969	4.0
85.984	7.0
85.999	2.0
86.014	4.0
86.029	4.0
86.044	3.0
86.059	1.0
86.074	1.0
86.089	4.0
86.104	3.0
86.119	5.0
86.134	3.0
86.149	4.0
86.164	2.0
86.179	3.0
86.194	4.0
86.209	6.0
86.224	5.0
86.239	0.0
86.254	0.0
86.269	0.0
86.284	1.0
86.299	2.0
86.314	2.0
86.33	5.0
86.345	3.0
86.36	4.0
86.375	1.0
86.39	1.0
86.405	2.0
86.42	2.0
86.435	3.0
86.45	2.0
86.465	3.0
86.48	8.0
86.495	3.0
86.51	3.0
86.525	11.0
86.54	2.0
86.555	3.0
86.57	2.0
86.585	6.0
86.6	1.0
86.615	5.0
86.63	4.0
86.645	3.0
86.659	4.0
86.674	2.0
86.689	1.0
86.704	3.0
86.719	4.0
86.734	4.0
86.749	3.0
86.764	4.0
86.779	3.0
86.794	3.0
86.809	1.0
86.824	5.0
86.839	3.0
86.854	4.0
86.869	3.0
86.884	3.0
86.899	8.0
86.914	3.0
86.929	8.0
86.944	3.0
86.959	9.0
86.974	7.0
86.989	6.0
87.004	6.0
87.019	3.0
87.034	1.0
87.049	4.0
87.064	3.0
87.079	3.0
87.094	4.0
87.109	3.0
87.124	3.0
87.139	4.0
87.154	2.0
87.169	3.0
87.184	4.0
87.199	3.0
87.214	4.0
87.229	1.0
87.244	2.0
87.259	5.0
87.274	3.0
87.289	5.0
87.304	4.0
87.319	3.0
87.334	3.0
87.349	3.0
87.364	2.0
87.379	2.0
87.394	3.0
87.409	2.0
87.424	7.0
87.438	2.0
87.453	5.0
87.468	1.0
87.483	6.0
87.498	1.0
87.513	2.0
87.528	2.0
87.543	6.0
87.558	3.0
87.573	2.0
87.588	3.0
87.603	5.0
87.618	2.0
87.633	2.0
87.648	7.0
87.663	2.0
87.678	3.0
87.693	4.0
87.708	3.0
87.723	4.0
87.738	8.0
87.753	3.0
87.768	2.0
87.783	5.0
87.798	0.0
87.813	8.0
87.828	1.0
87.843	3.0
87.858	2.0
87.873	3.0
87.888	1.0
87.903	5.0
87.918	3.0
87.933	3.0
87.948	1.0
87.963	1.0
87.978	6.0
87.993	1.0
88.008	3.0
88.023	4.0
88.038	5.0
88.053	6.0
88.068	3.0
88.083	5.0
88.098	4.0
88.113	4.0
88.128	2.0
88.143	2.0
88.158	1.0
88.174	0.0
88.189	4.0
88.204	2.0
88.219	1.0
88.234	2.0
88.249	2.0
88.264	4.0
88.279	4.0
88.294	2.0
88.309	4.0
88.324	3.0
88.339	5.0
88.354	5.0
88.369	3.0
88.384	7.0
88.399	3.0
88.414	8.0
88.429	3.0
88.444	0.0
88.459	3.0
88.474	3.0
88.489	2.0
88.504	2.0
88.519	2.0
88.534	6.0
88.549	4.0
88.564	8.0
88.58	2.0
88.595	5.0
88.61	2.0
88.625	3.0
88.64	0.0
88.655	6.0
88.67	2.0
88.685	3.0
88.7	4.0
88.715	8.0
88.73	3.0
88.745	4.0
88.76	4.0
88.775	1.0
88.79	1.0
88.805	3.0
88.82	6.0
88.835	2.0
88.85	0.0
88.865	5.0
88.88	4.0
88.895	2.0
88.911	2.0
88.926	4.0
88.941	3.0
88.956	3.0
88.971	3.0
88.986	4.0
89.001	7.0
89.016	1.0
89.031	5.0
89.046	4.0
89.061	2.0
89.076	4.0
89.091	4.0
89.106	0.0
89.121	1.0
89.136	2.0
89.151	7.0
89.166	4.0
89.181	5.0
89.196	1.0
89.211	1.0
89.227	2.0
89.242	5.0
89.257	4.0
89.272	3.0
89.287	1.0
89.302	4.0
89.317	3.0
89.332	4.0
89.347	3.0
89.362	6.0
89.377	2.0
89.392	4.0
89.407	1.0
89.422	7.0
89.437	5.0
89.452	4.0
89.467	3.0
89.482	2.0
89.497	2.0
89.512	4.0
89.527	6.0
89.542	2.0
89.557	1.0
89.572	2.0
89.587	2.0
89.602	3.0
89.617	4.0
89.632	1.0
89.647	4.0
89.662	3.0
89.677	3.0
89.693	5.0
89.708	5.0
89.723	3.0
89.738	2.0
89.753	3.0
89.768	3.0
89.783	8.0
89.798	2.0
89.813	3.0
89.828	4.0
89.843	3.0
89.858	3.0
89.873	4.0
89.888	1.0
89.903	5.0
89.918	1.0
89.933	4.0
89.948	2.0
89.963	2.0
89.978	3.0
89.993	4.0
90.008	2.0
90.023	4.0
90.038	2.0
90.053	4.0
90.068	5.0
90.083	4.0
90.097	3.0
90.112	5.0
90.127	7.0
90.142	5.0
90.157	5.0
90.172	5.0
90.187	3.0
90.202	4.0
90.217	5.0
90.232	5.0
90.247	7.0
90.262	3.0
90.277	1.0
90.292	1.0
90.307	2.0
90.322	5.0
90.337	3.0
90.352	5.0
90.367	1.0
90.382	2.0
90.397	0.0
90.412	4.0
90.427	1.0
90.442	6.0
90.457	3.0
90.472	3.0
90.487	1.0
90.501	3.0
90.516	3.0
90.531	3.0
90.546	1.0
90.561	3.0
90.576	2.0
90.591	4.0
90.606	2.0
90.621	4.0
90.636	4.0
90.651	6.0
90.666	4.0
90.681	3.0
90.696	3.0
90.711	1.0
90.726	3.0
90.741	1.0
90.755	5.0
90.77	5.0
90.785	2.0
90.8	1.0
90.815	0.0
90.83	5.0
90.845	2.0
90.86	6.0
90.875	1.0
90.89	2.0
90.905	4.0
90.92	4.0
90.935	5.0
90.95	2.0
90.965	6.0
90.979	6.0
90.994	3.0
91.009	4.0
91.024	2.0
91.039	5.0
91.054	7.0
91.069	3.0
91.084	1.0
91.099	2.0
91.114	7.0
91.129	3.0
91.144	4.0
91.159	1.0
91.174	4.0
91.188	6.0
91.203	3.0
91.218	2.0
91.233	3.0
91.248	1.0
91.263	0.0
91.278	2.0
91.293	5.0
91.308	2.0
91.323	6.0
91.338	2.0
91.353	2.0
91.368	4.0
91.383	4.0
91.398	4.0
91.412	4.0
91.427	5.0
91.442	4.0
91.457	2.0
91.472	1.0
91.487	1.0
91.502	4.0
91.517	4.0
91.532	4.0
91.547	3.0
91.562	1.0
91.577	4.0
91.592	2.0
91.607	0.0
91.622	3.0
91.637	2.0
91.652	3.0
91.666	3.0
91.681	2.0
91.696	4.0
91.711	2.0
91.726	5.0
91.741	0.0
91.756	7.0
91.771	2.0
91.786	4.0
91.801	3.0
91.816	1.0
91.831	1.0
91.846	7.0
91.861	2.0
91.876	5.0
91.891	0.0
91.906	4.0
91.921	1.0
91.936	0.0
91.951	4.0
91.966	6.0
91.981	4.0
91.995	1.0
92.01	4.0
92.025	2.0
92.04	2.0
92.055	3.0
92.07	2.0
92.085	4.0
92.1	1.0
92.115	4.0
92.13	3.0
92.145	4.0
92.16	3.0
92.175	4.0
92.19	2.0
92.205	6.0
92.22	2.0
92.235	5.0
92.25	3.0
92.265	4.0
92.28	3.0
92.295	4.0
92.31	1.0
92.325	3.0
92.34	1.0
92.355	0.0
92.37	0.0
92.385	2.0
92.4	4.0
92.415	1.0
92.43	6.0
92.445	4.0
92.46	0.0
92.475	4.0
92.49	1.0
92.505	5.0
92.52	1.0
92.535	4.0
92.55	0.0
92.565	0.0
92.58	3.0
92.595	2.0
92.61	1.0
92.625	0.0
92.64	5.0
92.655	5.0
92.67	4.0
92.685	1.0
92.7	3.0
92.715	3.0
92.73	2.0
92.745	3.0
92.76	1.0
92.775	4.0
92.79	1.0
92.805	6.0
92.82	6.0
92.835	5.0
92.85	4.0
92.865	3.0
92.88	4.0
92.895	3.0
92.91	4.0
92.925	2.0
92.94	1.0
92.955	4.0
92.97	0.0
92.985	2.0
93.0	2.0
93.015	1.0
93.03	1.0
93.045	4.0
93.06	1.0
93.075	2.0
93.09	2.0
93.105	5.0
93.12	1.0
93.135	4.0
93.15	4.0
93.165	3.0
93.18	2.0
93.195	2.0
93.21	4.0
93.225	2.0
93.24	0.0
93.255	3.0
93.27	3.0
93.285	2.0
93.3	1.0
93.315	2.0
93.33	1.0
93.345	4.0
93.36	7.0
93.375	1.0
93.39	2.0
93.405	5.0
93.42	4.0
93.435	8.0
93.45	7.0
93.465	2.0
93.48	5.0
93.495	5.0
93.51	1.0
93.525	4.0
93.54	1.0
93.555	2.0
93.57	4.0
93.585	3.0
93.6	3.0
93.615	2.0
93.63	4.0
93.645	4.0
93.66	2.0
93.675	4.0
93.69	6.0
93.705	3.0
93.72	2.0
93.735	4.0
93.75	3.0
93.765	3.0
93.78	8.0
93.795	1.0
93.81	3.0
93.824	4.0
93.839	1.0
93.854	5.0
93.869	3.0
93.884	5.0
93.899	2.0
93.914	3.0
93.929	2.0
93.944	2.0
93.959	4.0
93.974	4.0
93.989	3.0
94.004	7.0
94.019	3.0
94.034	3.0
94.049	4.0
94.064	2.0
94.079	6.0
94.094	3.0
94.108	3.0
94.123	3.0
94.138	2.0
94.153	5.0
94.168	3.0
94.183	2.0
94.198	1.0
94.213	2.0
94.228	3.0
94.243	6.0
94.258	2.0
94.273	5.0
94.288	3.0
94.302	5.0
94.317	0.0
94.332	3.0
94.347	2.0
94.362	2.0
94.377	5.0
94.392	1.0
94.407	4.0
94.422	3.0
94.437	3.0
94.452	6.0
94.466	3.0
94.481	6.0
94.496	4.0
94.511	6.0
94.526	6.0
94.541	6.0
94.556	2.0
94.571	5.0
94.586	3.0
94.601	4.0
94.615	1.0
94.63	1.0
94.645	4.0
94.66	6.0
94.675	5.0
94.69	2.0
94.705	1.0
94.72	1.0
94.735	1.0
94.749	4.0
94.764	3.0
94.779	7.0
94.794	4.0
94.809	0.0
94.824	4.0
94.839	6.0
94.854	3.0
94.868	1.0
94.883	5.0
94.898	3.0
94.913	5.0
94.928	4.0
94.943	4.0
94.958	1.0
94.973	9.0
94.987	3.0
95.002	5.0
95.017	2.0
95.032	1.0
95.047	3.0
95.062	3.0
95.077	1.0
95.092	4.0
95.106	1.0
95.121	5.0
95.136	2.0
95.151	2.0
95.166	8.0
95.181	3.0
95.196	5.0
95.211	2.0
95.226	6.0
95.24	7.0
95.255	2.0
95.27	5.0
95.285	7.0
95.3	7.0
95.315	4.0
95.33	2.0
95.345	3.0
95.359	2.0
95.374	6.0
95.389	4.0
95.404	5.0
95.419	4.0
95.434	4.0
95.449	1.0
95.464	6.0
95.478	3.0
95.493	2.0
95.508	0.0
95.523	2.0
95.538	1.0
95.553	5.0
95.568	2.0
95.583	1.0
95.597	3.0
95.612	1.0
95.627	2.0
95.642	2.0
95.657	1.0
95.672	2.0
95.687	1.0
95.702	5.0
95.717	3.0
95.731	0.0
95.746	3.0
95.761	1.0
95.776	3.0
95.791	5.0
95.806	3.0
95.821	2.0
95.836	2.0
95.851	3.0
95.866	6.0
95.88	2.0
95.895	3.0
95.91	3.0
95.925	1.0
95.94	5.0
95.955	2.0
95.97	3.0
95.985	2.0
96.0	3.0
96.015	3.0
96.029	7.0
96.044	2.0
96.059	4.0
96.074	3.0
96.089	7.0
96.104	3.0
96.119	3.0
96.134	7.0
96.149	2.0
96.164	2.0
96.179	8.0
96.194	2.0
96.208	5.0
96.223	2.0
96.238	4.0
96.253	4.0
96.268	3.0
96.283	3.0
96.298	0.0
96.313	5.0
96.328	6.0
96.343	4.0
96.358	4.0
96.373	6.0
96.388	2.0
96.403	3.0
96.417	6.0
96.432	4.0
96.447	0.0
96.462	6.0
96.477	3.0
96.492	4.0
96.507	4.0
96.522	5.0
96.537	4.0
96.552	1.0
96.567	2.0
96.582	0.0
96.597	4.0
96.612	2.0
96.627	1.0
96.642	2.0
96.656	4.0
96.671	5.0
96.686	3.0
96.701	1.0
96.716	2.0
96.731	7.0
96.746	4.0
96.761	4.0
96.776	1.0
96.791	3.0
96.806	3.0
96.821	5.0
96.836	3.0
96.851	5.0
96.866	1.0
96.881	4.0
96.896	4.0
96.911	3.0
96.926	2.0
96.94	4.0
96.955	3.0
96.97	4.0
96.985	5.0
97.0	1.0
97.015	5.0
97.03	4.0
97.045	3.0
97.06	1.0
97.075	4.0
97.09	4.0
97.105	2.0
97.12	2.0
97.135	2.0
97.15	3.0
97.165	3.0
97.18	5.0
97.195	4.0
97.21	4.0
97.225	3.0
97.239	4.0
97.254	3.0
97.269	1.0
97.284	7.0
97.299	2.0
97.314	4.0
97.329	0.0
97.344	2.0
97.359	3.0
97.374	3.0
97.389	3.0
97.404	1.0
97.419	5.0
97.434	3.0
97.449	1.0
97.464	1.0
97.479	4.0
97.494	3.0
97.509	2.0
97.524	3.0
97.538	6.0
97.553	6.0
97.568	2.0
97.583	8.0
97.598	3.0
97.613	8.0
97.628	0.0
97.643	2.0
97.658	3.0
97.673	2.0
97.688	3.0
97.703	1.0
97.718	6.0
97.733	4.0
97.748	2.0
97.763	2.0
97.778	8.0
97.792	0.0
97.807	6.0
97.822	2.0
97.837	3.0
97.852	5.0
97.867	2.0
97.882	5.0
97.897	1.0
97.912	4.0
97.927	2.0
97.942	3.0
97.957	2.0
97.972	5.0
97.987	2.0
98.001	4.0
98.016	2.0
98.031	3.0
98.046	2.0
98.061	0.0
98.076	2.0
98.091	3.0
98.106	3.0
98.121	4.0
98.136	4.0
98.151	5.0
98.166	5.0
98.181	1.0
98.195	6.0
98.21	2.0
98.225	9.0
98.24	5.0
98.255	5.0
98.27	4.0
98.285	3.0
98.3	1.0
98.315	2.0
98.33	2.0
98.345	2.0
98.359	1.0
98.374	4.0
98.389	1.0
98.404	1.0
98.419	0.0
98.434	5.0
98.449	2.0
98.464	2.0
98.479	5.0
98.494	1.0
98.508	5.0
98.523	3.0
98.538	1.0
98.553	2.0
98.568	3.0
98.583	2.0
98.598	5.0
98.613	2.0
98.628	4.0
98.642	4.0
98.657	3.0
98.672	4.0
98.687	6.0
98.702	4.0
98.717	2.0
98.732	5.0
98.747	0.0
98.762	2.0
98.776	2.0
98.791	4.0
98.806	2.0
98.821	2.0
98.836	4.0
98.851	8.0
98.866	6.0
98.881	3.0
98.896	4.0
98.91	1.0
98.925	2.0
98.94	6.0
98.955	2.0
98.97	4.0
98.985	3.0
99.0	1.0
99.015	3.0
99.029	1.0
99.044	2.0
99.059	3.0
99.074	4.0
99.089	2.0
99.104	3.0
99.119	4.0
99.133	4.0
99.148	2.0
99.163	1.0
99.178	5.0
99.193	0.0
99.208	2.0
99.223	6.0
99.238	4.0
99.252	1.0
99.267	1.0
99.282	2.0
99.297	3.0
99.312	4.0
99.327	2.0
99.342	4.0
99.356	2.0
99.371	5.0
99.386	4.0
99.401	1.0
99.416	4.0
99.431	3.0
99.446	4.0
99.461	4.0
99.475	2.0
99.49	3.0
99.505	4.0
99.52	0.0
99.535	6.0
99.55	6.0
99.565	6.0
99.579	1.0
99.594	2.0
99.609	5.0
99.624	3.0
99.639	7.0
99.654	2.0
99.669	4.0
99.683	1.0
99.698	2.0
99.713	6.0
99.728	2.0
99.743	3.0
99.758	5.0
99.772	4.0
99.787	5.0
99.802	5.0
99.817	5.0
99.832	3.0
99.847	0.0
99.862	1.0
99.876	1.0
99.891	4.0
99.906	3.0
99.921	1.0
99.936	1.0
99.951	4.0
99.966	3.0
99.98	3.0
99.995	6.0
100.01	1.0
100.025	2.0
100.04	1.0
100.055	1.0
100.069	4.0
100.084	2.0
100.099	1.0
100.114	2.0
100.129	3.0
100.144	4.0
100.159	0.0
100.173	1.0
100.188	4.0
100.203	4.0
100.218	1.0
100.233	3.0
100.248	2.0
100.262	4.0
100.277	3.0
100.292	5.0
100.307	2.0
100.322	2.0
100.337	3.0
100.351	2.0
100.366	6.0
100.381	5.0
100.396	3.0
100.411	7.0
100.426	1.0
100.441	1.0
100.455	5.0
100.47	2.0
100.485	4.0
100.5	4.0
100.515	3.0
100.53	3.0
100.544	0.0
100.559	4.0
100.574	0.0
100.589	2.0
100.604	4.0
100.619	4.0
100.633	1.0
100.648	4.0
100.663	5.0
100.678	2.0
100.693	1.0
100.708	4.0
100.722	6.0
100.737	4.0
100.752	4.0
100.767	4.0
100.782	10.0
100.796	0.0
100.811	3.0
100.826	0.0
100.841	5.0
100.856	2.0
100.871	3.0
100.885	4.0
100.9	1.0
100.915	5.0
100.93	1.0
100.945	1.0
100.96	2.0
100.974	2.0
100.989	5.0
101.004	0.0
101.019	4.0
101.034	0.0
101.048	1.0
101.063	2.0
101.078	3.0
101.093	2.0
101.108	4.0
101.123	2.0
101.137	2.0
101.152	2.0
101.167	8.0
101.182	5.0
101.197	2.0
101.211	2.0
101.226	4.0
101.241	1.0
101.256	4.0
101.271	3.0
101.285	3.0
101.3	2.0
101.315	3.0
101.33	5.0
101.345	1.0
101.359	5.0
101.374	6.0
101.389	2.0
101.404	2.0
101.419	3.0
101.433	5.0
101.448	2.0
101.463	3.0
101.478	3.0
101.493	2.0
101.507	3.0
101.522	5.0
101.537	1.0
101.552	4.0
101.567	0.0
101.581	3.0
101.596	4.0
101.611	3.0
101.626	3.0
101.64	1.0
101.655	2.0
101.67	4.0
101.685	2.0
101.7	1.0
101.714	5.0
101.729	2.0
101.744	5.0
101.759	4.0
101.773	3.0
101.788	3.0
101.803	4.0
101.818	4.0
101.833	3.0
101.847	4.0
101.862	5.0
101.877	3.0
101.892	4.0
101.906	6.0
101.921	6.0
101.936	3.0
101.951	6.0
101.965	4.0
101.98	0.0
101.995	5.0
102.01	5.0
102.025	6.0
102.039	3.0
102.054	2.0
102.069	4.0
102.084	1.0
102.098	2.0
102.113	4.0
102.128	3.0
102.143	0.0
102.157	2.0
102.172	1.0
102.187	3.0
102.202	5.0
102.216	3.0
102.231	1.0
102.246	6.0
102.261	3.0
102.275	2.0
102.29	1.0
102.305	3.0
102.32	2.0
102.334	2.0
102.349	6.0
102.364	4.0
102.378	3.0
102.393	2.0
102.408	2.0
102.423	2.0
102.437	3.0
102.452	2.0
102.467	2.0
102.482	1.0
102.496	2.0
102.511	6.0
102.526	2.0
102.541	4.0
102.555	4.0
102.57	3.0
102.585	6.0
102.6	7.0
102.614	4.0
102.629	0.0
102.644	3.0
102.659	2.0
102.673	3.0
102.688	1.0
102.703	2.0
102.717	3.0
102.732	1.0
102.747	3.0
102.762	2.0
102.776	3.0
102.791	3.0
102.806	2.0
102.821	3.0
102.835	2.0
102.85	3.0
102.865	3.0
102.88	4.0
102.894	6.0
102.909	2.0
102.924	5.0
102.938	6.0
102.953	5.0
102.968	1.0
102.983	4.0
102.997	3.0
103.012	5.0
103.027	2.0
103.042	2.0
103.056	1.0
103.071	2.0
103.086	4.0
103.101	3.0
103.115	3.0
103.13	0.0
103.145	1.0
103.16	5.0
103.174	3.0
103.189	4.0
103.204	2.0
103.219	4.0
103.233	2.0
103.248	0.0
103.263	3.0
103.278	5.0
103.292	5.0
103.307	4.0
103.322	5.0
103.337	4.0
103.351	7.0
103.366	2.0
103.381	4.0
103.396	4.0
103.41	3.0
103.425	3.0
103.44	2.0
103.455	5.0
103.469	3.0
103.484	0.0
103.499	4.0
103.514	5.0
103.529	5.0
103.543	4.0
103.558	1.0
103.573	4.0
103.588	2.0
103.602	5.0
103.617	2.0
103.632	2.0
103.647	5.0
103.661	4.0
103.676	3.0
103.691	4.0
103.706	1.0
103.721	9.0
103.735	2.0
103.75	8.0
103.765	4.0
103.78	4.0
103.795	2.0
103.809	4.0
103.824	7.0
103.839	2.0
103.854	4.0
103.869	2.0
103.883	3.0
103.898	3.0
103.913	3.0
103.928	4.0
103.943	4.0
103.957	2.0
103.972	5.0
103.987	2.0
104.002	0.0
104.017	3.0
104.031	5.0
104.046	4.0
104.061	5.0
104.076	2.0
104.091	5.0
104.106	5.0
104.12	1.0
104.135	1.0
104.15	4.0
104.165	3.0
104.18	3.0
104.195	3.0
104.209	3.0
104.224	5.0
104.239	1.0
104.254	0.0
104.269	5.0
104.284	6.0
104.299	7.0
104.313	2.0
104.328	2.0
104.343	1.0
104.358	5.0
104.373	3.0
104.388	2.0
104.403	4.0
104.417	3.0
104.432	5.0
104.447	3.0
104.462	7.0
104.477	0.0
104.492	4.0
104.507	2.0
104.522	4.0
104.536	3.0
104.551	9.0
104.566	4.0
104.581	3.0
104.596	9.0
104.611	4.0
104.626	6.0
104.641	5.0
104.656	0.0
104.67	8.0
104.685	0.0
104.7	8.0
104.715	5.0
104.73	4.0
104.745	2.0
104.76	3.0
104.775	3.0
104.79	4.0
104.804	1.0
104.819	4.0
104.834	2.0
104.849	3.0
104.864	3.0
104.879	7.0
104.894	2.0
104.909	1.0
104.924	6.0
104.939	1.0
104.954	2.0
104.968	4.0
104.983	6.0
104.998	0.0
105.013	3.0
105.028	1.0
105.043	5.0
105.058	6.0
105.073	4.0
105.088	3.0
105.103	2.0
105.118	4.0
105.133	3.0
105.147	1.0
105.162	4.0
105.177	1.0
105.192	2.0
105.207	5.0
105.222	2.0
105.237	3.0
105.252	1.0
105.267	2.0
105.282	1.0
105.297	7.0
105.312	5.0
105.327	1.0
105.342	6.0
105.356	2.0
105.371	1.0
105.386	4.0
105.401	5.0
105.416	3.0
105.431	3.0
105.446	2.0
105.461	5.0
105.476	3.0
105.491	2.0
105.506	4.0
105.521	4.0
105.536	7.0
105.551	4.0
105.566	4.0
105.581	4.0
105.595	1.0
105.61	3.0
105.625	5.0
105.64	1.0
105.655	1.0
105.67	2.0
105.685	5.0
105.7	3.0
105.715	3.0
105.73	0.0
105.745	2.0
105.76	4.0
105.775	5.0
105.79	4.0
105.805	2.0
105.82	5.0
105.835	1.0
105.85	3.0
105.864	4.0
105.879	1.0
105.894	5.0
105.909	5.0
105.924	1.0
105.939	0.0
105.954	7.0
105.969	4.0
105.984	3.0
105.999	0.0
106.014	3.0
106.029	4.0
106.044	1.0
106.059	3.0
106.074	3.0
106.089	1.0
106.104	1.0
106.119	4.0
106.134	6.0
106.148	1.0
106.163	6.0
106.178	4.0
106.193	4.0
106.208	4.0
106.223	5.0
106.238	8.0
106.253	6.0
106.268	4.0
106.283	3.0
106.298	2.0
106.313	2.0
106.328	4.0
106.343	5.0
106.358	3.0
106.373	3.0
106.388	1.0
106.403	2.0
106.418	4.0
106.432	1.0
106.447	0.0
106.462	3.0
106.477	3.0
106.492	1.0
106.507	5.0
106.522	0.0
106.537	7.0
106.552	6.0
106.567	1.0
106.582	2.0
106.597	4.0
106.612	1.0
106.627	4.0
106.642	4.0
106.657	2.0
106.672	5.0
106.687	1.0
106.701	6.0
106.716	3.0
106.731	4.0
106.746	6.0
106.761	1.0
106.776	1.0
106.791	5.0
106.806	1.0
106.821	4.0
106.836	6.0
106.851	2.0
106.866	1.0
106.881	0.0
106.896	7.0
106.911	3.0
106.926	2.0
106.941	2.0
106.955	3.0
106.97	4.0
106.985	2.0
107.0	2.0
107.015	1.0
107.03	3.0
107.045	5.0
107.06	4.0
107.075	1.0
107.09	6.0
107.105	0.0
107.12	3.0
107.135	3.0
107.15	3.0
107.165	3.0
107.18	5.0
107.194	2.0
107.209	5.0
107.224	7.0
107.239	2.0
107.254	1.0
107.269	4.0
107.284	4.0
107.299	5.0
107.314	2.0
107.329	3.0
107.344	4.0
107.359	3.0
107.374	2.0
107.389	5.0
107.404	2.0
107.418	4.0
107.433	3.0
107.448	9.0
107.463	2.0
107.478	5.0
107.493	1.0
107.508	8.0
107.523	3.0
107.538	4.0
107.553	2.0
107.568	1.0
107.583	1.0
107.598	5.0
107.613	0.0
107.627	0.0
107.642	3.0
107.657	6.0
107.672	1.0
107.687	2.0
107.702	3.0
107.717	5.0
107.732	1.0
107.747	2.0
107.762	3.0
107.777	3.0
107.792	4.0
107.807	2.0
107.821	2.0
107.836	6.0
107.851	4.0
107.866	8.0
107.881	4.0
107.896	1.0
107.911	1.0
107.926	2.0
107.941	2.0
107.956	2.0
107.971	4.0
107.986	0.0
108.0	1.0
108.015	5.0
108.03	2.0
108.045	4.0
108.06	5.0
108.075	5.0
108.09	4.0
108.105	5.0
108.12	3.0
108.135	3.0
108.15	4.0
108.164	3.0
108.179	5.0
108.194	3.0
108.209	1.0
108.224	1.0
108.239	4.0
108.254	3.0
108.269	3.0
108.284	6.0
108.299	6.0
108.313	6.0
108.328	8.0
108.343	2.0
108.358	0.0
108.373	6.0
108.388	7.0
108.403	4.0
108.418	1.0
108.433	4.0
108.448	2.0
108.462	0.0
108.477	1.0
108.492	1.0
108.507	3.0
108.522	3.0
108.537	3.0
108.552	2.0
108.567	1.0
108.582	3.0
108.597	1.0
108.611	1.0
108.626	2.0
108.641	2.0
108.656	0.0
108.671	4.0
108.686	3.0
108.701	6.0
108.716	4.0
108.731	3.0
108.745	2.0
108.76	5.0
108.775	2.0
108.79	4.0
108.805	2.0
108.82	5.0
108.835	4.0
108.85	4.0
108.865	3.0
108.879	3.0
108.894	2.0
108.909	1.0
108.924	2.0
108.939	4.0
108.954	5.0
108.969	4.0
108.984	1.0
108.999	3.0
109.013	5.0
109.028	3.0
109.043	5.0
109.058	2.0
109.073	1.0
109.088	2.0
109.103	1.0
109.118	6.0
109.133	2.0
109.147	1.0
109.162	1.0
109.177	2.0
109.192	5.0
109.207	4.0
109.222	4.0
109.237	4.0
109.252	3.0
109.267	6.0
109.281	5.0
109.296	7.0
109.311	6.0
109.326	3.0
109.341	3.0
109.356	2.0
109.371	6.0
109.386	2.0
109.4	2.0
109.415	3.0
109.43	3.0
109.445	2.0
109.46	5.0
109.475	5.0
109.49	3.0
109.505	6.0
109.52	4.0
109.534	0.0
109.549	4.0
109.564	1.0
109.579	3.0
109.594	4.0
109.609	1.0
109.624	3.0
109.639	2.0
109.653	2.0
109.668	1.0
109.683	2.0
109.698	4.0
109.713	2.0
109.728	6.0
109.743	4.0
109.758	4.0
109.773	4.0
109.787	1.0
109.802	3.0
109.817	6.0
109.832	2.0
109.847	3.0
109.862	1.0
109.877	1.0
109.892	1.0
109.907	3.0
109.921	6.0
109.936	7.0
109.951	1.0
109.966	6.0
109.981	1.0
109.996	0.0
110.011	4.0
110.026	4.0
110.04	0.0
110.055	3.0
110.07	1.0
110.085	3.0
110.1	3.0
110.115	3.0
110.13	0.0
110.145	3.0
110.16	8.0
110.174	4.0
110.189	3.0
110.204	3.0
110.219	2.0
110.234	3.0
110.249	2.0
110.264	1.0
110.279	4.0
110.294	8.0
110.308	4.0
110.323	2.0
110.338	3.0
110.353	2.0
110.368	0.0
110.383	2.0
110.398	0.0
110.413	1.0
110.428	2.0
110.442	1.0
110.457	2.0
110.472	7.0
110.487	3.0
110.502	2.0
110.517	2.0
110.532	4.0
110.547	2.0
110.561	0.0
110.576	2.0
110.591	1.0
110.606	5.0
110.621	4.0
110.636	6.0
110.651	2.0
110.666	2.0
110.681	5.0
110.695	2.0
110.71	6.0
110.725	2.0
110.74	4.0
110.755	4.0
110.77	2.0
110.785	2.0
110.8	5.0
110.815	3.0
110.829	2.0
110.844	2.0
110.859	3.0
110.874	4.0
110.889	6.0
110.904	2.0
110.919	3.0
110.934	3.0
110.948	4.0
110.963	4.0
110.978	4.0
110.993	4.0
111.008	3.0
111.023	1.0
111.038	4.0
111.053	4.0
111.067	4.0
111.082	3.0
111.097	1.0
111.112	6.0
111.127	2.0
111.142	4.0
111.157	3.0
111.172	5.0
111.186	3.0
111.201	5.0
111.216	2.0
111.231	4.0
111.246	1.0
111.261	3.0
111.276	4.0
111.291	3.0
111.305	5.0
111.32	3.0
111.335	1.0
111.35	6.0
111.365	2.0
111.38	3.0
111.395	6.0
111.41	4.0
111.424	4.0
111.439	4.0
111.454	4.0
111.469	1.0
111.484	1.0
111.499	6.0
111.514	5.0
111.528	2.0
111.543	6.0
111.558	3.0
111.573	4.0
111.588	2.0
111.603	1.0
111.618	4.0
111.633	2.0
111.647	7.0
111.662	5.0
111.677	4.0
111.692	5.0
111.707	5.0
111.722	2.0
111.737	3.0
111.751	6.0
111.766	4.0
111.781	4.0
111.796	8.0
111.811	2.0
111.826	1.0
111.84	3.0
111.855	4.0
111.87	1.0
111.885	4.0
111.9	3.0
111.915	4.0
111.93	2.0
111.944	6.0
111.959	4.0
111.974	4.0
111.989	5.0
112.004	3.0
112.019	6.0
112.033	4.0
112.048	4.0
112.063	3.0
112.078	3.0
112.093	5.0
112.108	2.0
112.123	3.0
112.137	3.0
112.152	8.0
112.167	4.0
112.182	3.0
112.197	2.0
112.212	3.0
112.226	3.0
112.241	3.0
112.256	3.0
112.271	4.0
112.286	3.0
112.301	1.0
112.315	1.0
112.33	3.0
112.345	1.0
112.36	1.0
112.375	5.0
112.389	3.0
112.404	3.0
112.419	2.0
112.434	6.0
112.449	2.0
112.464	2.0
112.478	1.0
112.493	3.0
112.508	3.0
112.523	1.0
112.538	1.0
112.553	2.0
112.567	6.0
112.582	2.0
112.597	4.0
112.612	3.0
112.627	6.0
112.642	7.0
112.656	2.0
112.671	3.0
112.686	3.0
112.701	4.0
112.716	5.0
112.73	1.0
112.745	2.0
112.76	1.0
112.775	6.0
112.79	4.0
112.805	4.0
112.819	1.0
112.834	5.0
112.849	4.0
112.864	5.0
112.879	7.0
112.894	3.0
112.908	1.0
112.923	5.0
112.938	3.0
112.953	6.0
112.968	5.0
112.983	6.0
112.997	4.0
113.012	3.0
113.027	1.0
113.042	3.0
113.057	3.0
113.072	4.0
113.086	3.0
113.101	4.0
113.116	3.0
113.131	5.0
113.146	3.0
113.161	2.0
113.175	3.0
113.19	4.0
113.205	1.0
113.22	5.0
113.235	4.0
113.25	8.0
113.265	7.0
113.279	3.0
113.294	3.0
113.309	11.0
113.324	1.0
113.339	7.0
113.354	7.0
113.368	3.0
113.383	2.0
113.398	2.0
113.413	5.0
113.428	5.0
113.443	6.0
113.458	4.0
113.472	4.0
113.487	3.0
113.502	3.0
113.517	5.0
113.532	3.0
113.547	2.0
113.562	3.0
113.576	5.0
113.591	6.0
113.606	4.0
113.621	9.0
113.636	5.0
113.651	2.0
113.666	4.0
113.681	5.0
113.695	2.0
113.71	1.0
113.725	5.0
113.74	3.0
113.755	5.0
113.77	7.0
113.785	5.0
113.8	3.0
113.814	3.0
113.829	3.0
113.844	1.0
113.859	2.0
113.874	4.0
113.889	6.0
113.904	2.0
113.919	1.0
113.934	3.0
113.949	1.0
113.963	3.0
113.978	4.0
113.993	7.0
114.008	3.0
114.023	1.0
114.038	2.0
114.053	3.0
114.068	2.0
114.083	3.0
114.098	1.0
114.113	2.0
114.127	6.0
114.142	4.0
114.157	4.0
114.172	4.0
114.187	6.0
114.202	8.0
114.217	4.0
114.232	2.0
114.247	2.0
114.262	5.0
114.277	6.0
114.292	3.0
114.307	2.0
114.322	2.0
114.337	3.0
114.351	3.0
114.366	5.0
114.381	6.0
114.396	2.0
114.411	0.0
114.426	4.0
114.441	3.0
114.456	4.0
114.471	6.0
114.486	2.0
114.501	3.0
114.516	5.0
114.531	5.0
114.546	3.0
114.561	6.0
114.576	1.0
114.591	6.0
114.606	2.0
114.621	1.0
114.636	2.0
114.65	2.0
114.665	1.0
114.68	3.0
114.695	3.0
114.71	3.0
114.725	3.0
114.74	3.0
114.755	4.0
114.77	4.0
114.785	3.0
114.8	4.0
114.815	5.0
114.83	4.0
114.845	5.0
114.86	4.0
114.875	5.0
114.89	2.0
114.905	4.0
114.92	5.0
114.935	5.0
114.95	3.0
114.965	5.0
114.98	3.0
114.995	1.0
115.009	2.0
115.024	6.0
115.039	1.0
115.054	3.0
115.069	1.0
115.084	3.0
115.099	2.0
115.114	3.0
115.129	6.0
115.144	2.0
115.159	4.0
115.174	6.0
115.189	5.0
115.204	2.0
115.219	1.0
115.234	2.0
115.249	3.0
115.264	3.0
115.279	3.0
115.294	5.0
115.309	4.0
115.323	6.0
115.338	7.0
115.353	1.0
115.368	4.0
115.383	6.0
115.398	5.0
115.413	3.0
115.428	6.0
115.443	4.0
115.458	4.0
115.473	1.0
115.488	2.0
115.503	3.0
115.518	7.0
115.533	6.0
115.548	2.0
115.562	5.0
115.577	1.0
115.592	2.0
115.607	3.0
115.622	0.0
115.637	3.0
115.652	3.0
115.667	3.0
115.682	3.0
115.697	4.0
115.712	3.0
115.727	2.0
115.741	0.0
115.756	0.0
115.771	1.0
115.786	6.0
115.801	3.0
115.816	1.0
115.831	4.0
115.846	2.0
115.861	6.0
115.875	5.0
115.89	4.0
115.905	3.0
115.92	5.0
115.935	3.0
115.95	6.0
115.965	1.0
115.98	7.0
115.995	3.0
116.009	6.0
116.024	7.0
116.039	4.0
116.054	7.0
116.069	0.0
116.084	5.0
116.099	2.0
116.113	6.0
116.128	7.0
116.143	3.0
116.158	1.0
116.173	4.0
116.188	7.0
116.202	3.0
116.217	4.0
116.232	4.0
116.247	4.0
116.262	2.0
116.277	8.0
116.291	4.0
116.306	3.0
116.321	3.0
116.336	7.0
116.351	2.0
116.366	2.0
116.38	5.0
116.395	4.0
116.41	5.0
116.425	8.0
116.44	3.0
116.454	2.0
116.469	2.0
116.484	5.0
116.499	2.0
116.514	3.0
116.528	4.0
116.543	3.0
116.558	1.0
116.573	5.0
116.588	1.0
116.602	4.0
116.617	2.0
116.632	4.0
116.647	3.0
116.662	3.0
116.676	1.0
116.691	5.0
116.706	4.0
116.721	6.0
116.735	4.0
116.75	3.0
116.765	1.0
116.78	4.0
116.795	1.0
116.809	6.0
116.824	4.0
116.839	2.0
116.854	2.0
116.868	1.0
116.883	3.0
116.898	6.0
116.913	6.0
116.927	6.0
116.942	6.0
116.957	3.0
116.972	7.0
116.986	4.0
117.001	8.0
117.016	5.0
117.031	2.0
117.045	2.0
117.06	5.0
117.075	1.0
117.09	6.0
117.104	1.0
117.119	3.0
117.134	5.0
117.149	3.0
117.163	2.0
117.178	6.0
117.193	5.0
117.208	5.0
117.222	5.0
117.237	2.0
117.252	2.0
117.267	4.0
117.281	5.0
117.296	4.0
117.311	3.0
117.325	6.0
117.34	4.0
117.355	3.0
117.37	3.0
117.384	3.0
117.399	1.0
117.414	5.0
117.429	5.0
117.443	2.0
117.458	5.0
117.473	1.0
117.487	1.0
117.502	2.0
117.517	2.0
117.532	3.0
117.546	6.0
117.561	3.0
117.576	5.0
117.59	1.0
117.605	3.0
117.62	3.0
117.635	3.0
117.649	3.0
117.664	4.0
117.679	4.0
117.693	4.0
117.708	3.0
117.723	6.0
117.738	5.0
117.752	3.0
117.767	1.0
117.782	3.0
117.796	3.0
117.811	3.0
117.826	2.0
117.841	4.0
117.855	5.0
117.87	6.0
117.885	6.0
117.899	2.0
117.914	4.0
117.929	3.0
117.944	1.0
117.958	7.0
117.973	2.0
117.988	0.0
118.002	3.0
118.017	3.0
118.032	5.0
118.047	3.0
118.062	3.0
118.077	6.0
118.092	3.0
118.107	5.0
118.121	7.0
118.136	4.0
118.151	3.0
118.166	8.0
118.181	8.0
118.196	2.0
118.211	6.0
118.225	4.0
118.24	5.0
118.255	3.0
118.27	1.0
118.285	4.0
118.3	4.0
118.315	4.0
118.33	3.0
118.344	3.0
118.359	5.0
118.374	3.0
118.389	5.0
118.404	2.0
118.419	2.0
118.434	3.0
118.449	3.0
118.463	7.0
118.478	7.0
118.493	5.0
118.508	5.0
118.523	4.0
118.538	1.0
118.553	4.0
118.567	5.0
118.582	4.0
118.597	7.0
118.612	12.0
118.627	1.0
118.642	4.0
118.657	4.0
118.672	5.0
118.686	5.0
118.701	0.0
118.716	6.0
118.731	6.0
118.746	3.0
118.761	4.0
118.776	6.0
118.791	2.0
118.805	2.0
118.82	3.0
118.835	2.0
118.85	5.0
118.865	3.0
118.88	6.0
118.895	3.0
118.909	1.0
118.924	4.0
118.939	3.0
118.954	4.0
118.969	3.0
118.984	2.0
118.999	3.0
119.014	3.0
119.028	3.0
119.043	1.0
119.058	4.0
119.073	0.0
119.088	2.0
119.103	2.0
119.118	2.0
119.133	7.0
119.147	1.0
119.162	2.0
119.177	7.0
119.192	10.0
119.207	3.0
119.222	4.0
119.237	3.0
119.251	5.0
119.266	5.0
119.281	3.0
119.296	3.0
119.311	3.0
119.326	3.0
119.341	3.0
119.356	3.0
119.37	1.0
119.385	3.0
119.4	2.0
119.415	2.0
119.43	3.0
119.445	3.0
119.46	5.0
119.475	3.0
119.489	3.0
119.504	1.0
119.519	4.0
119.534	1.0
119.549	3.0
119.564	1.0
119.579	3.0
119.593	4.0
119.608	5.0
119.623	1.0
119.638	1.0
119.653	4.0
119.668	1.0
119.683	3.0
119.698	1.0
119.712	2.0
119.727	4.0
119.742	2.0
119.757	2.0
119.772	0.0
119.787	2.0
119.802	5.0
119.817	2.0
119.831	3.0
119.846	3.0
119.861	2.0
119.876	3.0
119.891	4.0
119.906	2.0
119.921	5.0
119.935	0.0
119.95	1.0
119.965	2.0
119.98	3.0
119.995	0.0
120.01	2.0
120.025	0.0
120.04	3.0
120.054	3.0
120.069	2.0
120.084	2.0
120.099	2.0
120.114	3.0
120.129	1.0
120.144	4.0
120.159	1.0
120.173	2.0
120.188	2.0
120.203	2.0
120.218	0.0
120.233	1.0
120.248	0.0
120.263	0.0
120.277	0.0
120.292	0.0
120.307	2.0
120.322	1.0
120.337	1.0
120.352	1.0
120.367	1.0
120.382	0.0
120.396	0.0
120.411	0.0
120.426	1.0
120.441	0.0
120.456	0.0
120.471	0.0
120.486	0.0
120.501	0.0
120.515	0.0
120.53	0.0
120.545	0.0
120.56	0.0
120.575	0.0
120.59	0.0
120.605	0.0
120.619	1.0
120.634	0.0
120.649	0.0
120.664	0.0
120.679	0.0
120.694	0.0
120.709	0.0
120.724	1.0
120.738	0.0
120.753	1.0
120.768	0.0
120.783	0.0
120.798	0.0
120.813	0.0
120.828	2.0
120.843	0.0
120.857	0.0
120.872	0.0
120.887	0.0
120.902	0.0
120.917	1.0
120.932	0.0
120.947	0.0
120.961	1.0
120.976	0.0
