-1.217	0.0
-1.202	1.0
-1.187	0.0
-1.172	0.0
-1.157	0.0
-1.142	0.0
-1.128	0.0
-1.113	0.0
-1.098	0.0
-1.083	0.0
-1.068	0.0
-1.054	0.0
-1.039	0.0
-1.024	0.0
-1.009	0.0
-0.994	0.0
-0.979	0.0
-0.965	0.0
-0.95	0.0
-0.935	0.0
-0.92	0.0
-0.905	0.0
-0.891	0.0
-0.876	0.0
-0.861	0.0
-0.846	0.0
-0.831	0.0
-0.816	0.0
-0.802	0.0
-0.787	0.0
-0.772	0.0
-0.757	0.0
-0.742	0.0
-0.728	0.0
-0.713	0.0
-0.698	0.0
-0.683	0.0
-0.668	0.0
-0.653	0.0
-0.639	1.0
-0.624	0.0
-0.609	0.0
-0.594	0.0
-0.579	0.0
-0.565	0.0
-0.55	0.0
-0.535	0.0
-0.52	1.0
-0.505	0.0
-0.49	0.0
-0.476	0.0
-0.461	0.0
-0.446	0.0
-0.431	0.0
-0.416	1.0
-0.401	0.0
-0.387	0.0
-0.372	0.0
-0.357	0.0
-0.342	0.0
-0.327	0.0
-0.313	0.0
-0.298	0.0
-0.283	0.0
-0.268	0.0
-0.253	0.0
-0.238	0.0
-0.224	0.0
-0.209	0.0
-0.194	0.0
-0.179	0.0
-0.164	0.0
-0.15	0.0
-0.135	0.0
-0.12	0.0
-0.105	0.0
-0.09	0.0
-0.075	0.0
-0.061	0.0
-0.046	0.0
-0.031	0.0
-0.016	0.0
-0.001	0.0
0.013	0.0
0.028	0.0
0.043	0.0
0.058	0.0
0.073	0.0
0.088	0.0
0.102	0.0
0.117	0.0
0.132	0.0
0.147	1.0
0.162	0.0
0.176	0.0
0.191	0.0
0.206	0.0
0.221	0.0
0.236	0.0
0.251	0.0
0.265	0.0
0.28	0.0
0.295	0.0
0.31	0.0
0.325	0.0
0.339	0.0
0.354	0.0
0.369	0.0
0.384	0.0
0.399	0.0
0.414	0.0
0.428	0.0
0.443	0.0
0.458	0.0
0.473	0.0
0.488	0.0
0.502	0.0
0.517	0.0
0.532	0.0
0.547	0.0
0.562	0.0
0.577	0.0
0.591	0.0
0.606	0.0
0.621	0.0
0.636	0.0
0.651	0.0
0.665	0.0
0.68	0.0
0.695	0.0
0.71	0.0
0.725	0.0
0.74	0.0
0.754	0.0
0.769	0.0
0.784	0.0
0.799	0.0
0.814	0.0
0.828	0.0
0.843	0.0
0.858	0.0
0.873	0.0
0.888	0.0
0.903	0.0
0.917	0.0
0.932	0.0
0.947	0.0
0.962	0.0
0.977	0.0
0.991	0.0
1.006	0.0
1.021	0.0
1.036	0.0
1.051	0.0
1.065	0.0
1.08	0.0
1.095	0.0
1.11	0.0
1.125	0.0
1.14	0.0
1.154	0.0
1.169	0.0
1.184	0.0
1.199	0.0
1.214	0.0
1.228	0.0
1.243	0.0
1.258	0.0
1.273	0.0
1.288	1.0
1.302	0.0
1.317	0.0
1.332	0.0
1.347	0.0
1.362	0.0
1.376	0.0
1.391	0.0
1.406	0.0
1.421	0.0
1.436	0.0
1.45	1.0
1.465	0.0
1.48	0.0
1.495	0.0
1.51	0.0
1.524	0.0
1.539	0.0
1.554	0.0
1.569	0.0
1.584	0.0
1.598	0.0
1.613	0.0
1.628	0.0
1.643	0.0
1.658	0.0
1.672	0.0
1.687	0.0
1.702	0.0
1.717	0.0
1.732	1.0
1.746	0.0
1.761	0.0
1.776	1.0
1.791	0.0
1.806	0.0
1.82	0.0
1.835	0.0
1.85	1.0
1.865	0.0
1.88	0.0
1.894	1.0
1.909	0.0
1.924	0.0
1.939	0.0
1.954	0.0
1.968	0.0
1.983	0.0
1.998	0.0
2.013	0.0
2.028	0.0
2.042	0.0
2.057	0.0
2.072	0.0
2.087	0.0
2.101	0.0
2.116	0.0
2.131	1.0
2.146	0.0
2.161	0.0
2.175	0.0
2.19	0.0
2.205	0.0
2.22	1.0
2.235	1.0
2.249	0.0
2.264	0.0
2.279	0.0
2.294	1.0
2.308	1.0
2.323	0.0
2.338	2.0
2.353	1.0
2.368	1.0
2.382	0.0
2.397	0.0
2.412	0.0
2.427	2.0
2.442	1.0
2.456	1.0
2.471	0.0
2.486	1.0
2.501	0.0
2.515	1.0
2.53	2.0
2.545	4.0
2.56	3.0
2.575	2.0
2.589	0.0
2.604	0.0
2.619	3.0
2.634	5.0
2.649	2.0
2.663	3.0
2.678	3.0
2.693	3.0
2.708	2.0
2.722	2.0
2.737	3.0
2.752	0.0
2.767	2.0
2.782	4.0
2.796	6.0
2.811	1.0
2.826	2.0
2.841	0.0
2.856	3.0
2.87	3.0
2.885	2.0
2.9	3.0
2.915	3.0
2.93	3.0
2.944	0.0
2.959	2.0
2.974	7.0
2.989	2.0
3.004	4.0
3.018	2.0
3.033	3.0
3.048	2.0
3.063	1.0
3.078	5.0
3.092	4.0
3.107	6.0
3.122	3.0
3.137	2.0
3.152	0.0
3.166	3.0
3.181	4.0
3.196	3.0
3.211	8.0
3.226	4.0
3.24	8.0
3.255	6.0
3.27	7.0
3.285	7.0
3.3	4.0
3.315	5.0
3.329	3.0
3.344	4.0
3.359	3.0
3.374	5.0
3.389	4.0
3.403	10.0
3.418	6.0
3.433	9.0
3.448	6.0
3.463	6.0
3.478	4.0
3.492	6.0
3.507	4.0
3.522	8.0
3.537	5.0
3.552	3.0
3.567	3.0
3.581	5.0
3.596	3.0
3.611	7.0
3.626	6.0
3.641	5.0
3.656	3.0
3.671	6.0
3.685	4.0
3.7	6.0
3.715	6.0
3.73	5.0
3.745	3.0
3.76	9.0
3.775	4.0
3.789	4.0
3.804	3.0
3.819	6.0
3.834	6.0
3.849	5.0
3.864	1.0
3.879	7.0
3.894	6.0
3.908	4.0
3.923	5.0
3.938	5.0
3.953	8.0
3.968	8.0
3.983	12.0
3.998	3.0
4.013	3.0
4.027	4.0
4.042	8.0
4.057	4.0
4.072	6.0
4.087	6.0
4.102	9.0
4.117	4.0
4.132	3.0
4.147	1.0
4.162	8.0
4.176	10.0
4.191	7.0
4.206	7.0
4.221	5.0
4.236	6.0
4.251	6.0
4.266	8.0
4.281	7.0
4.296	8.0
4.311	9.0
4.326	8.0
4.341	7.0
4.356	5.0
4.37	10.0
4.385	8.0
4.4	6.0
4.415	11.0
4.43	6.0
4.445	9.0
4.46	3.0
4.475	12.0
4.49	11.0
4.505	5.0
4.52	8.0
4.535	8.0
4.55	9.0
4.565	10.0
4.58	8.0
4.595	11.0
4.61	5.0
4.625	11.0
4.639	4.0
4.654	7.0
4.669	6.0
4.684	4.0
4.699	3.0
4.714	11.0
4.729	6.0
4.744	2.0
4.759	7.0
4.774	11.0
4.789	10.0
4.804	3.0
4.819	7.0
4.834	9.0
4.849	14.0
4.864	4.0
4.879	6.0
4.894	8.0
4.909	10.0
4.924	11.0
4.939	3.0
4.954	10.0
4.969	11.0
4.984	5.0
4.999	8.0
5.014	7.0
5.029	5.0
5.044	5.0
5.059	6.0
5.074	10.0
5.089	9.0
5.104	7.0
5.119	9.0
5.134	7.0
5.149	3.0
5.164	8.0
5.179	10.0
5.194	7.0
5.209	5.0
5.224	12.0
5.239	9.0
5.254	5.0
5.269	4.0
5.284	10.0
5.299	8.0
5.314	13.0
5.329	9.0
5.344	8.0
5.359	7.0
5.374	10.0
5.389	9.0
5.404	10.0
5.419	6.0
5.434	9.0
5.449	7.0
5.464	7.0
5.479	17.0
5.494	10.0
5.509	12.0
5.524	10.0
5.539	5.0
5.554	8.0
5.569	7.0
5.584	9.0
5.599	12.0
5.614	9.0
5.629	8.0
5.644	8.0
5.659	11.0
5.674	9.0
5.689	6.0
5.704	12.0
5.719	10.0
5.734	6.0
5.749	8.0
5.764	11.0
5.779	13.0
5.794	9.0
5.809	5.0
5.824	13.0
5.839	8.0
5.854	9.0
5.869	4.0
5.884	6.0
5.899	7.0
5.914	11.0
5.929	5.0
5.944	11.0
5.959	9.0
5.974	5.0
5.989	13.0
6.004	5.0
6.019	9.0
6.034	6.0
6.049	5.0
6.064	13.0
6.079	10.0
6.094	9.0
6.109	3.0
6.124	10.0
6.139	11.0
6.154	12.0
6.169	9.0
6.184	7.0
6.199	5.0
6.214	9.0
6.229	6.0
6.244	14.0
6.259	9.0
6.274	11.0
6.289	11.0
6.304	7.0
6.319	14.0
6.334	8.0
6.349	9.0
6.364	5.0
6.379	11.0
6.394	7.0
6.409	11.0
6.424	14.0
6.439	9.0
6.454	10.0
6.469	8.0
6.484	15.0
6.499	7.0
6.514	10.0
6.529	9.0
6.544	13.0
6.559	9.0
6.574	15.0
6.589	5.0
6.604	5.0
6.619	17.0
6.634	11.0
6.649	14.0
6.664	6.0
6.679	7.0
6.694	13.0
6.709	7.0
6.724	7.0
6.739	8.0
6.754	9.0
6.769	14.0
6.784	5.0
6.799	6.0
6.814	9.0
6.829	9.0
6.844	11.0
6.859	10.0
6.873	8.0
6.888	13.0
6.903	5.0
6.918	16.0
6.933	13.0
6.948	6.0
6.963	4.0
6.978	9.0
6.993	8.0
7.008	9.0
7.023	5.0
7.038	11.0
7.053	7.0
7.068	6.0
7.083	10.0
7.098	7.0
7.113	12.0
7.128	13.0
7.143	12.0
7.157	8.0
7.172	13.0
7.187	6.0
7.202	5.0
7.217	9.0
7.232	8.0
7.247	9.0
7.262	11.0
7.277	13.0
7.292	7.0
7.307	12.0
7.322	10.0
7.336	8.0
7.351	6.0
7.366	7.0
7.381	6.0
7.396	5.0
7.411	11.0
7.426	4.0
7.441	9.0
7.456	4.0
7.471	6.0
7.485	4.0
7.5	10.0
7.515	3.0
7.53	7.0
7.545	11.0
7.56	5.0
7.575	10.0
7.59	6.0
7.604	8.0
7.619	9.0
7.634	1.0
7.649	7.0
7.664	10.0
7.679	10.0
7.693	9.0
7.708	8.0
7.723	7.0
7.738	12.0
7.753	9.0
7.768	6.0
7.783	6.0
7.797	9.0
7.812	5.0
7.827	5.0
7.842	10.0
7.857	7.0
7.871	19.0
7.886	8.0
7.901	5.0
7.916	10.0
7.931	10.0
7.945	19.0
7.96	7.0
7.975	12.0
7.99	10.0
8.005	12.0
8.019	9.0
8.034	7.0
8.049	12.0
8.064	10.0
8.078	8.0
8.093	6.0
8.108	8.0
8.123	10.0
8.137	5.0
8.152	5.0
8.167	5.0
8.182	9.0
8.196	15.0
8.211	9.0
8.226	8.0
8.241	7.0
8.255	13.0
8.27	8.0
8.285	11.0
8.3	9.0
8.314	7.0
8.329	4.0
8.344	6.0
8.358	10.0
8.373	8.0
8.388	6.0
8.403	9.0
8.417	4.0
8.432	9.0
8.447	10.0
8.461	11.0
8.476	3.0
8.491	5.0
8.505	8.0
8.52	9.0
8.535	6.0
8.55	7.0
8.564	9.0
8.579	9.0
8.594	5.0
8.608	7.0
8.623	10.0
8.638	11.0
8.652	14.0
8.667	6.0
8.682	12.0
8.696	7.0
8.711	9.0
8.726	10.0
8.74	6.0
8.755	12.0
8.77	9.0
8.784	10.0
8.799	4.0
8.814	6.0
8.828	11.0
8.843	14.0
8.858	10.0
8.872	8.0
8.887	8.0
8.902	11.0
8.916	15.0
8.931	7.0
8.946	11.0
8.96	14.0
8.975	6.0
8.99	1.0
9.004	11.0
9.019	7.0
9.034	4.0
9.048	6.0
9.063	9.0
9.077	12.0
9.092	12.0
9.107	8.0
9.121	7.0
9.136	8.0
9.151	9.0
9.165	8.0
9.18	8.0
9.195	8.0
9.209	9.0
9.224	9.0
9.239	8.0
9.253	10.0
9.268	4.0
9.283	7.0
9.297	12.0
9.312	8.0
9.327	10.0
9.341	8.0
9.356	12.0
9.371	6.0
9.385	5.0
9.4	11.0
9.415	13.0
9.429	4.0
9.444	7.0
9.458	7.0
9.473	9.0
9.488	13.0
9.502	9.0
9.517	8.0
9.532	11.0
9.546	2.0
9.561	7.0
9.576	9.0
9.59	12.0
9.605	9.0
9.62	10.0
9.635	14.0
9.649	16.0
9.664	10.0
9.679	8.0
9.693	6.0
9.708	10.0
9.723	8.0
9.737	10.0
9.752	8.0
9.767	9.0
9.781	5.0
9.796	12.0
9.811	11.0
9.825	6.0
9.84	7.0
9.855	6.0
9.87	8.0
9.884	11.0
9.899	7.0
9.914	13.0
9.928	7.0
9.943	7.0
9.958	11.0
9.973	5.0
9.987	10.0
10.002	11.0
10.017	5.0
10.031	6.0
10.046	8.0
10.061	9.0
10.076	8.0
10.09	4.0
10.105	9.0
10.12	16.0
10.135	10.0
10.149	11.0
10.164	6.0
10.179	8.0
10.194	11.0
10.208	14.0
10.223	6.0
10.238	5.0
10.253	8.0
10.267	11.0
10.282	5.0
10.297	5.0
10.312	8.0
10.326	9.0
10.341	15.0
10.356	8.0
10.371	7.0
10.386	4.0
10.4	14.0
10.415	7.0
10.43	10.0
10.445	13.0
10.46	8.0
10.474	5.0
10.489	6.0
10.504	7.0
10.519	6.0
10.533	7.0
10.548	4.0
10.563	14.0
10.578	8.0
10.593	13.0
10.608	8.0
10.622	10.0
10.637	6.0
10.652	6.0
10.667	8.0
10.682	5.0
10.696	9.0
10.711	9.0
10.726	4.0
10.741	12.0
10.756	8.0
10.771	9.0
10.785	7.0
10.8	5.0
10.815	7.0
10.83	6.0
10.845	8.0
10.86	9.0
10.874	8.0
10.889	12.0
10.904	7.0
10.919	7.0
10.934	9.0
10.949	10.0
10.963	10.0
10.978	8.0
10.993	6.0
11.008	10.0
11.023	10.0
11.038	5.0
11.053	12.0
11.067	2.0
11.082	5.0
11.097	7.0
11.112	9.0
11.127	10.0
11.142	12.0
11.157	7.0
11.172	5.0
11.186	6.0
11.201	7.0
11.216	15.0
11.231	11.0
11.246	12.0
11.261	14.0
11.276	6.0
11.291	6.0
11.305	9.0
11.32	10.0
11.335	5.0
11.35	8.0
11.365	8.0
11.38	1.0
11.395	10.0
11.41	11.0
11.424	5.0
11.439	11.0
11.454	11.0
11.469	4.0
11.484	8.0
11.499	12.0
11.514	8.0
11.529	10.0
11.544	9.0
11.558	8.0
11.573	5.0
11.588	9.0
11.603	8.0
11.618	7.0
11.633	10.0
11.648	5.0
11.663	9.0
11.678	8.0
11.693	12.0
11.707	8.0
11.722	8.0
11.737	11.0
11.752	12.0
11.767	8.0
11.782	13.0
11.797	10.0
11.812	14.0
11.827	6.0
11.842	11.0
11.856	8.0
11.871	10.0
11.886	14.0
11.901	9.0
11.916	13.0
11.931	5.0
11.946	11.0
11.961	9.0
11.976	11.0
11.991	11.0
12.006	6.0
12.02	8.0
12.035	11.0
12.05	9.0
12.065	15.0
12.08	10.0
12.095	9.0
12.11	7.0
12.125	11.0
12.14	9.0
12.155	9.0
12.17	16.0
12.184	7.0
12.199	15.0
12.214	11.0
12.229	11.0
12.244	7.0
12.259	6.0
12.274	13.0
12.289	10.0
12.304	13.0
12.319	4.0
12.334	11.0
12.348	9.0
12.363	12.0
12.378	16.0
12.393	16.0
12.408	9.0
12.423	10.0
12.438	17.0
12.453	12.0
12.468	13.0
12.483	10.0
12.498	15.0
12.513	11.0
12.527	12.0
12.542	6.0
12.557	14.0
12.572	22.0
12.587	13.0
12.602	9.0
12.617	5.0
12.632	13.0
12.647	10.0
12.662	13.0
12.677	18.0
12.692	16.0
12.707	9.0
12.721	15.0
12.736	16.0
12.751	13.0
12.766	14.0
12.781	11.0
12.796	22.0
12.811	13.0
12.826	11.0
12.841	16.0
12.856	17.0
12.871	8.0
12.886	10.0
12.9	20.0
12.915	17.0
12.93	18.0
12.945	15.0
12.96	19.0
12.975	17.0
12.99	13.0
13.005	14.0
13.02	15.0
13.035	18.0
13.05	28.0
13.065	22.0
13.08	20.0
13.094	13.0
13.109	16.0
13.124	21.0
13.139	13.0
13.154	18.0
13.169	19.0
13.184	21.0
13.199	13.0
13.214	14.0
13.229	21.0
13.244	10.0
13.259	16.0
13.274	22.0
13.288	16.0
13.303	19.0
13.318	26.0
13.333	19.0
13.348	29.0
13.363	13.0
13.378	26.0
13.393	23.0
13.408	31.0
13.423	20.0
13.438	31.0
13.453	31.0
13.468	44.0
13.482	41.0
13.497	42.0
13.512	37.0
13.527	36.0
13.542	41.0
13.557	53.0
13.572	50.0
13.587	63.0
13.602	56.0
13.617	68.0
13.632	69.0
13.647	85.0
13.662	64.0
13.677	69.0
13.691	93.0
13.706	74.0
13.721	107.0
13.736	97.0
13.751	103.0
13.766	107.0
13.781	132.0
13.796	131.0
13.811	130.0
13.826	131.0
13.841	132.0
13.856	116.0
13.871	113.0
13.885	105.0
13.9	99.0
13.915	63.0
13.93	74.0
13.945	64.0
13.96	57.0
13.975	54.0
13.99	43.0
14.005	37.0
14.02	35.0
14.035	29.0
14.05	32.0
14.065	23.0
14.08	22.0
14.094	22.0
14.109	15.0
14.124	11.0
14.139	24.0
14.154	23.0
14.169	23.0
14.184	17.0
14.199	32.0
14.214	8.0
14.229	17.0
14.244	18.0
14.259	13.0
14.274	16.0
14.288	17.0
14.303	13.0
14.318	20.0
14.333	17.0
14.348	15.0
14.363	21.0
14.378	23.0
14.393	19.0
14.408	14.0
14.423	25.0
14.438	10.0
14.453	17.0
14.468	19.0
14.482	16.0
14.497	17.0
14.512	24.0
14.527	17.0
14.542	20.0
14.557	16.0
14.572	14.0
14.587	21.0
14.602	13.0
14.617	25.0
14.632	22.0
14.647	17.0
14.661	25.0
14.676	20.0
14.691	16.0
14.706	17.0
14.721	18.0
14.736	14.0
14.751	19.0
14.766	12.0
14.781	23.0
14.796	20.0
14.811	18.0
14.826	16.0
14.84	15.0
14.855	23.0
14.87	13.0
14.885	19.0
14.9	22.0
14.915	16.0
14.93	18.0
14.945	14.0
14.96	12.0
14.975	12.0
14.989	21.0
15.004	15.0
15.019	14.0
15.034	11.0
15.049	7.0
15.064	18.0
15.079	14.0
15.094	17.0
15.109	23.0
15.124	13.0
15.138	12.0
15.153	18.0
15.168	20.0
15.183	10.0
15.198	11.0
15.213	15.0
15.228	19.0
15.243	11.0
15.258	10.0
15.272	15.0
15.287	11.0
15.302	9.0
15.317	9.0
15.332	13.0
15.347	17.0
15.362	17.0
15.377	19.0
15.391	15.0
15.406	18.0
15.421	17.0
15.436	19.0
15.451	18.0
15.466	18.0
15.481	12.0
15.496	18.0
15.51	11.0
15.525	14.0
15.54	19.0
15.555	12.0
15.57	12.0
15.585	12.0
15.6	18.0
15.614	9.0
15.629	19.0
15.644	10.0
15.659	22.0
15.674	15.0
15.689	12.0
15.704	10.0
15.718	8.0
15.733	12.0
15.748	15.0
15.763	14.0
15.778	16.0
15.793	15.0
15.808	12.0
15.822	13.0
15.837	16.0
15.852	18.0
15.867	16.0
15.882	12.0
15.897	9.0
15.911	12.0
15.926	12.0
15.941	17.0
15.956	18.0
15.971	15.0
15.986	21.0
16.0	14.0
16.015	15.0
16.03	17.0
16.045	19.0
16.06	11.0
16.074	20.0
16.089	19.0
16.104	14.0
16.119	12.0
16.134	13.0
16.149	9.0
16.163	11.0
16.178	14.0
16.193	10.0
16.208	11.0
16.223	17.0
16.237	14.0
16.252	13.0
16.267	17.0
16.282	6.0
16.297	9.0
16.311	9.0
16.326	9.0
16.341	14.0
16.356	13.0
16.37	15.0
16.385	16.0
16.4	17.0
16.415	14.0
16.43	18.0
16.444	17.0
16.459	18.0
16.474	15.0
16.489	10.0
16.504	8.0
16.518	12.0
16.533	18.0
16.548	11.0
16.563	13.0
16.577	21.0
16.592	25.0
16.607	11.0
16.622	18.0
16.637	18.0
16.651	24.0
16.666	16.0
16.681	29.0
16.696	28.0
16.71	33.0
16.725	33.0
16.74	34.0
16.755	19.0
16.77	23.0
16.784	33.0
16.799	35.0
16.814	39.0
16.829	33.0
16.843	44.0
16.858	57.0
16.873	64.0
16.888	60.0
16.902	59.0
16.917	73.0
16.932	62.0
16.947	86.0
16.961	75.0
16.976	62.0
16.991	70.0
17.006	68.0
17.021	49.0
17.035	55.0
17.05	50.0
17.065	44.0
17.08	42.0
17.094	34.0
17.109	23.0
17.124	30.0
17.139	18.0
17.153	15.0
17.168	21.0
17.183	23.0
17.198	15.0
17.212	19.0
17.227	14.0
17.242	14.0
17.257	16.0
17.271	19.0
17.286	16.0
17.301	8.0
17.316	19.0
17.33	15.0
17.345	11.0
17.36	17.0
17.375	18.0
17.39	13.0
17.404	15.0
17.419	21.0
17.434	17.0
17.449	12.0
17.463	16.0
17.478	12.0
17.493	16.0
17.508	16.0
17.522	12.0
17.537	17.0
17.552	11.0
17.567	10.0
17.581	12.0
17.596	18.0
17.611	12.0
17.626	7.0
17.641	16.0
17.655	8.0
17.67	12.0
17.685	17.0
17.7	15.0
17.714	10.0
17.729	14.0
17.744	9.0
17.759	17.0
17.773	16.0
17.788	11.0
17.803	14.0
17.818	12.0
17.833	16.0
17.847	16.0
17.862	14.0
17.877	15.0
17.892	8.0
17.906	9.0
17.921	8.0
17.936	23.0
17.951	12.0
17.966	12.0
17.98	10.0
17.995	19.0
18.01	8.0
18.025	13.0
18.04	14.0
18.054	12.0
18.069	13.0
18.084	13.0
18.099	13.0
18.114	8.0
18.128	3.0
18.143	13.0
18.158	7.0
18.173	6.0
18.188	16.0
18.202	13.0
18.217	17.0
18.232	11.0
18.247	13.0
18.262	14.0
18.276	11.0
18.291	8.0
18.306	14.0
18.321	8.0
18.336	18.0
18.35	6.0
18.365	16.0
18.38	17.0
18.395	14.0
18.41	8.0
18.424	15.0
18.439	10.0
18.454	10.0
18.469	11.0
18.484	11.0
18.498	9.0
18.513	12.0
18.528	15.0
18.543	9.0
18.558	18.0
18.573	7.0
18.587	8.0
18.602	10.0
18.617	7.0
18.632	11.0
18.647	7.0
18.661	16.0
18.676	10.0
18.691	19.0
18.706	8.0
18.721	18.0
18.736	19.0
18.75	14.0
18.765	10.0
18.78	12.0
18.795	6.0
18.81	12.0
18.825	13.0
18.839	13.0
18.854	17.0
18.869	12.0
18.884	14.0
18.899	12.0
18.913	13.0
18.928	12.0
18.943	14.0
18.958	15.0
18.973	13.0
18.988	15.0
19.002	8.0
19.017	12.0
19.032	11.0
19.047	16.0
19.062	16.0
19.077	13.0
19.091	14.0
19.106	7.0
19.121	8.0
19.136	12.0
19.151	16.0
19.165	14.0
19.18	14.0
19.195	9.0
19.21	13.0
19.225	15.0
19.24	16.0
19.254	9.0
19.269	16.0
19.284	9.0
19.299	13.0
19.314	13.0
19.329	15.0
19.343	16.0
19.358	13.0
19.373	15.0
19.388	15.0
19.403	18.0
19.417	21.0
19.432	21.0
19.447	27.0
19.462	17.0
19.477	26.0
19.492	31.0
19.506	22.0
19.521	23.0
19.536	31.0
19.551	32.0
19.566	48.0
19.58	34.0
19.595	36.0
19.61	47.0
19.625	44.0
19.64	45.0
19.655	37.0
19.669	35.0
19.684	28.0
19.699	39.0
19.714	24.0
19.729	28.0
19.743	24.0
19.758	21.0
19.773	21.0
19.788	19.0
19.803	25.0
19.817	22.0
19.832	14.0
19.847	16.0
19.862	10.0
19.877	12.0
19.891	17.0
19.906	19.0
19.921	22.0
19.936	14.0
19.951	19.0
19.965	16.0
19.98	7.0
19.995	9.0
20.01	12.0
20.025	14.0
20.039	11.0
20.054	11.0
20.069	19.0
20.084	15.0
20.099	11.0
20.113	12.0
20.128	13.0
20.143	10.0
20.158	11.0
20.173	12.0
20.187	14.0
20.202	14.0
20.217	12.0
20.232	17.0
20.246	13.0
20.261	7.0
20.276	17.0
20.291	9.0
20.306	22.0
20.32	10.0
20.335	12.0
20.35	12.0
20.365	12.0
20.38	5.0
20.394	10.0
20.409	14.0
20.424	5.0
20.439	16.0
20.453	15.0
20.468	7.0
20.483	11.0
20.498	12.0
20.513	14.0
20.527	6.0
20.542	15.0
20.557	13.0
20.572	14.0
20.586	15.0
20.601	8.0
20.616	12.0
20.631	16.0
20.646	11.0
20.66	11.0
20.675	14.0
20.69	12.0
20.705	13.0
20.719	13.0
20.734	10.0
20.749	9.0
20.764	7.0
20.779	11.0
20.793	10.0
20.808	7.0
20.823	7.0
20.838	4.0
20.853	6.0
20.867	10.0
20.882	11.0
20.897	15.0
20.912	15.0
20.926	11.0
20.941	9.0
20.956	9.0
20.971	14.0
20.986	14.0
21.0	6.0
21.015	7.0
21.03	11.0
21.045	10.0
21.06	10.0
21.074	9.0
21.089	11.0
21.104	15.0
21.119	13.0
21.134	14.0
21.148	8.0
21.163	8.0
21.178	10.0
21.193	20.0
21.208	13.0
21.222	12.0
21.237	11.0
21.252	14.0
21.267	18.0
21.282	12.0
21.296	10.0
21.311	16.0
21.326	16.0
21.341	6.0
21.356	8.0
21.37	6.0
21.385	22.0
21.4	10.0
21.415	11.0
21.43	11.0
21.444	13.0
21.459	13.0
21.474	16.0
21.489	13.0
21.504	15.0
21.519	14.0
21.533	16.0
21.548	9.0
21.563	13.0
21.578	18.0
21.593	12.0
21.608	19.0
21.622	15.0
21.637	11.0
21.652	13.0
21.667	17.0
21.682	16.0
21.697	18.0
21.712	22.0
21.726	26.0
21.741	25.0
21.756	29.0
21.771	30.0
21.786	37.0
21.801	39.0
21.816	43.0
21.83	47.0
21.845	57.0
21.86	69.0
21.875	55.0
21.89	75.0
21.905	74.0
21.92	74.0
21.935	82.0
21.949	80.0
21.964	89.0
21.979	68.0
21.994	68.0
22.009	74.0
22.024	72.0
22.039	68.0
22.054	45.0
22.069	53.0
22.083	61.0
22.098	40.0
22.113	36.0
22.128	33.0
22.143	28.0
22.158	24.0
22.173	24.0
22.188	21.0
22.203	18.0
22.218	24.0
22.233	18.0
22.248	13.0
22.262	14.0
22.277	13.0
22.292	17.0
22.307	15.0
22.322	18.0
22.337	11.0
22.352	13.0
22.367	13.0
22.382	18.0
22.397	12.0
22.412	14.0
22.427	8.0
22.442	25.0
22.457	14.0
22.472	15.0
22.487	10.0
22.502	15.0
22.516	10.0
22.531	9.0
22.546	13.0
22.561	9.0
22.576	15.0
22.591	9.0
22.606	8.0
22.621	9.0
22.636	14.0
22.651	14.0
22.666	16.0
22.681	13.0
22.696	8.0
22.711	9.0
22.726	10.0
22.741	11.0
22.756	9.0
22.771	10.0
22.786	14.0
22.801	12.0
22.816	5.0
22.831	11.0
22.846	14.0
22.861	7.0
22.876	13.0
22.891	21.0
22.906	10.0
22.92	14.0
22.935	10.0
22.95	17.0
22.965	11.0
22.98	8.0
22.995	9.0
23.01	12.0
23.025	10.0
23.04	12.0
23.055	5.0
23.07	9.0
23.085	6.0
23.1	11.0
23.115	6.0
23.13	4.0
23.145	5.0
23.16	7.0
23.175	14.0
23.19	13.0
23.205	5.0
23.22	8.0
23.235	10.0
23.25	11.0
23.265	14.0
23.28	11.0
23.295	11.0
23.31	13.0
23.325	11.0
23.34	15.0
23.355	12.0
23.37	12.0
23.384	17.0
23.399	9.0
23.414	8.0
23.429	5.0
23.444	9.0
23.459	11.0
23.474	7.0
23.489	7.0
23.504	8.0
23.519	8.0
23.534	11.0
23.549	8.0
23.564	12.0
23.579	16.0
23.594	6.0
23.609	19.0
23.624	10.0
23.639	8.0
23.654	14.0
23.668	12.0
23.683	6.0
23.698	15.0
23.713	10.0
23.728	6.0
23.743	20.0
23.758	11.0
23.773	11.0
23.788	17.0
23.803	15.0
23.818	13.0
23.833	12.0
23.848	14.0
23.862	20.0
23.877	20.0
23.892	17.0
23.907	21.0
23.922	26.0
23.937	23.0
23.952	29.0
23.967	39.0
23.982	29.0
23.997	32.0
24.011	37.0
24.026	54.0
24.041	44.0
24.056	43.0
24.071	51.0
24.086	53.0
24.101	46.0
24.116	41.0
24.131	57.0
24.145	50.0
24.16	42.0
24.175	41.0
24.19	43.0
24.205	42.0
24.22	32.0
24.235	32.0
24.249	22.0
24.264	21.0
24.279	21.0
24.294	24.0
24.309	14.0
24.324	22.0
24.338	21.0
24.353	9.0
24.368	17.0
24.383	15.0
24.398	11.0
24.413	11.0
24.428	11.0
24.442	16.0
24.457	6.0
24.472	12.0
24.487	14.0
24.502	12.0
24.516	8.0
24.531	8.0
24.546	10.0
24.561	13.0
24.576	14.0
24.591	8.0
24.605	9.0
24.62	11.0
24.635	9.0
24.65	8.0
24.665	6.0
24.679	8.0
24.694	8.0
24.709	8.0
24.724	10.0
24.739	7.0
24.753	8.0
24.768	12.0
24.783	10.0
24.798	8.0
24.813	13.0
24.827	15.0
24.842	9.0
24.857	11.0
24.872	13.0
24.886	7.0
24.901	12.0
24.916	9.0
24.931	15.0
24.946	5.0
24.96	15.0
24.975	10.0
24.99	11.0
25.005	9.0
25.019	9.0
25.034	12.0
25.049	12.0
25.064	10.0
25.078	10.0
25.093	13.0
25.108	9.0
25.123	12.0
25.138	8.0
25.152	11.0
25.167	13.0
25.182	3.0
25.197	14.0
25.211	12.0
25.226	7.0
25.241	6.0
25.256	14.0
25.27	13.0
25.285	7.0
25.3	10.0
25.315	6.0
25.329	12.0
25.344	10.0
25.359	12.0
25.374	9.0
25.388	15.0
25.403	10.0
25.418	13.0
25.433	10.0
25.447	9.0
25.462	4.0
25.477	13.0
25.492	13.0
25.506	7.0
25.521	11.0
25.536	9.0
25.55	10.0
25.565	9.0
25.58	5.0
25.595	13.0
25.609	10.0
25.624	12.0
25.639	7.0
25.654	7.0
25.668	11.0
25.683	10.0
25.698	12.0
25.713	6.0
25.727	13.0
25.742	9.0
25.757	10.0
25.772	14.0
25.786	12.0
25.801	7.0
25.816	16.0
25.83	11.0
25.845	8.0
25.86	9.0
25.875	6.0
25.889	8.0
25.904	9.0
25.919	16.0
25.934	8.0
25.948	11.0
25.963	12.0
25.978	5.0
25.992	10.0
26.007	12.0
26.022	15.0
26.037	6.0
26.051	12.0
26.066	12.0
26.081	8.0
26.096	15.0
26.11	11.0
26.125	10.0
26.14	8.0
26.155	9.0
26.169	8.0
26.184	12.0
26.199	5.0
26.213	10.0
26.228	11.0
26.243	5.0
26.258	16.0
26.272	5.0
26.287	13.0
26.302	5.0
26.317	16.0
26.331	11.0
26.346	10.0
26.361	4.0
26.376	9.0
26.39	9.0
26.405	11.0
26.42	14.0
26.434	10.0
26.449	10.0
26.464	7.0
26.479	7.0
26.493	6.0
26.508	10.0
26.523	12.0
26.538	15.0
26.552	11.0
26.567	10.0
26.582	10.0
26.597	14.0
26.611	11.0
26.626	6.0
26.641	10.0
26.656	14.0
26.67	9.0
26.685	14.0
26.7	10.0
26.715	10.0
26.729	9.0
26.744	16.0
26.759	5.0
26.773	10.0
26.788	6.0
26.803	13.0
26.818	11.0
26.832	14.0
26.847	9.0
26.862	17.0
26.877	8.0
26.891	8.0
26.906	6.0
26.921	12.0
26.936	14.0
26.95	8.0
26.965	16.0
26.98	11.0
26.995	12.0
27.01	9.0
27.024	11.0
27.039	8.0
27.054	8.0
27.069	7.0
27.083	9.0
27.098	11.0
27.113	7.0
27.128	15.0
27.142	11.0
27.157	9.0
27.172	6.0
27.187	18.0
27.201	15.0
27.216	14.0
27.231	4.0
27.246	11.0
27.261	7.0
27.275	9.0
27.29	9.0
27.305	7.0
27.32	13.0
27.334	8.0
27.349	12.0
27.364	11.0
27.379	8.0
27.394	11.0
27.408	10.0
27.423	10.0
27.438	7.0
27.453	12.0
27.467	9.0
27.482	8.0
27.497	7.0
27.512	18.0
27.527	15.0
27.541	13.0
27.556	10.0
27.571	10.0
27.586	7.0
27.601	9.0
27.615	7.0
27.63	9.0
27.645	11.0
27.66	11.0
27.675	12.0
27.689	14.0
27.704	8.0
27.719	14.0
27.734	9.0
27.749	23.0
27.763	17.0
27.778	19.0
27.793	19.0
27.808	18.0
27.823	24.0
27.838	22.0
27.852	32.0
27.867	25.0
27.882	20.0
27.897	34.0
27.912	20.0
27.926	20.0
27.941	26.0
27.956	20.0
27.971	27.0
27.986	21.0
28.001	28.0
28.015	15.0
28.03	13.0
28.045	18.0
28.06	18.0
28.075	15.0
28.09	15.0
28.105	12.0
28.119	16.0
28.134	8.0
28.149	16.0
28.164	11.0
28.179	11.0
28.194	13.0
28.208	11.0
28.223	11.0
28.238	15.0
28.253	9.0
28.268	12.0
28.283	14.0
28.298	12.0
28.312	13.0
28.327	9.0
28.342	13.0
28.357	9.0
28.372	10.0
28.387	13.0
28.402	8.0
28.417	12.0
28.431	18.0
28.446	14.0
28.461	10.0
28.476	11.0
28.491	8.0
28.506	10.0
28.521	13.0
28.536	2.0
28.55	13.0
28.565	9.0
28.58	8.0
28.595	12.0
28.61	9.0
28.625	11.0
28.64	16.0
28.655	6.0
28.669	8.0
28.684	9.0
28.699	10.0
28.714	9.0
28.729	13.0
28.744	9.0
28.759	9.0
28.774	14.0
28.788	13.0
28.803	7.0
28.818	8.0
28.833	9.0
28.848	12.0
28.863	7.0
28.878	16.0
28.893	8.0
28.908	11.0
28.922	13.0
28.937	8.0
28.952	13.0
28.967	8.0
28.982	11.0
28.997	12.0
29.012	12.0
29.027	6.0
29.041	8.0
29.056	7.0
29.071	11.0
29.086	22.0
29.101	10.0
29.116	12.0
29.131	13.0
29.146	10.0
29.16	17.0
29.175	10.0
29.19	17.0
29.205	12.0
29.22	16.0
29.235	8.0
29.25	11.0
29.265	20.0
29.279	15.0
29.294	15.0
29.309	16.0
29.324	13.0
29.339	14.0
29.354	14.0
29.369	12.0
29.384	14.0
29.398	13.0
29.413	17.0
29.428	13.0
29.443	21.0
29.458	15.0
29.473	20.0
29.488	16.0
29.502	31.0
29.517	33.0
29.532	28.0
29.547	35.0
29.562	35.0
29.577	44.0
29.592	45.0
29.606	52.0
29.621	57.0
29.636	45.0
29.651	44.0
29.666	43.0
29.681	54.0
29.695	43.0
29.71	45.0
29.725	40.0
29.74	37.0
29.755	50.0
29.77	33.0
29.784	36.0
29.799	31.0
29.814	24.0
29.829	31.0
29.844	29.0
29.859	27.0
29.873	17.0
29.888	15.0
29.903	14.0
29.918	18.0
29.933	17.0
29.947	18.0
29.962	14.0
29.977	15.0
29.992	10.0
30.007	18.0
30.021	14.0
30.036	10.0
30.051	10.0
30.066	8.0
30.081	16.0
30.095	9.0
30.11	19.0
30.125	15.0
30.14	11.0
30.155	9.0
30.169	10.0
30.184	12.0
30.199	15.0
30.214	11.0
30.228	17.0
30.243	15.0
30.258	16.0
30.273	10.0
30.288	7.0
30.302	8.0
30.317	12.0
30.332	6.0
30.347	11.0
30.361	13.0
30.376	7.0
30.391	8.0
30.406	12.0
30.42	10.0
30.435	12.0
30.45	9.0
30.465	10.0
30.479	9.0
30.494	8.0
30.509	5.0
30.524	12.0
30.538	15.0
30.553	4.0
30.568	15.0
30.583	5.0
30.597	13.0
30.612	7.0
30.627	13.0
30.641	9.0
30.656	12.0
30.671	7.0
30.686	6.0
30.7	16.0
30.715	7.0
30.73	9.0
30.745	13.0
30.759	14.0
30.774	12.0
30.789	9.0
30.803	9.0
30.818	11.0
30.833	15.0
30.848	14.0
30.862	15.0
30.877	11.0
30.892	16.0
30.906	12.0
30.921	12.0
30.936	16.0
30.951	17.0
30.965	15.0
30.98	9.0
30.995	8.0
31.009	10.0
31.024	14.0
31.039	24.0
31.053	17.0
31.068	14.0
31.083	17.0
31.098	17.0
31.112	17.0
31.127	25.0
31.142	20.0
31.156	26.0
31.171	29.0
31.186	28.0
31.2	19.0
31.215	25.0
31.23	27.0
31.245	33.0
31.259	44.0
31.274	28.0
31.289	37.0
31.303	33.0
31.318	21.0
31.333	26.0
31.347	14.0
31.362	23.0
31.377	32.0
31.392	36.0
31.406	30.0
31.421	26.0
31.436	22.0
31.45	27.0
31.465	20.0
31.48	18.0
31.494	20.0
31.509	21.0
31.524	13.0
31.538	16.0
31.553	17.0
31.568	18.0
31.583	10.0
31.597	12.0
31.612	15.0
31.627	17.0
31.641	12.0
31.656	12.0
31.671	9.0
31.685	8.0
31.7	10.0
31.715	9.0
31.729	8.0
31.744	12.0
31.759	17.0
31.774	13.0
31.788	13.0
31.803	12.0
31.818	13.0
31.832	3.0
31.847	8.0
31.862	9.0
31.876	9.0
31.891	9.0
31.906	9.0
31.92	13.0
31.935	5.0
31.95	11.0
31.965	6.0
31.979	8.0
31.994	13.0
32.009	10.0
32.023	9.0
32.038	10.0
32.053	13.0
32.067	9.0
32.082	9.0
32.097	11.0
32.112	8.0
32.126	10.0
32.141	6.0
32.156	10.0
32.17	14.0
32.185	4.0
32.2	10.0
32.214	12.0
32.229	14.0
32.244	11.0
32.259	7.0
32.273	9.0
32.288	14.0
32.303	5.0
32.317	14.0
32.332	8.0
32.347	10.0
32.362	11.0
32.376	15.0
32.391	12.0
32.406	11.0
32.42	10.0
32.435	9.0
32.45	13.0
32.465	8.0
32.479	14.0
32.494	13.0
32.509	11.0
32.523	9.0
32.538	11.0
32.553	15.0
32.568	11.0
32.582	10.0
32.597	10.0
32.612	8.0
32.627	10.0
32.641	10.0
32.656	16.0
32.671	20.0
32.685	12.0
32.7	10.0
32.715	15.0
32.73	13.0
32.744	16.0
32.759	17.0
32.774	18.0
32.788	25.0
32.803	32.0
32.818	32.0
32.833	28.0
32.847	30.0
32.862	24.0
32.877	19.0
32.892	26.0
32.906	15.0
32.921	14.0
32.936	25.0
32.951	18.0
32.965	18.0
32.98	17.0
32.995	14.0
33.009	25.0
33.024	20.0
33.039	16.0
33.054	15.0
33.068	19.0
33.083	12.0
33.098	19.0
33.113	17.0
33.127	11.0
33.142	14.0
33.157	15.0
33.172	13.0
33.186	12.0
33.201	3.0
33.216	10.0
33.231	4.0
33.245	8.0
33.26	13.0
33.275	10.0
33.29	9.0
33.304	9.0
33.319	12.0
33.334	4.0
33.349	9.0
33.363	5.0
33.378	14.0
33.393	7.0
33.408	10.0
33.422	11.0
33.437	7.0
33.452	16.0
33.467	10.0
33.481	8.0
33.496	10.0
33.511	9.0
33.526	6.0
33.54	17.0
33.555	8.0
33.57	11.0
33.585	7.0
33.599	14.0
33.614	13.0
33.629	13.0
33.644	9.0
33.658	9.0
33.673	8.0
33.688	8.0
33.703	13.0
33.718	11.0
33.732	5.0
33.747	7.0
33.762	11.0
33.777	13.0
33.791	6.0
33.806	10.0
33.821	11.0
33.836	4.0
33.85	11.0
33.865	11.0
33.88	3.0
33.895	7.0
33.91	15.0
33.924	11.0
33.939	15.0
33.954	12.0
33.969	10.0
33.983	10.0
33.998	7.0
34.013	14.0
34.028	10.0
34.042	6.0
34.057	9.0
34.072	11.0
34.087	14.0
34.102	10.0
34.116	8.0
34.131	11.0
34.146	15.0
34.161	19.0
34.175	12.0
34.19	15.0
34.205	10.0
34.22	12.0
34.235	11.0
34.249	11.0
34.264	11.0
34.279	10.0
34.294	15.0
34.309	17.0
34.323	12.0
34.338	14.0
34.353	7.0
34.368	16.0
34.382	8.0
34.397	16.0
34.412	7.0
34.427	10.0
34.442	11.0
34.456	9.0
34.471	17.0
34.486	16.0
34.501	10.0
34.516	19.0
34.53	8.0
34.545	12.0
34.56	13.0
34.575	15.0
34.59	7.0
34.604	7.0
34.619	9.0
34.634	10.0
34.649	8.0
34.664	6.0
34.678	7.0
34.693	11.0
34.708	13.0
34.723	11.0
34.738	11.0
34.752	13.0
34.767	14.0
34.782	7.0
34.797	11.0
34.812	15.0
34.826	13.0
34.841	12.0
34.856	10.0
34.871	11.0
34.886	16.0
34.9	6.0
34.915	16.0
34.93	8.0
34.945	5.0
34.96	5.0
34.974	7.0
34.989	9.0
35.004	6.0
35.019	9.0
35.034	5.0
35.048	15.0
35.063	9.0
35.078	6.0
35.093	8.0
35.108	10.0
35.122	7.0
35.137	8.0
35.152	5.0
35.167	8.0
35.182	9.0
35.196	10.0
35.211	6.0
35.226	8.0
35.241	6.0
35.256	10.0
35.27	4.0
35.285	9.0
35.3	10.0
35.315	8.0
35.33	6.0
35.344	5.0
35.359	9.0
35.374	6.0
35.389	10.0
35.404	7.0
35.418	12.0
35.433	16.0
35.448	6.0
35.463	11.0
35.478	11.0
35.493	9.0
35.507	4.0
35.522	11.0
35.537	8.0
35.552	5.0
35.567	8.0
35.581	7.0
35.596	10.0
35.611	13.0
35.626	6.0
35.641	12.0
35.655	12.0
35.67	6.0
35.685	19.0
35.7	10.0
35.715	15.0
35.729	25.0
35.744	12.0
35.759	21.0
35.774	19.0
35.789	22.0
35.804	15.0
35.818	17.0
35.833	25.0
35.848	15.0
35.863	16.0
35.878	19.0
35.892	11.0
35.907	12.0
35.922	18.0
35.937	12.0
35.952	6.0
35.966	15.0
35.981	18.0
35.996	13.0
36.011	12.0
36.026	13.0
36.04	14.0
36.055	9.0
36.07	18.0
36.085	14.0
36.1	8.0
36.114	12.0
36.129	5.0
36.144	12.0
36.159	9.0
36.174	10.0
36.189	3.0
36.203	6.0
36.218	10.0
36.233	11.0
36.248	7.0
36.263	6.0
36.277	9.0
36.292	10.0
36.307	9.0
36.322	8.0
36.337	10.0
36.351	7.0
36.366	7.0
36.381	9.0
36.396	8.0
36.411	11.0
36.426	10.0
36.44	4.0
36.455	5.0
36.47	5.0
36.485	10.0
36.5	10.0
36.514	12.0
36.529	6.0
36.544	11.0
36.559	9.0
36.574	11.0
36.589	8.0
36.603	7.0
36.618	5.0
36.633	9.0
36.648	10.0
36.663	12.0
36.677	9.0
36.692	6.0
36.707	14.0
36.722	9.0
36.737	8.0
36.752	4.0
36.766	8.0
36.781	9.0
36.796	9.0
36.811	7.0
36.826	8.0
36.841	9.0
36.855	9.0
36.87	12.0
36.885	14.0
36.9	9.0
36.915	11.0
36.93	8.0
36.944	9.0
36.959	8.0
36.974	6.0
36.989	8.0
37.004	10.0
37.019	18.0
37.033	13.0
37.048	8.0
37.063	20.0
37.078	16.0
37.093	20.0
37.108	19.0
37.123	27.0
37.137	27.0
37.152	35.0
37.167	32.0
37.182	26.0
37.197	29.0
37.212	24.0
37.226	27.0
37.241	25.0
37.256	22.0
37.271	23.0
37.286	26.0
37.301	13.0
37.316	12.0
37.331	8.0
37.345	20.0
37.36	22.0
37.375	25.0
37.39	15.0
37.405	25.0
37.42	20.0
37.435	15.0
37.45	16.0
37.464	17.0
37.479	14.0
37.494	16.0
37.509	14.0
37.524	12.0
37.539	7.0
37.554	12.0
37.569	6.0
37.583	12.0
37.598	9.0
37.613	10.0
37.628	3.0
37.643	6.0
37.658	8.0
37.673	10.0
37.688	11.0
37.703	15.0
37.718	7.0
37.733	5.0
37.747	9.0
37.762	8.0
37.777	11.0
37.792	11.0
37.807	7.0
37.822	7.0
37.837	5.0
37.852	9.0
37.867	4.0
37.882	15.0
37.897	8.0
37.912	6.0
37.927	8.0
37.941	6.0
37.956	7.0
37.971	6.0
37.986	10.0
38.001	1.0
38.016	5.0
38.031	9.0
38.046	3.0
38.061	4.0
38.076	6.0
38.091	5.0
38.106	6.0
38.121	9.0
38.136	8.0
38.151	7.0
38.166	14.0
38.181	5.0
38.196	8.0
38.211	4.0
38.226	7.0
38.241	11.0
38.256	6.0
38.271	5.0
38.285	3.0
38.3	9.0
38.315	7.0
38.33	9.0
38.345	9.0
38.36	7.0
38.375	8.0
38.39	6.0
38.405	8.0
38.42	3.0
38.435	3.0
38.45	7.0
38.465	7.0
38.48	8.0
38.495	6.0
38.51	7.0
38.525	3.0
38.54	12.0
38.555	3.0
38.57	7.0
38.585	7.0
38.6	6.0
38.615	11.0
38.63	4.0
38.645	6.0
38.66	5.0
38.675	8.0
38.69	5.0
38.705	6.0
38.72	5.0
38.735	5.0
38.75	8.0
38.765	7.0
38.78	6.0
38.795	9.0
38.81	7.0
38.825	6.0
38.84	11.0
38.855	6.0
38.87	10.0
38.885	13.0
38.9	5.0
38.915	6.0
38.93	4.0
38.945	9.0
38.96	9.0
38.975	2.0
38.99	6.0
39.005	4.0
39.02	10.0
39.035	9.0
39.05	4.0
39.065	10.0
39.08	7.0
39.095	7.0
39.11	4.0
39.125	3.0
39.14	6.0
39.155	6.0
39.17	10.0
39.185	7.0
39.2	10.0
39.215	3.0
39.23	2.0
39.245	2.0
39.26	7.0
39.275	3.0
39.29	12.0
39.305	6.0
39.32	6.0
39.335	4.0
39.35	6.0
39.365	2.0
39.38	6.0
39.395	5.0
39.409	9.0
39.424	6.0
39.439	6.0
39.454	1.0
39.469	4.0
39.484	10.0
39.499	4.0
39.514	4.0
39.529	6.0
39.544	4.0
39.559	8.0
39.574	9.0
39.589	9.0
39.604	5.0
39.619	6.0
39.634	6.0
39.649	6.0
39.664	6.0
39.678	5.0
39.693	13.0
39.708	2.0
39.723	6.0
39.738	7.0
39.753	5.0
39.768	16.0
39.783	8.0
39.798	8.0
39.813	10.0
39.827	9.0
39.842	11.0
39.857	11.0
39.872	4.0
39.887	10.0
39.902	15.0
39.917	2.0
39.932	6.0
39.947	7.0
39.961	6.0
39.976	9.0
39.991	1.0
40.006	7.0
40.021	7.0
40.036	12.0
40.051	7.0
40.065	7.0
40.08	12.0
40.095	6.0
40.11	6.0
40.125	2.0
40.14	8.0
40.154	5.0
40.169	8.0
40.184	10.0
40.199	8.0
40.214	9.0
40.228	2.0
40.243	4.0
40.258	1.0
40.273	4.0
40.288	9.0
40.302	4.0
40.317	2.0
40.332	11.0
40.347	6.0
40.362	5.0
40.376	6.0
40.391	7.0
40.406	2.0
40.421	6.0
40.436	1.0
40.45	8.0
40.465	6.0
40.48	7.0
40.495	7.0
40.509	10.0
40.524	8.0
40.539	3.0
40.554	4.0
40.568	4.0
40.583	5.0
40.598	6.0
40.613	4.0
40.627	7.0
40.642	2.0
40.657	9.0
40.672	3.0
40.686	6.0
40.701	2.0
40.716	5.0
40.731	2.0
40.745	6.0
40.76	3.0
40.775	6.0
40.79	4.0
40.804	3.0
40.819	5.0
40.834	8.0
40.849	4.0
40.863	3.0
40.878	10.0
40.893	3.0
40.907	5.0
40.922	5.0
40.937	3.0
40.952	8.0
40.966	7.0
40.981	11.0
40.996	9.0
41.011	8.0
41.025	16.0
41.04	23.0
41.055	12.0
41.069	11.0
41.084	24.0
41.099	11.0
41.114	20.0
41.128	21.0
41.143	26.0
41.158	16.0
41.173	16.0
41.187	8.0
41.202	18.0
41.217	17.0
41.231	14.0
41.246	8.0
41.261	12.0
41.276	13.0
41.29	8.0
41.305	18.0
41.32	21.0
41.335	7.0
41.349	6.0
41.364	18.0
41.379	17.0
41.393	14.0
41.408	11.0
41.423	14.0
41.438	22.0
41.452	11.0
41.467	12.0
41.482	8.0
41.497	9.0
41.511	6.0
41.526	8.0
41.541	9.0
41.556	10.0
41.57	7.0
41.585	8.0
41.6	7.0
41.615	9.0
41.629	2.0
41.644	8.0
41.659	3.0
41.674	5.0
41.688	8.0
41.703	8.0
41.718	10.0
41.733	2.0
41.747	8.0
41.762	5.0
41.777	3.0
41.792	6.0
41.806	7.0
41.821	9.0
41.836	9.0
41.851	6.0
41.866	7.0
41.88	4.0
41.895	6.0
41.91	5.0
41.925	7.0
41.939	7.0
41.954	6.0
41.969	7.0
41.984	6.0
41.999	7.0
42.013	1.0
42.028	7.0
42.043	4.0
42.058	4.0
42.073	5.0
42.088	1.0
42.102	4.0
42.117	4.0
42.132	6.0
42.147	4.0
42.162	4.0
42.176	5.0
42.191	7.0
42.206	13.0
42.221	7.0
42.236	6.0
42.251	11.0
42.266	12.0
42.28	9.0
42.295	10.0
42.31	8.0
42.325	7.0
42.34	13.0
42.355	11.0
42.369	16.0
42.384	15.0
42.399	20.0
42.414	12.0
42.429	16.0
42.444	19.0
42.459	12.0
42.474	16.0
42.488	10.0
42.503	12.0
42.518	12.0
42.533	10.0
42.548	5.0
42.563	7.0
42.578	10.0
42.593	10.0
42.608	10.0
42.622	8.0
42.637	10.0
42.652	12.0
42.667	11.0
42.682	10.0
42.697	10.0
42.712	9.0
42.727	5.0
42.742	7.0
42.757	14.0
42.772	6.0
42.786	6.0
42.801	9.0
42.816	5.0
42.831	10.0
42.846	6.0
42.861	8.0
42.876	4.0
42.891	8.0
42.906	3.0
42.921	8.0
42.936	8.0
42.951	6.0
42.966	7.0
42.981	7.0
42.996	7.0
43.011	8.0
43.025	10.0
43.04	7.0
43.055	4.0
43.07	7.0
43.085	2.0
43.1	5.0
43.115	6.0
43.13	8.0
43.145	6.0
43.16	5.0
43.175	7.0
43.19	4.0
43.205	3.0
43.22	9.0
43.235	4.0
43.25	6.0
43.265	4.0
43.28	5.0
43.295	9.0
43.31	5.0
43.325	10.0
43.34	0.0
43.355	1.0
43.37	5.0
43.385	4.0
43.4	2.0
43.415	4.0
43.43	2.0
43.445	5.0
43.46	7.0
43.475	4.0
43.49	9.0
43.505	4.0
43.52	4.0
43.535	4.0
43.55	5.0
43.565	6.0
43.58	18.0
43.595	11.0
43.61	3.0
43.625	6.0
43.64	5.0
43.655	14.0
43.67	6.0
43.685	11.0
43.7	4.0
43.715	8.0
43.73	9.0
43.745	1.0
43.76	9.0
43.775	4.0
43.79	5.0
43.805	7.0
43.82	6.0
43.835	11.0
43.85	9.0
43.865	7.0
43.88	4.0
43.895	9.0
43.91	9.0
43.925	4.0
43.94	6.0
43.955	5.0
43.97	1.0
43.985	5.0
44.0	5.0
44.015	5.0
44.03	6.0
44.045	9.0
44.061	6.0
44.076	8.0
44.091	8.0
44.106	2.0
44.121	2.0
44.136	4.0
44.151	3.0
44.166	11.0
44.181	6.0
44.196	8.0
44.211	3.0
44.226	3.0
44.241	8.0
44.256	4.0
44.271	4.0
44.286	9.0
44.301	8.0
44.316	2.0
44.331	10.0
44.346	10.0
44.361	7.0
44.377	7.0
44.392	1.0
44.407	8.0
44.422	7.0
44.437	5.0
44.452	5.0
44.467	4.0
44.482	1.0
44.497	4.0
44.512	7.0
44.527	7.0
44.542	3.0
44.557	2.0
44.572	2.0
44.587	10.0
44.602	6.0
44.617	5.0
44.632	9.0
44.647	5.0
44.663	2.0
44.678	4.0
44.693	7.0
44.708	9.0
44.723	8.0
44.738	11.0
44.753	7.0
44.768	7.0
44.783	7.0
44.798	12.0
44.813	9.0
44.828	9.0
44.843	16.0
44.858	20.0
44.873	8.0
44.888	7.0
44.903	4.0
44.918	6.0
44.933	5.0
44.948	5.0
44.964	5.0
44.979	4.0
44.994	5.0
45.009	14.0
45.024	9.0
45.039	9.0
45.054	4.0
45.069	8.0
45.084	6.0
45.099	6.0
45.114	11.0
45.129	6.0
45.144	9.0
45.159	9.0
45.174	2.0
45.189	4.0
45.204	10.0
45.219	6.0
45.234	7.0
45.249	5.0
45.264	2.0
45.279	6.0
45.294	7.0
45.309	9.0
45.324	3.0
45.339	7.0
45.354	9.0
45.369	4.0
45.384	7.0
45.399	4.0
45.414	8.0
45.429	6.0
45.444	3.0
45.459	3.0
45.474	6.0
45.489	6.0
45.504	5.0
45.519	6.0
45.534	4.0
45.549	1.0
45.564	6.0
45.579	6.0
45.594	7.0
45.609	6.0
45.624	4.0
45.639	5.0
45.654	5.0
45.669	2.0
45.684	7.0
45.699	6.0
45.714	7.0
45.729	9.0
45.744	4.0
45.759	4.0
45.774	7.0
45.789	10.0
45.804	3.0
45.819	7.0
45.834	10.0
45.849	9.0
45.864	4.0
45.879	10.0
45.894	12.0
45.909	9.0
45.924	18.0
45.939	18.0
45.954	21.0
45.969	25.0
45.984	13.0
45.998	15.0
46.013	16.0
46.028	13.0
46.043	12.0
46.058	11.0
46.073	9.0
46.088	5.0
46.103	9.0
46.118	5.0
46.133	9.0
46.148	9.0
46.163	5.0
46.178	5.0
46.192	8.0
46.207	12.0
46.222	14.0
46.237	10.0
46.252	9.0
46.267	10.0
46.282	14.0
46.297	16.0
46.312	13.0
46.327	10.0
46.341	7.0
46.356	16.0
46.371	6.0
46.386	8.0
46.401	4.0
46.416	3.0
46.431	5.0
46.446	3.0
46.46	2.0
46.475	3.0
46.49	5.0
46.505	6.0
46.52	2.0
46.535	10.0
46.55	3.0
46.564	3.0
46.579	2.0
46.594	5.0
46.609	4.0
46.624	4.0
46.639	5.0
46.654	6.0
46.668	9.0
46.683	5.0
46.698	5.0
46.713	6.0
46.728	5.0
46.743	3.0
46.758	3.0
46.772	7.0
46.787	6.0
46.802	11.0
46.817	6.0
46.832	5.0
46.847	6.0
46.861	7.0
46.876	4.0
46.891	8.0
46.906	4.0
46.921	4.0
46.936	8.0
46.95	4.0
46.965	10.0
46.98	8.0
46.995	7.0
47.01	6.0
47.025	10.0
47.039	6.0
47.054	8.0
47.069	11.0
47.084	10.0
47.099	10.0
47.113	13.0
47.128	11.0
47.143	8.0
47.158	8.0
47.173	5.0
47.188	11.0
47.202	11.0
47.217	11.0
47.232	7.0
47.247	4.0
47.262	7.0
47.277	5.0
47.291	3.0
47.306	9.0
47.321	7.0
47.336	12.0
47.351	5.0
47.365	6.0
47.38	5.0
47.395	7.0
47.41	7.0
47.425	7.0
47.44	12.0
47.454	8.0
47.469	8.0
47.484	8.0
47.499	7.0
47.514	7.0
47.528	4.0
47.543	8.0
47.558	3.0
47.573	6.0
47.588	6.0
47.603	7.0
47.617	1.0
47.632	4.0
47.647	4.0
47.662	4.0
47.677	8.0
47.691	2.0
47.706	4.0
47.721	2.0
47.736	4.0
47.751	4.0
47.766	3.0
47.78	3.0
47.795	6.0
47.81	5.0
47.825	5.0
47.84	4.0
47.855	7.0
47.869	5.0
47.884	7.0
47.899	6.0
47.914	5.0
47.929	3.0
47.944	5.0
47.958	3.0
47.973	3.0
47.988	5.0
48.003	1.0
48.018	7.0
48.033	4.0
48.047	3.0
48.062	2.0
48.077	3.0
48.092	7.0
48.107	6.0
48.122	3.0
48.137	5.0
48.151	2.0
48.166	7.0
48.181	4.0
48.196	3.0
48.211	4.0
48.226	0.0
48.241	2.0
48.255	9.0
48.27	8.0
48.285	1.0
48.3	4.0
48.315	5.0
48.33	3.0
48.345	2.0
48.359	3.0
48.374	5.0
48.389	3.0
48.404	4.0
48.419	4.0
48.434	3.0
48.449	3.0
48.464	6.0
48.478	7.0
48.493	6.0
48.508	3.0
48.523	5.0
48.538	7.0
48.553	3.0
48.568	4.0
48.583	6.0
48.597	7.0
48.612	6.0
48.627	4.0
48.642	2.0
48.657	4.0
48.672	4.0
48.687	1.0
48.702	3.0
48.717	7.0
48.731	10.0
48.746	8.0
48.761	10.0
48.776	4.0
48.791	5.0
48.806	4.0
48.821	3.0
48.836	4.0
48.851	3.0
48.866	3.0
48.88	2.0
48.895	4.0
48.91	2.0
48.925	3.0
48.94	8.0
48.955	2.0
48.97	6.0
48.985	1.0
49.0	1.0
49.015	5.0
49.03	7.0
49.044	5.0
49.059	2.0
49.074	7.0
49.089	10.0
49.104	2.0
49.119	1.0
49.134	4.0
49.149	4.0
49.164	0.0
49.179	7.0
49.194	6.0
49.209	3.0
49.224	5.0
49.238	7.0
49.253	9.0
49.268	5.0
49.283	4.0
49.298	6.0
49.313	5.0
49.328	8.0
49.343	9.0
49.358	7.0
49.373	6.0
49.388	10.0
49.403	7.0
49.418	4.0
49.433	5.0
49.448	6.0
49.463	6.0
49.478	7.0
49.492	5.0
49.507	6.0
49.522	7.0
49.537	3.0
49.552	4.0
49.567	4.0
49.582	4.0
49.597	5.0
49.612	9.0
49.627	6.0
49.642	6.0
49.657	10.0
49.672	7.0
49.687	5.0
49.702	5.0
49.717	6.0
49.732	5.0
49.747	5.0
49.762	1.0
49.777	6.0
49.792	2.0
49.807	2.0
49.822	5.0
49.837	6.0
49.852	5.0
49.867	4.0
49.882	5.0
49.897	7.0
49.912	4.0
49.927	6.0
49.942	7.0
49.957	5.0
49.971	4.0
49.986	3.0
50.001	6.0
50.016	5.0
50.031	2.0
50.046	5.0
50.061	4.0
50.076	5.0
50.091	4.0
50.106	2.0
50.121	6.0
50.136	6.0
50.151	6.0
50.166	9.0
50.181	5.0
50.196	5.0
50.211	8.0
50.226	4.0
50.241	6.0
50.256	6.0
50.271	6.0
50.286	9.0
50.302	10.0
50.317	10.0
50.332	1.0
50.347	3.0
50.362	4.0
50.377	4.0
50.392	7.0
50.407	2.0
50.422	9.0
50.437	6.0
50.452	8.0
50.467	9.0
50.482	6.0
50.497	6.0
50.512	9.0
50.527	5.0
50.542	9.0
50.557	8.0
50.572	5.0
50.587	8.0
50.602	6.0
50.617	14.0
50.632	5.0
50.647	4.0
50.662	5.0
50.677	6.0
50.692	5.0
50.707	3.0
50.722	8.0
50.737	12.0
50.752	6.0
50.767	9.0
50.782	6.0
50.797	7.0
50.812	7.0
50.828	6.0
50.843	6.0
50.858	6.0
50.873	7.0
50.888	3.0
50.903	7.0
50.918	6.0
50.933	3.0
50.948	5.0
50.963	3.0
50.978	2.0
50.993	4.0
51.008	5.0
51.023	6.0
51.038	3.0
51.053	4.0
51.068	8.0
51.083	9.0
51.098	5.0
51.114	9.0
51.129	6.0
51.144	4.0
51.159	5.0
51.174	4.0
51.189	8.0
51.204	4.0
51.219	4.0
51.234	3.0
51.249	4.0
51.264	3.0
51.279	2.0
51.294	2.0
51.309	3.0
51.324	4.0
51.34	7.0
51.355	4.0
51.37	3.0
51.385	8.0
51.4	8.0
51.415	8.0
51.43	4.0
51.445	13.0
51.46	16.0
51.475	11.0
51.49	18.0
51.505	13.0
51.52	17.0
51.535	26.0
51.551	9.0
51.566	20.0
51.581	13.0
51.596	11.0
51.611	3.0
51.626	10.0
51.641	10.0
51.656	8.0
51.671	11.0
51.686	7.0
51.701	8.0
51.716	8.0
51.732	7.0
51.747	5.0
51.762	9.0
51.777	11.0
51.792	8.0
51.807	15.0
51.822	13.0
51.837	8.0
51.852	7.0
51.867	18.0
51.882	9.0
51.898	6.0
51.913	9.0
51.928	7.0
51.943	10.0
51.958	7.0
51.973	8.0
51.988	6.0
52.003	7.0
52.018	4.0
52.033	4.0
52.048	4.0
52.064	6.0
52.079	6.0
52.094	9.0
52.109	3.0
52.124	6.0
52.139	7.0
52.154	4.0
52.169	8.0
52.184	8.0
52.199	6.0
52.215	6.0
52.23	6.0
52.245	3.0
52.26	4.0
52.275	5.0
52.29	3.0
52.305	7.0
52.32	8.0
52.335	2.0
52.35	4.0
52.366	5.0
52.381	4.0
52.396	3.0
52.411	6.0
52.426	1.0
52.441	7.0
52.456	6.0
52.471	5.0
52.486	2.0
52.502	6.0
52.517	17.0
52.532	9.0
52.547	7.0
52.562	13.0
52.577	4.0
52.592	8.0
52.607	10.0
52.622	9.0
52.637	10.0
52.653	10.0
52.668	7.0
52.683	8.0
52.698	8.0
52.713	7.0
52.728	4.0
52.743	8.0
52.758	6.0
52.774	7.0
52.789	3.0
52.804	2.0
52.819	3.0
52.834	5.0
52.849	6.0
52.864	5.0
52.879	7.0
52.894	9.0
52.91	8.0
52.925	7.0
52.94	9.0
52.955	7.0
52.97	5.0
52.985	5.0
53.0	7.0
53.015	11.0
53.031	8.0
53.046	0.0
53.061	9.0
53.076	4.0
53.091	2.0
53.106	7.0
53.121	5.0
53.136	4.0
53.152	7.0
53.167	5.0
53.182	5.0
53.197	3.0
53.212	12.0
53.227	4.0
53.242	10.0
53.257	0.0
53.273	7.0
53.288	6.0
53.303	8.0
53.318	4.0
53.333	3.0
53.348	6.0
53.363	4.0
53.379	6.0
53.394	4.0
53.409	9.0
53.424	8.0
53.439	6.0
53.454	4.0
53.469	11.0
53.484	5.0
53.5	2.0
53.515	6.0
53.53	4.0
53.545	7.0
53.56	1.0
53.575	1.0
53.59	5.0
53.606	2.0
53.621	8.0
53.636	7.0
53.651	6.0
53.666	8.0
53.681	11.0
53.696	2.0
53.712	5.0
53.727	6.0
53.742	8.0
53.757	2.0
53.772	1.0
53.787	3.0
53.802	4.0
53.818	7.0
53.833	7.0
53.848	7.0
53.863	3.0
53.878	3.0
53.893	9.0
53.909	4.0
53.924	12.0
53.939	5.0
53.954	5.0
53.969	5.0
53.984	1.0
53.999	7.0
54.015	2.0
54.03	3.0
54.045	2.0
54.06	7.0
54.075	4.0
54.09	4.0
54.106	3.0
54.121	3.0
54.136	7.0
54.151	5.0
54.166	7.0
54.181	5.0
54.197	6.0
54.212	15.0
54.227	2.0
54.242	4.0
54.257	5.0
54.272	5.0
54.288	6.0
54.303	4.0
54.318	4.0
54.333	4.0
54.348	6.0
54.363	3.0
54.379	7.0
54.394	7.0
54.409	3.0
54.424	4.0
54.439	5.0
54.454	4.0
54.47	3.0
54.485	8.0
54.5	4.0
54.515	7.0
54.53	5.0
54.545	8.0
54.561	10.0
54.576	5.0
54.591	10.0
54.606	13.0
54.621	8.0
54.636	17.0
54.652	13.0
54.667	9.0
54.682	16.0
54.697	13.0
54.712	8.0
54.727	9.0
54.743	8.0
54.758	9.0
54.773	7.0
54.788	4.0
54.803	6.0
54.819	6.0
54.834	7.0
54.849	7.0
54.864	7.0
54.879	1.0
54.894	9.0
54.91	7.0
54.925	10.0
54.94	10.0
54.955	9.0
54.97	12.0
54.985	8.0
55.001	15.0
55.016	11.0
55.031	6.0
55.046	12.0
55.061	13.0
55.077	13.0
55.092	1.0
55.107	8.0
55.122	6.0
55.137	12.0
55.152	6.0
55.168	3.0
55.183	6.0
55.198	10.0
55.213	3.0
55.228	8.0
55.243	7.0
55.259	1.0
55.274	2.0
55.289	5.0
55.304	3.0
55.319	2.0
55.335	0.0
55.35	2.0
55.365	5.0
55.38	3.0
55.395	4.0
55.41	7.0
55.426	3.0
55.441	5.0
55.456	5.0
55.471	1.0
55.486	4.0
55.501	5.0
55.517	7.0
55.532	5.0
55.547	9.0
55.562	5.0
55.577	6.0
55.592	7.0
55.608	6.0
55.623	9.0
55.638	5.0
55.653	12.0
55.668	7.0
55.683	5.0
55.699	7.0
55.714	6.0
55.729	6.0
55.744	10.0
55.759	5.0
55.774	9.0
55.79	7.0
55.805	4.0
55.82	5.0
55.835	3.0
55.85	4.0
55.865	3.0
55.881	5.0
55.896	3.0
55.911	4.0
55.926	8.0
55.941	4.0
55.956	4.0
55.972	4.0
55.987	7.0
56.002	3.0
56.017	4.0
56.032	10.0
56.047	5.0
56.063	4.0
56.078	10.0
56.093	9.0
56.108	4.0
56.123	6.0
56.138	6.0
56.154	4.0
56.169	3.0
56.184	3.0
56.199	4.0
56.214	2.0
56.229	2.0
56.244	7.0
56.26	3.0
56.275	8.0
56.29	4.0
56.305	4.0
56.32	4.0
56.335	6.0
56.351	7.0
56.366	4.0
56.381	7.0
56.396	3.0
56.411	2.0
56.426	2.0
56.441	2.0
56.457	2.0
56.472	4.0
56.487	7.0
56.502	6.0
56.517	7.0
56.532	2.0
56.547	5.0
56.563	7.0
56.578	1.0
56.593	6.0
56.608	4.0
56.623	7.0
56.638	4.0
56.653	7.0
56.668	2.0
56.684	5.0
56.699	3.0
56.714	12.0
56.729	4.0
56.744	2.0
56.759	2.0
56.774	4.0
56.79	3.0
56.805	2.0
56.82	6.0
56.835	2.0
56.85	4.0
56.865	3.0
56.88	3.0
56.895	3.0
56.911	1.0
56.926	3.0
56.941	6.0
56.956	1.0
56.971	4.0
56.986	6.0
57.001	3.0
57.016	2.0
57.031	4.0
57.047	11.0
57.062	4.0
57.077	5.0
57.092	3.0
57.107	7.0
57.122	5.0
57.137	5.0
57.152	7.0
57.167	4.0
57.183	7.0
57.198	4.0
57.213	5.0
57.228	2.0
57.243	6.0
57.258	10.0
57.273	4.0
57.288	8.0
57.303	0.0
57.318	5.0
57.334	6.0
57.349	6.0
57.364	5.0
57.379	3.0
57.394	3.0
57.409	4.0
57.424	4.0
57.439	4.0
57.454	6.0
57.469	5.0
57.484	3.0
57.5	4.0
57.515	7.0
57.53	4.0
57.545	4.0
57.56	3.0
57.575	4.0
57.59	2.0
57.605	3.0
57.62	4.0
57.635	4.0
57.65	4.0
57.665	5.0
57.68	6.0
57.696	4.0
57.711	9.0
57.726	6.0
57.741	7.0
57.756	4.0
57.771	7.0
57.786	6.0
57.801	8.0
57.816	8.0
57.831	4.0
57.846	5.0
57.861	4.0
57.876	4.0
57.891	0.0
57.906	1.0
57.921	1.0
57.937	4.0
57.952	3.0
57.967	5.0
57.982	5.0
57.997	4.0
58.012	5.0
58.027	3.0
58.042	7.0
58.057	6.0
58.072	7.0
58.087	7.0
58.102	4.0
58.117	6.0
58.132	6.0
58.147	3.0
58.162	9.0
58.177	6.0
58.192	4.0
58.207	5.0
58.222	5.0
58.237	7.0
58.252	10.0
58.267	5.0
58.282	2.0
58.297	2.0
58.312	3.0
58.327	1.0
58.342	3.0
58.357	4.0
58.372	4.0
58.387	2.0
58.402	1.0
58.418	4.0
58.433	5.0
58.448	5.0
58.463	3.0
58.478	6.0
58.493	6.0
58.508	6.0
58.523	6.0
58.538	4.0
58.553	7.0
58.568	3.0
58.583	4.0
58.598	11.0
58.613	7.0
58.628	9.0
58.643	13.0
58.658	13.0
58.673	9.0
58.688	14.0
58.703	8.0
58.718	10.0
58.733	4.0
58.748	6.0
58.763	4.0
58.778	5.0
58.793	2.0
58.808	7.0
58.823	11.0
58.838	7.0
58.853	5.0
58.868	7.0
58.883	4.0
58.898	7.0
58.913	6.0
58.928	7.0
58.942	7.0
58.957	4.0
58.972	9.0
58.987	8.0
59.002	8.0
59.017	5.0
59.032	7.0
59.047	8.0
59.062	5.0
59.077	7.0
59.092	2.0
59.107	9.0
59.122	11.0
59.137	5.0
59.152	2.0
59.167	2.0
59.182	3.0
59.197	3.0
59.212	5.0
59.227	3.0
59.242	4.0
59.257	11.0
59.272	2.0
59.287	3.0
59.302	4.0
59.317	3.0
59.332	5.0
59.347	5.0
59.362	1.0
59.377	4.0
59.392	4.0
59.407	6.0
59.422	6.0
59.437	4.0
59.452	4.0
59.467	6.0
59.482	5.0
59.497	8.0
59.512	5.0
59.527	5.0
59.542	8.0
59.557	9.0
59.572	9.0
59.587	11.0
59.602	5.0
59.617	13.0
59.632	12.0
59.647	10.0
59.661	7.0
59.676	8.0
59.691	6.0
59.706	9.0
59.721	7.0
59.736	7.0
59.751	7.0
59.766	5.0
59.781	4.0
59.796	5.0
59.811	4.0
59.826	7.0
59.841	3.0
59.856	0.0
59.871	3.0
59.886	10.0
59.901	2.0
59.916	5.0
59.931	8.0
59.946	10.0
59.961	6.0
59.976	9.0
59.991	9.0
60.006	9.0
60.021	9.0
60.036	6.0
60.051	9.0
60.066	5.0
60.081	6.0
60.096	10.0
60.111	3.0
60.126	6.0
60.141	5.0
60.156	1.0
60.171	2.0
60.186	5.0
60.201	3.0
60.216	3.0
60.231	2.0
60.246	5.0
60.261	3.0
60.276	3.0
60.291	5.0
60.306	7.0
60.321	6.0
60.336	5.0
60.35	5.0
60.365	7.0
60.38	6.0
60.395	7.0
60.41	6.0
60.425	5.0
60.44	4.0
60.455	6.0
60.47	3.0
60.485	5.0
60.5	6.0
60.515	7.0
60.53	6.0
60.545	4.0
60.56	13.0
60.575	4.0
60.59	10.0
60.605	9.0
60.62	5.0
60.635	5.0
60.65	8.0
60.665	6.0
60.68	3.0
60.695	11.0
60.71	3.0
60.725	5.0
60.74	6.0
60.755	4.0
60.77	4.0
60.785	7.0
60.8	2.0
60.815	5.0
60.83	9.0
60.845	2.0
60.86	5.0
60.875	10.0
60.89	3.0
60.905	5.0
60.92	5.0
60.935	6.0
60.95	5.0
60.965	6.0
60.98	7.0
60.995	10.0
61.01	3.0
61.025	4.0
61.04	8.0
61.055	6.0
61.07	2.0
61.085	3.0
61.1	4.0
61.115	2.0
61.13	1.0
61.145	5.0
61.16	5.0
61.175	4.0
61.191	5.0
61.206	2.0
61.221	3.0
61.236	2.0
61.251	4.0
61.266	2.0
61.281	5.0
61.296	8.0
61.311	5.0
61.326	5.0
61.341	1.0
61.356	6.0
61.371	5.0
61.386	2.0
61.401	5.0
61.416	5.0
61.431	6.0
61.446	3.0
61.461	4.0
61.476	6.0
61.491	4.0
61.506	6.0
61.521	5.0
61.536	1.0
61.551	8.0
61.566	3.0
61.581	7.0
61.596	6.0
61.611	7.0
61.626	2.0
61.641	6.0
61.656	2.0
61.672	4.0
61.687	2.0
61.702	3.0
61.717	7.0
61.732	3.0
61.747	4.0
61.762	2.0
61.777	5.0
61.792	7.0
61.807	3.0
61.822	5.0
61.837	4.0
61.852	5.0
61.867	4.0
61.882	6.0
61.897	8.0
61.912	1.0
61.927	7.0
61.943	6.0
61.958	5.0
61.973	11.0
61.988	5.0
62.003	4.0
62.018	1.0
62.033	5.0
62.048	1.0
62.063	4.0
62.078	7.0
62.093	4.0
62.108	1.0
62.123	7.0
62.138	5.0
62.153	4.0
62.169	5.0
62.184	5.0
62.199	4.0
62.214	3.0
62.229	1.0
62.244	4.0
62.259	7.0
62.274	2.0
62.289	5.0
62.304	5.0
62.319	2.0
62.335	5.0
62.35	5.0
62.365	5.0
62.38	2.0
62.395	5.0
62.41	4.0
62.425	6.0
62.44	9.0
62.455	4.0
62.47	2.0
62.485	9.0
62.501	2.0
62.516	2.0
62.531	4.0
62.546	4.0
62.561	5.0
62.576	5.0
62.591	1.0
62.606	6.0
62.621	1.0
62.636	5.0
62.652	2.0
62.667	2.0
62.682	4.0
62.697	5.0
62.712	2.0
62.727	7.0
62.742	5.0
62.757	3.0
62.772	2.0
62.787	6.0
62.803	5.0
62.818	3.0
62.833	5.0
62.848	5.0
62.863	4.0
62.878	9.0
62.893	0.0
62.908	5.0
62.923	4.0
62.939	5.0
62.954	6.0
62.969	6.0
62.984	3.0
62.999	5.0
63.014	5.0
63.029	4.0
63.044	9.0
63.059	4.0
63.074	5.0
63.09	8.0
63.105	7.0
63.12	4.0
63.135	1.0
63.15	4.0
63.165	1.0
63.18	5.0
63.195	5.0
63.21	2.0
63.226	4.0
63.241	4.0
63.256	4.0
63.271	7.0
63.286	4.0
63.301	4.0
63.316	6.0
63.331	6.0
63.346	4.0
63.362	6.0
63.377	5.0
63.392	1.0
63.407	7.0
63.422	11.0
63.437	3.0
63.452	6.0
63.467	9.0
63.482	5.0
63.497	7.0
63.513	2.0
63.528	4.0
63.543	6.0
63.558	4.0
63.573	4.0
63.588	3.0
63.603	6.0
63.618	5.0
63.633	2.0
63.648	3.0
63.664	6.0
63.679	4.0
63.694	5.0
63.709	3.0
63.724	3.0
63.739	4.0
63.754	4.0
63.769	3.0
63.784	6.0
63.799	8.0
63.814	1.0
63.83	5.0
63.845	5.0
63.86	6.0
63.875	4.0
63.89	9.0
63.905	4.0
63.92	5.0
63.935	3.0
63.95	4.0
63.965	3.0
63.98	4.0
63.996	3.0
64.011	5.0
64.026	5.0
64.041	3.0
64.056	4.0
64.071	3.0
64.086	6.0
64.101	5.0
64.116	4.0
64.131	1.0
64.146	7.0
64.161	3.0
64.176	8.0
64.191	6.0
64.207	4.0
64.222	4.0
64.237	2.0
64.252	5.0
64.267	7.0
64.282	2.0
64.297	8.0
64.312	6.0
64.327	2.0
64.342	3.0
64.357	1.0
64.372	5.0
64.387	4.0
64.402	6.0
64.417	4.0
64.433	5.0
64.448	3.0
64.463	4.0
64.478	2.0
64.493	5.0
64.508	4.0
64.523	1.0
64.538	8.0
64.553	8.0
64.568	3.0
64.583	1.0
64.598	4.0
64.613	4.0
64.628	6.0
64.643	7.0
64.658	4.0
64.673	3.0
64.688	4.0
64.703	3.0
64.718	6.0
64.734	4.0
64.749	4.0
64.764	1.0
64.779	2.0
64.794	7.0
64.809	2.0
64.824	6.0
64.839	7.0
64.854	4.0
64.869	5.0
64.884	6.0
64.899	3.0
64.914	9.0
64.929	3.0
64.944	4.0
64.959	3.0
64.974	4.0
64.989	8.0
65.004	4.0
65.019	11.0
65.034	2.0
65.049	1.0
65.064	4.0
65.079	2.0
65.094	1.0
65.109	3.0
65.125	4.0
65.14	6.0
65.155	5.0
65.17	2.0
65.185	3.0
65.2	5.0
65.215	1.0
65.23	8.0
65.245	3.0
65.26	5.0
65.275	2.0
65.29	7.0
65.305	5.0
65.32	3.0
65.335	6.0
65.35	4.0
65.365	5.0
65.38	6.0
65.395	8.0
65.41	3.0
65.425	3.0
65.44	9.0
65.455	3.0
65.47	9.0
65.485	3.0
65.5	1.0
65.515	4.0
65.53	6.0
65.545	3.0
65.56	8.0
65.575	3.0
65.59	7.0
65.605	3.0
65.62	4.0
65.635	5.0
65.65	7.0
65.666	5.0
65.681	1.0
65.696	4.0
65.711	4.0
65.726	4.0
65.741	5.0
65.756	2.0
65.771	0.0
65.786	7.0
65.801	4.0
65.816	2.0
65.831	5.0
65.846	3.0
65.861	6.0
65.876	2.0
65.891	3.0
65.906	5.0
65.921	3.0
65.936	6.0
65.951	3.0
65.966	5.0
65.981	6.0
65.996	7.0
66.011	3.0
66.026	4.0
66.041	3.0
66.056	5.0
66.071	5.0
66.086	6.0
66.101	6.0
66.116	5.0
66.131	5.0
66.146	12.0
66.161	3.0
66.176	7.0
66.191	10.0
66.206	4.0
66.221	3.0
66.236	8.0
66.251	13.0
66.266	4.0
66.281	8.0
66.296	3.0
66.311	4.0
66.327	2.0
66.342	1.0
66.357	4.0
66.372	5.0
66.387	4.0
66.402	7.0
66.417	6.0
66.432	5.0
66.447	6.0
66.462	0.0
66.477	6.0
66.492	5.0
66.507	2.0
66.522	4.0
66.537	3.0
66.552	5.0
66.567	6.0
66.582	6.0
66.597	5.0
66.612	6.0
66.627	6.0
66.642	5.0
66.657	10.0
66.672	5.0
66.687	4.0
66.702	5.0
66.717	7.0
66.732	2.0
66.747	4.0
66.762	1.0
66.777	2.0
66.792	8.0
66.807	3.0
66.822	2.0
66.837	4.0
66.853	5.0
66.868	8.0
66.883	3.0
66.898	1.0
66.913	2.0
66.928	2.0
66.943	6.0
66.958	2.0
66.973	2.0
66.988	2.0
67.003	3.0
67.018	3.0
67.033	7.0
67.048	7.0
67.063	5.0
67.078	6.0
67.093	4.0
67.108	5.0
67.123	3.0
67.138	3.0
67.153	6.0
67.168	2.0
67.183	3.0
67.198	2.0
67.214	7.0
67.229	0.0
67.244	2.0
67.259	4.0
67.274	1.0
67.289	4.0
67.304	3.0
67.319	6.0
67.334	1.0
67.349	2.0
67.364	0.0
67.379	3.0
67.394	2.0
67.409	1.0
67.424	4.0
67.439	7.0
67.454	2.0
67.469	3.0
67.484	5.0
67.5	5.0
67.515	5.0
67.53	2.0
67.545	4.0
67.56	8.0
67.575	5.0
67.59	3.0
67.605	5.0
67.62	6.0
67.635	4.0
67.65	9.0
67.665	3.0
67.68	2.0
67.695	6.0
67.71	8.0
67.726	3.0
67.741	3.0
67.756	4.0
67.771	4.0
67.786	4.0
67.801	5.0
67.816	4.0
67.831	3.0
67.846	2.0
67.861	3.0
67.876	6.0
67.891	4.0
67.906	2.0
67.922	6.0
67.937	3.0
67.952	6.0
67.967	3.0
67.982	7.0
67.997	2.0
68.012	4.0
68.027	4.0
68.042	1.0
68.057	1.0
68.072	4.0
68.087	2.0
68.103	4.0
68.118	4.0
68.133	7.0
68.148	2.0
68.163	1.0
68.178	4.0
68.193	2.0
68.208	2.0
68.223	4.0
68.238	5.0
68.254	4.0
68.269	1.0
68.284	4.0
68.299	3.0
68.314	2.0
68.329	3.0
68.344	3.0
68.359	6.0
68.374	6.0
68.389	5.0
68.405	4.0
68.42	4.0
68.435	4.0
68.45	4.0
68.465	1.0
68.48	4.0
68.495	4.0
68.51	4.0
68.525	3.0
68.54	5.0
68.556	2.0
68.571	5.0
68.586	7.0
68.601	2.0
68.616	2.0
68.631	7.0
68.646	2.0
68.661	2.0
68.676	4.0
68.691	3.0
68.707	5.0
68.722	2.0
68.737	3.0
68.752	6.0
68.767	4.0
68.782	3.0
68.797	5.0
68.812	4.0
68.827	4.0
68.842	6.0
68.857	8.0
68.873	1.0
68.888	5.0
68.903	5.0
68.918	2.0
68.933	3.0
68.948	6.0
68.963	2.0
68.978	2.0
68.993	5.0
69.008	5.0
69.023	6.0
69.038	5.0
69.054	2.0
69.069	1.0
69.084	5.0
69.099	4.0
69.114	2.0
69.129	1.0
69.144	2.0
69.159	4.0
69.174	1.0
69.189	1.0
69.204	3.0
69.219	1.0
69.234	4.0
69.249	1.0
69.264	1.0
69.279	3.0
69.295	2.0
69.31	6.0
69.325	4.0
69.34	5.0
69.355	1.0
69.37	5.0
69.385	6.0
69.4	2.0
69.415	1.0
69.43	3.0
69.445	2.0
69.46	2.0
69.475	4.0
69.49	4.0
69.505	4.0
69.52	2.0
69.535	2.0
69.55	6.0
69.565	0.0
69.58	2.0
69.595	3.0
69.61	1.0
69.625	1.0
69.64	4.0
69.655	5.0
69.67	4.0
69.685	5.0
69.7	3.0
69.715	9.0
69.73	10.0
69.745	3.0
69.76	5.0
69.775	6.0
69.79	7.0
69.805	6.0
69.82	5.0
69.835	9.0
69.85	9.0
69.865	3.0
69.88	4.0
69.895	5.0
69.909	6.0
69.924	9.0
69.939	4.0
69.954	3.0
69.969	5.0
69.984	1.0
69.999	1.0
70.014	5.0
70.029	1.0
70.044	2.0
70.059	2.0
70.074	4.0
70.088	5.0
70.103	3.0
70.118	4.0
70.133	4.0
70.148	3.0
70.163	5.0
70.178	4.0
70.193	1.0
70.208	3.0
70.222	5.0
70.237	1.0
70.252	4.0
70.267	6.0
70.282	2.0
70.297	5.0
70.312	3.0
70.327	2.0
70.341	5.0
70.356	3.0
70.371	2.0
70.386	7.0
70.401	3.0
70.416	1.0
70.43	3.0
70.445	0.0
70.46	7.0
70.475	2.0
70.49	6.0
70.505	4.0
70.519	2.0
70.534	4.0
70.549	6.0
70.564	2.0
70.579	3.0
70.594	4.0
70.608	6.0
70.623	7.0
70.638	4.0
70.653	3.0
70.668	4.0
70.683	7.0
70.697	4.0
70.712	6.0
70.727	3.0
70.742	7.0
70.757	2.0
70.771	11.0
70.786	4.0
70.801	8.0
70.816	3.0
70.831	5.0
70.845	2.0
70.86	3.0
70.875	4.0
70.89	2.0
70.905	1.0
70.92	3.0
70.934	4.0
70.949	4.0
70.964	7.0
70.979	8.0
70.994	5.0
71.008	3.0
71.023	2.0
71.038	1.0
71.053	1.0
71.068	6.0
71.082	3.0
71.097	2.0
71.112	3.0
71.127	6.0
71.142	5.0
71.156	2.0
71.171	2.0
71.186	5.0
71.201	8.0
71.216	7.0
71.231	6.0
71.245	4.0
71.26	0.0
71.275	2.0
71.29	4.0
71.305	2.0
71.319	0.0
71.334	3.0
71.349	3.0
71.364	4.0
71.379	5.0
71.394	5.0
71.408	6.0
71.423	1.0
71.438	2.0
71.453	7.0
71.468	3.0
71.483	5.0
71.497	3.0
71.512	4.0
71.527	2.0
71.542	5.0
71.557	2.0
71.572	2.0
71.586	2.0
71.601	3.0
71.616	7.0
71.631	3.0
71.646	0.0
71.661	2.0
71.676	4.0
71.69	1.0
71.705	4.0
71.72	3.0
71.735	3.0
71.75	0.0
71.765	2.0
71.78	5.0
71.795	4.0
71.81	4.0
71.824	3.0
71.839	2.0
71.854	4.0
71.869	2.0
71.884	4.0
71.899	4.0
71.914	2.0
71.929	5.0
71.944	0.0
71.959	2.0
71.974	2.0
71.988	1.0
72.003	6.0
72.018	4.0
72.033	4.0
72.048	6.0
72.063	6.0
72.078	3.0
72.093	7.0
72.108	3.0
72.123	3.0
72.138	5.0
72.153	3.0
72.168	7.0
72.183	6.0
72.198	5.0
72.213	2.0
72.228	2.0
72.243	3.0
72.258	4.0
72.273	0.0
72.288	2.0
72.303	6.0
72.318	4.0
72.333	4.0
72.348	3.0
72.363	4.0
72.378	7.0
72.393	4.0
72.408	5.0
72.423	1.0
72.438	3.0
72.453	1.0
72.468	4.0
72.483	2.0
72.498	2.0
72.513	4.0
72.528	4.0
72.543	4.0
72.558	2.0
72.573	2.0
72.588	6.0
72.603	3.0
72.618	3.0
72.633	4.0
72.649	3.0
72.664	3.0
72.679	2.0
72.694	2.0
72.709	4.0
72.724	5.0
72.739	3.0
72.754	8.0
72.769	7.0
72.784	5.0
72.799	2.0
72.814	4.0
72.829	4.0
72.845	4.0
72.86	2.0
72.875	2.0
72.89	2.0
72.905	4.0
72.92	8.0
72.935	7.0
72.95	5.0
72.965	2.0
72.98	2.0
72.996	4.0
73.011	3.0
73.026	6.0
73.041	0.0
73.056	1.0
73.071	3.0
73.086	3.0
73.101	0.0
73.117	2.0
73.132	0.0
73.147	4.0
73.162	3.0
73.177	7.0
73.192	5.0
73.207	1.0
73.222	3.0
73.238	3.0
73.253	8.0
73.268	6.0
73.283	5.0
73.298	4.0
73.313	4.0
73.328	3.0
73.343	8.0
73.359	7.0
73.374	1.0
73.389	4.0
73.404	6.0
73.419	0.0
73.434	5.0
73.449	7.0
73.465	0.0
73.48	7.0
73.495	3.0
73.51	2.0
73.525	2.0
73.54	4.0
73.556	8.0
73.571	1.0
73.586	1.0
73.601	3.0
73.616	4.0
73.631	3.0
73.646	6.0
73.662	3.0
73.677	8.0
73.692	2.0
73.707	1.0
73.722	0.0
73.737	4.0
73.752	4.0
73.768	3.0
73.783	3.0
73.798	6.0
73.813	2.0
73.828	6.0
73.843	3.0
73.859	5.0
73.874	2.0
73.889	3.0
73.904	3.0
73.919	1.0
73.934	3.0
73.949	7.0
73.965	4.0
73.98	3.0
73.995	4.0
74.01	8.0
74.025	3.0
74.04	4.0
74.056	6.0
74.071	2.0
74.086	3.0
74.101	6.0
74.116	8.0
74.131	6.0
74.146	4.0
74.162	6.0
74.177	5.0
74.192	8.0
74.207	10.0
74.222	6.0
74.237	9.0
74.252	2.0
74.268	3.0
74.283	2.0
74.298	4.0
74.313	3.0
74.328	5.0
74.343	2.0
74.358	4.0
74.374	5.0
74.389	3.0
74.404	5.0
74.419	3.0
74.434	4.0
74.449	3.0
74.464	4.0
74.48	2.0
74.495	5.0
74.51	0.0
74.525	4.0
74.54	2.0
74.555	4.0
74.57	3.0
74.586	8.0
74.601	1.0
74.616	5.0
74.631	2.0
74.646	6.0
74.661	5.0
74.676	4.0
74.691	5.0
74.707	7.0
74.722	8.0
74.737	7.0
74.752	5.0
74.767	2.0
74.782	3.0
74.797	3.0
74.813	5.0
74.828	1.0
74.843	2.0
74.858	3.0
74.873	2.0
74.888	5.0
74.903	5.0
74.918	4.0
74.934	2.0
74.949	1.0
74.964	0.0
74.979	6.0
74.994	5.0
75.009	8.0
75.024	5.0
75.04	5.0
75.055	7.0
75.07	4.0
75.085	5.0
75.1	3.0
75.115	4.0
75.13	2.0
75.145	2.0
75.161	5.0
75.176	2.0
75.191	1.0
75.206	1.0
75.221	4.0
75.236	3.0
75.251	2.0
75.266	2.0
75.282	1.0
75.297	5.0
75.312	4.0
75.327	1.0
75.342	1.0
75.357	6.0
75.372	6.0
75.387	1.0
75.403	5.0
75.418	3.0
75.433	1.0
75.448	3.0
75.463	3.0
75.478	4.0
75.493	5.0
75.509	5.0
75.524	5.0
75.539	2.0
75.554	5.0
75.569	2.0
75.584	4.0
75.599	1.0
75.614	6.0
75.63	3.0
75.645	2.0
75.66	2.0
75.675	5.0
75.69	3.0
75.705	4.0
75.72	4.0
75.735	1.0
75.751	4.0
75.766	3.0
75.781	2.0
75.796	1.0
75.811	6.0
75.826	4.0
75.841	2.0
75.856	4.0
75.872	7.0
75.887	7.0
75.902	5.0
75.917	9.0
75.932	7.0
75.947	4.0
75.962	0.0
75.977	4.0
75.993	3.0
76.008	4.0
76.023	5.0
76.038	4.0
76.053	4.0
76.068	5.0
76.083	6.0
76.098	2.0
76.114	5.0
76.129	4.0
76.144	2.0
76.159	4.0
76.174	4.0
76.189	3.0
76.204	2.0
76.22	4.0
76.235	1.0
76.25	1.0
76.265	5.0
76.28	7.0
76.295	2.0
76.31	5.0
76.325	4.0
76.341	2.0
76.356	4.0
76.371	3.0
76.386	4.0
76.401	1.0
76.416	0.0
76.431	4.0
76.446	5.0
76.462	2.0
76.477	6.0
76.492	1.0
76.507	1.0
76.522	7.0
76.537	1.0
76.552	8.0
76.567	4.0
76.583	5.0
76.598	2.0
76.613	4.0
76.628	2.0
76.643	7.0
76.658	3.0
76.673	4.0
76.688	4.0
76.704	3.0
76.719	6.0
76.734	3.0
76.749	5.0
76.764	5.0
76.779	7.0
76.794	8.0
76.809	8.0
76.824	8.0
76.84	1.0
76.855	4.0
76.87	5.0
76.885	4.0
76.9	2.0
76.915	8.0
76.93	5.0
76.945	6.0
76.96	4.0
76.976	2.0
76.991	2.0
77.006	4.0
77.021	3.0
77.036	4.0
77.051	2.0
77.066	4.0
77.081	5.0
77.096	2.0
77.112	4.0
77.127	3.0
77.142	2.0
77.157	1.0
77.172	5.0
77.187	3.0
77.202	1.0
77.217	6.0
77.232	4.0
77.247	5.0
77.263	1.0
77.278	6.0
77.293	3.0
77.308	4.0
77.323	3.0
77.338	4.0
77.353	3.0
77.368	4.0
77.383	3.0
77.398	4.0
77.413	1.0
77.428	2.0
77.444	3.0
77.459	1.0
77.474	3.0
77.489	2.0
77.504	3.0
77.519	3.0
77.534	5.0
77.549	4.0
77.564	9.0
77.579	5.0
77.594	6.0
77.609	2.0
77.624	9.0
77.64	5.0
77.655	9.0
77.67	9.0
77.685	7.0
77.7	0.0
77.715	4.0
77.73	2.0
77.745	3.0
77.76	2.0
77.775	2.0
77.79	3.0
77.805	2.0
77.82	3.0
77.835	4.0
77.85	1.0
77.865	5.0
77.88	2.0
77.895	5.0
77.91	3.0
77.926	1.0
77.941	2.0
77.956	0.0
77.971	2.0
77.986	7.0
78.001	3.0
78.016	6.0
78.031	4.0
78.046	2.0
78.061	4.0
78.076	2.0
78.091	1.0
78.106	4.0
78.121	4.0
78.136	6.0
78.151	5.0
78.166	2.0
78.181	6.0
78.196	6.0
78.211	5.0
78.226	7.0
78.241	4.0
78.256	7.0
78.271	0.0
78.286	4.0
78.301	4.0
78.316	4.0
78.331	3.0
78.346	6.0
78.361	2.0
78.376	4.0
78.391	6.0
78.406	4.0
78.421	2.0
78.436	1.0
78.451	5.0
78.466	7.0
78.481	4.0
78.496	1.0
78.511	6.0
78.526	1.0
78.541	2.0
78.556	1.0
78.571	4.0
78.586	0.0
78.601	0.0
78.616	3.0
78.631	3.0
78.646	2.0
78.661	1.0
78.676	3.0
78.691	3.0
78.706	0.0
78.721	6.0
78.736	2.0
78.751	4.0
78.766	2.0
78.781	7.0
78.796	3.0
78.811	4.0
78.826	5.0
78.841	1.0
78.856	3.0
78.871	2.0
78.885	3.0
78.9	5.0
78.915	5.0
78.93	2.0
78.945	5.0
78.96	4.0
78.975	2.0
78.99	8.0
79.005	3.0
79.02	2.0
79.035	7.0
79.05	2.0
79.065	3.0
79.08	0.0
79.095	3.0
79.11	3.0
79.125	4.0
79.14	3.0
79.155	4.0
79.17	5.0
79.185	1.0
79.2	2.0
79.215	1.0
79.23	4.0
79.245	2.0
79.26	3.0
79.275	3.0
79.29	5.0
79.304	3.0
79.319	3.0
79.334	2.0
79.349	5.0
79.364	5.0
79.379	6.0
79.394	5.0
79.409	7.0
79.424	4.0
79.439	1.0
79.454	4.0
79.469	4.0
79.484	4.0
79.499	4.0
79.514	3.0
79.529	2.0
79.544	3.0
79.559	6.0
79.574	2.0
79.589	2.0
79.604	4.0
79.619	1.0
79.634	5.0
79.649	2.0
79.664	2.0
79.679	3.0
79.693	2.0
79.708	4.0
79.723	6.0
79.738	8.0
79.753	5.0
79.768	1.0
79.783	2.0
79.798	4.0
79.813	6.0
79.828	3.0
79.843	3.0
79.858	3.0
79.873	2.0
79.888	3.0
79.903	0.0
79.918	5.0
79.933	2.0
79.948	6.0
79.963	7.0
79.978	6.0
79.993	5.0
80.008	2.0
80.023	3.0
80.038	2.0
80.053	5.0
80.068	2.0
80.083	3.0
80.098	4.0
80.113	3.0
80.128	3.0
80.143	4.0
80.158	1.0
80.173	8.0
80.188	4.0
80.202	5.0
80.217	6.0
80.232	4.0
80.247	2.0
80.262	6.0
80.277	3.0
80.292	8.0
80.307	8.0
80.322	4.0
80.337	5.0
80.352	4.0
80.367	3.0
80.382	3.0
80.397	5.0
80.412	1.0
80.427	1.0
80.442	2.0
80.457	4.0
80.472	3.0
80.487	2.0
80.502	3.0
80.517	5.0
80.532	4.0
80.547	4.0
80.562	5.0
80.577	5.0
80.592	4.0
80.607	4.0
80.622	3.0
80.637	3.0
80.652	2.0
80.667	7.0
80.682	3.0
80.697	3.0
80.712	7.0
80.727	2.0
80.742	2.0
80.757	5.0
80.772	1.0
80.787	3.0
80.802	5.0
80.817	1.0
80.832	4.0
80.847	3.0
80.862	5.0
80.877	3.0
80.892	3.0
80.907	4.0
80.922	2.0
80.937	3.0
80.952	3.0
80.967	3.0
80.982	4.0
80.997	1.0
81.012	2.0
81.027	2.0
81.042	5.0
81.057	1.0
81.072	4.0
81.087	3.0
81.101	6.0
81.116	1.0
81.131	2.0
81.146	1.0
81.161	6.0
81.176	2.0
81.191	3.0
81.206	0.0
81.221	2.0
81.236	3.0
81.251	3.0
81.266	2.0
81.281	5.0
81.296	1.0
81.311	4.0
81.326	4.0
81.341	2.0
81.356	1.0
81.371	2.0
81.386	2.0
81.401	2.0
81.416	1.0
81.431	4.0
81.446	2.0
81.461	4.0
81.476	1.0
81.491	2.0
81.506	3.0
81.521	3.0
81.536	6.0
81.55	4.0
81.565	8.0
81.58	2.0
81.595	5.0
81.61	2.0
81.625	3.0
81.64	1.0
81.655	2.0
81.67	4.0
81.685	3.0
81.7	2.0
81.715	7.0
81.73	2.0
81.745	1.0
81.76	3.0
81.775	6.0
81.79	2.0
81.805	4.0
81.819	9.0
81.834	6.0
81.849	2.0
81.864	2.0
81.879	4.0
81.894	5.0
81.909	5.0
81.924	5.0
81.939	6.0
81.954	7.0
81.969	2.0
81.984	4.0
81.999	7.0
82.013	5.0
82.028	4.0
82.043	3.0
82.058	1.0
82.073	4.0
82.088	0.0
82.103	1.0
82.118	1.0
82.133	5.0
82.148	6.0
82.163	6.0
82.177	3.0
82.192	0.0
82.207	4.0
82.222	9.0
82.237	2.0
82.252	1.0
82.267	3.0
82.282	2.0
82.297	3.0
82.312	3.0
82.326	3.0
82.341	5.0
82.356	8.0
82.371	4.0
82.386	6.0
82.401	4.0
82.416	2.0
82.431	3.0
82.445	5.0
82.46	4.0
82.475	3.0
82.49	2.0
82.505	2.0
82.52	6.0
82.535	4.0
82.55	1.0
82.565	2.0
82.579	5.0
82.594	4.0
82.609	0.0
82.624	4.0
82.639	1.0
82.654	2.0
82.669	1.0
82.684	5.0
82.698	2.0
82.713	1.0
82.728	2.0
82.743	4.0
82.758	4.0
82.773	5.0
82.788	5.0
82.803	6.0
82.817	5.0
82.832	3.0
82.847	0.0
82.862	2.0
82.877	3.0
82.892	7.0
82.907	1.0
82.922	1.0
82.937	1.0
82.951	4.0
82.966	7.0
82.981	3.0
82.996	2.0
83.011	1.0
83.026	0.0
83.041	2.0
83.056	3.0
83.07	4.0
83.085	3.0
83.1	2.0
83.115	5.0
83.13	2.0
83.145	2.0
83.16	3.0
83.175	4.0
83.19	3.0
83.204	0.0
83.219	2.0
83.234	4.0
83.249	5.0
83.264	0.0
83.279	5.0
83.294	5.0
83.309	4.0
83.324	4.0
83.339	3.0
83.353	6.0
83.368	4.0
83.383	1.0
83.398	3.0
83.413	3.0
83.428	5.0
83.443	4.0
83.458	5.0
83.473	3.0
83.488	3.0
83.503	3.0
83.517	1.0
83.532	3.0
83.547	2.0
83.562	1.0
83.577	3.0
83.592	2.0
83.607	3.0
83.622	7.0
83.637	8.0
83.652	1.0
83.667	2.0
83.682	5.0
83.697	3.0
83.712	2.0
83.727	4.0
83.741	4.0
83.756	0.0
83.771	2.0
83.786	3.0
83.801	6.0
83.816	4.0
83.831	0.0
83.846	1.0
83.861	1.0
83.876	0.0
83.891	5.0
83.906	3.0
83.921	5.0
83.936	3.0
83.951	0.0
83.966	2.0
83.981	2.0
83.996	2.0
84.011	4.0
84.026	4.0
84.041	2.0
84.056	1.0
84.071	0.0
84.086	2.0
84.101	2.0
84.116	2.0
84.131	5.0
84.146	0.0
84.161	2.0
84.176	6.0
84.191	1.0
84.206	0.0
84.221	5.0
84.236	6.0
84.251	3.0
84.266	1.0
84.281	2.0
84.296	3.0
84.311	2.0
84.326	4.0
84.341	6.0
84.356	0.0
84.371	7.0
84.386	9.0
84.401	7.0
84.416	0.0
84.431	4.0
84.446	5.0
84.461	1.0
84.476	5.0
84.492	2.0
84.507	2.0
84.522	6.0
84.537	6.0
84.552	2.0
84.567	4.0
84.582	2.0
84.597	0.0
84.612	0.0
84.627	4.0
84.642	2.0
84.657	4.0
84.672	2.0
84.687	1.0
84.702	1.0
84.717	5.0
84.733	3.0
84.748	6.0
84.763	4.0
84.778	7.0
84.793	3.0
84.808	4.0
84.823	3.0
84.838	2.0
84.853	2.0
84.868	5.0
84.883	2.0
84.898	2.0
84.913	2.0
84.929	5.0
84.944	0.0
84.959	4.0
84.974	3.0
84.989	4.0
85.004	3.0
85.019	2.0
85.034	4.0
85.049	10.0
85.064	6.0
85.079	2.0
85.094	1.0
85.11	3.0
85.125	1.0
85.14	4.0
85.155	1.0
85.17	5.0
85.185	2.0
85.2	2.0
85.215	1.0
85.23	1.0
85.245	1.0
85.26	3.0
85.276	5.0
85.291	2.0
85.306	0.0
85.321	4.0
85.336	2.0
85.351	2.0
85.366	1.0
85.381	1.0
85.396	5.0
85.411	6.0
85.426	1.0
85.441	2.0
85.457	2.0
85.472	5.0
85.487	3.0
85.502	1.0
85.517	5.0
85.532	3.0
85.547	1.0
85.562	5.0
85.577	2.0
85.592	3.0
85.607	5.0
85.622	3.0
85.637	3.0
85.653	5.0
85.668	4.0
85.683	2.0
85.698	1.0
85.713	4.0
85.728	2.0
85.743	3.0
85.758	2.0
85.773	3.0
85.788	3.0
85.803	4.0
85.818	4.0
85.833	4.0
85.848	1.0
85.863	2.0
85.879	5.0
85.894	7.0
85.909	5.0
85.924	1.0
85.939	2.0
85.954	2.0
85.969	3.0
85.984	3.0
85.999	3.0
86.014	3.0
86.029	0.0
86.044	2.0
86.059	3.0
86.074	7.0
86.089	3.0
86.104	0.0
86.119	1.0
86.134	2.0
86.149	2.0
86.164	2.0
86.179	3.0
86.194	3.0
86.209	2.0
86.224	2.0
86.239	0.0
86.254	2.0
86.269	1.0
86.284	2.0
86.299	2.0
86.314	2.0
86.33	1.0
86.345	2.0
86.36	4.0
86.375	2.0
86.39	8.0
86.405	2.0
86.42	3.0
86.435	1.0
86.45	3.0
86.465	3.0
86.48	2.0
86.495	3.0
86.51	4.0
86.525	5.0
86.54	2.0
86.555	2.0
86.57	4.0
86.585	1.0
86.6	5.0
86.615	2.0
86.63	4.0
86.645	4.0
86.659	2.0
86.674	3.0
86.689	3.0
86.704	3.0
86.719	2.0
86.734	0.0
86.749	2.0
86.764	5.0
86.779	2.0
86.794	4.0
86.809	5.0
86.824	3.0
86.839	2.0
86.854	3.0
86.869	4.0
86.884	1.0
86.899	4.0
86.914	3.0
86.929	4.0
86.944	4.0
86.959	4.0
86.974	2.0
86.989	6.0
87.004	3.0
87.019	1.0
87.034	3.0
87.049	4.0
87.064	1.0
87.079	4.0
87.094	1.0
87.109	1.0
87.124	2.0
87.139	5.0
87.154	3.0
87.169	1.0
87.184	3.0
87.199	2.0
87.214	4.0
87.229	1.0
87.244	3.0
87.259	3.0
87.274	4.0
87.289	5.0
87.304	4.0
87.319	3.0
87.334	1.0
87.349	2.0
87.364	1.0
87.379	2.0
87.394	5.0
87.409	2.0
87.424	3.0
87.438	3.0
87.453	4.0
87.468	3.0
87.483	2.0
87.498	6.0
87.513	5.0
87.528	2.0
87.543	10.0
87.558	4.0
87.573	4.0
87.588	4.0
87.603	3.0
87.618	2.0
87.633	5.0
87.648	4.0
87.663	5.0
87.678	2.0
87.693	6.0
87.708	3.0
87.723	3.0
87.738	4.0
87.753	5.0
87.768	5.0
87.783	3.0
87.798	5.0
87.813	10.0
87.828	2.0
87.843	6.0
87.858	1.0
87.873	1.0
87.888	3.0
87.903	5.0
87.918	4.0
87.933	4.0
87.948	1.0
87.963	1.0
87.978	2.0
87.993	4.0
88.008	2.0
88.023	4.0
88.038	1.0
88.053	4.0
88.068	2.0
88.083	2.0
88.098	2.0
88.113	3.0
88.128	1.0
88.143	5.0
88.158	3.0
88.174	3.0
88.189	2.0
88.204	3.0
88.219	2.0
88.234	1.0
88.249	3.0
88.264	2.0
88.279	2.0
88.294	4.0
88.309	3.0
88.324	4.0
88.339	7.0
88.354	3.0
88.369	1.0
88.384	5.0
88.399	3.0
88.414	5.0
88.429	2.0
88.444	2.0
88.459	4.0
88.474	4.0
88.489	1.0
88.504	4.0
88.519	2.0
88.534	1.0
88.549	3.0
88.564	1.0
88.58	5.0
88.595	3.0
88.61	2.0
88.625	4.0
88.64	2.0
88.655	5.0
88.67	2.0
88.685	3.0
88.7	3.0
88.715	5.0
88.73	3.0
88.745	6.0
88.76	6.0
88.775	3.0
88.79	4.0
88.805	3.0
88.82	3.0
88.835	2.0
88.85	3.0
88.865	1.0
88.88	2.0
88.895	2.0
88.911	0.0
88.926	5.0
88.941	1.0
88.956	4.0
88.971	3.0
88.986	2.0
89.001	3.0
89.016	4.0
89.031	4.0
89.046	6.0
89.061	1.0
89.076	2.0
89.091	3.0
89.106	5.0
89.121	2.0
89.136	3.0
89.151	4.0
89.166	3.0
89.181	2.0
89.196	3.0
89.211	4.0
89.227	2.0
89.242	6.0
89.257	2.0
89.272	5.0
89.287	2.0
89.302	2.0
89.317	0.0
89.332	3.0
89.347	4.0
89.362	4.0
89.377	3.0
89.392	3.0
89.407	2.0
89.422	3.0
89.437	4.0
89.452	4.0
89.467	5.0
89.482	6.0
89.497	4.0
89.512	4.0
89.527	1.0
89.542	5.0
89.557	3.0
89.572	4.0
89.587	3.0
89.602	1.0
89.617	4.0
89.632	2.0
89.647	4.0
89.662	4.0
89.677	3.0
89.693	5.0
89.708	2.0
89.723	5.0
89.738	1.0
89.753	3.0
89.768	5.0
89.783	3.0
89.798	2.0
89.813	5.0
89.828	1.0
89.843	1.0
89.858	4.0
89.873	2.0
89.888	3.0
89.903	1.0
89.918	3.0
89.933	3.0
89.948	4.0
89.963	4.0
89.978	3.0
89.993	1.0
90.008	5.0
90.023	5.0
90.038	7.0
90.053	3.0
90.068	2.0
90.083	2.0
90.097	3.0
90.112	6.0
90.127	6.0
90.142	7.0
90.157	4.0
90.172	3.0
90.187	4.0
90.202	3.0
90.217	2.0
90.232	7.0
90.247	4.0
90.262	6.0
90.277	5.0
90.292	9.0
90.307	4.0
90.322	4.0
90.337	1.0
90.352	4.0
90.367	2.0
90.382	4.0
90.397	3.0
90.412	3.0
90.427	3.0
90.442	2.0
90.457	3.0
90.472	4.0
90.487	1.0
90.501	0.0
90.516	5.0
90.531	0.0
90.546	1.0
90.561	3.0
90.576	1.0
90.591	1.0
90.606	2.0
90.621	8.0
90.636	5.0
90.651	2.0
90.666	3.0
90.681	2.0
90.696	5.0
90.711	4.0
90.726	6.0
90.741	5.0
90.755	1.0
90.77	1.0
90.785	2.0
90.8	1.0
90.815	3.0
90.83	2.0
90.845	1.0
90.86	4.0
90.875	1.0
90.89	4.0
90.905	4.0
90.92	0.0
90.935	6.0
90.95	4.0
90.965	3.0
90.979	4.0
90.994	4.0
91.009	6.0
91.024	2.0
91.039	6.0
91.054	5.0
91.069	4.0
91.084	2.0
91.099	4.0
91.114	4.0
91.129	8.0
91.144	3.0
91.159	2.0
91.174	2.0
91.188	8.0
91.203	2.0
91.218	2.0
91.233	3.0
91.248	4.0
91.263	4.0
91.278	2.0
91.293	3.0
91.308	3.0
91.323	1.0
91.338	5.0
91.353	2.0
91.368	5.0
91.383	4.0
91.398	1.0
91.412	3.0
91.427	2.0
91.442	5.0
91.457	4.0
91.472	5.0
91.487	1.0
91.502	3.0
91.517	3.0
91.532	0.0
91.547	1.0
91.562	4.0
91.577	1.0
91.592	1.0
91.607	1.0
91.622	3.0
91.637	2.0
91.652	1.0
91.666	5.0
91.681	5.0
91.696	6.0
91.711	3.0
91.726	6.0
91.741	2.0
91.756	5.0
91.771	2.0
91.786	2.0
91.801	4.0
91.816	5.0
91.831	3.0
91.846	6.0
91.861	3.0
91.876	1.0
91.891	10.0
91.906	2.0
91.921	0.0
91.936	3.0
91.951	1.0
91.966	4.0
91.981	5.0
91.995	1.0
92.01	1.0
92.025	2.0
92.04	2.0
92.055	6.0
92.07	1.0
92.085	3.0
92.1	2.0
92.115	8.0
92.13	5.0
92.145	4.0
92.16	4.0
92.175	3.0
92.19	0.0
92.205	3.0
92.22	5.0
92.235	4.0
92.25	4.0
92.265	0.0
92.28	4.0
92.295	4.0
92.31	2.0
92.325	0.0
92.34	2.0
92.355	3.0
92.37	1.0
92.385	2.0
92.4	2.0
92.415	5.0
92.43	3.0
92.445	3.0
92.46	6.0
92.475	2.0
92.49	2.0
92.505	3.0
92.52	2.0
92.535	1.0
92.55	6.0
92.565	4.0
92.58	4.0
92.595	3.0
92.61	2.0
92.625	4.0
92.64	5.0
92.655	4.0
92.67	1.0
92.685	2.0
92.7	1.0
92.715	5.0
92.73	6.0
92.745	3.0
92.76	1.0
92.775	5.0
92.79	1.0
92.805	3.0
92.82	3.0
92.835	3.0
92.85	6.0
92.865	2.0
92.88	3.0
92.895	6.0
92.91	1.0
92.925	9.0
92.94	3.0
92.955	0.0
92.97	1.0
92.985	2.0
93.0	2.0
93.015	3.0
93.03	6.0
93.045	4.0
93.06	2.0
93.075	2.0
93.09	4.0
93.105	1.0
93.12	1.0
93.135	4.0
93.15	0.0
93.165	2.0
93.18	6.0
93.195	5.0
93.21	0.0
93.225	3.0
93.24	2.0
93.255	2.0
93.27	1.0
93.285	2.0
93.3	4.0
93.315	2.0
93.33	3.0
93.345	1.0
93.36	4.0
93.375	3.0
93.39	2.0
93.405	2.0
93.42	7.0
93.435	5.0
93.45	4.0
93.465	1.0
93.48	3.0
93.495	4.0
93.51	4.0
93.525	4.0
93.54	4.0
93.555	1.0
93.57	4.0
93.585	3.0
93.6	1.0
93.615	2.0
93.63	3.0
93.645	1.0
93.66	2.0
93.675	4.0
93.69	5.0
93.705	7.0
93.72	1.0
93.735	5.0
93.75	2.0
93.765	2.0
93.78	9.0
93.795	2.0
93.81	5.0
93.824	5.0
93.839	2.0
93.854	5.0
93.869	3.0
93.884	3.0
93.899	1.0
93.914	4.0
93.929	5.0
93.944	4.0
93.959	3.0
93.974	6.0
93.989	2.0
94.004	6.0
94.019	1.0
94.034	7.0
94.049	2.0
94.064	2.0
94.079	5.0
94.094	3.0
94.108	6.0
94.123	2.0
94.138	2.0
94.153	2.0
94.168	4.0
94.183	4.0
94.198	3.0
94.213	2.0
94.228	2.0
94.243	4.0
94.258	4.0
94.273	2.0
94.288	4.0
94.302	4.0
94.317	1.0
94.332	2.0
94.347	4.0
94.362	1.0
94.377	6.0
94.392	3.0
94.407	5.0
94.422	9.0
94.437	4.0
94.452	2.0
94.466	8.0
94.481	5.0
94.496	3.0
94.511	4.0
94.526	4.0
94.541	2.0
94.556	4.0
94.571	4.0
94.586	5.0
94.601	1.0
94.615	3.0
94.63	5.0
94.645	2.0
94.66	3.0
94.675	8.0
94.69	1.0
94.705	4.0
94.72	4.0
94.735	4.0
94.749	1.0
94.764	2.0
94.779	2.0
94.794	3.0
94.809	4.0
94.824	1.0
94.839	3.0
94.854	2.0
94.868	5.0
94.883	7.0
94.898	4.0
94.913	6.0
94.928	4.0
94.943	3.0
94.958	3.0
94.973	2.0
94.987	6.0
95.002	2.0
95.017	2.0
95.032	4.0
95.047	5.0
95.062	2.0
95.077	3.0
95.092	3.0
95.106	3.0
95.121	3.0
95.136	5.0
95.151	9.0
95.166	7.0
95.181	1.0
95.196	5.0
95.211	6.0
95.226	4.0
95.24	2.0
95.255	3.0
95.27	1.0
95.285	3.0
95.3	3.0
95.315	2.0
95.33	2.0
95.345	6.0
95.359	2.0
95.374	5.0
95.389	3.0
95.404	4.0
95.419	1.0
95.434	2.0
95.449	3.0
95.464	2.0
95.478	2.0
95.493	4.0
95.508	6.0
95.523	6.0
95.538	2.0
95.553	1.0
95.568	3.0
95.583	4.0
95.597	2.0
95.612	1.0
95.627	3.0
95.642	1.0
95.657	5.0
95.672	1.0
95.687	1.0
95.702	2.0
95.717	1.0
95.731	6.0
95.746	4.0
95.761	1.0
95.776	1.0
95.791	2.0
95.806	7.0
95.821	1.0
95.836	0.0
95.851	6.0
95.866	0.0
95.88	4.0
95.895	4.0
95.91	2.0
95.925	3.0
95.94	2.0
95.955	4.0
95.97	2.0
95.985	2.0
96.0	3.0
96.015	2.0
96.029	3.0
96.044	3.0
96.059	4.0
96.074	0.0
96.089	3.0
96.104	1.0
96.119	3.0
96.134	0.0
96.149	3.0
96.164	4.0
96.179	6.0
96.194	3.0
96.208	2.0
96.223	4.0
96.238	2.0
96.253	4.0
96.268	3.0
96.283	3.0
96.298	3.0
96.313	2.0
96.328	1.0
96.343	2.0
96.358	2.0
96.373	3.0
96.388	5.0
96.403	3.0
96.417	2.0
96.432	2.0
96.447	4.0
96.462	0.0
96.477	1.0
96.492	6.0
96.507	1.0
96.522	3.0
96.537	8.0
96.552	3.0
96.567	1.0
96.582	5.0
96.597	3.0
96.612	2.0
96.627	0.0
96.642	1.0
96.656	1.0
96.671	9.0
96.686	4.0
96.701	5.0
96.716	2.0
96.731	2.0
96.746	3.0
96.761	1.0
96.776	3.0
96.791	0.0
96.806	5.0
96.821	1.0
96.836	3.0
96.851	0.0
96.866	3.0
96.881	4.0
96.896	2.0
96.911	5.0
96.926	3.0
96.94	3.0
96.955	4.0
96.97	4.0
96.985	2.0
97.0	0.0
97.015	3.0
97.03	2.0
97.045	5.0
97.06	5.0
97.075	2.0
97.09	4.0
97.105	2.0
97.12	4.0
97.135	3.0
97.15	6.0
97.165	4.0
97.18	3.0
97.195	4.0
97.21	3.0
97.225	3.0
97.239	7.0
97.254	3.0
97.269	4.0
97.284	1.0
97.299	2.0
97.314	0.0
97.329	2.0
97.344	4.0
97.359	3.0
97.374	4.0
97.389	3.0
97.404	3.0
97.419	3.0
97.434	2.0
97.449	3.0
97.464	3.0
97.479	3.0
97.494	4.0
97.509	6.0
97.524	2.0
97.538	1.0
97.553	2.0
97.568	4.0
97.583	1.0
97.598	2.0
97.613	2.0
97.628	8.0
97.643	4.0
97.658	5.0
97.673	2.0
97.688	7.0
97.703	2.0
97.718	5.0
97.733	3.0
97.748	4.0
97.763	5.0
97.778	0.0
97.792	6.0
97.807	3.0
97.822	5.0
97.837	2.0
97.852	4.0
97.867	2.0
97.882	5.0
97.897	0.0
97.912	2.0
97.927	2.0
97.942	7.0
97.957	6.0
97.972	2.0
97.987	3.0
98.001	1.0
98.016	2.0
98.031	5.0
98.046	3.0
98.061	1.0
98.076	0.0
98.091	3.0
98.106	2.0
98.121	2.0
98.136	1.0
98.151	3.0
98.166	5.0
98.181	5.0
98.195	2.0
98.21	4.0
98.225	3.0
98.24	2.0
98.255	2.0
98.27	1.0
98.285	3.0
98.3	5.0
98.315	7.0
98.33	3.0
98.345	2.0
98.359	3.0
98.374	2.0
98.389	2.0
98.404	4.0
98.419	6.0
98.434	4.0
98.449	2.0
98.464	3.0
98.479	5.0
98.494	4.0
98.508	4.0
98.523	4.0
98.538	4.0
98.553	2.0
98.568	5.0
98.583	3.0
98.598	2.0
98.613	9.0
98.628	1.0
98.642	5.0
98.657	3.0
98.672	3.0
98.687	2.0
98.702	0.0
98.717	3.0
98.732	1.0
98.747	1.0
98.762	2.0
98.776	2.0
98.791	7.0
98.806	2.0
98.821	3.0
98.836	2.0
98.851	2.0
98.866	1.0
98.881	3.0
98.896	6.0
98.91	3.0
98.925	4.0
98.94	5.0
98.955	6.0
98.97	0.0
98.985	2.0
99.0	6.0
99.015	2.0
99.029	2.0
99.044	3.0
99.059	4.0
99.074	4.0
99.089	3.0
99.104	0.0
99.119	0.0
99.133	3.0
99.148	3.0
99.163	3.0
99.178	2.0
99.193	2.0
99.208	3.0
99.223	2.0
99.238	3.0
99.252	5.0
99.267	3.0
99.282	3.0
99.297	5.0
99.312	2.0
99.327	0.0
99.342	5.0
99.356	3.0
99.371	3.0
99.386	3.0
99.401	3.0
99.416	3.0
99.431	4.0
99.446	2.0
99.461	4.0
99.475	2.0
99.49	2.0
99.505	4.0
99.52	1.0
99.535	3.0
99.55	1.0
99.565	4.0
99.579	1.0
99.594	2.0
99.609	2.0
99.624	5.0
99.639	2.0
99.654	3.0
99.669	2.0
99.683	2.0
99.698	7.0
99.713	0.0
99.728	2.0
99.743	1.0
99.758	6.0
99.772	2.0
99.787	2.0
99.802	1.0
99.817	2.0
99.832	3.0
99.847	2.0
99.862	2.0
99.876	4.0
99.891	6.0
99.906	5.0
99.921	4.0
99.936	3.0
99.951	1.0
99.966	3.0
99.98	2.0
99.995	2.0
100.01	2.0
100.025	2.0
100.04	3.0
100.055	1.0
100.069	2.0
100.084	5.0
100.099	6.0
100.114	5.0
100.129	2.0
100.144	2.0
100.159	6.0
100.173	2.0
100.188	4.0
100.203	7.0
100.218	3.0
100.233	5.0
100.248	3.0
100.262	0.0
100.277	2.0
100.292	5.0
100.307	0.0
100.322	7.0
100.337	3.0
100.351	4.0
100.366	8.0
100.381	4.0
100.396	5.0
100.411	4.0
100.426	0.0
100.441	5.0
100.455	2.0
100.47	3.0
100.485	2.0
100.5	2.0
100.515	0.0
100.53	6.0
100.544	1.0
100.559	5.0
100.574	0.0
100.589	6.0
100.604	7.0
100.619	1.0
100.633	5.0
100.648	2.0
100.663	4.0
100.678	6.0
100.693	2.0
100.708	4.0
100.722	3.0
100.737	2.0
100.752	8.0
100.767	5.0
100.782	3.0
100.796	2.0
100.811	4.0
100.826	2.0
100.841	5.0
100.856	2.0
100.871	4.0
100.885	4.0
100.9	5.0
100.915	2.0
100.93	2.0
100.945	2.0
100.96	5.0
100.974	2.0
100.989	3.0
101.004	4.0
101.019	1.0
101.034	3.0
101.048	5.0
101.063	1.0
101.078	4.0
101.093	4.0
101.108	4.0
101.123	1.0
101.137	6.0
101.152	6.0
101.167	5.0
101.182	1.0
101.197	2.0
101.211	3.0
101.226	2.0
101.241	3.0
101.256	4.0
101.271	3.0
101.285	6.0
101.3	1.0
101.315	2.0
101.33	1.0
101.345	2.0
101.359	2.0
101.374	2.0
101.389	0.0
101.404	0.0
101.419	4.0
101.433	1.0
101.448	1.0
101.463	1.0
101.478	4.0
101.493	1.0
101.507	4.0
101.522	6.0
101.537	3.0
101.552	4.0
101.567	4.0
101.581	4.0
101.596	4.0
101.611	2.0
101.626	2.0
101.64	2.0
101.655	5.0
101.67	6.0
101.685	4.0
101.7	7.0
101.714	1.0
101.729	2.0
101.744	2.0
101.759	3.0
101.773	5.0
101.788	3.0
101.803	5.0
101.818	2.0
101.833	6.0
101.847	2.0
101.862	3.0
101.877	3.0
101.892	3.0
101.906	5.0
101.921	5.0
101.936	3.0
101.951	0.0
101.965	5.0
101.98	1.0
101.995	5.0
102.01	2.0
102.025	1.0
102.039	2.0
102.054	3.0
102.069	4.0
102.084	2.0
102.098	4.0
102.113	4.0
102.128	4.0
102.143	3.0
102.157	3.0
102.172	0.0
102.187	3.0
102.202	2.0
102.216	2.0
102.231	3.0
102.246	2.0
102.261	5.0
102.275	5.0
102.29	0.0
102.305	5.0
102.32	1.0
102.334	6.0
102.349	4.0
102.364	2.0
102.378	3.0
102.393	5.0
102.408	5.0
102.423	4.0
102.437	1.0
102.452	7.0
102.467	5.0
102.482	6.0
102.496	5.0
102.511	4.0
102.526	3.0
102.541	4.0
102.555	8.0
102.57	2.0
102.585	3.0
102.6	4.0
102.614	2.0
102.629	2.0
102.644	4.0
102.659	3.0
102.673	5.0
102.688	2.0
102.703	4.0
102.717	1.0
102.732	3.0
102.747	2.0
102.762	0.0
102.776	3.0
102.791	5.0
102.806	4.0
102.821	5.0
102.835	2.0
102.85	4.0
102.865	9.0
102.88	5.0
102.894	2.0
102.909	3.0
102.924	4.0
102.938	7.0
102.953	2.0
102.968	2.0
102.983	5.0
102.997	2.0
103.012	1.0
103.027	3.0
103.042	6.0
103.056	2.0
103.071	5.0
103.086	3.0
103.101	3.0
103.115	1.0
103.13	6.0
103.145	2.0
103.16	1.0
103.174	1.0
103.189	4.0
103.204	2.0
103.219	3.0
103.233	4.0
103.248	5.0
103.263	1.0
103.278	2.0
103.292	5.0
103.307	4.0
103.322	0.0
103.337	5.0
103.351	3.0
103.366	3.0
103.381	5.0
103.396	2.0
103.41	10.0
103.425	4.0
103.44	1.0
103.455	1.0
103.469	2.0
103.484	2.0
103.499	1.0
103.514	2.0
103.529	1.0
103.543	5.0
103.558	3.0
103.573	4.0
103.588	4.0
103.602	3.0
103.617	4.0
103.632	2.0
103.647	3.0
103.661	4.0
103.676	3.0
103.691	5.0
103.706	2.0
103.721	4.0
103.735	3.0
103.75	4.0
103.765	7.0
103.78	4.0
103.795	3.0
103.809	3.0
103.824	6.0
103.839	3.0
103.854	4.0
103.869	1.0
103.883	6.0
103.898	1.0
103.913	4.0
103.928	5.0
103.943	3.0
103.957	6.0
103.972	2.0
103.987	6.0
104.002	3.0
104.017	4.0
104.031	4.0
104.046	1.0
104.061	3.0
104.076	1.0
104.091	6.0
104.106	4.0
104.12	4.0
104.135	2.0
104.15	1.0
104.165	7.0
104.18	3.0
104.195	5.0
104.209	3.0
104.224	0.0
104.239	6.0
104.254	1.0
104.269	1.0
104.284	2.0
104.299	1.0
104.313	3.0
104.328	1.0
104.343	3.0
104.358	2.0
104.373	3.0
104.388	4.0
104.403	2.0
104.417	6.0
104.432	1.0
104.447	4.0
104.462	1.0
104.477	3.0
104.492	3.0
104.507	2.0
104.522	5.0
104.536	5.0
104.551	0.0
104.566	5.0
104.581	1.0
104.596	4.0
104.611	2.0
104.626	4.0
104.641	3.0
104.656	5.0
104.67	2.0
104.685	3.0
104.7	4.0
104.715	1.0
104.73	1.0
104.745	4.0
104.76	5.0
104.775	2.0
104.79	3.0
104.804	4.0
104.819	0.0
104.834	2.0
104.849	4.0
104.864	2.0
104.879	3.0
104.894	5.0
104.909	0.0
104.924	6.0
104.939	1.0
104.954	4.0
104.968	2.0
104.983	6.0
104.998	3.0
105.013	1.0
105.028	3.0
105.043	1.0
105.058	6.0
105.073	3.0
105.088	4.0
105.103	6.0
105.118	1.0
105.133	1.0
105.147	3.0
105.162	2.0
105.177	2.0
105.192	3.0
105.207	3.0
105.222	4.0
105.237	3.0
105.252	4.0
105.267	3.0
105.282	2.0
105.297	2.0
105.312	5.0
105.327	2.0
105.342	2.0
105.356	3.0
105.371	4.0
105.386	4.0
105.401	2.0
105.416	1.0
105.431	1.0
105.446	4.0
105.461	4.0
105.476	2.0
105.491	1.0
105.506	3.0
105.521	0.0
105.536	5.0
105.551	5.0
105.566	1.0
105.581	5.0
105.595	3.0
105.61	1.0
105.625	4.0
105.64	4.0
105.655	5.0
105.67	1.0
105.685	5.0
105.7	1.0
105.715	3.0
105.73	1.0
105.745	5.0
105.76	1.0
105.775	3.0
105.79	4.0
105.805	2.0
105.82	3.0
105.835	2.0
105.85	4.0
105.864	0.0
105.879	3.0
105.894	4.0
105.909	1.0
105.924	3.0
105.939	4.0
105.954	3.0
105.969	2.0
105.984	5.0
105.999	4.0
106.014	2.0
106.029	2.0
106.044	3.0
106.059	2.0
106.074	3.0
106.089	2.0
106.104	3.0
106.119	1.0
106.134	1.0
106.148	3.0
106.163	7.0
106.178	0.0
106.193	7.0
106.208	3.0
106.223	3.0
106.238	2.0
106.253	4.0
106.268	7.0
106.283	4.0
106.298	2.0
106.313	2.0
106.328	5.0
106.343	2.0
106.358	3.0
106.373	5.0
106.388	3.0
106.403	1.0
106.418	6.0
106.432	3.0
106.447	4.0
106.462	3.0
106.477	1.0
106.492	1.0
106.507	3.0
106.522	6.0
106.537	6.0
106.552	4.0
106.567	2.0
106.582	2.0
106.597	1.0
106.612	6.0
106.627	3.0
106.642	3.0
106.657	3.0
106.672	2.0
106.687	0.0
106.701	2.0
106.716	6.0
106.731	3.0
106.746	1.0
106.761	2.0
106.776	3.0
106.791	1.0
106.806	3.0
106.821	7.0
106.836	3.0
106.851	5.0
106.866	3.0
106.881	1.0
106.896	5.0
106.911	4.0
106.926	1.0
106.941	6.0
106.955	1.0
106.97	6.0
106.985	1.0
107.0	6.0
107.015	2.0
107.03	2.0
107.045	1.0
107.06	2.0
107.075	6.0
107.09	3.0
107.105	3.0
107.12	3.0
107.135	7.0
107.15	2.0
107.165	4.0
107.18	7.0
107.194	1.0
107.209	10.0
107.224	4.0
107.239	8.0
107.254	1.0
107.269	1.0
107.284	1.0
107.299	7.0
107.314	6.0
107.329	9.0
107.344	5.0
107.359	2.0
107.374	4.0
107.389	1.0
107.404	1.0
107.418	3.0
107.433	4.0
107.448	2.0
107.463	2.0
107.478	6.0
107.493	3.0
107.508	2.0
107.523	3.0
107.538	1.0
107.553	2.0
107.568	4.0
107.583	4.0
107.598	5.0
107.613	2.0
107.627	4.0
107.642	5.0
107.657	5.0
107.672	7.0
107.687	2.0
107.702	4.0
107.717	1.0
107.732	4.0
107.747	4.0
107.762	5.0
107.777	4.0
107.792	5.0
107.807	5.0
107.821	1.0
107.836	5.0
107.851	6.0
107.866	2.0
107.881	6.0
107.896	2.0
107.911	3.0
107.926	5.0
107.941	2.0
107.956	3.0
107.971	2.0
107.986	3.0
108.0	2.0
108.015	6.0
108.03	2.0
108.045	3.0
108.06	2.0
108.075	6.0
108.09	9.0
108.105	7.0
108.12	5.0
108.135	5.0
108.15	7.0
108.164	2.0
108.179	2.0
108.194	3.0
108.209	6.0
108.224	5.0
108.239	3.0
108.254	3.0
108.269	3.0
108.284	2.0
108.299	3.0
108.313	3.0
108.328	6.0
108.343	4.0
108.358	3.0
108.373	11.0
108.388	3.0
108.403	8.0
108.418	4.0
108.433	0.0
108.448	4.0
108.462	7.0
108.477	3.0
108.492	5.0
108.507	7.0
108.522	4.0
108.537	2.0
108.552	4.0
108.567	4.0
108.582	1.0
108.597	2.0
108.611	2.0
108.626	4.0
108.641	1.0
108.656	4.0
108.671	2.0
108.686	5.0
108.701	2.0
108.716	3.0
108.731	0.0
108.745	4.0
108.76	4.0
108.775	2.0
108.79	4.0
108.805	3.0
108.82	3.0
108.835	4.0
108.85	2.0
108.865	3.0
108.879	2.0
108.894	4.0
108.909	1.0
108.924	3.0
108.939	4.0
108.954	0.0
108.969	3.0
108.984	1.0
108.999	4.0
109.013	2.0
109.028	7.0
109.043	2.0
109.058	5.0
109.073	3.0
109.088	6.0
109.103	1.0
109.118	3.0
109.133	2.0
109.147	3.0
109.162	2.0
109.177	3.0
109.192	2.0
109.207	0.0
109.222	3.0
109.237	2.0
109.252	4.0
109.267	2.0
109.281	2.0
109.296	3.0
109.311	2.0
109.326	4.0
109.341	4.0
109.356	2.0
109.371	2.0
109.386	4.0
109.4	3.0
109.415	1.0
109.43	5.0
109.445	1.0
109.46	5.0
109.475	4.0
109.49	2.0
109.505	2.0
109.52	5.0
109.534	4.0
109.549	2.0
109.564	5.0
109.579	6.0
109.594	1.0
109.609	4.0
109.624	7.0
109.639	8.0
109.653	1.0
109.668	3.0
109.683	5.0
109.698	5.0
109.713	5.0
109.728	1.0
109.743	1.0
109.758	1.0
109.773	3.0
109.787	2.0
109.802	3.0
109.817	2.0
109.832	2.0
109.847	4.0
109.862	6.0
109.877	1.0
109.892	2.0
109.907	6.0
109.921	5.0
109.936	2.0
109.951	3.0
109.966	5.0
109.981	8.0
109.996	0.0
110.011	1.0
110.026	2.0
110.04	3.0
110.055	5.0
110.07	6.0
110.085	4.0
110.1	3.0
110.115	3.0
110.13	4.0
110.145	1.0
110.16	3.0
110.174	2.0
110.189	2.0
110.204	0.0
110.219	8.0
110.234	2.0
110.249	3.0
110.264	3.0
110.279	4.0
110.294	3.0
110.308	3.0
110.323	7.0
110.338	5.0
110.353	2.0
110.368	1.0
110.383	2.0
110.398	2.0
110.413	2.0
110.428	3.0
110.442	6.0
110.457	1.0
110.472	4.0
110.487	1.0
110.502	4.0
110.517	2.0
110.532	2.0
110.547	3.0
110.561	2.0
110.576	6.0
110.591	3.0
110.606	3.0
110.621	5.0
110.636	3.0
110.651	2.0
110.666	3.0
110.681	2.0
110.695	6.0
110.71	2.0
110.725	6.0
110.74	4.0
110.755	6.0
110.77	5.0
110.785	8.0
110.8	2.0
110.815	5.0
110.829	1.0
110.844	0.0
110.859	4.0
110.874	5.0
110.889	2.0
110.904	2.0
110.919	1.0
110.934	0.0
110.948	5.0
110.963	4.0
110.978	1.0
110.993	3.0
111.008	2.0
111.023	2.0
111.038	2.0
111.053	2.0
111.067	3.0
111.082	3.0
111.097	4.0
111.112	3.0
111.127	3.0
111.142	5.0
111.157	4.0
111.172	9.0
111.186	2.0
111.201	2.0
111.216	4.0
111.231	3.0
111.246	3.0
111.261	3.0
111.276	2.0
111.291	3.0
111.305	3.0
111.32	5.0
111.335	7.0
111.35	2.0
111.365	3.0
111.38	3.0
111.395	3.0
111.41	7.0
111.424	4.0
111.439	4.0
111.454	3.0
111.469	2.0
111.484	4.0
111.499	4.0
111.514	6.0
111.528	6.0
111.543	2.0
111.558	3.0
111.573	6.0
111.588	8.0
111.603	7.0
111.618	8.0
111.633	6.0
111.647	3.0
111.662	7.0
111.677	4.0
111.692	1.0
111.707	4.0
111.722	3.0
111.737	5.0
111.751	4.0
111.766	7.0
111.781	4.0
111.796	6.0
111.811	5.0
111.826	5.0
111.84	4.0
111.855	3.0
111.87	1.0
111.885	5.0
111.9	7.0
111.915	1.0
111.93	2.0
111.944	3.0
111.959	6.0
111.974	0.0
111.989	5.0
112.004	3.0
112.019	2.0
112.033	3.0
112.048	7.0
112.063	2.0
112.078	2.0
112.093	5.0
112.108	3.0
112.123	1.0
112.137	5.0
112.152	5.0
112.167	1.0
112.182	1.0
112.197	1.0
112.212	3.0
112.226	2.0
112.241	3.0
112.256	6.0
112.271	5.0
112.286	1.0
112.301	3.0
112.315	2.0
112.33	2.0
112.345	4.0
112.36	4.0
112.375	1.0
112.389	1.0
112.404	2.0
112.419	2.0
112.434	4.0
112.449	1.0
112.464	2.0
112.478	4.0
112.493	4.0
112.508	3.0
112.523	5.0
112.538	4.0
112.553	3.0
112.567	3.0
112.582	5.0
112.597	2.0
112.612	5.0
112.627	1.0
112.642	3.0
112.656	1.0
112.671	4.0
112.686	3.0
112.701	3.0
112.716	5.0
112.73	4.0
112.745	3.0
112.76	2.0
112.775	3.0
112.79	4.0
112.805	6.0
112.819	5.0
112.834	2.0
112.849	2.0
112.864	2.0
112.879	3.0
112.894	6.0
112.908	2.0
112.923	1.0
112.938	5.0
112.953	2.0
112.968	3.0
112.983	4.0
112.997	5.0
113.012	5.0
113.027	1.0
113.042	1.0
113.057	2.0
113.072	4.0
113.086	4.0
113.101	1.0
113.116	2.0
113.131	0.0
113.146	4.0
113.161	4.0
113.175	6.0
113.19	2.0
113.205	3.0
113.22	5.0
113.235	7.0
113.25	2.0
113.265	1.0
113.279	2.0
113.294	2.0
113.309	2.0
113.324	3.0
113.339	5.0
113.354	5.0
113.368	2.0
113.383	2.0
113.398	4.0
113.413	7.0
113.428	6.0
113.443	3.0
113.458	1.0
113.472	2.0
113.487	4.0
113.502	2.0
113.517	3.0
113.532	4.0
113.547	3.0
113.562	3.0
113.576	2.0
113.591	3.0
113.606	3.0
113.621	5.0
113.636	2.0
113.651	3.0
113.666	4.0
113.681	5.0
113.695	6.0
113.71	0.0
113.725	4.0
113.74	3.0
113.755	2.0
113.77	1.0
113.785	2.0
113.8	5.0
113.814	2.0
113.829	5.0
113.844	1.0
113.859	4.0
113.874	4.0
113.889	2.0
113.904	5.0
113.919	3.0
113.934	2.0
113.949	2.0
113.963	2.0
113.978	3.0
113.993	3.0
114.008	2.0
114.023	3.0
114.038	6.0
114.053	5.0
114.068	2.0
114.083	3.0
114.098	6.0
114.113	3.0
114.127	2.0
114.142	2.0
114.157	2.0
114.172	5.0
114.187	1.0
114.202	3.0
114.217	4.0
114.232	6.0
114.247	6.0
114.262	3.0
114.277	6.0
114.292	7.0
114.307	6.0
114.322	1.0
114.337	2.0
114.351	3.0
114.366	2.0
114.381	5.0
114.396	5.0
114.411	1.0
114.426	5.0
114.441	4.0
114.456	5.0
114.471	5.0
114.486	2.0
114.501	5.0
114.516	3.0
114.531	3.0
114.546	0.0
114.561	2.0
114.576	4.0
114.591	4.0
114.606	3.0
114.621	2.0
114.636	3.0
114.65	4.0
114.665	4.0
114.68	4.0
114.695	2.0
114.71	4.0
114.725	2.0
114.74	3.0
114.755	5.0
114.77	6.0
114.785	4.0
114.8	9.0
114.815	4.0
114.83	6.0
114.845	4.0
114.86	2.0
114.875	2.0
114.89	3.0
114.905	3.0
114.92	7.0
114.935	2.0
114.95	3.0
114.965	2.0
114.98	0.0
114.995	2.0
115.009	3.0
115.024	2.0
115.039	4.0
115.054	2.0
115.069	3.0
115.084	2.0
115.099	5.0
115.114	6.0
115.129	2.0
115.144	5.0
115.159	7.0
115.174	4.0
115.189	3.0
115.204	5.0
115.219	2.0
115.234	7.0
115.249	4.0
115.264	4.0
115.279	6.0
115.294	4.0
115.309	5.0
115.323	3.0
115.338	3.0
115.353	4.0
115.368	3.0
115.383	7.0
115.398	7.0
115.413	2.0
115.428	6.0
115.443	4.0
115.458	2.0
115.473	2.0
115.488	3.0
115.503	3.0
115.518	2.0
115.533	3.0
115.548	2.0
115.562	1.0
115.577	4.0
115.592	3.0
115.607	5.0
115.622	4.0
115.637	1.0
115.652	4.0
115.667	0.0
115.682	2.0
115.697	5.0
115.712	3.0
115.727	8.0
115.741	2.0
115.756	4.0
115.771	2.0
115.786	6.0
115.801	6.0
115.816	3.0
115.831	2.0
115.846	2.0
115.861	6.0
115.875	4.0
115.89	2.0
115.905	7.0
115.92	3.0
115.935	6.0
115.95	2.0
115.965	2.0
115.98	1.0
115.995	4.0
116.009	3.0
116.024	1.0
116.039	5.0
116.054	3.0
116.069	2.0
116.084	1.0
116.099	3.0
116.113	5.0
116.128	3.0
116.143	5.0
116.158	3.0
116.173	4.0
116.188	2.0
116.202	5.0
116.217	7.0
116.232	5.0
116.247	3.0
116.262	3.0
116.277	7.0
116.291	1.0
116.306	3.0
116.321	5.0
116.336	3.0
116.351	2.0
116.366	5.0
116.38	3.0
116.395	3.0
116.41	3.0
116.425	3.0
116.44	5.0
116.454	5.0
116.469	3.0
116.484	4.0
116.499	3.0
116.514	3.0
116.528	2.0
116.543	2.0
116.558	5.0
116.573	4.0
116.588	4.0
116.602	5.0
116.617	6.0
116.632	3.0
116.647	2.0
116.662	2.0
116.676	3.0
116.691	3.0
116.706	3.0
116.721	7.0
116.735	7.0
116.75	4.0
116.765	1.0
116.78	2.0
116.795	0.0
116.809	6.0
116.824	2.0
116.839	1.0
116.854	6.0
116.868	2.0
116.883	6.0
116.898	2.0
116.913	4.0
116.927	4.0
116.942	3.0
116.957	5.0
116.972	0.0
116.986	7.0
117.001	5.0
117.016	4.0
117.031	4.0
117.045	5.0
117.06	1.0
117.075	3.0
117.09	3.0
117.104	3.0
117.119	2.0
117.134	2.0
117.149	6.0
117.163	2.0
117.178	3.0
117.193	5.0
117.208	4.0
117.222	5.0
117.237	5.0
117.252	3.0
117.267	4.0
117.281	4.0
117.296	7.0
117.311	1.0
117.325	3.0
117.34	2.0
117.355	1.0
117.37	4.0
117.384	3.0
117.399	3.0
117.414	4.0
117.429	4.0
117.443	5.0
117.458	4.0
117.473	2.0
117.487	0.0
117.502	4.0
117.517	2.0
117.532	3.0
117.546	5.0
117.561	4.0
117.576	1.0
117.59	5.0
117.605	7.0
117.62	3.0
117.635	3.0
117.649	3.0
117.664	7.0
117.679	2.0
117.693	2.0
117.708	0.0
117.723	5.0
117.738	7.0
117.752	4.0
117.767	2.0
117.782	5.0
117.796	3.0
117.811	8.0
117.826	2.0
117.841	2.0
117.855	4.0
117.87	4.0
117.885	7.0
117.899	4.0
117.914	3.0
117.929	5.0
117.944	5.0
117.958	5.0
117.973	6.0
117.988	6.0
118.002	2.0
118.017	3.0
118.032	3.0
118.047	3.0
118.062	6.0
118.077	3.0
118.092	6.0
118.107	3.0
118.121	2.0
118.136	7.0
118.151	3.0
118.166	7.0
118.181	2.0
118.196	3.0
118.211	5.0
118.225	1.0
118.24	0.0
118.255	1.0
118.27	2.0
118.285	5.0
118.3	5.0
118.315	6.0
118.33	4.0
118.344	4.0
118.359	5.0
118.374	0.0
118.389	4.0
118.404	3.0
118.419	5.0
118.434	7.0
118.449	4.0
118.463	0.0
118.478	4.0
118.493	2.0
118.508	6.0
118.523	3.0
118.538	1.0
118.553	2.0
118.567	3.0
118.582	4.0
118.597	4.0
118.612	1.0
118.627	5.0
118.642	6.0
118.657	2.0
118.672	7.0
118.686	5.0
118.701	3.0
118.716	4.0
118.731	2.0
118.746	6.0
118.761	2.0
118.776	0.0
118.791	5.0
118.805	3.0
118.82	9.0
118.835	5.0
118.85	3.0
118.865	1.0
118.88	4.0
118.895	4.0
118.909	3.0
118.924	4.0
118.939	4.0
118.954	5.0
118.969	3.0
118.984	1.0
118.999	6.0
119.014	2.0
119.028	6.0
119.043	5.0
119.058	4.0
119.073	1.0
119.088	4.0
119.103	2.0
119.118	5.0
119.133	7.0
119.147	5.0
119.162	7.0
119.177	7.0
119.192	6.0
119.207	4.0
119.222	7.0
119.237	4.0
119.251	1.0
119.266	0.0
119.281	3.0
119.296	8.0
119.311	4.0
119.326	3.0
119.341	2.0
119.356	6.0
119.37	5.0
119.385	5.0
119.4	4.0
119.415	5.0
119.43	1.0
119.445	4.0
119.46	3.0
119.475	4.0
119.489	1.0
119.504	3.0
119.519	5.0
119.534	8.0
119.549	5.0
119.564	4.0
119.579	7.0
119.593	2.0
119.608	6.0
119.623	0.0
119.638	3.0
119.653	1.0
119.668	2.0
119.683	6.0
119.698	3.0
119.712	6.0
119.727	2.0
119.742	6.0
119.757	3.0
119.772	2.0
119.787	2.0
119.802	1.0
119.817	3.0
119.831	2.0
119.846	4.0
119.861	4.0
119.876	4.0
119.891	4.0
119.906	5.0
119.921	5.0
119.935	3.0
119.95	2.0
119.965	4.0
119.98	7.0
119.995	2.0
120.01	2.0
120.025	1.0
120.04	0.0
120.054	2.0
120.069	0.0
120.084	2.0
120.099	1.0
120.114	0.0
120.129	1.0
120.144	0.0
120.159	2.0
120.173	3.0
120.188	1.0
120.203	1.0
120.218	0.0
120.233	0.0
120.248	1.0
120.263	0.0
120.277	1.0
120.292	1.0
120.307	1.0
120.322	0.0
120.337	0.0
120.352	0.0
120.367	0.0
120.382	1.0
120.396	0.0
120.411	0.0
120.426	0.0
120.441	0.0
120.456	0.0
120.471	0.0
120.486	0.0
120.501	0.0
120.515	0.0
120.53	0.0
120.545	0.0
120.56	1.0
120.575	0.0
120.59	0.0
120.605	0.0
120.619	0.0
120.634	0.0
120.649	0.0
120.664	0.0
120.679	0.0
120.694	0.0
120.709	0.0
120.724	0.0
120.738	0.0
120.753	0.0
120.768	1.0
120.783	0.0
120.798	0.0
120.813	0.0
120.828	0.0
120.843	0.0
120.857	0.0
120.872	1.0
120.887	1.0
120.902	0.0
120.917	0.0
120.932	1.0
120.947	0.0
120.961	0.0
120.976	0.0
