-1.217	0.0
-1.202	0.0
-1.187	0.0
-1.172	0.0
-1.157	0.0
-1.142	0.0
-1.128	0.0
-1.113	0.0
-1.098	0.0
-1.083	1.0
-1.068	0.0
-1.054	0.0
-1.039	0.0
-1.024	0.0
-1.009	0.0
-0.994	0.0
-0.979	0.0
-0.965	0.0
-0.95	0.0
-0.935	0.0
-0.92	0.0
-0.905	0.0
-0.891	0.0
-0.876	0.0
-0.861	0.0
-0.846	0.0
-0.831	0.0
-0.816	0.0
-0.802	0.0
-0.787	0.0
-0.772	0.0
-0.757	0.0
-0.742	0.0
-0.728	0.0
-0.713	0.0
-0.698	0.0
-0.683	0.0
-0.668	1.0
-0.653	0.0
-0.639	0.0
-0.624	0.0
-0.609	0.0
-0.594	0.0
-0.579	0.0
-0.565	0.0
-0.55	0.0
-0.535	0.0
-0.52	0.0
-0.505	0.0
-0.49	0.0
-0.476	0.0
-0.461	0.0
-0.446	0.0
-0.431	0.0
-0.416	0.0
-0.401	0.0
-0.387	0.0
-0.372	0.0
-0.357	0.0
-0.342	0.0
-0.327	0.0
-0.313	0.0
-0.298	0.0
-0.283	0.0
-0.268	0.0
-0.253	0.0
-0.238	0.0
-0.224	0.0
-0.209	0.0
-0.194	0.0
-0.179	0.0
-0.164	0.0
-0.15	1.0
-0.135	0.0
-0.12	0.0
-0.105	0.0
-0.09	0.0
-0.075	0.0
-0.061	0.0
-0.046	0.0
-0.031	0.0
-0.016	0.0
-0.001	0.0
0.013	0.0
0.028	0.0
0.043	0.0
0.058	0.0
0.073	0.0
0.088	0.0
0.102	0.0
0.117	0.0
0.132	0.0
0.147	0.0
0.162	0.0
0.176	0.0
0.191	0.0
0.206	0.0
0.221	0.0
0.236	0.0
0.251	0.0
0.265	0.0
0.28	0.0
0.295	0.0
0.31	0.0
0.325	0.0
0.339	0.0
0.354	0.0
0.369	0.0
0.384	0.0
0.399	0.0
0.414	0.0
0.428	0.0
0.443	0.0
0.458	0.0
0.473	0.0
0.488	0.0
0.502	0.0
0.517	0.0
0.532	0.0
0.547	0.0
0.562	0.0
0.577	0.0
0.591	0.0
0.606	0.0
0.621	0.0
0.636	0.0
0.651	0.0
0.665	0.0
0.68	0.0
0.695	0.0
0.71	0.0
0.725	0.0
0.74	0.0
0.754	0.0
0.769	0.0
0.784	0.0
0.799	0.0
0.814	0.0
0.828	0.0
0.843	0.0
0.858	0.0
0.873	0.0
0.888	0.0
0.903	0.0
0.917	0.0
0.932	0.0
0.947	0.0
0.962	0.0
0.977	0.0
0.991	0.0
1.006	0.0
1.021	0.0
1.036	0.0
1.051	0.0
1.065	0.0
1.08	0.0
1.095	0.0
1.11	0.0
1.125	0.0
1.14	0.0
1.154	0.0
1.169	0.0
1.184	0.0
1.199	0.0
1.214	0.0
1.228	0.0
1.243	0.0
1.258	0.0
1.273	0.0
1.288	0.0
1.302	0.0
1.317	0.0
1.332	0.0
1.347	0.0
1.362	0.0
1.376	0.0
1.391	0.0
1.406	0.0
1.421	0.0
1.436	0.0
1.45	0.0
1.465	0.0
1.48	0.0
1.495	0.0
1.51	0.0
1.524	0.0
1.539	0.0
1.554	0.0
1.569	0.0
1.584	0.0
1.598	0.0
1.613	0.0
1.628	0.0
1.643	1.0
1.658	0.0
1.672	0.0
1.687	0.0
1.702	0.0
1.717	0.0
1.732	0.0
1.746	1.0
1.761	1.0
1.776	0.0
1.791	0.0
1.806	1.0
1.82	0.0
1.835	0.0
1.85	0.0
1.865	0.0
1.88	0.0
1.894	0.0
1.909	0.0
1.924	0.0
1.939	0.0
1.954	1.0
1.968	0.0
1.983	0.0
1.998	1.0
2.013	0.0
2.028	1.0
2.042	1.0
2.057	1.0
2.072	0.0
2.087	1.0
2.101	0.0
2.116	0.0
2.131	0.0
2.146	0.0
2.161	0.0
2.175	0.0
2.19	0.0
2.205	0.0
2.22	0.0
2.235	0.0
2.249	0.0
2.264	0.0
2.279	1.0
2.294	0.0
2.308	0.0
2.323	0.0
2.338	3.0
2.353	1.0
2.368	2.0
2.382	3.0
2.397	1.0
2.412	2.0
2.427	1.0
2.442	0.0
2.456	0.0
2.471	0.0
2.486	1.0
2.501	3.0
2.515	2.0
2.53	2.0
2.545	0.0
2.56	2.0
2.575	1.0
2.589	2.0
2.604	0.0
2.619	5.0
2.634	4.0
2.649	2.0
2.663	2.0
2.678	3.0
2.693	2.0
2.708	4.0
2.722	2.0
2.737	2.0
2.752	1.0
2.767	3.0
2.782	2.0
2.796	4.0
2.811	3.0
2.826	2.0
2.841	1.0
2.856	0.0
2.87	6.0
2.885	2.0
2.9	2.0
2.915	4.0
2.93	3.0
2.944	3.0
2.959	0.0
2.974	5.0
2.989	6.0
3.004	3.0
3.018	4.0
3.033	5.0
3.048	3.0
3.063	1.0
3.078	6.0
3.092	5.0
3.107	6.0
3.122	5.0
3.137	3.0
3.152	7.0
3.166	6.0
3.181	5.0
3.196	5.0
3.211	6.0
3.226	6.0
3.24	8.0
3.255	5.0
3.27	3.0
3.285	1.0
3.3	6.0
3.315	3.0
3.329	0.0
3.344	8.0
3.359	4.0
3.374	4.0
3.389	10.0
3.403	4.0
3.418	1.0
3.433	2.0
3.448	7.0
3.463	8.0
3.478	5.0
3.492	3.0
3.507	6.0
3.522	4.0
3.537	4.0
3.552	4.0
3.567	2.0
3.581	5.0
3.596	8.0
3.611	1.0
3.626	7.0
3.641	8.0
3.656	5.0
3.671	5.0
3.685	6.0
3.7	4.0
3.715	2.0
3.73	4.0
3.745	7.0
3.76	8.0
3.775	9.0
3.789	5.0
3.804	11.0
3.819	7.0
3.834	2.0
3.849	3.0
3.864	2.0
3.879	8.0
3.894	2.0
3.908	8.0
3.923	4.0
3.938	7.0
3.953	5.0
3.968	8.0
3.983	4.0
3.998	8.0
4.013	5.0
4.027	3.0
4.042	3.0
4.057	6.0
4.072	7.0
4.087	7.0
4.102	4.0
4.117	2.0
4.132	5.0
4.147	12.0
4.162	4.0
4.176	2.0
4.191	8.0
4.206	4.0
4.221	8.0
4.236	7.0
4.251	6.0
4.266	5.0
4.281	3.0
4.296	8.0
4.311	3.0
4.326	5.0
4.341	6.0
4.356	6.0
4.37	8.0
4.385	3.0
4.4	8.0
4.415	9.0
4.43	4.0
4.445	6.0
4.46	3.0
4.475	4.0
4.49	11.0
4.505	5.0
4.52	9.0
4.535	6.0
4.55	7.0
4.565	13.0
4.58	8.0
4.595	5.0
4.61	4.0
4.625	9.0
4.639	6.0
4.654	6.0
4.669	4.0
4.684	10.0
4.699	9.0
4.714	7.0
4.729	7.0
4.744	11.0
4.759	5.0
4.774	7.0
4.789	3.0
4.804	10.0
4.819	8.0
4.834	8.0
4.849	5.0
4.864	8.0
4.879	4.0
4.894	4.0
4.909	15.0
4.924	13.0
4.939	8.0
4.954	5.0
4.969	9.0
4.984	8.0
4.999	7.0
5.014	4.0
5.029	8.0
5.044	5.0
5.059	6.0
5.074	6.0
5.089	14.0
5.104	8.0
5.119	6.0
5.134	16.0
5.149	6.0
5.164	5.0
5.179	9.0
5.194	13.0
5.209	13.0
5.224	6.0
5.239	7.0
5.254	9.0
5.269	9.0
5.284	7.0
5.299	6.0
5.314	6.0
5.329	13.0
5.344	9.0
5.359	5.0
5.374	10.0
5.389	7.0
5.404	6.0
5.419	8.0
5.434	6.0
5.449	11.0
5.464	7.0
5.479	6.0
5.494	9.0
5.509	9.0
5.524	8.0
5.539	12.0
5.554	9.0
5.569	4.0
5.584	14.0
5.599	8.0
5.614	6.0
5.629	6.0
5.644	9.0
5.659	14.0
5.674	9.0
5.689	9.0
5.704	13.0
5.719	6.0
5.734	9.0
5.749	4.0
5.764	5.0
5.779	13.0
5.794	9.0
5.809	5.0
5.824	13.0
5.839	7.0
5.854	10.0
5.869	6.0
5.884	13.0
5.899	7.0
5.914	8.0
5.929	5.0
5.944	9.0
5.959	9.0
5.974	11.0
5.989	4.0
6.004	6.0
6.019	7.0
6.034	4.0
6.049	10.0
6.064	11.0
6.079	9.0
6.094	3.0
6.109	10.0
6.124	8.0
6.139	5.0
6.154	11.0
6.169	8.0
6.184	11.0
6.199	6.0
6.214	9.0
6.229	7.0
6.244	11.0
6.259	4.0
6.274	8.0
6.289	11.0
6.304	10.0
6.319	11.0
6.334	3.0
6.349	9.0
6.364	19.0
6.379	7.0
6.394	10.0
6.409	5.0
6.424	10.0
6.439	11.0
6.454	9.0
6.469	15.0
6.484	7.0
6.499	7.0
6.514	10.0
6.529	9.0
6.544	7.0
6.559	11.0
6.574	6.0
6.589	8.0
6.604	10.0
6.619	6.0
6.634	8.0
6.649	8.0
6.664	7.0
6.679	11.0
6.694	11.0
6.709	12.0
6.724	11.0
6.739	8.0
6.754	7.0
6.769	11.0
6.784	7.0
6.799	8.0
6.814	10.0
6.829	5.0
6.844	7.0
6.859	14.0
6.873	7.0
6.888	11.0
6.903	10.0
6.918	11.0
6.933	10.0
6.948	13.0
6.963	13.0
6.978	7.0
6.993	13.0
7.008	5.0
7.023	4.0
7.038	16.0
7.053	10.0
7.068	5.0
7.083	8.0
7.098	11.0
7.113	8.0
7.128	9.0
7.143	11.0
7.157	11.0
7.172	9.0
7.187	16.0
7.202	7.0
7.217	6.0
7.232	9.0
7.247	6.0
7.262	7.0
7.277	2.0
7.292	6.0
7.307	11.0
7.322	8.0
7.336	9.0
7.351	9.0
7.366	13.0
7.381	8.0
7.396	8.0
7.411	10.0
7.426	12.0
7.441	11.0
7.456	9.0
7.471	13.0
7.485	6.0
7.5	17.0
7.515	9.0
7.53	12.0
7.545	10.0
7.56	8.0
7.575	7.0
7.59	9.0
7.604	11.0
7.619	11.0
7.634	9.0
7.649	8.0
7.664	6.0
7.679	10.0
7.693	14.0
7.708	3.0
7.723	14.0
7.738	19.0
7.753	6.0
7.768	10.0
7.783	4.0
7.797	7.0
7.812	10.0
7.827	8.0
7.842	10.0
7.857	5.0
7.871	11.0
7.886	10.0
7.901	10.0
7.916	13.0
7.931	7.0
7.945	15.0
7.96	12.0
7.975	4.0
7.99	5.0
8.005	9.0
8.019	7.0
8.034	10.0
8.049	10.0
8.064	11.0
8.078	9.0
8.093	8.0
8.108	11.0
8.123	8.0
8.137	9.0
8.152	5.0
8.167	7.0
8.182	4.0
8.196	6.0
8.211	9.0
8.226	10.0
8.241	7.0
8.255	16.0
8.27	5.0
8.285	6.0
8.3	9.0
8.314	8.0
8.329	11.0
8.344	6.0
8.358	12.0
8.373	6.0
8.388	6.0
8.403	3.0
8.417	11.0
8.432	9.0
8.447	5.0
8.461	9.0
8.476	5.0
8.491	8.0
8.505	5.0
8.52	4.0
8.535	5.0
8.55	7.0
8.564	10.0
8.579	9.0
8.594	10.0
8.608	13.0
8.623	9.0
8.638	4.0
8.652	13.0
8.667	9.0
8.682	7.0
8.696	9.0
8.711	11.0
8.726	7.0
8.74	8.0
8.755	9.0
8.77	9.0
8.784	7.0
8.799	7.0
8.814	5.0
8.828	9.0
8.843	8.0
8.858	9.0
8.872	12.0
8.887	8.0
8.902	7.0
8.916	6.0
8.931	7.0
8.946	9.0
8.96	9.0
8.975	9.0
8.99	13.0
9.004	5.0
9.019	8.0
9.034	5.0
9.048	9.0
9.063	13.0
9.077	13.0
9.092	12.0
9.107	12.0
9.121	3.0
9.136	11.0
9.151	8.0
9.165	8.0
9.18	7.0
9.195	6.0
9.209	8.0
9.224	7.0
9.239	8.0
9.253	11.0
9.268	10.0
9.283	5.0
9.297	5.0
9.312	10.0
9.327	8.0
9.341	8.0
9.356	8.0
9.371	8.0
9.385	9.0
9.4	9.0
9.415	11.0
9.429	4.0
9.444	12.0
9.458	7.0
9.473	14.0
9.488	7.0
9.502	3.0
9.517	7.0
9.532	7.0
9.546	11.0
9.561	5.0
9.576	22.0
9.59	5.0
9.605	11.0
9.62	13.0
9.635	11.0
9.649	8.0
9.664	12.0
9.679	9.0
9.693	8.0
9.708	10.0
9.723	9.0
9.737	4.0
9.752	13.0
9.767	4.0
9.781	14.0
9.796	7.0
9.811	10.0
9.825	7.0
9.84	7.0
9.855	4.0
9.87	9.0
9.884	12.0
9.899	6.0
9.914	12.0
9.928	11.0
9.943	8.0
9.958	11.0
9.973	9.0
9.987	6.0
10.002	8.0
10.017	9.0
10.031	5.0
10.046	14.0
10.061	4.0
10.076	3.0
10.09	7.0
10.105	8.0
10.12	11.0
10.135	9.0
10.149	9.0
10.164	8.0
10.179	5.0
10.194	6.0
10.208	14.0
10.223	4.0
10.238	11.0
10.253	6.0
10.267	10.0
10.282	14.0
10.297	8.0
10.312	14.0
10.326	10.0
10.341	2.0
10.356	9.0
10.371	7.0
10.386	12.0
10.4	14.0
10.415	8.0
10.43	13.0
10.445	7.0
10.46	9.0
10.474	8.0
10.489	9.0
10.504	7.0
10.519	4.0
10.533	15.0
10.548	9.0
10.563	13.0
10.578	4.0
10.593	10.0
10.608	7.0
10.622	3.0
10.637	10.0
10.652	6.0
10.667	10.0
10.682	14.0
10.696	8.0
10.711	6.0
10.726	9.0
10.741	7.0
10.756	3.0
10.771	10.0
10.785	8.0
10.8	9.0
10.815	8.0
10.83	10.0
10.845	10.0
10.86	8.0
10.874	8.0
10.889	7.0
10.904	4.0
10.919	7.0
10.934	3.0
10.949	9.0
10.963	7.0
10.978	9.0
10.993	10.0
11.008	8.0
11.023	7.0
11.038	10.0
11.053	18.0
11.067	13.0
11.082	11.0
11.097	7.0
11.112	10.0
11.127	11.0
11.142	8.0
11.157	8.0
11.172	8.0
11.186	6.0
11.201	6.0
11.216	5.0
11.231	7.0
11.246	7.0
11.261	10.0
11.276	5.0
11.291	5.0
11.305	6.0
11.32	7.0
11.335	7.0
11.35	9.0
11.365	9.0
11.38	11.0
11.395	3.0
11.41	4.0
11.424	9.0
11.439	8.0
11.454	5.0
11.469	10.0
11.484	8.0
11.499	7.0
11.514	5.0
11.529	6.0
11.544	3.0
11.558	7.0
11.573	5.0
11.588	9.0
11.603	7.0
11.618	9.0
11.633	12.0
11.648	9.0
11.663	8.0
11.678	9.0
11.693	7.0
11.707	11.0
11.722	8.0
11.737	5.0
11.752	9.0
11.767	13.0
11.782	4.0
11.797	5.0
11.812	7.0
11.827	18.0
11.842	6.0
11.856	5.0
11.871	10.0
11.886	15.0
11.901	8.0
11.916	13.0
11.931	9.0
11.946	10.0
11.961	8.0
11.976	13.0
11.991	7.0
12.006	6.0
12.02	11.0
12.035	9.0
12.05	11.0
12.065	6.0
12.08	5.0
12.095	8.0
12.11	11.0
12.125	7.0
12.14	9.0
12.155	13.0
12.17	13.0
12.184	11.0
12.199	12.0
12.214	10.0
12.229	13.0
12.244	12.0
12.259	15.0
12.274	19.0
12.289	7.0
12.304	12.0
12.319	12.0
12.334	4.0
12.348	7.0
12.363	10.0
12.378	20.0
12.393	19.0
12.408	17.0
12.423	7.0
12.438	8.0
12.453	13.0
12.468	8.0
12.483	13.0
12.498	16.0
12.513	13.0
12.527	13.0
12.542	13.0
12.557	16.0
12.572	10.0
12.587	12.0
12.602	12.0
12.617	21.0
12.632	16.0
12.647	15.0
12.662	15.0
12.677	20.0
12.692	13.0
12.707	7.0
12.721	11.0
12.736	11.0
12.751	20.0
12.766	9.0
12.781	19.0
12.796	19.0
12.811	11.0
12.826	14.0
12.841	13.0
12.856	20.0
12.871	11.0
12.886	14.0
12.9	18.0
12.915	17.0
12.93	15.0
12.945	13.0
12.96	17.0
12.975	12.0
12.99	20.0
13.005	16.0
13.02	19.0
13.035	17.0
13.05	17.0
13.065	19.0
13.08	18.0
13.094	16.0
13.109	25.0
13.124	14.0
13.139	21.0
13.154	12.0
13.169	16.0
13.184	16.0
13.199	11.0
13.214	20.0
13.229	17.0
13.244	19.0
13.259	13.0
13.274	16.0
13.288	21.0
13.303	26.0
13.318	12.0
13.333	19.0
13.348	18.0
13.363	35.0
13.378	36.0
13.393	31.0
13.408	25.0
13.423	26.0
13.438	37.0
13.453	32.0
13.468	32.0
13.482	40.0
13.497	42.0
13.512	34.0
13.527	38.0
13.542	42.0
13.557	39.0
13.572	49.0
13.587	46.0
13.602	53.0
13.617	72.0
13.632	60.0
13.647	65.0
13.662	77.0
13.677	69.0
13.691	89.0
13.706	79.0
13.721	83.0
13.736	116.0
13.751	100.0
13.766	92.0
13.781	115.0
13.796	115.0
13.811	165.0
13.826	135.0
13.841	124.0
13.856	135.0
13.871	105.0
13.885	123.0
13.9	100.0
13.915	76.0
13.93	76.0
13.945	45.0
13.96	54.0
13.975	36.0
13.99	51.0
14.005	38.0
14.02	30.0
14.035	22.0
14.05	25.0
14.065	22.0
14.08	18.0
14.094	20.0
14.109	31.0
14.124	20.0
14.139	28.0
14.154	17.0
14.169	26.0
14.184	25.0
14.199	22.0
14.214	18.0
14.229	19.0
14.244	17.0
14.259	19.0
14.274	16.0
14.288	19.0
14.303	20.0
14.318	20.0
14.333	24.0
14.348	16.0
14.363	19.0
14.378	21.0
14.393	18.0
14.408	18.0
14.423	16.0
14.438	17.0
14.453	26.0
14.468	18.0
14.482	25.0
14.497	18.0
14.512	27.0
14.527	16.0
14.542	15.0
14.557	19.0
14.572	15.0
14.587	15.0
14.602	18.0
14.617	24.0
14.632	16.0
14.647	20.0
14.661	14.0
14.676	27.0
14.691	11.0
14.706	17.0
14.721	17.0
14.736	16.0
14.751	17.0
14.766	9.0
14.781	11.0
14.796	13.0
14.811	20.0
14.826	7.0
14.84	16.0
14.855	14.0
14.87	22.0
14.885	18.0
14.9	18.0
14.915	22.0
14.93	18.0
14.945	15.0
14.96	18.0
14.975	10.0
14.989	10.0
15.004	14.0
15.019	17.0
15.034	20.0
15.049	16.0
15.064	21.0
15.079	17.0
15.094	12.0
15.109	17.0
15.124	14.0
15.138	13.0
15.153	15.0
15.168	22.0
15.183	19.0
15.198	12.0
15.213	11.0
15.228	13.0
15.243	14.0
15.258	14.0
15.272	12.0
15.287	17.0
15.302	16.0
15.317	13.0
15.332	17.0
15.347	10.0
15.362	14.0
15.377	14.0
15.391	19.0
15.406	8.0
15.421	18.0
15.436	13.0
15.451	19.0
15.466	14.0
15.481	15.0
15.496	16.0
15.51	12.0
15.525	10.0
15.54	20.0
15.555	16.0
15.57	14.0
15.585	13.0
15.6	17.0
15.614	15.0
15.629	16.0
15.644	11.0
15.659	15.0
15.674	12.0
15.689	18.0
15.704	11.0
15.718	11.0
15.733	21.0
15.748	18.0
15.763	11.0
15.778	19.0
15.793	17.0
15.808	11.0
15.822	20.0
15.837	13.0
15.852	12.0
15.867	17.0
15.882	12.0
15.897	24.0
15.911	15.0
15.926	13.0
15.941	16.0
15.956	8.0
15.971	24.0
15.986	17.0
16.0	13.0
16.015	17.0
16.03	17.0
16.045	11.0
16.06	20.0
16.074	14.0
16.089	8.0
16.104	13.0
16.119	17.0
16.134	18.0
16.149	8.0
16.163	11.0
16.178	15.0
16.193	8.0
16.208	12.0
16.223	12.0
16.237	12.0
16.252	11.0
16.267	16.0
16.282	11.0
16.297	11.0
16.311	10.0
16.326	8.0
16.341	11.0
16.356	9.0
16.37	16.0
16.385	21.0
16.4	9.0
16.415	15.0
16.43	9.0
16.444	13.0
16.459	12.0
16.474	15.0
16.489	12.0
16.504	21.0
16.518	19.0
16.533	10.0
16.548	24.0
16.563	18.0
16.577	13.0
16.592	13.0
16.607	18.0
16.622	16.0
16.637	18.0
16.651	30.0
16.666	17.0
16.681	25.0
16.696	20.0
16.71	28.0
16.725	33.0
16.74	28.0
16.755	35.0
16.77	28.0
16.784	39.0
16.799	41.0
16.814	52.0
16.829	45.0
16.843	40.0
16.858	49.0
16.873	35.0
16.888	71.0
16.902	61.0
16.917	73.0
16.932	71.0
16.947	86.0
16.961	89.0
16.976	79.0
16.991	67.0
17.006	73.0
17.021	51.0
17.035	51.0
17.05	62.0
17.065	40.0
17.08	49.0
17.094	41.0
17.109	36.0
17.124	22.0
17.139	25.0
17.153	22.0
17.168	17.0
17.183	22.0
17.198	15.0
17.212	21.0
17.227	19.0
17.242	11.0
17.257	17.0
17.271	11.0
17.286	16.0
17.301	17.0
17.316	16.0
17.33	11.0
17.345	9.0
17.36	13.0
17.375	19.0
17.39	13.0
17.404	9.0
17.419	11.0
17.434	13.0
17.449	12.0
17.463	11.0
17.478	21.0
17.493	16.0
17.508	13.0
17.522	12.0
17.537	5.0
17.552	14.0
17.567	13.0
17.581	11.0
17.596	11.0
17.611	17.0
17.626	20.0
17.641	12.0
17.655	16.0
17.67	11.0
17.685	10.0
17.7	11.0
17.714	13.0
17.729	10.0
17.744	12.0
17.759	6.0
17.773	15.0
17.788	17.0
17.803	13.0
17.818	12.0
17.833	17.0
17.847	16.0
17.862	10.0
17.877	10.0
17.892	8.0
17.906	17.0
17.921	13.0
17.936	12.0
17.951	14.0
17.966	11.0
17.98	10.0
17.995	12.0
18.01	10.0
18.025	18.0
18.04	14.0
18.054	10.0
18.069	11.0
18.084	12.0
18.099	9.0
18.114	14.0
18.128	10.0
18.143	5.0
18.158	14.0
18.173	9.0
18.188	10.0
18.202	15.0
18.217	15.0
18.232	6.0
18.247	13.0
18.262	8.0
18.276	8.0
18.291	13.0
18.306	10.0
18.321	14.0
18.336	10.0
18.35	12.0
18.365	15.0
18.38	7.0
18.395	10.0
18.41	10.0
18.424	13.0
18.439	17.0
18.454	9.0
18.469	15.0
18.484	10.0
18.498	12.0
18.513	10.0
18.528	22.0
18.543	14.0
18.558	10.0
18.573	14.0
18.587	11.0
18.602	15.0
18.617	6.0
18.632	21.0
18.647	16.0
18.661	12.0
18.676	17.0
18.691	10.0
18.706	13.0
18.721	6.0
18.736	10.0
18.75	16.0
18.765	10.0
18.78	9.0
18.795	10.0
18.81	16.0
18.825	18.0
18.839	14.0
18.854	15.0
18.869	13.0
18.884	9.0
18.899	12.0
18.913	16.0
18.928	9.0
18.943	10.0
18.958	13.0
18.973	18.0
18.988	11.0
19.002	5.0
19.017	10.0
19.032	11.0
19.047	9.0
19.062	13.0
19.077	18.0
19.091	12.0
19.106	14.0
19.121	17.0
19.136	13.0
19.151	17.0
19.165	13.0
19.18	13.0
19.195	9.0
19.21	15.0
19.225	19.0
19.24	17.0
19.254	11.0
19.269	15.0
19.284	11.0
19.299	13.0
19.314	13.0
19.329	13.0
19.343	15.0
19.358	18.0
19.373	17.0
19.388	23.0
19.403	22.0
19.417	18.0
19.432	27.0
19.447	20.0
19.462	26.0
19.477	30.0
19.492	30.0
19.506	21.0
19.521	31.0
19.536	31.0
19.551	43.0
19.566	43.0
19.58	38.0
19.595	33.0
19.61	43.0
19.625	44.0
19.64	31.0
19.655	32.0
19.669	30.0
19.684	41.0
19.699	33.0
19.714	25.0
19.729	28.0
19.743	18.0
19.758	22.0
19.773	14.0
19.788	18.0
19.803	16.0
19.817	18.0
19.832	11.0
19.847	14.0
19.862	9.0
19.877	10.0
19.891	11.0
19.906	18.0
19.921	15.0
19.936	12.0
19.951	22.0
19.965	9.0
19.98	16.0
19.995	7.0
20.01	13.0
20.025	12.0
20.039	9.0
20.054	10.0
20.069	15.0
20.084	14.0
20.099	15.0
20.113	7.0
20.128	13.0
20.143	6.0
20.158	8.0
20.173	12.0
20.187	7.0
20.202	11.0
20.217	12.0
20.232	14.0
20.246	8.0
20.261	12.0
20.276	8.0
20.291	15.0
20.306	14.0
20.32	13.0
20.335	9.0
20.35	16.0
20.365	7.0
20.38	8.0
20.394	5.0
20.409	10.0
20.424	4.0
20.439	9.0
20.453	7.0
20.468	12.0
20.483	15.0
20.498	17.0
20.513	13.0
20.527	11.0
20.542	16.0
20.557	13.0
20.572	9.0
20.586	10.0
20.601	12.0
20.616	10.0
20.631	14.0
20.646	5.0
20.66	12.0
20.675	11.0
20.69	10.0
20.705	18.0
20.719	18.0
20.734	16.0
20.749	8.0
20.764	8.0
20.779	9.0
20.793	6.0
20.808	12.0
20.823	16.0
20.838	14.0
20.853	9.0
20.867	13.0
20.882	13.0
20.897	9.0
20.912	12.0
20.926	9.0
20.941	8.0
20.956	9.0
20.971	9.0
20.986	11.0
21.0	14.0
21.015	14.0
21.03	18.0
21.045	19.0
21.06	12.0
21.074	9.0
21.089	11.0
21.104	9.0
21.119	7.0
21.134	11.0
21.148	6.0
21.163	14.0
21.178	9.0
21.193	11.0
21.208	17.0
21.222	9.0
21.237	16.0
21.252	10.0
21.267	14.0
21.282	12.0
21.296	11.0
21.311	7.0
21.326	14.0
21.341	13.0
21.356	9.0
21.37	10.0
21.385	12.0
21.4	10.0
21.415	16.0
21.43	13.0
21.444	15.0
21.459	16.0
21.474	9.0
21.489	19.0
21.504	12.0
21.519	15.0
21.533	8.0
21.548	13.0
21.563	17.0
21.578	15.0
21.593	14.0
21.608	19.0
21.622	10.0
21.637	19.0
21.652	14.0
21.667	22.0
21.682	18.0
21.697	18.0
21.712	22.0
21.726	31.0
21.741	35.0
21.756	22.0
21.771	46.0
21.786	24.0
21.801	37.0
21.816	41.0
21.83	40.0
21.845	50.0
21.86	56.0
21.875	64.0
21.89	79.0
21.905	63.0
21.92	76.0
21.935	69.0
21.949	76.0
21.964	84.0
21.979	77.0
21.994	74.0
22.009	69.0
22.024	77.0
22.039	59.0
22.054	58.0
22.069	50.0
22.083	43.0
22.098	33.0
22.113	44.0
22.128	38.0
22.143	19.0
22.158	20.0
22.173	22.0
22.188	27.0
22.203	20.0
22.218	9.0
22.233	15.0
22.248	11.0
22.262	11.0
22.277	18.0
22.292	13.0
22.307	17.0
22.322	11.0
22.337	12.0
22.352	16.0
22.367	12.0
22.382	20.0
22.397	9.0
22.412	11.0
22.427	9.0
22.442	14.0
22.457	9.0
22.472	16.0
22.487	16.0
22.502	12.0
22.516	11.0
22.531	16.0
22.546	12.0
22.561	11.0
22.576	10.0
22.591	13.0
22.606	7.0
22.621	10.0
22.636	18.0
22.651	5.0
22.666	16.0
22.681	10.0
22.696	10.0
22.711	7.0
22.726	11.0
22.741	10.0
22.756	8.0
22.771	10.0
22.786	10.0
22.801	5.0
22.816	13.0
22.831	10.0
22.846	8.0
22.861	5.0
22.876	12.0
22.891	13.0
22.906	22.0
22.92	9.0
22.935	9.0
22.95	11.0
22.965	11.0
22.98	11.0
22.995	9.0
23.01	13.0
23.025	12.0
23.04	8.0
23.055	9.0
23.07	15.0
23.085	11.0
23.1	7.0
23.115	8.0
23.13	11.0
23.145	4.0
23.16	6.0
23.175	11.0
23.19	7.0
23.205	11.0
23.22	13.0
23.235	8.0
23.25	17.0
23.265	12.0
23.28	11.0
23.295	7.0
23.31	12.0
23.325	6.0
23.34	7.0
23.355	12.0
23.37	8.0
23.384	9.0
23.399	10.0
23.414	6.0
23.429	11.0
23.444	13.0
23.459	8.0
23.474	11.0
23.489	15.0
23.504	14.0
23.519	8.0
23.534	9.0
23.549	13.0
23.564	8.0
23.579	10.0
23.594	13.0
23.609	8.0
23.624	15.0
23.639	17.0
23.654	11.0
23.668	15.0
23.683	9.0
23.698	2.0
23.713	11.0
23.728	14.0
23.743	8.0
23.758	9.0
23.773	9.0
23.788	17.0
23.803	19.0
23.818	15.0
23.833	15.0
23.848	8.0
23.862	15.0
23.877	16.0
23.892	18.0
23.907	19.0
23.922	28.0
23.937	28.0
23.952	31.0
23.967	28.0
23.982	31.0
23.997	34.0
24.011	42.0
24.026	41.0
24.041	41.0
24.056	61.0
24.071	55.0
24.086	49.0
24.101	50.0
24.116	52.0
24.131	45.0
24.145	41.0
24.16	53.0
24.175	36.0
24.19	34.0
24.205	41.0
24.22	33.0
24.235	34.0
24.249	27.0
24.264	32.0
24.279	23.0
24.294	19.0
24.309	20.0
24.324	21.0
24.338	13.0
24.353	16.0
24.368	17.0
24.383	11.0
24.398	16.0
24.413	15.0
24.428	11.0
24.442	12.0
24.457	5.0
24.472	13.0
24.487	12.0
24.502	13.0
24.516	16.0
24.531	8.0
24.546	5.0
24.561	15.0
24.576	12.0
24.591	6.0
24.605	11.0
24.62	18.0
24.635	9.0
24.65	12.0
24.665	8.0
24.679	8.0
24.694	6.0
24.709	8.0
24.724	16.0
24.739	16.0
24.753	9.0
24.768	8.0
24.783	9.0
24.798	10.0
24.813	15.0
24.827	11.0
24.842	9.0
24.857	9.0
24.872	6.0
24.886	14.0
24.901	9.0
24.916	8.0
24.931	8.0
24.946	11.0
24.96	11.0
24.975	8.0
24.99	11.0
25.005	8.0
25.019	12.0
25.034	17.0
25.049	11.0
25.064	8.0
25.078	7.0
25.093	14.0
25.108	12.0
25.123	9.0
25.138	7.0
25.152	11.0
25.167	8.0
25.182	10.0
25.197	6.0
25.211	9.0
25.226	7.0
25.241	5.0
25.256	7.0
25.27	10.0
25.285	10.0
25.3	7.0
25.315	11.0
25.329	6.0
25.344	12.0
25.359	7.0
25.374	10.0
25.388	12.0
25.403	5.0
25.418	15.0
25.433	10.0
25.447	12.0
25.462	8.0
25.477	6.0
25.492	11.0
25.506	7.0
25.521	16.0
25.536	9.0
25.55	7.0
25.565	7.0
25.58	11.0
25.595	14.0
25.609	12.0
25.624	15.0
25.639	8.0
25.654	9.0
25.668	10.0
25.683	11.0
25.698	11.0
25.713	6.0
25.727	12.0
25.742	13.0
25.757	5.0
25.772	10.0
25.786	9.0
25.801	10.0
25.816	12.0
25.83	4.0
25.845	5.0
25.86	7.0
25.875	8.0
25.889	7.0
25.904	11.0
25.919	7.0
25.934	5.0
25.948	7.0
25.963	11.0
25.978	8.0
25.992	14.0
26.007	15.0
26.022	8.0
26.037	9.0
26.051	10.0
26.066	9.0
26.081	9.0
26.096	5.0
26.11	9.0
26.125	7.0
26.14	10.0
26.155	5.0
26.169	17.0
26.184	13.0
26.199	11.0
26.213	9.0
26.228	11.0
26.243	9.0
26.258	8.0
26.272	2.0
26.287	7.0
26.302	14.0
26.317	7.0
26.331	11.0
26.346	9.0
26.361	8.0
26.376	8.0
26.39	6.0
26.405	11.0
26.42	10.0
26.434	12.0
26.449	11.0
26.464	7.0
26.479	10.0
26.493	9.0
26.508	12.0
26.523	12.0
26.538	10.0
26.552	13.0
26.567	11.0
26.582	11.0
26.597	12.0
26.611	12.0
26.626	8.0
26.641	12.0
26.656	9.0
26.67	12.0
26.685	10.0
26.7	8.0
26.715	9.0
26.729	15.0
26.744	14.0
26.759	13.0
26.773	12.0
26.788	7.0
26.803	16.0
26.818	7.0
26.832	8.0
26.847	9.0
26.862	11.0
26.877	10.0
26.891	12.0
26.906	10.0
26.921	10.0
26.936	10.0
26.95	12.0
26.965	8.0
26.98	16.0
26.995	13.0
27.01	13.0
27.024	12.0
27.039	13.0
27.054	14.0
27.069	12.0
27.083	6.0
27.098	3.0
27.113	13.0
27.128	12.0
27.142	11.0
27.157	7.0
27.172	6.0
27.187	10.0
27.201	13.0
27.216	10.0
27.231	11.0
27.246	9.0
27.261	7.0
27.275	12.0
27.29	10.0
27.305	9.0
27.32	13.0
27.334	9.0
27.349	12.0
27.364	11.0
27.379	8.0
27.394	14.0
27.408	9.0
27.423	10.0
27.438	10.0
27.453	10.0
27.467	7.0
27.482	12.0
27.497	18.0
27.512	12.0
27.527	9.0
27.541	14.0
27.556	13.0
27.571	11.0
27.586	15.0
27.601	12.0
27.615	11.0
27.63	18.0
27.645	16.0
27.66	10.0
27.675	15.0
27.689	16.0
27.704	18.0
27.719	18.0
27.734	20.0
27.749	14.0
27.763	20.0
27.778	15.0
27.793	13.0
27.808	20.0
27.823	14.0
27.838	23.0
27.852	36.0
27.867	35.0
27.882	29.0
27.897	17.0
27.912	27.0
27.926	13.0
27.941	13.0
27.956	15.0
27.971	23.0
27.986	16.0
28.001	20.0
28.015	14.0
28.03	16.0
28.045	15.0
28.06	11.0
28.075	18.0
28.09	14.0
28.105	23.0
28.119	12.0
28.134	6.0
28.149	14.0
28.164	10.0
28.179	13.0
28.194	16.0
28.208	18.0
28.223	5.0
28.238	10.0
28.253	8.0
28.268	12.0
28.283	8.0
28.298	12.0
28.312	9.0
28.327	14.0
28.342	11.0
28.357	6.0
28.372	10.0
28.387	6.0
28.402	13.0
28.417	10.0
28.431	10.0
28.446	8.0
28.461	10.0
28.476	16.0
28.491	10.0
28.506	12.0
28.521	10.0
28.536	6.0
28.55	16.0
28.565	7.0
28.58	6.0
28.595	9.0
28.61	9.0
28.625	10.0
28.64	13.0
28.655	9.0
28.669	8.0
28.684	12.0
28.699	13.0
28.714	6.0
28.729	11.0
28.744	13.0
28.759	12.0
28.774	7.0
28.788	12.0
28.803	14.0
28.818	11.0
28.833	12.0
28.848	10.0
28.863	15.0
28.878	5.0
28.893	7.0
28.908	11.0
28.922	13.0
28.937	7.0
28.952	11.0
28.967	12.0
28.982	6.0
28.997	9.0
29.012	7.0
29.027	10.0
29.041	8.0
29.056	15.0
29.071	11.0
29.086	10.0
29.101	8.0
29.116	10.0
29.131	8.0
29.146	9.0
29.16	13.0
29.175	10.0
29.19	9.0
29.205	14.0
29.22	8.0
29.235	18.0
29.25	9.0
29.265	9.0
29.279	11.0
29.294	11.0
29.309	15.0
29.324	8.0
29.339	18.0
29.354	10.0
29.369	9.0
29.384	16.0
29.398	20.0
29.413	15.0
29.428	12.0
29.443	22.0
29.458	23.0
29.473	31.0
29.488	20.0
29.502	26.0
29.517	41.0
29.532	32.0
29.547	48.0
29.562	44.0
29.577	34.0
29.592	40.0
29.606	52.0
29.621	54.0
29.636	51.0
29.651	61.0
29.666	47.0
29.681	53.0
29.695	28.0
29.71	31.0
29.725	36.0
29.74	35.0
29.755	31.0
29.77	31.0
29.784	33.0
29.799	40.0
29.814	15.0
29.829	24.0
29.844	18.0
29.859	21.0
29.873	20.0
29.888	14.0
29.903	15.0
29.918	16.0
29.933	9.0
29.947	13.0
29.962	16.0
29.977	11.0
29.992	12.0
30.007	13.0
30.021	11.0
30.036	9.0
30.051	13.0
30.066	10.0
30.081	13.0
30.095	11.0
30.11	11.0
30.125	8.0
30.14	14.0
30.155	12.0
30.169	5.0
30.184	11.0
30.199	13.0
30.214	8.0
30.228	9.0
30.243	11.0
30.258	12.0
30.273	14.0
30.288	11.0
30.302	11.0
30.317	10.0
30.332	6.0
30.347	8.0
30.361	7.0
30.376	15.0
30.391	9.0
30.406	17.0
30.42	7.0
30.435	9.0
30.45	7.0
30.465	8.0
30.479	17.0
30.494	12.0
30.509	10.0
30.524	15.0
30.538	11.0
30.553	10.0
30.568	14.0
30.583	12.0
30.597	10.0
30.612	13.0
30.627	10.0
30.641	13.0
30.656	10.0
30.671	10.0
30.686	12.0
30.7	9.0
30.715	12.0
30.73	14.0
30.745	14.0
30.759	15.0
30.774	10.0
30.789	11.0
30.803	8.0
30.818	13.0
30.833	7.0
30.848	13.0
30.862	6.0
30.877	9.0
30.892	10.0
30.906	12.0
30.921	13.0
30.936	13.0
30.951	10.0
30.965	7.0
30.98	23.0
30.995	11.0
31.009	13.0
31.024	13.0
31.039	9.0
31.053	11.0
31.068	15.0
31.083	18.0
31.098	16.0
31.112	19.0
31.127	20.0
31.142	21.0
31.156	23.0
31.171	21.0
31.186	22.0
31.2	33.0
31.215	35.0
31.23	36.0
31.245	33.0
31.259	37.0
31.274	34.0
31.289	42.0
31.303	39.0
31.318	34.0
31.333	33.0
31.347	30.0
31.362	20.0
31.377	24.0
31.392	32.0
31.406	25.0
31.421	28.0
31.436	33.0
31.45	32.0
31.465	32.0
31.48	22.0
31.494	26.0
31.509	22.0
31.524	13.0
31.538	19.0
31.553	20.0
31.568	7.0
31.583	8.0
31.597	10.0
31.612	6.0
31.627	10.0
31.641	9.0
31.656	16.0
31.671	9.0
31.685	9.0
31.7	9.0
31.715	15.0
31.729	8.0
31.744	6.0
31.759	13.0
31.774	13.0
31.788	11.0
31.803	11.0
31.818	9.0
31.832	12.0
31.847	4.0
31.862	8.0
31.876	6.0
31.891	5.0
31.906	6.0
31.92	16.0
31.935	17.0
31.95	10.0
31.965	8.0
31.979	13.0
31.994	6.0
32.009	8.0
32.023	10.0
32.038	13.0
32.053	7.0
32.067	15.0
32.082	9.0
32.097	11.0
32.112	12.0
32.126	7.0
32.141	7.0
32.156	10.0
32.17	12.0
32.185	6.0
32.2	11.0
32.214	11.0
32.229	11.0
32.244	9.0
32.259	10.0
32.273	15.0
32.288	7.0
32.303	11.0
32.317	7.0
32.332	10.0
32.347	11.0
32.362	9.0
32.376	12.0
32.391	7.0
32.406	9.0
32.42	5.0
32.435	11.0
32.45	7.0
32.465	8.0
32.479	11.0
32.494	13.0
32.509	15.0
32.523	11.0
32.538	6.0
32.553	8.0
32.568	14.0
32.582	14.0
32.597	9.0
32.612	7.0
32.627	17.0
32.641	8.0
32.656	16.0
32.671	15.0
32.685	19.0
32.7	15.0
32.715	14.0
32.73	19.0
32.744	23.0
32.759	14.0
32.774	25.0
32.788	31.0
32.803	21.0
32.818	26.0
32.833	28.0
32.847	23.0
32.862	22.0
32.877	18.0
32.892	23.0
32.906	20.0
32.921	22.0
32.936	25.0
32.951	20.0
32.965	19.0
32.98	13.0
32.995	17.0
33.009	12.0
33.024	15.0
33.039	22.0
33.054	17.0
33.068	20.0
33.083	20.0
33.098	18.0
33.113	21.0
33.127	14.0
33.142	8.0
33.157	10.0
33.172	10.0
33.186	14.0
33.201	12.0
33.216	10.0
33.231	7.0
33.245	7.0
33.26	15.0
33.275	6.0
33.29	7.0
33.304	8.0
33.319	12.0
33.334	13.0
33.349	11.0
33.363	13.0
33.378	12.0
33.393	5.0
33.408	8.0
33.422	8.0
33.437	7.0
33.452	10.0
33.467	5.0
33.481	16.0
33.496	7.0
33.511	13.0
33.526	13.0
33.54	10.0
33.555	14.0
33.57	8.0
33.585	6.0
33.599	6.0
33.614	6.0
33.629	9.0
33.644	8.0
33.658	9.0
33.673	9.0
33.688	11.0
33.703	4.0
33.718	7.0
33.732	12.0
33.747	11.0
33.762	9.0
33.777	5.0
33.791	11.0
33.806	9.0
33.821	8.0
33.836	8.0
33.85	7.0
33.865	11.0
33.88	14.0
33.895	7.0
33.91	6.0
33.924	9.0
33.939	11.0
33.954	13.0
33.969	6.0
33.983	10.0
33.998	9.0
34.013	11.0
34.028	12.0
34.042	16.0
34.057	7.0
34.072	10.0
34.087	11.0
34.102	9.0
34.116	16.0
34.131	11.0
34.146	16.0
34.161	16.0
34.175	11.0
34.19	12.0
34.205	13.0
34.22	13.0
34.235	17.0
34.249	8.0
34.264	17.0
34.279	11.0
34.294	13.0
34.309	13.0
34.323	18.0
34.338	12.0
34.353	10.0
34.368	14.0
34.382	8.0
34.397	13.0
34.412	8.0
34.427	9.0
34.442	14.0
34.456	11.0
34.471	9.0
34.486	4.0
34.501	13.0
34.516	9.0
34.53	13.0
34.545	10.0
34.56	16.0
34.575	13.0
34.59	17.0
34.604	3.0
34.619	9.0
34.634	6.0
34.649	11.0
34.664	7.0
34.678	5.0
34.693	7.0
34.708	8.0
34.723	5.0
34.738	9.0
34.752	5.0
34.767	4.0
34.782	7.0
34.797	5.0
34.812	6.0
34.826	7.0
34.841	11.0
34.856	13.0
34.871	9.0
34.886	10.0
34.9	11.0
34.915	6.0
34.93	8.0
34.945	14.0
34.96	8.0
34.974	10.0
34.989	8.0
35.004	6.0
35.019	9.0
35.034	10.0
35.048	20.0
35.063	10.0
35.078	10.0
35.093	8.0
35.108	10.0
35.122	7.0
35.137	6.0
35.152	11.0
35.167	12.0
35.182	8.0
35.196	5.0
35.211	5.0
35.226	15.0
35.241	5.0
35.256	10.0
35.27	9.0
35.285	5.0
35.3	8.0
35.315	9.0
35.33	3.0
35.344	6.0
35.359	5.0
35.374	8.0
35.389	10.0
35.404	14.0
35.418	5.0
35.433	4.0
35.448	6.0
35.463	10.0
35.478	13.0
35.493	9.0
35.507	5.0
35.522	15.0
35.537	5.0
35.552	5.0
35.567	10.0
35.581	11.0
35.596	11.0
35.611	14.0
35.626	11.0
35.641	11.0
35.655	11.0
35.67	12.0
35.685	17.0
35.7	13.0
35.715	8.0
35.729	16.0
35.744	17.0
35.759	17.0
35.774	19.0
35.789	16.0
35.804	17.0
35.818	21.0
35.833	25.0
35.848	15.0
35.863	14.0
35.878	14.0
35.892	8.0
35.907	14.0
35.922	5.0
35.937	16.0
35.952	22.0
35.966	14.0
35.981	12.0
35.996	18.0
36.011	17.0
36.026	10.0
36.04	10.0
36.055	16.0
36.07	12.0
36.085	9.0
36.1	7.0
36.114	7.0
36.129	6.0
36.144	10.0
36.159	15.0
36.174	8.0
36.189	12.0
36.203	10.0
36.218	6.0
36.233	5.0
36.248	7.0
36.263	5.0
36.277	6.0
36.292	9.0
36.307	16.0
36.322	6.0
36.337	7.0
36.351	11.0
36.366	10.0
36.381	10.0
36.396	8.0
36.411	9.0
36.426	11.0
36.44	6.0
36.455	7.0
36.47	10.0
36.485	8.0
36.5	7.0
36.514	4.0
36.529	10.0
36.544	13.0
36.559	9.0
36.574	4.0
36.589	13.0
36.603	11.0
36.618	12.0
36.633	11.0
36.648	10.0
36.663	12.0
36.677	9.0
36.692	8.0
36.707	6.0
36.722	6.0
36.737	14.0
36.752	7.0
36.766	11.0
36.781	9.0
36.796	7.0
36.811	3.0
36.826	12.0
36.841	10.0
36.855	9.0
36.87	14.0
36.885	11.0
36.9	9.0
36.915	9.0
36.93	12.0
36.944	7.0
36.959	5.0
36.974	10.0
36.989	11.0
37.004	14.0
37.019	10.0
37.033	9.0
37.048	18.0
37.063	19.0
37.078	19.0
37.093	13.0
37.108	29.0
37.123	17.0
37.137	21.0
37.152	33.0
37.167	22.0
37.182	19.0
37.197	36.0
37.212	29.0
37.226	30.0
37.241	22.0
37.256	24.0
37.271	19.0
37.286	19.0
37.301	21.0
37.316	15.0
37.331	18.0
37.345	22.0
37.36	10.0
37.375	23.0
37.39	29.0
37.405	17.0
37.42	20.0
37.435	20.0
37.45	11.0
37.464	15.0
37.479	15.0
37.494	9.0
37.509	8.0
37.524	12.0
37.539	8.0
37.554	11.0
37.569	9.0
37.583	8.0
37.598	8.0
37.613	8.0
37.628	7.0
37.643	7.0
37.658	10.0
37.673	9.0
37.688	8.0
37.703	5.0
37.718	10.0
37.733	6.0
37.747	11.0
37.762	5.0
37.777	8.0
37.792	9.0
37.807	8.0
37.822	8.0
37.837	5.0
37.852	7.0
37.867	4.0
37.882	8.0
37.897	10.0
37.912	4.0
37.927	6.0
37.941	8.0
37.956	4.0
37.971	11.0
37.986	8.0
38.001	10.0
38.016	4.0
38.031	10.0
38.046	5.0
38.061	9.0
38.076	9.0
38.091	7.0
38.106	5.0
38.121	9.0
38.136	4.0
38.151	7.0
38.166	5.0
38.181	4.0
38.196	10.0
38.211	10.0
38.226	3.0
38.241	6.0
38.256	9.0
38.271	6.0
38.285	14.0
38.3	9.0
38.315	9.0
38.33	9.0
38.345	11.0
38.36	4.0
38.375	8.0
38.39	7.0
38.405	8.0
38.42	7.0
38.435	5.0
38.45	10.0
38.465	3.0
38.48	9.0
38.495	6.0
38.51	6.0
38.525	8.0
38.54	6.0
38.555	12.0
38.57	6.0
38.585	5.0
38.6	6.0
38.615	9.0
38.63	7.0
38.645	4.0
38.66	4.0
38.675	5.0
38.69	4.0
38.705	7.0
38.72	7.0
38.735	7.0
38.75	5.0
38.765	8.0
38.78	5.0
38.795	7.0
38.81	7.0
38.825	7.0
38.84	8.0
38.855	5.0
38.87	6.0
38.885	7.0
38.9	3.0
38.915	4.0
38.93	4.0
38.945	8.0
38.96	3.0
38.975	8.0
38.99	5.0
39.005	6.0
39.02	10.0
39.035	8.0
39.05	6.0
39.065	0.0
39.08	10.0
39.095	7.0
39.11	6.0
39.125	5.0
39.14	6.0
39.155	10.0
39.17	9.0
39.185	5.0
39.2	10.0
39.215	9.0
39.23	3.0
39.245	9.0
39.26	12.0
39.275	6.0
39.29	3.0
39.305	10.0
39.32	9.0
39.335	6.0
39.35	9.0
39.365	1.0
39.38	3.0
39.395	9.0
39.409	7.0
39.424	7.0
39.439	7.0
39.454	5.0
39.469	8.0
39.484	4.0
39.499	8.0
39.514	8.0
39.529	6.0
39.544	2.0
39.559	7.0
39.574	8.0
39.589	10.0
39.604	9.0
39.619	4.0
39.634	4.0
39.649	7.0
39.664	6.0
39.678	4.0
39.693	9.0
39.708	7.0
39.723	8.0
39.738	9.0
39.753	12.0
39.768	9.0
39.783	3.0
39.798	4.0
39.813	10.0
39.827	9.0
39.842	11.0
39.857	6.0
39.872	9.0
39.887	9.0
39.902	9.0
39.917	11.0
39.932	6.0
39.947	4.0
39.961	6.0
39.976	8.0
39.991	4.0
40.006	10.0
40.021	7.0
40.036	7.0
40.051	6.0
40.065	7.0
40.08	12.0
40.095	5.0
40.11	8.0
40.125	7.0
40.14	5.0
40.154	9.0
40.169	10.0
40.184	7.0
40.199	4.0
40.214	6.0
40.228	9.0
40.243	6.0
40.258	4.0
40.273	10.0
40.288	4.0
40.302	3.0
40.317	9.0
40.332	6.0
40.347	3.0
40.362	3.0
40.376	4.0
40.391	4.0
40.406	6.0
40.421	6.0
40.436	8.0
40.45	2.0
40.465	3.0
40.48	7.0
40.495	8.0
40.509	5.0
40.524	5.0
40.539	7.0
40.554	0.0
40.568	5.0
40.583	4.0
40.598	7.0
40.613	8.0
40.627	4.0
40.642	4.0
40.657	7.0
40.672	7.0
40.686	9.0
40.701	8.0
40.716	5.0
40.731	8.0
40.745	7.0
40.76	5.0
40.775	5.0
40.79	6.0
40.804	6.0
40.819	6.0
40.834	3.0
40.849	5.0
40.863	8.0
40.878	5.0
40.893	4.0
40.907	9.0
40.922	5.0
40.937	0.0
40.952	5.0
40.966	8.0
40.981	6.0
40.996	8.0
41.011	5.0
41.025	13.0
41.04	8.0
41.055	12.0
41.069	9.0
41.084	19.0
41.099	12.0
41.114	13.0
41.128	14.0
41.143	18.0
41.158	19.0
41.173	18.0
41.187	16.0
41.202	14.0
41.217	14.0
41.231	20.0
41.246	9.0
41.261	13.0
41.276	7.0
41.29	18.0
41.305	17.0
41.32	16.0
41.335	15.0
41.349	8.0
41.364	15.0
41.379	14.0
41.393	10.0
41.408	13.0
41.423	12.0
41.438	22.0
41.452	9.0
41.467	10.0
41.482	6.0
41.497	13.0
41.511	4.0
41.526	5.0
41.541	7.0
41.556	4.0
41.57	4.0
41.585	7.0
41.6	7.0
41.615	8.0
41.629	4.0
41.644	8.0
41.659	5.0
41.674	3.0
41.688	4.0
41.703	7.0
41.718	2.0
41.733	4.0
41.747	3.0
41.762	6.0
41.777	12.0
41.792	8.0
41.806	7.0
41.821	9.0
41.836	10.0
41.851	4.0
41.866	7.0
41.88	5.0
41.895	7.0
41.91	5.0
41.925	5.0
41.939	8.0
41.954	7.0
41.969	2.0
41.984	5.0
41.999	8.0
42.013	7.0
42.028	6.0
42.043	3.0
42.058	6.0
42.073	3.0
42.088	2.0
42.102	9.0
42.117	10.0
42.132	3.0
42.147	9.0
42.162	2.0
42.176	8.0
42.191	6.0
42.206	4.0
42.221	7.0
42.236	12.0
42.251	5.0
42.266	5.0
42.28	4.0
42.295	9.0
42.31	14.0
42.325	5.0
42.34	12.0
42.355	19.0
42.369	10.0
42.384	20.0
42.399	12.0
42.414	9.0
42.429	17.0
42.444	14.0
42.459	6.0
42.474	20.0
42.488	6.0
42.503	15.0
42.518	16.0
42.533	11.0
42.548	8.0
42.563	13.0
42.578	5.0
42.593	7.0
42.608	8.0
42.622	8.0
42.637	15.0
42.652	5.0
42.667	8.0
42.682	11.0
42.697	10.0
42.712	8.0
42.727	8.0
42.742	8.0
42.757	9.0
42.772	8.0
42.786	8.0
42.801	6.0
42.816	4.0
42.831	7.0
42.846	7.0
42.861	9.0
42.876	7.0
42.891	5.0
42.906	1.0
42.921	12.0
42.936	4.0
42.951	5.0
42.966	4.0
42.981	7.0
42.996	4.0
43.011	5.0
43.025	7.0
43.04	4.0
43.055	4.0
43.07	8.0
43.085	10.0
43.1	1.0
43.115	2.0
43.13	4.0
43.145	2.0
43.16	9.0
43.175	5.0
43.19	6.0
43.205	5.0
43.22	1.0
43.235	8.0
43.25	11.0
43.265	10.0
43.28	3.0
43.295	5.0
43.31	5.0
43.325	5.0
43.34	6.0
43.355	5.0
43.37	7.0
43.385	6.0
43.4	5.0
43.415	5.0
43.43	3.0
43.445	3.0
43.46	6.0
43.475	12.0
43.49	9.0
43.505	7.0
43.52	8.0
43.535	10.0
43.55	10.0
43.565	5.0
43.58	10.0
43.595	11.0
43.61	6.0
43.625	11.0
43.64	7.0
43.655	10.0
43.67	11.0
43.685	11.0
43.7	8.0
43.715	4.0
43.73	8.0
43.745	5.0
43.76	7.0
43.775	1.0
43.79	6.0
43.805	6.0
43.82	13.0
43.835	8.0
43.85	3.0
43.865	6.0
43.88	4.0
43.895	10.0
43.91	6.0
43.925	7.0
43.94	6.0
43.955	5.0
43.97	10.0
43.985	2.0
44.0	13.0
44.015	7.0
44.03	6.0
44.045	3.0
44.061	10.0
44.076	4.0
44.091	4.0
44.106	3.0
44.121	1.0
44.136	4.0
44.151	3.0
44.166	2.0
44.181	9.0
44.196	4.0
44.211	5.0
44.226	3.0
44.241	2.0
44.256	7.0
44.271	1.0
44.286	3.0
44.301	5.0
44.316	6.0
44.331	7.0
44.346	6.0
44.361	3.0
44.377	6.0
44.392	6.0
44.407	5.0
44.422	5.0
44.437	4.0
44.452	3.0
44.467	2.0
44.482	6.0
44.497	6.0
44.512	7.0
44.527	5.0
44.542	8.0
44.557	11.0
44.572	5.0
44.587	3.0
44.602	6.0
44.617	3.0
44.632	7.0
44.647	4.0
44.663	8.0
44.678	6.0
44.693	11.0
44.708	7.0
44.723	11.0
44.738	10.0
44.753	14.0
44.768	10.0
44.783	10.0
44.798	16.0
44.813	10.0
44.828	12.0
44.843	8.0
44.858	10.0
44.873	13.0
44.888	4.0
44.903	4.0
44.918	2.0
44.933	6.0
44.948	4.0
44.964	6.0
44.979	8.0
44.994	2.0
45.009	8.0
45.024	5.0
45.039	9.0
45.054	11.0
45.069	10.0
45.084	7.0
45.099	9.0
45.114	9.0
45.129	8.0
45.144	12.0
45.159	9.0
45.174	9.0
45.189	4.0
45.204	4.0
45.219	4.0
45.234	3.0
45.249	5.0
45.264	5.0
45.279	6.0
45.294	7.0
45.309	2.0
45.324	4.0
45.339	2.0
45.354	3.0
45.369	7.0
45.384	2.0
45.399	8.0
45.414	4.0
45.429	8.0
45.444	2.0
45.459	6.0
45.474	7.0
45.489	3.0
45.504	6.0
45.519	2.0
45.534	3.0
45.549	4.0
45.564	6.0
45.579	7.0
45.594	6.0
45.609	2.0
45.624	7.0
45.639	7.0
45.654	7.0
45.669	12.0
45.684	5.0
45.699	6.0
45.714	8.0
45.729	10.0
45.744	9.0
45.759	4.0
45.774	5.0
45.789	5.0
45.804	5.0
45.819	5.0
45.834	9.0
45.849	7.0
45.864	8.0
45.879	9.0
45.894	16.0
45.909	12.0
45.924	15.0
45.939	11.0
45.954	24.0
45.969	21.0
45.984	13.0
45.998	17.0
46.013	12.0
46.028	16.0
46.043	14.0
46.058	11.0
46.073	11.0
46.088	19.0
46.103	10.0
46.118	11.0
46.133	11.0
46.148	17.0
46.163	5.0
46.178	7.0
46.192	11.0
46.207	3.0
46.222	6.0
46.237	9.0
46.252	11.0
46.267	15.0
46.282	10.0
46.297	9.0
46.312	12.0
46.327	11.0
46.341	8.0
46.356	7.0
46.371	7.0
46.386	4.0
46.401	4.0
46.416	12.0
46.431	4.0
46.446	9.0
46.46	7.0
46.475	3.0
46.49	9.0
46.505	8.0
46.52	6.0
46.535	6.0
46.55	6.0
46.564	2.0
46.579	4.0
46.594	4.0
46.609	4.0
46.624	5.0
46.639	3.0
46.654	5.0
46.668	6.0
46.683	6.0
46.698	9.0
46.713	3.0
46.728	7.0
46.743	2.0
46.758	5.0
46.772	7.0
46.787	7.0
46.802	4.0
46.817	3.0
46.832	5.0
46.847	6.0
46.861	8.0
46.876	7.0
46.891	4.0
46.906	4.0
46.921	1.0
46.936	11.0
46.95	7.0
46.965	5.0
46.98	9.0
46.995	4.0
47.01	6.0
47.025	6.0
47.039	8.0
47.054	9.0
47.069	6.0
47.084	8.0
47.099	10.0
47.113	11.0
47.128	9.0
47.143	13.0
47.158	9.0
47.173	11.0
47.188	7.0
47.202	8.0
47.217	6.0
47.232	5.0
47.247	1.0
47.262	12.0
47.277	5.0
47.291	6.0
47.306	4.0
47.321	5.0
47.336	3.0
47.351	5.0
47.365	8.0
47.38	8.0
47.395	9.0
47.41	6.0
47.425	9.0
47.44	10.0
47.454	9.0
47.469	5.0
47.484	9.0
47.499	7.0
47.514	5.0
47.528	10.0
47.543	10.0
47.558	7.0
47.573	7.0
47.588	5.0
47.603	7.0
47.617	2.0
47.632	4.0
47.647	8.0
47.662	5.0
47.677	5.0
47.691	6.0
47.706	3.0
47.721	4.0
47.736	5.0
47.751	3.0
47.766	3.0
47.78	6.0
47.795	1.0
47.81	6.0
47.825	5.0
47.84	7.0
47.855	3.0
47.869	3.0
47.884	2.0
47.899	3.0
47.914	6.0
47.929	3.0
47.944	2.0
47.958	3.0
47.973	2.0
47.988	4.0
48.003	9.0
48.018	8.0
48.033	5.0
48.047	8.0
48.062	3.0
48.077	3.0
48.092	3.0
48.107	4.0
48.122	3.0
48.137	3.0
48.151	4.0
48.166	8.0
48.181	6.0
48.196	1.0
48.211	3.0
48.226	1.0
48.241	3.0
48.255	7.0
48.27	6.0
48.285	6.0
48.3	3.0
48.315	0.0
48.33	3.0
48.345	7.0
48.359	2.0
48.374	4.0
48.389	6.0
48.404	4.0
48.419	12.0
48.434	7.0
48.449	3.0
48.464	7.0
48.478	7.0
48.493	7.0
48.508	6.0
48.523	4.0
48.538	9.0
48.553	4.0
48.568	5.0
48.583	4.0
48.597	1.0
48.612	5.0
48.627	6.0
48.642	7.0
48.657	6.0
48.672	4.0
48.687	4.0
48.702	6.0
48.717	7.0
48.731	3.0
48.746	4.0
48.761	2.0
48.776	6.0
48.791	3.0
48.806	3.0
48.821	2.0
48.836	5.0
48.851	3.0
48.866	7.0
48.88	5.0
48.895	3.0
48.91	2.0
48.925	2.0
48.94	6.0
48.955	9.0
48.97	3.0
48.985	8.0
49.0	2.0
49.015	2.0
49.03	2.0
49.044	1.0
49.059	6.0
49.074	7.0
49.089	3.0
49.104	5.0
49.119	3.0
49.134	4.0
49.149	2.0
49.164	4.0
49.179	2.0
49.194	3.0
49.209	4.0
49.224	2.0
49.238	7.0
49.253	8.0
49.268	5.0
49.283	5.0
49.298	5.0
49.313	4.0
49.328	7.0
49.343	6.0
49.358	9.0
49.373	4.0
49.388	7.0
49.403	7.0
49.418	6.0
49.433	5.0
49.448	8.0
49.463	6.0
49.478	6.0
49.492	5.0
49.507	2.0
49.522	5.0
49.537	4.0
49.552	8.0
49.567	5.0
49.582	4.0
49.597	4.0
49.612	10.0
49.627	6.0
49.642	8.0
49.657	9.0
49.672	6.0
49.687	7.0
49.702	11.0
49.717	7.0
49.732	7.0
49.747	2.0
49.762	6.0
49.777	7.0
49.792	7.0
49.807	2.0
49.822	8.0
49.837	5.0
49.852	6.0
49.867	2.0
49.882	9.0
49.897	6.0
49.912	10.0
49.927	4.0
49.942	5.0
49.957	2.0
49.971	10.0
49.986	2.0
50.001	4.0
50.016	6.0
50.031	8.0
50.046	3.0
50.061	3.0
50.076	8.0
50.091	4.0
50.106	2.0
50.121	3.0
50.136	5.0
50.151	6.0
50.166	4.0
50.181	4.0
50.196	6.0
50.211	5.0
50.226	9.0
50.241	3.0
50.256	6.0
50.271	4.0
50.286	5.0
50.302	8.0
50.317	7.0
50.332	6.0
50.347	7.0
50.362	7.0
50.377	3.0
50.392	10.0
50.407	11.0
50.422	10.0
50.437	10.0
50.452	12.0
50.467	12.0
50.482	10.0
50.497	6.0
50.512	10.0
50.527	5.0
50.542	7.0
50.557	7.0
50.572	12.0
50.587	7.0
50.602	6.0
50.617	9.0
50.632	10.0
50.647	5.0
50.662	4.0
50.677	4.0
50.692	4.0
50.707	6.0
50.722	9.0
50.737	9.0
50.752	6.0
50.767	8.0
50.782	6.0
50.797	7.0
50.812	7.0
50.828	6.0
50.843	7.0
50.858	6.0
50.873	4.0
50.888	4.0
50.903	4.0
50.918	5.0
50.933	3.0
50.948	5.0
50.963	8.0
50.978	4.0
50.993	7.0
51.008	4.0
51.023	5.0
51.038	4.0
51.053	4.0
51.068	3.0
51.083	3.0
51.098	3.0
51.114	3.0
51.129	5.0
51.144	3.0
51.159	2.0
51.174	6.0
51.189	4.0
51.204	9.0
51.219	6.0
51.234	6.0
51.249	6.0
51.264	4.0
51.279	7.0
51.294	5.0
51.309	6.0
51.324	7.0
51.34	3.0
51.355	7.0
51.37	6.0
51.385	5.0
51.4	12.0
51.415	10.0
51.43	6.0
51.445	12.0
51.46	10.0
51.475	17.0
51.49	17.0
51.505	11.0
51.52	15.0
51.535	13.0
51.551	17.0
51.566	15.0
51.581	14.0
51.596	10.0
51.611	16.0
51.626	11.0
51.641	13.0
51.656	8.0
51.671	3.0
51.686	7.0
51.701	7.0
51.716	14.0
51.732	9.0
51.747	10.0
51.762	14.0
51.777	6.0
51.792	11.0
51.807	6.0
51.822	19.0
51.837	9.0
51.852	9.0
51.867	10.0
51.882	10.0
51.898	15.0
51.913	14.0
51.928	14.0
51.943	8.0
51.958	6.0
51.973	10.0
51.988	4.0
52.003	4.0
52.018	8.0
52.033	6.0
52.048	6.0
52.064	4.0
52.079	1.0
52.094	5.0
52.109	6.0
52.124	3.0
52.139	4.0
52.154	5.0
52.169	4.0
52.184	2.0
52.199	5.0
52.215	7.0
52.23	2.0
52.245	5.0
52.26	5.0
52.275	7.0
52.29	6.0
52.305	1.0
52.32	1.0
52.335	6.0
52.35	7.0
52.366	6.0
52.381	3.0
52.396	7.0
52.411	9.0
52.426	2.0
52.441	3.0
52.456	8.0
52.471	5.0
52.486	7.0
52.502	6.0
52.517	7.0
52.532	10.0
52.547	9.0
52.562	12.0
52.577	10.0
52.592	10.0
52.607	10.0
52.622	11.0
52.637	6.0
52.653	4.0
52.668	5.0
52.683	5.0
52.698	8.0
52.713	7.0
52.728	3.0
52.743	1.0
52.758	4.0
52.774	6.0
52.789	4.0
52.804	7.0
52.819	3.0
52.834	4.0
52.849	7.0
52.864	11.0
52.879	7.0
52.894	8.0
52.91	8.0
52.925	8.0
52.94	8.0
52.955	6.0
52.97	10.0
52.985	2.0
53.0	6.0
53.015	8.0
53.031	9.0
53.046	4.0
53.061	3.0
53.076	3.0
53.091	3.0
53.106	4.0
53.121	6.0
53.136	8.0
53.152	3.0
53.167	4.0
53.182	2.0
53.197	5.0
53.212	3.0
53.227	4.0
53.242	3.0
53.257	4.0
53.273	7.0
53.288	6.0
53.303	7.0
53.318	9.0
53.333	4.0
53.348	7.0
53.363	5.0
53.379	5.0
53.394	2.0
53.409	2.0
53.424	5.0
53.439	7.0
53.454	3.0
53.469	5.0
53.484	3.0
53.5	6.0
53.515	3.0
53.53	8.0
53.545	4.0
53.56	4.0
53.575	1.0
53.59	5.0
53.606	4.0
53.621	5.0
53.636	4.0
53.651	3.0
53.666	5.0
53.681	3.0
53.696	2.0
53.712	4.0
53.727	6.0
53.742	4.0
53.757	5.0
53.772	4.0
53.787	4.0
53.802	7.0
53.818	5.0
53.833	4.0
53.848	6.0
53.863	6.0
53.878	4.0
53.893	2.0
53.909	6.0
53.924	4.0
53.939	8.0
53.954	3.0
53.969	6.0
53.984	6.0
53.999	8.0
54.015	2.0
54.03	1.0
54.045	4.0
54.06	4.0
54.075	1.0
54.09	5.0
54.106	9.0
54.121	6.0
54.136	5.0
54.151	5.0
54.166	8.0
54.181	5.0
54.197	2.0
54.212	5.0
54.227	5.0
54.242	5.0
54.257	4.0
54.272	1.0
54.288	8.0
54.303	4.0
54.318	8.0
54.333	5.0
54.348	0.0
54.363	6.0
54.379	1.0
54.394	2.0
54.409	6.0
54.424	6.0
54.439	5.0
54.454	6.0
54.47	4.0
54.485	4.0
54.5	7.0
54.515	6.0
54.53	7.0
54.545	8.0
54.561	7.0
54.576	8.0
54.591	10.0
54.606	11.0
54.621	5.0
54.636	11.0
54.652	18.0
54.667	13.0
54.682	11.0
54.697	16.0
54.712	14.0
54.727	5.0
54.743	9.0
54.758	12.0
54.773	3.0
54.788	8.0
54.803	6.0
54.819	9.0
54.834	0.0
54.849	7.0
54.864	3.0
54.879	5.0
54.894	7.0
54.91	1.0
54.925	11.0
54.94	7.0
54.955	6.0
54.97	6.0
54.985	12.0
55.001	10.0
55.016	5.0
55.031	7.0
55.046	11.0
55.061	8.0
55.077	9.0
55.092	6.0
55.107	12.0
55.122	5.0
55.137	2.0
55.152	2.0
55.168	6.0
55.183	5.0
55.198	4.0
55.213	2.0
55.228	6.0
55.243	9.0
55.259	3.0
55.274	7.0
55.289	5.0
55.304	6.0
55.319	3.0
55.335	3.0
55.35	6.0
55.365	3.0
55.38	6.0
55.395	3.0
55.41	4.0
55.426	7.0
55.441	8.0
55.456	2.0
55.471	5.0
55.486	3.0
55.501	5.0
55.517	3.0
55.532	3.0
55.547	8.0
55.562	3.0
55.577	5.0
55.592	3.0
55.608	9.0
55.623	4.0
55.638	7.0
55.653	5.0
55.668	4.0
55.683	4.0
55.699	4.0
55.714	8.0
55.729	4.0
55.744	9.0
55.759	11.0
55.774	6.0
55.79	5.0
55.805	6.0
55.82	4.0
55.835	3.0
55.85	8.0
55.865	2.0
55.881	3.0
55.896	5.0
55.911	6.0
55.926	3.0
55.941	6.0
55.956	6.0
55.972	4.0
55.987	3.0
56.002	10.0
56.017	7.0
56.032	8.0
56.047	2.0
56.063	8.0
56.078	12.0
56.093	7.0
56.108	9.0
56.123	2.0
56.138	2.0
56.154	6.0
56.169	3.0
56.184	9.0
56.199	4.0
56.214	6.0
56.229	3.0
56.244	3.0
56.26	5.0
56.275	2.0
56.29	5.0
56.305	2.0
56.32	2.0
56.335	1.0
56.351	6.0
56.366	1.0
56.381	3.0
56.396	7.0
56.411	2.0
56.426	5.0
56.441	1.0
56.457	1.0
56.472	5.0
56.487	3.0
56.502	3.0
56.517	5.0
56.532	4.0
56.547	4.0
56.563	2.0
56.578	3.0
56.593	2.0
56.608	4.0
56.623	6.0
56.638	7.0
56.653	3.0
56.668	5.0
56.684	5.0
56.699	1.0
56.714	6.0
56.729	5.0
56.744	4.0
56.759	6.0
56.774	3.0
56.79	2.0
56.805	2.0
56.82	4.0
56.835	4.0
56.85	3.0
56.865	3.0
56.88	7.0
56.895	8.0
56.911	7.0
56.926	7.0
56.941	3.0
56.956	4.0
56.971	5.0
56.986	4.0
57.001	5.0
57.016	4.0
57.031	6.0
57.047	2.0
57.062	5.0
57.077	2.0
57.092	1.0
57.107	3.0
57.122	4.0
57.137	5.0
57.152	4.0
57.167	3.0
57.183	4.0
57.198	3.0
57.213	6.0
57.228	3.0
57.243	6.0
57.258	8.0
57.273	6.0
57.288	4.0
57.303	4.0
57.318	3.0
57.334	4.0
57.349	6.0
57.364	4.0
57.379	8.0
57.394	4.0
57.409	4.0
57.424	3.0
57.439	4.0
57.454	1.0
57.469	4.0
57.484	3.0
57.5	5.0
57.515	6.0
57.53	2.0
57.545	2.0
57.56	7.0
57.575	7.0
57.59	5.0
57.605	3.0
57.62	5.0
57.635	10.0
57.65	3.0
57.665	1.0
57.68	2.0
57.696	3.0
57.711	5.0
57.726	7.0
57.741	4.0
57.756	3.0
57.771	4.0
57.786	2.0
57.801	6.0
57.816	7.0
57.831	5.0
57.846	4.0
57.861	3.0
57.876	2.0
57.891	2.0
57.906	4.0
57.921	5.0
57.937	4.0
57.952	1.0
57.967	2.0
57.982	2.0
57.997	3.0
58.012	7.0
58.027	10.0
58.042	3.0
58.057	2.0
58.072	1.0
58.087	7.0
58.102	10.0
58.117	5.0
58.132	6.0
58.147	7.0
58.162	7.0
58.177	2.0
58.192	2.0
58.207	5.0
58.222	7.0
58.237	6.0
58.252	4.0
58.267	3.0
58.282	5.0
58.297	4.0
58.312	4.0
58.327	5.0
58.342	5.0
58.357	2.0
58.372	6.0
58.387	4.0
58.402	4.0
58.418	3.0
58.433	8.0
58.448	1.0
58.463	5.0
58.478	1.0
58.493	12.0
58.508	3.0
58.523	7.0
58.538	3.0
58.553	4.0
58.568	6.0
58.583	13.0
58.598	9.0
58.613	8.0
58.628	12.0
58.643	9.0
58.658	11.0
58.673	7.0
58.688	7.0
58.703	15.0
58.718	9.0
58.733	5.0
58.748	9.0
58.763	6.0
58.778	7.0
58.793	7.0
58.808	4.0
58.823	4.0
58.838	6.0
58.853	10.0
58.868	7.0
58.883	8.0
58.898	2.0
58.913	3.0
58.928	13.0
58.942	5.0
58.957	11.0
58.972	2.0
58.987	6.0
59.002	7.0
59.017	2.0
59.032	6.0
59.047	5.0
59.062	4.0
59.077	6.0
59.092	8.0
59.107	12.0
59.122	4.0
59.137	6.0
59.152	4.0
59.167	5.0
59.182	2.0
59.197	5.0
59.212	7.0
59.227	2.0
59.242	6.0
59.257	4.0
59.272	3.0
59.287	5.0
59.302	0.0
59.317	6.0
59.332	4.0
59.347	5.0
59.362	3.0
59.377	6.0
59.392	6.0
59.407	2.0
59.422	7.0
59.437	3.0
59.452	4.0
59.467	5.0
59.482	5.0
59.497	5.0
59.512	4.0
59.527	4.0
59.542	5.0
59.557	5.0
59.572	8.0
59.587	7.0
59.602	8.0
59.617	6.0
59.632	7.0
59.647	6.0
59.661	6.0
59.676	7.0
59.691	10.0
59.706	6.0
59.721	5.0
59.736	8.0
59.751	8.0
59.766	2.0
59.781	5.0
59.796	9.0
59.811	3.0
59.826	5.0
59.841	5.0
59.856	4.0
59.871	3.0
59.886	7.0
59.901	5.0
59.916	3.0
59.931	4.0
59.946	5.0
59.961	5.0
59.976	4.0
59.991	6.0
60.006	9.0
60.021	9.0
60.036	5.0
60.051	5.0
60.066	5.0
60.081	6.0
60.096	2.0
60.111	2.0
60.126	4.0
60.141	5.0
60.156	3.0
60.171	5.0
60.186	10.0
60.201	5.0
60.216	6.0
60.231	1.0
60.246	2.0
60.261	4.0
60.276	3.0
60.291	2.0
60.306	4.0
60.321	5.0
60.336	6.0
60.35	1.0
60.365	1.0
60.38	1.0
60.395	8.0
60.41	4.0
60.425	6.0
60.44	3.0
60.455	4.0
60.47	3.0
60.485	8.0
60.5	5.0
60.515	9.0
60.53	6.0
60.545	10.0
60.56	9.0
60.575	6.0
60.59	5.0
60.605	4.0
60.62	7.0
60.635	5.0
60.65	9.0
60.665	8.0
60.68	6.0
60.695	4.0
60.71	0.0
60.725	7.0
60.74	5.0
60.755	5.0
60.77	7.0
60.785	5.0
60.8	5.0
60.815	4.0
60.83	5.0
60.845	3.0
60.86	7.0
60.875	7.0
60.89	3.0
60.905	4.0
60.92	7.0
60.935	10.0
60.95	12.0
60.965	4.0
60.98	4.0
60.995	6.0
61.01	7.0
61.025	3.0
61.04	1.0
61.055	4.0
61.07	0.0
61.085	7.0
61.1	3.0
61.115	10.0
61.13	6.0
61.145	4.0
61.16	3.0
61.175	3.0
61.191	4.0
61.206	4.0
61.221	0.0
61.236	9.0
61.251	5.0
61.266	3.0
61.281	1.0
61.296	3.0
61.311	3.0
61.326	1.0
61.341	3.0
61.356	6.0
61.371	2.0
61.386	8.0
61.401	4.0
61.416	2.0
61.431	5.0
61.446	4.0
61.461	5.0
61.476	3.0
61.491	7.0
61.506	5.0
61.521	8.0
61.536	1.0
61.551	7.0
61.566	4.0
61.581	6.0
61.596	5.0
61.611	7.0
61.626	5.0
61.641	5.0
61.656	5.0
61.672	5.0
61.687	2.0
61.702	3.0
61.717	10.0
61.732	6.0
61.747	5.0
61.762	2.0
61.777	1.0
61.792	1.0
61.807	9.0
61.822	5.0
61.837	4.0
61.852	5.0
61.867	7.0
61.882	7.0
61.897	6.0
61.912	3.0
61.927	7.0
61.943	5.0
61.958	6.0
61.973	3.0
61.988	3.0
62.003	4.0
62.018	3.0
62.033	6.0
62.048	3.0
62.063	4.0
62.078	4.0
62.093	2.0
62.108	9.0
62.123	4.0
62.138	4.0
62.153	4.0
62.169	3.0
62.184	4.0
62.199	3.0
62.214	3.0
62.229	3.0
62.244	2.0
62.259	1.0
62.274	7.0
62.289	6.0
62.304	2.0
62.319	6.0
62.335	3.0
62.35	4.0
62.365	6.0
62.38	2.0
62.395	10.0
62.41	10.0
62.425	4.0
62.44	5.0
62.455	9.0
62.47	4.0
62.485	8.0
62.501	7.0
62.516	1.0
62.531	7.0
62.546	4.0
62.561	3.0
62.576	2.0
62.591	2.0
62.606	4.0
62.621	3.0
62.636	5.0
62.652	3.0
62.667	3.0
62.682	3.0
62.697	6.0
62.712	0.0
62.727	3.0
62.742	3.0
62.757	1.0
62.772	3.0
62.787	5.0
62.803	3.0
62.818	5.0
62.833	7.0
62.848	6.0
62.863	7.0
62.878	4.0
62.893	5.0
62.908	2.0
62.923	4.0
62.939	3.0
62.954	2.0
62.969	7.0
62.984	5.0
62.999	4.0
63.014	8.0
63.029	7.0
63.044	4.0
63.059	4.0
63.074	4.0
63.09	2.0
63.105	6.0
63.12	7.0
63.135	3.0
63.15	3.0
63.165	3.0
63.18	4.0
63.195	4.0
63.21	5.0
63.226	4.0
63.241	4.0
63.256	5.0
63.271	6.0
63.286	1.0
63.301	4.0
63.316	5.0
63.331	6.0
63.346	7.0
63.362	5.0
63.377	6.0
63.392	4.0
63.407	5.0
63.422	6.0
63.437	1.0
63.452	5.0
63.467	9.0
63.482	6.0
63.497	6.0
63.513	4.0
63.528	4.0
63.543	4.0
63.558	1.0
63.573	2.0
63.588	3.0
63.603	4.0
63.618	7.0
63.633	3.0
63.648	2.0
63.664	4.0
63.679	2.0
63.694	3.0
63.709	6.0
63.724	6.0
63.739	7.0
63.754	7.0
63.769	2.0
63.784	7.0
63.799	6.0
63.814	6.0
63.83	6.0
63.845	7.0
63.86	3.0
63.875	8.0
63.89	4.0
63.905	7.0
63.92	4.0
63.935	8.0
63.95	3.0
63.965	5.0
63.98	10.0
63.996	7.0
64.011	4.0
64.026	3.0
64.041	4.0
64.056	4.0
64.071	7.0
64.086	5.0
64.101	3.0
64.116	3.0
64.131	3.0
64.146	3.0
64.161	4.0
64.176	5.0
64.191	5.0
64.207	2.0
64.222	3.0
64.237	5.0
64.252	4.0
64.267	4.0
64.282	2.0
64.297	9.0
64.312	4.0
64.327	6.0
64.342	1.0
64.357	2.0
64.372	1.0
64.387	2.0
64.402	5.0
64.417	5.0
64.433	1.0
64.448	2.0
64.463	3.0
64.478	2.0
64.493	5.0
64.508	3.0
64.523	3.0
64.538	4.0
64.553	4.0
64.568	4.0
64.583	2.0
64.598	4.0
64.613	3.0
64.628	4.0
64.643	1.0
64.658	6.0
64.673	4.0
64.688	5.0
64.703	2.0
64.718	2.0
64.734	4.0
64.749	3.0
64.764	4.0
64.779	5.0
64.794	4.0
64.809	2.0
64.824	3.0
64.839	5.0
64.854	2.0
64.869	1.0
64.884	3.0
64.899	2.0
64.914	1.0
64.929	2.0
64.944	3.0
64.959	5.0
64.974	5.0
64.989	3.0
65.004	5.0
65.019	5.0
65.034	3.0
65.049	2.0
65.064	3.0
65.079	2.0
65.094	7.0
65.109	2.0
65.125	4.0
65.14	3.0
65.155	3.0
65.17	4.0
65.185	2.0
65.2	2.0
65.215	5.0
65.23	6.0
65.245	5.0
65.26	11.0
65.275	3.0
65.29	4.0
65.305	10.0
65.32	9.0
65.335	5.0
65.35	4.0
65.365	5.0
65.38	4.0
65.395	7.0
65.41	1.0
65.425	1.0
65.44	3.0
65.455	6.0
65.47	4.0
65.485	3.0
65.5	5.0
65.515	1.0
65.53	5.0
65.545	5.0
65.56	6.0
65.575	2.0
65.59	3.0
65.605	5.0
65.62	5.0
65.635	4.0
65.65	4.0
65.666	0.0
65.681	6.0
65.696	3.0
65.711	6.0
65.726	2.0
65.741	4.0
65.756	1.0
65.771	2.0
65.786	4.0
65.801	3.0
65.816	3.0
65.831	1.0
65.846	1.0
65.861	5.0
65.876	4.0
65.891	1.0
65.906	1.0
65.921	3.0
65.936	4.0
65.951	5.0
65.966	1.0
65.981	2.0
65.996	3.0
66.011	6.0
66.026	3.0
66.041	3.0
66.056	4.0
66.071	0.0
66.086	2.0
66.101	6.0
66.116	5.0
66.131	3.0
66.146	4.0
66.161	7.0
66.176	12.0
66.191	13.0
66.206	8.0
66.221	7.0
66.236	10.0
66.251	6.0
66.266	9.0
66.281	4.0
66.296	5.0
66.311	5.0
66.327	2.0
66.342	3.0
66.357	7.0
66.372	2.0
66.387	3.0
66.402	6.0
66.417	1.0
66.432	3.0
66.447	1.0
66.462	3.0
66.477	2.0
66.492	3.0
66.507	6.0
66.522	5.0
66.537	3.0
66.552	6.0
66.567	5.0
66.582	7.0
66.597	7.0
66.612	7.0
66.627	3.0
66.642	7.0
66.657	7.0
66.672	7.0
66.687	7.0
66.702	7.0
66.717	4.0
66.732	6.0
66.747	4.0
66.762	3.0
66.777	7.0
66.792	4.0
66.807	2.0
66.822	6.0
66.837	4.0
66.853	2.0
66.868	4.0
66.883	7.0
66.898	5.0
66.913	2.0
66.928	6.0
66.943	3.0
66.958	6.0
66.973	2.0
66.988	1.0
67.003	6.0
67.018	5.0
67.033	5.0
67.048	5.0
67.063	3.0
67.078	2.0
67.093	5.0
67.108	7.0
67.123	3.0
67.138	8.0
67.153	2.0
67.168	7.0
67.183	5.0
67.198	6.0
67.214	6.0
67.229	1.0
67.244	4.0
67.259	2.0
67.274	1.0
67.289	4.0
67.304	3.0
67.319	3.0
67.334	2.0
67.349	4.0
67.364	2.0
67.379	4.0
67.394	2.0
67.409	2.0
67.424	6.0
67.439	8.0
67.454	4.0
67.469	2.0
67.484	5.0
67.5	5.0
67.515	7.0
67.53	2.0
67.545	7.0
67.56	4.0
67.575	3.0
67.59	3.0
67.605	5.0
67.62	8.0
67.635	3.0
67.65	1.0
67.665	6.0
67.68	1.0
67.695	2.0
67.71	4.0
67.726	4.0
67.741	1.0
67.756	4.0
67.771	4.0
67.786	3.0
67.801	2.0
67.816	2.0
67.831	6.0
67.846	3.0
67.861	2.0
67.876	2.0
67.891	3.0
67.906	3.0
67.922	1.0
67.937	3.0
67.952	4.0
67.967	3.0
67.982	6.0
67.997	4.0
68.012	4.0
68.027	5.0
68.042	4.0
68.057	5.0
68.072	4.0
68.087	3.0
68.103	5.0
68.118	3.0
68.133	1.0
68.148	3.0
68.163	7.0
68.178	4.0
68.193	2.0
68.208	5.0
68.223	3.0
68.238	2.0
68.254	2.0
68.269	5.0
68.284	2.0
68.299	7.0
68.314	5.0
68.329	3.0
68.344	6.0
68.359	2.0
68.374	6.0
68.389	3.0
68.405	3.0
68.42	2.0
68.435	4.0
68.45	6.0
68.465	1.0
68.48	5.0
68.495	3.0
68.51	6.0
68.525	6.0
68.54	6.0
68.556	5.0
68.571	3.0
68.586	0.0
68.601	1.0
68.616	6.0
68.631	4.0
68.646	4.0
68.661	10.0
68.676	4.0
68.691	4.0
68.707	3.0
68.722	1.0
68.737	3.0
68.752	3.0
68.767	4.0
68.782	2.0
68.797	6.0
68.812	3.0
68.827	4.0
68.842	0.0
68.857	4.0
68.873	3.0
68.888	5.0
68.903	2.0
68.918	1.0
68.933	5.0
68.948	1.0
68.963	5.0
68.978	4.0
68.993	2.0
69.008	6.0
69.023	4.0
69.038	2.0
69.054	2.0
69.069	1.0
69.084	4.0
69.099	5.0
69.114	4.0
69.129	2.0
69.144	1.0
69.159	2.0
69.174	3.0
69.189	4.0
69.204	3.0
69.219	6.0
69.234	3.0
69.249	3.0
69.264	3.0
69.279	3.0
69.295	2.0
69.31	4.0
69.325	4.0
69.34	2.0
69.355	2.0
69.37	3.0
69.385	5.0
69.4	4.0
69.415	4.0
69.43	8.0
69.445	4.0
69.46	2.0
69.475	0.0
69.49	4.0
69.505	2.0
69.52	1.0
69.535	5.0
69.55	5.0
69.565	5.0
69.58	3.0
69.595	2.0
69.61	9.0
69.625	4.0
69.64	2.0
69.655	3.0
69.67	4.0
69.685	2.0
69.7	7.0
69.715	3.0
69.73	6.0
69.745	8.0
69.76	4.0
69.775	6.0
69.79	8.0
69.805	9.0
69.82	9.0
69.835	9.0
69.85	6.0
69.865	8.0
69.88	3.0
69.895	1.0
69.909	4.0
69.924	3.0
69.939	6.0
69.954	2.0
69.969	6.0
69.984	2.0
69.999	3.0
70.014	3.0
70.029	5.0
70.044	1.0
70.059	3.0
70.074	5.0
70.088	4.0
70.103	5.0
70.118	5.0
70.133	6.0
70.148	3.0
70.163	5.0
70.178	5.0
70.193	3.0
70.208	2.0
70.222	3.0
70.237	5.0
70.252	2.0
70.267	2.0
70.282	8.0
70.297	5.0
70.312	6.0
70.327	2.0
70.341	5.0
70.356	3.0
70.371	1.0
70.386	3.0
70.401	4.0
70.416	3.0
70.43	4.0
70.445	4.0
70.46	4.0
70.475	3.0
70.49	5.0
70.505	3.0
70.519	2.0
70.534	5.0
70.549	3.0
70.564	4.0
70.579	8.0
70.594	6.0
70.608	4.0
70.623	4.0
70.638	3.0
70.653	8.0
70.668	6.0
70.683	6.0
70.697	5.0
70.712	8.0
70.727	3.0
70.742	1.0
70.757	4.0
70.771	2.0
70.786	3.0
70.801	8.0
70.816	6.0
70.831	1.0
70.845	1.0
70.86	3.0
70.875	3.0
70.89	3.0
70.905	5.0
70.92	4.0
70.934	2.0
70.949	3.0
70.964	4.0
70.979	3.0
70.994	2.0
71.008	3.0
71.023	2.0
71.038	5.0
71.053	7.0
71.068	3.0
71.082	3.0
71.097	5.0
71.112	7.0
71.127	1.0
71.142	5.0
71.156	5.0
71.171	9.0
71.186	4.0
71.201	6.0
71.216	5.0
71.231	5.0
71.245	3.0
71.26	3.0
71.275	2.0
71.29	4.0
71.305	3.0
71.319	1.0
71.334	1.0
71.349	6.0
71.364	1.0
71.379	2.0
71.394	3.0
71.408	3.0
71.423	3.0
71.438	4.0
71.453	3.0
71.468	8.0
71.483	2.0
71.497	4.0
71.512	5.0
71.527	4.0
71.542	1.0
71.557	5.0
71.572	3.0
71.586	1.0
71.601	5.0
71.616	3.0
71.631	2.0
71.646	7.0
71.661	2.0
71.676	3.0
71.69	0.0
71.705	5.0
71.72	4.0
71.735	5.0
71.75	3.0
71.765	1.0
71.78	2.0
71.795	1.0
71.81	1.0
71.824	9.0
71.839	0.0
71.854	6.0
71.869	5.0
71.884	5.0
71.899	5.0
71.914	3.0
71.929	4.0
71.944	5.0
71.959	3.0
71.974	2.0
71.988	3.0
72.003	7.0
72.018	4.0
72.033	4.0
72.048	3.0
72.063	4.0
72.078	1.0
72.093	6.0
72.108	6.0
72.123	4.0
72.138	3.0
72.153	2.0
72.168	4.0
72.183	0.0
72.198	4.0
72.213	4.0
72.228	5.0
72.243	4.0
72.258	3.0
72.273	3.0
72.288	2.0
72.303	2.0
72.318	3.0
72.333	3.0
72.348	3.0
72.363	2.0
72.378	3.0
72.393	2.0
72.408	4.0
72.423	3.0
72.438	3.0
72.453	5.0
72.468	4.0
72.483	3.0
72.498	3.0
72.513	7.0
72.528	4.0
72.543	4.0
72.558	3.0
72.573	6.0
72.588	2.0
72.603	2.0
72.618	6.0
72.633	6.0
72.649	4.0
72.664	3.0
72.679	1.0
72.694	4.0
72.709	2.0
72.724	2.0
72.739	2.0
72.754	4.0
72.769	7.0
72.784	3.0
72.799	2.0
72.814	3.0
72.829	1.0
72.845	5.0
72.86	4.0
72.875	0.0
72.89	2.0
72.905	8.0
72.92	2.0
72.935	2.0
72.95	2.0
72.965	3.0
72.98	1.0
72.996	3.0
73.011	3.0
73.026	6.0
73.041	1.0
73.056	2.0
73.071	4.0
73.086	5.0
73.101	2.0
73.117	1.0
73.132	1.0
73.147	3.0
73.162	1.0
73.177	5.0
73.192	1.0
73.207	3.0
73.222	1.0
73.238	1.0
73.253	5.0
73.268	3.0
73.283	3.0
73.298	9.0
73.313	5.0
73.328	2.0
73.343	4.0
73.359	6.0
73.374	6.0
73.389	2.0
73.404	2.0
73.419	5.0
73.434	3.0
73.449	4.0
73.465	6.0
73.48	1.0
73.495	1.0
73.51	6.0
73.525	2.0
73.54	3.0
73.556	3.0
73.571	1.0
73.586	2.0
73.601	6.0
73.616	6.0
73.631	4.0
73.646	2.0
73.662	2.0
73.677	6.0
73.692	4.0
73.707	3.0
73.722	3.0
73.737	4.0
73.752	1.0
73.768	3.0
73.783	1.0
73.798	2.0
73.813	4.0
73.828	4.0
73.843	5.0
73.859	2.0
73.874	6.0
73.889	4.0
73.904	3.0
73.919	6.0
73.934	4.0
73.949	2.0
73.965	2.0
73.98	9.0
73.995	4.0
74.01	8.0
74.025	0.0
74.04	4.0
74.056	6.0
74.071	4.0
74.086	6.0
74.101	4.0
74.116	5.0
74.131	7.0
74.146	3.0
74.162	6.0
74.177	5.0
74.192	7.0
74.207	12.0
74.222	4.0
74.237	8.0
74.252	5.0
74.268	10.0
74.283	5.0
74.298	4.0
74.313	4.0
74.328	7.0
74.343	6.0
74.358	2.0
74.374	4.0
74.389	0.0
74.404	4.0
74.419	2.0
74.434	4.0
74.449	7.0
74.464	0.0
74.48	5.0
74.495	5.0
74.51	4.0
74.525	1.0
74.54	2.0
74.555	5.0
74.57	3.0
74.586	4.0
74.601	6.0
74.616	3.0
74.631	4.0
74.646	1.0
74.661	2.0
74.676	5.0
74.691	2.0
74.707	6.0
74.722	4.0
74.737	4.0
74.752	5.0
74.767	3.0
74.782	6.0
74.797	4.0
74.813	8.0
74.828	2.0
74.843	3.0
74.858	6.0
74.873	3.0
74.888	3.0
74.903	8.0
74.918	5.0
74.934	3.0
74.949	1.0
74.964	4.0
74.979	4.0
74.994	2.0
75.009	3.0
75.024	6.0
75.04	2.0
75.055	5.0
75.07	6.0
75.085	4.0
75.1	7.0
75.115	3.0
75.13	3.0
75.145	4.0
75.161	4.0
75.176	5.0
75.191	1.0
75.206	3.0
75.221	1.0
75.236	4.0
75.251	2.0
75.266	5.0
75.282	8.0
75.297	3.0
75.312	4.0
75.327	0.0
75.342	2.0
75.357	6.0
75.372	0.0
75.387	1.0
75.403	1.0
75.418	5.0
75.433	2.0
75.448	3.0
75.463	2.0
75.478	2.0
75.493	0.0
75.509	10.0
75.524	3.0
75.539	7.0
75.554	4.0
75.569	5.0
75.584	5.0
75.599	1.0
75.614	6.0
75.63	5.0
75.645	3.0
75.66	4.0
75.675	3.0
75.69	5.0
75.705	2.0
75.72	1.0
75.735	6.0
75.751	2.0
75.766	2.0
75.781	2.0
75.796	5.0
75.811	3.0
75.826	4.0
75.841	4.0
75.856	3.0
75.872	5.0
75.887	3.0
75.902	3.0
75.917	3.0
75.932	4.0
75.947	4.0
75.962	0.0
75.977	1.0
75.993	3.0
76.008	1.0
76.023	4.0
76.038	2.0
76.053	1.0
76.068	3.0
76.083	4.0
76.098	0.0
76.114	6.0
76.129	5.0
76.144	3.0
76.159	2.0
76.174	2.0
76.189	3.0
76.204	5.0
76.22	5.0
76.235	1.0
76.25	5.0
76.265	0.0
76.28	3.0
76.295	4.0
76.31	1.0
76.325	2.0
76.341	0.0
76.356	5.0
76.371	6.0
76.386	3.0
76.401	3.0
76.416	2.0
76.431	6.0
76.446	5.0
76.462	1.0
76.477	3.0
76.492	3.0
76.507	3.0
76.522	3.0
76.537	2.0
76.552	1.0
76.567	2.0
76.583	5.0
76.598	3.0
76.613	2.0
76.628	1.0
76.643	4.0
76.658	4.0
76.673	2.0
76.688	3.0
76.704	4.0
76.719	5.0
76.734	2.0
76.749	4.0
76.764	5.0
76.779	5.0
76.794	3.0
76.809	4.0
76.824	4.0
76.84	5.0
76.855	5.0
76.87	3.0
76.885	2.0
76.9	2.0
76.915	4.0
76.93	3.0
76.945	2.0
76.96	2.0
76.976	8.0
76.991	5.0
77.006	4.0
77.021	3.0
77.036	4.0
77.051	4.0
77.066	4.0
77.081	4.0
77.096	4.0
77.112	4.0
77.127	2.0
77.142	4.0
77.157	3.0
77.172	6.0
77.187	4.0
77.202	2.0
77.217	3.0
77.232	2.0
77.247	5.0
77.263	4.0
77.278	3.0
77.293	5.0
77.308	4.0
77.323	5.0
77.338	0.0
77.353	4.0
77.368	6.0
77.383	2.0
77.398	6.0
77.413	4.0
77.428	2.0
77.444	3.0
77.459	4.0
77.474	3.0
77.489	3.0
77.504	3.0
77.519	2.0
77.534	4.0
77.549	3.0
77.564	5.0
77.579	6.0
77.594	3.0
77.609	4.0
77.624	5.0
77.64	6.0
77.655	7.0
77.67	0.0
77.685	3.0
77.7	4.0
77.715	2.0
77.73	3.0
77.745	3.0
77.76	4.0
77.775	2.0
77.79	1.0
77.805	2.0
77.82	2.0
77.835	1.0
77.85	2.0
77.865	3.0
77.88	5.0
77.895	4.0
77.91	5.0
77.926	4.0
77.941	6.0
77.956	4.0
77.971	2.0
77.986	0.0
78.001	3.0
78.016	3.0
78.031	2.0
78.046	4.0
78.061	1.0
78.076	4.0
78.091	0.0
78.106	3.0
78.121	3.0
78.136	7.0
78.151	6.0
78.166	1.0
78.181	9.0
78.196	5.0
78.211	3.0
78.226	4.0
78.241	7.0
78.256	4.0
78.271	0.0
78.286	6.0
78.301	3.0
78.316	2.0
78.331	0.0
78.346	2.0
78.361	2.0
78.376	1.0
78.391	4.0
78.406	1.0
78.421	2.0
78.436	3.0
78.451	3.0
78.466	3.0
78.481	2.0
78.496	3.0
78.511	2.0
78.526	1.0
78.541	2.0
78.556	1.0
78.571	1.0
78.586	1.0
78.601	1.0
78.616	1.0
78.631	2.0
78.646	1.0
78.661	2.0
78.676	1.0
78.691	7.0
78.706	5.0
78.721	2.0
78.736	3.0
78.751	3.0
78.766	3.0
78.781	4.0
78.796	3.0
78.811	3.0
78.826	0.0
78.841	3.0
78.856	4.0
78.871	2.0
78.885	1.0
78.9	1.0
78.915	1.0
78.93	4.0
78.945	5.0
78.96	1.0
78.975	2.0
78.99	4.0
79.005	5.0
79.02	0.0
79.035	1.0
79.05	2.0
79.065	1.0
79.08	5.0
79.095	3.0
79.11	4.0
79.125	4.0
79.14	1.0
79.155	1.0
79.17	4.0
79.185	1.0
79.2	3.0
79.215	1.0
79.23	5.0
79.245	2.0
79.26	5.0
79.275	1.0
79.29	5.0
79.304	3.0
79.319	4.0
79.334	8.0
79.349	2.0
79.364	4.0
79.379	5.0
79.394	2.0
79.409	3.0
79.424	3.0
79.439	2.0
79.454	2.0
79.469	4.0
79.484	2.0
79.499	3.0
79.514	2.0
79.529	2.0
79.544	5.0
79.559	3.0
79.574	3.0
79.589	6.0
79.604	4.0
79.619	0.0
79.634	2.0
79.649	6.0
79.664	3.0
79.679	2.0
79.693	1.0
79.708	4.0
79.723	1.0
79.738	5.0
79.753	3.0
79.768	3.0
79.783	4.0
79.798	5.0
79.813	4.0
79.828	3.0
79.843	3.0
79.858	2.0
79.873	3.0
79.888	3.0
79.903	6.0
79.918	1.0
79.933	5.0
79.948	7.0
79.963	3.0
79.978	3.0
79.993	9.0
80.008	4.0
80.023	1.0
80.038	2.0
80.053	5.0
80.068	2.0
80.083	2.0
80.098	4.0
80.113	3.0
80.128	2.0
80.143	2.0
80.158	3.0
80.173	2.0
80.188	2.0
80.202	4.0
80.217	3.0
80.232	5.0
80.247	5.0
80.262	2.0
80.277	4.0
80.292	4.0
80.307	2.0
80.322	4.0
80.337	4.0
80.352	4.0
80.367	10.0
80.382	1.0
80.397	3.0
80.412	2.0
80.427	1.0
80.442	5.0
80.457	2.0
80.472	3.0
80.487	3.0
80.502	4.0
80.517	6.0
80.532	1.0
80.547	2.0
80.562	5.0
80.577	2.0
80.592	6.0
80.607	1.0
80.622	0.0
80.637	2.0
80.652	4.0
80.667	4.0
80.682	3.0
80.697	1.0
80.712	4.0
80.727	2.0
80.742	9.0
80.757	4.0
80.772	3.0
80.787	6.0
80.802	3.0
80.817	5.0
80.832	5.0
80.847	6.0
80.862	2.0
80.877	4.0
80.892	2.0
80.907	3.0
80.922	3.0
80.937	3.0
80.952	5.0
80.967	5.0
80.982	2.0
80.997	5.0
81.012	1.0
81.027	2.0
81.042	5.0
81.057	3.0
81.072	3.0
81.087	3.0
81.101	6.0
81.116	5.0
81.131	4.0
81.146	2.0
81.161	5.0
81.176	0.0
81.191	5.0
81.206	5.0
81.221	5.0
81.236	3.0
81.251	4.0
81.266	2.0
81.281	2.0
81.296	4.0
81.311	3.0
81.326	3.0
81.341	4.0
81.356	2.0
81.371	5.0
81.386	2.0
81.401	2.0
81.416	3.0
81.431	2.0
81.446	2.0
81.461	2.0
81.476	1.0
81.491	0.0
81.506	5.0
81.521	2.0
81.536	3.0
81.55	5.0
81.565	4.0
81.58	5.0
81.595	3.0
81.61	4.0
81.625	3.0
81.64	3.0
81.655	2.0
81.67	3.0
81.685	1.0
81.7	6.0
81.715	3.0
81.73	5.0
81.745	4.0
81.76	4.0
81.775	4.0
81.79	5.0
81.805	7.0
81.819	6.0
81.834	7.0
81.849	6.0
81.864	6.0
81.879	5.0
81.894	6.0
81.909	2.0
81.924	6.0
81.939	3.0
81.954	4.0
81.969	1.0
81.984	1.0
81.999	4.0
82.013	4.0
82.028	1.0
82.043	4.0
82.058	5.0
82.073	1.0
82.088	1.0
82.103	1.0
82.118	3.0
82.133	1.0
82.148	9.0
82.163	3.0
82.177	5.0
82.192	2.0
82.207	2.0
82.222	4.0
82.237	3.0
82.252	5.0
82.267	2.0
82.282	1.0
82.297	2.0
82.312	3.0
82.326	6.0
82.341	0.0
82.356	6.0
82.371	3.0
82.386	3.0
82.401	2.0
82.416	3.0
82.431	2.0
82.445	1.0
82.46	3.0
82.475	4.0
82.49	8.0
82.505	3.0
82.52	3.0
82.535	3.0
82.55	2.0
82.565	5.0
82.579	1.0
82.594	4.0
82.609	1.0
82.624	1.0
82.639	2.0
82.654	4.0
82.669	3.0
82.684	6.0
82.698	3.0
82.713	2.0
82.728	2.0
82.743	2.0
82.758	1.0
82.773	3.0
82.788	1.0
82.803	13.0
82.817	1.0
82.832	6.0
82.847	2.0
82.862	0.0
82.877	5.0
82.892	6.0
82.907	3.0
82.922	1.0
82.937	6.0
82.951	2.0
82.966	2.0
82.981	4.0
82.996	4.0
83.011	1.0
83.026	1.0
83.041	1.0
83.056	3.0
83.07	5.0
83.085	3.0
83.1	3.0
83.115	1.0
83.13	3.0
83.145	2.0
83.16	6.0
83.175	3.0
83.19	2.0
83.204	2.0
83.219	1.0
83.234	2.0
83.249	6.0
83.264	3.0
83.279	0.0
83.294	6.0
83.309	1.0
83.324	9.0
83.339	2.0
83.353	4.0
83.368	2.0
83.383	6.0
83.398	5.0
83.413	4.0
83.428	6.0
83.443	5.0
83.458	3.0
83.473	2.0
83.488	3.0
83.503	2.0
83.517	0.0
83.532	3.0
83.547	4.0
83.562	0.0
83.577	2.0
83.592	3.0
83.607	3.0
83.622	4.0
83.637	3.0
83.652	7.0
83.667	3.0
83.682	0.0
83.697	5.0
83.712	4.0
83.727	5.0
83.741	7.0
83.756	4.0
83.771	4.0
83.786	2.0
83.801	0.0
83.816	6.0
83.831	1.0
83.846	2.0
83.861	2.0
83.876	5.0
83.891	0.0
83.906	3.0
83.921	4.0
83.936	4.0
83.951	5.0
83.966	5.0
83.981	3.0
83.996	6.0
84.011	1.0
84.026	2.0
84.041	4.0
84.056	3.0
84.071	2.0
84.086	3.0
84.101	0.0
84.116	4.0
84.131	2.0
84.146	3.0
84.161	1.0
84.176	1.0
84.191	2.0
84.206	2.0
84.221	5.0
84.236	2.0
84.251	3.0
84.266	3.0
84.281	1.0
84.296	3.0
84.311	1.0
84.326	4.0
84.341	2.0
84.356	4.0
84.371	5.0
84.386	2.0
84.401	6.0
84.416	4.0
84.431	4.0
84.446	4.0
84.461	2.0
84.476	2.0
84.492	2.0
84.507	0.0
84.522	2.0
84.537	2.0
84.552	3.0
84.567	1.0
84.582	2.0
84.597	5.0
84.612	7.0
84.627	3.0
84.642	1.0
84.657	5.0
84.672	2.0
84.687	5.0
84.702	2.0
84.717	7.0
84.733	3.0
84.748	2.0
84.763	3.0
84.778	0.0
84.793	3.0
84.808	4.0
84.823	8.0
84.838	6.0
84.853	4.0
84.868	2.0
84.883	4.0
84.898	1.0
84.913	6.0
84.929	6.0
84.944	3.0
84.959	7.0
84.974	2.0
84.989	6.0
85.004	2.0
85.019	1.0
85.034	2.0
85.049	4.0
85.064	5.0
85.079	3.0
85.094	2.0
85.11	3.0
85.125	4.0
85.14	0.0
85.155	2.0
85.17	1.0
85.185	5.0
85.2	3.0
85.215	3.0
85.23	2.0
85.245	4.0
85.26	5.0
85.276	6.0
85.291	5.0
85.306	3.0
85.321	1.0
85.336	4.0
85.351	4.0
85.366	1.0
85.381	1.0
85.396	2.0
85.411	5.0
85.426	6.0
85.441	2.0
85.457	5.0
85.472	0.0
85.487	3.0
85.502	1.0
85.517	1.0
85.532	3.0
85.547	5.0
85.562	0.0
85.577	5.0
85.592	2.0
85.607	2.0
85.622	4.0
85.637	4.0
85.653	4.0
85.668	0.0
85.683	4.0
85.698	3.0
85.713	3.0
85.728	0.0
85.743	2.0
85.758	1.0
85.773	2.0
85.788	5.0
85.803	3.0
85.818	7.0
85.833	1.0
85.848	1.0
85.863	2.0
85.879	2.0
85.894	3.0
85.909	4.0
85.924	2.0
85.939	2.0
85.954	1.0
85.969	4.0
85.984	2.0
85.999	4.0
86.014	3.0
86.029	6.0
86.044	3.0
86.059	2.0
86.074	1.0
86.089	0.0
86.104	2.0
86.119	1.0
86.134	3.0
86.149	1.0
86.164	4.0
86.179	1.0
86.194	5.0
86.209	6.0
86.224	2.0
86.239	2.0
86.254	1.0
86.269	3.0
86.284	1.0
86.299	2.0
86.314	2.0
86.33	8.0
86.345	3.0
86.36	7.0
86.375	3.0
86.39	4.0
86.405	1.0
86.42	2.0
86.435	1.0
86.45	6.0
86.465	2.0
86.48	4.0
86.495	1.0
86.51	1.0
86.525	2.0
86.54	5.0
86.555	4.0
86.57	2.0
86.585	2.0
86.6	3.0
86.615	1.0
86.63	1.0
86.645	4.0
86.659	5.0
86.674	0.0
86.689	4.0
86.704	3.0
86.719	3.0
86.734	3.0
86.749	2.0
86.764	1.0
86.779	1.0
86.794	2.0
86.809	6.0
86.824	5.0
86.839	1.0
86.854	2.0
86.869	5.0
86.884	4.0
86.899	3.0
86.914	3.0
86.929	5.0
86.944	4.0
86.959	6.0
86.974	2.0
86.989	7.0
87.004	3.0
87.019	4.0
87.034	2.0
87.049	3.0
87.064	4.0
87.079	3.0
87.094	3.0
87.109	5.0
87.124	2.0
87.139	1.0
87.154	1.0
87.169	3.0
87.184	1.0
87.199	1.0
87.214	4.0
87.229	2.0
87.244	2.0
87.259	1.0
87.274	1.0
87.289	7.0
87.304	2.0
87.319	3.0
87.334	1.0
87.349	3.0
87.364	5.0
87.379	1.0
87.394	3.0
87.409	1.0
87.424	6.0
87.438	6.0
87.453	2.0
87.468	2.0
87.483	4.0
87.498	1.0
87.513	0.0
87.528	3.0
87.543	5.0
87.558	4.0
87.573	5.0
87.588	3.0
87.603	6.0
87.618	4.0
87.633	3.0
87.648	2.0
87.663	3.0
87.678	3.0
87.693	1.0
87.708	3.0
87.723	4.0
87.738	3.0
87.753	5.0
87.768	5.0
87.783	4.0
87.798	3.0
87.813	3.0
87.828	3.0
87.843	4.0
87.858	3.0
87.873	1.0
87.888	3.0
87.903	3.0
87.918	7.0
87.933	4.0
87.948	1.0
87.963	1.0
87.978	6.0
87.993	1.0
88.008	1.0
88.023	2.0
88.038	2.0
88.053	4.0
88.068	3.0
88.083	7.0
88.098	2.0
88.113	5.0
88.128	3.0
88.143	5.0
88.158	3.0
88.174	3.0
88.189	3.0
88.204	4.0
88.219	4.0
88.234	7.0
88.249	1.0
88.264	1.0
88.279	2.0
88.294	4.0
88.309	3.0
88.324	7.0
88.339	3.0
88.354	2.0
88.369	3.0
88.384	3.0
88.399	1.0
88.414	4.0
88.429	4.0
88.444	5.0
88.459	6.0
88.474	3.0
88.489	3.0
88.504	0.0
88.519	4.0
88.534	2.0
88.549	2.0
88.564	5.0
88.58	2.0
88.595	5.0
88.61	5.0
88.625	8.0
88.64	1.0
88.655	1.0
88.67	4.0
88.685	7.0
88.7	2.0
88.715	1.0
88.73	5.0
88.745	2.0
88.76	0.0
88.775	1.0
88.79	1.0
88.805	1.0
88.82	0.0
88.835	5.0
88.85	3.0
88.865	2.0
88.88	4.0
88.895	1.0
88.911	1.0
88.926	1.0
88.941	0.0
88.956	4.0
88.971	1.0
88.986	3.0
89.001	3.0
89.016	4.0
89.031	3.0
89.046	2.0
89.061	3.0
89.076	2.0
89.091	3.0
89.106	3.0
89.121	4.0
89.136	1.0
89.151	5.0
89.166	5.0
89.181	3.0
89.196	5.0
89.211	3.0
89.227	0.0
89.242	3.0
89.257	3.0
89.272	4.0
89.287	2.0
89.302	2.0
89.317	4.0
89.332	5.0
89.347	2.0
89.362	2.0
89.377	5.0
89.392	2.0
89.407	4.0
89.422	2.0
89.437	3.0
89.452	2.0
89.467	6.0
89.482	2.0
89.497	3.0
89.512	3.0
89.527	3.0
89.542	2.0
89.557	1.0
89.572	2.0
89.587	3.0
89.602	4.0
89.617	5.0
89.632	0.0
89.647	1.0
89.662	1.0
89.677	2.0
89.693	3.0
89.708	3.0
89.723	1.0
89.738	3.0
89.753	2.0
89.768	3.0
89.783	2.0
89.798	4.0
89.813	3.0
89.828	2.0
89.843	1.0
89.858	0.0
89.873	6.0
89.888	2.0
89.903	2.0
89.918	2.0
89.933	4.0
89.948	2.0
89.963	4.0
89.978	2.0
89.993	5.0
90.008	1.0
90.023	5.0
90.038	2.0
90.053	3.0
90.068	3.0
90.083	3.0
90.097	3.0
90.112	3.0
90.127	4.0
90.142	3.0
90.157	7.0
90.172	5.0
90.187	2.0
90.202	3.0
90.217	4.0
90.232	6.0
90.247	8.0
90.262	4.0
90.277	3.0
90.292	4.0
90.307	3.0
90.322	4.0
90.337	7.0
90.352	6.0
90.367	3.0
90.382	3.0
90.397	3.0
90.412	2.0
90.427	2.0
90.442	4.0
90.457	5.0
90.472	0.0
90.487	1.0
90.501	4.0
90.516	6.0
90.531	1.0
90.546	5.0
90.561	4.0
90.576	3.0
90.591	2.0
90.606	3.0
90.621	3.0
90.636	2.0
90.651	1.0
90.666	4.0
90.681	2.0
90.696	5.0
90.711	4.0
90.726	6.0
90.741	4.0
90.755	2.0
90.77	2.0
90.785	1.0
90.8	3.0
90.815	3.0
90.83	4.0
90.845	2.0
90.86	2.0
90.875	3.0
90.89	3.0
90.905	3.0
90.92	2.0
90.935	3.0
90.95	5.0
90.965	2.0
90.979	4.0
90.994	5.0
91.009	4.0
91.024	3.0
91.039	4.0
91.054	2.0
91.069	4.0
91.084	5.0
91.099	3.0
91.114	4.0
91.129	1.0
91.144	3.0
91.159	5.0
91.174	1.0
91.188	1.0
91.203	5.0
91.218	7.0
91.233	3.0
91.248	4.0
91.263	1.0
91.278	1.0
91.293	1.0
91.308	1.0
91.323	1.0
91.338	4.0
91.353	1.0
91.368	2.0
91.383	4.0
91.398	2.0
91.412	3.0
91.427	4.0
91.442	2.0
91.457	2.0
91.472	3.0
91.487	5.0
91.502	2.0
91.517	1.0
91.532	3.0
91.547	3.0
91.562	5.0
91.577	5.0
91.592	5.0
91.607	1.0
91.622	3.0
91.637	2.0
91.652	4.0
91.666	4.0
91.681	1.0
91.696	3.0
91.711	5.0
91.726	2.0
91.741	2.0
91.756	2.0
91.771	0.0
91.786	6.0
91.801	3.0
91.816	4.0
91.831	3.0
91.846	3.0
91.861	3.0
91.876	3.0
91.891	7.0
91.906	2.0
91.921	1.0
91.936	3.0
91.951	3.0
91.966	3.0
91.981	4.0
91.995	5.0
92.01	1.0
92.025	4.0
92.04	2.0
92.055	2.0
92.07	2.0
92.085	3.0
92.1	1.0
92.115	3.0
92.13	3.0
92.145	3.0
92.16	2.0
92.175	3.0
92.19	2.0
92.205	1.0
92.22	1.0
92.235	3.0
92.25	6.0
92.265	6.0
92.28	5.0
92.295	1.0
92.31	2.0
92.325	5.0
92.34	4.0
92.355	4.0
92.37	1.0
92.385	5.0
92.4	4.0
92.415	2.0
92.43	3.0
92.445	3.0
92.46	2.0
92.475	0.0
92.49	3.0
92.505	3.0
92.52	2.0
92.535	1.0
92.55	4.0
92.565	2.0
92.58	2.0
92.595	4.0
92.61	9.0
92.625	3.0
92.64	4.0
92.655	3.0
92.67	4.0
92.685	2.0
92.7	2.0
92.715	4.0
92.73	3.0
92.745	5.0
92.76	1.0
92.775	2.0
92.79	2.0
92.805	4.0
92.82	4.0
92.835	3.0
92.85	4.0
92.865	4.0
92.88	2.0
92.895	0.0
92.91	2.0
92.925	3.0
92.94	3.0
92.955	5.0
92.97	2.0
92.985	3.0
93.0	4.0
93.015	3.0
93.03	2.0
93.045	1.0
93.06	3.0
93.075	3.0
93.09	1.0
93.105	7.0
93.12	1.0
93.135	5.0
93.15	4.0
93.165	2.0
93.18	3.0
93.195	1.0
93.21	3.0
93.225	5.0
93.24	4.0
93.255	4.0
93.27	1.0
93.285	4.0
93.3	2.0
93.315	2.0
93.33	2.0
93.345	3.0
93.36	10.0
93.375	4.0
93.39	4.0
93.405	1.0
93.42	7.0
93.435	5.0
93.45	5.0
93.465	1.0
93.48	6.0
93.495	6.0
93.51	5.0
93.525	4.0
93.54	1.0
93.555	3.0
93.57	9.0
93.585	3.0
93.6	6.0
93.615	2.0
93.63	6.0
93.645	2.0
93.66	2.0
93.675	6.0
93.69	3.0
93.705	1.0
93.72	0.0
93.735	3.0
93.75	3.0
93.765	3.0
93.78	3.0
93.795	2.0
93.81	1.0
93.824	2.0
93.839	1.0
93.854	3.0
93.869	4.0
93.884	5.0
93.899	5.0
93.914	3.0
93.929	2.0
93.944	3.0
93.959	1.0
93.974	5.0
93.989	3.0
94.004	2.0
94.019	0.0
94.034	4.0
94.049	4.0
94.064	6.0
94.079	4.0
94.094	2.0
94.108	1.0
94.123	6.0
94.138	1.0
94.153	6.0
94.168	7.0
94.183	0.0
94.198	4.0
94.213	3.0
94.228	4.0
94.243	7.0
94.258	3.0
94.273	4.0
94.288	3.0
94.302	5.0
94.317	5.0
94.332	5.0
94.347	1.0
94.362	8.0
94.377	8.0
94.392	4.0
94.407	7.0
94.422	7.0
94.437	7.0
94.452	2.0
94.466	5.0
94.481	10.0
94.496	5.0
94.511	3.0
94.526	5.0
94.541	1.0
94.556	2.0
94.571	3.0
94.586	3.0
94.601	0.0
94.615	0.0
94.63	3.0
94.645	4.0
94.66	6.0
94.675	3.0
94.69	6.0
94.705	2.0
94.72	3.0
94.735	4.0
94.749	5.0
94.764	2.0
94.779	1.0
94.794	4.0
94.809	1.0
94.824	4.0
94.839	0.0
94.854	2.0
94.868	2.0
94.883	4.0
94.898	6.0
94.913	3.0
94.928	4.0
94.943	4.0
94.958	4.0
94.973	2.0
94.987	5.0
95.002	2.0
95.017	1.0
95.032	7.0
95.047	5.0
95.062	2.0
95.077	4.0
95.092	0.0
95.106	6.0
95.121	1.0
95.136	7.0
95.151	5.0
95.166	5.0
95.181	6.0
95.196	5.0
95.211	4.0
95.226	9.0
95.24	1.0
95.255	3.0
95.27	6.0
95.285	2.0
95.3	3.0
95.315	3.0
95.33	3.0
95.345	3.0
95.359	5.0
95.374	4.0
95.389	1.0
95.404	4.0
95.419	5.0
95.434	2.0
95.449	3.0
95.464	2.0
95.478	2.0
95.493	2.0
95.508	2.0
95.523	3.0
95.538	4.0
95.553	2.0
95.568	2.0
95.583	3.0
95.597	3.0
95.612	2.0
95.627	1.0
95.642	1.0
95.657	3.0
95.672	3.0
95.687	3.0
95.702	2.0
95.717	0.0
95.731	6.0
95.746	1.0
95.761	3.0
95.776	1.0
95.791	2.0
95.806	2.0
95.821	4.0
95.836	6.0
95.851	3.0
95.866	4.0
95.88	5.0
95.895	1.0
95.91	4.0
95.925	2.0
95.94	2.0
95.955	3.0
95.97	4.0
95.985	4.0
96.0	3.0
96.015	5.0
96.029	5.0
96.044	1.0
96.059	5.0
96.074	3.0
96.089	4.0
96.104	5.0
96.119	3.0
96.134	3.0
96.149	7.0
96.164	2.0
96.179	7.0
96.194	3.0
96.208	5.0
96.223	3.0
96.238	3.0
96.253	3.0
96.268	4.0
96.283	1.0
96.298	4.0
96.313	3.0
96.328	1.0
96.343	5.0
96.358	5.0
96.373	8.0
96.388	2.0
96.403	4.0
96.417	3.0
96.432	1.0
96.447	6.0
96.462	5.0
96.477	0.0
96.492	1.0
96.507	5.0
96.522	4.0
96.537	3.0
96.552	0.0
96.567	3.0
96.582	8.0
96.597	8.0
96.612	2.0
96.627	5.0
96.642	2.0
96.656	5.0
96.671	2.0
96.686	4.0
96.701	2.0
96.716	3.0
96.731	3.0
96.746	6.0
96.761	3.0
96.776	6.0
96.791	3.0
96.806	3.0
96.821	4.0
96.836	2.0
96.851	8.0
96.866	4.0
96.881	2.0
96.896	1.0
96.911	3.0
96.926	4.0
96.94	1.0
96.955	2.0
96.97	4.0
96.985	6.0
97.0	7.0
97.015	5.0
97.03	4.0
97.045	8.0
97.06	1.0
97.075	3.0
97.09	7.0
97.105	3.0
97.12	3.0
97.135	5.0
97.15	1.0
97.165	1.0
97.18	3.0
97.195	3.0
97.21	3.0
97.225	1.0
97.239	1.0
97.254	2.0
97.269	4.0
97.284	3.0
97.299	3.0
97.314	1.0
97.329	1.0
97.344	5.0
97.359	2.0
97.374	2.0
97.389	3.0
97.404	4.0
97.419	5.0
97.434	1.0
97.449	2.0
97.464	2.0
97.479	1.0
97.494	4.0
97.509	4.0
97.524	0.0
97.538	4.0
97.553	2.0
97.568	3.0
97.583	8.0
97.598	0.0
97.613	6.0
97.628	4.0
97.643	6.0
97.658	3.0
97.673	2.0
97.688	3.0
97.703	4.0
97.718	5.0
97.733	5.0
97.748	7.0
97.763	2.0
97.778	4.0
97.792	3.0
97.807	5.0
97.822	3.0
97.837	5.0
97.852	3.0
97.867	4.0
97.882	4.0
97.897	0.0
97.912	5.0
97.927	4.0
97.942	1.0
97.957	4.0
97.972	2.0
97.987	2.0
98.001	3.0
98.016	7.0
98.031	2.0
98.046	3.0
98.061	3.0
98.076	6.0
98.091	3.0
98.106	6.0
98.121	3.0
98.136	2.0
98.151	1.0
98.166	2.0
98.181	4.0
98.195	4.0
98.21	6.0
98.225	3.0
98.24	5.0
98.255	0.0
98.27	5.0
98.285	3.0
98.3	4.0
98.315	5.0
98.33	2.0
98.345	2.0
98.359	2.0
98.374	5.0
98.389	2.0
98.404	1.0
98.419	0.0
98.434	3.0
98.449	3.0
98.464	7.0
98.479	2.0
98.494	4.0
98.508	3.0
98.523	5.0
98.538	3.0
98.553	0.0
98.568	6.0
98.583	2.0
98.598	4.0
98.613	3.0
98.628	5.0
98.642	3.0
98.657	0.0
98.672	5.0
98.687	4.0
98.702	2.0
98.717	2.0
98.732	5.0
98.747	6.0
98.762	2.0
98.776	2.0
98.791	4.0
98.806	1.0
98.821	5.0
98.836	3.0
98.851	3.0
98.866	1.0
98.881	2.0
98.896	5.0
98.91	4.0
98.925	1.0
98.94	5.0
98.955	3.0
98.97	2.0
98.985	3.0
99.0	5.0
99.015	4.0
99.029	1.0
99.044	0.0
99.059	5.0
99.074	3.0
99.089	2.0
99.104	2.0
99.119	4.0
99.133	4.0
99.148	3.0
99.163	8.0
99.178	3.0
99.193	2.0
99.208	4.0
99.223	2.0
99.238	2.0
99.252	2.0
99.267	3.0
99.282	2.0
99.297	2.0
99.312	2.0
99.327	4.0
99.342	2.0
99.356	2.0
99.371	2.0
99.386	2.0
99.401	5.0
99.416	8.0
99.431	3.0
99.446	5.0
99.461	3.0
99.475	0.0
99.49	2.0
99.505	8.0
99.52	2.0
99.535	2.0
99.55	0.0
99.565	2.0
99.579	2.0
99.594	4.0
99.609	3.0
99.624	3.0
99.639	4.0
99.654	3.0
99.669	5.0
99.683	2.0
99.698	4.0
99.713	4.0
99.728	1.0
99.743	4.0
99.758	0.0
99.772	2.0
99.787	2.0
99.802	1.0
99.817	0.0
99.832	0.0
99.847	2.0
99.862	4.0
99.876	2.0
99.891	2.0
99.906	5.0
99.921	4.0
99.936	2.0
99.951	1.0
99.966	4.0
99.98	2.0
99.995	5.0
100.01	3.0
100.025	4.0
100.04	3.0
100.055	3.0
100.069	6.0
100.084	3.0
100.099	2.0
100.114	5.0
100.129	5.0
100.144	2.0
100.159	3.0
100.173	5.0
100.188	8.0
100.203	4.0
100.218	1.0
100.233	4.0
100.248	5.0
100.262	3.0
100.277	7.0
100.292	2.0
100.307	7.0
100.322	3.0
100.337	2.0
100.351	1.0
100.366	2.0
100.381	6.0
100.396	3.0
100.411	3.0
100.426	4.0
100.441	4.0
100.455	5.0
100.47	4.0
100.485	3.0
100.5	7.0
100.515	6.0
100.53	4.0
100.544	4.0
100.559	0.0
100.574	1.0
100.589	1.0
100.604	1.0
100.619	5.0
100.633	2.0
100.648	4.0
100.663	2.0
100.678	3.0
100.693	7.0
100.708	4.0
100.722	7.0
100.737	2.0
100.752	5.0
100.767	3.0
100.782	1.0
100.796	3.0
100.811	5.0
100.826	0.0
100.841	5.0
100.856	0.0
100.871	7.0
100.885	3.0
100.9	4.0
100.915	5.0
100.93	3.0
100.945	3.0
100.96	6.0
100.974	2.0
100.989	1.0
101.004	1.0
101.019	2.0
101.034	1.0
101.048	2.0
101.063	2.0
101.078	1.0
101.093	3.0
101.108	4.0
101.123	3.0
101.137	4.0
101.152	2.0
101.167	2.0
101.182	2.0
101.197	6.0
101.211	0.0
101.226	3.0
101.241	3.0
101.256	4.0
101.271	3.0
101.285	3.0
101.3	0.0
101.315	2.0
101.33	5.0
101.345	4.0
101.359	2.0
101.374	2.0
101.389	4.0
101.404	7.0
101.419	4.0
101.433	4.0
101.448	0.0
101.463	4.0
101.478	6.0
101.493	4.0
101.507	3.0
101.522	4.0
101.537	0.0
101.552	3.0
101.567	1.0
101.581	2.0
101.596	2.0
101.611	2.0
101.626	6.0
101.64	1.0
101.655	5.0
101.67	6.0
101.685	3.0
101.7	4.0
101.714	0.0
101.729	4.0
101.744	1.0
101.759	2.0
101.773	1.0
101.788	3.0
101.803	1.0
101.818	0.0
101.833	4.0
101.847	3.0
101.862	4.0
101.877	4.0
101.892	4.0
101.906	1.0
101.921	4.0
101.936	3.0
101.951	6.0
101.965	1.0
101.98	3.0
101.995	3.0
102.01	3.0
102.025	3.0
102.039	3.0
102.054	3.0
102.069	4.0
102.084	1.0
102.098	4.0
102.113	6.0
102.128	3.0
102.143	6.0
102.157	2.0
102.172	3.0
102.187	3.0
102.202	4.0
102.216	4.0
102.231	5.0
102.246	0.0
102.261	0.0
102.275	8.0
102.29	3.0
102.305	3.0
102.32	1.0
102.334	1.0
102.349	5.0
102.364	2.0
102.378	3.0
102.393	2.0
102.408	5.0
102.423	4.0
102.437	2.0
102.452	5.0
102.467	2.0
102.482	4.0
102.496	6.0
102.511	2.0
102.526	3.0
102.541	3.0
102.555	2.0
102.57	3.0
102.585	2.0
102.6	3.0
102.614	2.0
102.629	1.0
102.644	3.0
102.659	3.0
102.673	4.0
102.688	6.0
102.703	3.0
102.717	6.0
102.732	5.0
102.747	6.0
102.762	4.0
102.776	2.0
102.791	3.0
102.806	2.0
102.821	5.0
102.835	1.0
102.85	3.0
102.865	1.0
102.88	4.0
102.894	3.0
102.909	4.0
102.924	3.0
102.938	3.0
102.953	5.0
102.968	3.0
102.983	3.0
102.997	2.0
103.012	6.0
103.027	4.0
103.042	0.0
103.056	1.0
103.071	5.0
103.086	2.0
103.101	4.0
103.115	1.0
103.13	3.0
103.145	4.0
103.16	3.0
103.174	2.0
103.189	3.0
103.204	3.0
103.219	4.0
103.233	1.0
103.248	4.0
103.263	5.0
103.278	3.0
103.292	2.0
103.307	1.0
103.322	4.0
103.337	2.0
103.351	2.0
103.366	4.0
103.381	5.0
103.396	0.0
103.41	9.0
103.425	1.0
103.44	6.0
103.455	3.0
103.469	5.0
103.484	8.0
103.499	1.0
103.514	0.0
103.529	2.0
103.543	3.0
103.558	2.0
103.573	0.0
103.588	2.0
103.602	1.0
103.617	2.0
103.632	4.0
103.647	2.0
103.661	3.0
103.676	8.0
103.691	4.0
103.706	1.0
103.721	1.0
103.735	2.0
103.75	1.0
103.765	1.0
103.78	8.0
103.795	3.0
103.809	3.0
103.824	6.0
103.839	4.0
103.854	1.0
103.869	1.0
103.883	5.0
103.898	1.0
103.913	5.0
103.928	3.0
103.943	7.0
103.957	0.0
103.972	3.0
103.987	2.0
104.002	3.0
104.017	1.0
104.031	6.0
104.046	5.0
104.061	2.0
104.076	5.0
104.091	4.0
104.106	2.0
104.12	4.0
104.135	3.0
104.15	1.0
104.165	5.0
104.18	3.0
104.195	3.0
104.209	1.0
104.224	4.0
104.239	3.0
104.254	3.0
104.269	7.0
104.284	4.0
104.299	3.0
104.313	5.0
104.328	4.0
104.343	3.0
104.358	4.0
104.373	3.0
104.388	3.0
104.403	4.0
104.417	2.0
104.432	2.0
104.447	4.0
104.462	2.0
104.477	3.0
104.492	2.0
104.507	5.0
104.522	1.0
104.536	5.0
104.551	5.0
104.566	2.0
104.581	3.0
104.596	5.0
104.611	2.0
104.626	3.0
104.641	0.0
104.656	4.0
104.67	4.0
104.685	6.0
104.7	4.0
104.715	0.0
104.73	1.0
104.745	1.0
104.76	2.0
104.775	2.0
104.79	4.0
104.804	3.0
104.819	5.0
104.834	2.0
104.849	4.0
104.864	1.0
104.879	7.0
104.894	1.0
104.909	3.0
104.924	4.0
104.939	4.0
104.954	0.0
104.968	3.0
104.983	5.0
104.998	1.0
105.013	1.0
105.028	5.0
105.043	1.0
105.058	3.0
105.073	3.0
105.088	1.0
105.103	4.0
105.118	3.0
105.133	1.0
105.147	5.0
105.162	4.0
105.177	4.0
105.192	2.0
105.207	2.0
105.222	2.0
105.237	2.0
105.252	2.0
105.267	3.0
105.282	5.0
105.297	1.0
105.312	2.0
105.327	2.0
105.342	4.0
105.356	2.0
105.371	3.0
105.386	2.0
105.401	2.0
105.416	5.0
105.431	1.0
105.446	4.0
105.461	4.0
105.476	3.0
105.491	3.0
105.506	3.0
105.521	5.0
105.536	3.0
105.551	2.0
105.566	4.0
105.581	7.0
105.595	2.0
105.61	2.0
105.625	2.0
105.64	5.0
105.655	3.0
105.67	7.0
105.685	4.0
105.7	1.0
105.715	2.0
105.73	4.0
105.745	2.0
105.76	0.0
105.775	2.0
105.79	5.0
105.805	3.0
105.82	4.0
105.835	2.0
105.85	4.0
105.864	5.0
105.879	2.0
105.894	4.0
105.909	4.0
105.924	2.0
105.939	3.0
105.954	4.0
105.969	5.0
105.984	5.0
105.999	2.0
106.014	2.0
106.029	5.0
106.044	1.0
106.059	4.0
106.074	2.0
106.089	1.0
106.104	3.0
106.119	2.0
106.134	5.0
106.148	1.0
106.163	3.0
106.178	4.0
106.193	6.0
106.208	3.0
106.223	3.0
106.238	5.0
106.253	3.0
106.268	2.0
106.283	1.0
106.298	3.0
106.313	2.0
106.328	4.0
106.343	3.0
106.358	3.0
106.373	2.0
106.388	4.0
106.403	6.0
106.418	3.0
106.432	1.0
106.447	2.0
106.462	5.0
106.477	5.0
106.492	2.0
106.507	4.0
106.522	3.0
106.537	0.0
106.552	3.0
106.567	4.0
106.582	6.0
106.597	6.0
106.612	3.0
106.627	1.0
106.642	1.0
106.657	2.0
106.672	2.0
106.687	2.0
106.701	8.0
106.716	2.0
106.731	4.0
106.746	1.0
106.761	3.0
106.776	6.0
106.791	2.0
106.806	3.0
106.821	6.0
106.836	5.0
106.851	4.0
106.866	5.0
106.881	5.0
106.896	5.0
106.911	5.0
106.926	5.0
106.941	3.0
106.955	0.0
106.97	1.0
106.985	4.0
107.0	0.0
107.015	1.0
107.03	5.0
107.045	3.0
107.06	3.0
107.075	4.0
107.09	2.0
107.105	2.0
107.12	5.0
107.135	2.0
107.15	3.0
107.165	4.0
107.18	5.0
107.194	5.0
107.209	6.0
107.224	3.0
107.239	5.0
107.254	3.0
107.269	7.0
107.284	3.0
107.299	4.0
107.314	6.0
107.329	6.0
107.344	3.0
107.359	2.0
107.374	3.0
107.389	3.0
107.404	1.0
107.418	4.0
107.433	4.0
107.448	2.0
107.463	2.0
107.478	2.0
107.493	1.0
107.508	4.0
107.523	1.0
107.538	2.0
107.553	0.0
107.568	5.0
107.583	1.0
107.598	3.0
107.613	2.0
107.627	2.0
107.642	2.0
107.657	3.0
107.672	6.0
107.687	1.0
107.702	2.0
107.717	4.0
107.732	0.0
107.747	4.0
107.762	1.0
107.777	5.0
107.792	2.0
107.807	1.0
107.821	4.0
107.836	4.0
107.851	3.0
107.866	3.0
107.881	2.0
107.896	4.0
107.911	4.0
107.926	4.0
107.941	2.0
107.956	5.0
107.971	8.0
107.986	6.0
108.0	7.0
108.015	5.0
108.03	5.0
108.045	5.0
108.06	6.0
108.075	3.0
108.09	5.0
108.105	5.0
108.12	5.0
108.135	5.0
108.15	1.0
108.164	4.0
108.179	7.0
108.194	3.0
108.209	6.0
108.224	5.0
108.239	4.0
108.254	0.0
108.269	4.0
108.284	3.0
108.299	2.0
108.313	3.0
108.328	2.0
108.343	0.0
108.358	0.0
108.373	1.0
108.388	2.0
108.403	4.0
108.418	5.0
108.433	1.0
108.448	4.0
108.462	1.0
108.477	4.0
108.492	5.0
108.507	4.0
108.522	5.0
108.537	3.0
108.552	4.0
108.567	4.0
108.582	2.0
108.597	5.0
108.611	4.0
108.626	1.0
108.641	0.0
108.656	6.0
108.671	5.0
108.686	1.0
108.701	0.0
108.716	1.0
108.731	6.0
108.745	4.0
108.76	6.0
108.775	1.0
108.79	0.0
108.805	3.0
108.82	2.0
108.835	3.0
108.85	8.0
108.865	3.0
108.879	3.0
108.894	5.0
108.909	2.0
108.924	1.0
108.939	1.0
108.954	0.0
108.969	5.0
108.984	3.0
108.999	5.0
109.013	2.0
109.028	4.0
109.043	7.0
109.058	1.0
109.073	3.0
109.088	3.0
109.103	1.0
109.118	6.0
109.133	3.0
109.147	5.0
109.162	5.0
109.177	3.0
109.192	3.0
109.207	6.0
109.222	2.0
109.237	1.0
109.252	3.0
109.267	4.0
109.281	3.0
109.296	1.0
109.311	3.0
109.326	2.0
109.341	4.0
109.356	2.0
109.371	2.0
109.386	2.0
109.4	1.0
109.415	1.0
109.43	4.0
109.445	3.0
109.46	3.0
109.475	3.0
109.49	2.0
109.505	1.0
109.52	3.0
109.534	2.0
109.549	1.0
109.564	2.0
109.579	5.0
109.594	2.0
109.609	6.0
109.624	5.0
109.639	4.0
109.653	4.0
109.668	6.0
109.683	6.0
109.698	2.0
109.713	7.0
109.728	3.0
109.743	4.0
109.758	7.0
109.773	2.0
109.787	1.0
109.802	1.0
109.817	4.0
109.832	3.0
109.847	5.0
109.862	5.0
109.877	2.0
109.892	4.0
109.907	3.0
109.921	4.0
109.936	4.0
109.951	3.0
109.966	9.0
109.981	3.0
109.996	0.0
110.011	3.0
110.026	3.0
110.04	6.0
110.055	4.0
110.07	2.0
110.085	5.0
110.1	2.0
110.115	3.0
110.13	4.0
110.145	2.0
110.16	2.0
110.174	4.0
110.189	2.0
110.204	1.0
110.219	4.0
110.234	3.0
110.249	4.0
110.264	1.0
110.279	1.0
110.294	4.0
110.308	1.0
110.323	3.0
110.338	2.0
110.353	2.0
110.368	4.0
110.383	2.0
110.398	1.0
110.413	2.0
110.428	1.0
110.442	7.0
110.457	3.0
110.472	3.0
110.487	2.0
110.502	3.0
110.517	2.0
110.532	4.0
110.547	7.0
110.561	2.0
110.576	4.0
110.591	4.0
110.606	2.0
110.621	3.0
110.636	1.0
110.651	3.0
110.666	1.0
110.681	5.0
110.695	7.0
110.71	2.0
110.725	4.0
110.74	2.0
110.755	1.0
110.77	5.0
110.785	4.0
110.8	2.0
110.815	6.0
110.829	4.0
110.844	4.0
110.859	4.0
110.874	9.0
110.889	3.0
110.904	3.0
110.919	1.0
110.934	3.0
110.948	3.0
110.963	3.0
110.978	2.0
110.993	2.0
111.008	4.0
111.023	1.0
111.038	5.0
111.053	4.0
111.067	3.0
111.082	3.0
111.097	3.0
111.112	3.0
111.127	4.0
111.142	2.0
111.157	3.0
111.172	1.0
111.186	2.0
111.201	3.0
111.216	2.0
111.231	4.0
111.246	5.0
111.261	4.0
111.276	3.0
111.291	6.0
111.305	4.0
111.32	3.0
111.335	2.0
111.35	4.0
111.365	4.0
111.38	2.0
111.395	2.0
111.41	3.0
111.424	3.0
111.439	2.0
111.454	4.0
111.469	7.0
111.484	5.0
111.499	6.0
111.514	3.0
111.528	4.0
111.543	11.0
111.558	3.0
111.573	4.0
111.588	2.0
111.603	8.0
111.618	3.0
111.633	5.0
111.647	3.0
111.662	2.0
111.677	7.0
111.692	4.0
111.707	2.0
111.722	5.0
111.737	6.0
111.751	6.0
111.766	4.0
111.781	0.0
111.796	6.0
111.811	1.0
111.826	5.0
111.84	1.0
111.855	2.0
111.87	3.0
111.885	3.0
111.9	5.0
111.915	7.0
111.93	5.0
111.944	4.0
111.959	2.0
111.974	4.0
111.989	3.0
112.004	2.0
112.019	4.0
112.033	6.0
112.048	2.0
112.063	1.0
112.078	3.0
112.093	3.0
112.108	1.0
112.123	1.0
112.137	2.0
112.152	2.0
112.167	6.0
112.182	4.0
112.197	2.0
112.212	6.0
112.226	3.0
112.241	1.0
112.256	2.0
112.271	4.0
112.286	3.0
112.301	2.0
112.315	4.0
112.33	2.0
112.345	3.0
112.36	2.0
112.375	5.0
112.389	4.0
112.404	2.0
112.419	5.0
112.434	2.0
112.449	2.0
112.464	3.0
112.478	5.0
112.493	9.0
112.508	4.0
112.523	4.0
112.538	4.0
112.553	2.0
112.567	7.0
112.582	7.0
112.597	3.0
112.612	2.0
112.627	5.0
112.642	4.0
112.656	4.0
112.671	3.0
112.686	3.0
112.701	4.0
112.716	0.0
112.73	7.0
112.745	2.0
112.76	6.0
112.775	3.0
112.79	1.0
112.805	6.0
112.819	4.0
112.834	8.0
112.849	5.0
112.864	4.0
112.879	3.0
112.894	3.0
112.908	1.0
112.923	5.0
112.938	1.0
112.953	6.0
112.968	5.0
112.983	3.0
112.997	4.0
113.012	4.0
113.027	2.0
113.042	3.0
113.057	5.0
113.072	10.0
113.086	4.0
113.101	2.0
113.116	8.0
113.131	4.0
113.146	3.0
113.161	2.0
113.175	3.0
113.19	8.0
113.205	2.0
113.22	2.0
113.235	1.0
113.25	4.0
113.265	3.0
113.279	2.0
113.294	1.0
113.309	5.0
113.324	5.0
113.339	3.0
113.354	5.0
113.368	2.0
113.383	0.0
113.398	3.0
113.413	5.0
113.428	4.0
113.443	3.0
113.458	4.0
113.472	3.0
113.487	4.0
113.502	6.0
113.517	3.0
113.532	4.0
113.547	5.0
113.562	1.0
113.576	2.0
113.591	7.0
113.606	3.0
113.621	6.0
113.636	4.0
113.651	1.0
113.666	3.0
113.681	2.0
113.695	2.0
113.71	2.0
113.725	5.0
113.74	2.0
113.755	1.0
113.77	3.0
113.785	5.0
113.8	3.0
113.814	1.0
113.829	4.0
113.844	3.0
113.859	1.0
113.874	1.0
113.889	5.0
113.904	2.0
113.919	6.0
113.934	2.0
113.949	2.0
113.963	5.0
113.978	0.0
113.993	5.0
114.008	5.0
114.023	4.0
114.038	2.0
114.053	6.0
114.068	3.0
114.083	2.0
114.098	4.0
114.113	6.0
114.127	4.0
114.142	0.0
114.157	4.0
114.172	4.0
114.187	2.0
114.202	3.0
114.217	4.0
114.232	2.0
114.247	5.0
114.262	3.0
114.277	1.0
114.292	4.0
114.307	4.0
114.322	3.0
114.337	2.0
114.351	3.0
114.366	6.0
114.381	3.0
114.396	0.0
114.411	3.0
114.426	3.0
114.441	2.0
114.456	4.0
114.471	1.0
114.486	5.0
114.501	4.0
114.516	5.0
114.531	3.0
114.546	7.0
114.561	7.0
114.576	0.0
114.591	2.0
114.606	2.0
114.621	3.0
114.636	5.0
114.65	3.0
114.665	2.0
114.68	4.0
114.695	7.0
114.71	5.0
114.725	6.0
114.74	5.0
114.755	3.0
114.77	4.0
114.785	4.0
114.8	7.0
114.815	3.0
114.83	4.0
114.845	5.0
114.86	2.0
114.875	4.0
114.89	5.0
114.905	1.0
114.92	3.0
114.935	3.0
114.95	6.0
114.965	4.0
114.98	2.0
114.995	5.0
115.009	5.0
115.024	5.0
115.039	3.0
115.054	3.0
115.069	6.0
115.084	1.0
115.099	4.0
115.114	8.0
115.129	3.0
115.144	5.0
115.159	2.0
115.174	0.0
115.189	6.0
115.204	2.0
115.219	6.0
115.234	4.0
115.249	5.0
115.264	1.0
115.279	3.0
115.294	4.0
115.309	8.0
115.323	1.0
115.338	2.0
115.353	6.0
115.368	3.0
115.383	4.0
115.398	2.0
115.413	9.0
115.428	7.0
115.443	2.0
115.458	5.0
115.473	7.0
115.488	3.0
115.503	5.0
115.518	5.0
115.533	2.0
115.548	2.0
115.562	7.0
115.577	4.0
115.592	7.0
115.607	3.0
115.622	7.0
115.637	1.0
115.652	2.0
115.667	5.0
115.682	7.0
115.697	6.0
115.712	4.0
115.727	3.0
115.741	6.0
115.756	2.0
115.771	3.0
115.786	2.0
115.801	4.0
115.816	3.0
115.831	3.0
115.846	3.0
115.861	6.0
115.875	5.0
115.89	3.0
115.905	5.0
115.92	5.0
115.935	7.0
115.95	3.0
115.965	3.0
115.98	4.0
115.995	4.0
116.009	3.0
116.024	2.0
116.039	2.0
116.054	3.0
116.069	2.0
116.084	4.0
116.099	3.0
116.113	3.0
116.128	7.0
116.143	4.0
116.158	2.0
116.173	11.0
116.188	5.0
116.202	5.0
116.217	3.0
116.232	5.0
116.247	2.0
116.262	2.0
116.277	3.0
116.291	1.0
116.306	6.0
116.321	9.0
116.336	8.0
116.351	5.0
116.366	4.0
116.38	2.0
116.395	7.0
116.41	5.0
116.425	3.0
116.44	5.0
116.454	2.0
116.469	2.0
116.484	4.0
116.499	0.0
116.514	4.0
116.528	7.0
116.543	4.0
116.558	5.0
116.573	5.0
116.588	8.0
116.602	3.0
116.617	4.0
116.632	3.0
116.647	8.0
116.662	2.0
116.676	4.0
116.691	5.0
116.706	2.0
116.721	5.0
116.735	5.0
116.75	3.0
116.765	3.0
116.78	6.0
116.795	1.0
116.809	3.0
116.824	5.0
116.839	3.0
116.854	3.0
116.868	4.0
116.883	2.0
116.898	1.0
116.913	0.0
116.927	2.0
116.942	3.0
116.957	6.0
116.972	3.0
116.986	2.0
117.001	3.0
117.016	5.0
117.031	7.0
117.045	9.0
117.06	5.0
117.075	4.0
117.09	1.0
117.104	1.0
117.119	7.0
117.134	3.0
117.149	5.0
117.163	6.0
117.178	9.0
117.193	2.0
117.208	2.0
117.222	5.0
117.237	6.0
117.252	3.0
117.267	5.0
117.281	2.0
117.296	2.0
117.311	5.0
117.325	2.0
117.34	1.0
117.355	2.0
117.37	4.0
117.384	6.0
117.399	3.0
117.414	5.0
117.429	2.0
117.443	2.0
117.458	3.0
117.473	3.0
117.487	5.0
117.502	6.0
117.517	5.0
117.532	3.0
117.546	6.0
117.561	6.0
117.576	5.0
117.59	3.0
117.605	5.0
117.62	1.0
117.635	3.0
117.649	3.0
117.664	2.0
117.679	2.0
117.693	1.0
117.708	5.0
117.723	1.0
117.738	1.0
117.752	2.0
117.767	4.0
117.782	5.0
117.796	6.0
117.811	4.0
117.826	3.0
117.841	4.0
117.855	6.0
117.87	2.0
117.885	4.0
117.899	1.0
117.914	7.0
117.929	4.0
117.944	2.0
117.958	0.0
117.973	3.0
117.988	2.0
118.002	7.0
118.017	8.0
118.032	5.0
118.047	3.0
118.062	1.0
118.077	7.0
118.092	4.0
118.107	2.0
118.121	7.0
118.136	1.0
118.151	10.0
118.166	3.0
118.181	5.0
118.196	6.0
118.211	5.0
118.225	9.0
118.24	1.0
118.255	3.0
118.27	3.0
118.285	6.0
118.3	3.0
118.315	5.0
118.33	5.0
118.344	4.0
118.359	4.0
118.374	1.0
118.389	4.0
118.404	3.0
118.419	5.0
118.434	1.0
118.449	2.0
118.463	2.0
118.478	3.0
118.493	1.0
118.508	3.0
118.523	2.0
118.538	4.0
118.553	5.0
118.567	5.0
118.582	4.0
118.597	6.0
118.612	4.0
118.627	2.0
118.642	1.0
118.657	5.0
118.672	3.0
118.686	3.0
118.701	1.0
118.716	3.0
118.731	2.0
118.746	3.0
118.761	2.0
118.776	5.0
118.791	3.0
118.805	7.0
118.82	4.0
118.835	3.0
118.85	6.0
118.865	1.0
118.88	3.0
118.895	5.0
118.909	4.0
118.924	0.0
118.939	2.0
118.954	6.0
118.969	3.0
118.984	2.0
118.999	2.0
119.014	2.0
119.028	3.0
119.043	9.0
119.058	3.0
119.073	4.0
119.088	6.0
119.103	1.0
119.118	3.0
119.133	3.0
119.147	4.0
119.162	5.0
119.177	3.0
119.192	4.0
119.207	1.0
119.222	5.0
119.237	5.0
119.251	1.0
119.266	5.0
119.281	6.0
119.296	4.0
119.311	5.0
119.326	1.0
119.341	3.0
119.356	5.0
119.37	4.0
119.385	6.0
119.4	3.0
119.415	1.0
119.43	3.0
119.445	3.0
119.46	3.0
119.475	3.0
119.489	2.0
119.504	4.0
119.519	3.0
119.534	7.0
119.549	4.0
119.564	6.0
119.579	5.0
119.593	4.0
119.608	2.0
119.623	5.0
119.638	1.0
119.653	3.0
119.668	3.0
119.683	1.0
119.698	4.0
119.712	6.0
119.727	1.0
119.742	3.0
119.757	3.0
119.772	3.0
119.787	3.0
119.802	3.0
119.817	1.0
119.831	3.0
119.846	3.0
119.861	5.0
119.876	1.0
119.891	3.0
119.906	2.0
119.921	3.0
119.935	3.0
119.95	3.0
119.965	1.0
119.98	4.0
119.995	6.0
120.01	2.0
120.025	1.0
120.04	2.0
120.054	1.0
120.069	3.0
120.084	1.0
120.099	3.0
120.114	1.0
120.129	5.0
120.144	2.0
120.159	0.0
120.173	1.0
120.188	2.0
120.203	0.0
120.218	2.0
120.233	1.0
120.248	2.0
120.263	2.0
120.277	1.0
120.292	0.0
120.307	0.0
120.322	0.0
120.337	0.0
120.352	0.0
120.367	0.0
120.382	0.0
120.396	0.0
120.411	1.0
120.426	1.0
120.441	0.0
120.456	0.0
120.471	0.0
120.486	1.0
120.501	0.0
120.515	0.0
120.53	0.0
120.545	0.0
120.56	0.0
120.575	0.0
120.59	0.0
120.605	0.0
120.619	0.0
120.634	0.0
120.649	0.0
120.664	0.0
120.679	0.0
120.694	0.0
120.709	0.0
120.724	0.0
120.738	0.0
120.753	0.0
120.768	1.0
120.783	0.0
120.798	0.0
120.813	0.0
120.828	0.0
120.843	0.0
120.857	0.0
120.872	0.0
120.887	0.0
120.902	0.0
120.917	0.0
120.932	0.0
120.947	0.0
120.961	0.0
120.976	0.0
