-1.217	0.0
-1.202	0.0
-1.187	0.0
-1.172	0.0
-1.157	0.0
-1.142	0.0
-1.128	0.0
-1.113	0.0
-1.098	0.0
-1.083	0.0
-1.068	0.0
-1.054	0.0
-1.039	0.0
-1.024	0.0
-1.009	0.0
-0.994	0.0
-0.979	0.0
-0.965	0.0
-0.95	0.0
-0.935	0.0
-0.92	0.0
-0.905	0.0
-0.891	0.0
-0.876	0.0
-0.861	0.0
-0.846	0.0
-0.831	0.0
-0.816	0.0
-0.802	0.0
-0.787	0.0
-0.772	0.0
-0.757	0.0
-0.742	1.0
-0.728	0.0
-0.713	0.0
-0.698	0.0
-0.683	0.0
-0.668	0.0
-0.653	0.0
-0.639	0.0
-0.624	0.0
-0.609	0.0
-0.594	0.0
-0.579	0.0
-0.565	0.0
-0.55	0.0
-0.535	1.0
-0.52	0.0
-0.505	0.0
-0.49	0.0
-0.476	0.0
-0.461	0.0
-0.446	0.0
-0.431	0.0
-0.416	0.0
-0.401	0.0
-0.387	0.0
-0.372	0.0
-0.357	0.0
-0.342	0.0
-0.327	0.0
-0.313	0.0
-0.298	0.0
-0.283	0.0
-0.268	0.0
-0.253	0.0
-0.238	0.0
-0.224	0.0
-0.209	0.0
-0.194	0.0
-0.179	0.0
-0.164	0.0
-0.15	0.0
-0.135	0.0
-0.12	0.0
-0.105	0.0
-0.09	0.0
-0.075	0.0
-0.061	0.0
-0.046	0.0
-0.031	0.0
-0.016	0.0
-0.001	0.0
0.013	0.0
0.028	0.0
0.043	0.0
0.058	0.0
0.073	0.0
0.088	0.0
0.102	0.0
0.117	1.0
0.132	0.0
0.147	0.0
0.162	1.0
0.176	0.0
0.191	0.0
0.206	0.0
0.221	1.0
0.236	0.0
0.251	0.0
0.265	0.0
0.28	0.0
0.295	0.0
0.31	0.0
0.325	0.0
0.339	0.0
0.354	0.0
0.369	0.0
0.384	0.0
0.399	0.0
0.414	0.0
0.428	0.0
0.443	0.0
0.458	0.0
0.473	0.0
0.488	0.0
0.502	0.0
0.517	0.0
0.532	0.0
0.547	0.0
0.562	1.0
0.577	0.0
0.591	0.0
0.606	0.0
0.621	0.0
0.636	0.0
0.651	0.0
0.665	0.0
0.68	0.0
0.695	0.0
0.71	0.0
0.725	0.0
0.74	0.0
0.754	0.0
0.769	0.0
0.784	0.0
0.799	0.0
0.814	0.0
0.828	0.0
0.843	0.0
0.858	0.0
0.873	0.0
0.888	0.0
0.903	0.0
0.917	0.0
0.932	0.0
0.947	0.0
0.962	0.0
0.977	0.0
0.991	0.0
1.006	0.0
1.021	0.0
1.036	0.0
1.051	0.0
1.065	0.0
1.08	0.0
1.095	0.0
1.11	0.0
1.125	0.0
1.14	0.0
1.154	0.0
1.169	0.0
1.184	0.0
1.199	0.0
1.214	0.0
1.228	0.0
1.243	0.0
1.258	0.0
1.273	0.0
1.288	0.0
1.302	0.0
1.317	0.0
1.332	0.0
1.347	0.0
1.362	0.0
1.376	0.0
1.391	0.0
1.406	1.0
1.421	0.0
1.436	0.0
1.45	0.0
1.465	0.0
1.48	1.0
1.495	0.0
1.51	0.0
1.524	0.0
1.539	0.0
1.554	0.0
1.569	0.0
1.584	0.0
1.598	0.0
1.613	0.0
1.628	0.0
1.643	0.0
1.658	0.0
1.672	0.0
1.687	0.0
1.702	0.0
1.717	0.0
1.732	0.0
1.746	0.0
1.761	0.0
1.776	0.0
1.791	0.0
1.806	0.0
1.82	0.0
1.835	0.0
1.85	0.0
1.865	2.0
1.88	0.0
1.894	0.0
1.909	0.0
1.924	1.0
1.939	0.0
1.954	0.0
1.968	0.0
1.983	0.0
1.998	1.0
2.013	0.0
2.028	0.0
2.042	0.0
2.057	0.0
2.072	0.0
2.087	1.0
2.101	0.0
2.116	0.0
2.131	1.0
2.146	0.0
2.161	0.0
2.175	0.0
2.19	0.0
2.205	0.0
2.22	0.0
2.235	1.0
2.249	0.0
2.264	0.0
2.279	0.0
2.294	1.0
2.308	1.0
2.323	0.0
2.338	0.0
2.353	0.0
2.368	3.0
2.382	1.0
2.397	1.0
2.412	1.0
2.427	1.0
2.442	1.0
2.456	0.0
2.471	2.0
2.486	3.0
2.501	1.0
2.515	2.0
2.53	0.0
2.545	3.0
2.56	2.0
2.575	7.0
2.589	2.0
2.604	1.0
2.619	2.0
2.634	3.0
2.649	3.0
2.663	4.0
2.678	3.0
2.693	2.0
2.708	3.0
2.722	3.0
2.737	4.0
2.752	6.0
2.767	1.0
2.782	3.0
2.796	5.0
2.811	1.0
2.826	4.0
2.841	4.0
2.856	4.0
2.87	0.0
2.885	4.0
2.9	2.0
2.915	2.0
2.93	5.0
2.944	2.0
2.959	2.0
2.974	3.0
2.989	3.0
3.004	2.0
3.018	1.0
3.033	4.0
3.048	3.0
3.063	2.0
3.078	3.0
3.092	2.0
3.107	4.0
3.122	3.0
3.137	5.0
3.152	5.0
3.166	4.0
3.181	2.0
3.196	7.0
3.211	8.0
3.226	3.0
3.24	5.0
3.255	3.0
3.27	9.0
3.285	7.0
3.3	5.0
3.315	4.0
3.329	6.0
3.344	10.0
3.359	4.0
3.374	4.0
3.389	7.0
3.403	4.0
3.418	3.0
3.433	3.0
3.448	2.0
3.463	5.0
3.478	4.0
3.492	7.0
3.507	5.0
3.522	3.0
3.537	8.0
3.552	4.0
3.567	5.0
3.581	6.0
3.596	5.0
3.611	5.0
3.626	4.0
3.641	5.0
3.656	8.0
3.671	12.0
3.685	7.0
3.7	4.0
3.715	4.0
3.73	8.0
3.745	3.0
3.76	6.0
3.775	5.0
3.789	5.0
3.804	5.0
3.819	4.0
3.834	8.0
3.849	7.0
3.864	8.0
3.879	7.0
3.894	5.0
3.908	7.0
3.923	8.0
3.938	3.0
3.953	9.0
3.968	13.0
3.983	7.0
3.998	4.0
4.013	5.0
4.027	7.0
4.042	3.0
4.057	6.0
4.072	7.0
4.087	2.0
4.102	4.0
4.117	8.0
4.132	9.0
4.147	7.0
4.162	12.0
4.176	6.0
4.191	6.0
4.206	8.0
4.221	7.0
4.236	9.0
4.251	5.0
4.266	2.0
4.281	5.0
4.296	9.0
4.311	8.0
4.326	4.0
4.341	10.0
4.356	7.0
4.37	9.0
4.385	7.0
4.4	8.0
4.415	9.0
4.43	3.0
4.445	9.0
4.46	4.0
4.475	5.0
4.49	15.0
4.505	9.0
4.52	6.0
4.535	5.0
4.55	5.0
4.565	4.0
4.58	6.0
4.595	2.0
4.61	13.0
4.625	8.0
4.639	1.0
4.654	7.0
4.669	8.0
4.684	5.0
4.699	6.0
4.714	11.0
4.729	7.0
4.744	9.0
4.759	10.0
4.774	5.0
4.789	4.0
4.804	4.0
4.819	13.0
4.834	7.0
4.849	6.0
4.864	9.0
4.879	3.0
4.894	12.0
4.909	11.0
4.924	8.0
4.939	6.0
4.954	8.0
4.969	7.0
4.984	6.0
4.999	10.0
5.014	5.0
5.029	4.0
5.044	6.0
5.059	10.0
5.074	4.0
5.089	4.0
5.104	17.0
5.119	8.0
5.134	13.0
5.149	8.0
5.164	5.0
5.179	8.0
5.194	5.0
5.209	11.0
5.224	7.0
5.239	5.0
5.254	6.0
5.269	2.0
5.284	6.0
5.299	10.0
5.314	12.0
5.329	9.0
5.344	5.0
5.359	12.0
5.374	9.0
5.389	11.0
5.404	5.0
5.419	10.0
5.434	8.0
5.449	10.0
5.464	11.0
5.479	7.0
5.494	7.0
5.509	12.0
5.524	8.0
5.539	9.0
5.554	10.0
5.569	6.0
5.584	8.0
5.599	10.0
5.614	11.0
5.629	14.0
5.644	12.0
5.659	8.0
5.674	5.0
5.689	14.0
5.704	8.0
5.719	5.0
5.734	9.0
5.749	4.0
5.764	4.0
5.779	6.0
5.794	8.0
5.809	14.0
5.824	10.0
5.839	15.0
5.854	6.0
5.869	11.0
5.884	8.0
5.899	12.0
5.914	7.0
5.929	10.0
5.944	7.0
5.959	12.0
5.974	4.0
5.989	14.0
6.004	9.0
6.019	8.0
6.034	15.0
6.049	8.0
6.064	17.0
6.079	11.0
6.094	6.0
6.109	7.0
6.124	6.0
6.139	5.0
6.154	7.0
6.169	4.0
6.184	8.0
6.199	8.0
6.214	8.0
6.229	5.0
6.244	9.0
6.259	6.0
6.274	6.0
6.289	8.0
6.304	12.0
6.319	9.0
6.334	9.0
6.349	10.0
6.364	8.0
6.379	10.0
6.394	11.0
6.409	9.0
6.424	9.0
6.439	7.0
6.454	8.0
6.469	10.0
6.484	5.0
6.499	6.0
6.514	15.0
6.529	12.0
6.544	7.0
6.559	9.0
6.574	6.0
6.589	6.0
6.604	8.0
6.619	7.0
6.634	10.0
6.649	9.0
6.664	10.0
6.679	8.0
6.694	6.0
6.709	14.0
6.724	10.0
6.739	11.0
6.754	5.0
6.769	10.0
6.784	10.0
6.799	11.0
6.814	4.0
6.829	6.0
6.844	14.0
6.859	11.0
6.873	3.0
6.888	13.0
6.903	12.0
6.918	11.0
6.933	10.0
6.948	9.0
6.963	5.0
6.978	8.0
6.993	6.0
7.008	9.0
7.023	9.0
7.038	9.0
7.053	5.0
7.068	8.0
7.083	7.0
7.098	8.0
7.113	6.0
7.128	11.0
7.143	9.0
7.157	12.0
7.172	5.0
7.187	10.0
7.202	6.0
7.217	11.0
7.232	14.0
7.247	7.0
7.262	7.0
7.277	6.0
7.292	15.0
7.307	6.0
7.322	12.0
7.336	8.0
7.351	6.0
7.366	10.0
7.381	7.0
7.396	12.0
7.411	1.0
7.426	11.0
7.441	10.0
7.456	12.0
7.471	7.0
7.485	5.0
7.5	3.0
7.515	15.0
7.53	6.0
7.545	6.0
7.56	6.0
7.575	7.0
7.59	12.0
7.604	5.0
7.619	8.0
7.634	11.0
7.649	3.0
7.664	7.0
7.679	11.0
7.693	9.0
7.708	7.0
7.723	6.0
7.738	4.0
7.753	6.0
7.768	9.0
7.783	9.0
7.797	14.0
7.812	15.0
7.827	10.0
7.842	5.0
7.857	4.0
7.871	8.0
7.886	8.0
7.901	4.0
7.916	5.0
7.931	8.0
7.945	7.0
7.96	13.0
7.975	12.0
7.99	8.0
8.005	10.0
8.019	10.0
8.034	12.0
8.049	12.0
8.064	12.0
8.078	5.0
8.093	12.0
8.108	8.0
8.123	9.0
8.137	13.0
8.152	8.0
8.167	10.0
8.182	8.0
8.196	11.0
8.211	10.0
8.226	5.0
8.241	10.0
8.255	8.0
8.27	7.0
8.285	13.0
8.3	9.0
8.314	10.0
8.329	12.0
8.344	7.0
8.358	10.0
8.373	7.0
8.388	7.0
8.403	8.0
8.417	11.0
8.432	8.0
8.447	5.0
8.461	10.0
8.476	11.0
8.491	12.0
8.505	11.0
8.52	16.0
8.535	9.0
8.55	10.0
8.564	9.0
8.579	7.0
8.594	7.0
8.608	14.0
8.623	11.0
8.638	9.0
8.652	12.0
8.667	11.0
8.682	6.0
8.696	9.0
8.711	9.0
8.726	9.0
8.74	8.0
8.755	7.0
8.77	14.0
8.784	11.0
8.799	3.0
8.814	9.0
8.828	10.0
8.843	12.0
8.858	9.0
8.872	6.0
8.887	11.0
8.902	5.0
8.916	12.0
8.931	7.0
8.946	5.0
8.96	9.0
8.975	13.0
8.99	13.0
9.004	11.0
9.019	12.0
9.034	7.0
9.048	9.0
9.063	7.0
9.077	7.0
9.092	11.0
9.107	8.0
9.121	6.0
9.136	6.0
9.151	9.0
9.165	7.0
9.18	8.0
9.195	7.0
9.209	5.0
9.224	7.0
9.239	8.0
9.253	7.0
9.268	8.0
9.283	2.0
9.297	7.0
9.312	5.0
9.327	15.0
9.341	2.0
9.356	6.0
9.371	3.0
9.385	10.0
9.4	12.0
9.415	13.0
9.429	9.0
9.444	8.0
9.458	9.0
9.473	8.0
9.488	6.0
9.502	7.0
9.517	12.0
9.532	7.0
9.546	9.0
9.561	8.0
9.576	13.0
9.59	10.0
9.605	11.0
9.62	7.0
9.635	8.0
9.649	9.0
9.664	3.0
9.679	7.0
9.693	11.0
9.708	6.0
9.723	9.0
9.737	11.0
9.752	6.0
9.767	14.0
9.781	9.0
9.796	10.0
9.811	12.0
9.825	12.0
9.84	6.0
9.855	7.0
9.87	8.0
9.884	7.0
9.899	12.0
9.914	6.0
9.928	9.0
9.943	9.0
9.958	10.0
9.973	6.0
9.987	6.0
10.002	4.0
10.017	6.0
10.031	7.0
10.046	9.0
10.061	14.0
10.076	6.0
10.09	10.0
10.105	4.0
10.12	6.0
10.135	10.0
10.149	12.0
10.164	11.0
10.179	7.0
10.194	5.0
10.208	8.0
10.223	11.0
10.238	5.0
10.253	8.0
10.267	10.0
10.282	10.0
10.297	7.0
10.312	13.0
10.326	6.0
10.341	7.0
10.356	9.0
10.371	10.0
10.386	11.0
10.4	9.0
10.415	8.0
10.43	7.0
10.445	11.0
10.46	9.0
10.474	5.0
10.489	5.0
10.504	9.0
10.519	6.0
10.533	9.0
10.548	10.0
10.563	11.0
10.578	10.0
10.593	7.0
10.608	8.0
10.622	11.0
10.637	3.0
10.652	6.0
10.667	5.0
10.682	9.0
10.696	6.0
10.711	6.0
10.726	9.0
10.741	9.0
10.756	9.0
10.771	8.0
10.785	8.0
10.8	10.0
10.815	8.0
10.83	13.0
10.845	14.0
10.86	9.0
10.874	5.0
10.889	5.0
10.904	8.0
10.919	6.0
10.934	7.0
10.949	7.0
10.963	8.0
10.978	5.0
10.993	5.0
11.008	11.0
11.023	3.0
11.038	11.0
11.053	8.0
11.067	11.0
11.082	3.0
11.097	4.0
11.112	9.0
11.127	12.0
11.142	12.0
11.157	7.0
11.172	8.0
11.186	13.0
11.201	11.0
11.216	9.0
11.231	11.0
11.246	10.0
11.261	3.0
11.276	8.0
11.291	10.0
11.305	7.0
11.32	6.0
11.335	8.0
11.35	2.0
11.365	7.0
11.38	5.0
11.395	13.0
11.41	7.0
11.424	5.0
11.439	11.0
11.454	4.0
11.469	9.0
11.484	3.0
11.499	14.0
11.514	13.0
11.529	8.0
11.544	5.0
11.558	8.0
11.573	8.0
11.588	8.0
11.603	14.0
11.618	8.0
11.633	9.0
11.648	12.0
11.663	10.0
11.678	9.0
11.693	5.0
11.707	6.0
11.722	9.0
11.737	6.0
11.752	8.0
11.767	10.0
11.782	6.0
11.797	8.0
11.812	7.0
11.827	5.0
11.842	9.0
11.856	8.0
11.871	8.0
11.886	12.0
11.901	10.0
11.916	8.0
11.931	12.0
11.946	9.0
11.961	15.0
11.976	9.0
11.991	8.0
12.006	10.0
12.02	13.0
12.035	7.0
12.05	7.0
12.065	5.0
12.08	5.0
12.095	12.0
12.11	8.0
12.125	8.0
12.14	9.0
12.155	11.0
12.17	9.0
12.184	12.0
12.199	9.0
12.214	10.0
12.229	13.0
12.244	14.0
12.259	10.0
12.274	14.0
12.289	11.0
12.304	15.0
12.319	10.0
12.334	14.0
12.348	13.0
12.363	5.0
12.378	7.0
12.393	8.0
12.408	18.0
12.423	13.0
12.438	11.0
12.453	9.0
12.468	12.0
12.483	12.0
12.498	14.0
12.513	20.0
12.527	9.0
12.542	17.0
12.557	10.0
12.572	15.0
12.587	19.0
12.602	19.0
12.617	16.0
12.632	9.0
12.647	18.0
12.662	17.0
12.677	13.0
12.692	14.0
12.707	10.0
12.721	11.0
12.736	14.0
12.751	12.0
12.766	17.0
12.781	20.0
12.796	16.0
12.811	13.0
12.826	14.0
12.841	18.0
12.856	14.0
12.871	15.0
12.886	14.0
12.9	11.0
12.915	15.0
12.93	21.0
12.945	22.0
12.96	19.0
12.975	18.0
12.99	19.0
13.005	20.0
13.02	20.0
13.035	23.0
13.05	19.0
13.065	16.0
13.08	16.0
13.094	17.0
13.109	23.0
13.124	19.0
13.139	16.0
13.154	11.0
13.169	19.0
13.184	19.0
13.199	14.0
13.214	18.0
13.229	13.0
13.244	20.0
13.259	14.0
13.274	22.0
13.288	14.0
13.303	25.0
13.318	15.0
13.333	27.0
13.348	13.0
13.363	27.0
13.378	27.0
13.393	22.0
13.408	31.0
13.423	27.0
13.438	35.0
13.453	43.0
13.468	39.0
13.482	42.0
13.497	32.0
13.512	41.0
13.527	50.0
13.542	48.0
13.557	45.0
13.572	50.0
13.587	55.0
13.602	71.0
13.617	58.0
13.632	63.0
13.647	68.0
13.662	67.0
13.677	81.0
13.691	70.0
13.706	79.0
13.721	84.0
13.736	87.0
13.751	111.0
13.766	116.0
13.781	121.0
13.796	124.0
13.811	142.0
13.826	140.0
13.841	141.0
13.856	139.0
13.871	94.0
13.885	91.0
13.9	92.0
13.915	77.0
13.93	77.0
13.945	76.0
13.96	58.0
13.975	45.0
13.99	33.0
14.005	43.0
14.02	32.0
14.035	23.0
14.05	35.0
14.065	28.0
14.08	23.0
14.094	22.0
14.109	24.0
14.124	22.0
14.139	12.0
14.154	30.0
14.169	20.0
14.184	17.0
14.199	22.0
14.214	20.0
14.229	27.0
14.244	19.0
14.259	19.0
14.274	16.0
14.288	16.0
14.303	19.0
14.318	15.0
14.333	24.0
14.348	17.0
14.363	14.0
14.378	21.0
14.393	14.0
14.408	22.0
14.423	22.0
14.438	21.0
14.453	24.0
14.468	17.0
14.482	12.0
14.497	21.0
14.512	20.0
14.527	20.0
14.542	19.0
14.557	21.0
14.572	17.0
14.587	12.0
14.602	13.0
14.617	14.0
14.632	14.0
14.647	16.0
14.661	21.0
14.676	18.0
14.691	25.0
14.706	15.0
14.721	22.0
14.736	17.0
14.751	13.0
14.766	16.0
14.781	17.0
14.796	12.0
14.811	11.0
14.826	12.0
14.84	13.0
14.855	12.0
14.87	14.0
14.885	17.0
14.9	12.0
14.915	14.0
14.93	18.0
14.945	21.0
14.96	13.0
14.975	17.0
14.989	10.0
15.004	16.0
15.019	19.0
15.034	14.0
15.049	11.0
15.064	10.0
15.079	16.0
15.094	12.0
15.109	16.0
15.124	17.0
15.138	16.0
15.153	14.0
15.168	15.0
15.183	14.0
15.198	19.0
15.213	20.0
15.228	17.0
15.243	14.0
15.258	17.0
15.272	13.0
15.287	12.0
15.302	16.0
15.317	16.0
15.332	16.0
15.347	11.0
15.362	13.0
15.377	14.0
15.391	14.0
15.406	11.0
15.421	13.0
15.436	24.0
15.451	13.0
15.466	9.0
15.481	16.0
15.496	17.0
15.51	18.0
15.525	10.0
15.54	13.0
15.555	11.0
15.57	20.0
15.585	17.0
15.6	11.0
15.614	17.0
15.629	9.0
15.644	14.0
15.659	20.0
15.674	13.0
15.689	16.0
15.704	10.0
15.718	14.0
15.733	11.0
15.748	7.0
15.763	13.0
15.778	24.0
15.793	13.0
15.808	16.0
15.822	14.0
15.837	14.0
15.852	13.0
15.867	16.0
15.882	10.0
15.897	10.0
15.911	14.0
15.926	22.0
15.941	6.0
15.956	20.0
15.971	17.0
15.986	25.0
16.0	24.0
16.015	14.0
16.03	14.0
16.045	13.0
16.06	15.0
16.074	19.0
16.089	13.0
16.104	14.0
16.119	19.0
16.134	7.0
16.149	11.0
16.163	15.0
16.178	22.0
16.193	9.0
16.208	15.0
16.223	15.0
16.237	13.0
16.252	16.0
16.267	19.0
16.282	17.0
16.297	18.0
16.311	13.0
16.326	18.0
16.341	17.0
16.356	12.0
16.37	15.0
16.385	20.0
16.4	21.0
16.415	14.0
16.43	13.0
16.444	14.0
16.459	13.0
16.474	13.0
16.489	15.0
16.504	4.0
16.518	17.0
16.533	18.0
16.548	16.0
16.563	16.0
16.577	14.0
16.592	15.0
16.607	13.0
16.622	24.0
16.637	18.0
16.651	19.0
16.666	17.0
16.681	22.0
16.696	33.0
16.71	14.0
16.725	27.0
16.74	35.0
16.755	36.0
16.77	42.0
16.784	32.0
16.799	44.0
16.814	42.0
16.829	44.0
16.843	42.0
16.858	50.0
16.873	66.0
16.888	51.0
16.902	75.0
16.917	48.0
16.932	82.0
16.947	77.0
16.961	62.0
16.976	101.0
16.991	56.0
17.006	58.0
17.021	57.0
17.035	57.0
17.05	51.0
17.065	45.0
17.08	40.0
17.094	40.0
17.109	29.0
17.124	24.0
17.139	24.0
17.153	22.0
17.168	28.0
17.183	19.0
17.198	12.0
17.212	13.0
17.227	11.0
17.242	17.0
17.257	16.0
17.271	10.0
17.286	11.0
17.301	16.0
17.316	12.0
17.33	21.0
17.345	10.0
17.36	17.0
17.375	15.0
17.39	16.0
17.404	12.0
17.419	17.0
17.434	8.0
17.449	13.0
17.463	15.0
17.478	17.0
17.493	14.0
17.508	11.0
17.522	8.0
17.537	5.0
17.552	11.0
17.567	20.0
17.581	7.0
17.596	13.0
17.611	20.0
17.626	16.0
17.641	11.0
17.655	12.0
17.67	19.0
17.685	13.0
17.7	16.0
17.714	14.0
17.729	8.0
17.744	8.0
17.759	11.0
17.773	14.0
17.788	14.0
17.803	8.0
17.818	10.0
17.833	12.0
17.847	10.0
17.862	11.0
17.877	13.0
17.892	12.0
17.906	11.0
17.921	12.0
17.936	9.0
17.951	14.0
17.966	17.0
17.98	13.0
17.995	11.0
18.01	4.0
18.025	16.0
18.04	17.0
18.054	10.0
18.069	10.0
18.084	13.0
18.099	16.0
18.114	10.0
18.128	11.0
18.143	10.0
18.158	5.0
18.173	7.0
18.188	9.0
18.202	9.0
18.217	13.0
18.232	10.0
18.247	13.0
18.262	10.0
18.276	12.0
18.291	14.0
18.306	11.0
18.321	14.0
18.336	9.0
18.35	16.0
18.365	14.0
18.38	12.0
18.395	14.0
18.41	8.0
18.424	12.0
18.439	17.0
18.454	9.0
18.469	10.0
18.484	16.0
18.498	12.0
18.513	10.0
18.528	6.0
18.543	11.0
18.558	15.0
18.573	7.0
18.587	11.0
18.602	17.0
18.617	15.0
18.632	14.0
18.647	8.0
18.661	16.0
18.676	8.0
18.691	13.0
18.706	16.0
18.721	12.0
18.736	12.0
18.75	20.0
18.765	17.0
18.78	11.0
18.795	11.0
18.81	14.0
18.825	9.0
18.839	8.0
18.854	15.0
18.869	15.0
18.884	11.0
18.899	16.0
18.913	10.0
18.928	19.0
18.943	14.0
18.958	17.0
18.973	13.0
18.988	10.0
19.002	10.0
19.017	10.0
19.032	13.0
19.047	5.0
19.062	12.0
19.077	5.0
19.091	11.0
19.106	11.0
19.121	9.0
19.136	16.0
19.151	15.0
19.165	10.0
19.18	13.0
19.195	14.0
19.21	14.0
19.225	11.0
19.24	7.0
19.254	11.0
19.269	9.0
19.284	7.0
19.299	8.0
19.314	11.0
19.329	17.0
19.343	6.0
19.358	13.0
19.373	19.0
19.388	20.0
19.403	22.0
19.417	17.0
19.432	17.0
19.447	20.0
19.462	23.0
19.477	21.0
19.492	30.0
19.506	38.0
19.521	30.0
19.536	30.0
19.551	34.0
19.566	49.0
19.58	37.0
19.595	44.0
19.61	47.0
19.625	41.0
19.64	47.0
19.655	37.0
19.669	43.0
19.684	32.0
19.699	35.0
19.714	24.0
19.729	34.0
19.743	39.0
19.758	20.0
19.773	16.0
19.788	21.0
19.803	12.0
19.817	22.0
19.832	12.0
19.847	13.0
19.862	13.0
19.877	9.0
19.891	19.0
19.906	15.0
19.921	8.0
19.936	19.0
19.951	9.0
19.965	17.0
19.98	6.0
19.995	16.0
20.01	13.0
20.025	11.0
20.039	17.0
20.054	13.0
20.069	10.0
20.084	17.0
20.099	16.0
20.113	15.0
20.128	13.0
20.143	19.0
20.158	14.0
20.173	14.0
20.187	15.0
20.202	13.0
20.217	9.0
20.232	12.0
20.246	8.0
20.261	8.0
20.276	18.0
20.291	14.0
20.306	10.0
20.32	13.0
20.335	21.0
20.35	15.0
20.365	11.0
20.38	12.0
20.394	11.0
20.409	17.0
20.424	9.0
20.439	8.0
20.453	7.0
20.468	6.0
20.483	10.0
20.498	14.0
20.513	14.0
20.527	15.0
20.542	13.0
20.557	13.0
20.572	13.0
20.586	14.0
20.601	16.0
20.616	15.0
20.631	16.0
20.646	8.0
20.66	10.0
20.675	13.0
20.69	13.0
20.705	11.0
20.719	14.0
20.734	16.0
20.749	6.0
20.764	6.0
20.779	7.0
20.793	11.0
20.808	14.0
20.823	16.0
20.838	5.0
20.853	6.0
20.867	14.0
20.882	9.0
20.897	14.0
20.912	4.0
20.926	10.0
20.941	7.0
20.956	20.0
20.971	14.0
20.986	14.0
21.0	6.0
21.015	16.0
21.03	11.0
21.045	12.0
21.06	13.0
21.074	11.0
21.089	8.0
21.104	14.0
21.119	8.0
21.134	16.0
21.148	11.0
21.163	9.0
21.178	12.0
21.193	13.0
21.208	7.0
21.222	10.0
21.237	10.0
21.252	14.0
21.267	10.0
21.282	17.0
21.296	8.0
21.311	11.0
21.326	11.0
21.341	9.0
21.356	12.0
21.37	15.0
21.385	6.0
21.4	8.0
21.415	9.0
21.43	15.0
21.444	13.0
21.459	19.0
21.474	16.0
21.489	9.0
21.504	12.0
21.519	9.0
21.533	12.0
21.548	9.0
21.563	13.0
21.578	20.0
21.593	11.0
21.608	15.0
21.622	14.0
21.637	15.0
21.652	17.0
21.667	18.0
21.682	19.0
21.697	16.0
21.712	15.0
21.726	23.0
21.741	14.0
21.756	26.0
21.771	21.0
21.786	38.0
21.801	40.0
21.816	32.0
21.83	49.0
21.845	52.0
21.86	54.0
21.875	55.0
21.89	75.0
21.905	62.0
21.92	74.0
21.935	62.0
21.949	77.0
21.964	83.0
21.979	78.0
21.994	74.0
22.009	69.0
22.024	61.0
22.039	54.0
22.054	59.0
22.069	52.0
22.083	50.0
22.098	34.0
22.113	42.0
22.128	34.0
22.143	28.0
22.158	35.0
22.173	23.0
22.188	21.0
22.203	18.0
22.218	10.0
22.233	15.0
22.248	11.0
22.262	16.0
22.277	14.0
22.292	11.0
22.307	6.0
22.322	10.0
22.337	12.0
22.352	12.0
22.367	13.0
22.382	12.0
22.397	16.0
22.412	10.0
22.427	14.0
22.442	12.0
22.457	14.0
22.472	12.0
22.487	11.0
22.502	13.0
22.516	13.0
22.531	14.0
22.546	10.0
22.561	15.0
22.576	11.0
22.591	10.0
22.606	14.0
22.621	12.0
22.636	11.0
22.651	17.0
22.666	12.0
22.681	13.0
22.696	12.0
22.711	21.0
22.726	13.0
22.741	16.0
22.756	7.0
22.771	10.0
22.786	8.0
22.801	5.0
22.816	7.0
22.831	10.0
22.846	13.0
22.861	8.0
22.876	15.0
22.891	7.0
22.906	2.0
22.92	8.0
22.935	12.0
22.95	6.0
22.965	12.0
22.98	14.0
22.995	14.0
23.01	13.0
23.025	11.0
23.04	6.0
23.055	12.0
23.07	11.0
23.085	5.0
23.1	8.0
23.115	8.0
23.13	10.0
23.145	6.0
23.16	15.0
23.175	10.0
23.19	12.0
23.205	11.0
23.22	10.0
23.235	10.0
23.25	14.0
23.265	9.0
23.28	14.0
23.295	9.0
23.31	14.0
23.325	9.0
23.34	11.0
23.355	7.0
23.37	15.0
23.384	12.0
23.399	7.0
23.414	8.0
23.429	10.0
23.444	9.0
23.459	10.0
23.474	8.0
23.489	9.0
23.504	10.0
23.519	9.0
23.534	9.0
23.549	14.0
23.564	11.0
23.579	17.0
23.594	13.0
23.609	10.0
23.624	13.0
23.639	12.0
23.654	15.0
23.668	6.0
23.683	11.0
23.698	15.0
23.713	12.0
23.728	12.0
23.743	10.0
23.758	12.0
23.773	11.0
23.788	11.0
23.803	12.0
23.818	13.0
23.833	17.0
23.848	20.0
23.862	12.0
23.877	15.0
23.892	25.0
23.907	18.0
23.922	26.0
23.937	33.0
23.952	23.0
23.967	31.0
23.982	39.0
23.997	54.0
24.011	45.0
24.026	43.0
24.041	34.0
24.056	38.0
24.071	53.0
24.086	56.0
24.101	58.0
24.116	53.0
24.131	40.0
24.145	22.0
24.16	45.0
24.175	37.0
24.19	37.0
24.205	38.0
24.22	26.0
24.235	26.0
24.249	29.0
24.264	22.0
24.279	26.0
24.294	22.0
24.309	15.0
24.324	20.0
24.338	17.0
24.353	11.0
24.368	21.0
24.383	16.0
24.398	16.0
24.413	15.0
24.428	10.0
24.442	12.0
24.457	7.0
24.472	15.0
24.487	16.0
24.502	8.0
24.516	8.0
24.531	12.0
24.546	14.0
24.561	17.0
24.576	4.0
24.591	19.0
24.605	13.0
24.62	13.0
24.635	13.0
24.65	12.0
24.665	7.0
24.679	13.0
24.694	14.0
24.709	15.0
24.724	16.0
24.739	10.0
24.753	16.0
24.768	7.0
24.783	9.0
24.798	12.0
24.813	10.0
24.827	12.0
24.842	7.0
24.857	6.0
24.872	8.0
24.886	8.0
24.901	13.0
24.916	11.0
24.931	7.0
24.946	11.0
24.96	9.0
24.975	10.0
24.99	8.0
25.005	12.0
25.019	5.0
25.034	12.0
25.049	11.0
25.064	6.0
25.078	9.0
25.093	11.0
25.108	12.0
25.123	9.0
25.138	12.0
25.152	8.0
25.167	12.0
25.182	6.0
25.197	7.0
25.211	15.0
25.226	13.0
25.241	13.0
25.256	9.0
25.27	16.0
25.285	16.0
25.3	14.0
25.315	6.0
25.329	7.0
25.344	9.0
25.359	2.0
25.374	13.0
25.388	7.0
25.403	8.0
25.418	12.0
25.433	11.0
25.447	12.0
25.462	10.0
25.477	12.0
25.492	11.0
25.506	9.0
25.521	15.0
25.536	7.0
25.55	8.0
25.565	9.0
25.58	8.0
25.595	8.0
25.609	11.0
25.624	14.0
25.639	11.0
25.654	11.0
25.668	9.0
25.683	5.0
25.698	10.0
25.713	6.0
25.727	12.0
25.742	8.0
25.757	11.0
25.772	4.0
25.786	7.0
25.801	9.0
25.816	9.0
25.83	7.0
25.845	12.0
25.86	11.0
25.875	7.0
25.889	14.0
25.904	9.0
25.919	7.0
25.934	8.0
25.948	12.0
25.963	6.0
25.978	11.0
25.992	15.0
26.007	7.0
26.022	7.0
26.037	8.0
26.051	17.0
26.066	12.0
26.081	6.0
26.096	5.0
26.11	12.0
26.125	10.0
26.14	8.0
26.155	16.0
26.169	11.0
26.184	2.0
26.199	13.0
26.213	12.0
26.228	8.0
26.243	8.0
26.258	15.0
26.272	5.0
26.287	5.0
26.302	11.0
26.317	9.0
26.331	8.0
26.346	12.0
26.361	11.0
26.376	14.0
26.39	6.0
26.405	9.0
26.42	7.0
26.434	6.0
26.449	10.0
26.464	11.0
26.479	10.0
26.493	8.0
26.508	6.0
26.523	13.0
26.538	12.0
26.552	12.0
26.567	13.0
26.582	8.0
26.597	10.0
26.611	9.0
26.626	11.0
26.641	4.0
26.656	10.0
26.67	7.0
26.685	7.0
26.7	9.0
26.715	16.0
26.729	12.0
26.744	8.0
26.759	10.0
26.773	7.0
26.788	8.0
26.803	13.0
26.818	6.0
26.832	9.0
26.847	8.0
26.862	12.0
26.877	4.0
26.891	8.0
26.906	8.0
26.921	7.0
26.936	4.0
26.95	9.0
26.965	6.0
26.98	14.0
26.995	9.0
27.01	9.0
27.024	11.0
27.039	9.0
27.054	10.0
27.069	15.0
27.083	12.0
27.098	10.0
27.113	7.0
27.128	11.0
27.142	11.0
27.157	11.0
27.172	5.0
27.187	10.0
27.201	10.0
27.216	14.0
27.231	11.0
27.246	10.0
27.261	7.0
27.275	9.0
27.29	10.0
27.305	13.0
27.32	6.0
27.334	11.0
27.349	13.0
27.364	7.0
27.379	7.0
27.394	11.0
27.408	6.0
27.423	5.0
27.438	11.0
27.453	11.0
27.467	5.0
27.482	6.0
27.497	15.0
27.512	10.0
27.527	11.0
27.541	6.0
27.556	12.0
27.571	15.0
27.586	5.0
27.601	6.0
27.615	8.0
27.63	12.0
27.645	13.0
27.66	11.0
27.675	12.0
27.689	10.0
27.704	15.0
27.719	14.0
27.734	13.0
27.749	17.0
27.763	22.0
27.778	17.0
27.793	17.0
27.808	13.0
27.823	15.0
27.838	20.0
27.852	27.0
27.867	24.0
27.882	27.0
27.897	19.0
27.912	20.0
27.926	25.0
27.941	11.0
27.956	29.0
27.971	28.0
27.986	17.0
28.001	16.0
28.015	23.0
28.03	15.0
28.045	19.0
28.06	13.0
28.075	17.0
28.09	12.0
28.105	18.0
28.119	7.0
28.134	14.0
28.149	12.0
28.164	12.0
28.179	20.0
28.194	15.0
28.208	9.0
28.223	8.0
28.238	17.0
28.253	12.0
28.268	6.0
28.283	5.0
28.298	10.0
28.312	6.0
28.327	8.0
28.342	7.0
28.357	8.0
28.372	8.0
28.387	10.0
28.402	12.0
28.417	13.0
28.431	10.0
28.446	6.0
28.461	11.0
28.476	10.0
28.491	12.0
28.506	11.0
28.521	11.0
28.536	7.0
28.55	16.0
28.565	7.0
28.58	13.0
28.595	14.0
28.61	15.0
28.625	10.0
28.64	13.0
28.655	14.0
28.669	15.0
28.684	16.0
28.699	9.0
28.714	7.0
28.729	8.0
28.744	9.0
28.759	9.0
28.774	8.0
28.788	10.0
28.803	14.0
28.818	6.0
28.833	5.0
28.848	15.0
28.863	9.0
28.878	7.0
28.893	11.0
28.908	11.0
28.922	15.0
28.937	7.0
28.952	9.0
28.967	9.0
28.982	11.0
28.997	7.0
29.012	14.0
29.027	14.0
29.041	12.0
29.056	14.0
29.071	16.0
29.086	10.0
29.101	10.0
29.116	12.0
29.131	15.0
29.146	7.0
29.16	8.0
29.175	12.0
29.19	8.0
29.205	6.0
29.22	7.0
29.235	13.0
29.25	12.0
29.265	7.0
29.279	11.0
29.294	11.0
29.309	7.0
29.324	16.0
29.339	12.0
29.354	12.0
29.369	14.0
29.384	17.0
29.398	17.0
29.413	15.0
29.428	16.0
29.443	21.0
29.458	25.0
29.473	23.0
29.488	32.0
29.502	36.0
29.517	30.0
29.532	38.0
29.547	50.0
29.562	45.0
29.577	39.0
29.592	41.0
29.606	50.0
29.621	55.0
29.636	53.0
29.651	44.0
29.666	46.0
29.681	37.0
29.695	36.0
29.71	39.0
29.725	25.0
29.74	47.0
29.755	28.0
29.77	20.0
29.784	37.0
29.799	24.0
29.814	33.0
29.829	30.0
29.844	31.0
29.859	26.0
29.873	22.0
29.888	18.0
29.903	13.0
29.918	21.0
29.933	15.0
29.947	12.0
29.962	16.0
29.977	14.0
29.992	16.0
30.007	11.0
30.021	9.0
30.036	10.0
30.051	12.0
30.066	13.0
30.081	12.0
30.095	19.0
30.11	5.0
30.125	8.0
30.14	7.0
30.155	6.0
30.169	11.0
30.184	14.0
30.199	11.0
30.214	9.0
30.228	16.0
30.243	13.0
30.258	12.0
30.273	14.0
30.288	13.0
30.302	8.0
30.317	11.0
30.332	9.0
30.347	8.0
30.361	9.0
30.376	11.0
30.391	11.0
30.406	12.0
30.42	5.0
30.435	15.0
30.45	13.0
30.465	10.0
30.479	4.0
30.494	14.0
30.509	9.0
30.524	14.0
30.538	10.0
30.553	8.0
30.568	6.0
30.583	19.0
30.597	12.0
30.612	11.0
30.627	12.0
30.641	13.0
30.656	5.0
30.671	12.0
30.686	8.0
30.7	7.0
30.715	11.0
30.73	8.0
30.745	13.0
30.759	13.0
30.774	16.0
30.789	12.0
30.803	10.0
30.818	8.0
30.833	11.0
30.848	12.0
30.862	12.0
30.877	7.0
30.892	12.0
30.906	9.0
30.921	7.0
30.936	11.0
30.951	7.0
30.965	16.0
30.98	7.0
30.995	13.0
31.009	13.0
31.024	7.0
31.039	19.0
31.053	12.0
31.068	13.0
31.083	18.0
31.098	16.0
31.112	16.0
31.127	30.0
31.142	14.0
31.156	28.0
31.171	28.0
31.186	31.0
31.2	31.0
31.215	32.0
31.23	42.0
31.245	48.0
31.259	37.0
31.274	34.0
31.289	34.0
31.303	39.0
31.318	30.0
31.333	25.0
31.347	27.0
31.362	21.0
31.377	23.0
31.392	26.0
31.406	25.0
31.421	25.0
31.436	26.0
31.45	28.0
31.465	30.0
31.48	19.0
31.494	19.0
31.509	13.0
31.524	22.0
31.538	11.0
31.553	7.0
31.568	12.0
31.583	8.0
31.597	8.0
31.612	17.0
31.627	8.0
31.641	10.0
31.656	18.0
31.671	11.0
31.685	11.0
31.7	13.0
31.715	15.0
31.729	13.0
31.744	10.0
31.759	6.0
31.774	14.0
31.788	11.0
31.803	10.0
31.818	10.0
31.832	11.0
31.847	15.0
31.862	7.0
31.876	9.0
31.891	10.0
31.906	10.0
31.92	13.0
31.935	13.0
31.95	10.0
31.965	10.0
31.979	4.0
31.994	8.0
32.009	10.0
32.023	12.0
32.038	14.0
32.053	14.0
32.067	8.0
32.082	9.0
32.097	7.0
32.112	8.0
32.126	14.0
32.141	11.0
32.156	10.0
32.17	14.0
32.185	8.0
32.2	7.0
32.214	12.0
32.229	5.0
32.244	6.0
32.259	13.0
32.273	13.0
32.288	15.0
32.303	12.0
32.317	14.0
32.332	9.0
32.347	11.0
32.362	12.0
32.376	8.0
32.391	4.0
32.406	10.0
32.42	9.0
32.435	9.0
32.45	7.0
32.465	10.0
32.479	12.0
32.494	13.0
32.509	10.0
32.523	6.0
32.538	18.0
32.553	9.0
32.568	10.0
32.582	15.0
32.597	12.0
32.612	7.0
32.627	10.0
32.641	17.0
32.656	24.0
32.671	17.0
32.685	15.0
32.7	13.0
32.715	18.0
32.73	24.0
32.744	19.0
32.759	21.0
32.774	11.0
32.788	20.0
32.803	22.0
32.818	20.0
32.833	29.0
32.847	18.0
32.862	18.0
32.877	18.0
32.892	24.0
32.906	13.0
32.921	21.0
32.936	20.0
32.951	22.0
32.965	18.0
32.98	18.0
32.995	18.0
33.009	32.0
33.024	22.0
33.039	26.0
33.054	19.0
33.068	13.0
33.083	18.0
33.098	15.0
33.113	11.0
33.127	9.0
33.142	13.0
33.157	11.0
33.172	14.0
33.186	11.0
33.201	12.0
33.216	9.0
33.231	10.0
33.245	9.0
33.26	14.0
33.275	17.0
33.29	9.0
33.304	11.0
33.319	4.0
33.334	5.0
33.349	10.0
33.363	9.0
33.378	7.0
33.393	16.0
33.408	9.0
33.422	5.0
33.437	13.0
33.452	9.0
33.467	15.0
33.481	8.0
33.496	10.0
33.511	13.0
33.526	7.0
33.54	10.0
33.555	11.0
33.57	11.0
33.585	7.0
33.599	5.0
33.614	16.0
33.629	12.0
33.644	9.0
33.658	12.0
33.673	12.0
33.688	11.0
33.703	8.0
33.718	6.0
33.732	10.0
33.747	12.0
33.762	9.0
33.777	14.0
33.791	11.0
33.806	8.0
33.821	15.0
33.836	10.0
33.85	13.0
33.865	10.0
33.88	10.0
33.895	9.0
33.91	15.0
33.924	14.0
33.939	8.0
33.954	12.0
33.969	6.0
33.983	10.0
33.998	11.0
34.013	5.0
34.028	18.0
34.042	13.0
34.057	10.0
34.072	11.0
34.087	10.0
34.102	13.0
34.116	3.0
34.131	14.0
34.146	10.0
34.161	9.0
34.175	6.0
34.19	12.0
34.205	12.0
34.22	12.0
34.235	7.0
34.249	11.0
34.264	13.0
34.279	18.0
34.294	14.0
34.309	13.0
34.323	14.0
34.338	12.0
34.353	15.0
34.368	10.0
34.382	15.0
34.397	16.0
34.412	15.0
34.427	13.0
34.442	16.0
34.456	12.0
34.471	14.0
34.486	10.0
34.501	14.0
34.516	12.0
34.53	10.0
34.545	12.0
34.56	12.0
34.575	19.0
34.59	6.0
34.604	11.0
34.619	9.0
34.634	11.0
34.649	10.0
34.664	10.0
34.678	4.0
34.693	5.0
34.708	8.0
34.723	7.0
34.738	10.0
34.752	11.0
34.767	3.0
34.782	9.0
34.797	11.0
34.812	5.0
34.826	4.0
34.841	6.0
34.856	8.0
34.871	9.0
34.886	9.0
34.9	3.0
34.915	9.0
34.93	4.0
34.945	4.0
34.96	8.0
34.974	13.0
34.989	9.0
35.004	8.0
35.019	9.0
35.034	6.0
35.048	12.0
35.063	10.0
35.078	6.0
35.093	8.0
35.108	14.0
35.122	7.0
35.137	7.0
35.152	9.0
35.167	7.0
35.182	14.0
35.196	11.0
35.211	9.0
35.226	7.0
35.241	11.0
35.256	6.0
35.27	14.0
35.285	6.0
35.3	3.0
35.315	4.0
35.33	3.0
35.344	6.0
35.359	6.0
35.374	4.0
35.389	10.0
35.404	7.0
35.418	9.0
35.433	8.0
35.448	5.0
35.463	9.0
35.478	7.0
35.493	13.0
35.507	14.0
35.522	7.0
35.537	9.0
35.552	15.0
35.567	8.0
35.581	12.0
35.596	4.0
35.611	16.0
35.626	8.0
35.641	12.0
35.655	12.0
35.67	6.0
35.685	16.0
35.7	15.0
35.715	11.0
35.729	18.0
35.744	20.0
35.759	18.0
35.774	17.0
35.789	13.0
35.804	17.0
35.818	22.0
35.833	23.0
35.848	22.0
35.863	14.0
35.878	17.0
35.892	14.0
35.907	16.0
35.922	7.0
35.937	18.0
35.952	11.0
35.966	18.0
35.981	18.0
35.996	8.0
36.011	13.0
36.026	19.0
36.04	10.0
36.055	13.0
36.07	8.0
36.085	13.0
36.1	11.0
36.114	4.0
36.129	10.0
36.144	9.0
36.159	7.0
36.174	9.0
36.189	7.0
36.203	7.0
36.218	8.0
36.233	9.0
36.248	11.0
36.263	9.0
36.277	8.0
36.292	10.0
36.307	7.0
36.322	12.0
36.337	5.0
36.351	6.0
36.366	6.0
36.381	9.0
36.396	12.0
36.411	6.0
36.426	10.0
36.44	11.0
36.455	6.0
36.47	7.0
36.485	12.0
36.5	9.0
36.514	6.0
36.529	8.0
36.544	6.0
36.559	11.0
36.574	5.0
36.589	5.0
36.603	6.0
36.618	12.0
36.633	3.0
36.648	11.0
36.663	7.0
36.677	7.0
36.692	9.0
36.707	7.0
36.722	16.0
36.737	8.0
36.752	8.0
36.766	4.0
36.781	7.0
36.796	7.0
36.811	9.0
36.826	7.0
36.841	11.0
36.855	10.0
36.87	10.0
36.885	13.0
36.9	5.0
36.915	5.0
36.93	15.0
36.944	6.0
36.959	13.0
36.974	10.0
36.989	12.0
37.004	5.0
37.019	16.0
37.033	13.0
37.048	15.0
37.063	27.0
37.078	13.0
37.093	21.0
37.108	26.0
37.123	26.0
37.137	25.0
37.152	37.0
37.167	25.0
37.182	35.0
37.197	19.0
37.212	25.0
37.226	34.0
37.241	19.0
37.256	20.0
37.271	15.0
37.286	18.0
37.301	12.0
37.316	21.0
37.331	19.0
37.345	22.0
37.36	19.0
37.375	17.0
37.39	17.0
37.405	20.0
37.42	14.0
37.435	18.0
37.45	18.0
37.464	19.0
37.479	8.0
37.494	9.0
37.509	19.0
37.524	17.0
37.539	8.0
37.554	5.0
37.569	5.0
37.583	7.0
37.598	11.0
37.613	8.0
37.628	7.0
37.643	5.0
37.658	11.0
37.673	3.0
37.688	8.0
37.703	8.0
37.718	6.0
37.733	16.0
37.747	8.0
37.762	5.0
37.777	8.0
37.792	4.0
37.807	13.0
37.822	2.0
37.837	6.0
37.852	4.0
37.867	6.0
37.882	5.0
37.897	10.0
37.912	7.0
37.927	7.0
37.941	8.0
37.956	8.0
37.971	7.0
37.986	11.0
38.001	10.0
38.016	7.0
38.031	6.0
38.046	11.0
38.061	12.0
38.076	10.0
38.091	7.0
38.106	7.0
38.121	7.0
38.136	4.0
38.151	12.0
38.166	3.0
38.181	2.0
38.196	8.0
38.211	8.0
38.226	7.0
38.241	5.0
38.256	5.0
38.271	3.0
38.285	4.0
38.3	7.0
38.315	7.0
38.33	5.0
38.345	7.0
38.36	4.0
38.375	7.0
38.39	5.0
38.405	6.0
38.42	6.0
38.435	8.0
38.45	7.0
38.465	7.0
38.48	4.0
38.495	3.0
38.51	4.0
38.525	5.0
38.54	12.0
38.555	4.0
38.57	9.0
38.585	6.0
38.6	6.0
38.615	4.0
38.63	8.0
38.645	5.0
38.66	10.0
38.675	5.0
38.69	9.0
38.705	7.0
38.72	3.0
38.735	6.0
38.75	3.0
38.765	2.0
38.78	8.0
38.795	5.0
38.81	5.0
38.825	3.0
38.84	7.0
38.855	2.0
38.87	9.0
38.885	10.0
38.9	3.0
38.915	1.0
38.93	4.0
38.945	2.0
38.96	4.0
38.975	10.0
38.99	6.0
39.005	3.0
39.02	9.0
39.035	7.0
39.05	11.0
39.065	8.0
39.08	8.0
39.095	5.0
39.11	6.0
39.125	8.0
39.14	7.0
39.155	6.0
39.17	6.0
39.185	8.0
39.2	7.0
39.215	1.0
39.23	5.0
39.245	10.0
39.26	2.0
39.275	7.0
39.29	4.0
39.305	6.0
39.32	5.0
39.335	3.0
39.35	8.0
39.365	5.0
39.38	8.0
39.395	2.0
39.409	2.0
39.424	3.0
39.439	5.0
39.454	2.0
39.469	5.0
39.484	3.0
39.499	8.0
39.514	4.0
39.529	5.0
39.544	3.0
39.559	5.0
39.574	7.0
39.589	7.0
39.604	2.0
39.619	7.0
39.634	3.0
39.649	3.0
39.664	6.0
39.678	6.0
39.693	7.0
39.708	6.0
39.723	3.0
39.738	9.0
39.753	4.0
39.768	8.0
39.783	4.0
39.798	6.0
39.813	17.0
39.827	5.0
39.842	9.0
39.857	10.0
39.872	9.0
39.887	3.0
39.902	10.0
39.917	15.0
39.932	7.0
39.947	11.0
39.961	7.0
39.976	7.0
39.991	6.0
40.006	7.0
40.021	11.0
40.036	9.0
40.051	6.0
40.065	3.0
40.08	7.0
40.095	7.0
40.11	12.0
40.125	10.0
40.14	7.0
40.154	6.0
40.169	8.0
40.184	9.0
40.199	2.0
40.214	5.0
40.228	7.0
40.243	6.0
40.258	7.0
40.273	2.0
40.288	2.0
40.302	11.0
40.317	8.0
40.332	4.0
40.347	6.0
40.362	10.0
40.376	4.0
40.391	5.0
40.406	7.0
40.421	6.0
40.436	10.0
40.45	3.0
40.465	11.0
40.48	8.0
40.495	4.0
40.509	3.0
40.524	3.0
40.539	6.0
40.554	6.0
40.568	2.0
40.583	7.0
40.598	10.0
40.613	6.0
40.627	1.0
40.642	2.0
40.657	6.0
40.672	5.0
40.686	5.0
40.701	6.0
40.716	7.0
40.731	12.0
40.745	6.0
40.76	5.0
40.775	3.0
40.79	10.0
40.804	11.0
40.819	4.0
40.834	1.0
40.849	4.0
40.863	6.0
40.878	12.0
40.893	11.0
40.907	5.0
40.922	8.0
40.937	7.0
40.952	10.0
40.966	4.0
40.981	9.0
40.996	10.0
41.011	11.0
41.025	5.0
41.04	9.0
41.055	11.0
41.069	16.0
41.084	26.0
41.099	19.0
41.114	20.0
41.128	17.0
41.143	28.0
41.158	18.0
41.173	16.0
41.187	19.0
41.202	15.0
41.217	10.0
41.231	12.0
41.246	10.0
41.261	9.0
41.276	9.0
41.29	19.0
41.305	8.0
41.32	9.0
41.335	11.0
41.349	14.0
41.364	9.0
41.379	14.0
41.393	16.0
41.408	16.0
41.423	9.0
41.438	11.0
41.452	19.0
41.467	5.0
41.482	7.0
41.497	12.0
41.511	7.0
41.526	5.0
41.541	9.0
41.556	5.0
41.57	5.0
41.585	4.0
41.6	8.0
41.615	8.0
41.629	5.0
41.644	8.0
41.659	4.0
41.674	8.0
41.688	3.0
41.703	4.0
41.718	3.0
41.733	6.0
41.747	4.0
41.762	3.0
41.777	6.0
41.792	8.0
41.806	10.0
41.821	4.0
41.836	4.0
41.851	6.0
41.866	7.0
41.88	6.0
41.895	5.0
41.91	8.0
41.925	9.0
41.939	6.0
41.954	7.0
41.969	7.0
41.984	6.0
41.999	9.0
42.013	6.0
42.028	5.0
42.043	13.0
42.058	6.0
42.073	5.0
42.088	6.0
42.102	5.0
42.117	6.0
42.132	5.0
42.147	7.0
42.162	5.0
42.176	6.0
42.191	7.0
42.206	6.0
42.221	7.0
42.236	9.0
42.251	10.0
42.266	7.0
42.28	10.0
42.295	13.0
42.31	14.0
42.325	16.0
42.34	12.0
42.355	11.0
42.369	15.0
42.384	18.0
42.399	18.0
42.414	13.0
42.429	16.0
42.444	18.0
42.459	10.0
42.474	11.0
42.488	12.0
42.503	7.0
42.518	11.0
42.533	9.0
42.548	5.0
42.563	13.0
42.578	13.0
42.593	13.0
42.608	15.0
42.622	14.0
42.637	11.0
42.652	15.0
42.667	6.0
42.682	11.0
42.697	12.0
42.712	9.0
42.727	6.0
42.742	10.0
42.757	9.0
42.772	7.0
42.786	9.0
42.801	9.0
42.816	7.0
42.831	12.0
42.846	6.0
42.861	8.0
42.876	5.0
42.891	5.0
42.906	6.0
42.921	4.0
42.936	4.0
42.951	6.0
42.966	6.0
42.981	8.0
42.996	5.0
43.011	5.0
43.025	9.0
43.04	4.0
43.055	8.0
43.07	5.0
43.085	5.0
43.1	5.0
43.115	2.0
43.13	6.0
43.145	3.0
43.16	7.0
43.175	5.0
43.19	6.0
43.205	5.0
43.22	5.0
43.235	5.0
43.25	2.0
43.265	8.0
43.28	5.0
43.295	1.0
43.31	10.0
43.325	6.0
43.34	5.0
43.355	6.0
43.37	13.0
43.385	4.0
43.4	5.0
43.415	6.0
43.43	5.0
43.445	4.0
43.46	4.0
43.475	3.0
43.49	4.0
43.505	11.0
43.52	10.0
43.535	10.0
43.55	10.0
43.565	3.0
43.58	9.0
43.595	12.0
43.61	13.0
43.625	11.0
43.64	9.0
43.655	6.0
43.67	11.0
43.685	6.0
43.7	5.0
43.715	5.0
43.73	3.0
43.745	8.0
43.76	11.0
43.775	4.0
43.79	8.0
43.805	9.0
43.82	7.0
43.835	12.0
43.85	9.0
43.865	3.0
43.88	11.0
43.895	4.0
43.91	15.0
43.925	7.0
43.94	7.0
43.955	6.0
43.97	4.0
43.985	4.0
44.0	8.0
44.015	8.0
44.03	13.0
44.045	7.0
44.061	7.0
44.076	4.0
44.091	4.0
44.106	6.0
44.121	2.0
44.136	5.0
44.151	6.0
44.166	4.0
44.181	8.0
44.196	6.0
44.211	4.0
44.226	5.0
44.241	7.0
44.256	7.0
44.271	6.0
44.286	1.0
44.301	6.0
44.316	6.0
44.331	4.0
44.346	3.0
44.361	3.0
44.377	6.0
44.392	6.0
44.407	3.0
44.422	3.0
44.437	3.0
44.452	4.0
44.467	7.0
44.482	9.0
44.497	4.0
44.512	2.0
44.527	8.0
44.542	7.0
44.557	5.0
44.572	5.0
44.587	3.0
44.602	6.0
44.617	3.0
44.632	6.0
44.647	10.0
44.663	5.0
44.678	9.0
44.693	6.0
44.708	7.0
44.723	11.0
44.738	9.0
44.753	10.0
44.768	12.0
44.783	12.0
44.798	14.0
44.813	9.0
44.828	10.0
44.843	10.0
44.858	9.0
44.873	9.0
44.888	10.0
44.903	9.0
44.918	11.0
44.933	11.0
44.948	8.0
44.964	5.0
44.979	5.0
44.994	4.0
45.009	6.0
45.024	3.0
45.039	10.0
45.054	6.0
45.069	11.0
45.084	9.0
45.099	10.0
45.114	8.0
45.129	9.0
45.144	7.0
45.159	4.0
45.174	9.0
45.189	9.0
45.204	8.0
45.219	4.0
45.234	6.0
45.249	2.0
45.264	11.0
45.279	7.0
45.294	3.0
45.309	4.0
45.324	7.0
45.339	6.0
45.354	3.0
45.369	8.0
45.384	4.0
45.399	3.0
45.414	4.0
45.429	4.0
45.444	7.0
45.459	5.0
45.474	6.0
45.489	7.0
45.504	7.0
45.519	7.0
45.534	5.0
45.549	5.0
45.564	5.0
45.579	2.0
45.594	3.0
45.609	4.0
45.624	2.0
45.639	2.0
45.654	7.0
45.669	5.0
45.684	8.0
45.699	4.0
45.714	7.0
45.729	1.0
45.744	6.0
45.759	5.0
45.774	4.0
45.789	5.0
45.804	8.0
45.819	5.0
45.834	12.0
45.849	6.0
45.864	10.0
45.879	10.0
45.894	8.0
45.909	8.0
45.924	9.0
45.939	12.0
45.954	21.0
45.969	11.0
45.984	11.0
45.998	12.0
46.013	15.0
46.028	14.0
46.043	11.0
46.058	4.0
46.073	8.0
46.088	9.0
46.103	9.0
46.118	5.0
46.133	10.0
46.148	7.0
46.163	6.0
46.178	11.0
46.192	18.0
46.207	8.0
46.222	13.0
46.237	14.0
46.252	12.0
46.267	10.0
46.282	6.0
46.297	15.0
46.312	10.0
46.327	9.0
46.341	12.0
46.356	6.0
46.371	8.0
46.386	9.0
46.401	4.0
46.416	5.0
46.431	4.0
46.446	6.0
46.46	4.0
46.475	4.0
46.49	2.0
46.505	3.0
46.52	7.0
46.535	3.0
46.55	6.0
46.564	4.0
46.579	4.0
46.594	9.0
46.609	9.0
46.624	5.0
46.639	6.0
46.654	3.0
46.668	4.0
46.683	7.0
46.698	5.0
46.713	8.0
46.728	4.0
46.743	4.0
46.758	2.0
46.772	5.0
46.787	5.0
46.802	6.0
46.817	3.0
46.832	4.0
46.847	7.0
46.861	4.0
46.876	8.0
46.891	3.0
46.906	3.0
46.921	6.0
46.936	0.0
46.95	3.0
46.965	2.0
46.98	2.0
46.995	4.0
47.01	4.0
47.025	9.0
47.039	10.0
47.054	8.0
47.069	9.0
47.084	9.0
47.099	10.0
47.113	8.0
47.128	4.0
47.143	11.0
47.158	10.0
47.173	5.0
47.188	11.0
47.202	17.0
47.217	11.0
47.232	12.0
47.247	6.0
47.262	6.0
47.277	11.0
47.291	7.0
47.306	11.0
47.321	8.0
47.336	3.0
47.351	9.0
47.365	10.0
47.38	8.0
47.395	7.0
47.41	10.0
47.425	7.0
47.44	8.0
47.454	7.0
47.469	14.0
47.484	11.0
47.499	4.0
47.514	9.0
47.528	7.0
47.543	5.0
47.558	7.0
47.573	3.0
47.588	6.0
47.603	5.0
47.617	3.0
47.632	5.0
47.647	9.0
47.662	2.0
47.677	5.0
47.691	3.0
47.706	3.0
47.721	5.0
47.736	5.0
47.751	4.0
47.766	2.0
47.78	5.0
47.795	3.0
47.81	1.0
47.825	5.0
47.84	5.0
47.855	1.0
47.869	3.0
47.884	3.0
47.899	12.0
47.914	6.0
47.929	2.0
47.944	7.0
47.958	4.0
47.973	3.0
47.988	6.0
48.003	6.0
48.018	5.0
48.033	8.0
48.047	7.0
48.062	5.0
48.077	8.0
48.092	2.0
48.107	8.0
48.122	3.0
48.137	6.0
48.151	2.0
48.166	3.0
48.181	3.0
48.196	4.0
48.211	7.0
48.226	8.0
48.241	7.0
48.255	2.0
48.27	3.0
48.285	2.0
48.3	4.0
48.315	10.0
48.33	2.0
48.345	7.0
48.359	7.0
48.374	3.0
48.389	7.0
48.404	2.0
48.419	7.0
48.434	7.0
48.449	1.0
48.464	4.0
48.478	4.0
48.493	5.0
48.508	6.0
48.523	11.0
48.538	3.0
48.553	8.0
48.568	8.0
48.583	4.0
48.597	5.0
48.612	6.0
48.627	4.0
48.642	5.0
48.657	5.0
48.672	5.0
48.687	2.0
48.702	1.0
48.717	1.0
48.731	2.0
48.746	4.0
48.761	1.0
48.776	5.0
48.791	6.0
48.806	2.0
48.821	8.0
48.836	7.0
48.851	10.0
48.866	3.0
48.88	1.0
48.895	3.0
48.91	5.0
48.925	3.0
48.94	3.0
48.955	4.0
48.97	7.0
48.985	6.0
49.0	2.0
49.015	2.0
49.03	2.0
49.044	3.0
49.059	5.0
49.074	5.0
49.089	3.0
49.104	0.0
49.119	7.0
49.134	7.0
49.149	6.0
49.164	3.0
49.179	4.0
49.194	3.0
49.209	7.0
49.224	11.0
49.238	0.0
49.253	6.0
49.268	6.0
49.283	5.0
49.298	4.0
49.313	6.0
49.328	6.0
49.343	12.0
49.358	8.0
49.373	6.0
49.388	7.0
49.403	8.0
49.418	3.0
49.433	2.0
49.448	9.0
49.463	4.0
49.478	2.0
49.492	0.0
49.507	7.0
49.522	3.0
49.537	6.0
49.552	3.0
49.567	4.0
49.582	7.0
49.597	4.0
49.612	7.0
49.627	8.0
49.642	9.0
49.657	7.0
49.672	8.0
49.687	2.0
49.702	6.0
49.717	6.0
49.732	6.0
49.747	5.0
49.762	4.0
49.777	7.0
49.792	2.0
49.807	4.0
49.822	9.0
49.837	5.0
49.852	8.0
49.867	6.0
49.882	2.0
49.897	6.0
49.912	2.0
49.927	5.0
49.942	1.0
49.957	5.0
49.971	8.0
49.986	5.0
50.001	6.0
50.016	3.0
50.031	8.0
50.046	3.0
50.061	5.0
50.076	4.0
50.091	3.0
50.106	4.0
50.121	5.0
50.136	4.0
50.151	5.0
50.166	4.0
50.181	4.0
50.196	3.0
50.211	2.0
50.226	6.0
50.241	8.0
50.256	7.0
50.271	7.0
50.286	6.0
50.302	10.0
50.317	6.0
50.332	6.0
50.347	4.0
50.362	7.0
50.377	5.0
50.392	7.0
50.407	3.0
50.422	8.0
50.437	7.0
50.452	9.0
50.467	7.0
50.482	3.0
50.497	4.0
50.512	7.0
50.527	8.0
50.542	5.0
50.557	5.0
50.572	6.0
50.587	10.0
50.602	4.0
50.617	3.0
50.632	5.0
50.647	4.0
50.662	6.0
50.677	7.0
50.692	9.0
50.707	3.0
50.722	4.0
50.737	2.0
50.752	3.0
50.767	6.0
50.782	8.0
50.797	6.0
50.812	6.0
50.828	13.0
50.843	4.0
50.858	12.0
50.873	5.0
50.888	8.0
50.903	6.0
50.918	11.0
50.933	6.0
50.948	9.0
50.963	8.0
50.978	3.0
50.993	7.0
51.008	5.0
51.023	6.0
51.038	3.0
51.053	4.0
51.068	3.0
51.083	2.0
51.098	3.0
51.114	4.0
51.129	8.0
51.144	2.0
51.159	1.0
51.174	1.0
51.189	5.0
51.204	5.0
51.219	3.0
51.234	4.0
51.249	6.0
51.264	5.0
51.279	7.0
51.294	6.0
51.309	6.0
51.324	7.0
51.34	5.0
51.355	9.0
51.37	5.0
51.385	9.0
51.4	7.0
51.415	6.0
51.43	10.0
51.445	6.0
51.46	16.0
51.475	12.0
51.49	13.0
51.505	18.0
51.52	19.0
51.535	14.0
51.551	14.0
51.566	13.0
51.581	16.0
51.596	19.0
51.611	11.0
51.626	10.0
51.641	11.0
51.656	10.0
51.671	8.0
51.686	5.0
51.701	10.0
51.716	5.0
51.732	5.0
51.747	4.0
51.762	9.0
51.777	7.0
51.792	5.0
51.807	12.0
51.822	13.0
51.837	8.0
51.852	13.0
51.867	10.0
51.882	13.0
51.898	13.0
51.913	12.0
51.928	2.0
51.943	4.0
51.958	9.0
51.973	4.0
51.988	8.0
52.003	6.0
52.018	4.0
52.033	0.0
52.048	2.0
52.064	4.0
52.079	7.0
52.094	4.0
52.109	2.0
52.124	7.0
52.139	5.0
52.154	5.0
52.169	2.0
52.184	7.0
52.199	6.0
52.215	3.0
52.23	5.0
52.245	5.0
52.26	5.0
52.275	7.0
52.29	5.0
52.305	3.0
52.32	3.0
52.335	7.0
52.35	5.0
52.366	4.0
52.381	9.0
52.396	4.0
52.411	6.0
52.426	5.0
52.441	8.0
52.456	9.0
52.471	8.0
52.486	9.0
52.502	6.0
52.517	5.0
52.532	10.0
52.547	7.0
52.562	5.0
52.577	10.0
52.592	11.0
52.607	10.0
52.622	7.0
52.637	7.0
52.653	10.0
52.668	9.0
52.683	4.0
52.698	12.0
52.713	3.0
52.728	7.0
52.743	6.0
52.758	10.0
52.774	1.0
52.789	10.0
52.804	3.0
52.819	8.0
52.834	2.0
52.849	9.0
52.864	6.0
52.879	7.0
52.894	5.0
52.91	12.0
52.925	4.0
52.94	4.0
52.955	5.0
52.97	5.0
52.985	5.0
53.0	2.0
53.015	9.0
53.031	5.0
53.046	9.0
53.061	6.0
53.076	2.0
53.091	7.0
53.106	3.0
53.121	4.0
53.136	8.0
53.152	5.0
53.167	2.0
53.182	5.0
53.197	2.0
53.212	2.0
53.227	4.0
53.242	2.0
53.257	1.0
53.273	7.0
53.288	8.0
53.303	3.0
53.318	9.0
53.333	6.0
53.348	5.0
53.363	4.0
53.379	5.0
53.394	4.0
53.409	4.0
53.424	5.0
53.439	4.0
53.454	5.0
53.469	3.0
53.484	5.0
53.5	3.0
53.515	2.0
53.53	0.0
53.545	6.0
53.56	5.0
53.575	3.0
53.59	5.0
53.606	3.0
53.621	4.0
53.636	6.0
53.651	4.0
53.666	6.0
53.681	1.0
53.696	4.0
53.712	6.0
53.727	5.0
53.742	3.0
53.757	9.0
53.772	5.0
53.787	2.0
53.802	2.0
53.818	6.0
53.833	5.0
53.848	3.0
53.863	7.0
53.878	4.0
53.893	7.0
53.909	5.0
53.924	3.0
53.939	9.0
53.954	4.0
53.969	4.0
53.984	2.0
53.999	8.0
54.015	5.0
54.03	4.0
54.045	9.0
54.06	2.0
54.075	2.0
54.09	2.0
54.106	3.0
54.121	4.0
54.136	5.0
54.151	4.0
54.166	7.0
54.181	4.0
54.197	2.0
54.212	5.0
54.227	4.0
54.242	4.0
54.257	4.0
54.272	3.0
54.288	2.0
54.303	8.0
54.318	1.0
54.333	5.0
54.348	4.0
54.363	3.0
54.379	2.0
54.394	6.0
54.409	2.0
54.424	5.0
54.439	4.0
54.454	7.0
54.47	3.0
54.485	2.0
54.5	5.0
54.515	4.0
54.53	6.0
54.545	5.0
54.561	12.0
54.576	5.0
54.591	6.0
54.606	12.0
54.621	8.0
54.636	10.0
54.652	19.0
54.667	4.0
54.682	9.0
54.697	10.0
54.712	11.0
54.727	12.0
54.743	3.0
54.758	9.0
54.773	8.0
54.788	7.0
54.803	8.0
54.819	14.0
54.834	9.0
54.849	7.0
54.864	4.0
54.879	3.0
54.894	7.0
54.91	10.0
54.925	11.0
54.94	5.0
54.955	7.0
54.97	10.0
54.985	10.0
55.001	5.0
55.016	7.0
55.031	13.0
55.046	11.0
55.061	9.0
55.077	10.0
55.092	6.0
55.107	6.0
55.122	3.0
55.137	7.0
55.152	5.0
55.168	3.0
55.183	3.0
55.198	6.0
55.213	3.0
55.228	4.0
55.243	5.0
55.259	3.0
55.274	4.0
55.289	3.0
55.304	5.0
55.319	5.0
55.335	6.0
55.35	2.0
55.365	4.0
55.38	3.0
55.395	6.0
55.41	7.0
55.426	2.0
55.441	7.0
55.456	7.0
55.471	6.0
55.486	9.0
55.501	3.0
55.517	5.0
55.532	4.0
55.547	8.0
55.562	7.0
55.577	7.0
55.592	4.0
55.608	6.0
55.623	6.0
55.638	8.0
55.653	7.0
55.668	4.0
55.683	9.0
55.699	4.0
55.714	8.0
55.729	9.0
55.744	8.0
55.759	5.0
55.774	3.0
55.79	8.0
55.805	7.0
55.82	5.0
55.835	7.0
55.85	9.0
55.865	7.0
55.881	6.0
55.896	5.0
55.911	9.0
55.926	7.0
55.941	3.0
55.956	5.0
55.972	5.0
55.987	8.0
56.002	4.0
56.017	10.0
56.032	13.0
56.047	3.0
56.063	4.0
56.078	7.0
56.093	5.0
56.108	2.0
56.123	5.0
56.138	10.0
56.154	6.0
56.169	3.0
56.184	4.0
56.199	4.0
56.214	7.0
56.229	5.0
56.244	3.0
56.26	7.0
56.275	4.0
56.29	3.0
56.305	8.0
56.32	3.0
56.335	3.0
56.351	3.0
56.366	3.0
56.381	4.0
56.396	2.0
56.411	7.0
56.426	4.0
56.441	6.0
56.457	7.0
56.472	7.0
56.487	2.0
56.502	5.0
56.517	5.0
56.532	3.0
56.547	4.0
56.563	5.0
56.578	1.0
56.593	7.0
56.608	4.0
56.623	6.0
56.638	9.0
56.653	3.0
56.668	5.0
56.684	2.0
56.699	2.0
56.714	2.0
56.729	5.0
56.744	10.0
56.759	3.0
56.774	4.0
56.79	6.0
56.805	6.0
56.82	4.0
56.835	4.0
56.85	4.0
56.865	3.0
56.88	7.0
56.895	4.0
56.911	3.0
56.926	5.0
56.941	4.0
56.956	9.0
56.971	7.0
56.986	4.0
57.001	3.0
57.016	2.0
57.031	6.0
57.047	6.0
57.062	4.0
57.077	4.0
57.092	6.0
57.107	6.0
57.122	4.0
57.137	2.0
57.152	4.0
57.167	2.0
57.183	4.0
57.198	5.0
57.213	3.0
57.228	2.0
57.243	5.0
57.258	2.0
57.273	5.0
57.288	6.0
57.303	7.0
57.318	3.0
57.334	5.0
57.349	2.0
57.364	4.0
57.379	6.0
57.394	3.0
57.409	7.0
57.424	5.0
57.439	4.0
57.454	4.0
57.469	5.0
57.484	2.0
57.5	2.0
57.515	4.0
57.53	4.0
57.545	3.0
57.56	4.0
57.575	6.0
57.59	5.0
57.605	4.0
57.62	5.0
57.635	2.0
57.65	5.0
57.665	9.0
57.68	3.0
57.696	5.0
57.711	5.0
57.726	2.0
57.741	6.0
57.756	1.0
57.771	6.0
57.786	3.0
57.801	6.0
57.816	7.0
57.831	6.0
57.846	7.0
57.861	3.0
57.876	2.0
57.891	6.0
57.906	5.0
57.921	7.0
57.937	4.0
57.952	2.0
57.967	8.0
57.982	7.0
57.997	2.0
58.012	3.0
58.027	4.0
58.042	5.0
58.057	5.0
58.072	8.0
58.087	7.0
58.102	7.0
58.117	3.0
58.132	7.0
58.147	4.0
58.162	1.0
58.177	4.0
58.192	3.0
58.207	5.0
58.222	3.0
58.237	5.0
58.252	5.0
58.267	4.0
58.282	6.0
58.297	6.0
58.312	1.0
58.327	1.0
58.342	3.0
58.357	2.0
58.372	7.0
58.387	5.0
58.402	8.0
58.418	5.0
58.433	4.0
58.448	3.0
58.463	5.0
58.478	3.0
58.493	2.0
58.508	4.0
58.523	7.0
58.538	4.0
58.553	5.0
58.568	1.0
58.583	6.0
58.598	3.0
58.613	7.0
58.628	4.0
58.643	9.0
58.658	11.0
58.673	10.0
58.688	7.0
58.703	12.0
58.718	6.0
58.733	9.0
58.748	5.0
58.763	3.0
58.778	6.0
58.793	5.0
58.808	5.0
58.823	4.0
58.838	3.0
58.853	7.0
58.868	3.0
58.883	7.0
58.898	3.0
58.913	2.0
58.928	5.0
58.942	6.0
58.957	8.0
58.972	3.0
58.987	9.0
59.002	3.0
59.017	4.0
59.032	9.0
59.047	4.0
59.062	7.0
59.077	3.0
59.092	2.0
59.107	6.0
59.122	9.0
59.137	9.0
59.152	4.0
59.167	3.0
59.182	4.0
59.197	1.0
59.212	5.0
59.227	3.0
59.242	4.0
59.257	3.0
59.272	3.0
59.287	6.0
59.302	4.0
59.317	6.0
59.332	7.0
59.347	2.0
59.362	4.0
59.377	2.0
59.392	4.0
59.407	4.0
59.422	5.0
59.437	4.0
59.452	4.0
59.467	7.0
59.482	3.0
59.497	4.0
59.512	7.0
59.527	4.0
59.542	7.0
59.557	3.0
59.572	5.0
59.587	5.0
59.602	12.0
59.617	10.0
59.632	4.0
59.647	9.0
59.661	6.0
59.676	7.0
59.691	5.0
59.706	5.0
59.721	13.0
59.736	8.0
59.751	4.0
59.766	4.0
59.781	3.0
59.796	3.0
59.811	4.0
59.826	6.0
59.841	6.0
59.856	5.0
59.871	5.0
59.886	3.0
59.901	2.0
59.916	4.0
59.931	5.0
59.946	3.0
59.961	8.0
59.976	9.0
59.991	6.0
60.006	5.0
60.021	2.0
60.036	7.0
60.051	4.0
60.066	11.0
60.081	4.0
60.096	5.0
60.111	5.0
60.126	7.0
60.141	5.0
60.156	2.0
60.171	8.0
60.186	6.0
60.201	6.0
60.216	2.0
60.231	3.0
60.246	4.0
60.261	8.0
60.276	4.0
60.291	2.0
60.306	3.0
60.321	5.0
60.336	10.0
60.35	5.0
60.365	3.0
60.38	4.0
60.395	5.0
60.41	5.0
60.425	4.0
60.44	5.0
60.455	2.0
60.47	10.0
60.485	15.0
60.5	7.0
60.515	9.0
60.53	6.0
60.545	10.0
60.56	9.0
60.575	4.0
60.59	10.0
60.605	12.0
60.62	10.0
60.635	4.0
60.65	8.0
60.665	7.0
60.68	1.0
60.695	3.0
60.71	2.0
60.725	6.0
60.74	5.0
60.755	6.0
60.77	6.0
60.785	6.0
60.8	1.0
60.815	6.0
60.83	5.0
60.845	4.0
60.86	3.0
60.875	8.0
60.89	6.0
60.905	2.0
60.92	4.0
60.935	5.0
60.95	5.0
60.965	5.0
60.98	10.0
60.995	6.0
61.01	10.0
61.025	4.0
61.04	8.0
61.055	3.0
61.07	5.0
61.085	3.0
61.1	7.0
61.115	9.0
61.13	3.0
61.145	4.0
61.16	6.0
61.175	2.0
61.191	3.0
61.206	2.0
61.221	5.0
61.236	4.0
61.251	3.0
61.266	4.0
61.281	0.0
61.296	3.0
61.311	5.0
61.326	7.0
61.341	3.0
61.356	7.0
61.371	5.0
61.386	2.0
61.401	3.0
61.416	3.0
61.431	8.0
61.446	4.0
61.461	6.0
61.476	10.0
61.491	9.0
61.506	6.0
61.521	5.0
61.536	8.0
61.551	4.0
61.566	5.0
61.581	2.0
61.596	9.0
61.611	5.0
61.626	5.0
61.641	3.0
61.656	6.0
61.672	5.0
61.687	6.0
61.702	2.0
61.717	3.0
61.732	5.0
61.747	1.0
61.762	5.0
61.777	6.0
61.792	4.0
61.807	4.0
61.822	7.0
61.837	4.0
61.852	5.0
61.867	2.0
61.882	5.0
61.897	1.0
61.912	3.0
61.927	5.0
61.943	4.0
61.958	8.0
61.973	7.0
61.988	7.0
62.003	5.0
62.018	3.0
62.033	3.0
62.048	5.0
62.063	4.0
62.078	4.0
62.093	6.0
62.108	4.0
62.123	5.0
62.138	4.0
62.153	2.0
62.169	2.0
62.184	2.0
62.199	4.0
62.214	4.0
62.229	1.0
62.244	6.0
62.259	6.0
62.274	7.0
62.289	4.0
62.304	8.0
62.319	3.0
62.335	2.0
62.35	5.0
62.365	2.0
62.38	6.0
62.395	7.0
62.41	4.0
62.425	1.0
62.44	2.0
62.455	3.0
62.47	5.0
62.485	10.0
62.501	6.0
62.516	5.0
62.531	3.0
62.546	6.0
62.561	0.0
62.576	6.0
62.591	5.0
62.606	5.0
62.621	7.0
62.636	2.0
62.652	4.0
62.667	5.0
62.682	2.0
62.697	6.0
62.712	6.0
62.727	2.0
62.742	6.0
62.757	2.0
62.772	4.0
62.787	2.0
62.803	6.0
62.818	3.0
62.833	6.0
62.848	5.0
62.863	5.0
62.878	3.0
62.893	11.0
62.908	5.0
62.923	4.0
62.939	0.0
62.954	6.0
62.969	5.0
62.984	5.0
62.999	5.0
63.014	4.0
63.029	4.0
63.044	5.0
63.059	3.0
63.074	6.0
63.09	4.0
63.105	3.0
63.12	4.0
63.135	7.0
63.15	3.0
63.165	6.0
63.18	1.0
63.195	5.0
63.21	2.0
63.226	8.0
63.241	4.0
63.256	2.0
63.271	3.0
63.286	5.0
63.301	7.0
63.316	6.0
63.331	8.0
63.346	5.0
63.362	8.0
63.377	14.0
63.392	3.0
63.407	10.0
63.422	4.0
63.437	9.0
63.452	5.0
63.467	5.0
63.482	6.0
63.497	7.0
63.513	6.0
63.528	3.0
63.543	5.0
63.558	9.0
63.573	7.0
63.588	3.0
63.603	7.0
63.618	2.0
63.633	4.0
63.648	4.0
63.664	2.0
63.679	4.0
63.694	7.0
63.709	6.0
63.724	2.0
63.739	6.0
63.754	1.0
63.769	5.0
63.784	5.0
63.799	5.0
63.814	5.0
63.83	5.0
63.845	5.0
63.86	7.0
63.875	6.0
63.89	8.0
63.905	2.0
63.92	11.0
63.935	4.0
63.95	6.0
63.965	5.0
63.98	3.0
63.996	3.0
64.011	3.0
64.026	3.0
64.041	4.0
64.056	3.0
64.071	1.0
64.086	2.0
64.101	3.0
64.116	6.0
64.131	5.0
64.146	3.0
64.161	3.0
64.176	4.0
64.191	2.0
64.207	3.0
64.222	2.0
64.237	4.0
64.252	4.0
64.267	4.0
64.282	4.0
64.297	2.0
64.312	2.0
64.327	3.0
64.342	4.0
64.357	4.0
64.372	5.0
64.387	0.0
64.402	6.0
64.417	2.0
64.433	8.0
64.448	6.0
64.463	3.0
64.478	1.0
64.493	4.0
64.508	3.0
64.523	5.0
64.538	4.0
64.553	6.0
64.568	4.0
64.583	2.0
64.598	2.0
64.613	6.0
64.628	2.0
64.643	4.0
64.658	4.0
64.673	5.0
64.688	1.0
64.703	8.0
64.718	3.0
64.734	6.0
64.749	4.0
64.764	5.0
64.779	6.0
64.794	4.0
64.809	4.0
64.824	3.0
64.839	1.0
64.854	4.0
64.869	4.0
64.884	5.0
64.899	6.0
64.914	4.0
64.929	7.0
64.944	7.0
64.959	2.0
64.974	2.0
64.989	5.0
65.004	8.0
65.019	3.0
65.034	4.0
65.049	7.0
65.064	5.0
65.079	2.0
65.094	2.0
65.109	4.0
65.125	7.0
65.14	2.0
65.155	2.0
65.17	3.0
65.185	5.0
65.2	9.0
65.215	3.0
65.23	5.0
65.245	3.0
65.26	6.0
65.275	5.0
65.29	8.0
65.305	4.0
65.32	6.0
65.335	6.0
65.35	5.0
65.365	3.0
65.38	4.0
65.395	5.0
65.41	3.0
65.425	5.0
65.44	1.0
65.455	2.0
65.47	5.0
65.485	4.0
65.5	2.0
65.515	0.0
65.53	6.0
65.545	5.0
65.56	4.0
65.575	7.0
65.59	3.0
65.605	7.0
65.62	5.0
65.635	4.0
65.65	7.0
65.666	3.0
65.681	1.0
65.696	4.0
65.711	3.0
65.726	3.0
65.741	5.0
65.756	5.0
65.771	6.0
65.786	5.0
65.801	3.0
65.816	4.0
65.831	3.0
65.846	4.0
65.861	5.0
65.876	2.0
65.891	4.0
65.906	4.0
65.921	6.0
65.936	5.0
65.951	4.0
65.966	4.0
65.981	8.0
65.996	5.0
66.011	3.0
66.026	2.0
66.041	1.0
66.056	5.0
66.071	6.0
66.086	5.0
66.101	5.0
66.116	6.0
66.131	7.0
66.146	3.0
66.161	6.0
66.176	6.0
66.191	6.0
66.206	9.0
66.221	5.0
66.236	5.0
66.251	4.0
66.266	4.0
66.281	9.0
66.296	6.0
66.311	5.0
66.327	4.0
66.342	6.0
66.357	2.0
66.372	4.0
66.387	6.0
66.402	4.0
66.417	2.0
66.432	4.0
66.447	6.0
66.462	4.0
66.477	3.0
66.492	4.0
66.507	5.0
66.522	6.0
66.537	2.0
66.552	5.0
66.567	9.0
66.582	7.0
66.597	2.0
66.612	4.0
66.627	5.0
66.642	4.0
66.657	5.0
66.672	3.0
66.687	11.0
66.702	4.0
66.717	8.0
66.732	4.0
66.747	2.0
66.762	6.0
66.777	3.0
66.792	5.0
66.807	1.0
66.822	1.0
66.837	3.0
66.853	3.0
66.868	2.0
66.883	3.0
66.898	1.0
66.913	4.0
66.928	3.0
66.943	2.0
66.958	2.0
66.973	2.0
66.988	8.0
67.003	3.0
67.018	2.0
67.033	0.0
67.048	3.0
67.063	9.0
67.078	6.0
67.093	6.0
67.108	4.0
67.123	3.0
67.138	4.0
67.153	4.0
67.168	8.0
67.183	6.0
67.198	5.0
67.214	2.0
67.229	7.0
67.244	3.0
67.259	3.0
67.274	4.0
67.289	3.0
67.304	1.0
67.319	5.0
67.334	2.0
67.349	4.0
67.364	2.0
67.379	0.0
67.394	4.0
67.409	4.0
67.424	5.0
67.439	1.0
67.454	3.0
67.469	2.0
67.484	4.0
67.5	7.0
67.515	4.0
67.53	4.0
67.545	3.0
67.56	2.0
67.575	8.0
67.59	5.0
67.605	7.0
67.62	4.0
67.635	2.0
67.65	2.0
67.665	1.0
67.68	3.0
67.695	7.0
67.71	4.0
67.726	3.0
67.741	6.0
67.756	5.0
67.771	8.0
67.786	2.0
67.801	5.0
67.816	1.0
67.831	4.0
67.846	6.0
67.861	3.0
67.876	4.0
67.891	6.0
67.906	6.0
67.922	5.0
67.937	1.0
67.952	1.0
67.967	1.0
67.982	2.0
67.997	1.0
68.012	10.0
68.027	6.0
68.042	10.0
68.057	2.0
68.072	3.0
68.087	1.0
68.103	5.0
68.118	4.0
68.133	1.0
68.148	5.0
68.163	2.0
68.178	3.0
68.193	3.0
68.208	3.0
68.223	2.0
68.238	4.0
68.254	1.0
68.269	8.0
68.284	2.0
68.299	3.0
68.314	5.0
68.329	4.0
68.344	4.0
68.359	4.0
68.374	3.0
68.389	4.0
68.405	2.0
68.42	3.0
68.435	5.0
68.45	6.0
68.465	3.0
68.48	3.0
68.495	5.0
68.51	3.0
68.525	4.0
68.54	4.0
68.556	3.0
68.571	2.0
68.586	3.0
68.601	8.0
68.616	6.0
68.631	2.0
68.646	4.0
68.661	4.0
68.676	4.0
68.691	8.0
68.707	4.0
68.722	5.0
68.737	4.0
68.752	4.0
68.767	2.0
68.782	4.0
68.797	2.0
68.812	1.0
68.827	3.0
68.842	2.0
68.857	3.0
68.873	5.0
68.888	5.0
68.903	6.0
68.918	6.0
68.933	2.0
68.948	3.0
68.963	4.0
68.978	4.0
68.993	2.0
69.008	3.0
69.023	3.0
69.038	3.0
69.054	6.0
69.069	6.0
69.084	6.0
69.099	0.0
69.114	3.0
69.129	3.0
69.144	1.0
69.159	0.0
69.174	2.0
69.189	4.0
69.204	4.0
69.219	2.0
69.234	5.0
69.249	2.0
69.264	1.0
69.279	2.0
69.295	5.0
69.31	2.0
69.325	4.0
69.34	3.0
69.355	2.0
69.37	3.0
69.385	4.0
69.4	4.0
69.415	8.0
69.43	3.0
69.445	3.0
69.46	1.0
69.475	2.0
69.49	4.0
69.505	2.0
69.52	5.0
69.535	2.0
69.55	1.0
69.565	7.0
69.58	1.0
69.595	4.0
69.61	5.0
69.625	2.0
69.64	4.0
69.655	1.0
69.67	6.0
69.685	3.0
69.7	3.0
69.715	6.0
69.73	7.0
69.745	4.0
69.76	8.0
69.775	4.0
69.79	5.0
69.805	5.0
69.82	3.0
69.835	4.0
69.85	9.0
69.865	10.0
69.88	2.0
69.895	7.0
69.909	2.0
69.924	5.0
69.939	1.0
69.954	3.0
69.969	3.0
69.984	3.0
69.999	4.0
70.014	5.0
70.029	4.0
70.044	3.0
70.059	4.0
70.074	5.0
70.088	5.0
70.103	5.0
70.118	6.0
70.133	3.0
70.148	2.0
70.163	4.0
70.178	4.0
70.193	5.0
70.208	6.0
70.222	4.0
70.237	7.0
70.252	7.0
70.267	7.0
70.282	4.0
70.297	5.0
70.312	6.0
70.327	4.0
70.341	3.0
70.356	3.0
70.371	4.0
70.386	3.0
70.401	5.0
70.416	3.0
70.43	4.0
70.445	5.0
70.46	2.0
70.475	2.0
70.49	6.0
70.505	3.0
70.519	4.0
70.534	2.0
70.549	4.0
70.564	3.0
70.579	8.0
70.594	4.0
70.608	4.0
70.623	2.0
70.638	6.0
70.653	2.0
70.668	5.0
70.683	8.0
70.697	5.0
70.712	4.0
70.727	5.0
70.742	6.0
70.757	6.0
70.771	4.0
70.786	6.0
70.801	5.0
70.816	5.0
70.831	2.0
70.845	3.0
70.86	1.0
70.875	1.0
70.89	5.0
70.905	2.0
70.92	3.0
70.934	3.0
70.949	2.0
70.964	0.0
70.979	2.0
70.994	8.0
71.008	4.0
71.023	2.0
71.038	3.0
71.053	2.0
71.068	1.0
71.082	2.0
71.097	3.0
71.112	6.0
71.127	7.0
71.142	5.0
71.156	4.0
71.171	2.0
71.186	6.0
71.201	4.0
71.216	3.0
71.231	5.0
71.245	7.0
71.26	4.0
71.275	2.0
71.29	5.0
71.305	4.0
71.319	7.0
71.334	4.0
71.349	1.0
71.364	6.0
71.379	4.0
71.394	3.0
71.408	1.0
71.423	5.0
71.438	2.0
71.453	2.0
71.468	4.0
71.483	6.0
71.497	1.0
71.512	4.0
71.527	6.0
71.542	1.0
71.557	4.0
71.572	0.0
71.586	4.0
71.601	3.0
71.616	2.0
71.631	5.0
71.646	5.0
71.661	3.0
71.676	3.0
71.69	0.0
71.705	1.0
71.72	3.0
71.735	5.0
71.75	3.0
71.765	4.0
71.78	5.0
71.795	5.0
71.81	2.0
71.824	4.0
71.839	7.0
71.854	1.0
71.869	1.0
71.884	6.0
71.899	2.0
71.914	5.0
71.929	3.0
71.944	9.0
71.959	5.0
71.974	8.0
71.988	4.0
72.003	1.0
72.018	0.0
72.033	4.0
72.048	3.0
72.063	5.0
72.078	4.0
72.093	3.0
72.108	3.0
72.123	3.0
72.138	6.0
72.153	3.0
72.168	3.0
72.183	6.0
72.198	5.0
72.213	4.0
72.228	0.0
72.243	1.0
72.258	6.0
72.273	4.0
72.288	3.0
72.303	4.0
72.318	3.0
72.333	5.0
72.348	3.0
72.363	1.0
72.378	2.0
72.393	4.0
72.408	4.0
72.423	6.0
72.438	3.0
72.453	3.0
72.468	5.0
72.483	6.0
72.498	2.0
72.513	4.0
72.528	2.0
72.543	5.0
72.558	1.0
72.573	4.0
72.588	3.0
72.603	3.0
72.618	1.0
72.633	2.0
72.649	2.0
72.664	2.0
72.679	3.0
72.694	1.0
72.709	5.0
72.724	3.0
72.739	2.0
72.754	2.0
72.769	5.0
72.784	3.0
72.799	2.0
72.814	3.0
72.829	4.0
72.845	2.0
72.86	5.0
72.875	1.0
72.89	3.0
72.905	1.0
72.92	2.0
72.935	2.0
72.95	0.0
72.965	2.0
72.98	4.0
72.996	1.0
73.011	6.0
73.026	4.0
73.041	1.0
73.056	8.0
73.071	3.0
73.086	5.0
73.101	4.0
73.117	0.0
73.132	2.0
73.147	6.0
73.162	3.0
73.177	2.0
73.192	2.0
73.207	2.0
73.222	3.0
73.238	8.0
73.253	6.0
73.268	4.0
73.283	3.0
73.298	6.0
73.313	1.0
73.328	2.0
73.343	3.0
73.359	3.0
73.374	6.0
73.389	2.0
73.404	4.0
73.419	7.0
73.434	2.0
73.449	3.0
73.465	4.0
73.48	5.0
73.495	10.0
73.51	5.0
73.525	0.0
73.54	3.0
73.556	3.0
73.571	1.0
73.586	3.0
73.601	3.0
73.616	10.0
73.631	1.0
73.646	4.0
73.662	5.0
73.677	6.0
73.692	7.0
73.707	2.0
73.722	4.0
73.737	2.0
73.752	4.0
73.768	6.0
73.783	7.0
73.798	6.0
73.813	4.0
73.828	2.0
73.843	4.0
73.859	2.0
73.874	3.0
73.889	8.0
73.904	2.0
73.919	1.0
73.934	3.0
73.949	4.0
73.965	5.0
73.98	1.0
73.995	2.0
74.01	2.0
74.025	4.0
74.04	3.0
74.056	5.0
74.071	4.0
74.086	9.0
74.101	6.0
74.116	3.0
74.131	3.0
74.146	5.0
74.162	6.0
74.177	4.0
74.192	4.0
74.207	3.0
74.222	8.0
74.237	3.0
74.252	7.0
74.268	5.0
74.283	10.0
74.298	2.0
74.313	4.0
74.328	2.0
74.343	3.0
74.358	3.0
74.374	5.0
74.389	3.0
74.404	7.0
74.419	2.0
74.434	2.0
74.449	1.0
74.464	7.0
74.48	2.0
74.495	3.0
74.51	6.0
74.525	3.0
74.54	2.0
74.555	2.0
74.57	5.0
74.586	3.0
74.601	2.0
74.616	3.0
74.631	1.0
74.646	8.0
74.661	5.0
74.676	3.0
74.691	7.0
74.707	7.0
74.722	4.0
74.737	1.0
74.752	4.0
74.767	1.0
74.782	10.0
74.797	4.0
74.813	2.0
74.828	5.0
74.843	3.0
74.858	3.0
74.873	8.0
74.888	5.0
74.903	0.0
74.918	2.0
74.934	3.0
74.949	4.0
74.964	4.0
74.979	3.0
74.994	5.0
75.009	6.0
75.024	9.0
75.04	5.0
75.055	2.0
75.07	3.0
75.085	2.0
75.1	6.0
75.115	5.0
75.13	2.0
75.145	4.0
75.161	4.0
75.176	3.0
75.191	3.0
75.206	2.0
75.221	2.0
75.236	2.0
75.251	4.0
75.266	4.0
75.282	3.0
75.297	4.0
75.312	6.0
75.327	4.0
75.342	2.0
75.357	3.0
75.372	4.0
75.387	4.0
75.403	6.0
75.418	4.0
75.433	6.0
75.448	3.0
75.463	2.0
75.478	5.0
75.493	2.0
75.509	3.0
75.524	2.0
75.539	7.0
75.554	7.0
75.569	6.0
75.584	3.0
75.599	3.0
75.614	7.0
75.63	4.0
75.645	5.0
75.66	2.0
75.675	0.0
75.69	3.0
75.705	3.0
75.72	2.0
75.735	1.0
75.751	4.0
75.766	2.0
75.781	7.0
75.796	5.0
75.811	4.0
75.826	3.0
75.841	3.0
75.856	2.0
75.872	5.0
75.887	2.0
75.902	3.0
75.917	4.0
75.932	4.0
75.947	1.0
75.962	2.0
75.977	3.0
75.993	4.0
76.008	4.0
76.023	3.0
76.038	2.0
76.053	1.0
76.068	3.0
76.083	2.0
76.098	1.0
76.114	2.0
76.129	2.0
76.144	1.0
76.159	1.0
76.174	2.0
76.189	3.0
76.204	3.0
76.22	1.0
76.235	9.0
76.25	5.0
76.265	0.0
76.28	1.0
76.295	2.0
76.31	3.0
76.325	5.0
76.341	5.0
76.356	3.0
76.371	3.0
76.386	2.0
76.401	3.0
76.416	2.0
76.431	7.0
76.446	2.0
76.462	4.0
76.477	6.0
76.492	1.0
76.507	6.0
76.522	4.0
76.537	2.0
76.552	1.0
76.567	1.0
76.583	5.0
76.598	4.0
76.613	4.0
76.628	4.0
76.643	3.0
76.658	5.0
76.673	5.0
76.688	8.0
76.704	5.0
76.719	3.0
76.734	4.0
76.749	4.0
76.764	4.0
76.779	8.0
76.794	7.0
76.809	1.0
76.824	3.0
76.84	6.0
76.855	6.0
76.87	6.0
76.885	3.0
76.9	1.0
76.915	4.0
76.93	5.0
76.945	3.0
76.96	4.0
76.976	5.0
76.991	2.0
77.006	1.0
77.021	3.0
77.036	3.0
77.051	4.0
77.066	1.0
77.081	5.0
77.096	5.0
77.112	3.0
77.127	3.0
77.142	3.0
77.157	6.0
77.172	2.0
77.187	4.0
77.202	2.0
77.217	3.0
77.232	9.0
77.247	3.0
77.263	2.0
77.278	4.0
77.293	1.0
77.308	5.0
77.323	4.0
77.338	7.0
77.353	3.0
77.368	1.0
77.383	6.0
77.398	1.0
77.413	3.0
77.428	1.0
77.444	3.0
77.459	1.0
77.474	3.0
77.489	5.0
77.504	5.0
77.519	4.0
77.534	6.0
77.549	5.0
77.564	3.0
77.579	2.0
77.594	9.0
77.609	7.0
77.624	2.0
77.64	4.0
77.655	5.0
77.67	6.0
77.685	4.0
77.7	7.0
77.715	3.0
77.73	3.0
77.745	5.0
77.76	4.0
77.775	4.0
77.79	1.0
77.805	3.0
77.82	3.0
77.835	7.0
77.85	2.0
77.865	0.0
77.88	2.0
77.895	1.0
77.91	0.0
77.926	2.0
77.941	1.0
77.956	1.0
77.971	3.0
77.986	3.0
78.001	1.0
78.016	3.0
78.031	2.0
78.046	5.0
78.061	4.0
78.076	7.0
78.091	6.0
78.106	11.0
78.121	5.0
78.136	4.0
78.151	8.0
78.166	3.0
78.181	7.0
78.196	8.0
78.211	5.0
78.226	3.0
78.241	5.0
78.256	3.0
78.271	2.0
78.286	4.0
78.301	2.0
78.316	4.0
78.331	2.0
78.346	3.0
78.361	2.0
78.376	4.0
78.391	5.0
78.406	3.0
78.421	5.0
78.436	1.0
78.451	3.0
78.466	2.0
78.481	3.0
78.496	2.0
78.511	4.0
78.526	4.0
78.541	2.0
78.556	3.0
78.571	6.0
78.586	4.0
78.601	5.0
78.616	4.0
78.631	5.0
78.646	5.0
78.661	6.0
78.676	5.0
78.691	1.0
78.706	4.0
78.721	1.0
78.736	1.0
78.751	2.0
78.766	3.0
78.781	1.0
78.796	3.0
78.811	5.0
78.826	4.0
78.841	2.0
78.856	1.0
78.871	2.0
78.885	3.0
78.9	2.0
78.915	3.0
78.93	4.0
78.945	1.0
78.96	1.0
78.975	1.0
78.99	1.0
79.005	1.0
79.02	2.0
79.035	5.0
79.05	4.0
79.065	3.0
79.08	1.0
79.095	1.0
79.11	3.0
79.125	0.0
79.14	4.0
79.155	3.0
79.17	4.0
79.185	0.0
79.2	4.0
79.215	2.0
79.23	1.0
79.245	1.0
79.26	2.0
79.275	2.0
79.29	2.0
79.304	3.0
79.319	4.0
79.334	2.0
79.349	6.0
79.364	2.0
79.379	3.0
79.394	4.0
79.409	5.0
79.424	3.0
79.439	2.0
79.454	2.0
79.469	5.0
79.484	5.0
79.499	1.0
79.514	5.0
79.529	5.0
79.544	4.0
79.559	5.0
79.574	3.0
79.589	1.0
79.604	1.0
79.619	3.0
79.634	5.0
79.649	6.0
79.664	4.0
79.679	2.0
79.693	3.0
79.708	4.0
79.723	2.0
79.738	5.0
79.753	3.0
79.768	3.0
79.783	2.0
79.798	4.0
79.813	4.0
79.828	2.0
79.843	3.0
79.858	5.0
79.873	2.0
79.888	4.0
79.903	2.0
79.918	0.0
79.933	5.0
79.948	2.0
79.963	1.0
79.978	2.0
79.993	7.0
80.008	5.0
80.023	7.0
80.038	4.0
80.053	5.0
80.068	5.0
80.083	1.0
80.098	2.0
80.113	2.0
80.128	3.0
80.143	3.0
80.158	2.0
80.173	5.0
80.188	6.0
80.202	5.0
80.217	2.0
80.232	7.0
80.247	3.0
80.262	2.0
80.277	2.0
80.292	6.0
80.307	5.0
80.322	5.0
80.337	6.0
80.352	5.0
80.367	3.0
80.382	2.0
80.397	2.0
80.412	3.0
80.427	1.0
80.442	3.0
80.457	4.0
80.472	2.0
80.487	3.0
80.502	2.0
80.517	2.0
80.532	3.0
80.547	3.0
80.562	4.0
80.577	2.0
80.592	6.0
80.607	2.0
80.622	3.0
80.637	0.0
80.652	4.0
80.667	3.0
80.682	4.0
80.697	1.0
80.712	5.0
80.727	7.0
80.742	3.0
80.757	4.0
80.772	3.0
80.787	2.0
80.802	2.0
80.817	2.0
80.832	2.0
80.847	3.0
80.862	3.0
80.877	3.0
80.892	3.0
80.907	3.0
80.922	5.0
80.937	3.0
80.952	5.0
80.967	6.0
80.982	5.0
80.997	3.0
81.012	9.0
81.027	3.0
81.042	2.0
81.057	4.0
81.072	5.0
81.087	4.0
81.101	5.0
81.116	6.0
81.131	6.0
81.146	1.0
81.161	7.0
81.176	7.0
81.191	2.0
81.206	3.0
81.221	0.0
81.236	3.0
81.251	4.0
81.266	1.0
81.281	0.0
81.296	3.0
81.311	4.0
81.326	4.0
81.341	1.0
81.356	1.0
81.371	3.0
81.386	0.0
81.401	1.0
81.416	5.0
81.431	4.0
81.446	1.0
81.461	6.0
81.476	2.0
81.491	2.0
81.506	3.0
81.521	3.0
81.536	1.0
81.55	2.0
81.565	2.0
81.58	3.0
81.595	3.0
81.61	3.0
81.625	0.0
81.64	3.0
81.655	1.0
81.67	2.0
81.685	2.0
81.7	4.0
81.715	2.0
81.73	0.0
81.745	2.0
81.76	4.0
81.775	3.0
81.79	4.0
81.805	11.0
81.819	2.0
81.834	8.0
81.849	4.0
81.864	3.0
81.879	6.0
81.894	2.0
81.909	3.0
81.924	3.0
81.939	4.0
81.954	2.0
81.969	2.0
81.984	3.0
81.999	4.0
82.013	4.0
82.028	7.0
82.043	4.0
82.058	1.0
82.073	6.0
82.088	1.0
82.103	3.0
82.118	4.0
82.133	0.0
82.148	2.0
82.163	0.0
82.177	2.0
82.192	5.0
82.207	2.0
82.222	1.0
82.237	5.0
82.252	2.0
82.267	3.0
82.282	3.0
82.297	4.0
82.312	2.0
82.326	1.0
82.341	4.0
82.356	3.0
82.371	1.0
82.386	4.0
82.401	3.0
82.416	3.0
82.431	3.0
82.445	4.0
82.46	3.0
82.475	6.0
82.49	5.0
82.505	3.0
82.52	3.0
82.535	5.0
82.55	4.0
82.565	5.0
82.579	4.0
82.594	3.0
82.609	2.0
82.624	2.0
82.639	9.0
82.654	2.0
82.669	3.0
82.684	3.0
82.698	1.0
82.713	3.0
82.728	6.0
82.743	3.0
82.758	1.0
82.773	3.0
82.788	5.0
82.803	3.0
82.817	5.0
82.832	2.0
82.847	1.0
82.862	2.0
82.877	3.0
82.892	5.0
82.907	6.0
82.922	3.0
82.937	1.0
82.951	1.0
82.966	4.0
82.981	2.0
82.996	2.0
83.011	3.0
83.026	1.0
83.041	8.0
83.056	4.0
83.07	1.0
83.085	2.0
83.1	0.0
83.115	4.0
83.13	2.0
83.145	2.0
83.16	2.0
83.175	2.0
83.19	4.0
83.204	5.0
83.219	3.0
83.234	2.0
83.249	5.0
83.264	3.0
83.279	3.0
83.294	2.0
83.309	2.0
83.324	5.0
83.339	2.0
83.353	3.0
83.368	3.0
83.383	4.0
83.398	3.0
83.413	4.0
83.428	3.0
83.443	5.0
83.458	2.0
83.473	4.0
83.488	4.0
83.503	2.0
83.517	3.0
83.532	4.0
83.547	1.0
83.562	2.0
83.577	4.0
83.592	5.0
83.607	4.0
83.622	2.0
83.637	3.0
83.652	2.0
83.667	2.0
83.682	4.0
83.697	4.0
83.712	5.0
83.727	4.0
83.741	1.0
83.756	3.0
83.771	3.0
83.786	2.0
83.801	0.0
83.816	4.0
83.831	1.0
83.846	5.0
83.861	1.0
83.876	1.0
83.891	0.0
83.906	1.0
83.921	6.0
83.936	3.0
83.951	5.0
83.966	3.0
83.981	3.0
83.996	5.0
84.011	2.0
84.026	2.0
84.041	3.0
84.056	2.0
84.071	5.0
84.086	3.0
84.101	4.0
84.116	2.0
84.131	7.0
84.146	2.0
84.161	5.0
84.176	2.0
84.191	1.0
84.206	4.0
84.221	9.0
84.236	1.0
84.251	2.0
84.266	7.0
84.281	2.0
84.296	4.0
84.311	5.0
84.326	2.0
84.341	4.0
84.356	4.0
84.371	3.0
84.386	2.0
84.401	1.0
84.416	3.0
84.431	8.0
84.446	3.0
84.461	6.0
84.476	2.0
84.492	4.0
84.507	5.0
84.522	0.0
84.537	4.0
84.552	1.0
84.567	1.0
84.582	7.0
84.597	2.0
84.612	4.0
84.627	2.0
84.642	3.0
84.657	4.0
84.672	2.0
84.687	0.0
84.702	4.0
84.717	0.0
84.733	3.0
84.748	2.0
84.763	0.0
84.778	2.0
84.793	0.0
84.808	4.0
84.823	4.0
84.838	1.0
84.853	6.0
84.868	3.0
84.883	4.0
84.898	0.0
84.913	1.0
84.929	4.0
84.944	4.0
84.959	2.0
84.974	1.0
84.989	4.0
85.004	2.0
85.019	3.0
85.034	1.0
85.049	3.0
85.064	5.0
85.079	4.0
85.094	0.0
85.11	1.0
85.125	0.0
85.14	4.0
85.155	3.0
85.17	1.0
85.185	3.0
85.2	5.0
85.215	2.0
85.23	1.0
85.245	1.0
85.26	3.0
85.276	3.0
85.291	7.0
85.306	5.0
85.321	1.0
85.336	2.0
85.351	1.0
85.366	1.0
85.381	3.0
85.396	2.0
85.411	2.0
85.426	5.0
85.441	4.0
85.457	3.0
85.472	4.0
85.487	2.0
85.502	2.0
85.517	1.0
85.532	4.0
85.547	3.0
85.562	2.0
85.577	5.0
85.592	3.0
85.607	5.0
85.622	1.0
85.637	5.0
85.653	0.0
85.668	3.0
85.683	1.0
85.698	3.0
85.713	1.0
85.728	1.0
85.743	3.0
85.758	2.0
85.773	1.0
85.788	2.0
85.803	4.0
85.818	5.0
85.833	0.0
85.848	3.0
85.863	4.0
85.879	4.0
85.894	4.0
85.909	1.0
85.924	2.0
85.939	4.0
85.954	3.0
85.969	2.0
85.984	0.0
85.999	3.0
86.014	4.0
86.029	5.0
86.044	1.0
86.059	3.0
86.074	2.0
86.089	2.0
86.104	3.0
86.119	2.0
86.134	3.0
86.149	0.0
86.164	3.0
86.179	4.0
86.194	4.0
86.209	4.0
86.224	1.0
86.239	2.0
86.254	4.0
86.269	5.0
86.284	5.0
86.299	7.0
86.314	1.0
86.33	3.0
86.345	0.0
86.36	1.0
86.375	2.0
86.39	3.0
86.405	3.0
86.42	5.0
86.435	5.0
86.45	1.0
86.465	8.0
86.48	2.0
86.495	2.0
86.51	7.0
86.525	4.0
86.54	6.0
86.555	6.0
86.57	2.0
86.585	1.0
86.6	1.0
86.615	4.0
86.63	5.0
86.645	3.0
86.659	3.0
86.674	0.0
86.689	2.0
86.704	5.0
86.719	2.0
86.734	5.0
86.749	5.0
86.764	8.0
86.779	4.0
86.794	3.0
86.809	5.0
86.824	3.0
86.839	4.0
86.854	2.0
86.869	3.0
86.884	4.0
86.899	6.0
86.914	0.0
86.929	6.0
86.944	6.0
86.959	4.0
86.974	4.0
86.989	2.0
87.004	8.0
87.019	3.0
87.034	4.0
87.049	1.0
87.064	4.0
87.079	3.0
87.094	5.0
87.109	5.0
87.124	3.0
87.139	2.0
87.154	4.0
87.169	3.0
87.184	2.0
87.199	2.0
87.214	2.0
87.229	2.0
87.244	1.0
87.259	1.0
87.274	2.0
87.289	4.0
87.304	3.0
87.319	3.0
87.334	4.0
87.349	3.0
87.364	4.0
87.379	2.0
87.394	5.0
87.409	2.0
87.424	2.0
87.438	3.0
87.453	1.0
87.468	2.0
87.483	2.0
87.498	6.0
87.513	6.0
87.528	1.0
87.543	4.0
87.558	2.0
87.573	5.0
87.588	2.0
87.603	5.0
87.618	4.0
87.633	3.0
87.648	4.0
87.663	4.0
87.678	4.0
87.693	5.0
87.708	3.0
87.723	4.0
87.738	4.0
87.753	2.0
87.768	3.0
87.783	5.0
87.798	2.0
87.813	10.0
87.828	6.0
87.843	4.0
87.858	3.0
87.873	4.0
87.888	4.0
87.903	1.0
87.918	3.0
87.933	5.0
87.948	5.0
87.963	2.0
87.978	3.0
87.993	2.0
88.008	2.0
88.023	2.0
88.038	3.0
88.053	1.0
88.068	4.0
88.083	4.0
88.098	2.0
88.113	3.0
88.128	2.0
88.143	2.0
88.158	2.0
88.174	6.0
88.189	4.0
88.204	3.0
88.219	2.0
88.234	2.0
88.249	8.0
88.264	4.0
88.279	4.0
88.294	6.0
88.309	3.0
88.324	1.0
88.339	3.0
88.354	3.0
88.369	4.0
88.384	7.0
88.399	3.0
88.414	1.0
88.429	2.0
88.444	2.0
88.459	2.0
88.474	3.0
88.489	4.0
88.504	3.0
88.519	3.0
88.534	1.0
88.549	4.0
88.564	7.0
88.58	4.0
88.595	6.0
88.61	3.0
88.625	2.0
88.64	2.0
88.655	2.0
88.67	1.0
88.685	1.0
88.7	5.0
88.715	1.0
88.73	2.0
88.745	1.0
88.76	2.0
88.775	5.0
88.79	1.0
88.805	1.0
88.82	1.0
88.835	4.0
88.85	4.0
88.865	3.0
88.88	0.0
88.895	7.0
88.911	3.0
88.926	2.0
88.941	1.0
88.956	1.0
88.971	3.0
88.986	3.0
89.001	1.0
89.016	4.0
89.031	3.0
89.046	0.0
89.061	0.0
89.076	3.0
89.091	2.0
89.106	5.0
89.121	1.0
89.136	4.0
89.151	5.0
89.166	3.0
89.181	5.0
89.196	2.0
89.211	4.0
89.227	2.0
89.242	3.0
89.257	4.0
89.272	4.0
89.287	1.0
89.302	7.0
89.317	2.0
89.332	3.0
89.347	2.0
89.362	4.0
89.377	3.0
89.392	5.0
89.407	5.0
89.422	2.0
89.437	4.0
89.452	4.0
89.467	3.0
89.482	2.0
89.497	10.0
89.512	2.0
89.527	5.0
89.542	2.0
89.557	2.0
89.572	2.0
89.587	4.0
89.602	6.0
89.617	5.0
89.632	6.0
89.647	2.0
89.662	3.0
89.677	3.0
89.693	3.0
89.708	2.0
89.723	3.0
89.738	7.0
89.753	2.0
89.768	3.0
89.783	4.0
89.798	2.0
89.813	6.0
89.828	4.0
89.843	2.0
89.858	3.0
89.873	2.0
89.888	2.0
89.903	3.0
89.918	2.0
89.933	2.0
89.948	2.0
89.963	3.0
89.978	4.0
89.993	3.0
90.008	6.0
90.023	4.0
90.038	1.0
90.053	1.0
90.068	2.0
90.083	2.0
90.097	1.0
90.112	4.0
90.127	1.0
90.142	6.0
90.157	6.0
90.172	4.0
90.187	5.0
90.202	6.0
90.217	8.0
90.232	5.0
90.247	4.0
90.262	5.0
90.277	9.0
90.292	4.0
90.307	8.0
90.322	7.0
90.337	6.0
90.352	3.0
90.367	5.0
90.382	4.0
90.397	0.0
90.412	3.0
90.427	4.0
90.442	3.0
90.457	1.0
90.472	4.0
90.487	0.0
90.501	4.0
90.516	4.0
90.531	2.0
90.546	4.0
90.561	1.0
90.576	3.0
90.591	1.0
90.606	2.0
90.621	1.0
90.636	1.0
90.651	1.0
90.666	3.0
90.681	2.0
90.696	5.0
90.711	2.0
90.726	3.0
90.741	2.0
90.755	3.0
90.77	4.0
90.785	5.0
90.8	3.0
90.815	5.0
90.83	4.0
90.845	3.0
90.86	3.0
90.875	5.0
90.89	6.0
90.905	3.0
90.92	1.0
90.935	6.0
90.95	1.0
90.965	2.0
90.979	3.0
90.994	5.0
91.009	4.0
91.024	5.0
91.039	3.0
91.054	3.0
91.069	2.0
91.084	1.0
91.099	4.0
91.114	6.0
91.129	3.0
91.144	2.0
91.159	4.0
91.174	1.0
91.188	1.0
91.203	4.0
91.218	3.0
91.233	2.0
91.248	6.0
91.263	1.0
91.278	3.0
91.293	3.0
91.308	3.0
91.323	3.0
91.338	4.0
91.353	1.0
91.368	1.0
91.383	3.0
91.398	7.0
91.412	4.0
91.427	0.0
91.442	5.0
91.457	3.0
91.472	1.0
91.487	3.0
91.502	1.0
91.517	2.0
91.532	2.0
91.547	3.0
91.562	4.0
91.577	3.0
91.592	3.0
91.607	2.0
91.622	3.0
91.637	3.0
91.652	2.0
91.666	6.0
91.681	4.0
91.696	3.0
91.711	4.0
91.726	2.0
91.741	5.0
91.756	1.0
91.771	5.0
91.786	6.0
91.801	3.0
91.816	4.0
91.831	4.0
91.846	1.0
91.861	5.0
91.876	3.0
91.891	6.0
91.906	4.0
91.921	1.0
91.936	4.0
91.951	3.0
91.966	4.0
91.981	3.0
91.995	3.0
92.01	2.0
92.025	6.0
92.04	3.0
92.055	2.0
92.07	5.0
92.085	0.0
92.1	3.0
92.115	6.0
92.13	6.0
92.145	1.0
92.16	3.0
92.175	4.0
92.19	8.0
92.205	2.0
92.22	3.0
92.235	2.0
92.25	3.0
92.265	4.0
92.28	1.0
92.295	1.0
92.31	3.0
92.325	4.0
92.34	2.0
92.355	2.0
92.37	5.0
92.385	1.0
92.4	4.0
92.415	2.0
92.43	5.0
92.445	2.0
92.46	2.0
92.475	2.0
92.49	4.0
92.505	6.0
92.52	9.0
92.535	2.0
92.55	6.0
92.565	2.0
92.58	4.0
92.595	1.0
92.61	2.0
92.625	1.0
92.64	3.0
92.655	6.0
92.67	5.0
92.685	3.0
92.7	5.0
92.715	2.0
92.73	2.0
92.745	4.0
92.76	6.0
92.775	7.0
92.79	6.0
92.805	0.0
92.82	3.0
92.835	2.0
92.85	4.0
92.865	0.0
92.88	0.0
92.895	2.0
92.91	2.0
92.925	4.0
92.94	2.0
92.955	3.0
92.97	2.0
92.985	5.0
93.0	2.0
93.015	3.0
93.03	3.0
93.045	1.0
93.06	2.0
93.075	4.0
93.09	4.0
93.105	1.0
93.12	3.0
93.135	2.0
93.15	2.0
93.165	0.0
93.18	4.0
93.195	3.0
93.21	2.0
93.225	3.0
93.24	3.0
93.255	5.0
93.27	4.0
93.285	2.0
93.3	2.0
93.315	4.0
93.33	2.0
93.345	4.0
93.36	3.0
93.375	3.0
93.39	5.0
93.405	2.0
93.42	4.0
93.435	5.0
93.45	6.0
93.465	2.0
93.48	3.0
93.495	2.0
93.51	3.0
93.525	2.0
93.54	4.0
93.555	2.0
93.57	3.0
93.585	3.0
93.6	6.0
93.615	3.0
93.63	1.0
93.645	4.0
93.66	4.0
93.675	2.0
93.69	3.0
93.705	5.0
93.72	2.0
93.735	3.0
93.75	3.0
93.765	1.0
93.78	3.0
93.795	4.0
93.81	4.0
93.824	1.0
93.839	2.0
93.854	3.0
93.869	1.0
93.884	3.0
93.899	0.0
93.914	2.0
93.929	0.0
93.944	4.0
93.959	5.0
93.974	3.0
93.989	4.0
94.004	1.0
94.019	3.0
94.034	4.0
94.049	3.0
94.064	6.0
94.079	2.0
94.094	5.0
94.108	3.0
94.123	5.0
94.138	3.0
94.153	2.0
94.168	4.0
94.183	3.0
94.198	7.0
94.213	7.0
94.228	3.0
94.243	5.0
94.258	1.0
94.273	4.0
94.288	3.0
94.302	5.0
94.317	7.0
94.332	3.0
94.347	2.0
94.362	1.0
94.377	6.0
94.392	5.0
94.407	3.0
94.422	3.0
94.437	8.0
94.452	8.0
94.466	4.0
94.481	12.0
94.496	2.0
94.511	1.0
94.526	5.0
94.541	2.0
94.556	0.0
94.571	4.0
94.586	2.0
94.601	4.0
94.615	4.0
94.63	2.0
94.645	4.0
94.66	3.0
94.675	2.0
94.69	6.0
94.705	3.0
94.72	7.0
94.735	4.0
94.749	9.0
94.764	3.0
94.779	4.0
94.794	0.0
94.809	3.0
94.824	2.0
94.839	2.0
94.854	4.0
94.868	4.0
94.883	2.0
94.898	3.0
94.913	5.0
94.928	3.0
94.943	1.0
94.958	4.0
94.973	3.0
94.987	5.0
95.002	8.0
95.017	3.0
95.032	1.0
95.047	2.0
95.062	7.0
95.077	4.0
95.092	4.0
95.106	4.0
95.121	5.0
95.136	4.0
95.151	3.0
95.166	4.0
95.181	1.0
95.196	2.0
95.211	2.0
95.226	2.0
95.24	1.0
95.255	4.0
95.27	7.0
95.285	6.0
95.3	3.0
95.315	5.0
95.33	1.0
95.345	5.0
95.359	3.0
95.374	4.0
95.389	4.0
95.404	2.0
95.419	3.0
95.434	4.0
95.449	6.0
95.464	7.0
95.478	7.0
95.493	2.0
95.508	3.0
95.523	1.0
95.538	0.0
95.553	4.0
95.568	3.0
95.583	2.0
95.597	1.0
95.612	6.0
95.627	3.0
95.642	4.0
95.657	3.0
95.672	4.0
95.687	2.0
95.702	2.0
95.717	4.0
95.731	1.0
95.746	3.0
95.761	4.0
95.776	4.0
95.791	1.0
95.806	2.0
95.821	1.0
95.836	6.0
95.851	2.0
95.866	5.0
95.88	2.0
95.895	3.0
95.91	2.0
95.925	7.0
95.94	1.0
95.955	5.0
95.97	1.0
95.985	3.0
96.0	1.0
96.015	3.0
96.029	6.0
96.044	5.0
96.059	4.0
96.074	0.0
96.089	1.0
96.104	1.0
96.119	4.0
96.134	3.0
96.149	4.0
96.164	3.0
96.179	4.0
96.194	2.0
96.208	1.0
96.223	3.0
96.238	4.0
96.253	5.0
96.268	3.0
96.283	0.0
96.298	3.0
96.313	2.0
96.328	0.0
96.343	5.0
96.358	3.0
96.373	6.0
96.388	2.0
96.403	2.0
96.417	1.0
96.432	2.0
96.447	6.0
96.462	5.0
96.477	3.0
96.492	4.0
96.507	3.0
96.522	5.0
96.537	0.0
96.552	0.0
96.567	2.0
96.582	3.0
96.597	3.0
96.612	3.0
96.627	1.0
96.642	1.0
96.656	3.0
96.671	3.0
96.686	5.0
96.701	4.0
96.716	4.0
96.731	5.0
96.746	3.0
96.761	4.0
96.776	5.0
96.791	4.0
96.806	1.0
96.821	5.0
96.836	3.0
96.851	5.0
96.866	3.0
96.881	4.0
96.896	6.0
96.911	5.0
96.926	4.0
96.94	3.0
96.955	6.0
96.97	4.0
96.985	0.0
97.0	1.0
97.015	4.0
97.03	4.0
97.045	3.0
97.06	3.0
97.075	9.0
97.09	1.0
97.105	4.0
97.12	3.0
97.135	3.0
97.15	3.0
97.165	2.0
97.18	4.0
97.195	5.0
97.21	1.0
97.225	3.0
97.239	2.0
97.254	4.0
97.269	7.0
97.284	2.0
97.299	2.0
97.314	1.0
97.329	6.0
97.344	2.0
97.359	2.0
97.374	3.0
97.389	0.0
97.404	4.0
97.419	2.0
97.434	2.0
97.449	5.0
97.464	3.0
97.479	0.0
97.494	3.0
97.509	4.0
97.524	5.0
97.538	2.0
97.553	7.0
97.568	3.0
97.583	5.0
97.598	3.0
97.613	5.0
97.628	1.0
97.643	2.0
97.658	3.0
97.673	3.0
97.688	4.0
97.703	3.0
97.718	0.0
97.733	2.0
97.748	3.0
97.763	5.0
97.778	6.0
97.792	4.0
97.807	2.0
97.822	2.0
97.837	5.0
97.852	7.0
97.867	4.0
97.882	4.0
97.897	4.0
97.912	4.0
97.927	3.0
97.942	6.0
97.957	7.0
97.972	3.0
97.987	4.0
98.001	1.0
98.016	3.0
98.031	4.0
98.046	3.0
98.061	5.0
98.076	4.0
98.091	2.0
98.106	1.0
98.121	5.0
98.136	1.0
98.151	2.0
98.166	5.0
98.181	2.0
98.195	4.0
98.21	3.0
98.225	2.0
98.24	1.0
98.255	3.0
98.27	5.0
98.285	2.0
98.3	6.0
98.315	2.0
98.33	5.0
98.345	4.0
98.359	2.0
98.374	3.0
98.389	4.0
98.404	3.0
98.419	3.0
98.434	4.0
98.449	1.0
98.464	1.0
98.479	4.0
98.494	5.0
98.508	2.0
98.523	2.0
98.538	4.0
98.553	6.0
98.568	4.0
98.583	7.0
98.598	5.0
98.613	5.0
98.628	2.0
98.642	2.0
98.657	3.0
98.672	4.0
98.687	4.0
98.702	1.0
98.717	6.0
98.732	1.0
98.747	1.0
98.762	7.0
98.776	3.0
98.791	4.0
98.806	3.0
98.821	1.0
98.836	2.0
98.851	5.0
98.866	3.0
98.881	6.0
98.896	3.0
98.91	5.0
98.925	7.0
98.94	0.0
98.955	6.0
98.97	4.0
98.985	1.0
99.0	4.0
99.015	1.0
99.029	3.0
99.044	4.0
99.059	2.0
99.074	4.0
99.089	2.0
99.104	2.0
99.119	3.0
99.133	4.0
99.148	3.0
99.163	3.0
99.178	2.0
99.193	3.0
99.208	3.0
99.223	2.0
99.238	5.0
99.252	6.0
99.267	5.0
99.282	2.0
99.297	1.0
99.312	4.0
99.327	3.0
99.342	4.0
99.356	5.0
99.371	3.0
99.386	6.0
99.401	1.0
99.416	5.0
99.431	3.0
99.446	2.0
99.461	1.0
99.475	5.0
99.49	0.0
99.505	2.0
99.52	5.0
99.535	7.0
99.55	2.0
99.565	6.0
99.579	3.0
99.594	8.0
99.609	0.0
99.624	3.0
99.639	3.0
99.654	2.0
99.669	3.0
99.683	2.0
99.698	4.0
99.713	0.0
99.728	3.0
99.743	3.0
99.758	3.0
99.772	5.0
99.787	2.0
99.802	0.0
99.817	4.0
99.832	3.0
99.847	2.0
99.862	5.0
99.876	6.0
99.891	2.0
99.906	2.0
99.921	4.0
99.936	3.0
99.951	3.0
99.966	4.0
99.98	2.0
99.995	2.0
100.01	2.0
100.025	6.0
100.04	6.0
100.055	2.0
100.069	3.0
100.084	8.0
100.099	3.0
100.114	3.0
100.129	2.0
100.144	3.0
100.159	5.0
100.173	3.0
100.188	3.0
100.203	3.0
100.218	2.0
100.233	1.0
100.248	2.0
100.262	5.0
100.277	2.0
100.292	3.0
100.307	7.0
100.322	1.0
100.337	3.0
100.351	5.0
100.366	3.0
100.381	10.0
100.396	6.0
100.411	4.0
100.426	5.0
100.441	2.0
100.455	4.0
100.47	1.0
100.485	2.0
100.5	3.0
100.515	5.0
100.53	0.0
100.544	3.0
100.559	2.0
100.574	4.0
100.589	2.0
100.604	4.0
100.619	6.0
100.633	4.0
100.648	3.0
100.663	3.0
100.678	4.0
100.693	1.0
100.708	2.0
100.722	3.0
100.737	3.0
100.752	4.0
100.767	3.0
100.782	2.0
100.796	1.0
100.811	3.0
100.826	5.0
100.841	1.0
100.856	6.0
100.871	2.0
100.885	3.0
100.9	5.0
100.915	2.0
100.93	3.0
100.945	2.0
100.96	5.0
100.974	2.0
100.989	2.0
101.004	2.0
101.019	2.0
101.034	5.0
101.048	3.0
101.063	7.0
101.078	8.0
101.093	1.0
101.108	4.0
101.123	4.0
101.137	3.0
101.152	4.0
101.167	6.0
101.182	6.0
101.197	0.0
101.211	3.0
101.226	7.0
101.241	4.0
101.256	3.0
101.271	0.0
101.285	5.0
101.3	2.0
101.315	8.0
101.33	5.0
101.345	4.0
101.359	3.0
101.374	2.0
101.389	2.0
101.404	3.0
101.419	1.0
101.433	0.0
101.448	2.0
101.463	2.0
101.478	3.0
101.493	5.0
101.507	2.0
101.522	5.0
101.537	0.0
101.552	1.0
101.567	4.0
101.581	1.0
101.596	1.0
101.611	2.0
101.626	0.0
101.64	9.0
101.655	3.0
101.67	6.0
101.685	0.0
101.7	5.0
101.714	2.0
101.729	3.0
101.744	1.0
101.759	2.0
101.773	3.0
101.788	3.0
101.803	3.0
101.818	1.0
101.833	2.0
101.847	5.0
101.862	4.0
101.877	2.0
101.892	1.0
101.906	3.0
101.921	4.0
101.936	4.0
101.951	2.0
101.965	4.0
101.98	3.0
101.995	4.0
102.01	2.0
102.025	5.0
102.039	5.0
102.054	2.0
102.069	2.0
102.084	2.0
102.098	6.0
102.113	1.0
102.128	4.0
102.143	5.0
102.157	9.0
102.172	3.0
102.187	1.0
102.202	5.0
102.216	4.0
102.231	3.0
102.246	4.0
102.261	3.0
102.275	5.0
102.29	6.0
102.305	2.0
102.32	5.0
102.334	4.0
102.349	5.0
102.364	2.0
102.378	0.0
102.393	1.0
102.408	1.0
102.423	4.0
102.437	2.0
102.452	2.0
102.467	5.0
102.482	2.0
102.496	3.0
102.511	1.0
102.526	5.0
102.541	2.0
102.555	7.0
102.57	3.0
102.585	5.0
102.6	1.0
102.614	2.0
102.629	1.0
102.644	4.0
102.659	3.0
102.673	2.0
102.688	3.0
102.703	4.0
102.717	3.0
102.732	4.0
102.747	2.0
102.762	5.0
102.776	4.0
102.791	3.0
102.806	2.0
102.821	2.0
102.835	3.0
102.85	1.0
102.865	7.0
102.88	3.0
102.894	3.0
102.909	4.0
102.924	3.0
102.938	3.0
102.953	3.0
102.968	1.0
102.983	2.0
102.997	5.0
103.012	3.0
103.027	3.0
103.042	6.0
103.056	2.0
103.071	5.0
103.086	3.0
103.101	2.0
103.115	2.0
103.13	2.0
103.145	1.0
103.16	2.0
103.174	5.0
103.189	1.0
103.204	3.0
103.219	2.0
103.233	5.0
103.248	4.0
103.263	4.0
103.278	5.0
103.292	5.0
103.307	4.0
103.322	4.0
103.337	0.0
103.351	5.0
103.366	4.0
103.381	4.0
103.396	2.0
103.41	0.0
103.425	1.0
103.44	2.0
103.455	3.0
103.469	5.0
103.484	4.0
103.499	4.0
103.514	2.0
103.529	2.0
103.543	3.0
103.558	3.0
103.573	1.0
103.588	4.0
103.602	1.0
103.617	2.0
103.632	4.0
103.647	3.0
103.661	4.0
103.676	4.0
103.691	7.0
103.706	1.0
103.721	9.0
103.735	6.0
103.75	2.0
103.765	4.0
103.78	6.0
103.795	6.0
103.809	4.0
103.824	3.0
103.839	1.0
103.854	4.0
103.869	2.0
103.883	6.0
103.898	5.0
103.913	1.0
103.928	1.0
103.943	2.0
103.957	5.0
103.972	4.0
103.987	5.0
104.002	1.0
104.017	3.0
104.031	3.0
104.046	3.0
104.061	5.0
104.076	5.0
104.091	5.0
104.106	1.0
104.12	2.0
104.135	2.0
104.15	1.0
104.165	3.0
104.18	4.0
104.195	3.0
104.209	4.0
104.224	2.0
104.239	5.0
104.254	2.0
104.269	5.0
104.284	4.0
104.299	6.0
104.313	1.0
104.328	4.0
104.343	6.0
104.358	4.0
104.373	6.0
104.388	4.0
104.403	4.0
104.417	3.0
104.432	1.0
104.447	2.0
104.462	3.0
104.477	3.0
104.492	6.0
104.507	3.0
104.522	6.0
104.536	3.0
104.551	0.0
104.566	8.0
104.581	4.0
104.596	3.0
104.611	4.0
104.626	2.0
104.641	6.0
104.656	6.0
104.67	3.0
104.685	4.0
104.7	1.0
104.715	4.0
104.73	3.0
104.745	6.0
104.76	1.0
104.775	4.0
104.79	2.0
104.804	1.0
104.819	1.0
104.834	3.0
104.849	3.0
104.864	5.0
104.879	5.0
104.894	1.0
104.909	2.0
104.924	4.0
104.939	4.0
104.954	3.0
104.968	6.0
104.983	3.0
104.998	2.0
105.013	7.0
105.028	4.0
105.043	0.0
105.058	4.0
105.073	6.0
105.088	2.0
105.103	1.0
105.118	4.0
105.133	1.0
105.147	2.0
105.162	4.0
105.177	4.0
105.192	1.0
105.207	5.0
105.222	1.0
105.237	3.0
105.252	3.0
105.267	2.0
105.282	4.0
105.297	1.0
105.312	5.0
105.327	6.0
105.342	2.0
105.356	5.0
105.371	4.0
105.386	0.0
105.401	0.0
105.416	3.0
105.431	0.0
105.446	5.0
105.461	3.0
105.476	3.0
105.491	1.0
105.506	4.0
105.521	6.0
105.536	5.0
105.551	5.0
105.566	4.0
105.581	4.0
105.595	6.0
105.61	5.0
105.625	1.0
105.64	6.0
105.655	1.0
105.67	2.0
105.685	5.0
105.7	5.0
105.715	4.0
105.73	3.0
105.745	4.0
105.76	3.0
105.775	1.0
105.79	2.0
105.805	3.0
105.82	5.0
105.835	2.0
105.85	4.0
105.864	7.0
105.879	1.0
105.894	7.0
105.909	4.0
105.924	4.0
105.939	5.0
105.954	2.0
105.969	4.0
105.984	4.0
105.999	3.0
106.014	4.0
106.029	2.0
106.044	4.0
106.059	1.0
106.074	6.0
106.089	4.0
106.104	3.0
106.119	4.0
106.134	1.0
106.148	4.0
106.163	2.0
106.178	1.0
106.193	3.0
106.208	3.0
106.223	4.0
106.238	1.0
106.253	4.0
106.268	6.0
106.283	6.0
106.298	6.0
106.313	5.0
106.328	3.0
106.343	5.0
106.358	3.0
106.373	1.0
106.388	2.0
106.403	2.0
106.418	2.0
106.432	3.0
106.447	4.0
106.462	4.0
106.477	1.0
106.492	2.0
106.507	3.0
106.522	3.0
106.537	2.0
106.552	3.0
106.567	1.0
106.582	6.0
106.597	3.0
106.612	3.0
106.627	4.0
106.642	1.0
106.657	0.0
106.672	2.0
106.687	3.0
106.701	1.0
106.716	3.0
106.731	3.0
106.746	3.0
106.761	3.0
106.776	5.0
106.791	4.0
106.806	2.0
106.821	1.0
106.836	7.0
106.851	2.0
106.866	1.0
106.881	4.0
106.896	3.0
106.911	2.0
106.926	5.0
106.941	6.0
106.955	2.0
106.97	5.0
106.985	4.0
107.0	2.0
107.015	1.0
107.03	6.0
107.045	6.0
107.06	3.0
107.075	3.0
107.09	3.0
107.105	4.0
107.12	1.0
107.135	4.0
107.15	3.0
107.165	4.0
107.18	4.0
107.194	5.0
107.209	3.0
107.224	2.0
107.239	2.0
107.254	3.0
107.269	3.0
107.284	2.0
107.299	6.0
107.314	4.0
107.329	4.0
107.344	4.0
107.359	7.0
107.374	1.0
107.389	5.0
107.404	0.0
107.418	4.0
107.433	4.0
107.448	4.0
107.463	0.0
107.478	2.0
107.493	3.0
107.508	0.0
107.523	4.0
107.538	6.0
107.553	2.0
107.568	5.0
107.583	3.0
107.598	3.0
107.613	2.0
107.627	2.0
107.642	2.0
107.657	5.0
107.672	1.0
107.687	3.0
107.702	1.0
107.717	5.0
107.732	4.0
107.747	1.0
107.762	3.0
107.777	1.0
107.792	2.0
107.807	2.0
107.821	6.0
107.836	5.0
107.851	4.0
107.866	6.0
107.881	3.0
107.896	4.0
107.911	2.0
107.926	3.0
107.941	2.0
107.956	3.0
107.971	7.0
107.986	3.0
108.0	7.0
108.015	4.0
108.03	6.0
108.045	10.0
108.06	4.0
108.075	4.0
108.09	5.0
108.105	4.0
108.12	9.0
108.135	6.0
108.15	3.0
108.164	3.0
108.179	2.0
108.194	8.0
108.209	0.0
108.224	2.0
108.239	3.0
108.254	4.0
108.269	4.0
108.284	5.0
108.299	5.0
108.313	4.0
108.328	6.0
108.343	4.0
108.358	2.0
108.373	6.0
108.388	2.0
108.403	3.0
108.418	4.0
108.433	3.0
108.448	3.0
108.462	4.0
108.477	2.0
108.492	2.0
108.507	3.0
108.522	0.0
108.537	6.0
108.552	3.0
108.567	4.0
108.582	3.0
108.597	2.0
108.611	2.0
108.626	2.0
108.641	3.0
108.656	5.0
108.671	4.0
108.686	5.0
108.701	2.0
108.716	3.0
108.731	4.0
108.745	1.0
108.76	11.0
108.775	4.0
108.79	2.0
108.805	5.0
108.82	3.0
108.835	2.0
108.85	2.0
108.865	6.0
108.879	3.0
108.894	2.0
108.909	3.0
108.924	2.0
108.939	4.0
108.954	5.0
108.969	5.0
108.984	6.0
108.999	1.0
109.013	5.0
109.028	4.0
109.043	11.0
109.058	2.0
109.073	5.0
109.088	7.0
109.103	4.0
109.118	2.0
109.133	3.0
109.147	3.0
109.162	7.0
109.177	4.0
109.192	4.0
109.207	3.0
109.222	3.0
109.237	3.0
109.252	3.0
109.267	6.0
109.281	2.0
109.296	6.0
109.311	2.0
109.326	4.0
109.341	1.0
109.356	1.0
109.371	2.0
109.386	1.0
109.4	4.0
109.415	3.0
109.43	4.0
109.445	5.0
109.46	1.0
109.475	7.0
109.49	3.0
109.505	4.0
109.52	1.0
109.534	7.0
109.549	3.0
109.564	7.0
109.579	2.0
109.594	4.0
109.609	4.0
109.624	2.0
109.639	4.0
109.653	4.0
109.668	2.0
109.683	4.0
109.698	7.0
109.713	0.0
109.728	3.0
109.743	2.0
109.758	2.0
109.773	2.0
109.787	3.0
109.802	3.0
109.817	5.0
109.832	4.0
109.847	1.0
109.862	3.0
109.877	4.0
109.892	6.0
109.907	5.0
109.921	7.0
109.936	3.0
109.951	4.0
109.966	0.0
109.981	5.0
109.996	1.0
110.011	3.0
110.026	4.0
110.04	5.0
110.055	6.0
110.07	7.0
110.085	4.0
110.1	3.0
110.115	2.0
110.13	2.0
110.145	1.0
110.16	3.0
110.174	1.0
110.189	5.0
110.204	2.0
110.219	3.0
110.234	4.0
110.249	4.0
110.264	0.0
110.279	1.0
110.294	6.0
110.308	4.0
110.323	6.0
110.338	4.0
110.353	6.0
110.368	3.0
110.383	1.0
110.398	4.0
110.413	5.0
110.428	1.0
110.442	3.0
110.457	1.0
110.472	4.0
110.487	7.0
110.502	3.0
110.517	3.0
110.532	1.0
110.547	5.0
110.561	3.0
110.576	1.0
110.591	5.0
110.606	3.0
110.621	3.0
110.636	0.0
110.651	5.0
110.666	4.0
110.681	2.0
110.695	3.0
110.71	2.0
110.725	3.0
110.74	4.0
110.755	6.0
110.77	3.0
110.785	4.0
110.8	1.0
110.815	4.0
110.829	0.0
110.844	1.0
110.859	1.0
110.874	6.0
110.889	3.0
110.904	2.0
110.919	2.0
110.934	3.0
110.948	3.0
110.963	1.0
110.978	4.0
110.993	8.0
111.008	2.0
111.023	5.0
111.038	1.0
111.053	3.0
111.067	1.0
111.082	2.0
111.097	2.0
111.112	4.0
111.127	4.0
111.142	1.0
111.157	3.0
111.172	5.0
111.186	4.0
111.201	1.0
111.216	3.0
111.231	0.0
111.246	1.0
111.261	2.0
111.276	1.0
111.291	3.0
111.305	6.0
111.32	5.0
111.335	6.0
111.35	2.0
111.365	5.0
111.38	2.0
111.395	4.0
111.41	2.0
111.424	5.0
111.439	1.0
111.454	1.0
111.469	7.0
111.484	5.0
111.499	5.0
111.514	5.0
111.528	3.0
111.543	5.0
111.558	7.0
111.573	5.0
111.588	4.0
111.603	6.0
111.618	4.0
111.633	3.0
111.647	2.0
111.662	5.0
111.677	5.0
111.692	5.0
111.707	7.0
111.722	6.0
111.737	1.0
111.751	6.0
111.766	6.0
111.781	5.0
111.796	2.0
111.811	3.0
111.826	8.0
111.84	3.0
111.855	3.0
111.87	3.0
111.885	2.0
111.9	3.0
111.915	2.0
111.93	4.0
111.944	4.0
111.959	1.0
111.974	4.0
111.989	2.0
112.004	3.0
112.019	2.0
112.033	3.0
112.048	6.0
112.063	2.0
112.078	5.0
112.093	2.0
112.108	0.0
112.123	2.0
112.137	2.0
112.152	3.0
112.167	1.0
112.182	2.0
112.197	4.0
112.212	6.0
112.226	4.0
112.241	4.0
112.256	5.0
112.271	2.0
112.286	1.0
112.301	2.0
112.315	4.0
112.33	3.0
112.345	6.0
112.36	1.0
112.375	2.0
112.389	1.0
112.404	3.0
112.419	2.0
112.434	4.0
112.449	4.0
112.464	3.0
112.478	6.0
112.493	7.0
112.508	4.0
112.523	3.0
112.538	8.0
112.553	3.0
112.567	3.0
112.582	1.0
112.597	7.0
112.612	3.0
112.627	2.0
112.642	2.0
112.656	4.0
112.671	4.0
112.686	3.0
112.701	8.0
112.716	3.0
112.73	1.0
112.745	4.0
112.76	4.0
112.775	3.0
112.79	1.0
112.805	2.0
112.819	5.0
112.834	1.0
112.849	2.0
112.864	6.0
112.879	4.0
112.894	3.0
112.908	4.0
112.923	1.0
112.938	6.0
112.953	1.0
112.968	7.0
112.983	5.0
112.997	6.0
113.012	3.0
113.027	5.0
113.042	1.0
113.057	3.0
113.072	3.0
113.086	5.0
113.101	5.0
113.116	3.0
113.131	3.0
113.146	2.0
113.161	5.0
113.175	1.0
113.19	2.0
113.205	6.0
113.22	2.0
113.235	1.0
113.25	4.0
113.265	4.0
113.279	4.0
113.294	3.0
113.309	1.0
113.324	6.0
113.339	0.0
113.354	5.0
113.368	1.0
113.383	6.0
113.398	2.0
113.413	3.0
113.428	7.0
113.443	5.0
113.458	1.0
113.472	5.0
113.487	9.0
113.502	4.0
113.517	2.0
113.532	3.0
113.547	3.0
113.562	2.0
113.576	3.0
113.591	6.0
113.606	3.0
113.621	2.0
113.636	3.0
113.651	6.0
113.666	7.0
113.681	2.0
113.695	7.0
113.71	6.0
113.725	3.0
113.74	4.0
113.755	3.0
113.77	7.0
113.785	3.0
113.8	4.0
113.814	2.0
113.829	5.0
113.844	5.0
113.859	0.0
113.874	2.0
113.889	6.0
113.904	3.0
113.919	2.0
113.934	3.0
113.949	4.0
113.963	4.0
113.978	4.0
113.993	2.0
114.008	4.0
114.023	4.0
114.038	3.0
114.053	4.0
114.068	2.0
114.083	1.0
114.098	5.0
114.113	4.0
114.127	2.0
114.142	8.0
114.157	8.0
114.172	6.0
114.187	2.0
114.202	4.0
114.217	1.0
114.232	4.0
114.247	5.0
114.262	3.0
114.277	3.0
114.292	2.0
114.307	0.0
114.322	2.0
114.337	4.0
114.351	3.0
114.366	6.0
114.381	2.0
114.396	4.0
114.411	4.0
114.426	6.0
114.441	6.0
114.456	4.0
114.471	4.0
114.486	5.0
114.501	2.0
114.516	3.0
114.531	3.0
114.546	5.0
114.561	3.0
114.576	4.0
114.591	4.0
114.606	5.0
114.621	3.0
114.636	3.0
114.65	5.0
114.665	2.0
114.68	3.0
114.695	10.0
114.71	3.0
114.725	4.0
114.74	2.0
114.755	3.0
114.77	4.0
114.785	4.0
114.8	1.0
114.815	4.0
114.83	3.0
114.845	4.0
114.86	2.0
114.875	4.0
114.89	2.0
114.905	4.0
114.92	3.0
114.935	3.0
114.95	3.0
114.965	1.0
114.98	1.0
114.995	3.0
115.009	3.0
115.024	0.0
115.039	1.0
115.054	3.0
115.069	3.0
115.084	3.0
115.099	5.0
115.114	1.0
115.129	3.0
115.144	5.0
115.159	4.0
115.174	4.0
115.189	0.0
115.204	3.0
115.219	2.0
115.234	3.0
115.249	7.0
115.264	4.0
115.279	8.0
115.294	4.0
115.309	3.0
115.323	8.0
115.338	7.0
115.353	3.0
115.368	2.0
115.383	5.0
115.398	1.0
115.413	7.0
115.428	3.0
115.443	8.0
115.458	4.0
115.473	3.0
115.488	4.0
115.503	3.0
115.518	4.0
115.533	4.0
115.548	6.0
115.562	1.0
115.577	3.0
115.592	4.0
115.607	0.0
115.622	3.0
115.637	2.0
115.652	0.0
115.667	4.0
115.682	2.0
115.697	2.0
115.712	2.0
115.727	8.0
115.741	5.0
115.756	7.0
115.771	5.0
115.786	5.0
115.801	3.0
115.816	7.0
115.831	1.0
115.846	5.0
115.861	3.0
115.875	3.0
115.89	6.0
115.905	3.0
115.92	7.0
115.935	4.0
115.95	5.0
115.965	1.0
115.98	1.0
115.995	5.0
116.009	3.0
116.024	5.0
116.039	6.0
116.054	10.0
116.069	3.0
116.084	2.0
116.099	3.0
116.113	3.0
116.128	3.0
116.143	3.0
116.158	3.0
116.173	3.0
116.188	6.0
116.202	5.0
116.217	6.0
116.232	5.0
116.247	5.0
116.262	3.0
116.277	2.0
116.291	4.0
116.306	3.0
116.321	6.0
116.336	5.0
116.351	3.0
116.366	2.0
116.38	0.0
116.395	2.0
116.41	6.0
116.425	4.0
116.44	7.0
116.454	3.0
116.469	6.0
116.484	5.0
116.499	2.0
116.514	2.0
116.528	4.0
116.543	4.0
116.558	7.0
116.573	1.0
116.588	4.0
116.602	3.0
116.617	3.0
116.632	3.0
116.647	5.0
116.662	2.0
116.676	3.0
116.691	5.0
116.706	1.0
116.721	4.0
116.735	4.0
116.75	4.0
116.765	5.0
116.78	4.0
116.795	2.0
116.809	5.0
116.824	2.0
116.839	6.0
116.854	4.0
116.868	3.0
116.883	2.0
116.898	7.0
116.913	3.0
116.927	3.0
116.942	4.0
116.957	5.0
116.972	1.0
116.986	2.0
117.001	3.0
117.016	3.0
117.031	4.0
117.045	1.0
117.06	5.0
117.075	7.0
117.09	5.0
117.104	2.0
117.119	3.0
117.134	2.0
117.149	3.0
117.163	4.0
117.178	5.0
117.193	6.0
117.208	2.0
117.222	6.0
117.237	6.0
117.252	4.0
117.267	4.0
117.281	4.0
117.296	3.0
117.311	4.0
117.325	7.0
117.34	4.0
117.355	3.0
117.37	2.0
117.384	7.0
117.399	5.0
117.414	1.0
117.429	3.0
117.443	3.0
117.458	3.0
117.473	1.0
117.487	3.0
117.502	4.0
117.517	5.0
117.532	5.0
117.546	5.0
117.561	5.0
117.576	4.0
117.59	5.0
117.605	5.0
117.62	1.0
117.635	2.0
117.649	3.0
117.664	5.0
117.679	4.0
117.693	2.0
117.708	1.0
117.723	7.0
117.738	1.0
117.752	3.0
117.767	4.0
117.782	3.0
117.796	4.0
117.811	1.0
117.826	2.0
117.841	2.0
117.855	2.0
117.87	1.0
117.885	3.0
117.899	2.0
117.914	3.0
117.929	3.0
117.944	0.0
117.958	4.0
117.973	2.0
117.988	0.0
118.002	2.0
118.017	7.0
118.032	5.0
118.047	4.0
118.062	9.0
118.077	3.0
118.092	3.0
118.107	5.0
118.121	4.0
118.136	3.0
118.151	7.0
118.166	5.0
118.181	3.0
118.196	5.0
118.211	6.0
118.225	5.0
118.24	2.0
118.255	2.0
118.27	11.0
118.285	2.0
118.3	3.0
118.315	5.0
118.33	2.0
118.344	2.0
118.359	4.0
118.374	2.0
118.389	7.0
118.404	5.0
118.419	4.0
118.434	5.0
118.449	8.0
118.463	5.0
118.478	3.0
118.493	4.0
118.508	2.0
118.523	7.0
118.538	2.0
118.553	4.0
118.567	4.0
118.582	4.0
118.597	2.0
118.612	4.0
118.627	2.0
118.642	4.0
118.657	5.0
118.672	4.0
118.686	5.0
118.701	7.0
118.716	3.0
118.731	1.0
118.746	2.0
118.761	7.0
118.776	3.0
118.791	1.0
118.805	5.0
118.82	2.0
118.835	7.0
118.85	6.0
118.865	6.0
118.88	3.0
118.895	3.0
118.909	1.0
118.924	2.0
118.939	1.0
118.954	1.0
118.969	4.0
118.984	4.0
118.999	1.0
119.014	2.0
119.028	4.0
119.043	3.0
119.058	9.0
119.073	3.0
119.088	5.0
119.103	6.0
119.118	7.0
119.133	5.0
119.147	5.0
119.162	5.0
119.177	4.0
119.192	0.0
119.207	5.0
119.222	4.0
119.237	5.0
119.251	7.0
119.266	2.0
119.281	1.0
119.296	4.0
119.311	4.0
119.326	3.0
119.341	4.0
119.356	4.0
119.37	5.0
119.385	0.0
119.4	6.0
119.415	3.0
119.43	5.0
119.445	3.0
119.46	8.0
119.475	2.0
119.489	2.0
119.504	7.0
119.519	2.0
119.534	4.0
119.549	2.0
119.564	1.0
119.579	3.0
119.593	2.0
119.608	2.0
119.623	5.0
119.638	5.0
119.653	1.0
119.668	6.0
119.683	4.0
119.698	2.0
119.712	2.0
119.727	5.0
119.742	3.0
119.757	3.0
119.772	2.0
119.787	2.0
119.802	1.0
119.817	4.0
119.831	2.0
119.846	4.0
119.861	5.0
119.876	3.0
119.891	3.0
119.906	4.0
119.921	2.0
119.935	2.0
119.95	1.0
119.965	1.0
119.98	1.0
119.995	6.0
120.01	3.0
120.025	3.0
120.04	1.0
120.054	5.0
120.069	2.0
120.084	3.0
120.099	2.0
120.114	2.0
120.129	1.0
120.144	1.0
120.159	3.0
120.173	1.0
120.188	1.0
120.203	1.0
120.218	2.0
120.233	2.0
120.248	1.0
120.263	1.0
120.277	0.0
120.292	0.0
120.307	1.0
120.322	0.0
120.337	0.0
120.352	0.0
120.367	0.0
120.382	0.0
120.396	0.0
120.411	0.0
120.426	1.0
120.441	0.0
120.456	0.0
120.471	0.0
120.486	0.0
120.501	0.0
120.515	0.0
120.53	0.0
120.545	0.0
120.56	0.0
120.575	0.0
120.59	0.0
120.605	0.0
120.619	0.0
120.634	0.0
120.649	0.0
120.664	0.0
120.679	0.0
120.694	0.0
120.709	0.0
120.724	0.0
120.738	0.0
120.753	0.0
120.768	2.0
120.783	0.0
120.798	0.0
120.813	0.0
120.828	0.0
120.843	0.0
120.857	0.0
120.872	0.0
120.887	0.0
120.902	0.0
120.917	0.0
120.932	0.0
120.947	0.0
120.961	0.0
120.976	0.0
