-1.217	0.0
-1.202	0.0
-1.187	0.0
-1.172	0.0
-1.157	0.0
-1.142	0.0
-1.128	0.0
-1.113	0.0
-1.098	0.0
-1.083	0.0
-1.068	1.0
-1.054	0.0
-1.039	0.0
-1.024	0.0
-1.009	0.0
-0.994	0.0
-0.979	0.0
-0.965	0.0
-0.95	0.0
-0.935	0.0
-0.92	0.0
-0.905	0.0
-0.891	0.0
-0.876	0.0
-0.861	0.0
-0.846	0.0
-0.831	0.0
-0.816	0.0
-0.802	0.0
-0.787	0.0
-0.772	0.0
-0.757	0.0
-0.742	0.0
-0.728	1.0
-0.713	0.0
-0.698	0.0
-0.683	0.0
-0.668	0.0
-0.653	0.0
-0.639	0.0
-0.624	0.0
-0.609	0.0
-0.594	0.0
-0.579	0.0
-0.565	0.0
-0.55	0.0
-0.535	0.0
-0.52	0.0
-0.505	0.0
-0.49	0.0
-0.476	1.0
-0.461	1.0
-0.446	0.0
-0.431	0.0
-0.416	0.0
-0.401	1.0
-0.387	0.0
-0.372	0.0
-0.357	0.0
-0.342	0.0
-0.327	0.0
-0.313	0.0
-0.298	0.0
-0.283	0.0
-0.268	0.0
-0.253	0.0
-0.238	0.0
-0.224	0.0
-0.209	0.0
-0.194	0.0
-0.179	0.0
-0.164	0.0
-0.15	0.0
-0.135	0.0
-0.12	0.0
-0.105	0.0
-0.09	0.0
-0.075	0.0
-0.061	0.0
-0.046	0.0
-0.031	0.0
-0.016	0.0
-0.001	0.0
0.013	0.0
0.028	0.0
0.043	0.0
0.058	0.0
0.073	0.0
0.088	0.0
0.102	0.0
0.117	0.0
0.132	0.0
0.147	0.0
0.162	0.0
0.176	0.0
0.191	0.0
0.206	0.0
0.221	0.0
0.236	0.0
0.251	0.0
0.265	0.0
0.28	0.0
0.295	0.0
0.31	0.0
0.325	0.0
0.339	0.0
0.354	0.0
0.369	0.0
0.384	0.0
0.399	0.0
0.414	0.0
0.428	0.0
0.443	0.0
0.458	0.0
0.473	0.0
0.488	0.0
0.502	1.0
0.517	0.0
0.532	0.0
0.547	0.0
0.562	0.0
0.577	0.0
0.591	0.0
0.606	0.0
0.621	0.0
0.636	0.0
0.651	0.0
0.665	0.0
0.68	0.0
0.695	0.0
0.71	0.0
0.725	0.0
0.74	0.0
0.754	0.0
0.769	0.0
0.784	0.0
0.799	0.0
0.814	0.0
0.828	0.0
0.843	0.0
0.858	0.0
0.873	0.0
0.888	0.0
0.903	0.0
0.917	0.0
0.932	0.0
0.947	0.0
0.962	0.0
0.977	0.0
0.991	0.0
1.006	0.0
1.021	0.0
1.036	0.0
1.051	0.0
1.065	0.0
1.08	0.0
1.095	0.0
1.11	0.0
1.125	0.0
1.14	0.0
1.154	0.0
1.169	0.0
1.184	0.0
1.199	0.0
1.214	0.0
1.228	0.0
1.243	0.0
1.258	0.0
1.273	0.0
1.288	0.0
1.302	0.0
1.317	0.0
1.332	1.0
1.347	0.0
1.362	0.0
1.376	0.0
1.391	0.0
1.406	0.0
1.421	0.0
1.436	1.0
1.45	0.0
1.465	0.0
1.48	0.0
1.495	0.0
1.51	0.0
1.524	0.0
1.539	0.0
1.554	0.0
1.569	1.0
1.584	0.0
1.598	0.0
1.613	0.0
1.628	0.0
1.643	0.0
1.658	0.0
1.672	0.0
1.687	1.0
1.702	0.0
1.717	0.0
1.732	0.0
1.746	0.0
1.761	0.0
1.776	0.0
1.791	0.0
1.806	0.0
1.82	0.0
1.835	0.0
1.85	0.0
1.865	0.0
1.88	0.0
1.894	0.0
1.909	0.0
1.924	0.0
1.939	0.0
1.954	0.0
1.968	0.0
1.983	0.0
1.998	0.0
2.013	0.0
2.028	0.0
2.042	0.0
2.057	0.0
2.072	0.0
2.087	0.0
2.101	0.0
2.116	0.0
2.131	0.0
2.146	0.0
2.161	0.0
2.175	0.0
2.19	0.0
2.205	0.0
2.22	0.0
2.235	0.0
2.249	0.0
2.264	0.0
2.279	1.0
2.294	0.0
2.308	4.0
2.323	0.0
2.338	1.0
2.353	1.0
2.368	0.0
2.382	2.0
2.397	0.0
2.412	0.0
2.427	2.0
2.442	2.0
2.456	2.0
2.471	1.0
2.486	2.0
2.501	1.0
2.515	1.0
2.53	4.0
2.545	1.0
2.56	1.0
2.575	1.0
2.589	3.0
2.604	2.0
2.619	1.0
2.634	0.0
2.649	4.0
2.663	1.0
2.678	2.0
2.693	2.0
2.708	2.0
2.722	2.0
2.737	3.0
2.752	2.0
2.767	3.0
2.782	2.0
2.796	3.0
2.811	1.0
2.826	1.0
2.841	7.0
2.856	3.0
2.87	5.0
2.885	4.0
2.9	4.0
2.915	4.0
2.93	8.0
2.944	3.0
2.959	4.0
2.974	2.0
2.989	5.0
3.004	3.0
3.018	3.0
3.033	4.0
3.048	5.0
3.063	5.0
3.078	3.0
3.092	5.0
3.107	5.0
3.122	7.0
3.137	2.0
3.152	0.0
3.166	3.0
3.181	3.0
3.196	11.0
3.211	4.0
3.226	3.0
3.24	2.0
3.255	3.0
3.27	5.0
3.285	1.0
3.3	1.0
3.315	6.0
3.329	5.0
3.344	5.0
3.359	4.0
3.374	8.0
3.389	4.0
3.403	4.0
3.418	9.0
3.433	5.0
3.448	5.0
3.463	1.0
3.478	9.0
3.492	7.0
3.507	8.0
3.522	0.0
3.537	6.0
3.552	10.0
3.567	9.0
3.581	2.0
3.596	3.0
3.611	6.0
3.626	7.0
3.641	5.0
3.656	5.0
3.671	6.0
3.685	6.0
3.7	4.0
3.715	5.0
3.73	6.0
3.745	7.0
3.76	7.0
3.775	4.0
3.789	6.0
3.804	6.0
3.819	9.0
3.834	5.0
3.849	7.0
3.864	11.0
3.879	11.0
3.894	6.0
3.908	5.0
3.923	5.0
3.938	7.0
3.953	3.0
3.968	9.0
3.983	10.0
3.998	3.0
4.013	7.0
4.027	12.0
4.042	10.0
4.057	5.0
4.072	7.0
4.087	5.0
4.102	5.0
4.117	2.0
4.132	4.0
4.147	3.0
4.162	8.0
4.176	6.0
4.191	2.0
4.206	5.0
4.221	5.0
4.236	2.0
4.251	3.0
4.266	7.0
4.281	6.0
4.296	3.0
4.311	5.0
4.326	4.0
4.341	7.0
4.356	5.0
4.37	9.0
4.385	9.0
4.4	3.0
4.415	4.0
4.43	8.0
4.445	4.0
4.46	5.0
4.475	4.0
4.49	8.0
4.505	8.0
4.52	9.0
4.535	10.0
4.55	3.0
4.565	12.0
4.58	6.0
4.595	1.0
4.61	2.0
4.625	4.0
4.639	7.0
4.654	3.0
4.669	10.0
4.684	8.0
4.699	7.0
4.714	8.0
4.729	8.0
4.744	3.0
4.759	4.0
4.774	7.0
4.789	2.0
4.804	7.0
4.819	7.0
4.834	4.0
4.849	11.0
4.864	5.0
4.879	5.0
4.894	7.0
4.909	10.0
4.924	10.0
4.939	5.0
4.954	9.0
4.969	4.0
4.984	5.0
4.999	10.0
5.014	8.0
5.029	13.0
5.044	10.0
5.059	8.0
5.074	8.0
5.089	16.0
5.104	5.0
5.119	9.0
5.134	2.0
5.149	11.0
5.164	10.0
5.179	5.0
5.194	8.0
5.209	5.0
5.224	9.0
5.239	9.0
5.254	9.0
5.269	10.0
5.284	7.0
5.299	2.0
5.314	6.0
5.329	8.0
5.344	5.0
5.359	6.0
5.374	7.0
5.389	11.0
5.404	6.0
5.419	7.0
5.434	5.0
5.449	8.0
5.464	8.0
5.479	6.0
5.494	11.0
5.509	7.0
5.524	13.0
5.539	9.0
5.554	2.0
5.569	10.0
5.584	7.0
5.599	4.0
5.614	8.0
5.629	11.0
5.644	9.0
5.659	7.0
5.674	5.0
5.689	4.0
5.704	6.0
5.719	5.0
5.734	8.0
5.749	12.0
5.764	10.0
5.779	6.0
5.794	8.0
5.809	6.0
5.824	4.0
5.839	11.0
5.854	6.0
5.869	10.0
5.884	8.0
5.899	8.0
5.914	5.0
5.929	10.0
5.944	15.0
5.959	10.0
5.974	7.0
5.989	6.0
6.004	6.0
6.019	8.0
6.034	9.0
6.049	12.0
6.064	6.0
6.079	11.0
6.094	9.0
6.109	6.0
6.124	7.0
6.139	5.0
6.154	10.0
6.169	7.0
6.184	11.0
6.199	12.0
6.214	8.0
6.229	8.0
6.244	7.0
6.259	12.0
6.274	13.0
6.289	7.0
6.304	9.0
6.319	6.0
6.334	6.0
6.349	5.0
6.364	6.0
6.379	7.0
6.394	7.0
6.409	9.0
6.424	4.0
6.439	8.0
6.454	7.0
6.469	7.0
6.484	4.0
6.499	10.0
6.514	10.0
6.529	11.0
6.544	5.0
6.559	8.0
6.574	11.0
6.589	10.0
6.604	8.0
6.619	13.0
6.634	9.0
6.649	9.0
6.664	11.0
6.679	3.0
6.694	6.0
6.709	10.0
6.724	5.0
6.739	12.0
6.754	12.0
6.769	5.0
6.784	8.0
6.799	6.0
6.814	6.0
6.829	9.0
6.844	12.0
6.859	10.0
6.873	6.0
6.888	11.0
6.903	10.0
6.918	9.0
6.933	8.0
6.948	7.0
6.963	12.0
6.978	12.0
6.993	11.0
7.008	4.0
7.023	7.0
7.038	8.0
7.053	7.0
7.068	5.0
7.083	9.0
7.098	14.0
7.113	10.0
7.128	11.0
7.143	6.0
7.157	9.0
7.172	7.0
7.187	7.0
7.202	12.0
7.217	9.0
7.232	4.0
7.247	10.0
7.262	10.0
7.277	11.0
7.292	12.0
7.307	6.0
7.322	6.0
7.336	13.0
7.351	9.0
7.366	4.0
7.381	9.0
7.396	8.0
7.411	15.0
7.426	5.0
7.441	5.0
7.456	14.0
7.471	4.0
7.485	10.0
7.5	8.0
7.515	4.0
7.53	9.0
7.545	4.0
7.56	12.0
7.575	7.0
7.59	4.0
7.604	10.0
7.619	10.0
7.634	4.0
7.649	9.0
7.664	12.0
7.679	10.0
7.693	13.0
7.708	8.0
7.723	13.0
7.738	16.0
7.753	9.0
7.768	10.0
7.783	12.0
7.797	6.0
7.812	10.0
7.827	5.0
7.842	11.0
7.857	7.0
7.871	8.0
7.886	15.0
7.901	9.0
7.916	7.0
7.931	7.0
7.945	6.0
7.96	9.0
7.975	10.0
7.99	12.0
8.005	9.0
8.019	14.0
8.034	6.0
8.049	8.0
8.064	8.0
8.078	8.0
8.093	20.0
8.108	6.0
8.123	7.0
8.137	8.0
8.152	10.0
8.167	6.0
8.182	12.0
8.196	11.0
8.211	6.0
8.226	8.0
8.241	11.0
8.255	11.0
8.27	7.0
8.285	10.0
8.3	8.0
8.314	5.0
8.329	8.0
8.344	13.0
8.358	7.0
8.373	10.0
8.388	12.0
8.403	4.0
8.417	10.0
8.432	4.0
8.447	17.0
8.461	4.0
8.476	6.0
8.491	6.0
8.505	11.0
8.52	7.0
8.535	6.0
8.55	5.0
8.564	8.0
8.579	8.0
8.594	7.0
8.608	8.0
8.623	8.0
8.638	9.0
8.652	9.0
8.667	11.0
8.682	7.0
8.696	3.0
8.711	10.0
8.726	6.0
8.74	5.0
8.755	9.0
8.77	12.0
8.784	9.0
8.799	9.0
8.814	15.0
8.828	7.0
8.843	10.0
8.858	10.0
8.872	12.0
8.887	10.0
8.902	8.0
8.916	13.0
8.931	8.0
8.946	3.0
8.96	13.0
8.975	4.0
8.99	7.0
9.004	12.0
9.019	3.0
9.034	8.0
9.048	7.0
9.063	10.0
9.077	8.0
9.092	3.0
9.107	6.0
9.121	10.0
9.136	11.0
9.151	10.0
9.165	15.0
9.18	7.0
9.195	6.0
9.209	4.0
9.224	7.0
9.239	9.0
9.253	2.0
9.268	4.0
9.283	10.0
9.297	6.0
9.312	6.0
9.327	15.0
9.341	3.0
9.356	3.0
9.371	3.0
9.385	7.0
9.4	5.0
9.415	17.0
9.429	10.0
9.444	9.0
9.458	4.0
9.473	4.0
9.488	14.0
9.502	9.0
9.517	9.0
9.532	7.0
9.546	11.0
9.561	8.0
9.576	4.0
9.59	9.0
9.605	4.0
9.62	8.0
9.635	11.0
9.649	9.0
9.664	7.0
9.679	10.0
9.693	8.0
9.708	4.0
9.723	9.0
9.737	12.0
9.752	14.0
9.767	3.0
9.781	11.0
9.796	2.0
9.811	8.0
9.825	10.0
9.84	6.0
9.855	6.0
9.87	14.0
9.884	6.0
9.899	7.0
9.914	9.0
9.928	8.0
9.943	7.0
9.958	11.0
9.973	14.0
9.987	6.0
10.002	9.0
10.017	8.0
10.031	12.0
10.046	8.0
10.061	9.0
10.076	8.0
10.09	6.0
10.105	10.0
10.12	8.0
10.135	11.0
10.149	7.0
10.164	6.0
10.179	7.0
10.194	11.0
10.208	6.0
10.223	7.0
10.238	6.0
10.253	6.0
10.267	8.0
10.282	7.0
10.297	9.0
10.312	8.0
10.326	12.0
10.341	11.0
10.356	8.0
10.371	2.0
10.386	7.0
10.4	6.0
10.415	6.0
10.43	5.0
10.445	4.0
10.46	10.0
10.474	11.0
10.489	6.0
10.504	8.0
10.519	12.0
10.533	11.0
10.548	5.0
10.563	4.0
10.578	7.0
10.593	13.0
10.608	5.0
10.622	9.0
10.637	7.0
10.652	6.0
10.667	6.0
10.682	7.0
10.696	8.0
10.711	10.0
10.726	6.0
10.741	6.0
10.756	5.0
10.771	7.0
10.785	6.0
10.8	5.0
10.815	9.0
10.83	12.0
10.845	7.0
10.86	13.0
10.874	6.0
10.889	8.0
10.904	3.0
10.919	10.0
10.934	8.0
10.949	11.0
10.963	7.0
10.978	6.0
10.993	11.0
11.008	1.0
11.023	6.0
11.038	4.0
11.053	8.0
11.067	9.0
11.082	8.0
11.097	5.0
11.112	5.0
11.127	9.0
11.142	7.0
11.157	8.0
11.172	2.0
11.186	10.0
11.201	6.0
11.216	10.0
11.231	7.0
11.246	5.0
11.261	4.0
11.276	10.0
11.291	10.0
11.305	5.0
11.32	2.0
11.335	6.0
11.35	3.0
11.365	7.0
11.38	4.0
11.395	5.0
11.41	1.0
11.424	6.0
11.439	7.0
11.454	7.0
11.469	7.0
11.484	8.0
11.499	4.0
11.514	6.0
11.529	8.0
11.544	10.0
11.558	7.0
11.573	11.0
11.588	7.0
11.603	8.0
11.618	9.0
11.633	7.0
11.648	8.0
11.663	9.0
11.678	11.0
11.693	5.0
11.707	9.0
11.722	3.0
11.737	9.0
11.752	8.0
11.767	11.0
11.782	8.0
11.797	14.0
11.812	9.0
11.827	10.0
11.842	5.0
11.856	10.0
11.871	7.0
11.886	4.0
11.901	9.0
11.916	9.0
11.931	7.0
11.946	12.0
11.961	9.0
11.976	8.0
11.991	9.0
12.006	13.0
12.02	10.0
12.035	7.0
12.05	10.0
12.065	10.0
12.08	20.0
12.095	8.0
12.11	9.0
12.125	7.0
12.14	11.0
12.155	4.0
12.17	10.0
12.184	10.0
12.199	6.0
12.214	9.0
12.229	9.0
12.244	17.0
12.259	13.0
12.274	7.0
12.289	12.0
12.304	13.0
12.319	13.0
12.334	6.0
12.348	14.0
12.363	15.0
12.378	6.0
12.393	15.0
12.408	13.0
12.423	14.0
12.438	16.0
12.453	12.0
12.468	11.0
12.483	17.0
12.498	14.0
12.513	20.0
12.527	11.0
12.542	8.0
12.557	7.0
12.572	14.0
12.587	15.0
12.602	9.0
12.617	10.0
12.632	9.0
12.647	15.0
12.662	11.0
12.677	14.0
12.692	12.0
12.707	16.0
12.721	10.0
12.736	13.0
12.751	16.0
12.766	12.0
12.781	12.0
12.796	12.0
12.811	12.0
12.826	14.0
12.841	12.0
12.856	20.0
12.871	17.0
12.886	12.0
12.9	14.0
12.915	10.0
12.93	11.0
12.945	22.0
12.96	11.0
12.975	10.0
12.99	19.0
13.005	12.0
13.02	14.0
13.035	12.0
13.05	17.0
13.065	17.0
13.08	15.0
13.094	15.0
13.109	14.0
13.124	15.0
13.139	17.0
13.154	14.0
13.169	14.0
13.184	13.0
13.199	13.0
13.214	14.0
13.229	21.0
13.244	19.0
13.259	12.0
13.274	14.0
13.288	23.0
13.303	15.0
13.318	25.0
13.333	16.0
13.348	25.0
13.363	14.0
13.378	24.0
13.393	23.0
13.408	25.0
13.423	32.0
13.438	26.0
13.453	48.0
13.468	44.0
13.482	30.0
13.497	37.0
13.512	34.0
13.527	31.0
13.542	48.0
13.557	48.0
13.572	52.0
13.587	61.0
13.602	51.0
13.617	56.0
13.632	60.0
13.647	71.0
13.662	66.0
13.677	79.0
13.691	71.0
13.706	89.0
13.721	115.0
13.736	97.0
13.751	108.0
13.766	110.0
13.781	126.0
13.796	120.0
13.811	121.0
13.826	121.0
13.841	116.0
13.856	119.0
13.871	92.0
13.885	101.0
13.9	89.0
13.915	91.0
13.93	71.0
13.945	62.0
13.96	45.0
13.975	45.0
13.99	42.0
14.005	38.0
14.02	29.0
14.035	29.0
14.05	31.0
14.065	19.0
14.08	18.0
14.094	29.0
14.109	28.0
14.124	20.0
14.139	19.0
14.154	26.0
14.169	20.0
14.184	34.0
14.199	23.0
14.214	27.0
14.229	27.0
14.244	24.0
14.259	24.0
14.274	18.0
14.288	17.0
14.303	13.0
14.318	21.0
14.333	20.0
14.348	13.0
14.363	16.0
14.378	20.0
14.393	20.0
14.408	15.0
14.423	19.0
14.438	15.0
14.453	18.0
14.468	18.0
14.482	15.0
14.497	14.0
14.512	15.0
14.527	11.0
14.542	17.0
14.557	14.0
14.572	19.0
14.587	15.0
14.602	20.0
14.617	14.0
14.632	16.0
14.647	14.0
14.661	15.0
14.676	12.0
14.691	22.0
14.706	20.0
14.721	18.0
14.736	14.0
14.751	12.0
14.766	20.0
14.781	16.0
14.796	11.0
14.811	22.0
14.826	17.0
14.84	17.0
14.855	12.0
14.87	16.0
14.885	12.0
14.9	11.0
14.915	17.0
14.93	16.0
14.945	19.0
14.96	25.0
14.975	9.0
14.989	16.0
15.004	9.0
15.019	10.0
15.034	16.0
15.049	21.0
15.064	19.0
15.079	16.0
15.094	13.0
15.109	14.0
15.124	16.0
15.138	11.0
15.153	13.0
15.168	10.0
15.183	13.0
15.198	18.0
15.213	11.0
15.228	12.0
15.243	13.0
15.258	11.0
15.272	14.0
15.287	14.0
15.302	13.0
15.317	14.0
15.332	11.0
15.347	10.0
15.362	9.0
15.377	16.0
15.391	23.0
15.406	23.0
15.421	13.0
15.436	8.0
15.451	17.0
15.466	16.0
15.481	13.0
15.496	17.0
15.51	12.0
15.525	14.0
15.54	12.0
15.555	9.0
15.57	21.0
15.585	11.0
15.6	18.0
15.614	14.0
15.629	11.0
15.644	8.0
15.659	15.0
15.674	15.0
15.689	10.0
15.704	10.0
15.718	14.0
15.733	15.0
15.748	12.0
15.763	15.0
15.778	8.0
15.793	16.0
15.808	16.0
15.822	14.0
15.837	12.0
15.852	17.0
15.867	15.0
15.882	16.0
15.897	13.0
15.911	9.0
15.926	12.0
15.941	14.0
15.956	15.0
15.971	16.0
15.986	11.0
16.0	10.0
16.015	10.0
16.03	8.0
16.045	14.0
16.06	13.0
16.074	16.0
16.089	18.0
16.104	10.0
16.119	9.0
16.134	11.0
16.149	12.0
16.163	17.0
16.178	14.0
16.193	14.0
16.208	15.0
16.223	16.0
16.237	14.0
16.252	10.0
16.267	15.0
16.282	11.0
16.297	13.0
16.311	16.0
16.326	18.0
16.341	15.0
16.356	14.0
16.37	17.0
16.385	8.0
16.4	12.0
16.415	14.0
16.43	14.0
16.444	17.0
16.459	19.0
16.474	16.0
16.489	19.0
16.504	17.0
16.518	17.0
16.533	10.0
16.548	21.0
16.563	15.0
16.577	17.0
16.592	17.0
16.607	26.0
16.622	16.0
16.637	24.0
16.651	22.0
16.666	23.0
16.681	15.0
16.696	24.0
16.71	20.0
16.725	28.0
16.74	26.0
16.755	26.0
16.77	29.0
16.784	40.0
16.799	50.0
16.814	39.0
16.829	38.0
16.843	53.0
16.858	50.0
16.873	47.0
16.888	68.0
16.902	73.0
16.917	69.0
16.932	73.0
16.947	79.0
16.961	83.0
16.976	75.0
16.991	65.0
17.006	57.0
17.021	56.0
17.035	58.0
17.05	44.0
17.065	50.0
17.08	32.0
17.094	39.0
17.109	29.0
17.124	18.0
17.139	21.0
17.153	11.0
17.168	15.0
17.183	20.0
17.198	14.0
17.212	17.0
17.227	14.0
17.242	13.0
17.257	13.0
17.271	12.0
17.286	7.0
17.301	18.0
17.316	13.0
17.33	7.0
17.345	15.0
17.36	10.0
17.375	13.0
17.39	18.0
17.404	19.0
17.419	12.0
17.434	17.0
17.449	13.0
17.463	5.0
17.478	16.0
17.493	8.0
17.508	12.0
17.522	15.0
17.537	13.0
17.552	20.0
17.567	9.0
17.581	16.0
17.596	15.0
17.611	18.0
17.626	12.0
17.641	11.0
17.655	10.0
17.67	11.0
17.685	8.0
17.7	14.0
17.714	15.0
17.729	18.0
17.744	11.0
17.759	14.0
17.773	13.0
17.788	11.0
17.803	14.0
17.818	9.0
17.833	9.0
17.847	14.0
17.862	8.0
17.877	11.0
17.892	11.0
17.906	10.0
17.921	10.0
17.936	8.0
17.951	13.0
17.966	15.0
17.98	8.0
17.995	15.0
18.01	15.0
18.025	12.0
18.04	17.0
18.054	11.0
18.069	16.0
18.084	5.0
18.099	10.0
18.114	10.0
18.128	8.0
18.143	6.0
18.158	16.0
18.173	15.0
18.188	13.0
18.202	10.0
18.217	10.0
18.232	11.0
18.247	13.0
18.262	12.0
18.276	13.0
18.291	15.0
18.306	14.0
18.321	15.0
18.336	10.0
18.35	11.0
18.365	6.0
18.38	13.0
18.395	11.0
18.41	12.0
18.424	11.0
18.439	13.0
18.454	11.0
18.469	7.0
18.484	13.0
18.498	6.0
18.513	10.0
18.528	11.0
18.543	11.0
18.558	11.0
18.573	4.0
18.587	10.0
18.602	11.0
18.617	13.0
18.632	11.0
18.647	8.0
18.661	10.0
18.676	7.0
18.691	10.0
18.706	3.0
18.721	7.0
18.736	14.0
18.75	12.0
18.765	12.0
18.78	15.0
18.795	13.0
18.81	14.0
18.825	14.0
18.839	8.0
18.854	7.0
18.869	4.0
18.884	13.0
18.899	9.0
18.913	11.0
18.928	16.0
18.943	12.0
18.958	13.0
18.973	7.0
18.988	8.0
19.002	14.0
19.017	17.0
19.032	15.0
19.047	9.0
19.062	11.0
19.077	10.0
19.091	11.0
19.106	16.0
19.121	8.0
19.136	17.0
19.151	11.0
19.165	14.0
19.18	15.0
19.195	10.0
19.21	11.0
19.225	11.0
19.24	12.0
19.254	11.0
19.269	15.0
19.284	17.0
19.299	15.0
19.314	14.0
19.329	13.0
19.343	15.0
19.358	11.0
19.373	15.0
19.388	16.0
19.403	12.0
19.417	22.0
19.432	23.0
19.447	23.0
19.462	21.0
19.477	26.0
19.492	26.0
19.506	30.0
19.521	24.0
19.536	35.0
19.551	41.0
19.566	29.0
19.58	38.0
19.595	44.0
19.61	45.0
19.625	33.0
19.64	34.0
19.655	39.0
19.669	36.0
19.684	30.0
19.699	34.0
19.714	33.0
19.729	26.0
19.743	19.0
19.758	30.0
19.773	19.0
19.788	22.0
19.803	20.0
19.817	13.0
19.832	10.0
19.847	14.0
19.862	14.0
19.877	19.0
19.891	20.0
19.906	5.0
19.921	12.0
19.936	18.0
19.951	14.0
19.965	6.0
19.98	10.0
19.995	10.0
20.01	8.0
20.025	8.0
20.039	6.0
20.054	12.0
20.069	14.0
20.084	15.0
20.099	15.0
20.113	17.0
20.128	10.0
20.143	13.0
20.158	9.0
20.173	14.0
20.187	17.0
20.202	9.0
20.217	12.0
20.232	13.0
20.246	10.0
20.261	12.0
20.276	14.0
20.291	13.0
20.306	9.0
20.32	7.0
20.335	8.0
20.35	11.0
20.365	8.0
20.38	12.0
20.394	6.0
20.409	8.0
20.424	9.0
20.439	5.0
20.453	13.0
20.468	14.0
20.483	6.0
20.498	9.0
20.513	7.0
20.527	6.0
20.542	18.0
20.557	5.0
20.572	8.0
20.586	11.0
20.601	4.0
20.616	16.0
20.631	11.0
20.646	13.0
20.66	10.0
20.675	8.0
20.69	13.0
20.705	9.0
20.719	10.0
20.734	9.0
20.749	13.0
20.764	10.0
20.779	8.0
20.793	5.0
20.808	8.0
20.823	7.0
20.838	4.0
20.853	8.0
20.867	8.0
20.882	12.0
20.897	9.0
20.912	12.0
20.926	6.0
20.941	8.0
20.956	10.0
20.971	6.0
20.986	22.0
21.0	12.0
21.015	9.0
21.03	14.0
21.045	11.0
21.06	10.0
21.074	11.0
21.089	8.0
21.104	17.0
21.119	8.0
21.134	6.0
21.148	11.0
21.163	11.0
21.178	9.0
21.193	13.0
21.208	10.0
21.222	8.0
21.237	15.0
21.252	12.0
21.267	8.0
21.282	20.0
21.296	10.0
21.311	13.0
21.326	8.0
21.341	9.0
21.356	9.0
21.37	14.0
21.385	13.0
21.4	7.0
21.415	10.0
21.43	12.0
21.444	10.0
21.459	20.0
21.474	9.0
21.489	14.0
21.504	12.0
21.519	15.0
21.533	10.0
21.548	19.0
21.563	13.0
21.578	17.0
21.593	12.0
21.608	16.0
21.622	9.0
21.637	12.0
21.652	13.0
21.667	11.0
21.682	15.0
21.697	18.0
21.712	25.0
21.726	24.0
21.741	24.0
21.756	20.0
21.771	31.0
21.786	36.0
21.801	45.0
21.816	40.0
21.83	45.0
21.845	44.0
21.86	53.0
21.875	53.0
21.89	71.0
21.905	79.0
21.92	71.0
21.935	79.0
21.949	76.0
21.964	63.0
21.979	82.0
21.994	74.0
22.009	67.0
22.024	59.0
22.039	58.0
22.054	44.0
22.069	68.0
22.083	44.0
22.098	36.0
22.113	38.0
22.128	27.0
22.143	24.0
22.158	25.0
22.173	18.0
22.188	15.0
22.203	13.0
22.218	21.0
22.233	14.0
22.248	12.0
22.262	14.0
22.277	12.0
22.292	12.0
22.307	16.0
22.322	22.0
22.337	11.0
22.352	15.0
22.367	15.0
22.382	12.0
22.397	20.0
22.412	16.0
22.427	10.0
22.442	15.0
22.457	14.0
22.472	19.0
22.487	8.0
22.502	14.0
22.516	15.0
22.531	8.0
22.546	11.0
22.561	14.0
22.576	9.0
22.591	13.0
22.606	15.0
22.621	12.0
22.636	18.0
22.651	10.0
22.666	15.0
22.681	15.0
22.696	9.0
22.711	8.0
22.726	11.0
22.741	11.0
22.756	15.0
22.771	10.0
22.786	11.0
22.801	7.0
22.816	6.0
22.831	11.0
22.846	8.0
22.861	12.0
22.876	13.0
22.891	12.0
22.906	14.0
22.92	7.0
22.935	15.0
22.95	12.0
22.965	9.0
22.98	7.0
22.995	9.0
23.01	17.0
23.025	9.0
23.04	5.0
23.055	10.0
23.07	13.0
23.085	8.0
23.1	9.0
23.115	11.0
23.13	8.0
23.145	6.0
23.16	6.0
23.175	6.0
23.19	11.0
23.205	12.0
23.22	9.0
23.235	7.0
23.25	7.0
23.265	12.0
23.28	12.0
23.295	11.0
23.31	6.0
23.325	13.0
23.34	13.0
23.355	7.0
23.37	11.0
23.384	6.0
23.399	6.0
23.414	7.0
23.429	10.0
23.444	6.0
23.459	13.0
23.474	10.0
23.489	15.0
23.504	14.0
23.519	8.0
23.534	11.0
23.549	7.0
23.564	2.0
23.579	11.0
23.594	15.0
23.609	5.0
23.624	14.0
23.639	12.0
23.654	12.0
23.668	19.0
23.683	8.0
23.698	11.0
23.713	14.0
23.728	6.0
23.743	6.0
23.758	16.0
23.773	9.0
23.788	7.0
23.803	11.0
23.818	17.0
23.833	15.0
23.848	9.0
23.862	24.0
23.877	23.0
23.892	23.0
23.907	19.0
23.922	18.0
23.937	25.0
23.952	28.0
23.967	28.0
23.982	33.0
23.997	38.0
24.011	49.0
24.026	35.0
24.041	44.0
24.056	48.0
24.071	53.0
24.086	48.0
24.101	41.0
24.116	40.0
24.131	49.0
24.145	33.0
24.16	34.0
24.175	47.0
24.19	31.0
24.205	28.0
24.22	34.0
24.235	24.0
24.249	36.0
24.264	30.0
24.279	27.0
24.294	26.0
24.309	18.0
24.324	9.0
24.338	17.0
24.353	14.0
24.368	9.0
24.383	11.0
24.398	19.0
24.413	14.0
24.428	21.0
24.442	14.0
24.457	12.0
24.472	15.0
24.487	13.0
24.502	13.0
24.516	11.0
24.531	12.0
24.546	16.0
24.561	9.0
24.576	7.0
24.591	9.0
24.605	6.0
24.62	11.0
24.635	11.0
24.65	13.0
24.665	10.0
24.679	11.0
24.694	11.0
24.709	14.0
24.724	7.0
24.739	4.0
24.753	10.0
24.768	9.0
24.783	10.0
24.798	11.0
24.813	15.0
24.827	11.0
24.842	7.0
24.857	7.0
24.872	10.0
24.886	5.0
24.901	8.0
24.916	13.0
24.931	9.0
24.946	6.0
24.96	9.0
24.975	8.0
24.99	6.0
25.005	10.0
25.019	14.0
25.034	14.0
25.049	12.0
25.064	11.0
25.078	7.0
25.093	10.0
25.108	5.0
25.123	17.0
25.138	19.0
25.152	13.0
25.167	4.0
25.182	12.0
25.197	8.0
25.211	4.0
25.226	6.0
25.241	7.0
25.256	12.0
25.27	11.0
25.285	7.0
25.3	8.0
25.315	10.0
25.329	8.0
25.344	12.0
25.359	15.0
25.374	10.0
25.388	6.0
25.403	7.0
25.418	7.0
25.433	19.0
25.447	7.0
25.462	6.0
25.477	8.0
25.492	11.0
25.506	10.0
25.521	8.0
25.536	10.0
25.55	8.0
25.565	7.0
25.58	11.0
25.595	10.0
25.609	10.0
25.624	14.0
25.639	10.0
25.654	8.0
25.668	17.0
25.683	13.0
25.698	11.0
25.713	7.0
25.727	5.0
25.742	7.0
25.757	15.0
25.772	10.0
25.786	13.0
25.801	8.0
25.816	9.0
25.83	8.0
25.845	9.0
25.86	8.0
25.875	5.0
25.889	3.0
25.904	7.0
25.919	13.0
25.934	6.0
25.948	6.0
25.963	12.0
25.978	5.0
25.992	16.0
26.007	7.0
26.022	9.0
26.037	9.0
26.051	8.0
26.066	9.0
26.081	9.0
26.096	9.0
26.11	8.0
26.125	13.0
26.14	12.0
26.155	13.0
26.169	5.0
26.184	15.0
26.199	10.0
26.213	4.0
26.228	7.0
26.243	9.0
26.258	13.0
26.272	8.0
26.287	7.0
26.302	19.0
26.317	10.0
26.331	11.0
26.346	9.0
26.361	11.0
26.376	12.0
26.39	13.0
26.405	4.0
26.42	5.0
26.434	11.0
26.449	15.0
26.464	9.0
26.479	5.0
26.493	10.0
26.508	12.0
26.523	13.0
26.538	11.0
26.552	11.0
26.567	5.0
26.582	7.0
26.597	5.0
26.611	6.0
26.626	5.0
26.641	10.0
26.656	9.0
26.67	3.0
26.685	11.0
26.7	11.0
26.715	7.0
26.729	9.0
26.744	12.0
26.759	7.0
26.773	6.0
26.788	6.0
26.803	4.0
26.818	5.0
26.832	7.0
26.847	8.0
26.862	10.0
26.877	8.0
26.891	10.0
26.906	10.0
26.921	12.0
26.936	5.0
26.95	8.0
26.965	14.0
26.98	9.0
26.995	11.0
27.01	4.0
27.024	11.0
27.039	11.0
27.054	6.0
27.069	7.0
27.083	6.0
27.098	11.0
27.113	9.0
27.128	5.0
27.142	9.0
27.157	10.0
27.172	12.0
27.187	11.0
27.201	3.0
27.216	4.0
27.231	8.0
27.246	8.0
27.261	8.0
27.275	2.0
27.29	10.0
27.305	12.0
27.32	9.0
27.334	9.0
27.349	7.0
27.364	10.0
27.379	7.0
27.394	10.0
27.408	7.0
27.423	11.0
27.438	14.0
27.453	10.0
27.467	9.0
27.482	12.0
27.497	8.0
27.512	12.0
27.527	12.0
27.541	10.0
27.556	7.0
27.571	11.0
27.586	13.0
27.601	12.0
27.615	7.0
27.63	10.0
27.645	11.0
27.66	8.0
27.675	12.0
27.689	13.0
27.704	15.0
27.719	12.0
27.734	15.0
27.749	20.0
27.763	21.0
27.778	21.0
27.793	19.0
27.808	19.0
27.823	18.0
27.838	23.0
27.852	16.0
27.867	21.0
27.882	31.0
27.897	20.0
27.912	29.0
27.926	21.0
27.941	26.0
27.956	23.0
27.971	19.0
27.986	14.0
28.001	12.0
28.015	20.0
28.03	13.0
28.045	16.0
28.06	16.0
28.075	15.0
28.09	16.0
28.105	18.0
28.119	11.0
28.134	19.0
28.149	10.0
28.164	14.0
28.179	8.0
28.194	10.0
28.208	10.0
28.223	10.0
28.238	13.0
28.253	6.0
28.268	7.0
28.283	15.0
28.298	11.0
28.312	15.0
28.327	8.0
28.342	6.0
28.357	18.0
28.372	7.0
28.387	8.0
28.402	9.0
28.417	6.0
28.431	13.0
28.446	9.0
28.461	9.0
28.476	6.0
28.491	7.0
28.506	14.0
28.521	7.0
28.536	13.0
28.55	10.0
28.565	10.0
28.58	12.0
28.595	12.0
28.61	9.0
28.625	14.0
28.64	9.0
28.655	12.0
28.669	10.0
28.684	11.0
28.699	7.0
28.714	6.0
28.729	5.0
28.744	5.0
28.759	9.0
28.774	7.0
28.788	5.0
28.803	4.0
28.818	19.0
28.833	10.0
28.848	16.0
28.863	6.0
28.878	9.0
28.893	14.0
28.908	6.0
28.922	11.0
28.937	11.0
28.952	10.0
28.967	14.0
28.982	7.0
28.997	8.0
29.012	17.0
29.027	7.0
29.041	14.0
29.056	4.0
29.071	10.0
29.086	10.0
29.101	9.0
29.116	14.0
29.131	12.0
29.146	9.0
29.16	4.0
29.175	11.0
29.19	11.0
29.205	9.0
29.22	11.0
29.235	11.0
29.25	12.0
29.265	14.0
29.279	12.0
29.294	5.0
29.309	11.0
29.324	18.0
29.339	8.0
29.354	11.0
29.369	15.0
29.384	6.0
29.398	11.0
29.413	19.0
29.428	18.0
29.443	19.0
29.458	18.0
29.473	24.0
29.488	35.0
29.502	25.0
29.517	30.0
29.532	28.0
29.547	39.0
29.562	39.0
29.577	41.0
29.592	40.0
29.606	54.0
29.621	43.0
29.636	49.0
29.651	42.0
29.666	46.0
29.681	32.0
29.695	29.0
29.71	51.0
29.725	30.0
29.74	35.0
29.755	32.0
29.77	45.0
29.784	28.0
29.799	45.0
29.814	26.0
29.829	20.0
29.844	18.0
29.859	20.0
29.873	23.0
29.888	19.0
29.903	18.0
29.918	12.0
29.933	14.0
29.947	18.0
29.962	9.0
29.977	19.0
29.992	12.0
30.007	19.0
30.021	9.0
30.036	12.0
30.051	4.0
30.066	12.0
30.081	8.0
30.095	3.0
30.11	9.0
30.125	12.0
30.14	10.0
30.155	8.0
30.169	15.0
30.184	13.0
30.199	8.0
30.214	5.0
30.228	11.0
30.243	14.0
30.258	7.0
30.273	12.0
30.288	16.0
30.302	14.0
30.317	6.0
30.332	11.0
30.347	6.0
30.361	7.0
30.376	6.0
30.391	14.0
30.406	12.0
30.42	13.0
30.435	8.0
30.45	13.0
30.465	5.0
30.479	17.0
30.494	10.0
30.509	13.0
30.524	9.0
30.538	7.0
30.553	13.0
30.568	14.0
30.583	6.0
30.597	8.0
30.612	8.0
30.627	7.0
30.641	7.0
30.656	7.0
30.671	10.0
30.686	7.0
30.7	16.0
30.715	9.0
30.73	15.0
30.745	11.0
30.759	13.0
30.774	18.0
30.789	10.0
30.803	6.0
30.818	16.0
30.833	8.0
30.848	4.0
30.862	7.0
30.877	6.0
30.892	8.0
30.906	15.0
30.921	9.0
30.936	11.0
30.951	10.0
30.965	8.0
30.98	13.0
30.995	20.0
31.009	8.0
31.024	11.0
31.039	19.0
31.053	23.0
31.068	13.0
31.083	15.0
31.098	11.0
31.112	29.0
31.127	18.0
31.142	28.0
31.156	22.0
31.171	24.0
31.186	25.0
31.2	32.0
31.215	38.0
31.23	36.0
31.245	42.0
31.259	40.0
31.274	45.0
31.289	35.0
31.303	42.0
31.318	31.0
31.333	28.0
31.347	32.0
31.362	30.0
31.377	22.0
31.392	29.0
31.406	33.0
31.421	25.0
31.436	20.0
31.45	30.0
31.465	19.0
31.48	19.0
31.494	15.0
31.509	21.0
31.524	15.0
31.538	16.0
31.553	12.0
31.568	15.0
31.583	12.0
31.597	12.0
31.612	8.0
31.627	9.0
31.641	13.0
31.656	16.0
31.671	10.0
31.685	13.0
31.7	15.0
31.715	13.0
31.729	13.0
31.744	13.0
31.759	5.0
31.774	9.0
31.788	7.0
31.803	6.0
31.818	9.0
31.832	11.0
31.847	17.0
31.862	14.0
31.876	7.0
31.891	8.0
31.906	10.0
31.92	10.0
31.935	9.0
31.95	8.0
31.965	5.0
31.979	16.0
31.994	7.0
32.009	16.0
32.023	9.0
32.038	14.0
32.053	8.0
32.067	4.0
32.082	13.0
32.097	10.0
32.112	5.0
32.126	6.0
32.141	8.0
32.156	5.0
32.17	11.0
32.185	10.0
32.2	12.0
32.214	15.0
32.229	14.0
32.244	4.0
32.259	6.0
32.273	8.0
32.288	9.0
32.303	9.0
32.317	4.0
32.332	12.0
32.347	10.0
32.362	9.0
32.376	12.0
32.391	7.0
32.406	6.0
32.42	10.0
32.435	4.0
32.45	11.0
32.465	7.0
32.479	4.0
32.494	5.0
32.509	8.0
32.523	8.0
32.538	6.0
32.553	14.0
32.568	7.0
32.582	12.0
32.597	10.0
32.612	13.0
32.627	19.0
32.641	11.0
32.656	12.0
32.671	15.0
32.685	19.0
32.7	13.0
32.715	22.0
32.73	21.0
32.744	24.0
32.759	24.0
32.774	28.0
32.788	30.0
32.803	19.0
32.818	19.0
32.833	36.0
32.847	25.0
32.862	28.0
32.877	24.0
32.892	20.0
32.906	17.0
32.921	30.0
32.936	17.0
32.951	20.0
32.965	19.0
32.98	16.0
32.995	15.0
33.009	10.0
33.024	17.0
33.039	14.0
33.054	14.0
33.068	15.0
33.083	22.0
33.098	11.0
33.113	11.0
33.127	15.0
33.142	13.0
33.157	4.0
33.172	8.0
33.186	13.0
33.201	7.0
33.216	7.0
33.231	11.0
33.245	7.0
33.26	9.0
33.275	10.0
33.29	12.0
33.304	8.0
33.319	5.0
33.334	12.0
33.349	12.0
33.363	3.0
33.378	11.0
33.393	9.0
33.408	10.0
33.422	12.0
33.437	10.0
33.452	12.0
33.467	5.0
33.481	9.0
33.496	12.0
33.511	7.0
33.526	9.0
33.54	11.0
33.555	11.0
33.57	7.0
33.585	12.0
33.599	11.0
33.614	3.0
33.629	12.0
33.644	9.0
33.658	20.0
33.673	6.0
33.688	8.0
33.703	7.0
33.718	13.0
33.732	10.0
33.747	11.0
33.762	10.0
33.777	7.0
33.791	13.0
33.806	13.0
33.821	7.0
33.836	10.0
33.85	10.0
33.865	11.0
33.88	9.0
33.895	10.0
33.91	12.0
33.924	7.0
33.939	14.0
33.954	12.0
33.969	13.0
33.983	14.0
33.998	11.0
34.013	11.0
34.028	10.0
34.042	12.0
34.057	16.0
34.072	7.0
34.087	17.0
34.102	7.0
34.116	11.0
34.131	7.0
34.146	13.0
34.161	10.0
34.175	7.0
34.19	14.0
34.205	11.0
34.22	12.0
34.235	15.0
34.249	11.0
34.264	13.0
34.279	9.0
34.294	15.0
34.309	14.0
34.323	15.0
34.338	15.0
34.353	11.0
34.368	11.0
34.382	11.0
34.397	21.0
34.412	9.0
34.427	12.0
34.442	10.0
34.456	11.0
34.471	14.0
34.486	14.0
34.501	6.0
34.516	6.0
34.53	8.0
34.545	8.0
34.56	15.0
34.575	9.0
34.59	13.0
34.604	6.0
34.619	8.0
34.634	9.0
34.649	11.0
34.664	8.0
34.678	12.0
34.693	11.0
34.708	13.0
34.723	3.0
34.738	9.0
34.752	12.0
34.767	7.0
34.782	9.0
34.797	8.0
34.812	8.0
34.826	9.0
34.841	4.0
34.856	11.0
34.871	9.0
34.886	4.0
34.9	8.0
34.915	11.0
34.93	6.0
34.945	12.0
34.96	8.0
34.974	3.0
34.989	6.0
35.004	9.0
35.019	8.0
35.034	8.0
35.048	10.0
35.063	9.0
35.078	12.0
35.093	9.0
35.108	6.0
35.122	9.0
35.137	10.0
35.152	10.0
35.167	8.0
35.182	5.0
35.196	11.0
35.211	12.0
35.226	9.0
35.241	9.0
35.256	11.0
35.27	10.0
35.285	7.0
35.3	8.0
35.315	10.0
35.33	7.0
35.344	8.0
35.359	4.0
35.374	4.0
35.389	7.0
35.404	6.0
35.418	7.0
35.433	10.0
35.448	5.0
35.463	14.0
35.478	6.0
35.493	10.0
35.507	6.0
35.522	11.0
35.537	9.0
35.552	10.0
35.567	8.0
35.581	7.0
35.596	9.0
35.611	6.0
35.626	8.0
35.641	11.0
35.655	6.0
35.67	12.0
35.685	11.0
35.7	7.0
35.715	24.0
35.729	16.0
35.744	22.0
35.759	15.0
35.774	19.0
35.789	17.0
35.804	29.0
35.818	26.0
35.833	20.0
35.848	11.0
35.863	14.0
35.878	11.0
35.892	12.0
35.907	16.0
35.922	17.0
35.937	7.0
35.952	20.0
35.966	20.0
35.981	14.0
35.996	10.0
36.011	10.0
36.026	13.0
36.04	12.0
36.055	11.0
36.07	12.0
36.085	6.0
36.1	9.0
36.114	9.0
36.129	10.0
36.144	10.0
36.159	5.0
36.174	12.0
36.189	10.0
36.203	5.0
36.218	10.0
36.233	11.0
36.248	10.0
36.263	9.0
36.277	8.0
36.292	5.0
36.307	10.0
36.322	8.0
36.337	10.0
36.351	9.0
36.366	8.0
36.381	13.0
36.396	10.0
36.411	7.0
36.426	13.0
36.44	10.0
36.455	12.0
36.47	5.0
36.485	11.0
36.5	11.0
36.514	6.0
36.529	10.0
36.544	11.0
36.559	7.0
36.574	9.0
36.589	7.0
36.603	6.0
36.618	8.0
36.633	5.0
36.648	7.0
36.663	13.0
36.677	7.0
36.692	13.0
36.707	4.0
36.722	5.0
36.737	8.0
36.752	10.0
36.766	6.0
36.781	10.0
36.796	8.0
36.811	7.0
36.826	7.0
36.841	7.0
36.855	4.0
36.87	5.0
36.885	9.0
36.9	6.0
36.915	12.0
36.93	12.0
36.944	10.0
36.959	10.0
36.974	7.0
36.989	5.0
37.004	4.0
37.019	15.0
37.033	8.0
37.048	10.0
37.063	14.0
37.078	18.0
37.093	21.0
37.108	22.0
37.123	17.0
37.137	31.0
37.152	20.0
37.167	30.0
37.182	24.0
37.197	29.0
37.212	23.0
37.226	28.0
37.241	30.0
37.256	18.0
37.271	20.0
37.286	15.0
37.301	12.0
37.316	16.0
37.331	20.0
37.345	17.0
37.36	19.0
37.375	24.0
37.39	11.0
37.405	17.0
37.42	21.0
37.435	12.0
37.45	22.0
37.464	12.0
37.479	13.0
37.494	20.0
37.509	13.0
37.524	11.0
37.539	9.0
37.554	12.0
37.569	8.0
37.583	7.0
37.598	10.0
37.613	7.0
37.628	4.0
37.643	10.0
37.658	7.0
37.673	6.0
37.688	3.0
37.703	5.0
37.718	9.0
37.733	10.0
37.747	6.0
37.762	8.0
37.777	12.0
37.792	6.0
37.807	4.0
37.822	6.0
37.837	3.0
37.852	10.0
37.867	5.0
37.882	9.0
37.897	7.0
37.912	9.0
37.927	4.0
37.941	8.0
37.956	9.0
37.971	6.0
37.986	8.0
38.001	7.0
38.016	4.0
38.031	5.0
38.046	5.0
38.061	5.0
38.076	8.0
38.091	6.0
38.106	8.0
38.121	5.0
38.136	9.0
38.151	11.0
38.166	4.0
38.181	9.0
38.196	9.0
38.211	6.0
38.226	5.0
38.241	7.0
38.256	8.0
38.271	5.0
38.285	6.0
38.3	7.0
38.315	6.0
38.33	7.0
38.345	8.0
38.36	4.0
38.375	4.0
38.39	7.0
38.405	9.0
38.42	5.0
38.435	5.0
38.45	5.0
38.465	3.0
38.48	7.0
38.495	2.0
38.51	7.0
38.525	4.0
38.54	11.0
38.555	3.0
38.57	5.0
38.585	8.0
38.6	7.0
38.615	6.0
38.63	7.0
38.645	5.0
38.66	7.0
38.675	2.0
38.69	7.0
38.705	9.0
38.72	2.0
38.735	7.0
38.75	8.0
38.765	8.0
38.78	5.0
38.795	5.0
38.81	3.0
38.825	4.0
38.84	8.0
38.855	7.0
38.87	5.0
38.885	3.0
38.9	11.0
38.915	7.0
38.93	5.0
38.945	5.0
38.96	3.0
38.975	3.0
38.99	5.0
39.005	10.0
39.02	14.0
39.035	8.0
39.05	6.0
39.065	5.0
39.08	7.0
39.095	5.0
39.11	4.0
39.125	6.0
39.14	6.0
39.155	6.0
39.17	3.0
39.185	9.0
39.2	11.0
39.215	3.0
39.23	8.0
39.245	6.0
39.26	5.0
39.275	10.0
39.29	6.0
39.305	4.0
39.32	7.0
39.335	6.0
39.35	8.0
39.365	3.0
39.38	5.0
39.395	4.0
39.409	5.0
39.424	3.0
39.439	7.0
39.454	3.0
39.469	5.0
39.484	6.0
39.499	5.0
39.514	6.0
39.529	8.0
39.544	6.0
39.559	5.0
39.574	3.0
39.589	9.0
39.604	8.0
39.619	6.0
39.634	7.0
39.649	6.0
39.664	3.0
39.678	6.0
39.693	9.0
39.708	5.0
39.723	5.0
39.738	3.0
39.753	11.0
39.768	10.0
39.783	5.0
39.798	5.0
39.813	6.0
39.827	5.0
39.842	14.0
39.857	8.0
39.872	6.0
39.887	9.0
39.902	14.0
39.917	5.0
39.932	10.0
39.947	5.0
39.961	11.0
39.976	6.0
39.991	9.0
40.006	7.0
40.021	10.0
40.036	6.0
40.051	6.0
40.065	6.0
40.08	3.0
40.095	12.0
40.11	11.0
40.125	8.0
40.14	3.0
40.154	6.0
40.169	9.0
40.184	6.0
40.199	6.0
40.214	8.0
40.228	6.0
40.243	5.0
40.258	4.0
40.273	8.0
40.288	6.0
40.302	11.0
40.317	7.0
40.332	3.0
40.347	3.0
40.362	5.0
40.376	5.0
40.391	3.0
40.406	5.0
40.421	7.0
40.436	8.0
40.45	7.0
40.465	7.0
40.48	1.0
40.495	8.0
40.509	8.0
40.524	11.0
40.539	7.0
40.554	6.0
40.568	7.0
40.583	7.0
40.598	4.0
40.613	6.0
40.627	5.0
40.642	7.0
40.657	6.0
40.672	2.0
40.686	6.0
40.701	3.0
40.716	6.0
40.731	5.0
40.745	5.0
40.76	4.0
40.775	7.0
40.79	6.0
40.804	4.0
40.819	5.0
40.834	8.0
40.849	7.0
40.863	4.0
40.878	9.0
40.893	6.0
40.907	5.0
40.922	6.0
40.937	6.0
40.952	6.0
40.966	6.0
40.981	6.0
40.996	12.0
41.011	14.0
41.025	8.0
41.04	12.0
41.055	13.0
41.069	13.0
41.084	20.0
41.099	19.0
41.114	23.0
41.128	23.0
41.143	20.0
41.158	15.0
41.173	17.0
41.187	23.0
41.202	15.0
41.217	18.0
41.231	14.0
41.246	8.0
41.261	8.0
41.276	13.0
41.29	5.0
41.305	11.0
41.32	7.0
41.335	18.0
41.349	13.0
41.364	15.0
41.379	12.0
41.393	15.0
41.408	6.0
41.423	12.0
41.438	9.0
41.452	12.0
41.467	7.0
41.482	10.0
41.497	8.0
41.511	2.0
41.526	9.0
41.541	10.0
41.556	4.0
41.57	5.0
41.585	2.0
41.6	1.0
41.615	3.0
41.629	6.0
41.644	3.0
41.659	5.0
41.674	7.0
41.688	9.0
41.703	6.0
41.718	11.0
41.733	3.0
41.747	4.0
41.762	3.0
41.777	11.0
41.792	7.0
41.806	7.0
41.821	2.0
41.836	6.0
41.851	11.0
41.866	1.0
41.88	4.0
41.895	9.0
41.91	5.0
41.925	7.0
41.939	4.0
41.954	7.0
41.969	7.0
41.984	5.0
41.999	6.0
42.013	3.0
42.028	8.0
42.043	3.0
42.058	5.0
42.073	7.0
42.088	6.0
42.102	7.0
42.117	7.0
42.132	5.0
42.147	7.0
42.162	5.0
42.176	3.0
42.191	3.0
42.206	4.0
42.221	3.0
42.236	9.0
42.251	9.0
42.266	13.0
42.28	7.0
42.295	11.0
42.31	13.0
42.325	13.0
42.34	9.0
42.355	18.0
42.369	13.0
42.384	16.0
42.399	16.0
42.414	13.0
42.429	18.0
42.444	13.0
42.459	13.0
42.474	12.0
42.488	9.0
42.503	12.0
42.518	7.0
42.533	9.0
42.548	6.0
42.563	8.0
42.578	9.0
42.593	7.0
42.608	13.0
42.622	15.0
42.637	12.0
42.652	13.0
42.667	13.0
42.682	5.0
42.697	8.0
42.712	12.0
42.727	8.0
42.742	8.0
42.757	4.0
42.772	4.0
42.786	4.0
42.801	8.0
42.816	6.0
42.831	8.0
42.846	6.0
42.861	6.0
42.876	7.0
42.891	4.0
42.906	10.0
42.921	12.0
42.936	7.0
42.951	6.0
42.966	3.0
42.981	6.0
42.996	9.0
43.011	4.0
43.025	10.0
43.04	5.0
43.055	6.0
43.07	6.0
43.085	1.0
43.1	5.0
43.115	4.0
43.13	8.0
43.145	3.0
43.16	5.0
43.175	1.0
43.19	4.0
43.205	7.0
43.22	6.0
43.235	4.0
43.25	5.0
43.265	3.0
43.28	5.0
43.295	1.0
43.31	3.0
43.325	4.0
43.34	6.0
43.355	9.0
43.37	3.0
43.385	3.0
43.4	6.0
43.415	8.0
43.43	10.0
43.445	7.0
43.46	3.0
43.475	2.0
43.49	6.0
43.505	8.0
43.52	3.0
43.535	4.0
43.55	7.0
43.565	9.0
43.58	10.0
43.595	12.0
43.61	6.0
43.625	7.0
43.64	7.0
43.655	13.0
43.67	6.0
43.685	12.0
43.7	7.0
43.715	8.0
43.73	7.0
43.745	9.0
43.76	3.0
43.775	5.0
43.79	2.0
43.805	8.0
43.82	7.0
43.835	6.0
43.85	8.0
43.865	7.0
43.88	4.0
43.895	7.0
43.91	8.0
43.925	3.0
43.94	8.0
43.955	4.0
43.97	6.0
43.985	5.0
44.0	11.0
44.015	8.0
44.03	2.0
44.045	5.0
44.061	3.0
44.076	3.0
44.091	4.0
44.106	7.0
44.121	4.0
44.136	9.0
44.151	5.0
44.166	7.0
44.181	6.0
44.196	1.0
44.211	4.0
44.226	3.0
44.241	6.0
44.256	9.0
44.271	4.0
44.286	5.0
44.301	9.0
44.316	8.0
44.331	7.0
44.346	4.0
44.361	3.0
44.377	4.0
44.392	1.0
44.407	6.0
44.422	3.0
44.437	5.0
44.452	6.0
44.467	6.0
44.482	6.0
44.497	3.0
44.512	4.0
44.527	6.0
44.542	5.0
44.557	3.0
44.572	4.0
44.587	5.0
44.602	8.0
44.617	4.0
44.632	4.0
44.647	3.0
44.663	4.0
44.678	2.0
44.693	7.0
44.708	12.0
44.723	9.0
44.738	8.0
44.753	6.0
44.768	13.0
44.783	12.0
44.798	8.0
44.813	12.0
44.828	5.0
44.843	12.0
44.858	13.0
44.873	6.0
44.888	11.0
44.903	11.0
44.918	4.0
44.933	6.0
44.948	8.0
44.964	7.0
44.979	3.0
44.994	8.0
45.009	6.0
45.024	4.0
45.039	7.0
45.054	7.0
45.069	10.0
45.084	11.0
45.099	6.0
45.114	7.0
45.129	6.0
45.144	4.0
45.159	6.0
45.174	8.0
45.189	6.0
45.204	5.0
45.219	5.0
45.234	6.0
45.249	5.0
45.264	4.0
45.279	6.0
45.294	4.0
45.309	10.0
45.324	0.0
45.339	4.0
45.354	6.0
45.369	5.0
45.384	6.0
45.399	6.0
45.414	7.0
45.429	3.0
45.444	10.0
45.459	4.0
45.474	9.0
45.489	4.0
45.504	8.0
45.519	1.0
45.534	7.0
45.549	6.0
45.564	4.0
45.579	8.0
45.594	8.0
45.609	7.0
45.624	8.0
45.639	8.0
45.654	7.0
45.669	9.0
45.684	3.0
45.699	10.0
45.714	5.0
45.729	9.0
45.744	5.0
45.759	5.0
45.774	4.0
45.789	5.0
45.804	8.0
45.819	7.0
45.834	3.0
45.849	7.0
45.864	11.0
45.879	15.0
45.894	9.0
45.909	11.0
45.924	18.0
45.939	15.0
45.954	14.0
45.969	12.0
45.984	13.0
45.998	13.0
46.013	15.0
46.028	12.0
46.043	8.0
46.058	9.0
46.073	10.0
46.088	9.0
46.103	4.0
46.118	9.0
46.133	8.0
46.148	3.0
46.163	12.0
46.178	7.0
46.192	5.0
46.207	8.0
46.222	16.0
46.237	8.0
46.252	17.0
46.267	6.0
46.282	9.0
46.297	12.0
46.312	6.0
46.327	8.0
46.341	7.0
46.356	8.0
46.371	11.0
46.386	6.0
46.401	8.0
46.416	3.0
46.431	5.0
46.446	3.0
46.46	7.0
46.475	8.0
46.49	5.0
46.505	4.0
46.52	4.0
46.535	6.0
46.55	5.0
46.564	5.0
46.579	6.0
46.594	3.0
46.609	6.0
46.624	6.0
46.639	1.0
46.654	11.0
46.668	3.0
46.683	7.0
46.698	5.0
46.713	5.0
46.728	7.0
46.743	6.0
46.758	2.0
46.772	5.0
46.787	3.0
46.802	5.0
46.817	3.0
46.832	4.0
46.847	3.0
46.861	8.0
46.876	5.0
46.891	5.0
46.906	6.0
46.921	4.0
46.936	6.0
46.95	5.0
46.965	4.0
46.98	5.0
46.995	3.0
47.01	2.0
47.025	2.0
47.039	6.0
47.054	8.0
47.069	6.0
47.084	4.0
47.099	15.0
47.113	11.0
47.128	12.0
47.143	7.0
47.158	8.0
47.173	11.0
47.188	4.0
47.202	8.0
47.217	7.0
47.232	6.0
47.247	4.0
47.262	6.0
47.277	5.0
47.291	4.0
47.306	3.0
47.321	8.0
47.336	7.0
47.351	8.0
47.365	4.0
47.38	8.0
47.395	2.0
47.41	9.0
47.425	12.0
47.44	7.0
47.454	10.0
47.469	5.0
47.484	6.0
47.499	8.0
47.514	4.0
47.528	10.0
47.543	7.0
47.558	9.0
47.573	2.0
47.588	5.0
47.603	5.0
47.617	5.0
47.632	6.0
47.647	4.0
47.662	0.0
47.677	4.0
47.691	4.0
47.706	8.0
47.721	4.0
47.736	10.0
47.751	5.0
47.766	5.0
47.78	2.0
47.795	6.0
47.81	6.0
47.825	5.0
47.84	5.0
47.855	4.0
47.869	4.0
47.884	4.0
47.899	2.0
47.914	2.0
47.929	2.0
47.944	4.0
47.958	4.0
47.973	9.0
47.988	3.0
48.003	7.0
48.018	4.0
48.033	3.0
48.047	4.0
48.062	2.0
48.077	5.0
48.092	8.0
48.107	1.0
48.122	4.0
48.137	3.0
48.151	4.0
48.166	2.0
48.181	5.0
48.196	2.0
48.211	2.0
48.226	6.0
48.241	5.0
48.255	3.0
48.27	8.0
48.285	8.0
48.3	5.0
48.315	4.0
48.33	4.0
48.345	5.0
48.359	6.0
48.374	4.0
48.389	7.0
48.404	7.0
48.419	7.0
48.434	3.0
48.449	7.0
48.464	5.0
48.478	4.0
48.493	7.0
48.508	6.0
48.523	7.0
48.538	3.0
48.553	2.0
48.568	3.0
48.583	4.0
48.597	1.0
48.612	3.0
48.627	3.0
48.642	6.0
48.657	2.0
48.672	3.0
48.687	5.0
48.702	5.0
48.717	3.0
48.731	3.0
48.746	1.0
48.761	5.0
48.776	5.0
48.791	5.0
48.806	2.0
48.821	5.0
48.836	5.0
48.851	7.0
48.866	2.0
48.88	5.0
48.895	4.0
48.91	7.0
48.925	1.0
48.94	3.0
48.955	2.0
48.97	2.0
48.985	4.0
49.0	5.0
49.015	2.0
49.03	3.0
49.044	7.0
49.059	5.0
49.074	2.0
49.089	9.0
49.104	3.0
49.119	4.0
49.134	6.0
49.149	3.0
49.164	2.0
49.179	4.0
49.194	1.0
49.209	1.0
49.224	3.0
49.238	4.0
49.253	3.0
49.268	6.0
49.283	6.0
49.298	12.0
49.313	6.0
49.328	9.0
49.343	7.0
49.358	10.0
49.373	16.0
49.388	6.0
49.403	3.0
49.418	6.0
49.433	6.0
49.448	1.0
49.463	8.0
49.478	4.0
49.492	4.0
49.507	7.0
49.522	4.0
49.537	3.0
49.552	3.0
49.567	4.0
49.582	8.0
49.597	4.0
49.612	11.0
49.627	0.0
49.642	3.0
49.657	3.0
49.672	4.0
49.687	5.0
49.702	4.0
49.717	8.0
49.732	7.0
49.747	6.0
49.762	5.0
49.777	7.0
49.792	7.0
49.807	6.0
49.822	1.0
49.837	6.0
49.852	3.0
49.867	7.0
49.882	4.0
49.897	7.0
49.912	4.0
49.927	3.0
49.942	5.0
49.957	5.0
49.971	5.0
49.986	6.0
50.001	3.0
50.016	3.0
50.031	5.0
50.046	1.0
50.061	1.0
50.076	4.0
50.091	5.0
50.106	1.0
50.121	3.0
50.136	7.0
50.151	5.0
50.166	2.0
50.181	4.0
50.196	5.0
50.211	7.0
50.226	7.0
50.241	6.0
50.256	5.0
50.271	4.0
50.286	4.0
50.302	7.0
50.317	3.0
50.332	4.0
50.347	13.0
50.362	8.0
50.377	10.0
50.392	8.0
50.407	8.0
50.422	10.0
50.437	13.0
50.452	6.0
50.467	9.0
50.482	6.0
50.497	3.0
50.512	7.0
50.527	5.0
50.542	4.0
50.557	8.0
50.572	1.0
50.587	3.0
50.602	5.0
50.617	7.0
50.632	7.0
50.647	4.0
50.662	9.0
50.677	4.0
50.692	3.0
50.707	3.0
50.722	7.0
50.737	6.0
50.752	7.0
50.767	13.0
50.782	8.0
50.797	8.0
50.812	6.0
50.828	3.0
50.843	5.0
50.858	5.0
50.873	7.0
50.888	6.0
50.903	6.0
50.918	3.0
50.933	9.0
50.948	3.0
50.963	4.0
50.978	4.0
50.993	9.0
51.008	6.0
51.023	3.0
51.038	5.0
51.053	7.0
51.068	6.0
51.083	6.0
51.098	2.0
51.114	8.0
51.129	4.0
51.144	4.0
51.159	7.0
51.174	2.0
51.189	8.0
51.204	7.0
51.219	6.0
51.234	3.0
51.249	10.0
51.264	5.0
51.279	7.0
51.294	6.0
51.309	5.0
51.324	2.0
51.34	6.0
51.355	7.0
51.37	7.0
51.385	10.0
51.4	4.0
51.415	12.0
51.43	15.0
51.445	4.0
51.46	10.0
51.475	8.0
51.49	19.0
51.505	10.0
51.52	18.0
51.535	15.0
51.551	12.0
51.566	12.0
51.581	8.0
51.596	6.0
51.611	15.0
51.626	4.0
51.641	2.0
51.656	11.0
51.671	9.0
51.686	6.0
51.701	5.0
51.716	10.0
51.732	8.0
51.747	4.0
51.762	12.0
51.777	4.0
51.792	11.0
51.807	7.0
51.822	6.0
51.837	13.0
51.852	13.0
51.867	11.0
51.882	12.0
51.898	7.0
51.913	9.0
51.928	5.0
51.943	7.0
51.958	5.0
51.973	7.0
51.988	11.0
52.003	5.0
52.018	2.0
52.033	6.0
52.048	7.0
52.064	4.0
52.079	7.0
52.094	4.0
52.109	6.0
52.124	3.0
52.139	8.0
52.154	5.0
52.169	1.0
52.184	7.0
52.199	6.0
52.215	12.0
52.23	3.0
52.245	5.0
52.26	6.0
52.275	4.0
52.29	5.0
52.305	4.0
52.32	6.0
52.335	3.0
52.35	3.0
52.366	3.0
52.381	3.0
52.396	7.0
52.411	8.0
52.426	6.0
52.441	3.0
52.456	7.0
52.471	6.0
52.486	5.0
52.502	10.0
52.517	4.0
52.532	9.0
52.547	8.0
52.562	8.0
52.577	6.0
52.592	11.0
52.607	6.0
52.622	6.0
52.637	3.0
52.653	10.0
52.668	6.0
52.683	11.0
52.698	4.0
52.713	4.0
52.728	3.0
52.743	6.0
52.758	4.0
52.774	6.0
52.789	3.0
52.804	5.0
52.819	10.0
52.834	4.0
52.849	6.0
52.864	5.0
52.879	7.0
52.894	7.0
52.91	4.0
52.925	6.0
52.94	9.0
52.955	2.0
52.97	6.0
52.985	8.0
53.0	5.0
53.015	6.0
53.031	3.0
53.046	3.0
53.061	4.0
53.076	6.0
53.091	5.0
53.106	3.0
53.121	10.0
53.136	3.0
53.152	5.0
53.167	6.0
53.182	4.0
53.197	6.0
53.212	0.0
53.227	4.0
53.242	5.0
53.257	4.0
53.273	6.0
53.288	4.0
53.303	4.0
53.318	6.0
53.333	4.0
53.348	4.0
53.363	5.0
53.379	2.0
53.394	7.0
53.409	3.0
53.424	4.0
53.439	5.0
53.454	5.0
53.469	4.0
53.484	4.0
53.5	8.0
53.515	3.0
53.53	6.0
53.545	4.0
53.56	1.0
53.575	5.0
53.59	5.0
53.606	3.0
53.621	6.0
53.636	5.0
53.651	6.0
53.666	5.0
53.681	7.0
53.696	4.0
53.712	6.0
53.727	5.0
53.742	8.0
53.757	5.0
53.772	5.0
53.787	4.0
53.802	2.0
53.818	6.0
53.833	3.0
53.848	5.0
53.863	6.0
53.878	9.0
53.893	2.0
53.909	8.0
53.924	1.0
53.939	4.0
53.954	4.0
53.969	2.0
53.984	5.0
53.999	3.0
54.015	4.0
54.03	4.0
54.045	5.0
54.06	4.0
54.075	5.0
54.09	3.0
54.106	0.0
54.121	4.0
54.136	5.0
54.151	4.0
54.166	6.0
54.181	6.0
54.197	1.0
54.212	2.0
54.227	4.0
54.242	2.0
54.257	2.0
54.272	6.0
54.288	4.0
54.303	3.0
54.318	7.0
54.333	3.0
54.348	7.0
54.363	7.0
54.379	4.0
54.394	4.0
54.409	4.0
54.424	4.0
54.439	10.0
54.454	2.0
54.47	7.0
54.485	12.0
54.5	5.0
54.515	9.0
54.53	8.0
54.545	4.0
54.561	12.0
54.576	8.0
54.591	9.0
54.606	12.0
54.621	11.0
54.636	13.0
54.652	16.0
54.667	17.0
54.682	11.0
54.697	11.0
54.712	8.0
54.727	10.0
54.743	18.0
54.758	6.0
54.773	8.0
54.788	9.0
54.803	1.0
54.819	8.0
54.834	10.0
54.849	7.0
54.864	7.0
54.879	11.0
54.894	6.0
54.91	6.0
54.925	5.0
54.94	3.0
54.955	6.0
54.97	11.0
54.985	8.0
55.001	9.0
55.016	13.0
55.031	10.0
55.046	7.0
55.061	3.0
55.077	7.0
55.092	5.0
55.107	8.0
55.122	7.0
55.137	5.0
55.152	9.0
55.168	4.0
55.183	4.0
55.198	6.0
55.213	3.0
55.228	7.0
55.243	7.0
55.259	5.0
55.274	4.0
55.289	3.0
55.304	5.0
55.319	6.0
55.335	2.0
55.35	5.0
55.365	2.0
55.38	2.0
55.395	6.0
55.41	0.0
55.426	6.0
55.441	5.0
55.456	6.0
55.471	6.0
55.486	5.0
55.501	5.0
55.517	3.0
55.532	4.0
55.547	4.0
55.562	2.0
55.577	6.0
55.592	6.0
55.608	3.0
55.623	9.0
55.638	3.0
55.653	8.0
55.668	8.0
55.683	10.0
55.699	9.0
55.714	9.0
55.729	5.0
55.744	11.0
55.759	0.0
55.774	5.0
55.79	3.0
55.805	5.0
55.82	3.0
55.835	3.0
55.85	4.0
55.865	3.0
55.881	5.0
55.896	5.0
55.911	4.0
55.926	1.0
55.941	3.0
55.956	7.0
55.972	10.0
55.987	7.0
56.002	3.0
56.017	5.0
56.032	3.0
56.047	14.0
56.063	2.0
56.078	6.0
56.093	6.0
56.108	6.0
56.123	5.0
56.138	3.0
56.154	4.0
56.169	4.0
56.184	5.0
56.199	4.0
56.214	4.0
56.229	3.0
56.244	4.0
56.26	4.0
56.275	4.0
56.29	4.0
56.305	4.0
56.32	4.0
56.335	7.0
56.351	4.0
56.366	5.0
56.381	5.0
56.396	2.0
56.411	3.0
56.426	5.0
56.441	1.0
56.457	8.0
56.472	7.0
56.487	5.0
56.502	7.0
56.517	3.0
56.532	3.0
56.547	1.0
56.563	6.0
56.578	3.0
56.593	1.0
56.608	4.0
56.623	4.0
56.638	3.0
56.653	4.0
56.668	6.0
56.684	5.0
56.699	6.0
56.714	2.0
56.729	5.0
56.744	7.0
56.759	1.0
56.774	6.0
56.79	7.0
56.805	1.0
56.82	5.0
56.835	5.0
56.85	6.0
56.865	3.0
56.88	5.0
56.895	4.0
56.911	4.0
56.926	3.0
56.941	4.0
56.956	2.0
56.971	8.0
56.986	7.0
57.001	2.0
57.016	6.0
57.031	1.0
57.047	1.0
57.062	1.0
57.077	3.0
57.092	2.0
57.107	5.0
57.122	2.0
57.137	3.0
57.152	5.0
57.167	1.0
57.183	6.0
57.198	5.0
57.213	1.0
57.228	5.0
57.243	5.0
57.258	2.0
57.273	2.0
57.288	3.0
57.303	5.0
57.318	2.0
57.334	3.0
57.349	3.0
57.364	6.0
57.379	7.0
57.394	5.0
57.409	3.0
57.424	3.0
57.439	5.0
57.454	2.0
57.469	2.0
57.484	8.0
57.5	6.0
57.515	3.0
57.53	4.0
57.545	2.0
57.56	4.0
57.575	3.0
57.59	6.0
57.605	5.0
57.62	8.0
57.635	9.0
57.65	8.0
57.665	4.0
57.68	10.0
57.696	3.0
57.711	5.0
57.726	5.0
57.741	4.0
57.756	4.0
57.771	5.0
57.786	3.0
57.801	5.0
57.816	5.0
57.831	2.0
57.846	6.0
57.861	2.0
57.876	2.0
57.891	2.0
57.906	4.0
57.921	2.0
57.937	3.0
57.952	7.0
57.967	9.0
57.982	9.0
57.997	4.0
58.012	7.0
58.027	5.0
58.042	3.0
58.057	5.0
58.072	2.0
58.087	5.0
58.102	6.0
58.117	7.0
58.132	5.0
58.147	2.0
58.162	2.0
58.177	3.0
58.192	2.0
58.207	2.0
58.222	4.0
58.237	9.0
58.252	5.0
58.267	3.0
58.282	1.0
58.297	8.0
58.312	2.0
58.327	5.0
58.342	4.0
58.357	6.0
58.372	4.0
58.387	5.0
58.402	5.0
58.418	7.0
58.433	5.0
58.448	7.0
58.463	3.0
58.478	7.0
58.493	6.0
58.508	10.0
58.523	9.0
58.538	11.0
58.553	8.0
58.568	10.0
58.583	6.0
58.598	8.0
58.613	9.0
58.628	8.0
58.643	11.0
58.658	8.0
58.673	11.0
58.688	13.0
58.703	6.0
58.718	6.0
58.733	7.0
58.748	5.0
58.763	6.0
58.778	5.0
58.793	5.0
58.808	2.0
58.823	4.0
58.838	4.0
58.853	3.0
58.868	5.0
58.883	6.0
58.898	7.0
58.913	6.0
58.928	8.0
58.942	8.0
58.957	6.0
58.972	5.0
58.987	9.0
59.002	6.0
59.017	9.0
59.032	8.0
59.047	5.0
59.062	7.0
59.077	7.0
59.092	3.0
59.107	10.0
59.122	6.0
59.137	7.0
59.152	5.0
59.167	4.0
59.182	5.0
59.197	2.0
59.212	5.0
59.227	2.0
59.242	4.0
59.257	3.0
59.272	7.0
59.287	7.0
59.302	5.0
59.317	3.0
59.332	6.0
59.347	4.0
59.362	2.0
59.377	3.0
59.392	2.0
59.407	9.0
59.422	5.0
59.437	2.0
59.452	1.0
59.467	8.0
59.482	4.0
59.497	3.0
59.512	8.0
59.527	4.0
59.542	6.0
59.557	14.0
59.572	7.0
59.587	10.0
59.602	4.0
59.617	14.0
59.632	9.0
59.647	9.0
59.661	5.0
59.676	6.0
59.691	7.0
59.706	5.0
59.721	2.0
59.736	8.0
59.751	3.0
59.766	1.0
59.781	8.0
59.796	5.0
59.811	2.0
59.826	5.0
59.841	1.0
59.856	2.0
59.871	4.0
59.886	4.0
59.901	0.0
59.916	3.0
59.931	2.0
59.946	7.0
59.961	7.0
59.976	8.0
59.991	4.0
60.006	6.0
60.021	7.0
60.036	7.0
60.051	7.0
60.066	3.0
60.081	4.0
60.096	6.0
60.111	4.0
60.126	4.0
60.141	3.0
60.156	3.0
60.171	2.0
60.186	2.0
60.201	5.0
60.216	7.0
60.231	5.0
60.246	3.0
60.261	6.0
60.276	4.0
60.291	3.0
60.306	3.0
60.321	4.0
60.336	7.0
60.35	3.0
60.365	3.0
60.38	2.0
60.395	2.0
60.41	7.0
60.425	2.0
60.44	3.0
60.455	4.0
60.47	7.0
60.485	2.0
60.5	9.0
60.515	7.0
60.53	6.0
60.545	7.0
60.56	9.0
60.575	5.0
60.59	7.0
60.605	4.0
60.62	5.0
60.635	4.0
60.65	1.0
60.665	11.0
60.68	4.0
60.695	7.0
60.71	10.0
60.725	3.0
60.74	3.0
60.755	2.0
60.77	9.0
60.785	5.0
60.8	4.0
60.815	5.0
60.83	5.0
60.845	2.0
60.86	4.0
60.875	6.0
60.89	5.0
60.905	2.0
60.92	3.0
60.935	6.0
60.95	7.0
60.965	7.0
60.98	5.0
60.995	7.0
61.01	5.0
61.025	1.0
61.04	5.0
61.055	5.0
61.07	6.0
61.085	5.0
61.1	2.0
61.115	5.0
61.13	5.0
61.145	5.0
61.16	6.0
61.175	6.0
61.191	2.0
61.206	6.0
61.221	4.0
61.236	7.0
61.251	1.0
61.266	6.0
61.281	2.0
61.296	2.0
61.311	3.0
61.326	3.0
61.341	3.0
61.356	11.0
61.371	5.0
61.386	2.0
61.401	7.0
61.416	7.0
61.431	2.0
61.446	2.0
61.461	3.0
61.476	7.0
61.491	7.0
61.506	9.0
61.521	6.0
61.536	6.0
61.551	9.0
61.566	4.0
61.581	3.0
61.596	6.0
61.611	2.0
61.626	4.0
61.641	6.0
61.656	5.0
61.672	3.0
61.687	4.0
61.702	7.0
61.717	4.0
61.732	5.0
61.747	6.0
61.762	7.0
61.777	3.0
61.792	4.0
61.807	6.0
61.822	6.0
61.837	6.0
61.852	4.0
61.867	4.0
61.882	4.0
61.897	3.0
61.912	2.0
61.927	3.0
61.943	6.0
61.958	5.0
61.973	5.0
61.988	3.0
62.003	5.0
62.018	4.0
62.033	3.0
62.048	5.0
62.063	4.0
62.078	6.0
62.093	3.0
62.108	0.0
62.123	5.0
62.138	1.0
62.153	3.0
62.169	5.0
62.184	5.0
62.199	3.0
62.214	3.0
62.229	2.0
62.244	4.0
62.259	4.0
62.274	3.0
62.289	1.0
62.304	3.0
62.319	3.0
62.335	5.0
62.35	8.0
62.365	6.0
62.38	10.0
62.395	4.0
62.41	3.0
62.425	4.0
62.44	4.0
62.455	6.0
62.47	5.0
62.485	5.0
62.501	4.0
62.516	10.0
62.531	5.0
62.546	5.0
62.561	0.0
62.576	5.0
62.591	1.0
62.606	3.0
62.621	5.0
62.636	4.0
62.652	6.0
62.667	3.0
62.682	3.0
62.697	5.0
62.712	3.0
62.727	7.0
62.742	5.0
62.757	4.0
62.772	4.0
62.787	2.0
62.803	5.0
62.818	4.0
62.833	4.0
62.848	8.0
62.863	2.0
62.878	3.0
62.893	8.0
62.908	3.0
62.923	3.0
62.939	5.0
62.954	6.0
62.969	2.0
62.984	6.0
62.999	0.0
63.014	1.0
63.029	4.0
63.044	8.0
63.059	4.0
63.074	1.0
63.09	2.0
63.105	4.0
63.12	1.0
63.135	1.0
63.15	2.0
63.165	2.0
63.18	2.0
63.195	3.0
63.21	4.0
63.226	4.0
63.241	1.0
63.256	3.0
63.271	4.0
63.286	3.0
63.301	6.0
63.316	9.0
63.331	6.0
63.346	9.0
63.362	10.0
63.377	7.0
63.392	6.0
63.407	4.0
63.422	6.0
63.437	9.0
63.452	8.0
63.467	3.0
63.482	5.0
63.497	9.0
63.513	7.0
63.528	5.0
63.543	4.0
63.558	4.0
63.573	4.0
63.588	2.0
63.603	3.0
63.618	6.0
63.633	1.0
63.648	7.0
63.664	4.0
63.679	3.0
63.694	3.0
63.709	2.0
63.724	2.0
63.739	2.0
63.754	3.0
63.769	5.0
63.784	5.0
63.799	5.0
63.814	10.0
63.83	5.0
63.845	7.0
63.86	2.0
63.875	4.0
63.89	5.0
63.905	5.0
63.92	3.0
63.935	6.0
63.95	3.0
63.965	2.0
63.98	8.0
63.996	4.0
64.011	1.0
64.026	2.0
64.041	1.0
64.056	3.0
64.071	2.0
64.086	2.0
64.101	6.0
64.116	3.0
64.131	3.0
64.146	2.0
64.161	1.0
64.176	3.0
64.191	4.0
64.207	4.0
64.222	3.0
64.237	5.0
64.252	1.0
64.267	7.0
64.282	2.0
64.297	5.0
64.312	4.0
64.327	4.0
64.342	3.0
64.357	2.0
64.372	2.0
64.387	3.0
64.402	1.0
64.417	3.0
64.433	6.0
64.448	1.0
64.463	7.0
64.478	5.0
64.493	4.0
64.508	2.0
64.523	4.0
64.538	2.0
64.553	2.0
64.568	3.0
64.583	3.0
64.598	1.0
64.613	3.0
64.628	7.0
64.643	4.0
64.658	1.0
64.673	5.0
64.688	6.0
64.703	1.0
64.718	3.0
64.734	1.0
64.749	7.0
64.764	2.0
64.779	6.0
64.794	3.0
64.809	3.0
64.824	3.0
64.839	3.0
64.854	6.0
64.869	3.0
64.884	6.0
64.899	2.0
64.914	5.0
64.929	4.0
64.944	3.0
64.959	3.0
64.974	1.0
64.989	4.0
65.004	1.0
65.019	3.0
65.034	5.0
65.049	1.0
65.064	4.0
65.079	3.0
65.094	1.0
65.109	6.0
65.125	5.0
65.14	5.0
65.155	4.0
65.17	3.0
65.185	4.0
65.2	8.0
65.215	4.0
65.23	4.0
65.245	6.0
65.26	1.0
65.275	6.0
65.29	4.0
65.305	7.0
65.32	7.0
65.335	5.0
65.35	2.0
65.365	3.0
65.38	4.0
65.395	6.0
65.41	2.0
65.425	3.0
65.44	5.0
65.455	5.0
65.47	2.0
65.485	4.0
65.5	1.0
65.515	2.0
65.53	6.0
65.545	1.0
65.56	3.0
65.575	5.0
65.59	1.0
65.605	2.0
65.62	5.0
65.635	8.0
65.65	3.0
65.666	3.0
65.681	4.0
65.696	4.0
65.711	5.0
65.726	6.0
65.741	7.0
65.756	3.0
65.771	2.0
65.786	1.0
65.801	6.0
65.816	2.0
65.831	2.0
65.846	2.0
65.861	1.0
65.876	1.0
65.891	5.0
65.906	6.0
65.921	2.0
65.936	1.0
65.951	3.0
65.966	0.0
65.981	2.0
65.996	3.0
66.011	1.0
66.026	3.0
66.041	4.0
66.056	2.0
66.071	6.0
66.086	3.0
66.101	4.0
66.116	12.0
66.131	4.0
66.146	9.0
66.161	4.0
66.176	6.0
66.191	5.0
66.206	10.0
66.221	3.0
66.236	8.0
66.251	8.0
66.266	4.0
66.281	3.0
66.296	6.0
66.311	3.0
66.327	5.0
66.342	3.0
66.357	7.0
66.372	10.0
66.387	3.0
66.402	2.0
66.417	5.0
66.432	3.0
66.447	2.0
66.462	8.0
66.477	1.0
66.492	4.0
66.507	3.0
66.522	3.0
66.537	5.0
66.552	6.0
66.567	6.0
66.582	9.0
66.597	3.0
66.612	5.0
66.627	6.0
66.642	7.0
66.657	4.0
66.672	4.0
66.687	7.0
66.702	5.0
66.717	5.0
66.732	1.0
66.747	6.0
66.762	4.0
66.777	3.0
66.792	5.0
66.807	3.0
66.822	4.0
66.837	1.0
66.853	3.0
66.868	6.0
66.883	2.0
66.898	6.0
66.913	5.0
66.928	1.0
66.943	7.0
66.958	1.0
66.973	2.0
66.988	2.0
67.003	4.0
67.018	6.0
67.033	5.0
67.048	10.0
67.063	3.0
67.078	4.0
67.093	5.0
67.108	4.0
67.123	3.0
67.138	5.0
67.153	7.0
67.168	4.0
67.183	7.0
67.198	1.0
67.214	3.0
67.229	4.0
67.244	1.0
67.259	1.0
67.274	2.0
67.289	2.0
67.304	2.0
67.319	3.0
67.334	6.0
67.349	1.0
67.364	2.0
67.379	2.0
67.394	5.0
67.409	4.0
67.424	2.0
67.439	6.0
67.454	2.0
67.469	6.0
67.484	3.0
67.5	7.0
67.515	3.0
67.53	4.0
67.545	6.0
67.56	6.0
67.575	2.0
67.59	6.0
67.605	0.0
67.62	6.0
67.635	5.0
67.65	3.0
67.665	6.0
67.68	2.0
67.695	5.0
67.71	1.0
67.726	3.0
67.741	2.0
67.756	4.0
67.771	5.0
67.786	5.0
67.801	7.0
67.816	4.0
67.831	5.0
67.846	3.0
67.861	7.0
67.876	1.0
67.891	7.0
67.906	5.0
67.922	5.0
67.937	3.0
67.952	4.0
67.967	6.0
67.982	2.0
67.997	0.0
68.012	3.0
68.027	6.0
68.042	4.0
68.057	4.0
68.072	4.0
68.087	3.0
68.103	7.0
68.118	2.0
68.133	1.0
68.148	5.0
68.163	2.0
68.178	5.0
68.193	4.0
68.208	2.0
68.223	4.0
68.238	3.0
68.254	5.0
68.269	4.0
68.284	2.0
68.299	3.0
68.314	5.0
68.329	4.0
68.344	3.0
68.359	5.0
68.374	3.0
68.389	3.0
68.405	3.0
68.42	5.0
68.435	7.0
68.45	3.0
68.465	2.0
68.48	0.0
68.495	1.0
68.51	8.0
68.525	5.0
68.54	7.0
68.556	4.0
68.571	5.0
68.586	5.0
68.601	7.0
68.616	3.0
68.631	4.0
68.646	4.0
68.661	7.0
68.676	5.0
68.691	8.0
68.707	5.0
68.722	3.0
68.737	8.0
68.752	3.0
68.767	4.0
68.782	3.0
68.797	3.0
68.812	4.0
68.827	5.0
68.842	3.0
68.857	5.0
68.873	3.0
68.888	1.0
68.903	5.0
68.918	0.0
68.933	1.0
68.948	3.0
68.963	3.0
68.978	6.0
68.993	5.0
69.008	3.0
69.023	3.0
69.038	1.0
69.054	5.0
69.069	5.0
69.084	3.0
69.099	4.0
69.114	4.0
69.129	2.0
69.144	5.0
69.159	6.0
69.174	3.0
69.189	6.0
69.204	1.0
69.219	3.0
69.234	4.0
69.249	5.0
69.264	4.0
69.279	1.0
69.295	1.0
69.31	1.0
69.325	3.0
69.34	3.0
69.355	4.0
69.37	5.0
69.385	5.0
69.4	1.0
69.415	3.0
69.43	9.0
69.445	12.0
69.46	1.0
69.475	1.0
69.49	1.0
69.505	1.0
69.52	1.0
69.535	0.0
69.55	4.0
69.565	4.0
69.58	5.0
69.595	3.0
69.61	2.0
69.625	5.0
69.64	2.0
69.655	3.0
69.67	4.0
69.685	3.0
69.7	4.0
69.715	4.0
69.73	5.0
69.745	10.0
69.76	7.0
69.775	11.0
69.79	6.0
69.805	5.0
69.82	7.0
69.835	7.0
69.85	4.0
69.865	11.0
69.88	3.0
69.895	3.0
69.909	7.0
69.924	8.0
69.939	2.0
69.954	7.0
69.969	4.0
69.984	3.0
69.999	4.0
70.014	7.0
70.029	5.0
70.044	3.0
70.059	4.0
70.074	6.0
70.088	5.0
70.103	3.0
70.118	1.0
70.133	5.0
70.148	2.0
70.163	2.0
70.178	4.0
70.193	6.0
70.208	3.0
70.222	3.0
70.237	4.0
70.252	3.0
70.267	5.0
70.282	7.0
70.297	2.0
70.312	4.0
70.327	4.0
70.341	3.0
70.356	8.0
70.371	2.0
70.386	2.0
70.401	3.0
70.416	1.0
70.43	1.0
70.445	4.0
70.46	2.0
70.475	7.0
70.49	3.0
70.505	5.0
70.519	3.0
70.534	5.0
70.549	3.0
70.564	5.0
70.579	5.0
70.594	5.0
70.608	3.0
70.623	4.0
70.638	6.0
70.653	2.0
70.668	2.0
70.683	3.0
70.697	6.0
70.712	7.0
70.727	7.0
70.742	4.0
70.757	5.0
70.771	2.0
70.786	2.0
70.801	5.0
70.816	2.0
70.831	3.0
70.845	4.0
70.86	2.0
70.875	5.0
70.89	1.0
70.905	3.0
70.92	2.0
70.934	4.0
70.949	5.0
70.964	4.0
70.979	10.0
70.994	3.0
71.008	4.0
71.023	3.0
71.038	4.0
71.053	7.0
71.068	3.0
71.082	3.0
71.097	4.0
71.112	5.0
71.127	5.0
71.142	6.0
71.156	5.0
71.171	6.0
71.186	5.0
71.201	3.0
71.216	3.0
71.231	2.0
71.245	3.0
71.26	4.0
71.275	4.0
71.29	2.0
71.305	3.0
71.319	5.0
71.334	5.0
71.349	0.0
71.364	1.0
71.379	3.0
71.394	3.0
71.408	4.0
71.423	0.0
71.438	3.0
71.453	4.0
71.468	2.0
71.483	3.0
71.497	4.0
71.512	5.0
71.527	1.0
71.542	3.0
71.557	2.0
71.572	3.0
71.586	3.0
71.601	2.0
71.616	2.0
71.631	2.0
71.646	3.0
71.661	7.0
71.676	7.0
71.69	3.0
71.705	2.0
71.72	3.0
71.735	4.0
71.75	4.0
71.765	5.0
71.78	4.0
71.795	6.0
71.81	4.0
71.824	4.0
71.839	3.0
71.854	4.0
71.869	6.0
71.884	5.0
71.899	3.0
71.914	2.0
71.929	4.0
71.944	2.0
71.959	7.0
71.974	5.0
71.988	3.0
72.003	4.0
72.018	2.0
72.033	4.0
72.048	1.0
72.063	1.0
72.078	5.0
72.093	1.0
72.108	4.0
72.123	2.0
72.138	4.0
72.153	0.0
72.168	2.0
72.183	1.0
72.198	3.0
72.213	3.0
72.228	3.0
72.243	1.0
72.258	4.0
72.273	2.0
72.288	2.0
72.303	2.0
72.318	2.0
72.333	0.0
72.348	3.0
72.363	8.0
72.378	1.0
72.393	3.0
72.408	4.0
72.423	4.0
72.438	2.0
72.453	7.0
72.468	4.0
72.483	0.0
72.498	0.0
72.513	1.0
72.528	3.0
72.543	0.0
72.558	3.0
72.573	4.0
72.588	4.0
72.603	7.0
72.618	3.0
72.633	1.0
72.649	3.0
72.664	0.0
72.679	6.0
72.694	2.0
72.709	0.0
72.724	0.0
72.739	6.0
72.754	4.0
72.769	7.0
72.784	6.0
72.799	3.0
72.814	4.0
72.829	1.0
72.845	1.0
72.86	3.0
72.875	5.0
72.89	6.0
72.905	1.0
72.92	1.0
72.935	5.0
72.95	3.0
72.965	2.0
72.98	4.0
72.996	4.0
73.011	2.0
73.026	4.0
73.041	4.0
73.056	2.0
73.071	3.0
73.086	4.0
73.101	8.0
73.117	2.0
73.132	4.0
73.147	2.0
73.162	1.0
73.177	7.0
73.192	4.0
73.207	3.0
73.222	2.0
73.238	6.0
73.253	5.0
73.268	0.0
73.283	3.0
73.298	4.0
73.313	6.0
73.328	5.0
73.343	6.0
73.359	7.0
73.374	4.0
73.389	5.0
73.404	2.0
73.419	8.0
73.434	2.0
73.449	3.0
73.465	4.0
73.48	3.0
73.495	3.0
73.51	5.0
73.525	5.0
73.54	1.0
73.556	3.0
73.571	5.0
73.586	0.0
73.601	2.0
73.616	6.0
73.631	3.0
73.646	3.0
73.662	2.0
73.677	2.0
73.692	2.0
73.707	2.0
73.722	2.0
73.737	7.0
73.752	1.0
73.768	3.0
73.783	3.0
73.798	3.0
73.813	6.0
73.828	4.0
73.843	5.0
73.859	4.0
73.874	3.0
73.889	2.0
73.904	1.0
73.919	2.0
73.934	1.0
73.949	4.0
73.965	1.0
73.98	4.0
73.995	3.0
74.01	6.0
74.025	3.0
74.04	2.0
74.056	5.0
74.071	5.0
74.086	1.0
74.101	3.0
74.116	4.0
74.131	3.0
74.146	3.0
74.162	7.0
74.177	7.0
74.192	9.0
74.207	6.0
74.222	7.0
74.237	6.0
74.252	8.0
74.268	4.0
74.283	3.0
74.298	2.0
74.313	2.0
74.328	5.0
74.343	4.0
74.358	3.0
74.374	2.0
74.389	2.0
74.404	3.0
74.419	3.0
74.434	5.0
74.449	6.0
74.464	2.0
74.48	2.0
74.495	1.0
74.51	3.0
74.525	4.0
74.54	3.0
74.555	5.0
74.57	3.0
74.586	1.0
74.601	5.0
74.616	2.0
74.631	6.0
74.646	6.0
74.661	4.0
74.676	0.0
74.691	3.0
74.707	1.0
74.722	8.0
74.737	3.0
74.752	5.0
74.767	5.0
74.782	2.0
74.797	4.0
74.813	4.0
74.828	4.0
74.843	3.0
74.858	0.0
74.873	2.0
74.888	3.0
74.903	3.0
74.918	5.0
74.934	4.0
74.949	6.0
74.964	3.0
74.979	3.0
74.994	5.0
75.009	0.0
75.024	3.0
75.04	6.0
75.055	4.0
75.07	10.0
75.085	6.0
75.1	4.0
75.115	4.0
75.13	9.0
75.145	4.0
75.161	3.0
75.176	3.0
75.191	2.0
75.206	3.0
75.221	3.0
75.236	2.0
75.251	3.0
75.266	3.0
75.282	3.0
75.297	5.0
75.312	0.0
75.327	3.0
75.342	4.0
75.357	6.0
75.372	2.0
75.387	1.0
75.403	2.0
75.418	1.0
75.433	4.0
75.448	4.0
75.463	4.0
75.478	3.0
75.493	6.0
75.509	5.0
75.524	4.0
75.539	8.0
75.554	3.0
75.569	7.0
75.584	6.0
75.599	6.0
75.614	4.0
75.63	2.0
75.645	3.0
75.66	1.0
75.675	4.0
75.69	2.0
75.705	4.0
75.72	3.0
75.735	5.0
75.751	3.0
75.766	3.0
75.781	3.0
75.796	1.0
75.811	3.0
75.826	2.0
75.841	4.0
75.856	2.0
75.872	1.0
75.887	8.0
75.902	4.0
75.917	3.0
75.932	1.0
75.947	6.0
75.962	5.0
75.977	3.0
75.993	5.0
76.008	0.0
76.023	1.0
76.038	7.0
76.053	3.0
76.068	5.0
76.083	2.0
76.098	2.0
76.114	1.0
76.129	2.0
76.144	3.0
76.159	4.0
76.174	7.0
76.189	1.0
76.204	2.0
76.22	4.0
76.235	7.0
76.25	6.0
76.265	2.0
76.28	1.0
76.295	3.0
76.31	2.0
76.325	5.0
76.341	3.0
76.356	5.0
76.371	1.0
76.386	4.0
76.401	3.0
76.416	2.0
76.431	1.0
76.446	1.0
76.462	3.0
76.477	3.0
76.492	2.0
76.507	4.0
76.522	1.0
76.537	0.0
76.552	5.0
76.567	7.0
76.583	1.0
76.598	2.0
76.613	3.0
76.628	5.0
76.643	5.0
76.658	3.0
76.673	0.0
76.688	7.0
76.704	3.0
76.719	8.0
76.734	7.0
76.749	8.0
76.764	5.0
76.779	6.0
76.794	7.0
76.809	7.0
76.824	15.0
76.84	4.0
76.855	4.0
76.87	4.0
76.885	3.0
76.9	1.0
76.915	2.0
76.93	4.0
76.945	4.0
76.96	1.0
76.976	5.0
76.991	2.0
77.006	2.0
77.021	0.0
77.036	3.0
77.051	1.0
77.066	1.0
77.081	3.0
77.096	3.0
77.112	6.0
77.127	3.0
77.142	5.0
77.157	1.0
77.172	0.0
77.187	3.0
77.202	4.0
77.217	4.0
77.232	5.0
77.247	1.0
77.263	1.0
77.278	8.0
77.293	2.0
77.308	6.0
77.323	5.0
77.338	4.0
77.353	6.0
77.368	6.0
77.383	4.0
77.398	1.0
77.413	5.0
77.428	4.0
77.444	3.0
77.459	5.0
77.474	4.0
77.489	1.0
77.504	1.0
77.519	1.0
77.534	6.0
77.549	2.0
77.564	6.0
77.579	5.0
77.594	2.0
77.609	8.0
77.624	3.0
77.64	2.0
77.655	5.0
77.67	4.0
77.685	5.0
77.7	5.0
77.715	3.0
77.73	3.0
77.745	3.0
77.76	0.0
77.775	5.0
77.79	2.0
77.805	3.0
77.82	0.0
77.835	3.0
77.85	3.0
77.865	1.0
77.88	2.0
77.895	4.0
77.91	3.0
77.926	2.0
77.941	0.0
77.956	2.0
77.971	2.0
77.986	0.0
78.001	2.0
78.016	6.0
78.031	2.0
78.046	0.0
78.061	5.0
78.076	3.0
78.091	0.0
78.106	3.0
78.121	0.0
78.136	5.0
78.151	3.0
78.166	7.0
78.181	4.0
78.196	6.0
78.211	5.0
78.226	2.0
78.241	2.0
78.256	1.0
78.271	4.0
78.286	1.0
78.301	8.0
78.316	2.0
78.331	2.0
78.346	4.0
78.361	5.0
78.376	7.0
78.391	1.0
78.406	1.0
78.421	2.0
78.436	2.0
78.451	2.0
78.466	1.0
78.481	3.0
78.496	2.0
78.511	3.0
78.526	1.0
78.541	2.0
78.556	4.0
78.571	2.0
78.586	9.0
78.601	3.0
78.616	2.0
78.631	4.0
78.646	1.0
78.661	4.0
78.676	5.0
78.691	4.0
78.706	3.0
78.721	1.0
78.736	4.0
78.751	4.0
78.766	1.0
78.781	2.0
78.796	3.0
78.811	1.0
78.826	1.0
78.841	3.0
78.856	1.0
78.871	3.0
78.885	2.0
78.9	7.0
78.915	1.0
78.93	3.0
78.945	3.0
78.96	3.0
78.975	1.0
78.99	6.0
79.005	4.0
79.02	4.0
79.035	0.0
79.05	2.0
79.065	4.0
79.08	4.0
79.095	4.0
79.11	3.0
79.125	2.0
79.14	5.0
79.155	3.0
79.17	3.0
79.185	3.0
79.2	2.0
79.215	1.0
79.23	0.0
79.245	0.0
79.26	3.0
79.275	2.0
79.29	5.0
79.304	3.0
79.319	2.0
79.334	4.0
79.349	1.0
79.364	6.0
79.379	4.0
79.394	3.0
79.409	7.0
79.424	3.0
79.439	3.0
79.454	2.0
79.469	0.0
79.484	4.0
79.499	3.0
79.514	3.0
79.529	3.0
79.544	3.0
79.559	3.0
79.574	1.0
79.589	2.0
79.604	5.0
79.619	3.0
79.634	2.0
79.649	3.0
79.664	1.0
79.679	2.0
79.693	4.0
79.708	1.0
79.723	2.0
79.738	7.0
79.753	2.0
79.768	1.0
79.783	2.0
79.798	4.0
79.813	6.0
79.828	1.0
79.843	3.0
79.858	3.0
79.873	3.0
79.888	5.0
79.903	5.0
79.918	5.0
79.933	1.0
79.948	5.0
79.963	5.0
79.978	2.0
79.993	4.0
80.008	4.0
80.023	5.0
80.038	2.0
80.053	3.0
80.068	2.0
80.083	5.0
80.098	2.0
80.113	8.0
80.128	4.0
80.143	4.0
80.158	2.0
80.173	2.0
80.188	2.0
80.202	4.0
80.217	2.0
80.232	6.0
80.247	5.0
80.262	1.0
80.277	7.0
80.292	6.0
80.307	0.0
80.322	6.0
80.337	1.0
80.352	3.0
80.367	1.0
80.382	3.0
80.397	2.0
80.412	5.0
80.427	2.0
80.442	0.0
80.457	1.0
80.472	4.0
80.487	5.0
80.502	1.0
80.517	5.0
80.532	2.0
80.547	1.0
80.562	2.0
80.577	3.0
80.592	2.0
80.607	1.0
80.622	2.0
80.637	4.0
80.652	5.0
80.667	6.0
80.682	1.0
80.697	2.0
80.712	2.0
80.727	3.0
80.742	2.0
80.757	5.0
80.772	3.0
80.787	6.0
80.802	1.0
80.817	4.0
80.832	3.0
80.847	2.0
80.862	3.0
80.877	1.0
80.892	6.0
80.907	2.0
80.922	5.0
80.937	2.0
80.952	6.0
80.967	4.0
80.982	3.0
80.997	4.0
81.012	5.0
81.027	6.0
81.042	5.0
81.057	5.0
81.072	4.0
81.087	2.0
81.101	6.0
81.116	3.0
81.131	2.0
81.146	3.0
81.161	6.0
81.176	5.0
81.191	2.0
81.206	5.0
81.221	3.0
81.236	3.0
81.251	3.0
81.266	2.0
81.281	3.0
81.296	0.0
81.311	1.0
81.326	1.0
81.341	2.0
81.356	2.0
81.371	3.0
81.386	1.0
81.401	2.0
81.416	3.0
81.431	3.0
81.446	2.0
81.461	5.0
81.476	4.0
81.491	2.0
81.506	4.0
81.521	1.0
81.536	2.0
81.55	4.0
81.565	6.0
81.58	2.0
81.595	8.0
81.61	4.0
81.625	2.0
81.64	1.0
81.655	4.0
81.67	4.0
81.685	2.0
81.7	4.0
81.715	3.0
81.73	3.0
81.745	3.0
81.76	3.0
81.775	3.0
81.79	4.0
81.805	4.0
81.819	2.0
81.834	1.0
81.849	6.0
81.864	1.0
81.879	5.0
81.894	1.0
81.909	7.0
81.924	2.0
81.939	1.0
81.954	3.0
81.969	1.0
81.984	4.0
81.999	4.0
82.013	3.0
82.028	3.0
82.043	2.0
82.058	6.0
82.073	3.0
82.088	2.0
82.103	2.0
82.118	4.0
82.133	3.0
82.148	4.0
82.163	5.0
82.177	2.0
82.192	1.0
82.207	1.0
82.222	2.0
82.237	1.0
82.252	4.0
82.267	5.0
82.282	0.0
82.297	2.0
82.312	3.0
82.326	2.0
82.341	2.0
82.356	4.0
82.371	0.0
82.386	1.0
82.401	3.0
82.416	5.0
82.431	8.0
82.445	7.0
82.46	3.0
82.475	3.0
82.49	3.0
82.505	1.0
82.52	3.0
82.535	3.0
82.55	3.0
82.565	1.0
82.579	4.0
82.594	2.0
82.609	1.0
82.624	1.0
82.639	3.0
82.654	5.0
82.669	1.0
82.684	4.0
82.698	3.0
82.713	1.0
82.728	2.0
82.743	4.0
82.758	4.0
82.773	1.0
82.788	4.0
82.803	5.0
82.817	4.0
82.832	1.0
82.847	2.0
82.862	6.0
82.877	0.0
82.892	6.0
82.907	6.0
82.922	3.0
82.937	3.0
82.951	6.0
82.966	1.0
82.981	2.0
82.996	1.0
83.011	4.0
83.026	6.0
83.041	1.0
83.056	2.0
83.07	2.0
83.085	4.0
83.1	1.0
83.115	1.0
83.13	6.0
83.145	6.0
83.16	2.0
83.175	4.0
83.19	0.0
83.204	1.0
83.219	3.0
83.234	1.0
83.249	1.0
83.264	2.0
83.279	2.0
83.294	3.0
83.309	3.0
83.324	1.0
83.339	2.0
83.353	1.0
83.368	6.0
83.383	2.0
83.398	4.0
83.413	3.0
83.428	6.0
83.443	3.0
83.458	4.0
83.473	2.0
83.488	5.0
83.503	3.0
83.517	2.0
83.532	3.0
83.547	6.0
83.562	1.0
83.577	5.0
83.592	1.0
83.607	6.0
83.622	5.0
83.637	3.0
83.652	3.0
83.667	0.0
83.682	3.0
83.697	3.0
83.712	4.0
83.727	4.0
83.741	5.0
83.756	5.0
83.771	4.0
83.786	4.0
83.801	1.0
83.816	3.0
83.831	2.0
83.846	2.0
83.861	5.0
83.876	2.0
83.891	7.0
83.906	4.0
83.921	2.0
83.936	5.0
83.951	2.0
83.966	5.0
83.981	0.0
83.996	0.0
84.011	2.0
84.026	2.0
84.041	6.0
84.056	3.0
84.071	3.0
84.086	4.0
84.101	8.0
84.116	5.0
84.131	3.0
84.146	6.0
84.161	1.0
84.176	1.0
84.191	2.0
84.206	5.0
84.221	4.0
84.236	5.0
84.251	3.0
84.266	1.0
84.281	2.0
84.296	5.0
84.311	1.0
84.326	7.0
84.341	5.0
84.356	4.0
84.371	7.0
84.386	7.0
84.401	3.0
84.416	0.0
84.431	5.0
84.446	4.0
84.461	2.0
84.476	2.0
84.492	0.0
84.507	1.0
84.522	1.0
84.537	6.0
84.552	1.0
84.567	2.0
84.582	0.0
84.597	0.0
84.612	3.0
84.627	3.0
84.642	2.0
84.657	4.0
84.672	3.0
84.687	2.0
84.702	2.0
84.717	0.0
84.733	4.0
84.748	1.0
84.763	1.0
84.778	3.0
84.793	1.0
84.808	1.0
84.823	7.0
84.838	3.0
84.853	2.0
84.868	4.0
84.883	8.0
84.898	2.0
84.913	3.0
84.929	4.0
84.944	2.0
84.959	3.0
84.974	3.0
84.989	1.0
85.004	3.0
85.019	4.0
85.034	3.0
85.049	6.0
85.064	4.0
85.079	0.0
85.094	1.0
85.11	3.0
85.125	5.0
85.14	2.0
85.155	0.0
85.17	3.0
85.185	1.0
85.2	3.0
85.215	4.0
85.23	3.0
85.245	3.0
85.26	3.0
85.276	8.0
85.291	6.0
85.306	4.0
85.321	3.0
85.336	1.0
85.351	4.0
85.366	3.0
85.381	1.0
85.396	2.0
85.411	4.0
85.426	4.0
85.441	3.0
85.457	2.0
85.472	0.0
85.487	2.0
85.502	3.0
85.517	0.0
85.532	3.0
85.547	4.0
85.562	7.0
85.577	1.0
85.592	3.0
85.607	5.0
85.622	1.0
85.637	1.0
85.653	0.0
85.668	4.0
85.683	1.0
85.698	4.0
85.713	0.0
85.728	1.0
85.743	5.0
85.758	2.0
85.773	3.0
85.788	4.0
85.803	3.0
85.818	2.0
85.833	3.0
85.848	2.0
85.863	4.0
85.879	3.0
85.894	0.0
85.909	1.0
85.924	4.0
85.939	0.0
85.954	1.0
85.969	1.0
85.984	4.0
85.999	3.0
86.014	3.0
86.029	4.0
86.044	4.0
86.059	2.0
86.074	6.0
86.089	0.0
86.104	2.0
86.119	4.0
86.134	1.0
86.149	5.0
86.164	6.0
86.179	4.0
86.194	3.0
86.209	1.0
86.224	4.0
86.239	3.0
86.254	1.0
86.269	2.0
86.284	3.0
86.299	1.0
86.314	3.0
86.33	2.0
86.345	5.0
86.36	1.0
86.375	6.0
86.39	2.0
86.405	4.0
86.42	1.0
86.435	1.0
86.45	3.0
86.465	3.0
86.48	2.0
86.495	4.0
86.51	5.0
86.525	3.0
86.54	1.0
86.555	4.0
86.57	1.0
86.585	1.0
86.6	5.0
86.615	2.0
86.63	4.0
86.645	5.0
86.659	2.0
86.674	4.0
86.689	3.0
86.704	4.0
86.719	3.0
86.734	3.0
86.749	3.0
86.764	3.0
86.779	1.0
86.794	2.0
86.809	2.0
86.824	5.0
86.839	3.0
86.854	4.0
86.869	7.0
86.884	5.0
86.899	4.0
86.914	3.0
86.929	1.0
86.944	2.0
86.959	1.0
86.974	7.0
86.989	5.0
87.004	2.0
87.019	4.0
87.034	1.0
87.049	3.0
87.064	1.0
87.079	6.0
87.094	4.0
87.109	0.0
87.124	1.0
87.139	1.0
87.154	2.0
87.169	3.0
87.184	2.0
87.199	5.0
87.214	0.0
87.229	0.0
87.244	3.0
87.259	2.0
87.274	3.0
87.289	2.0
87.304	2.0
87.319	3.0
87.334	1.0
87.349	5.0
87.364	1.0
87.379	2.0
87.394	1.0
87.409	2.0
87.424	3.0
87.438	2.0
87.453	1.0
87.468	6.0
87.483	3.0
87.498	2.0
87.513	3.0
87.528	2.0
87.543	7.0
87.558	4.0
87.573	5.0
87.588	2.0
87.603	2.0
87.618	2.0
87.633	4.0
87.648	1.0
87.663	3.0
87.678	2.0
87.693	4.0
87.708	3.0
87.723	6.0
87.738	3.0
87.753	0.0
87.768	5.0
87.783	4.0
87.798	2.0
87.813	2.0
87.828	3.0
87.843	3.0
87.858	1.0
87.873	5.0
87.888	1.0
87.903	3.0
87.918	3.0
87.933	5.0
87.948	1.0
87.963	4.0
87.978	4.0
87.993	1.0
88.008	5.0
88.023	2.0
88.038	2.0
88.053	3.0
88.068	7.0
88.083	3.0
88.098	1.0
88.113	3.0
88.128	0.0
88.143	1.0
88.158	0.0
88.174	3.0
88.189	1.0
88.204	4.0
88.219	2.0
88.234	8.0
88.249	6.0
88.264	8.0
88.279	2.0
88.294	2.0
88.309	1.0
88.324	6.0
88.339	1.0
88.354	1.0
88.369	1.0
88.384	5.0
88.399	5.0
88.414	4.0
88.429	2.0
88.444	4.0
88.459	4.0
88.474	2.0
88.489	7.0
88.504	3.0
88.519	2.0
88.534	3.0
88.549	3.0
88.564	2.0
88.58	2.0
88.595	1.0
88.61	6.0
88.625	1.0
88.64	4.0
88.655	3.0
88.67	1.0
88.685	1.0
88.7	3.0
88.715	0.0
88.73	2.0
88.745	2.0
88.76	2.0
88.775	1.0
88.79	1.0
88.805	3.0
88.82	3.0
88.835	1.0
88.85	6.0
88.865	4.0
88.88	2.0
88.895	2.0
88.911	1.0
88.926	5.0
88.941	4.0
88.956	3.0
88.971	2.0
88.986	3.0
89.001	2.0
89.016	1.0
89.031	2.0
89.046	1.0
89.061	1.0
89.076	4.0
89.091	2.0
89.106	3.0
89.121	4.0
89.136	1.0
89.151	1.0
89.166	4.0
89.181	4.0
89.196	2.0
89.211	0.0
89.227	3.0
89.242	3.0
89.257	5.0
89.272	1.0
89.287	2.0
89.302	4.0
89.317	6.0
89.332	7.0
89.347	3.0
89.362	4.0
89.377	2.0
89.392	2.0
89.407	1.0
89.422	5.0
89.437	3.0
89.452	5.0
89.467	3.0
89.482	4.0
89.497	1.0
89.512	6.0
89.527	2.0
89.542	2.0
89.557	5.0
89.572	3.0
89.587	5.0
89.602	4.0
89.617	3.0
89.632	4.0
89.647	2.0
89.662	4.0
89.677	3.0
89.693	3.0
89.708	3.0
89.723	2.0
89.738	1.0
89.753	2.0
89.768	3.0
89.783	4.0
89.798	3.0
89.813	2.0
89.828	4.0
89.843	1.0
89.858	5.0
89.873	2.0
89.888	4.0
89.903	4.0
89.918	4.0
89.933	3.0
89.948	1.0
89.963	3.0
89.978	2.0
89.993	1.0
90.008	2.0
90.023	2.0
90.038	0.0
90.053	3.0
90.068	5.0
90.083	0.0
90.097	5.0
90.112	4.0
90.127	3.0
90.142	8.0
90.157	4.0
90.172	5.0
90.187	4.0
90.202	5.0
90.217	3.0
90.232	8.0
90.247	2.0
90.262	3.0
90.277	7.0
90.292	3.0
90.307	3.0
90.322	0.0
90.337	2.0
90.352	2.0
90.367	3.0
90.382	4.0
90.397	2.0
90.412	3.0
90.427	6.0
90.442	4.0
90.457	2.0
90.472	7.0
90.487	1.0
90.501	2.0
90.516	3.0
90.531	2.0
90.546	3.0
90.561	3.0
90.576	3.0
90.591	2.0
90.606	3.0
90.621	2.0
90.636	4.0
90.651	6.0
90.666	1.0
90.681	0.0
90.696	3.0
90.711	1.0
90.726	1.0
90.741	0.0
90.755	2.0
90.77	2.0
90.785	3.0
90.8	3.0
90.815	3.0
90.83	6.0
90.845	6.0
90.86	5.0
90.875	3.0
90.89	3.0
90.905	1.0
90.92	7.0
90.935	4.0
90.95	4.0
90.965	4.0
90.979	4.0
90.994	7.0
91.009	5.0
91.024	6.0
91.039	3.0
91.054	6.0
91.069	3.0
91.084	3.0
91.099	2.0
91.114	2.0
91.129	1.0
91.144	4.0
91.159	1.0
91.174	3.0
91.188	5.0
91.203	4.0
91.218	2.0
91.233	4.0
91.248	3.0
91.263	0.0
91.278	2.0
91.293	5.0
91.308	1.0
91.323	2.0
91.338	5.0
91.353	3.0
91.368	2.0
91.383	5.0
91.398	2.0
91.412	4.0
91.427	9.0
91.442	2.0
91.457	4.0
91.472	0.0
91.487	6.0
91.502	2.0
91.517	0.0
91.532	3.0
91.547	1.0
91.562	1.0
91.577	2.0
91.592	2.0
91.607	8.0
91.622	4.0
91.637	1.0
91.652	0.0
91.666	2.0
91.681	4.0
91.696	6.0
91.711	3.0
91.726	2.0
91.741	6.0
91.756	4.0
91.771	4.0
91.786	4.0
91.801	4.0
91.816	0.0
91.831	4.0
91.846	3.0
91.861	2.0
91.876	2.0
91.891	4.0
91.906	3.0
91.921	3.0
91.936	3.0
91.951	3.0
91.966	0.0
91.981	1.0
91.995	4.0
92.01	4.0
92.025	3.0
92.04	2.0
92.055	1.0
92.07	1.0
92.085	0.0
92.1	3.0
92.115	6.0
92.13	3.0
92.145	1.0
92.16	1.0
92.175	4.0
92.19	4.0
92.205	1.0
92.22	6.0
92.235	5.0
92.25	1.0
92.265	4.0
92.28	1.0
92.295	4.0
92.31	3.0
92.325	2.0
92.34	2.0
92.355	3.0
92.37	3.0
92.385	6.0
92.4	0.0
92.415	5.0
92.43	3.0
92.445	1.0
92.46	2.0
92.475	4.0
92.49	1.0
92.505	3.0
92.52	4.0
92.535	0.0
92.55	4.0
92.565	3.0
92.58	4.0
92.595	1.0
92.61	6.0
92.625	2.0
92.64	3.0
92.655	6.0
92.67	3.0
92.685	1.0
92.7	2.0
92.715	3.0
92.73	4.0
92.745	3.0
92.76	5.0
92.775	5.0
92.79	5.0
92.805	5.0
92.82	4.0
92.835	1.0
92.85	1.0
92.865	4.0
92.88	1.0
92.895	4.0
92.91	3.0
92.925	1.0
92.94	2.0
92.955	5.0
92.97	5.0
92.985	4.0
93.0	6.0
93.015	5.0
93.03	5.0
93.045	1.0
93.06	1.0
93.075	2.0
93.09	5.0
93.105	1.0
93.12	2.0
93.135	2.0
93.15	2.0
93.165	3.0
93.18	2.0
93.195	1.0
93.21	2.0
93.225	2.0
93.24	6.0
93.255	2.0
93.27	2.0
93.285	6.0
93.3	4.0
93.315	5.0
93.33	2.0
93.345	3.0
93.36	4.0
93.375	2.0
93.39	3.0
93.405	2.0
93.42	4.0
93.435	2.0
93.45	0.0
93.465	2.0
93.48	4.0
93.495	1.0
93.51	2.0
93.525	2.0
93.54	2.0
93.555	3.0
93.57	6.0
93.585	6.0
93.6	4.0
93.615	2.0
93.63	4.0
93.645	2.0
93.66	1.0
93.675	5.0
93.69	5.0
93.705	2.0
93.72	4.0
93.735	3.0
93.75	1.0
93.765	3.0
93.78	1.0
93.795	3.0
93.81	5.0
93.824	6.0
93.839	4.0
93.854	5.0
93.869	1.0
93.884	1.0
93.899	6.0
93.914	4.0
93.929	3.0
93.944	5.0
93.959	3.0
93.974	1.0
93.989	5.0
94.004	3.0
94.019	4.0
94.034	1.0
94.049	5.0
94.064	2.0
94.079	3.0
94.094	1.0
94.108	3.0
94.123	3.0
94.138	7.0
94.153	1.0
94.168	3.0
94.183	6.0
94.198	9.0
94.213	5.0
94.228	2.0
94.243	3.0
94.258	2.0
94.273	3.0
94.288	4.0
94.302	3.0
94.317	3.0
94.332	6.0
94.347	4.0
94.362	5.0
94.377	3.0
94.392	8.0
94.407	2.0
94.422	4.0
94.437	4.0
94.452	6.0
94.466	3.0
94.481	3.0
94.496	4.0
94.511	1.0
94.526	5.0
94.541	2.0
94.556	3.0
94.571	1.0
94.586	6.0
94.601	3.0
94.615	2.0
94.63	1.0
94.645	3.0
94.66	2.0
94.675	4.0
94.69	1.0
94.705	0.0
94.72	2.0
94.735	3.0
94.749	3.0
94.764	2.0
94.779	3.0
94.794	6.0
94.809	2.0
94.824	2.0
94.839	2.0
94.854	1.0
94.868	6.0
94.883	2.0
94.898	2.0
94.913	0.0
94.928	4.0
94.943	6.0
94.958	2.0
94.973	7.0
94.987	3.0
95.002	4.0
95.017	2.0
95.032	9.0
95.047	4.0
95.062	4.0
95.077	0.0
95.092	2.0
95.106	5.0
95.121	6.0
95.136	4.0
95.151	1.0
95.166	5.0
95.181	4.0
95.196	4.0
95.211	3.0
95.226	4.0
95.24	2.0
95.255	6.0
95.27	5.0
95.285	3.0
95.3	5.0
95.315	3.0
95.33	4.0
95.345	4.0
95.359	5.0
95.374	5.0
95.389	3.0
95.404	6.0
95.419	3.0
95.434	3.0
95.449	2.0
95.464	4.0
95.478	1.0
95.493	1.0
95.508	5.0
95.523	6.0
95.538	4.0
95.553	3.0
95.568	2.0
95.583	3.0
95.597	2.0
95.612	4.0
95.627	5.0
95.642	2.0
95.657	4.0
95.672	5.0
95.687	4.0
95.702	0.0
95.717	3.0
95.731	1.0
95.746	0.0
95.761	1.0
95.776	2.0
95.791	4.0
95.806	6.0
95.821	3.0
95.836	3.0
95.851	3.0
95.866	3.0
95.88	1.0
95.895	5.0
95.91	6.0
95.925	5.0
95.94	1.0
95.955	2.0
95.97	4.0
95.985	4.0
96.0	6.0
96.015	2.0
96.029	2.0
96.044	3.0
96.059	3.0
96.074	3.0
96.089	7.0
96.104	1.0
96.119	1.0
96.134	4.0
96.149	4.0
96.164	5.0
96.179	5.0
96.194	5.0
96.208	4.0
96.223	4.0
96.238	5.0
96.253	3.0
96.268	3.0
96.283	4.0
96.298	4.0
96.313	1.0
96.328	1.0
96.343	3.0
96.358	2.0
96.373	4.0
96.388	4.0
96.403	5.0
96.417	2.0
96.432	5.0
96.447	0.0
96.462	5.0
96.477	4.0
96.492	2.0
96.507	1.0
96.522	1.0
96.537	0.0
96.552	3.0
96.567	4.0
96.582	6.0
96.597	4.0
96.612	3.0
96.627	3.0
96.642	1.0
96.656	3.0
96.671	3.0
96.686	1.0
96.701	6.0
96.716	4.0
96.731	2.0
96.746	2.0
96.761	6.0
96.776	1.0
96.791	2.0
96.806	2.0
96.821	2.0
96.836	4.0
96.851	3.0
96.866	6.0
96.881	3.0
96.896	3.0
96.911	4.0
96.926	4.0
96.94	4.0
96.955	2.0
96.97	3.0
96.985	7.0
97.0	2.0
97.015	3.0
97.03	2.0
97.045	2.0
97.06	3.0
97.075	3.0
97.09	2.0
97.105	2.0
97.12	3.0
97.135	2.0
97.15	5.0
97.165	4.0
97.18	3.0
97.195	4.0
97.21	1.0
97.225	3.0
97.239	5.0
97.254	4.0
97.269	5.0
97.284	3.0
97.299	3.0
97.314	3.0
97.329	0.0
97.344	1.0
97.359	1.0
97.374	2.0
97.389	2.0
97.404	3.0
97.419	4.0
97.434	1.0
97.449	3.0
97.464	3.0
97.479	5.0
97.494	2.0
97.509	5.0
97.524	3.0
97.538	2.0
97.553	2.0
97.568	6.0
97.583	1.0
97.598	5.0
97.613	4.0
97.628	4.0
97.643	3.0
97.658	1.0
97.673	6.0
97.688	1.0
97.703	4.0
97.718	0.0
97.733	5.0
97.748	4.0
97.763	4.0
97.778	4.0
97.792	7.0
97.807	7.0
97.822	0.0
97.837	5.0
97.852	3.0
97.867	7.0
97.882	3.0
97.897	1.0
97.912	2.0
97.927	1.0
97.942	2.0
97.957	5.0
97.972	3.0
97.987	6.0
98.001	2.0
98.016	2.0
98.031	3.0
98.046	1.0
98.061	2.0
98.076	4.0
98.091	1.0
98.106	3.0
98.121	5.0
98.136	3.0
98.151	11.0
98.166	2.0
98.181	5.0
98.195	2.0
98.21	7.0
98.225	2.0
98.24	2.0
98.255	3.0
98.27	4.0
98.285	4.0
98.3	1.0
98.315	5.0
98.33	4.0
98.345	4.0
98.359	3.0
98.374	3.0
98.389	6.0
98.404	3.0
98.419	0.0
98.434	5.0
98.449	0.0
98.464	3.0
98.479	1.0
98.494	3.0
98.508	6.0
98.523	3.0
98.538	3.0
98.553	3.0
98.568	8.0
98.583	4.0
98.598	1.0
98.613	2.0
98.628	4.0
98.642	3.0
98.657	6.0
98.672	0.0
98.687	5.0
98.702	4.0
98.717	3.0
98.732	3.0
98.747	4.0
98.762	2.0
98.776	1.0
98.791	3.0
98.806	2.0
98.821	2.0
98.836	4.0
98.851	0.0
98.866	4.0
98.881	4.0
98.896	2.0
98.91	4.0
98.925	5.0
98.94	2.0
98.955	3.0
98.97	0.0
98.985	4.0
99.0	7.0
99.015	6.0
99.029	2.0
99.044	3.0
99.059	4.0
99.074	4.0
99.089	6.0
99.104	0.0
99.119	5.0
99.133	2.0
99.148	3.0
99.163	1.0
99.178	2.0
99.193	1.0
99.208	5.0
99.223	2.0
99.238	7.0
99.252	6.0
99.267	7.0
99.282	0.0
99.297	3.0
99.312	6.0
99.327	2.0
99.342	5.0
99.356	1.0
99.371	8.0
99.386	4.0
99.401	0.0
99.416	3.0
99.431	2.0
99.446	6.0
99.461	6.0
99.475	3.0
99.49	3.0
99.505	3.0
99.52	2.0
99.535	0.0
99.55	2.0
99.565	3.0
99.579	2.0
99.594	2.0
99.609	4.0
99.624	2.0
99.639	3.0
99.654	2.0
99.669	0.0
99.683	1.0
99.698	2.0
99.713	2.0
99.728	2.0
99.743	5.0
99.758	5.0
99.772	3.0
99.787	1.0
99.802	3.0
99.817	6.0
99.832	4.0
99.847	8.0
99.862	4.0
99.876	2.0
99.891	1.0
99.906	3.0
99.921	4.0
99.936	7.0
99.951	1.0
99.966	4.0
99.98	3.0
99.995	5.0
100.01	2.0
100.025	2.0
100.04	1.0
100.055	3.0
100.069	2.0
100.084	5.0
100.099	3.0
100.114	4.0
100.129	7.0
100.144	3.0
100.159	2.0
100.173	3.0
100.188	3.0
100.203	2.0
100.218	5.0
100.233	2.0
100.248	3.0
100.262	4.0
100.277	3.0
100.292	5.0
100.307	5.0
100.322	2.0
100.337	6.0
100.351	3.0
100.366	3.0
100.381	8.0
100.396	6.0
100.411	2.0
100.426	3.0
100.441	3.0
100.455	1.0
100.47	1.0
100.485	4.0
100.5	3.0
100.515	1.0
100.53	6.0
100.544	5.0
100.559	4.0
100.574	2.0
100.589	3.0
100.604	5.0
100.619	1.0
100.633	4.0
100.648	1.0
100.663	2.0
100.678	4.0
100.693	2.0
100.708	2.0
100.722	2.0
100.737	4.0
100.752	1.0
100.767	3.0
100.782	1.0
100.796	4.0
100.811	4.0
100.826	0.0
100.841	3.0
100.856	3.0
100.871	1.0
100.885	2.0
100.9	0.0
100.915	5.0
100.93	2.0
100.945	1.0
100.96	2.0
100.974	2.0
100.989	3.0
101.004	3.0
101.019	1.0
101.034	2.0
101.048	5.0
101.063	0.0
101.078	9.0
101.093	2.0
101.108	5.0
101.123	2.0
101.137	4.0
101.152	5.0
101.167	2.0
101.182	2.0
101.197	1.0
101.211	6.0
101.226	4.0
101.241	5.0
101.256	7.0
101.271	4.0
101.285	6.0
101.3	3.0
101.315	5.0
101.33	3.0
101.345	1.0
101.359	2.0
101.374	5.0
101.389	3.0
101.404	6.0
101.419	2.0
101.433	2.0
101.448	2.0
101.463	4.0
101.478	4.0
101.493	1.0
101.507	2.0
101.522	3.0
101.537	3.0
101.552	7.0
101.567	1.0
101.581	4.0
101.596	6.0
101.611	1.0
101.626	4.0
101.64	1.0
101.655	1.0
101.67	3.0
101.685	2.0
101.7	2.0
101.714	6.0
101.729	3.0
101.744	2.0
101.759	2.0
101.773	3.0
101.788	4.0
101.803	3.0
101.818	5.0
101.833	1.0
101.847	5.0
101.862	2.0
101.877	1.0
101.892	3.0
101.906	1.0
101.921	2.0
101.936	6.0
101.951	4.0
101.965	1.0
101.98	3.0
101.995	3.0
102.01	2.0
102.025	7.0
102.039	8.0
102.054	3.0
102.069	6.0
102.084	0.0
102.098	3.0
102.113	4.0
102.128	4.0
102.143	1.0
102.157	5.0
102.172	5.0
102.187	3.0
102.202	1.0
102.216	3.0
102.231	3.0
102.246	2.0
102.261	0.0
102.275	4.0
102.29	3.0
102.305	1.0
102.32	2.0
102.334	2.0
102.349	3.0
102.364	3.0
102.378	3.0
102.393	3.0
102.408	3.0
102.423	1.0
102.437	6.0
102.452	4.0
102.467	3.0
102.482	0.0
102.496	4.0
102.511	3.0
102.526	3.0
102.541	1.0
102.555	3.0
102.57	4.0
102.585	4.0
102.6	4.0
102.614	2.0
102.629	1.0
102.644	2.0
102.659	1.0
102.673	1.0
102.688	5.0
102.703	3.0
102.717	5.0
102.732	5.0
102.747	4.0
102.762	6.0
102.776	5.0
102.791	1.0
102.806	6.0
102.821	3.0
102.835	0.0
102.85	4.0
102.865	0.0
102.88	6.0
102.894	3.0
102.909	2.0
102.924	1.0
102.938	6.0
102.953	4.0
102.968	2.0
102.983	1.0
102.997	1.0
103.012	6.0
103.027	3.0
103.042	5.0
103.056	5.0
103.071	1.0
103.086	8.0
103.101	4.0
103.115	2.0
103.13	5.0
103.145	2.0
103.16	3.0
103.174	7.0
103.189	4.0
103.204	5.0
103.219	4.0
103.233	1.0
103.248	2.0
103.263	4.0
103.278	3.0
103.292	2.0
103.307	2.0
103.322	2.0
103.337	4.0
103.351	0.0
103.366	0.0
103.381	2.0
103.396	2.0
103.41	9.0
103.425	3.0
103.44	2.0
103.455	5.0
103.469	1.0
103.484	1.0
103.499	7.0
103.514	3.0
103.529	2.0
103.543	2.0
103.558	5.0
103.573	1.0
103.588	2.0
103.602	2.0
103.617	5.0
103.632	4.0
103.647	3.0
103.661	9.0
103.676	3.0
103.691	4.0
103.706	3.0
103.721	5.0
103.735	4.0
103.75	1.0
103.765	2.0
103.78	2.0
103.795	1.0
103.809	6.0
103.824	3.0
103.839	6.0
103.854	3.0
103.869	7.0
103.883	5.0
103.898	5.0
103.913	3.0
103.928	4.0
103.943	4.0
103.957	3.0
103.972	4.0
103.987	3.0
104.002	5.0
104.017	1.0
104.031	3.0
104.046	4.0
104.061	3.0
104.076	2.0
104.091	4.0
104.106	3.0
104.12	2.0
104.135	4.0
104.15	2.0
104.165	5.0
104.18	1.0
104.195	5.0
104.209	2.0
104.224	2.0
104.239	3.0
104.254	3.0
104.269	1.0
104.284	6.0
104.299	3.0
104.313	3.0
104.328	3.0
104.343	4.0
104.358	3.0
104.373	7.0
104.388	6.0
104.403	0.0
104.417	4.0
104.432	1.0
104.447	2.0
104.462	2.0
104.477	5.0
104.492	0.0
104.507	6.0
104.522	1.0
104.536	3.0
104.551	3.0
104.566	6.0
104.581	9.0
104.596	1.0
104.611	5.0
104.626	5.0
104.641	2.0
104.656	4.0
104.67	2.0
104.685	4.0
104.7	7.0
104.715	5.0
104.73	1.0
104.745	3.0
104.76	3.0
104.775	4.0
104.79	1.0
104.804	4.0
104.819	4.0
104.834	3.0
104.849	2.0
104.864	2.0
104.879	2.0
104.894	3.0
104.909	1.0
104.924	4.0
104.939	3.0
104.954	2.0
104.968	2.0
104.983	6.0
104.998	4.0
105.013	1.0
105.028	2.0
105.043	3.0
105.058	3.0
105.073	4.0
105.088	1.0
105.103	0.0
105.118	5.0
105.133	3.0
105.147	3.0
105.162	5.0
105.177	3.0
105.192	4.0
105.207	2.0
105.222	2.0
105.237	4.0
105.252	2.0
105.267	4.0
105.282	5.0
105.297	3.0
105.312	4.0
105.327	2.0
105.342	2.0
105.356	5.0
105.371	5.0
105.386	2.0
105.401	3.0
105.416	3.0
105.431	1.0
105.446	2.0
105.461	2.0
105.476	0.0
105.491	6.0
105.506	1.0
105.521	6.0
105.536	4.0
105.551	4.0
105.566	3.0
105.581	2.0
105.595	2.0
105.61	1.0
105.625	8.0
105.64	3.0
105.655	1.0
105.67	0.0
105.685	5.0
105.7	2.0
105.715	3.0
105.73	3.0
105.745	0.0
105.76	4.0
105.775	4.0
105.79	4.0
105.805	7.0
105.82	2.0
105.835	4.0
105.85	3.0
105.864	3.0
105.879	1.0
105.894	0.0
105.909	2.0
105.924	2.0
105.939	2.0
105.954	4.0
105.969	2.0
105.984	3.0
105.999	2.0
106.014	2.0
106.029	3.0
106.044	4.0
106.059	0.0
106.074	3.0
106.089	2.0
106.104	2.0
106.119	1.0
106.134	1.0
106.148	2.0
106.163	0.0
106.178	5.0
106.193	3.0
106.208	2.0
106.223	0.0
106.238	2.0
106.253	6.0
106.268	4.0
106.283	7.0
106.298	2.0
106.313	5.0
106.328	4.0
106.343	3.0
106.358	3.0
106.373	1.0
106.388	3.0
106.403	8.0
106.418	6.0
106.432	2.0
106.447	4.0
106.462	2.0
106.477	1.0
106.492	1.0
106.507	1.0
106.522	2.0
106.537	2.0
106.552	2.0
106.567	1.0
106.582	1.0
106.597	0.0
106.612	1.0
106.627	4.0
106.642	1.0
106.657	6.0
106.672	1.0
106.687	1.0
106.701	2.0
106.716	1.0
106.731	1.0
106.746	3.0
106.761	3.0
106.776	5.0
106.791	2.0
106.806	4.0
106.821	1.0
106.836	2.0
106.851	5.0
106.866	2.0
106.881	5.0
106.896	4.0
106.911	7.0
106.926	4.0
106.941	4.0
106.955	2.0
106.97	5.0
106.985	1.0
107.0	3.0
107.015	0.0
107.03	0.0
107.045	4.0
107.06	7.0
107.075	4.0
107.09	1.0
107.105	3.0
107.12	2.0
107.135	4.0
107.15	2.0
107.165	2.0
107.18	2.0
107.194	1.0
107.209	5.0
107.224	4.0
107.239	3.0
107.254	4.0
107.269	6.0
107.284	6.0
107.299	5.0
107.314	6.0
107.329	4.0
107.344	3.0
107.359	5.0
107.374	3.0
107.389	3.0
107.404	2.0
107.418	2.0
107.433	2.0
107.448	2.0
107.463	1.0
107.478	1.0
107.493	7.0
107.508	0.0
107.523	2.0
107.538	3.0
107.553	5.0
107.568	2.0
107.583	4.0
107.598	2.0
107.613	5.0
107.627	4.0
107.642	1.0
107.657	1.0
107.672	2.0
107.687	1.0
107.702	2.0
107.717	6.0
107.732	2.0
107.747	0.0
107.762	3.0
107.777	5.0
107.792	2.0
107.807	2.0
107.821	5.0
107.836	4.0
107.851	5.0
107.866	2.0
107.881	0.0
107.896	3.0
107.911	4.0
107.926	4.0
107.941	2.0
107.956	7.0
107.971	6.0
107.986	8.0
108.0	3.0
108.015	3.0
108.03	3.0
108.045	2.0
108.06	3.0
108.075	1.0
108.09	7.0
108.105	2.0
108.12	5.0
108.135	1.0
108.15	8.0
108.164	4.0
108.179	4.0
108.194	5.0
108.209	5.0
108.224	8.0
108.239	2.0
108.254	2.0
108.269	2.0
108.284	4.0
108.299	3.0
108.313	2.0
108.328	2.0
108.343	3.0
108.358	8.0
108.373	2.0
108.388	5.0
108.403	3.0
108.418	3.0
108.433	3.0
108.448	1.0
108.462	2.0
108.477	1.0
108.492	1.0
108.507	7.0
108.522	1.0
108.537	4.0
108.552	0.0
108.567	5.0
108.582	4.0
108.597	5.0
108.611	3.0
108.626	3.0
108.641	2.0
108.656	1.0
108.671	4.0
108.686	5.0
108.701	1.0
108.716	5.0
108.731	2.0
108.745	2.0
108.76	4.0
108.775	1.0
108.79	5.0
108.805	4.0
108.82	1.0
108.835	4.0
108.85	4.0
108.865	3.0
108.879	7.0
108.894	5.0
108.909	4.0
108.924	7.0
108.939	1.0
108.954	3.0
108.969	3.0
108.984	2.0
108.999	5.0
109.013	1.0
109.028	1.0
109.043	4.0
109.058	5.0
109.073	3.0
109.088	6.0
109.103	6.0
109.118	3.0
109.133	4.0
109.147	1.0
109.162	1.0
109.177	6.0
109.192	7.0
109.207	2.0
109.222	3.0
109.237	3.0
109.252	2.0
109.267	1.0
109.281	3.0
109.296	3.0
109.311	3.0
109.326	4.0
109.341	3.0
109.356	1.0
109.371	2.0
109.386	6.0
109.4	0.0
109.415	5.0
109.43	1.0
109.445	0.0
109.46	1.0
109.475	5.0
109.49	4.0
109.505	4.0
109.52	7.0
109.534	0.0
109.549	3.0
109.564	1.0
109.579	3.0
109.594	2.0
109.609	1.0
109.624	4.0
109.639	3.0
109.653	2.0
109.668	2.0
109.683	3.0
109.698	4.0
109.713	4.0
109.728	2.0
109.743	3.0
109.758	3.0
109.773	8.0
109.787	2.0
109.802	3.0
109.817	2.0
109.832	3.0
109.847	3.0
109.862	1.0
109.877	5.0
109.892	3.0
109.907	5.0
109.921	1.0
109.936	2.0
109.951	3.0
109.966	3.0
109.981	4.0
109.996	1.0
110.011	3.0
110.026	4.0
110.04	4.0
110.055	2.0
110.07	3.0
110.085	4.0
110.1	4.0
110.115	5.0
110.13	0.0
110.145	5.0
110.16	4.0
110.174	1.0
110.189	3.0
110.204	5.0
110.219	3.0
110.234	6.0
110.249	2.0
110.264	1.0
110.279	5.0
110.294	3.0
110.308	2.0
110.323	4.0
110.338	5.0
110.353	4.0
110.368	4.0
110.383	5.0
110.398	5.0
110.413	2.0
110.428	4.0
110.442	1.0
110.457	4.0
110.472	4.0
110.487	5.0
110.502	2.0
110.517	1.0
110.532	5.0
110.547	3.0
110.561	3.0
110.576	1.0
110.591	4.0
110.606	1.0
110.621	2.0
110.636	2.0
110.651	4.0
110.666	2.0
110.681	1.0
110.695	1.0
110.71	3.0
110.725	4.0
110.74	2.0
110.755	5.0
110.77	3.0
110.785	6.0
110.8	1.0
110.815	5.0
110.829	4.0
110.844	1.0
110.859	3.0
110.874	3.0
110.889	4.0
110.904	0.0
110.919	0.0
110.934	3.0
110.948	4.0
110.963	4.0
110.978	1.0
110.993	1.0
111.008	5.0
111.023	2.0
111.038	3.0
111.053	0.0
111.067	1.0
111.082	4.0
111.097	8.0
111.112	2.0
111.127	6.0
111.142	3.0
111.157	0.0
111.172	5.0
111.186	2.0
111.201	3.0
111.216	0.0
111.231	4.0
111.246	3.0
111.261	6.0
111.276	2.0
111.291	5.0
111.305	1.0
111.32	3.0
111.335	7.0
111.35	1.0
111.365	2.0
111.38	3.0
111.395	2.0
111.41	4.0
111.424	2.0
111.439	1.0
111.454	7.0
111.469	4.0
111.484	3.0
111.499	3.0
111.514	4.0
111.528	1.0
111.543	5.0
111.558	3.0
111.573	7.0
111.588	5.0
111.603	2.0
111.618	2.0
111.633	6.0
111.647	2.0
111.662	4.0
111.677	2.0
111.692	1.0
111.707	3.0
111.722	6.0
111.737	6.0
111.751	6.0
111.766	5.0
111.781	2.0
111.796	3.0
111.811	3.0
111.826	8.0
111.84	2.0
111.855	1.0
111.87	3.0
111.885	3.0
111.9	3.0
111.915	5.0
111.93	2.0
111.944	5.0
111.959	5.0
111.974	2.0
111.989	2.0
112.004	4.0
112.019	3.0
112.033	4.0
112.048	0.0
112.063	8.0
112.078	4.0
112.093	3.0
112.108	2.0
112.123	1.0
112.137	2.0
112.152	6.0
112.167	5.0
112.182	0.0
112.197	7.0
112.212	5.0
112.226	1.0
112.241	3.0
112.256	3.0
112.271	4.0
112.286	2.0
112.301	2.0
112.315	5.0
112.33	3.0
112.345	1.0
112.36	4.0
112.375	5.0
112.389	3.0
112.404	4.0
112.419	4.0
112.434	4.0
112.449	2.0
112.464	0.0
112.478	2.0
112.493	2.0
112.508	2.0
112.523	7.0
112.538	5.0
112.553	7.0
112.567	2.0
112.582	5.0
112.597	4.0
112.612	3.0
112.627	5.0
112.642	2.0
112.656	3.0
112.671	2.0
112.686	1.0
112.701	4.0
112.716	2.0
112.73	3.0
112.745	2.0
112.76	3.0
112.775	1.0
112.79	5.0
112.805	3.0
112.819	4.0
112.834	4.0
112.849	1.0
112.864	3.0
112.879	3.0
112.894	3.0
112.908	6.0
112.923	2.0
112.938	2.0
112.953	3.0
112.968	5.0
112.983	3.0
112.997	4.0
113.012	2.0
113.027	5.0
113.042	5.0
113.057	1.0
113.072	5.0
113.086	3.0
113.101	3.0
113.116	5.0
113.131	1.0
113.146	5.0
113.161	6.0
113.175	3.0
113.19	1.0
113.205	5.0
113.22	1.0
113.235	2.0
113.25	3.0
113.265	7.0
113.279	1.0
113.294	5.0
113.309	4.0
113.324	4.0
113.339	2.0
113.354	4.0
113.368	4.0
113.383	4.0
113.398	7.0
113.413	3.0
113.428	2.0
113.443	3.0
113.458	7.0
113.472	5.0
113.487	4.0
113.502	5.0
113.517	3.0
113.532	2.0
113.547	3.0
113.562	2.0
113.576	1.0
113.591	3.0
113.606	4.0
113.621	4.0
113.636	3.0
113.651	2.0
113.666	2.0
113.681	1.0
113.695	2.0
113.71	1.0
113.725	9.0
113.74	4.0
113.755	2.0
113.77	2.0
113.785	5.0
113.8	4.0
113.814	1.0
113.829	3.0
113.844	1.0
113.859	4.0
113.874	4.0
113.889	5.0
113.904	5.0
113.919	4.0
113.934	9.0
113.949	6.0
113.963	2.0
113.978	2.0
113.993	4.0
114.008	2.0
114.023	3.0
114.038	5.0
114.053	7.0
114.068	1.0
114.083	2.0
114.098	0.0
114.113	2.0
114.127	4.0
114.142	5.0
114.157	2.0
114.172	2.0
114.187	3.0
114.202	2.0
114.217	2.0
114.232	1.0
114.247	4.0
114.262	8.0
114.277	2.0
114.292	3.0
114.307	3.0
114.322	7.0
114.337	2.0
114.351	3.0
114.366	4.0
114.381	4.0
114.396	2.0
114.411	6.0
114.426	4.0
114.441	3.0
114.456	1.0
114.471	4.0
114.486	3.0
114.501	3.0
114.516	3.0
114.531	2.0
114.546	2.0
114.561	4.0
114.576	4.0
114.591	3.0
114.606	6.0
114.621	8.0
114.636	4.0
114.65	5.0
114.665	2.0
114.68	3.0
114.695	3.0
114.71	3.0
114.725	3.0
114.74	3.0
114.755	3.0
114.77	2.0
114.785	3.0
114.8	3.0
114.815	5.0
114.83	6.0
114.845	4.0
114.86	6.0
114.875	3.0
114.89	6.0
114.905	5.0
114.92	3.0
114.935	3.0
114.95	2.0
114.965	5.0
114.98	5.0
114.995	2.0
115.009	6.0
115.024	5.0
115.039	3.0
115.054	2.0
115.069	3.0
115.084	4.0
115.099	6.0
115.114	3.0
115.129	0.0
115.144	4.0
115.159	6.0
115.174	5.0
115.189	2.0
115.204	10.0
115.219	4.0
115.234	4.0
115.249	1.0
115.264	2.0
115.279	2.0
115.294	4.0
115.309	4.0
115.323	4.0
115.338	1.0
115.353	2.0
115.368	5.0
115.383	4.0
115.398	0.0
115.413	6.0
115.428	5.0
115.443	5.0
115.458	3.0
115.473	4.0
115.488	3.0
115.503	5.0
115.518	4.0
115.533	5.0
115.548	3.0
115.562	3.0
115.577	3.0
115.592	5.0
115.607	5.0
115.622	1.0
115.637	3.0
115.652	1.0
115.667	7.0
115.682	1.0
115.697	3.0
115.712	3.0
115.727	3.0
115.741	4.0
115.756	2.0
115.771	3.0
115.786	2.0
115.801	5.0
115.816	4.0
115.831	4.0
115.846	2.0
115.861	3.0
115.875	3.0
115.89	5.0
115.905	7.0
115.92	1.0
115.935	2.0
115.95	2.0
115.965	6.0
115.98	4.0
115.995	6.0
116.009	1.0
116.024	5.0
116.039	1.0
116.054	2.0
116.069	3.0
116.084	6.0
116.099	2.0
116.113	6.0
116.128	1.0
116.143	8.0
116.158	6.0
116.173	1.0
116.188	2.0
116.202	11.0
116.217	4.0
116.232	8.0
116.247	6.0
116.262	3.0
116.277	2.0
116.291	4.0
116.306	3.0
116.321	2.0
116.336	3.0
116.351	4.0
116.366	1.0
116.38	4.0
116.395	3.0
116.41	5.0
116.425	3.0
116.44	2.0
116.454	3.0
116.469	5.0
116.484	7.0
116.499	2.0
116.514	2.0
116.528	0.0
116.543	1.0
116.558	3.0
116.573	7.0
116.588	0.0
116.602	2.0
116.617	9.0
116.632	4.0
116.647	3.0
116.662	3.0
116.676	3.0
116.691	2.0
116.706	4.0
116.721	3.0
116.735	3.0
116.75	3.0
116.765	7.0
116.78	1.0
116.795	1.0
116.809	5.0
116.824	6.0
116.839	4.0
116.854	2.0
116.868	1.0
116.883	3.0
116.898	1.0
116.913	5.0
116.927	4.0
116.942	0.0
116.957	2.0
116.972	3.0
116.986	2.0
117.001	4.0
117.016	3.0
117.031	1.0
117.045	1.0
117.06	2.0
117.075	9.0
117.09	2.0
117.104	6.0
117.119	4.0
117.134	4.0
117.149	8.0
117.163	4.0
117.178	3.0
117.193	5.0
117.208	2.0
117.222	1.0
117.237	2.0
117.252	3.0
117.267	4.0
117.281	2.0
117.296	1.0
117.311	2.0
117.325	5.0
117.34	1.0
117.355	3.0
117.37	3.0
117.384	1.0
117.399	6.0
117.414	3.0
117.429	6.0
117.443	5.0
117.458	4.0
117.473	3.0
117.487	3.0
117.502	2.0
117.517	3.0
117.532	3.0
117.546	4.0
117.561	5.0
117.576	5.0
117.59	3.0
117.605	2.0
117.62	4.0
117.635	2.0
117.649	2.0
117.664	2.0
117.679	2.0
117.693	4.0
117.708	3.0
117.723	3.0
117.738	7.0
117.752	3.0
117.767	4.0
117.782	4.0
117.796	7.0
117.811	2.0
117.826	7.0
117.841	2.0
117.855	4.0
117.87	3.0
117.885	3.0
117.899	6.0
117.914	8.0
117.929	3.0
117.944	5.0
117.958	5.0
117.973	11.0
117.988	4.0
118.002	4.0
118.017	6.0
118.032	3.0
118.047	3.0
118.062	3.0
118.077	5.0
118.092	4.0
118.107	3.0
118.121	4.0
118.136	1.0
118.151	4.0
118.166	5.0
118.181	3.0
118.196	3.0
118.211	4.0
118.225	4.0
118.24	3.0
118.255	7.0
118.27	0.0
118.285	3.0
118.3	4.0
118.315	4.0
118.33	3.0
118.344	3.0
118.359	5.0
118.374	2.0
118.389	6.0
118.404	2.0
118.419	4.0
118.434	3.0
118.449	5.0
118.463	1.0
118.478	2.0
118.493	3.0
118.508	1.0
118.523	4.0
118.538	3.0
118.553	3.0
118.567	4.0
118.582	8.0
118.597	4.0
118.612	4.0
118.627	4.0
118.642	2.0
118.657	1.0
118.672	6.0
118.686	0.0
118.701	2.0
118.716	9.0
118.731	1.0
118.746	2.0
118.761	3.0
118.776	4.0
118.791	4.0
118.805	9.0
118.82	1.0
118.835	7.0
118.85	5.0
118.865	4.0
118.88	3.0
118.895	1.0
118.909	8.0
118.924	1.0
118.939	4.0
118.954	2.0
118.969	4.0
118.984	5.0
118.999	2.0
119.014	3.0
119.028	7.0
119.043	3.0
119.058	3.0
119.073	6.0
119.088	3.0
119.103	6.0
119.118	2.0
119.133	6.0
119.147	2.0
119.162	2.0
119.177	4.0
119.192	2.0
119.207	3.0
119.222	6.0
119.237	6.0
119.251	7.0
119.266	3.0
119.281	7.0
119.296	6.0
119.311	2.0
119.326	2.0
119.341	4.0
119.356	5.0
119.37	6.0
119.385	4.0
119.4	3.0
119.415	4.0
119.43	2.0
119.445	1.0
119.46	4.0
119.475	4.0
119.489	3.0
119.504	4.0
119.519	6.0
119.534	3.0
119.549	2.0
119.564	4.0
119.579	5.0
119.593	6.0
119.608	3.0
119.623	4.0
119.638	3.0
119.653	2.0
119.668	3.0
119.683	5.0
119.698	3.0
119.712	4.0
119.727	4.0
119.742	3.0
119.757	1.0
119.772	2.0
119.787	3.0
119.802	3.0
119.817	4.0
119.831	4.0
119.846	4.0
119.861	4.0
119.876	6.0
119.891	1.0
119.906	5.0
119.921	6.0
119.935	1.0
119.95	1.0
119.965	7.0
119.98	0.0
119.995	3.0
120.01	1.0
120.025	0.0
120.04	2.0
120.054	0.0
120.069	3.0
120.084	2.0
120.099	2.0
120.114	3.0
120.129	2.0
120.144	4.0
120.159	1.0
120.173	3.0
120.188	0.0
120.203	1.0
120.218	1.0
120.233	1.0
120.248	2.0
120.263	0.0
120.277	1.0
120.292	1.0
120.307	0.0
120.322	0.0
120.337	0.0
120.352	0.0
120.367	0.0
120.382	0.0
120.396	0.0
120.411	0.0
120.426	0.0
120.441	0.0
120.456	0.0
120.471	0.0
120.486	0.0
120.501	0.0
120.515	0.0
120.53	0.0
120.545	0.0
120.56	1.0
120.575	0.0
120.59	0.0
120.605	0.0
120.619	0.0
120.634	0.0
120.649	0.0
120.664	0.0
120.679	0.0
120.694	0.0
120.709	0.0
120.724	0.0
120.738	0.0
120.753	0.0
120.768	0.0
120.783	1.0
120.798	0.0
120.813	1.0
120.828	0.0
120.843	0.0
120.857	0.0
120.872	0.0
120.887	0.0
120.902	0.0
120.917	0.0
120.932	0.0
120.947	0.0
120.961	0.0
120.976	0.0
