-1.217	0.0
-1.202	0.0
-1.187	0.0
-1.172	0.0
-1.157	0.0
-1.142	0.0
-1.128	0.0
-1.113	0.0
-1.098	0.0
-1.083	0.0
-1.068	0.0
-1.054	0.0
-1.039	0.0
-1.024	0.0
-1.009	0.0
-0.994	0.0
-0.979	0.0
-0.965	0.0
-0.95	0.0
-0.935	0.0
-0.92	0.0
-0.905	0.0
-0.891	0.0
-0.876	0.0
-0.861	0.0
-0.846	0.0
-0.831	0.0
-0.816	0.0
-0.802	0.0
-0.787	0.0
-0.772	0.0
-0.757	0.0
-0.742	0.0
-0.728	0.0
-0.713	0.0
-0.698	0.0
-0.683	0.0
-0.668	0.0
-0.653	0.0
-0.639	0.0
-0.624	0.0
-0.609	0.0
-0.594	1.0
-0.579	0.0
-0.565	0.0
-0.55	0.0
-0.535	0.0
-0.52	0.0
-0.505	0.0
-0.49	0.0
-0.476	0.0
-0.461	0.0
-0.446	0.0
-0.431	0.0
-0.416	0.0
-0.401	0.0
-0.387	0.0
-0.372	0.0
-0.357	0.0
-0.342	0.0
-0.327	0.0
-0.313	0.0
-0.298	0.0
-0.283	0.0
-0.268	0.0
-0.253	0.0
-0.238	0.0
-0.224	0.0
-0.209	0.0
-0.194	0.0
-0.179	0.0
-0.164	0.0
-0.15	0.0
-0.135	0.0
-0.12	0.0
-0.105	0.0
-0.09	0.0
-0.075	0.0
-0.061	0.0
-0.046	0.0
-0.031	0.0
-0.016	0.0
-0.001	0.0
0.013	0.0
0.028	0.0
0.043	0.0
0.058	0.0
0.073	0.0
0.088	0.0
0.102	0.0
0.117	0.0
0.132	0.0
0.147	0.0
0.162	0.0
0.176	0.0
0.191	0.0
0.206	0.0
0.221	0.0
0.236	0.0
0.251	0.0
0.265	0.0
0.28	0.0
0.295	0.0
0.31	0.0
0.325	0.0
0.339	0.0
0.354	0.0
0.369	0.0
0.384	0.0
0.399	0.0
0.414	0.0
0.428	0.0
0.443	0.0
0.458	0.0
0.473	0.0
0.488	0.0
0.502	0.0
0.517	0.0
0.532	0.0
0.547	0.0
0.562	0.0
0.577	0.0
0.591	0.0
0.606	0.0
0.621	0.0
0.636	0.0
0.651	0.0
0.665	0.0
0.68	0.0
0.695	0.0
0.71	0.0
0.725	0.0
0.74	0.0
0.754	0.0
0.769	0.0
0.784	0.0
0.799	0.0
0.814	0.0
0.828	0.0
0.843	0.0
0.858	0.0
0.873	0.0
0.888	0.0
0.903	0.0
0.917	1.0
0.932	0.0
0.947	0.0
0.962	0.0
0.977	0.0
0.991	0.0
1.006	0.0
1.021	0.0
1.036	0.0
1.051	0.0
1.065	0.0
1.08	0.0
1.095	0.0
1.11	0.0
1.125	0.0
1.14	0.0
1.154	0.0
1.169	0.0
1.184	0.0
1.199	0.0
1.214	0.0
1.228	0.0
1.243	2.0
1.258	0.0
1.273	0.0
1.288	0.0
1.302	0.0
1.317	0.0
1.332	0.0
1.347	0.0
1.362	0.0
1.376	0.0
1.391	0.0
1.406	0.0
1.421	0.0
1.436	0.0
1.45	0.0
1.465	0.0
1.48	0.0
1.495	0.0
1.51	0.0
1.524	0.0
1.539	1.0
1.554	0.0
1.569	0.0
1.584	0.0
1.598	0.0
1.613	0.0
1.628	0.0
1.643	0.0
1.658	0.0
1.672	0.0
1.687	0.0
1.702	0.0
1.717	0.0
1.732	0.0
1.746	0.0
1.761	0.0
1.776	0.0
1.791	0.0
1.806	0.0
1.82	0.0
1.835	0.0
1.85	0.0
1.865	0.0
1.88	0.0
1.894	0.0
1.909	0.0
1.924	0.0
1.939	0.0
1.954	2.0
1.968	0.0
1.983	0.0
1.998	0.0
2.013	1.0
2.028	0.0
2.042	1.0
2.057	1.0
2.072	0.0
2.087	0.0
2.101	1.0
2.116	0.0
2.131	0.0
2.146	0.0
2.161	0.0
2.175	0.0
2.19	0.0
2.205	0.0
2.22	0.0
2.235	1.0
2.249	0.0
2.264	2.0
2.279	0.0
2.294	2.0
2.308	2.0
2.323	1.0
2.338	1.0
2.353	1.0
2.368	1.0
2.382	0.0
2.397	1.0
2.412	1.0
2.427	3.0
2.442	3.0
2.456	0.0
2.471	0.0
2.486	2.0
2.501	1.0
2.515	1.0
2.53	1.0
2.545	2.0
2.56	1.0
2.575	1.0
2.589	4.0
2.604	1.0
2.619	0.0
2.634	0.0
2.649	1.0
2.663	4.0
2.678	4.0
2.693	1.0
2.708	2.0
2.722	6.0
2.737	5.0
2.752	3.0
2.767	1.0
2.782	3.0
2.796	6.0
2.811	1.0
2.826	1.0
2.841	2.0
2.856	4.0
2.87	2.0
2.885	6.0
2.9	2.0
2.915	2.0
2.93	7.0
2.944	6.0
2.959	2.0
2.974	5.0
2.989	4.0
3.004	5.0
3.018	4.0
3.033	5.0
3.048	4.0
3.063	5.0
3.078	5.0
3.092	3.0
3.107	6.0
3.122	5.0
3.137	3.0
3.152	4.0
3.166	4.0
3.181	1.0
3.196	6.0
3.211	4.0
3.226	3.0
3.24	4.0
3.255	5.0
3.27	5.0
3.285	4.0
3.3	4.0
3.315	5.0
3.329	6.0
3.344	5.0
3.359	2.0
3.374	6.0
3.389	7.0
3.403	8.0
3.418	3.0
3.433	4.0
3.448	6.0
3.463	6.0
3.478	5.0
3.492	4.0
3.507	4.0
3.522	7.0
3.537	10.0
3.552	6.0
3.567	9.0
3.581	10.0
3.596	5.0
3.611	6.0
3.626	5.0
3.641	3.0
3.656	4.0
3.671	9.0
3.685	7.0
3.7	4.0
3.715	9.0
3.73	6.0
3.745	1.0
3.76	2.0
3.775	3.0
3.789	6.0
3.804	6.0
3.819	5.0
3.834	11.0
3.849	5.0
3.864	9.0
3.879	6.0
3.894	2.0
3.908	7.0
3.923	3.0
3.938	12.0
3.953	13.0
3.968	6.0
3.983	5.0
3.998	7.0
4.013	5.0
4.027	6.0
4.042	7.0
4.057	6.0
4.072	6.0
4.087	7.0
4.102	6.0
4.117	7.0
4.132	10.0
4.147	7.0
4.162	9.0
4.176	8.0
4.191	8.0
4.206	11.0
4.221	7.0
4.236	6.0
4.251	10.0
4.266	10.0
4.281	8.0
4.296	8.0
4.311	4.0
4.326	7.0
4.341	7.0
4.356	10.0
4.37	7.0
4.385	8.0
4.4	9.0
4.415	5.0
4.43	5.0
4.445	2.0
4.46	5.0
4.475	10.0
4.49	7.0
4.505	4.0
4.52	13.0
4.535	11.0
4.55	6.0
4.565	7.0
4.58	9.0
4.595	9.0
4.61	5.0
4.625	11.0
4.639	8.0
4.654	5.0
4.669	10.0
4.684	8.0
4.699	11.0
4.714	9.0
4.729	4.0
4.744	5.0
4.759	9.0
4.774	9.0
4.789	8.0
4.804	5.0
4.819	8.0
4.834	5.0
4.849	15.0
4.864	11.0
4.879	8.0
4.894	6.0
4.909	5.0
4.924	5.0
4.939	7.0
4.954	5.0
4.969	8.0
4.984	11.0
4.999	6.0
5.014	11.0
5.029	12.0
5.044	11.0
5.059	5.0
5.074	11.0
5.089	10.0
5.104	10.0
5.119	5.0
5.134	7.0
5.149	12.0
5.164	11.0
5.179	8.0
5.194	6.0
5.209	9.0
5.224	7.0
5.239	4.0
5.254	9.0
5.269	12.0
5.284	9.0
5.299	11.0
5.314	12.0
5.329	2.0
5.344	6.0
5.359	9.0
5.374	5.0
5.389	4.0
5.404	4.0
5.419	5.0
5.434	9.0
5.449	7.0
5.464	6.0
5.479	7.0
5.494	7.0
5.509	9.0
5.524	9.0
5.539	7.0
5.554	7.0
5.569	11.0
5.584	6.0
5.599	8.0
5.614	14.0
5.629	10.0
5.644	12.0
5.659	10.0
5.674	3.0
5.689	6.0
5.704	4.0
5.719	12.0
5.734	8.0
5.749	6.0
5.764	9.0
5.779	13.0
5.794	7.0
5.809	5.0
5.824	9.0
5.839	10.0
5.854	15.0
5.869	9.0
5.884	6.0
5.899	8.0
5.914	12.0
5.929	10.0
5.944	8.0
5.959	11.0
5.974	8.0
5.989	10.0
6.004	7.0
6.019	8.0
6.034	6.0
6.049	5.0
6.064	7.0
6.079	8.0
6.094	10.0
6.109	9.0
6.124	8.0
6.139	8.0
6.154	6.0
6.169	7.0
6.184	11.0
6.199	8.0
6.214	6.0
6.229	11.0
6.244	8.0
6.259	8.0
6.274	9.0
6.289	7.0
6.304	14.0
6.319	14.0
6.334	12.0
6.349	14.0
6.364	4.0
6.379	6.0
6.394	11.0
6.409	4.0
6.424	7.0
6.439	7.0
6.454	12.0
6.469	9.0
6.484	4.0
6.499	9.0
6.514	17.0
6.529	14.0
6.544	9.0
6.559	7.0
6.574	9.0
6.589	9.0
6.604	10.0
6.619	7.0
6.634	8.0
6.649	13.0
6.664	11.0
6.679	10.0
6.694	9.0
6.709	10.0
6.724	5.0
6.739	6.0
6.754	7.0
6.769	14.0
6.784	10.0
6.799	10.0
6.814	10.0
6.829	6.0
6.844	10.0
6.859	12.0
6.873	8.0
6.888	3.0
6.903	1.0
6.918	10.0
6.933	15.0
6.948	12.0
6.963	8.0
6.978	7.0
6.993	13.0
7.008	8.0
7.023	8.0
7.038	7.0
7.053	8.0
7.068	8.0
7.083	8.0
7.098	13.0
7.113	4.0
7.128	7.0
7.143	9.0
7.157	12.0
7.172	7.0
7.187	5.0
7.202	7.0
7.217	9.0
7.232	5.0
7.247	13.0
7.262	12.0
7.277	12.0
7.292	7.0
7.307	5.0
7.322	4.0
7.336	6.0
7.351	2.0
7.366	7.0
7.381	8.0
7.396	10.0
7.411	10.0
7.426	17.0
7.441	3.0
7.456	8.0
7.471	5.0
7.485	8.0
7.5	5.0
7.515	10.0
7.53	10.0
7.545	8.0
7.56	4.0
7.575	9.0
7.59	3.0
7.604	15.0
7.619	7.0
7.634	12.0
7.649	9.0
7.664	15.0
7.679	7.0
7.693	5.0
7.708	5.0
7.723	11.0
7.738	10.0
7.753	9.0
7.768	3.0
7.783	10.0
7.797	6.0
7.812	6.0
7.827	8.0
7.842	5.0
7.857	13.0
7.871	7.0
7.886	6.0
7.901	10.0
7.916	6.0
7.931	8.0
7.945	8.0
7.96	8.0
7.975	9.0
7.99	10.0
8.005	9.0
8.019	11.0
8.034	14.0
8.049	8.0
8.064	5.0
8.078	7.0
8.093	4.0
8.108	14.0
8.123	6.0
8.137	5.0
8.152	6.0
8.167	7.0
8.182	6.0
8.196	9.0
8.211	5.0
8.226	7.0
8.241	11.0
8.255	12.0
8.27	10.0
8.285	8.0
8.3	14.0
8.314	6.0
8.329	11.0
8.344	12.0
8.358	7.0
8.373	5.0
8.388	8.0
8.403	7.0
8.417	3.0
8.432	10.0
8.447	9.0
8.461	16.0
8.476	10.0
8.491	9.0
8.505	6.0
8.52	10.0
8.535	8.0
8.55	6.0
8.564	3.0
8.579	7.0
8.594	3.0
8.608	9.0
8.623	11.0
8.638	13.0
8.652	9.0
8.667	9.0
8.682	8.0
8.696	8.0
8.711	6.0
8.726	7.0
8.74	10.0
8.755	7.0
8.77	20.0
8.784	18.0
8.799	8.0
8.814	8.0
8.828	11.0
8.843	11.0
8.858	4.0
8.872	10.0
8.887	3.0
8.902	7.0
8.916	12.0
8.931	9.0
8.946	16.0
8.96	12.0
8.975	9.0
8.99	12.0
9.004	11.0
9.019	6.0
9.034	9.0
9.048	13.0
9.063	4.0
9.077	6.0
9.092	13.0
9.107	12.0
9.121	8.0
9.136	8.0
9.151	12.0
9.165	8.0
9.18	12.0
9.195	14.0
9.209	19.0
9.224	17.0
9.239	10.0
9.253	11.0
9.268	8.0
9.283	9.0
9.297	10.0
9.312	8.0
9.327	8.0
9.341	9.0
9.356	7.0
9.371	11.0
9.385	8.0
9.4	9.0
9.415	8.0
9.429	12.0
9.444	14.0
9.458	8.0
9.473	8.0
9.488	10.0
9.502	9.0
9.517	11.0
9.532	9.0
9.546	5.0
9.561	5.0
9.576	7.0
9.59	5.0
9.605	7.0
9.62	9.0
9.635	5.0
9.649	5.0
9.664	11.0
9.679	9.0
9.693	3.0
9.708	11.0
9.723	10.0
9.737	7.0
9.752	10.0
9.767	4.0
9.781	12.0
9.796	7.0
9.811	7.0
9.825	5.0
9.84	5.0
9.855	7.0
9.87	5.0
9.884	12.0
9.899	16.0
9.914	4.0
9.928	9.0
9.943	10.0
9.958	5.0
9.973	6.0
9.987	12.0
10.002	11.0
10.017	7.0
10.031	8.0
10.046	8.0
10.061	6.0
10.076	7.0
10.09	11.0
10.105	7.0
10.12	12.0
10.135	8.0
10.149	7.0
10.164	7.0
10.179	5.0
10.194	4.0
10.208	5.0
10.223	12.0
10.238	1.0
10.253	7.0
10.267	7.0
10.282	4.0
10.297	15.0
10.312	11.0
10.326	5.0
10.341	5.0
10.356	2.0
10.371	2.0
10.386	5.0
10.4	7.0
10.415	5.0
10.43	8.0
10.445	6.0
10.46	12.0
10.474	2.0
10.489	4.0
10.504	8.0
10.519	12.0
10.533	5.0
10.548	15.0
10.563	5.0
10.578	8.0
10.593	6.0
10.608	3.0
10.622	12.0
10.637	6.0
10.652	10.0
10.667	7.0
10.682	10.0
10.696	3.0
10.711	8.0
10.726	4.0
10.741	7.0
10.756	3.0
10.771	5.0
10.785	5.0
10.8	5.0
10.815	10.0
10.83	13.0
10.845	8.0
10.86	3.0
10.874	12.0
10.889	10.0
10.904	5.0
10.919	10.0
10.934	8.0
10.949	10.0
10.963	12.0
10.978	6.0
10.993	8.0
11.008	7.0
11.023	9.0
11.038	4.0
11.053	7.0
11.067	9.0
11.082	7.0
11.097	10.0
11.112	11.0
11.127	12.0
11.142	10.0
11.157	11.0
11.172	7.0
11.186	7.0
11.201	4.0
11.216	10.0
11.231	6.0
11.246	12.0
11.261	6.0
11.276	8.0
11.291	6.0
11.305	9.0
11.32	6.0
11.335	10.0
11.35	10.0
11.365	10.0
11.38	8.0
11.395	8.0
11.41	10.0
11.424	9.0
11.439	8.0
11.454	13.0
11.469	10.0
11.484	11.0
11.499	9.0
11.514	6.0
11.529	10.0
11.544	9.0
11.558	8.0
11.573	4.0
11.588	8.0
11.603	8.0
11.618	10.0
11.633	13.0
11.648	10.0
11.663	6.0
11.678	12.0
11.693	9.0
11.707	9.0
11.722	4.0
11.737	8.0
11.752	7.0
11.767	8.0
11.782	11.0
11.797	8.0
11.812	9.0
11.827	8.0
11.842	10.0
11.856	7.0
11.871	16.0
11.886	7.0
11.901	9.0
11.916	12.0
11.931	12.0
11.946	15.0
11.961	9.0
11.976	10.0
11.991	5.0
12.006	7.0
12.02	14.0
12.035	8.0
12.05	9.0
12.065	8.0
12.08	13.0
12.095	9.0
12.11	8.0
12.125	6.0
12.14	7.0
12.155	16.0
12.17	12.0
12.184	6.0
12.199	10.0
12.214	14.0
12.229	15.0
12.244	13.0
12.259	13.0
12.274	15.0
12.289	9.0
12.304	13.0
12.319	9.0
12.334	10.0
12.348	6.0
12.363	15.0
12.378	12.0
12.393	15.0
12.408	11.0
12.423	14.0
12.438	11.0
12.453	18.0
12.468	12.0
12.483	11.0
12.498	10.0
12.513	14.0
12.527	15.0
12.542	10.0
12.557	13.0
12.572	17.0
12.587	17.0
12.602	18.0
12.617	14.0
12.632	15.0
12.647	7.0
12.662	9.0
12.677	16.0
12.692	15.0
12.707	18.0
12.721	16.0
12.736	18.0
12.751	15.0
12.766	13.0
12.781	10.0
12.796	14.0
12.811	14.0
12.826	20.0
12.841	16.0
12.856	7.0
12.871	22.0
12.886	10.0
12.9	11.0
12.915	13.0
12.93	17.0
12.945	14.0
12.96	19.0
12.975	20.0
12.99	17.0
13.005	17.0
13.02	12.0
13.035	14.0
13.05	26.0
13.065	14.0
13.08	16.0
13.094	20.0
13.109	12.0
13.124	18.0
13.139	9.0
13.154	18.0
13.169	21.0
13.184	24.0
13.199	21.0
13.214	12.0
13.229	18.0
13.244	18.0
13.259	23.0
13.274	16.0
13.288	24.0
13.303	24.0
13.318	28.0
13.333	20.0
13.348	21.0
13.363	19.0
13.378	36.0
13.393	27.0
13.408	25.0
13.423	29.0
13.438	32.0
13.453	32.0
13.468	39.0
13.482	38.0
13.497	42.0
13.512	23.0
13.527	45.0
13.542	39.0
13.557	37.0
13.572	50.0
13.587	58.0
13.602	55.0
13.617	78.0
13.632	71.0
13.647	58.0
13.662	70.0
13.677	90.0
13.691	94.0
13.706	104.0
13.721	86.0
13.736	98.0
13.751	102.0
13.766	112.0
13.781	122.0
13.796	123.0
13.811	127.0
13.826	124.0
13.841	124.0
13.856	124.0
13.871	133.0
13.885	117.0
13.9	96.0
13.915	70.0
13.93	66.0
13.945	70.0
13.96	57.0
13.975	43.0
13.99	25.0
14.005	44.0
14.02	31.0
14.035	35.0
14.05	26.0
14.065	25.0
14.08	15.0
14.094	24.0
14.109	20.0
14.124	24.0
14.139	30.0
14.154	22.0
14.169	25.0
14.184	24.0
14.199	17.0
14.214	20.0
14.229	24.0
14.244	19.0
14.259	34.0
14.274	26.0
14.288	22.0
14.303	18.0
14.318	19.0
14.333	14.0
14.348	20.0
14.363	19.0
14.378	15.0
14.393	24.0
14.408	21.0
14.423	20.0
14.438	10.0
14.453	16.0
14.468	6.0
14.482	23.0
14.497	17.0
14.512	16.0
14.527	18.0
14.542	17.0
14.557	16.0
14.572	13.0
14.587	14.0
14.602	25.0
14.617	17.0
14.632	21.0
14.647	21.0
14.661	21.0
14.676	9.0
14.691	15.0
14.706	17.0
14.721	15.0
14.736	10.0
14.751	18.0
14.766	17.0
14.781	12.0
14.796	13.0
14.811	17.0
14.826	18.0
14.84	10.0
14.855	21.0
14.87	13.0
14.885	17.0
14.9	18.0
14.915	15.0
14.93	13.0
14.945	22.0
14.96	10.0
14.975	17.0
14.989	12.0
15.004	16.0
15.019	17.0
15.034	16.0
15.049	10.0
15.064	13.0
15.079	13.0
15.094	11.0
15.109	12.0
15.124	12.0
15.138	16.0
15.153	16.0
15.168	23.0
15.183	12.0
15.198	18.0
15.213	11.0
15.228	16.0
15.243	22.0
15.258	14.0
15.272	16.0
15.287	13.0
15.302	11.0
15.317	13.0
15.332	19.0
15.347	14.0
15.362	17.0
15.377	11.0
15.391	17.0
15.406	17.0
15.421	14.0
15.436	17.0
15.451	15.0
15.466	11.0
15.481	16.0
15.496	15.0
15.51	17.0
15.525	14.0
15.54	10.0
15.555	15.0
15.57	19.0
15.585	12.0
15.6	15.0
15.614	15.0
15.629	18.0
15.644	19.0
15.659	20.0
15.674	17.0
15.689	12.0
15.704	15.0
15.718	13.0
15.733	12.0
15.748	21.0
15.763	16.0
15.778	11.0
15.793	12.0
15.808	11.0
15.822	17.0
15.837	15.0
15.852	12.0
15.867	11.0
15.882	14.0
15.897	14.0
15.911	8.0
15.926	12.0
15.941	15.0
15.956	15.0
15.971	11.0
15.986	15.0
16.0	14.0
16.015	12.0
16.03	15.0
16.045	21.0
16.06	15.0
16.074	13.0
16.089	8.0
16.104	10.0
16.119	12.0
16.134	15.0
16.149	11.0
16.163	19.0
16.178	15.0
16.193	19.0
16.208	15.0
16.223	20.0
16.237	14.0
16.252	14.0
16.267	19.0
16.282	11.0
16.297	14.0
16.311	12.0
16.326	21.0
16.341	17.0
16.356	14.0
16.37	16.0
16.385	15.0
16.4	12.0
16.415	12.0
16.43	8.0
16.444	21.0
16.459	18.0
16.474	15.0
16.489	11.0
16.504	15.0
16.518	8.0
16.533	16.0
16.548	19.0
16.563	21.0
16.577	16.0
16.592	18.0
16.607	24.0
16.622	26.0
16.637	22.0
16.651	25.0
16.666	21.0
16.681	33.0
16.696	23.0
16.71	30.0
16.725	32.0
16.74	35.0
16.755	24.0
16.77	29.0
16.784	39.0
16.799	45.0
16.814	46.0
16.829	43.0
16.843	58.0
16.858	59.0
16.873	57.0
16.888	64.0
16.902	69.0
16.917	71.0
16.932	68.0
16.947	77.0
16.961	84.0
16.976	77.0
16.991	58.0
17.006	68.0
17.021	59.0
17.035	55.0
17.05	47.0
17.065	41.0
17.08	33.0
17.094	32.0
17.109	29.0
17.124	24.0
17.139	30.0
17.153	25.0
17.168	16.0
17.183	16.0
17.198	18.0
17.212	14.0
17.227	15.0
17.242	17.0
17.257	15.0
17.271	18.0
17.286	11.0
17.301	14.0
17.316	15.0
17.33	18.0
17.345	17.0
17.36	16.0
17.375	5.0
17.39	14.0
17.404	11.0
17.419	15.0
17.434	20.0
17.449	9.0
17.463	15.0
17.478	16.0
17.493	6.0
17.508	16.0
17.522	9.0
17.537	16.0
17.552	12.0
17.567	18.0
17.581	8.0
17.596	19.0
17.611	13.0
17.626	13.0
17.641	13.0
17.655	16.0
17.67	15.0
17.685	18.0
17.7	18.0
17.714	24.0
17.729	9.0
17.744	10.0
17.759	9.0
17.773	9.0
17.788	12.0
17.803	18.0
17.818	17.0
17.833	8.0
17.847	17.0
17.862	16.0
17.877	7.0
17.892	10.0
17.906	14.0
17.921	14.0
17.936	7.0
17.951	9.0
17.966	12.0
17.98	10.0
17.995	10.0
18.01	12.0
18.025	14.0
18.04	8.0
18.054	13.0
18.069	8.0
18.084	14.0
18.099	6.0
18.114	10.0
18.128	16.0
18.143	13.0
18.158	17.0
18.173	7.0
18.188	10.0
18.202	9.0
18.217	8.0
18.232	15.0
18.247	12.0
18.262	9.0
18.276	19.0
18.291	9.0
18.306	10.0
18.321	10.0
18.336	14.0
18.35	16.0
18.365	14.0
18.38	9.0
18.395	16.0
18.41	15.0
18.424	9.0
18.439	14.0
18.454	12.0
18.469	14.0
18.484	9.0
18.498	8.0
18.513	13.0
18.528	11.0
18.543	8.0
18.558	6.0
18.573	11.0
18.587	13.0
18.602	5.0
18.617	13.0
18.632	7.0
18.647	10.0
18.661	16.0
18.676	8.0
18.691	12.0
18.706	9.0
18.721	13.0
18.736	22.0
18.75	5.0
18.765	11.0
18.78	13.0
18.795	12.0
18.81	9.0
18.825	10.0
18.839	12.0
18.854	12.0
18.869	15.0
18.884	16.0
18.899	11.0
18.913	8.0
18.928	9.0
18.943	16.0
18.958	9.0
18.973	9.0
18.988	9.0
19.002	11.0
19.017	12.0
19.032	13.0
19.047	8.0
19.062	16.0
19.077	13.0
19.091	9.0
19.106	14.0
19.121	19.0
19.136	17.0
19.151	12.0
19.165	12.0
19.18	8.0
19.195	11.0
19.21	12.0
19.225	8.0
19.24	10.0
19.254	19.0
19.269	19.0
19.284	20.0
19.299	20.0
19.314	18.0
19.329	12.0
19.343	22.0
19.358	13.0
19.373	10.0
19.388	20.0
19.403	21.0
19.417	19.0
19.432	19.0
19.447	25.0
19.462	26.0
19.477	33.0
19.492	23.0
19.506	41.0
19.521	30.0
19.536	26.0
19.551	33.0
19.566	51.0
19.58	34.0
19.595	33.0
19.61	36.0
19.625	33.0
19.64	38.0
19.655	35.0
19.669	35.0
19.684	33.0
19.699	35.0
19.714	27.0
19.729	41.0
19.743	25.0
19.758	22.0
19.773	18.0
19.788	13.0
19.803	18.0
19.817	15.0
19.832	12.0
19.847	10.0
19.862	13.0
19.877	20.0
19.891	8.0
19.906	12.0
19.921	15.0
19.936	9.0
19.951	13.0
19.965	15.0
19.98	17.0
19.995	10.0
20.01	15.0
20.025	14.0
20.039	13.0
20.054	15.0
20.069	9.0
20.084	12.0
20.099	7.0
20.113	11.0
20.128	10.0
20.143	13.0
20.158	12.0
20.173	15.0
20.187	14.0
20.202	10.0
20.217	13.0
20.232	14.0
20.246	7.0
20.261	7.0
20.276	11.0
20.291	15.0
20.306	11.0
20.32	10.0
20.335	10.0
20.35	13.0
20.365	8.0
20.38	12.0
20.394	10.0
20.409	9.0
20.424	11.0
20.439	9.0
20.453	12.0
20.468	9.0
20.483	12.0
20.498	14.0
20.513	12.0
20.527	7.0
20.542	9.0
20.557	10.0
20.572	13.0
20.586	7.0
20.601	11.0
20.616	14.0
20.631	9.0
20.646	11.0
20.66	10.0
20.675	11.0
20.69	10.0
20.705	2.0
20.719	11.0
20.734	9.0
20.749	14.0
20.764	10.0
20.779	12.0
20.793	11.0
20.808	13.0
20.823	12.0
20.838	12.0
20.853	12.0
20.867	13.0
20.882	9.0
20.897	11.0
20.912	13.0
20.926	13.0
20.941	10.0
20.956	5.0
20.971	13.0
20.986	13.0
21.0	12.0
21.015	13.0
21.03	10.0
21.045	16.0
21.06	13.0
21.074	16.0
21.089	13.0
21.104	16.0
21.119	13.0
21.134	8.0
21.148	13.0
21.163	12.0
21.178	13.0
21.193	13.0
21.208	11.0
21.222	7.0
21.237	16.0
21.252	8.0
21.267	14.0
21.282	10.0
21.296	14.0
21.311	9.0
21.326	16.0
21.341	18.0
21.356	17.0
21.37	12.0
21.385	15.0
21.4	13.0
21.415	8.0
21.43	13.0
21.444	15.0
21.459	12.0
21.474	10.0
21.489	14.0
21.504	14.0
21.519	13.0
21.533	13.0
21.548	14.0
21.563	17.0
21.578	15.0
21.593	7.0
21.608	16.0
21.622	15.0
21.637	19.0
21.652	10.0
21.667	16.0
21.682	18.0
21.697	19.0
21.712	16.0
21.726	30.0
21.741	22.0
21.756	25.0
21.771	30.0
21.786	37.0
21.801	38.0
21.816	37.0
21.83	48.0
21.845	61.0
21.86	48.0
21.875	56.0
21.89	78.0
21.905	60.0
21.92	80.0
21.935	73.0
21.949	95.0
21.964	89.0
21.979	76.0
21.994	76.0
22.009	80.0
22.024	65.0
22.039	49.0
22.054	69.0
22.069	45.0
22.083	39.0
22.098	42.0
22.113	31.0
22.128	40.0
22.143	22.0
22.158	23.0
22.173	29.0
22.188	29.0
22.203	21.0
22.218	12.0
22.233	18.0
22.248	18.0
22.262	18.0
22.277	10.0
22.292	17.0
22.307	16.0
22.322	8.0
22.337	16.0
22.352	13.0
22.367	11.0
22.382	21.0
22.397	8.0
22.412	16.0
22.427	16.0
22.442	15.0
22.457	10.0
22.472	3.0
22.487	15.0
22.502	22.0
22.516	12.0
22.531	12.0
22.546	14.0
22.561	10.0
22.576	12.0
22.591	12.0
22.606	10.0
22.621	7.0
22.636	18.0
22.651	9.0
22.666	10.0
22.681	9.0
22.696	9.0
22.711	9.0
22.726	14.0
22.741	9.0
22.756	10.0
22.771	6.0
22.786	13.0
22.801	10.0
22.816	7.0
22.831	5.0
22.846	10.0
22.861	10.0
22.876	15.0
22.891	14.0
22.906	9.0
22.92	10.0
22.935	8.0
22.95	7.0
22.965	7.0
22.98	10.0
22.995	13.0
23.01	11.0
23.025	12.0
23.04	9.0
23.055	12.0
23.07	6.0
23.085	15.0
23.1	12.0
23.115	9.0
23.13	7.0
23.145	5.0
23.16	9.0
23.175	8.0
23.19	9.0
23.205	6.0
23.22	5.0
23.235	6.0
23.25	17.0
23.265	11.0
23.28	11.0
23.295	5.0
23.31	10.0
23.325	11.0
23.34	6.0
23.355	13.0
23.37	11.0
23.384	7.0
23.399	7.0
23.414	14.0
23.429	16.0
23.444	13.0
23.459	8.0
23.474	12.0
23.489	10.0
23.504	11.0
23.519	12.0
23.534	9.0
23.549	14.0
23.564	11.0
23.579	11.0
23.594	12.0
23.609	6.0
23.624	9.0
23.639	7.0
23.654	11.0
23.668	8.0
23.683	9.0
23.698	15.0
23.713	8.0
23.728	11.0
23.743	10.0
23.758	9.0
23.773	9.0
23.788	15.0
23.803	4.0
23.818	10.0
23.833	17.0
23.848	20.0
23.862	17.0
23.877	13.0
23.892	16.0
23.907	21.0
23.922	24.0
23.937	28.0
23.952	23.0
23.967	33.0
23.982	33.0
23.997	41.0
24.011	38.0
24.026	40.0
24.041	41.0
24.056	41.0
24.071	48.0
24.086	48.0
24.101	52.0
24.116	44.0
24.131	41.0
24.145	43.0
24.16	32.0
24.175	47.0
24.19	42.0
24.205	44.0
24.22	30.0
24.235	45.0
24.249	29.0
24.264	27.0
24.279	18.0
24.294	22.0
24.309	15.0
24.324	14.0
24.338	17.0
24.353	19.0
24.368	14.0
24.383	14.0
24.398	13.0
24.413	10.0
24.428	11.0
24.442	14.0
24.457	12.0
24.472	14.0
24.487	13.0
24.502	11.0
24.516	7.0
24.531	9.0
24.546	10.0
24.561	5.0
24.576	5.0
24.591	17.0
24.605	18.0
24.62	21.0
24.635	12.0
24.65	15.0
24.665	14.0
24.679	13.0
24.694	9.0
24.709	13.0
24.724	12.0
24.739	6.0
24.753	14.0
24.768	9.0
24.783	7.0
24.798	7.0
24.813	11.0
24.827	14.0
24.842	11.0
24.857	13.0
24.872	10.0
24.886	6.0
24.901	8.0
24.916	6.0
24.931	9.0
24.946	9.0
24.96	10.0
24.975	14.0
24.99	9.0
25.005	8.0
25.019	6.0
25.034	23.0
25.049	10.0
25.064	10.0
25.078	10.0
25.093	12.0
25.108	6.0
25.123	13.0
25.138	10.0
25.152	5.0
25.167	10.0
25.182	13.0
25.197	7.0
25.211	10.0
25.226	10.0
25.241	7.0
25.256	11.0
25.27	6.0
25.285	9.0
25.3	13.0
25.315	5.0
25.329	14.0
25.344	9.0
25.359	9.0
25.374	9.0
25.388	12.0
25.403	15.0
25.418	13.0
25.433	9.0
25.447	7.0
25.462	13.0
25.477	12.0
25.492	7.0
25.506	14.0
25.521	13.0
25.536	15.0
25.55	15.0
25.565	5.0
25.58	11.0
25.595	9.0
25.609	6.0
25.624	8.0
25.639	9.0
25.654	10.0
25.668	19.0
25.683	15.0
25.698	9.0
25.713	18.0
25.727	13.0
25.742	7.0
25.757	10.0
25.772	8.0
25.786	13.0
25.801	11.0
25.816	8.0
25.83	13.0
25.845	10.0
25.86	10.0
25.875	10.0
25.889	8.0
25.904	14.0
25.919	10.0
25.934	8.0
25.948	10.0
25.963	5.0
25.978	10.0
25.992	13.0
26.007	9.0
26.022	14.0
26.037	8.0
26.051	7.0
26.066	6.0
26.081	11.0
26.096	11.0
26.11	10.0
26.125	8.0
26.14	8.0
26.155	10.0
26.169	16.0
26.184	6.0
26.199	5.0
26.213	8.0
26.228	12.0
26.243	13.0
26.258	10.0
26.272	8.0
26.287	10.0
26.302	12.0
26.317	9.0
26.331	12.0
26.346	13.0
26.361	14.0
26.376	8.0
26.39	9.0
26.405	3.0
26.42	10.0
26.434	9.0
26.449	11.0
26.464	8.0
26.479	5.0
26.493	10.0
26.508	6.0
26.523	8.0
26.538	4.0
26.552	15.0
26.567	10.0
26.582	17.0
26.597	13.0
26.611	4.0
26.626	13.0
26.641	6.0
26.656	9.0
26.67	6.0
26.685	11.0
26.7	10.0
26.715	6.0
26.729	8.0
26.744	6.0
26.759	5.0
26.773	10.0
26.788	6.0
26.803	11.0
26.818	13.0
26.832	12.0
26.847	16.0
26.862	9.0
26.877	8.0
26.891	7.0
26.906	11.0
26.921	6.0
26.936	12.0
26.95	12.0
26.965	5.0
26.98	12.0
26.995	17.0
27.01	5.0
27.024	10.0
27.039	9.0
27.054	14.0
27.069	9.0
27.083	13.0
27.098	12.0
27.113	10.0
27.128	13.0
27.142	5.0
27.157	10.0
27.172	10.0
27.187	13.0
27.201	10.0
27.216	8.0
27.231	9.0
27.246	12.0
27.261	10.0
27.275	9.0
27.29	4.0
27.305	16.0
27.32	12.0
27.334	9.0
27.349	13.0
27.364	10.0
27.379	9.0
27.394	14.0
27.408	3.0
27.423	10.0
27.438	6.0
27.453	16.0
27.467	10.0
27.482	10.0
27.497	10.0
27.512	10.0
27.527	14.0
27.541	9.0
27.556	13.0
27.571	6.0
27.586	9.0
27.601	22.0
27.615	9.0
27.63	5.0
27.645	8.0
27.66	13.0
27.675	17.0
27.689	16.0
27.704	16.0
27.719	15.0
27.734	16.0
27.749	15.0
27.763	12.0
27.778	17.0
27.793	21.0
27.808	19.0
27.823	28.0
27.838	28.0
27.852	20.0
27.867	13.0
27.882	21.0
27.897	19.0
27.912	17.0
27.926	21.0
27.941	27.0
27.956	21.0
27.971	15.0
27.986	16.0
28.001	16.0
28.015	20.0
28.03	12.0
28.045	22.0
28.06	22.0
28.075	24.0
28.09	21.0
28.105	15.0
28.119	15.0
28.134	11.0
28.149	14.0
28.164	17.0
28.179	8.0
28.194	17.0
28.208	9.0
28.223	6.0
28.238	9.0
28.253	9.0
28.268	6.0
28.283	11.0
28.298	8.0
28.312	13.0
28.327	9.0
28.342	17.0
28.357	10.0
28.372	12.0
28.387	10.0
28.402	11.0
28.417	11.0
28.431	6.0
28.446	11.0
28.461	16.0
28.476	9.0
28.491	6.0
28.506	18.0
28.521	12.0
28.536	9.0
28.55	9.0
28.565	8.0
28.58	12.0
28.595	6.0
28.61	7.0
28.625	10.0
28.64	8.0
28.655	11.0
28.669	10.0
28.684	12.0
28.699	6.0
28.714	16.0
28.729	9.0
28.744	12.0
28.759	6.0
28.774	10.0
28.788	7.0
28.803	9.0
28.818	6.0
28.833	12.0
28.848	13.0
28.863	11.0
28.878	14.0
28.893	10.0
28.908	17.0
28.922	12.0
28.937	9.0
28.952	9.0
28.967	18.0
28.982	7.0
28.997	11.0
29.012	11.0
29.027	10.0
29.041	12.0
29.056	14.0
29.071	8.0
29.086	10.0
29.101	12.0
29.116	7.0
29.131	15.0
29.146	11.0
29.16	10.0
29.175	14.0
29.19	14.0
29.205	8.0
29.22	13.0
29.235	13.0
29.25	18.0
29.265	17.0
29.279	11.0
29.294	8.0
29.309	10.0
29.324	15.0
29.339	19.0
29.354	13.0
29.369	16.0
29.384	14.0
29.398	20.0
29.413	12.0
29.428	19.0
29.443	23.0
29.458	22.0
29.473	14.0
29.488	20.0
29.502	38.0
29.517	34.0
29.532	39.0
29.547	37.0
29.562	45.0
29.577	53.0
29.592	62.0
29.606	56.0
29.621	46.0
29.636	51.0
29.651	41.0
29.666	41.0
29.681	39.0
29.695	35.0
29.71	36.0
29.725	41.0
29.74	37.0
29.755	24.0
29.77	39.0
29.784	34.0
29.799	33.0
29.814	34.0
29.829	34.0
29.844	28.0
29.859	18.0
29.873	21.0
29.888	14.0
29.903	14.0
29.918	16.0
29.933	6.0
29.947	17.0
29.962	10.0
29.977	15.0
29.992	11.0
30.007	18.0
30.021	9.0
30.036	18.0
30.051	12.0
30.066	11.0
30.081	9.0
30.095	13.0
30.11	9.0
30.125	20.0
30.14	23.0
30.155	13.0
30.169	16.0
30.184	13.0
30.199	11.0
30.214	15.0
30.228	12.0
30.243	6.0
30.258	11.0
30.273	8.0
30.288	13.0
30.302	7.0
30.317	9.0
30.332	8.0
30.347	12.0
30.361	8.0
30.376	13.0
30.391	13.0
30.406	5.0
30.42	8.0
30.435	13.0
30.45	13.0
30.465	11.0
30.479	6.0
30.494	14.0
30.509	13.0
30.524	17.0
30.538	9.0
30.553	10.0
30.568	19.0
30.583	11.0
30.597	13.0
30.612	7.0
30.627	10.0
30.641	11.0
30.656	10.0
30.671	12.0
30.686	16.0
30.7	12.0
30.715	10.0
30.73	13.0
30.745	8.0
30.759	11.0
30.774	10.0
30.789	6.0
30.803	10.0
30.818	12.0
30.833	18.0
30.848	19.0
30.862	14.0
30.877	10.0
30.892	14.0
30.906	11.0
30.921	12.0
30.936	14.0
30.951	10.0
30.965	8.0
30.98	10.0
30.995	12.0
31.009	9.0
31.024	10.0
31.039	11.0
31.053	15.0
31.068	14.0
31.083	17.0
31.098	19.0
31.112	15.0
31.127	20.0
31.142	25.0
31.156	24.0
31.171	23.0
31.186	31.0
31.2	37.0
31.215	37.0
31.23	36.0
31.245	30.0
31.259	42.0
31.274	42.0
31.289	49.0
31.303	24.0
31.318	37.0
31.333	26.0
31.347	29.0
31.362	28.0
31.377	34.0
31.392	16.0
31.406	33.0
31.421	28.0
31.436	24.0
31.45	16.0
31.465	27.0
31.48	22.0
31.494	23.0
31.509	20.0
31.524	24.0
31.538	14.0
31.553	19.0
31.568	19.0
31.583	9.0
31.597	10.0
31.612	17.0
31.627	12.0
31.641	13.0
31.656	15.0
31.671	16.0
31.685	11.0
31.7	6.0
31.715	14.0
31.729	7.0
31.744	10.0
31.759	3.0
31.774	8.0
31.788	11.0
31.803	14.0
31.818	19.0
31.832	10.0
31.847	10.0
31.862	10.0
31.876	10.0
31.891	14.0
31.906	8.0
31.92	7.0
31.935	15.0
31.95	10.0
31.965	11.0
31.979	8.0
31.994	16.0
32.009	12.0
32.023	7.0
32.038	13.0
32.053	9.0
32.067	9.0
32.082	8.0
32.097	12.0
32.112	12.0
32.126	11.0
32.141	3.0
32.156	10.0
32.17	11.0
32.185	11.0
32.2	11.0
32.214	9.0
32.229	16.0
32.244	8.0
32.259	11.0
32.273	9.0
32.288	10.0
32.303	7.0
32.317	7.0
32.332	5.0
32.347	14.0
32.362	8.0
32.376	14.0
32.391	9.0
32.406	11.0
32.42	6.0
32.435	5.0
32.45	5.0
32.465	12.0
32.479	11.0
32.494	8.0
32.509	8.0
32.523	12.0
32.538	3.0
32.553	7.0
32.568	8.0
32.582	10.0
32.597	8.0
32.612	7.0
32.627	17.0
32.641	10.0
32.656	15.0
32.671	9.0
32.685	11.0
32.7	21.0
32.715	17.0
32.73	20.0
32.744	22.0
32.759	21.0
32.774	31.0
32.788	31.0
32.803	27.0
32.818	25.0
32.833	36.0
32.847	34.0
32.862	20.0
32.877	28.0
32.892	24.0
32.906	19.0
32.921	24.0
32.936	12.0
32.951	12.0
32.965	11.0
32.98	21.0
32.995	23.0
33.009	21.0
33.024	18.0
33.039	15.0
33.054	13.0
33.068	20.0
33.083	18.0
33.098	15.0
33.113	13.0
33.127	16.0
33.142	13.0
33.157	9.0
33.172	11.0
33.186	10.0
33.201	21.0
33.216	11.0
33.231	15.0
33.245	6.0
33.26	14.0
33.275	15.0
33.29	14.0
33.304	15.0
33.319	9.0
33.334	11.0
33.349	12.0
33.363	12.0
33.378	13.0
33.393	7.0
33.408	9.0
33.422	13.0
33.437	5.0
33.452	11.0
33.467	10.0
33.481	8.0
33.496	11.0
33.511	6.0
33.526	6.0
33.54	13.0
33.555	12.0
33.57	5.0
33.585	12.0
33.599	14.0
33.614	6.0
33.629	8.0
33.644	8.0
33.658	10.0
33.673	16.0
33.688	2.0
33.703	7.0
33.718	14.0
33.732	10.0
33.747	11.0
33.762	9.0
33.777	12.0
33.791	14.0
33.806	10.0
33.821	13.0
33.836	5.0
33.85	10.0
33.865	8.0
33.88	12.0
33.895	17.0
33.91	11.0
33.924	7.0
33.939	8.0
33.954	8.0
33.969	6.0
33.983	9.0
33.998	5.0
34.013	17.0
34.028	5.0
34.042	14.0
34.057	8.0
34.072	10.0
34.087	17.0
34.102	8.0
34.116	8.0
34.131	16.0
34.146	6.0
34.161	14.0
34.175	12.0
34.19	13.0
34.205	13.0
34.22	13.0
34.235	13.0
34.249	12.0
34.264	12.0
34.279	14.0
34.294	17.0
34.309	12.0
34.323	15.0
34.338	13.0
34.353	14.0
34.368	14.0
34.382	13.0
34.397	13.0
34.412	13.0
34.427	10.0
34.442	10.0
34.456	16.0
34.471	9.0
34.486	14.0
34.501	14.0
34.516	7.0
34.53	10.0
34.545	12.0
34.56	10.0
34.575	13.0
34.59	8.0
34.604	16.0
34.619	14.0
34.634	6.0
34.649	7.0
34.664	8.0
34.678	10.0
34.693	7.0
34.708	13.0
34.723	9.0
34.738	18.0
34.752	6.0
34.767	10.0
34.782	13.0
34.797	11.0
34.812	9.0
34.826	6.0
34.841	9.0
34.856	8.0
34.871	8.0
34.886	8.0
34.9	11.0
34.915	5.0
34.93	13.0
34.945	5.0
34.96	8.0
34.974	8.0
34.989	9.0
35.004	11.0
35.019	11.0
35.034	5.0
35.048	12.0
35.063	3.0
35.078	9.0
35.093	6.0
35.108	9.0
35.122	9.0
35.137	16.0
35.152	9.0
35.167	10.0
35.182	6.0
35.196	10.0
35.211	13.0
35.226	5.0
35.241	9.0
35.256	3.0
35.27	9.0
35.285	14.0
35.3	11.0
35.315	8.0
35.33	9.0
35.344	4.0
35.359	10.0
35.374	3.0
35.389	9.0
35.404	10.0
35.418	7.0
35.433	4.0
35.448	13.0
35.463	8.0
35.478	12.0
35.493	9.0
35.507	11.0
35.522	12.0
35.537	8.0
35.552	8.0
35.567	11.0
35.581	9.0
35.596	6.0
35.611	15.0
35.626	9.0
35.641	8.0
35.655	9.0
35.67	23.0
35.685	15.0
35.7	13.0
35.715	15.0
35.729	11.0
35.744	14.0
35.759	27.0
35.774	16.0
35.789	19.0
35.804	16.0
35.818	16.0
35.833	10.0
35.848	19.0
35.863	15.0
35.878	17.0
35.892	16.0
35.907	19.0
35.922	10.0
35.937	19.0
35.952	19.0
35.966	15.0
35.981	13.0
35.996	8.0
36.011	15.0
36.026	16.0
36.04	7.0
36.055	11.0
36.07	10.0
36.085	8.0
36.1	10.0
36.114	10.0
36.129	9.0
36.144	17.0
36.159	7.0
36.174	3.0
36.189	4.0
36.203	7.0
36.218	7.0
36.233	9.0
36.248	11.0
36.263	8.0
36.277	6.0
36.292	7.0
36.307	6.0
36.322	10.0
36.337	6.0
36.351	7.0
36.366	5.0
36.381	7.0
36.396	7.0
36.411	8.0
36.426	6.0
36.44	7.0
36.455	9.0
36.47	9.0
36.485	13.0
36.5	10.0
36.514	8.0
36.529	8.0
36.544	6.0
36.559	4.0
36.574	5.0
36.589	5.0
36.603	6.0
36.618	15.0
36.633	9.0
36.648	4.0
36.663	7.0
36.677	9.0
36.692	8.0
36.707	2.0
36.722	9.0
36.737	7.0
36.752	9.0
36.766	7.0
36.781	6.0
36.796	6.0
36.811	6.0
36.826	5.0
36.841	10.0
36.855	4.0
36.87	7.0
36.885	5.0
36.9	10.0
36.915	4.0
36.93	5.0
36.944	8.0
36.959	10.0
36.974	7.0
36.989	8.0
37.004	12.0
37.019	10.0
37.033	17.0
37.048	11.0
37.063	21.0
37.078	22.0
37.093	19.0
37.108	13.0
37.123	20.0
37.137	28.0
37.152	27.0
37.167	23.0
37.182	22.0
37.197	30.0
37.212	21.0
37.226	25.0
37.241	26.0
37.256	15.0
37.271	26.0
37.286	14.0
37.301	15.0
37.316	17.0
37.331	17.0
37.345	28.0
37.36	25.0
37.375	19.0
37.39	19.0
37.405	16.0
37.42	19.0
37.435	29.0
37.45	12.0
37.464	15.0
37.479	16.0
37.494	16.0
37.509	21.0
37.524	15.0
37.539	12.0
37.554	12.0
37.569	8.0
37.583	6.0
37.598	9.0
37.613	7.0
37.628	6.0
37.643	15.0
37.658	9.0
37.673	8.0
37.688	4.0
37.703	8.0
37.718	10.0
37.733	10.0
37.747	8.0
37.762	4.0
37.777	6.0
37.792	5.0
37.807	7.0
37.822	11.0
37.837	13.0
37.852	13.0
37.867	8.0
37.882	9.0
37.897	8.0
37.912	7.0
37.927	10.0
37.941	9.0
37.956	10.0
37.971	4.0
37.986	3.0
38.001	4.0
38.016	8.0
38.031	8.0
38.046	8.0
38.061	7.0
38.076	4.0
38.091	6.0
38.106	8.0
38.121	7.0
38.136	7.0
38.151	12.0
38.166	7.0
38.181	7.0
38.196	6.0
38.211	8.0
38.226	11.0
38.241	8.0
38.256	8.0
38.271	7.0
38.285	4.0
38.3	6.0
38.315	6.0
38.33	6.0
38.345	7.0
38.36	7.0
38.375	10.0
38.39	9.0
38.405	4.0
38.42	6.0
38.435	6.0
38.45	7.0
38.465	8.0
38.48	9.0
38.495	8.0
38.51	10.0
38.525	2.0
38.54	7.0
38.555	5.0
38.57	7.0
38.585	5.0
38.6	10.0
38.615	4.0
38.63	6.0
38.645	4.0
38.66	5.0
38.675	9.0
38.69	5.0
38.705	5.0
38.72	7.0
38.735	6.0
38.75	6.0
38.765	9.0
38.78	5.0
38.795	7.0
38.81	2.0
38.825	6.0
38.84	2.0
38.855	8.0
38.87	2.0
38.885	8.0
38.9	5.0
38.915	9.0
38.93	7.0
38.945	5.0
38.96	10.0
38.975	4.0
38.99	7.0
39.005	3.0
39.02	4.0
39.035	8.0
39.05	5.0
39.065	6.0
39.08	5.0
39.095	6.0
39.11	7.0
39.125	5.0
39.14	5.0
39.155	13.0
39.17	5.0
39.185	8.0
39.2	9.0
39.215	6.0
39.23	6.0
39.245	2.0
39.26	6.0
39.275	5.0
39.29	8.0
39.305	5.0
39.32	3.0
39.335	9.0
39.35	7.0
39.365	10.0
39.38	3.0
39.395	8.0
39.409	7.0
39.424	3.0
39.439	4.0
39.454	2.0
39.469	9.0
39.484	13.0
39.499	9.0
39.514	6.0
39.529	13.0
39.544	6.0
39.559	12.0
39.574	11.0
39.589	2.0
39.604	6.0
39.619	4.0
39.634	3.0
39.649	8.0
39.664	6.0
39.678	6.0
39.693	6.0
39.708	5.0
39.723	5.0
39.738	12.0
39.753	7.0
39.768	7.0
39.783	2.0
39.798	11.0
39.813	6.0
39.827	5.0
39.842	6.0
39.857	14.0
39.872	6.0
39.887	10.0
39.902	8.0
39.917	4.0
39.932	9.0
39.947	9.0
39.961	7.0
39.976	4.0
39.991	6.0
40.006	11.0
40.021	7.0
40.036	10.0
40.051	9.0
40.065	7.0
40.08	6.0
40.095	5.0
40.11	13.0
40.125	4.0
40.14	2.0
40.154	7.0
40.169	9.0
40.184	9.0
40.199	5.0
40.214	3.0
40.228	7.0
40.243	1.0
40.258	5.0
40.273	4.0
40.288	2.0
40.302	4.0
40.317	6.0
40.332	7.0
40.347	1.0
40.362	7.0
40.376	5.0
40.391	6.0
40.406	6.0
40.421	4.0
40.436	11.0
40.45	4.0
40.465	3.0
40.48	3.0
40.495	8.0
40.509	6.0
40.524	5.0
40.539	5.0
40.554	2.0
40.568	9.0
40.583	4.0
40.598	4.0
40.613	4.0
40.627	8.0
40.642	6.0
40.657	4.0
40.672	4.0
40.686	3.0
40.701	5.0
40.716	4.0
40.731	4.0
40.745	11.0
40.76	5.0
40.775	3.0
40.79	8.0
40.804	3.0
40.819	6.0
40.834	8.0
40.849	5.0
40.863	10.0
40.878	2.0
40.893	7.0
40.907	5.0
40.922	7.0
40.937	5.0
40.952	3.0
40.966	7.0
40.981	5.0
40.996	7.0
41.011	12.0
41.025	13.0
41.04	15.0
41.055	17.0
41.069	15.0
41.084	17.0
41.099	18.0
41.114	19.0
41.128	24.0
41.143	19.0
41.158	16.0
41.173	18.0
41.187	16.0
41.202	16.0
41.217	14.0
41.231	24.0
41.246	8.0
41.261	10.0
41.276	9.0
41.29	13.0
41.305	14.0
41.32	14.0
41.335	13.0
41.349	8.0
41.364	15.0
41.379	8.0
41.393	16.0
41.408	14.0
41.423	13.0
41.438	8.0
41.452	16.0
41.467	12.0
41.482	17.0
41.497	8.0
41.511	14.0
41.526	8.0
41.541	7.0
41.556	11.0
41.57	4.0
41.585	8.0
41.6	14.0
41.615	3.0
41.629	9.0
41.644	5.0
41.659	2.0
41.674	4.0
41.688	3.0
41.703	3.0
41.718	3.0
41.733	9.0
41.747	8.0
41.762	6.0
41.777	6.0
41.792	6.0
41.806	5.0
41.821	4.0
41.836	2.0
41.851	7.0
41.866	9.0
41.88	8.0
41.895	11.0
41.91	8.0
41.925	7.0
41.939	7.0
41.954	6.0
41.969	3.0
41.984	4.0
41.999	13.0
42.013	1.0
42.028	10.0
42.043	7.0
42.058	6.0
42.073	3.0
42.088	5.0
42.102	4.0
42.117	6.0
42.132	8.0
42.147	5.0
42.162	4.0
42.176	5.0
42.191	5.0
42.206	7.0
42.221	4.0
42.236	2.0
42.251	8.0
42.266	5.0
42.28	13.0
42.295	8.0
42.31	10.0
42.325	14.0
42.34	12.0
42.355	10.0
42.369	10.0
42.384	11.0
42.399	16.0
42.414	13.0
42.429	14.0
42.444	18.0
42.459	22.0
42.474	13.0
42.488	10.0
42.503	4.0
42.518	10.0
42.533	4.0
42.548	2.0
42.563	16.0
42.578	12.0
42.593	9.0
42.608	6.0
42.622	7.0
42.637	19.0
42.652	12.0
42.667	6.0
42.682	14.0
42.697	13.0
42.712	12.0
42.727	8.0
42.742	10.0
42.757	9.0
42.772	7.0
42.786	5.0
42.801	5.0
42.816	9.0
42.831	4.0
42.846	8.0
42.861	9.0
42.876	8.0
42.891	4.0
42.906	6.0
42.921	2.0
42.936	5.0
42.951	2.0
42.966	5.0
42.981	4.0
42.996	5.0
43.011	1.0
43.025	3.0
43.04	8.0
43.055	6.0
43.07	3.0
43.085	3.0
43.1	7.0
43.115	4.0
43.13	4.0
43.145	8.0
43.16	7.0
43.175	8.0
43.19	7.0
43.205	2.0
43.22	7.0
43.235	6.0
43.25	10.0
43.265	5.0
43.28	7.0
43.295	5.0
43.31	5.0
43.325	4.0
43.34	8.0
43.355	7.0
43.37	5.0
43.385	7.0
43.4	5.0
43.415	6.0
43.43	5.0
43.445	11.0
43.46	4.0
43.475	4.0
43.49	2.0
43.505	8.0
43.52	5.0
43.535	6.0
43.55	9.0
43.565	8.0
43.58	9.0
43.595	9.0
43.61	9.0
43.625	12.0
43.64	7.0
43.655	12.0
43.67	13.0
43.685	10.0
43.7	10.0
43.715	6.0
43.73	8.0
43.745	5.0
43.76	4.0
43.775	2.0
43.79	6.0
43.805	7.0
43.82	7.0
43.835	10.0
43.85	3.0
43.865	4.0
43.88	11.0
43.895	8.0
43.91	12.0
43.925	9.0
43.94	9.0
43.955	5.0
43.97	13.0
43.985	5.0
44.0	4.0
44.015	5.0
44.03	6.0
44.045	5.0
44.061	8.0
44.076	9.0
44.091	5.0
44.106	5.0
44.121	8.0
44.136	5.0
44.151	2.0
44.166	4.0
44.181	7.0
44.196	6.0
44.211	4.0
44.226	4.0
44.241	7.0
44.256	2.0
44.271	6.0
44.286	6.0
44.301	2.0
44.316	8.0
44.331	9.0
44.346	9.0
44.361	7.0
44.377	6.0
44.392	3.0
44.407	8.0
44.422	3.0
44.437	5.0
44.452	4.0
44.467	10.0
44.482	6.0
44.497	3.0
44.512	3.0
44.527	7.0
44.542	6.0
44.557	3.0
44.572	7.0
44.587	5.0
44.602	7.0
44.617	7.0
44.632	14.0
44.647	1.0
44.663	8.0
44.678	2.0
44.693	9.0
44.708	2.0
44.723	6.0
44.738	10.0
44.753	14.0
44.768	10.0
44.783	8.0
44.798	15.0
44.813	10.0
44.828	11.0
44.843	10.0
44.858	15.0
44.873	10.0
44.888	8.0
44.903	8.0
44.918	6.0
44.933	8.0
44.948	7.0
44.964	5.0
44.979	6.0
44.994	7.0
45.009	8.0
45.024	4.0
45.039	9.0
45.054	6.0
45.069	8.0
45.084	13.0
45.099	6.0
45.114	11.0
45.129	5.0
45.144	9.0
45.159	7.0
45.174	9.0
45.189	3.0
45.204	7.0
45.219	7.0
45.234	5.0
45.249	5.0
45.264	8.0
45.279	6.0
45.294	2.0
45.309	4.0
45.324	5.0
45.339	2.0
45.354	6.0
45.369	3.0
45.384	8.0
45.399	4.0
45.414	8.0
45.429	6.0
45.444	2.0
45.459	7.0
45.474	9.0
45.489	4.0
45.504	5.0
45.519	4.0
45.534	5.0
45.549	6.0
45.564	8.0
45.579	5.0
45.594	4.0
45.609	7.0
45.624	12.0
45.639	2.0
45.654	3.0
45.669	10.0
45.684	3.0
45.699	4.0
45.714	5.0
45.729	10.0
45.744	11.0
45.759	6.0
45.774	3.0
45.789	6.0
45.804	7.0
45.819	4.0
45.834	9.0
45.849	6.0
45.864	7.0
45.879	10.0
45.894	16.0
45.909	13.0
45.924	11.0
45.939	18.0
45.954	12.0
45.969	16.0
45.984	15.0
45.998	14.0
46.013	15.0
46.028	14.0
46.043	12.0
46.058	17.0
46.073	10.0
46.088	4.0
46.103	16.0
46.118	11.0
46.133	5.0
46.148	6.0
46.163	10.0
46.178	11.0
46.192	15.0
46.207	13.0
46.222	13.0
46.237	7.0
46.252	11.0
46.267	16.0
46.282	14.0
46.297	10.0
46.312	10.0
46.327	15.0
46.341	8.0
46.356	6.0
46.371	5.0
46.386	8.0
46.401	9.0
46.416	7.0
46.431	4.0
46.446	2.0
46.46	3.0
46.475	3.0
46.49	11.0
46.505	4.0
46.52	8.0
46.535	6.0
46.55	5.0
46.564	3.0
46.579	4.0
46.594	2.0
46.609	3.0
46.624	7.0
46.639	5.0
46.654	6.0
46.668	2.0
46.683	6.0
46.698	4.0
46.713	4.0
46.728	7.0
46.743	3.0
46.758	4.0
46.772	5.0
46.787	3.0
46.802	4.0
46.817	5.0
46.832	5.0
46.847	3.0
46.861	3.0
46.876	10.0
46.891	9.0
46.906	6.0
46.921	7.0
46.936	2.0
46.95	2.0
46.965	4.0
46.98	2.0
46.995	7.0
47.01	6.0
47.025	8.0
47.039	12.0
47.054	4.0
47.069	7.0
47.084	9.0
47.099	10.0
47.113	9.0
47.128	12.0
47.143	12.0
47.158	9.0
47.173	12.0
47.188	11.0
47.202	10.0
47.217	9.0
47.232	8.0
47.247	8.0
47.262	7.0
47.277	8.0
47.291	6.0
47.306	4.0
47.321	3.0
47.336	9.0
47.351	8.0
47.365	6.0
47.38	6.0
47.395	13.0
47.41	8.0
47.425	7.0
47.44	7.0
47.454	8.0
47.469	9.0
47.484	5.0
47.499	5.0
47.514	4.0
47.528	8.0
47.543	7.0
47.558	4.0
47.573	4.0
47.588	4.0
47.603	5.0
47.617	1.0
47.632	4.0
47.647	5.0
47.662	3.0
47.677	1.0
47.691	6.0
47.706	7.0
47.721	4.0
47.736	5.0
47.751	4.0
47.766	4.0
47.78	4.0
47.795	6.0
47.81	3.0
47.825	9.0
47.84	3.0
47.855	2.0
47.869	6.0
47.884	6.0
47.899	7.0
47.914	3.0
47.929	5.0
47.944	7.0
47.958	3.0
47.973	6.0
47.988	5.0
48.003	3.0
48.018	4.0
48.033	6.0
48.047	5.0
48.062	7.0
48.077	10.0
48.092	4.0
48.107	4.0
48.122	2.0
48.137	2.0
48.151	9.0
48.166	5.0
48.181	3.0
48.196	6.0
48.211	0.0
48.226	1.0
48.241	5.0
48.255	2.0
48.27	4.0
48.285	4.0
48.3	5.0
48.315	7.0
48.33	6.0
48.345	5.0
48.359	2.0
48.374	4.0
48.389	3.0
48.404	9.0
48.419	4.0
48.434	6.0
48.449	7.0
48.464	9.0
48.478	4.0
48.493	5.0
48.508	2.0
48.523	5.0
48.538	4.0
48.553	4.0
48.568	4.0
48.583	1.0
48.597	4.0
48.612	4.0
48.627	4.0
48.642	6.0
48.657	1.0
48.672	4.0
48.687	8.0
48.702	9.0
48.717	2.0
48.731	3.0
48.746	6.0
48.761	7.0
48.776	6.0
48.791	8.0
48.806	5.0
48.821	7.0
48.836	3.0
48.851	7.0
48.866	1.0
48.88	2.0
48.895	5.0
48.91	6.0
48.925	6.0
48.94	6.0
48.955	3.0
48.97	3.0
48.985	3.0
49.0	4.0
49.015	8.0
49.03	2.0
49.044	2.0
49.059	6.0
49.074	2.0
49.089	3.0
49.104	3.0
49.119	9.0
49.134	4.0
49.149	5.0
49.164	0.0
49.179	7.0
49.194	5.0
49.209	7.0
49.224	6.0
49.238	4.0
49.253	4.0
49.268	6.0
49.283	5.0
49.298	10.0
49.313	5.0
49.328	4.0
49.343	4.0
49.358	6.0
49.373	8.0
49.388	9.0
49.403	4.0
49.418	10.0
49.433	12.0
49.448	3.0
49.463	7.0
49.478	2.0
49.492	3.0
49.507	10.0
49.522	3.0
49.537	9.0
49.552	1.0
49.567	7.0
49.582	8.0
49.597	7.0
49.612	5.0
49.627	4.0
49.642	3.0
49.657	3.0
49.672	2.0
49.687	6.0
49.702	5.0
49.717	5.0
49.732	5.0
49.747	8.0
49.762	3.0
49.777	3.0
49.792	5.0
49.807	6.0
49.822	4.0
49.837	2.0
49.852	5.0
49.867	2.0
49.882	2.0
49.897	7.0
49.912	7.0
49.927	3.0
49.942	3.0
49.957	2.0
49.971	4.0
49.986	2.0
50.001	6.0
50.016	4.0
50.031	7.0
50.046	7.0
50.061	6.0
50.076	4.0
50.091	0.0
50.106	5.0
50.121	1.0
50.136	8.0
50.151	2.0
50.166	5.0
50.181	6.0
50.196	7.0
50.211	4.0
50.226	7.0
50.241	6.0
50.256	1.0
50.271	1.0
50.286	4.0
50.302	3.0
50.317	4.0
50.332	11.0
50.347	5.0
50.362	8.0
50.377	4.0
50.392	7.0
50.407	6.0
50.422	6.0
50.437	10.0
50.452	12.0
50.467	13.0
50.482	3.0
50.497	7.0
50.512	7.0
50.527	11.0
50.542	7.0
50.557	6.0
50.572	6.0
50.587	4.0
50.602	5.0
50.617	9.0
50.632	6.0
50.647	4.0
50.662	5.0
50.677	7.0
50.692	8.0
50.707	7.0
50.722	5.0
50.737	8.0
50.752	5.0
50.767	7.0
50.782	3.0
50.797	8.0
50.812	7.0
50.828	4.0
50.843	6.0
50.858	10.0
50.873	4.0
50.888	3.0
50.903	4.0
50.918	8.0
50.933	3.0
50.948	6.0
50.963	6.0
50.978	3.0
50.993	8.0
51.008	8.0
51.023	5.0
51.038	6.0
51.053	7.0
51.068	4.0
51.083	6.0
51.098	4.0
51.114	8.0
51.129	4.0
51.144	3.0
51.159	5.0
51.174	4.0
51.189	3.0
51.204	4.0
51.219	4.0
51.234	4.0
51.249	8.0
51.264	5.0
51.279	6.0
51.294	5.0
51.309	5.0
51.324	2.0
51.34	9.0
51.355	9.0
51.37	4.0
51.385	10.0
51.4	6.0
51.415	11.0
51.43	10.0
51.445	10.0
51.46	13.0
51.475	11.0
51.49	15.0
51.505	14.0
51.52	15.0
51.535	14.0
51.551	29.0
51.566	14.0
51.581	7.0
51.596	18.0
51.611	8.0
51.626	14.0
51.641	5.0
51.656	6.0
51.671	6.0
51.686	9.0
51.701	5.0
51.716	9.0
51.732	6.0
51.747	6.0
51.762	9.0
51.777	4.0
51.792	11.0
51.807	5.0
51.822	11.0
51.837	4.0
51.852	11.0
51.867	9.0
51.882	12.0
51.898	10.0
51.913	9.0
51.928	11.0
51.943	7.0
51.958	4.0
51.973	11.0
51.988	4.0
52.003	2.0
52.018	8.0
52.033	3.0
52.048	4.0
52.064	5.0
52.079	2.0
52.094	5.0
52.109	5.0
52.124	4.0
52.139	11.0
52.154	4.0
52.169	3.0
52.184	3.0
52.199	5.0
52.215	2.0
52.23	7.0
52.245	7.0
52.26	1.0
52.275	7.0
52.29	7.0
52.305	8.0
52.32	1.0
52.335	2.0
52.35	3.0
52.366	5.0
52.381	4.0
52.396	4.0
52.411	5.0
52.426	5.0
52.441	5.0
52.456	8.0
52.471	7.0
52.486	5.0
52.502	4.0
52.517	11.0
52.532	15.0
52.547	7.0
52.562	17.0
52.577	13.0
52.592	6.0
52.607	14.0
52.622	7.0
52.637	9.0
52.653	5.0
52.668	4.0
52.683	5.0
52.698	5.0
52.713	9.0
52.728	5.0
52.743	3.0
52.758	6.0
52.774	13.0
52.789	4.0
52.804	7.0
52.819	11.0
52.834	7.0
52.849	10.0
52.864	5.0
52.879	2.0
52.894	11.0
52.91	9.0
52.925	7.0
52.94	6.0
52.955	6.0
52.97	2.0
52.985	9.0
53.0	4.0
53.015	4.0
53.031	5.0
53.046	9.0
53.061	3.0
53.076	3.0
53.091	3.0
53.106	4.0
53.121	7.0
53.136	3.0
53.152	5.0
53.167	10.0
53.182	4.0
53.197	4.0
53.212	6.0
53.227	8.0
53.242	4.0
53.257	7.0
53.273	5.0
53.288	3.0
53.303	6.0
53.318	4.0
53.333	6.0
53.348	5.0
53.363	2.0
53.379	7.0
53.394	2.0
53.409	3.0
53.424	4.0
53.439	4.0
53.454	4.0
53.469	8.0
53.484	6.0
53.5	8.0
53.515	4.0
53.53	7.0
53.545	9.0
53.56	5.0
53.575	6.0
53.59	5.0
53.606	3.0
53.621	5.0
53.636	8.0
53.651	1.0
53.666	2.0
53.681	5.0
53.696	6.0
53.712	3.0
53.727	3.0
53.742	3.0
53.757	9.0
53.772	4.0
53.787	7.0
53.802	3.0
53.818	7.0
53.833	5.0
53.848	5.0
53.863	7.0
53.878	5.0
53.893	3.0
53.909	8.0
53.924	4.0
53.939	9.0
53.954	7.0
53.969	3.0
53.984	5.0
53.999	3.0
54.015	4.0
54.03	5.0
54.045	1.0
54.06	5.0
54.075	6.0
54.09	8.0
54.106	1.0
54.121	5.0
54.136	6.0
54.151	5.0
54.166	5.0
54.181	4.0
54.197	3.0
54.212	7.0
54.227	3.0
54.242	1.0
54.257	6.0
54.272	5.0
54.288	6.0
54.303	3.0
54.318	3.0
54.333	1.0
54.348	3.0
54.363	2.0
54.379	4.0
54.394	4.0
54.409	1.0
54.424	3.0
54.439	4.0
54.454	8.0
54.47	3.0
54.485	9.0
54.5	6.0
54.515	5.0
54.53	9.0
54.545	7.0
54.561	12.0
54.576	7.0
54.591	9.0
54.606	12.0
54.621	15.0
54.636	16.0
54.652	13.0
54.667	19.0
54.682	11.0
54.697	10.0
54.712	14.0
54.727	12.0
54.743	15.0
54.758	6.0
54.773	5.0
54.788	5.0
54.803	4.0
54.819	3.0
54.834	6.0
54.849	6.0
54.864	4.0
54.879	3.0
54.894	5.0
54.91	15.0
54.925	10.0
54.94	5.0
54.955	13.0
54.97	11.0
54.985	10.0
55.001	5.0
55.016	3.0
55.031	10.0
55.046	8.0
55.061	8.0
55.077	5.0
55.092	3.0
55.107	3.0
55.122	7.0
55.137	4.0
55.152	2.0
55.168	4.0
55.183	4.0
55.198	4.0
55.213	4.0
55.228	2.0
55.243	2.0
55.259	2.0
55.274	9.0
55.289	2.0
55.304	5.0
55.319	5.0
55.335	6.0
55.35	3.0
55.365	4.0
55.38	6.0
55.395	5.0
55.41	6.0
55.426	5.0
55.441	5.0
55.456	5.0
55.471	3.0
55.486	9.0
55.501	3.0
55.517	3.0
55.532	5.0
55.547	5.0
55.562	7.0
55.577	4.0
55.592	9.0
55.608	8.0
55.623	9.0
55.638	5.0
55.653	5.0
55.668	6.0
55.683	6.0
55.699	9.0
55.714	9.0
55.729	5.0
55.744	3.0
55.759	7.0
55.774	4.0
55.79	5.0
55.805	4.0
55.82	6.0
55.835	5.0
55.85	5.0
55.865	5.0
55.881	8.0
55.896	2.0
55.911	3.0
55.926	4.0
55.941	4.0
55.956	2.0
55.972	6.0
55.987	9.0
56.002	11.0
56.017	7.0
56.032	3.0
56.047	7.0
56.063	8.0
56.078	2.0
56.093	8.0
56.108	6.0
56.123	7.0
56.138	3.0
56.154	4.0
56.169	3.0
56.184	4.0
56.199	3.0
56.214	3.0
56.229	6.0
56.244	4.0
56.26	6.0
56.275	3.0
56.29	3.0
56.305	3.0
56.32	5.0
56.335	4.0
56.351	5.0
56.366	4.0
56.381	2.0
56.396	6.0
56.411	7.0
56.426	3.0
56.441	4.0
56.457	4.0
56.472	1.0
56.487	8.0
56.502	8.0
56.517	6.0
56.532	5.0
56.547	6.0
56.563	3.0
56.578	3.0
56.593	4.0
56.608	7.0
56.623	12.0
56.638	3.0
56.653	6.0
56.668	2.0
56.684	3.0
56.699	10.0
56.714	8.0
56.729	6.0
56.744	4.0
56.759	5.0
56.774	5.0
56.79	5.0
56.805	4.0
56.82	4.0
56.835	7.0
56.85	6.0
56.865	4.0
56.88	11.0
56.895	6.0
56.911	8.0
56.926	5.0
56.941	3.0
56.956	4.0
56.971	4.0
56.986	6.0
57.001	4.0
57.016	3.0
57.031	6.0
57.047	5.0
57.062	6.0
57.077	3.0
57.092	6.0
57.107	2.0
57.122	6.0
57.137	4.0
57.152	5.0
57.167	7.0
57.183	5.0
57.198	6.0
57.213	4.0
57.228	6.0
57.243	3.0
57.258	4.0
57.273	5.0
57.288	3.0
57.303	5.0
57.318	5.0
57.334	7.0
57.349	5.0
57.364	6.0
57.379	4.0
57.394	2.0
57.409	1.0
57.424	6.0
57.439	2.0
57.454	3.0
57.469	1.0
57.484	1.0
57.5	6.0
57.515	5.0
57.53	3.0
57.545	8.0
57.56	2.0
57.575	6.0
57.59	3.0
57.605	12.0
57.62	4.0
57.635	2.0
57.65	5.0
57.665	5.0
57.68	4.0
57.696	7.0
57.711	5.0
57.726	4.0
57.741	4.0
57.756	3.0
57.771	1.0
57.786	5.0
57.801	7.0
57.816	8.0
57.831	5.0
57.846	3.0
57.861	3.0
57.876	1.0
57.891	5.0
57.906	7.0
57.921	1.0
57.937	5.0
57.952	6.0
57.967	10.0
57.982	5.0
57.997	4.0
58.012	4.0
58.027	5.0
58.042	3.0
58.057	5.0
58.072	5.0
58.087	7.0
58.102	9.0
58.117	5.0
58.132	5.0
58.147	5.0
58.162	3.0
58.177	5.0
58.192	5.0
58.207	6.0
58.222	4.0
58.237	2.0
58.252	3.0
58.267	3.0
58.282	8.0
58.297	8.0
58.312	4.0
58.327	3.0
58.342	3.0
58.357	1.0
58.372	2.0
58.387	3.0
58.402	7.0
58.418	1.0
58.433	5.0
58.448	2.0
58.463	7.0
58.478	4.0
58.493	4.0
58.508	4.0
58.523	5.0
58.538	5.0
58.553	11.0
58.568	5.0
58.583	11.0
58.598	11.0
58.613	15.0
58.628	11.0
58.643	9.0
58.658	9.0
58.673	8.0
58.688	4.0
58.703	13.0
58.718	12.0
58.733	6.0
58.748	6.0
58.763	4.0
58.778	5.0
58.793	8.0
58.808	6.0
58.823	13.0
58.838	6.0
58.853	4.0
58.868	3.0
58.883	6.0
58.898	5.0
58.913	6.0
58.928	2.0
58.942	3.0
58.957	3.0
58.972	9.0
58.987	9.0
59.002	9.0
59.017	6.0
59.032	7.0
59.047	10.0
59.062	6.0
59.077	3.0
59.092	5.0
59.107	8.0
59.122	9.0
59.137	3.0
59.152	7.0
59.167	5.0
59.182	4.0
59.197	4.0
59.212	2.0
59.227	4.0
59.242	6.0
59.257	4.0
59.272	6.0
59.287	3.0
59.302	5.0
59.317	3.0
59.332	5.0
59.347	1.0
59.362	4.0
59.377	6.0
59.392	4.0
59.407	4.0
59.422	10.0
59.437	8.0
59.452	3.0
59.467	9.0
59.482	6.0
59.497	1.0
59.512	4.0
59.527	8.0
59.542	5.0
59.557	8.0
59.572	8.0
59.587	10.0
59.602	6.0
59.617	9.0
59.632	5.0
59.647	5.0
59.661	5.0
59.676	7.0
59.691	9.0
59.706	5.0
59.721	7.0
59.736	5.0
59.751	3.0
59.766	4.0
59.781	6.0
59.796	4.0
59.811	2.0
59.826	6.0
59.841	6.0
59.856	5.0
59.871	5.0
59.886	7.0
59.901	6.0
59.916	6.0
59.931	11.0
59.946	3.0
59.961	9.0
59.976	6.0
59.991	7.0
60.006	9.0
60.021	11.0
60.036	6.0
60.051	1.0
60.066	9.0
60.081	5.0
60.096	4.0
60.111	5.0
60.126	4.0
60.141	0.0
60.156	2.0
60.171	4.0
60.186	8.0
60.201	5.0
60.216	4.0
60.231	3.0
60.246	8.0
60.261	4.0
60.276	5.0
60.291	6.0
60.306	3.0
60.321	2.0
60.336	3.0
60.35	7.0
60.365	4.0
60.38	1.0
60.395	3.0
60.41	5.0
60.425	3.0
60.44	5.0
60.455	4.0
60.47	4.0
60.485	7.0
60.5	10.0
60.515	9.0
60.53	6.0
60.545	6.0
60.56	6.0
60.575	7.0
60.59	2.0
60.605	8.0
60.62	5.0
60.635	8.0
60.65	7.0
60.665	6.0
60.68	6.0
60.695	5.0
60.71	6.0
60.725	6.0
60.74	4.0
60.755	6.0
60.77	4.0
60.785	4.0
60.8	4.0
60.815	6.0
60.83	3.0
60.845	8.0
60.86	5.0
60.875	7.0
60.89	3.0
60.905	9.0
60.92	6.0
60.935	3.0
60.95	7.0
60.965	9.0
60.98	2.0
60.995	11.0
61.01	8.0
61.025	3.0
61.04	3.0
61.055	6.0
61.07	4.0
61.085	3.0
61.1	4.0
61.115	5.0
61.13	2.0
61.145	5.0
61.16	7.0
61.175	4.0
61.191	4.0
61.206	5.0
61.221	4.0
61.236	2.0
61.251	1.0
61.266	3.0
61.281	6.0
61.296	3.0
61.311	3.0
61.326	4.0
61.341	6.0
61.356	6.0
61.371	8.0
61.386	4.0
61.401	9.0
61.416	3.0
61.431	6.0
61.446	5.0
61.461	8.0
61.476	5.0
61.491	5.0
61.506	4.0
61.521	12.0
61.536	9.0
61.551	8.0
61.566	6.0
61.581	5.0
61.596	7.0
61.611	3.0
61.626	6.0
61.641	3.0
61.656	4.0
61.672	7.0
61.687	4.0
61.702	3.0
61.717	9.0
61.732	8.0
61.747	6.0
61.762	5.0
61.777	5.0
61.792	4.0
61.807	6.0
61.822	5.0
61.837	4.0
61.852	3.0
61.867	4.0
61.882	2.0
61.897	4.0
61.912	4.0
61.927	3.0
61.943	6.0
61.958	6.0
61.973	3.0
61.988	6.0
62.003	4.0
62.018	7.0
62.033	5.0
62.048	3.0
62.063	3.0
62.078	3.0
62.093	4.0
62.108	4.0
62.123	3.0
62.138	5.0
62.153	0.0
62.169	0.0
62.184	4.0
62.199	4.0
62.214	3.0
62.229	3.0
62.244	5.0
62.259	7.0
62.274	3.0
62.289	3.0
62.304	3.0
62.319	2.0
62.335	4.0
62.35	2.0
62.365	7.0
62.38	3.0
62.395	3.0
62.41	2.0
62.425	2.0
62.44	2.0
62.455	7.0
62.47	3.0
62.485	7.0
62.501	5.0
62.516	5.0
62.531	8.0
62.546	6.0
62.561	6.0
62.576	3.0
62.591	0.0
62.606	2.0
62.621	6.0
62.636	4.0
62.652	1.0
62.667	3.0
62.682	2.0
62.697	3.0
62.712	4.0
62.727	2.0
62.742	5.0
62.757	9.0
62.772	5.0
62.787	2.0
62.803	7.0
62.818	5.0
62.833	6.0
62.848	5.0
62.863	3.0
62.878	3.0
62.893	9.0
62.908	7.0
62.923	5.0
62.939	7.0
62.954	4.0
62.969	7.0
62.984	4.0
62.999	6.0
63.014	2.0
63.029	5.0
63.044	5.0
63.059	4.0
63.074	4.0
63.09	3.0
63.105	3.0
63.12	0.0
63.135	6.0
63.15	6.0
63.165	3.0
63.18	2.0
63.195	2.0
63.21	0.0
63.226	5.0
63.241	3.0
63.256	3.0
63.271	4.0
63.286	5.0
63.301	3.0
63.316	6.0
63.331	6.0
63.346	5.0
63.362	3.0
63.377	3.0
63.392	10.0
63.407	9.0
63.422	5.0
63.437	5.0
63.452	5.0
63.467	4.0
63.482	4.0
63.497	3.0
63.513	7.0
63.528	2.0
63.543	7.0
63.558	1.0
63.573	6.0
63.588	3.0
63.603	4.0
63.618	6.0
63.633	9.0
63.648	3.0
63.664	5.0
63.679	4.0
63.694	2.0
63.709	6.0
63.724	6.0
63.739	2.0
63.754	4.0
63.769	6.0
63.784	8.0
63.799	6.0
63.814	6.0
63.83	6.0
63.845	7.0
63.86	6.0
63.875	5.0
63.89	1.0
63.905	2.0
63.92	4.0
63.935	8.0
63.95	6.0
63.965	5.0
63.98	5.0
63.996	2.0
64.011	2.0
64.026	5.0
64.041	6.0
64.056	2.0
64.071	7.0
64.086	2.0
64.101	2.0
64.116	4.0
64.131	4.0
64.146	3.0
64.161	4.0
64.176	2.0
64.191	7.0
64.207	6.0
64.222	2.0
64.237	1.0
64.252	4.0
64.267	0.0
64.282	1.0
64.297	3.0
64.312	4.0
64.327	4.0
64.342	3.0
64.357	3.0
64.372	1.0
64.387	3.0
64.402	2.0
64.417	3.0
64.433	2.0
64.448	3.0
64.463	6.0
64.478	1.0
64.493	4.0
64.508	2.0
64.523	3.0
64.538	6.0
64.553	1.0
64.568	2.0
64.583	3.0
64.598	4.0
64.613	9.0
64.628	5.0
64.643	3.0
64.658	5.0
64.673	1.0
64.688	6.0
64.703	1.0
64.718	3.0
64.734	3.0
64.749	5.0
64.764	7.0
64.779	2.0
64.794	2.0
64.809	6.0
64.824	4.0
64.839	2.0
64.854	3.0
64.869	3.0
64.884	4.0
64.899	3.0
64.914	3.0
64.929	7.0
64.944	3.0
64.959	6.0
64.974	0.0
64.989	1.0
65.004	6.0
65.019	3.0
65.034	0.0
65.049	2.0
65.064	4.0
65.079	6.0
65.094	4.0
65.109	6.0
65.125	3.0
65.14	10.0
65.155	5.0
65.17	5.0
65.185	3.0
65.2	2.0
65.215	1.0
65.23	10.0
65.245	6.0
65.26	5.0
65.275	5.0
65.29	7.0
65.305	7.0
65.32	3.0
65.335	5.0
65.35	9.0
65.365	3.0
65.38	4.0
65.395	3.0
65.41	5.0
65.425	5.0
65.44	3.0
65.455	2.0
65.47	5.0
65.485	4.0
65.5	3.0
65.515	3.0
65.53	6.0
65.545	3.0
65.56	2.0
65.575	3.0
65.59	2.0
65.605	3.0
65.62	1.0
65.635	0.0
65.65	4.0
65.666	3.0
65.681	7.0
65.696	3.0
65.711	5.0
65.726	9.0
65.741	5.0
65.756	6.0
65.771	4.0
65.786	4.0
65.801	5.0
65.816	2.0
65.831	2.0
65.846	2.0
65.861	1.0
65.876	5.0
65.891	7.0
65.906	7.0
65.921	4.0
65.936	4.0
65.951	5.0
65.966	5.0
65.981	2.0
65.996	4.0
66.011	3.0
66.026	2.0
66.041	5.0
66.056	3.0
66.071	5.0
66.086	2.0
66.101	7.0
66.116	7.0
66.131	5.0
66.146	6.0
66.161	5.0
66.176	7.0
66.191	7.0
66.206	11.0
66.221	8.0
66.236	3.0
66.251	7.0
66.266	5.0
66.281	9.0
66.296	7.0
66.311	5.0
66.327	3.0
66.342	3.0
66.357	2.0
66.372	3.0
66.387	3.0
66.402	1.0
66.417	7.0
66.432	7.0
66.447	6.0
66.462	4.0
66.477	5.0
66.492	7.0
66.507	3.0
66.522	3.0
66.537	7.0
66.552	8.0
66.567	7.0
66.582	9.0
66.597	2.0
66.612	7.0
66.627	2.0
66.642	6.0
66.657	11.0
66.672	5.0
66.687	3.0
66.702	3.0
66.717	3.0
66.732	5.0
66.747	3.0
66.762	2.0
66.777	2.0
66.792	3.0
66.807	3.0
66.822	3.0
66.837	1.0
66.853	3.0
66.868	9.0
66.883	1.0
66.898	3.0
66.913	3.0
66.928	4.0
66.943	5.0
66.958	7.0
66.973	4.0
66.988	3.0
67.003	6.0
67.018	3.0
67.033	6.0
67.048	4.0
67.063	10.0
67.078	5.0
67.093	8.0
67.108	5.0
67.123	2.0
67.138	3.0
67.153	5.0
67.168	5.0
67.183	8.0
67.198	7.0
67.214	3.0
67.229	4.0
67.244	4.0
67.259	2.0
67.274	5.0
67.289	1.0
67.304	4.0
67.319	4.0
67.334	3.0
67.349	6.0
67.364	1.0
67.379	4.0
67.394	3.0
67.409	6.0
67.424	3.0
67.439	1.0
67.454	7.0
67.469	3.0
67.484	2.0
67.5	7.0
67.515	2.0
67.53	3.0
67.545	6.0
67.56	2.0
67.575	6.0
67.59	5.0
67.605	5.0
67.62	1.0
67.635	4.0
67.65	4.0
67.665	3.0
67.68	2.0
67.695	5.0
67.71	3.0
67.726	2.0
67.741	7.0
67.756	4.0
67.771	2.0
67.786	4.0
67.801	0.0
67.816	5.0
67.831	4.0
67.846	1.0
67.861	2.0
67.876	5.0
67.891	2.0
67.906	5.0
67.922	6.0
67.937	3.0
67.952	5.0
67.967	4.0
67.982	5.0
67.997	6.0
68.012	4.0
68.027	3.0
68.042	4.0
68.057	5.0
68.072	6.0
68.087	3.0
68.103	3.0
68.118	2.0
68.133	5.0
68.148	4.0
68.163	5.0
68.178	3.0
68.193	1.0
68.208	4.0
68.223	2.0
68.238	2.0
68.254	3.0
68.269	2.0
68.284	4.0
68.299	4.0
68.314	3.0
68.329	2.0
68.344	2.0
68.359	4.0
68.374	0.0
68.389	3.0
68.405	1.0
68.42	7.0
68.435	1.0
68.45	5.0
68.465	3.0
68.48	5.0
68.495	4.0
68.51	2.0
68.525	8.0
68.54	5.0
68.556	2.0
68.571	4.0
68.586	3.0
68.601	0.0
68.616	3.0
68.631	7.0
68.646	3.0
68.661	5.0
68.676	3.0
68.691	4.0
68.707	6.0
68.722	3.0
68.737	4.0
68.752	5.0
68.767	1.0
68.782	5.0
68.797	3.0
68.812	6.0
68.827	8.0
68.842	6.0
68.857	4.0
68.873	2.0
68.888	9.0
68.903	5.0
68.918	3.0
68.933	6.0
68.948	0.0
68.963	4.0
68.978	3.0
68.993	4.0
69.008	4.0
69.023	1.0
69.038	0.0
69.054	1.0
69.069	4.0
69.084	0.0
69.099	6.0
69.114	6.0
69.129	6.0
69.144	1.0
69.159	1.0
69.174	3.0
69.189	7.0
69.204	2.0
69.219	4.0
69.234	5.0
69.249	4.0
69.264	1.0
69.279	2.0
69.295	4.0
69.31	3.0
69.325	2.0
69.34	1.0
69.355	3.0
69.37	4.0
69.385	3.0
69.4	6.0
69.415	6.0
69.43	5.0
69.445	3.0
69.46	4.0
69.475	5.0
69.49	5.0
69.505	2.0
69.52	6.0
69.535	1.0
69.55	1.0
69.565	10.0
69.58	2.0
69.595	4.0
69.61	4.0
69.625	6.0
69.64	2.0
69.655	4.0
69.67	6.0
69.685	4.0
69.7	5.0
69.715	6.0
69.73	4.0
69.745	6.0
69.76	7.0
69.775	7.0
69.79	8.0
69.805	4.0
69.82	4.0
69.835	5.0
69.85	9.0
69.865	4.0
69.88	3.0
69.895	3.0
69.909	3.0
69.924	6.0
69.939	3.0
69.954	9.0
69.969	5.0
69.984	1.0
69.999	4.0
70.014	6.0
70.029	2.0
70.044	5.0
70.059	2.0
70.074	3.0
70.088	2.0
70.103	4.0
70.118	4.0
70.133	4.0
70.148	2.0
70.163	5.0
70.178	4.0
70.193	5.0
70.208	6.0
70.222	8.0
70.237	4.0
70.252	3.0
70.267	5.0
70.282	5.0
70.297	9.0
70.312	3.0
70.327	5.0
70.341	3.0
70.356	6.0
70.371	1.0
70.386	2.0
70.401	5.0
70.416	4.0
70.43	2.0
70.445	6.0
70.46	8.0
70.475	1.0
70.49	5.0
70.505	3.0
70.519	3.0
70.534	1.0
70.549	3.0
70.564	5.0
70.579	3.0
70.594	2.0
70.608	2.0
70.623	7.0
70.638	5.0
70.653	7.0
70.668	5.0
70.683	6.0
70.697	7.0
70.712	6.0
70.727	9.0
70.742	8.0
70.757	2.0
70.771	3.0
70.786	4.0
70.801	1.0
70.816	6.0
70.831	1.0
70.845	3.0
70.86	3.0
70.875	5.0
70.89	3.0
70.905	2.0
70.92	3.0
70.934	2.0
70.949	6.0
70.964	4.0
70.979	3.0
70.994	6.0
71.008	5.0
71.023	2.0
71.038	2.0
71.053	2.0
71.068	4.0
71.082	7.0
71.097	4.0
71.112	4.0
71.127	6.0
71.142	6.0
71.156	3.0
71.171	5.0
71.186	6.0
71.201	3.0
71.216	4.0
71.231	0.0
71.245	3.0
71.26	5.0
71.275	1.0
71.29	3.0
71.305	3.0
71.319	3.0
71.334	2.0
71.349	4.0
71.364	4.0
71.379	6.0
71.394	3.0
71.408	2.0
71.423	3.0
71.438	4.0
71.453	1.0
71.468	4.0
71.483	3.0
71.497	7.0
71.512	5.0
71.527	0.0
71.542	4.0
71.557	3.0
71.572	4.0
71.586	3.0
71.601	3.0
71.616	3.0
71.631	3.0
71.646	3.0
71.661	1.0
71.676	4.0
71.69	5.0
71.705	6.0
71.72	7.0
71.735	5.0
71.75	4.0
71.765	2.0
71.78	5.0
71.795	3.0
71.81	4.0
71.824	2.0
71.839	3.0
71.854	6.0
71.869	1.0
71.884	7.0
71.899	6.0
71.914	1.0
71.929	5.0
71.944	1.0
71.959	4.0
71.974	5.0
71.988	5.0
72.003	4.0
72.018	3.0
72.033	2.0
72.048	1.0
72.063	3.0
72.078	1.0
72.093	1.0
72.108	2.0
72.123	2.0
72.138	6.0
72.153	1.0
72.168	2.0
72.183	7.0
72.198	7.0
72.213	0.0
72.228	3.0
72.243	4.0
72.258	4.0
72.273	4.0
72.288	3.0
72.303	2.0
72.318	5.0
72.333	4.0
72.348	2.0
72.363	5.0
72.378	5.0
72.393	2.0
72.408	3.0
72.423	5.0
72.438	4.0
72.453	5.0
72.468	2.0
72.483	4.0
72.498	5.0
72.513	6.0
72.528	2.0
72.543	3.0
72.558	7.0
72.573	2.0
72.588	3.0
72.603	3.0
72.618	4.0
72.633	4.0
72.649	2.0
72.664	2.0
72.679	3.0
72.694	2.0
72.709	6.0
72.724	2.0
72.739	3.0
72.754	5.0
72.769	3.0
72.784	6.0
72.799	3.0
72.814	4.0
72.829	6.0
72.845	2.0
72.86	1.0
72.875	3.0
72.89	4.0
72.905	3.0
72.92	4.0
72.935	5.0
72.95	1.0
72.965	4.0
72.98	3.0
72.996	1.0
73.011	3.0
73.026	3.0
73.041	6.0
73.056	7.0
73.071	4.0
73.086	6.0
73.101	5.0
73.117	3.0
73.132	10.0
73.147	4.0
73.162	2.0
73.177	4.0
73.192	2.0
73.207	2.0
73.222	4.0
73.238	3.0
73.253	3.0
73.268	3.0
73.283	3.0
73.298	6.0
73.313	5.0
73.328	3.0
73.343	1.0
73.359	4.0
73.374	3.0
73.389	5.0
73.404	7.0
73.419	4.0
73.434	1.0
73.449	4.0
73.465	2.0
73.48	5.0
73.495	4.0
73.51	3.0
73.525	3.0
73.54	2.0
73.556	2.0
73.571	5.0
73.586	6.0
73.601	6.0
73.616	3.0
73.631	3.0
73.646	3.0
73.662	3.0
73.677	3.0
73.692	3.0
73.707	2.0
73.722	3.0
73.737	5.0
73.752	4.0
73.768	4.0
73.783	3.0
73.798	5.0
73.813	0.0
73.828	5.0
73.843	4.0
73.859	4.0
73.874	10.0
73.889	2.0
73.904	4.0
73.919	5.0
73.934	2.0
73.949	3.0
73.965	5.0
73.98	5.0
73.995	4.0
74.01	3.0
74.025	4.0
74.04	6.0
74.056	4.0
74.071	0.0
74.086	3.0
74.101	5.0
74.116	4.0
74.131	0.0
74.146	5.0
74.162	8.0
74.177	6.0
74.192	3.0
74.207	4.0
74.222	6.0
74.237	4.0
74.252	6.0
74.268	4.0
74.283	5.0
74.298	4.0
74.313	3.0
74.328	6.0
74.343	2.0
74.358	0.0
74.374	3.0
74.389	4.0
74.404	7.0
74.419	6.0
74.434	1.0
74.449	3.0
74.464	2.0
74.48	4.0
74.495	5.0
74.51	7.0
74.525	0.0
74.54	3.0
74.555	1.0
74.57	5.0
74.586	1.0
74.601	4.0
74.616	5.0
74.631	4.0
74.646	3.0
74.661	6.0
74.676	2.0
74.691	5.0
74.707	4.0
74.722	6.0
74.737	10.0
74.752	5.0
74.767	7.0
74.782	1.0
74.797	4.0
74.813	1.0
74.828	1.0
74.843	3.0
74.858	4.0
74.873	2.0
74.888	4.0
74.903	6.0
74.918	3.0
74.934	5.0
74.949	4.0
74.964	2.0
74.979	4.0
74.994	3.0
75.009	3.0
75.024	3.0
75.04	3.0
75.055	3.0
75.07	7.0
75.085	9.0
75.1	7.0
75.115	7.0
75.13	2.0
75.145	4.0
75.161	3.0
75.176	7.0
75.191	4.0
75.206	4.0
75.221	6.0
75.236	1.0
75.251	3.0
75.266	0.0
75.282	3.0
75.297	3.0
75.312	5.0
75.327	4.0
75.342	7.0
75.357	3.0
75.372	1.0
75.387	4.0
75.403	3.0
75.418	8.0
75.433	2.0
75.448	2.0
75.463	7.0
75.478	7.0
75.493	4.0
75.509	5.0
75.524	4.0
75.539	4.0
75.554	2.0
75.569	5.0
75.584	5.0
75.599	3.0
75.614	4.0
75.63	7.0
75.645	7.0
75.66	4.0
75.675	4.0
75.69	1.0
75.705	8.0
75.72	4.0
75.735	2.0
75.751	0.0
75.766	2.0
75.781	3.0
75.796	4.0
75.811	2.0
75.826	1.0
75.841	3.0
75.856	2.0
75.872	4.0
75.887	2.0
75.902	1.0
75.917	4.0
75.932	3.0
75.947	2.0
75.962	4.0
75.977	7.0
75.993	1.0
76.008	2.0
76.023	8.0
76.038	2.0
76.053	5.0
76.068	8.0
76.083	1.0
76.098	5.0
76.114	3.0
76.129	3.0
76.144	3.0
76.159	5.0
76.174	3.0
76.189	2.0
76.204	1.0
76.22	8.0
76.235	2.0
76.25	5.0
76.265	0.0
76.28	5.0
76.295	2.0
76.31	4.0
76.325	1.0
76.341	3.0
76.356	3.0
76.371	1.0
76.386	4.0
76.401	2.0
76.416	3.0
76.431	4.0
76.446	7.0
76.462	6.0
76.477	5.0
76.492	3.0
76.507	1.0
76.522	2.0
76.537	1.0
76.552	2.0
76.567	5.0
76.583	4.0
76.598	3.0
76.613	4.0
76.628	1.0
76.643	3.0
76.658	0.0
76.673	4.0
76.688	6.0
76.704	7.0
76.719	6.0
76.734	3.0
76.749	4.0
76.764	3.0
76.779	8.0
76.794	4.0
76.809	4.0
76.824	4.0
76.84	6.0
76.855	5.0
76.87	1.0
76.885	4.0
76.9	3.0
76.915	0.0
76.93	1.0
76.945	1.0
76.96	5.0
76.976	1.0
76.991	3.0
77.006	3.0
77.021	1.0
77.036	2.0
77.051	7.0
77.066	4.0
77.081	5.0
77.096	3.0
77.112	3.0
77.127	5.0
77.142	6.0
77.157	4.0
77.172	3.0
77.187	4.0
77.202	4.0
77.217	4.0
77.232	2.0
77.247	2.0
77.263	2.0
77.278	3.0
77.293	3.0
77.308	5.0
77.323	7.0
77.338	3.0
77.353	5.0
77.368	3.0
77.383	6.0
77.398	2.0
77.413	7.0
77.428	5.0
77.444	3.0
77.459	6.0
77.474	4.0
77.489	2.0
77.504	3.0
77.519	5.0
77.534	5.0
77.549	6.0
77.564	5.0
77.579	5.0
77.594	5.0
77.609	1.0
77.624	4.0
77.64	6.0
77.655	6.0
77.67	6.0
77.685	4.0
77.7	6.0
77.715	1.0
77.73	3.0
77.745	3.0
77.76	6.0
77.775	4.0
77.79	3.0
77.805	5.0
77.82	4.0
77.835	3.0
77.85	0.0
77.865	5.0
77.88	5.0
77.895	3.0
77.91	4.0
77.926	6.0
77.941	1.0
77.956	4.0
77.971	2.0
77.986	8.0
78.001	5.0
78.016	2.0
78.031	1.0
78.046	5.0
78.061	3.0
78.076	3.0
78.091	5.0
78.106	3.0
78.121	4.0
78.136	5.0
78.151	3.0
78.166	3.0
78.181	5.0
78.196	6.0
78.211	7.0
78.226	4.0
78.241	3.0
78.256	3.0
78.271	4.0
78.286	4.0
78.301	3.0
78.316	1.0
78.331	4.0
78.346	8.0
78.361	5.0
78.376	1.0
78.391	2.0
78.406	3.0
78.421	0.0
78.436	6.0
78.451	4.0
78.466	2.0
78.481	3.0
78.496	1.0
78.511	1.0
78.526	0.0
78.541	6.0
78.556	2.0
78.571	2.0
78.586	2.0
78.601	4.0
78.616	3.0
78.631	2.0
78.646	2.0
78.661	3.0
78.676	4.0
78.691	1.0
78.706	3.0
78.721	3.0
78.736	5.0
78.751	3.0
78.766	4.0
78.781	4.0
78.796	3.0
78.811	1.0
78.826	3.0
78.841	2.0
78.856	6.0
78.871	2.0
78.885	5.0
78.9	4.0
78.915	2.0
78.93	2.0
78.945	4.0
78.96	2.0
78.975	1.0
78.99	5.0
79.005	2.0
79.02	0.0
79.035	2.0
79.05	3.0
79.065	4.0
79.08	8.0
79.095	2.0
79.11	2.0
79.125	3.0
79.14	6.0
79.155	2.0
79.17	6.0
79.185	4.0
79.2	2.0
79.215	2.0
79.23	8.0
79.245	5.0
79.26	3.0
79.275	8.0
79.29	2.0
79.304	2.0
79.319	3.0
79.334	8.0
79.349	4.0
79.364	2.0
79.379	3.0
79.394	6.0
79.409	7.0
79.424	2.0
79.439	2.0
79.454	4.0
79.469	4.0
79.484	6.0
79.499	1.0
79.514	5.0
79.529	0.0
79.544	2.0
79.559	1.0
79.574	4.0
79.589	5.0
79.604	1.0
79.619	3.0
79.634	2.0
79.649	1.0
79.664	6.0
79.679	3.0
79.693	2.0
79.708	3.0
79.723	9.0
79.738	0.0
79.753	4.0
79.768	3.0
79.783	4.0
79.798	5.0
79.813	2.0
79.828	3.0
79.843	2.0
79.858	1.0
79.873	5.0
79.888	2.0
79.903	5.0
79.918	1.0
79.933	1.0
79.948	3.0
79.963	5.0
79.978	1.0
79.993	3.0
80.008	1.0
80.023	4.0
80.038	4.0
80.053	1.0
80.068	3.0
80.083	3.0
80.098	1.0
80.113	3.0
80.128	1.0
80.143	3.0
80.158	6.0
80.173	5.0
80.188	6.0
80.202	9.0
80.217	3.0
80.232	5.0
80.247	4.0
80.262	3.0
80.277	0.0
80.292	5.0
80.307	2.0
80.322	2.0
80.337	4.0
80.352	4.0
80.367	3.0
80.382	5.0
80.397	2.0
80.412	3.0
80.427	4.0
80.442	4.0
80.457	1.0
80.472	3.0
80.487	3.0
80.502	0.0
80.517	2.0
80.532	2.0
80.547	3.0
80.562	3.0
80.577	2.0
80.592	6.0
80.607	2.0
80.622	2.0
80.637	3.0
80.652	2.0
80.667	4.0
80.682	4.0
80.697	2.0
80.712	5.0
80.727	1.0
80.742	6.0
80.757	4.0
80.772	1.0
80.787	4.0
80.802	5.0
80.817	3.0
80.832	3.0
80.847	4.0
80.862	4.0
80.877	4.0
80.892	2.0
80.907	2.0
80.922	5.0
80.937	4.0
80.952	3.0
80.967	5.0
80.982	4.0
80.997	2.0
81.012	2.0
81.027	3.0
81.042	6.0
81.057	2.0
81.072	2.0
81.087	1.0
81.101	3.0
81.116	5.0
81.131	3.0
81.146	1.0
81.161	1.0
81.176	0.0
81.191	4.0
81.206	2.0
81.221	3.0
81.236	3.0
81.251	1.0
81.266	4.0
81.281	7.0
81.296	1.0
81.311	4.0
81.326	5.0
81.341	2.0
81.356	1.0
81.371	3.0
81.386	3.0
81.401	6.0
81.416	1.0
81.431	2.0
81.446	5.0
81.461	5.0
81.476	3.0
81.491	2.0
81.506	3.0
81.521	2.0
81.536	5.0
81.55	3.0
81.565	6.0
81.58	2.0
81.595	6.0
81.61	5.0
81.625	5.0
81.64	4.0
81.655	3.0
81.67	4.0
81.685	4.0
81.7	1.0
81.715	4.0
81.73	4.0
81.745	1.0
81.76	3.0
81.775	1.0
81.79	3.0
81.805	3.0
81.819	5.0
81.834	5.0
81.849	1.0
81.864	6.0
81.879	4.0
81.894	3.0
81.909	3.0
81.924	8.0
81.939	3.0
81.954	0.0
81.969	7.0
81.984	3.0
81.999	5.0
82.013	4.0
82.028	4.0
82.043	0.0
82.058	3.0
82.073	2.0
82.088	3.0
82.103	4.0
82.118	3.0
82.133	1.0
82.148	6.0
82.163	1.0
82.177	1.0
82.192	2.0
82.207	3.0
82.222	5.0
82.237	4.0
82.252	1.0
82.267	2.0
82.282	1.0
82.297	5.0
82.312	1.0
82.326	4.0
82.341	2.0
82.356	7.0
82.371	5.0
82.386	1.0
82.401	7.0
82.416	3.0
82.431	3.0
82.445	3.0
82.46	3.0
82.475	3.0
82.49	5.0
82.505	2.0
82.52	2.0
82.535	5.0
82.55	2.0
82.565	4.0
82.579	7.0
82.594	4.0
82.609	1.0
82.624	3.0
82.639	2.0
82.654	1.0
82.669	0.0
82.684	2.0
82.698	2.0
82.713	3.0
82.728	4.0
82.743	5.0
82.758	5.0
82.773	5.0
82.788	2.0
82.803	7.0
82.817	2.0
82.832	2.0
82.847	7.0
82.862	3.0
82.877	2.0
82.892	3.0
82.907	3.0
82.922	2.0
82.937	3.0
82.951	0.0
82.966	4.0
82.981	3.0
82.996	3.0
83.011	0.0
83.026	2.0
83.041	2.0
83.056	5.0
83.07	0.0
83.085	0.0
83.1	2.0
83.115	2.0
83.13	4.0
83.145	6.0
83.16	3.0
83.175	2.0
83.19	6.0
83.204	3.0
83.219	4.0
83.234	0.0
83.249	4.0
83.264	2.0
83.279	4.0
83.294	3.0
83.309	3.0
83.324	2.0
83.339	1.0
83.353	2.0
83.368	4.0
83.383	2.0
83.398	5.0
83.413	3.0
83.428	3.0
83.443	3.0
83.458	4.0
83.473	6.0
83.488	5.0
83.503	3.0
83.517	6.0
83.532	4.0
83.547	3.0
83.562	2.0
83.577	0.0
83.592	4.0
83.607	7.0
83.622	1.0
83.637	5.0
83.652	1.0
83.667	4.0
83.682	2.0
83.697	0.0
83.712	4.0
83.727	5.0
83.741	1.0
83.756	3.0
83.771	2.0
83.786	4.0
83.801	1.0
83.816	2.0
83.831	4.0
83.846	1.0
83.861	2.0
83.876	0.0
83.891	2.0
83.906	0.0
83.921	2.0
83.936	3.0
83.951	0.0
83.966	0.0
83.981	3.0
83.996	3.0
84.011	2.0
84.026	1.0
84.041	2.0
84.056	2.0
84.071	1.0
84.086	2.0
84.101	6.0
84.116	4.0
84.131	7.0
84.146	4.0
84.161	6.0
84.176	3.0
84.191	5.0
84.206	2.0
84.221	4.0
84.236	2.0
84.251	4.0
84.266	2.0
84.281	3.0
84.296	3.0
84.311	3.0
84.326	7.0
84.341	3.0
84.356	10.0
84.371	4.0
84.386	4.0
84.401	5.0
84.416	6.0
84.431	1.0
84.446	4.0
84.461	5.0
84.476	1.0
84.492	2.0
84.507	3.0
84.522	3.0
84.537	6.0
84.552	4.0
84.567	1.0
84.582	3.0
84.597	2.0
84.612	3.0
84.627	3.0
84.642	3.0
84.657	3.0
84.672	4.0
84.687	2.0
84.702	2.0
84.717	4.0
84.733	3.0
84.748	4.0
84.763	2.0
84.778	0.0
84.793	1.0
84.808	7.0
84.823	2.0
84.838	4.0
84.853	3.0
84.868	1.0
84.883	6.0
84.898	0.0
84.913	3.0
84.929	5.0
84.944	2.0
84.959	7.0
84.974	2.0
84.989	3.0
85.004	3.0
85.019	5.0
85.034	4.0
85.049	1.0
85.064	2.0
85.079	4.0
85.094	4.0
85.11	2.0
85.125	0.0
85.14	10.0
85.155	3.0
85.17	1.0
85.185	3.0
85.2	5.0
85.215	2.0
85.23	3.0
85.245	5.0
85.26	3.0
85.276	4.0
85.291	4.0
85.306	1.0
85.321	4.0
85.336	2.0
85.351	4.0
85.366	1.0
85.381	3.0
85.396	3.0
85.411	3.0
85.426	2.0
85.441	4.0
85.457	1.0
85.472	5.0
85.487	1.0
85.502	5.0
85.517	4.0
85.532	2.0
85.547	3.0
85.562	2.0
85.577	0.0
85.592	1.0
85.607	1.0
85.622	4.0
85.637	4.0
85.653	2.0
85.668	5.0
85.683	3.0
85.698	4.0
85.713	3.0
85.728	0.0
85.743	7.0
85.758	3.0
85.773	0.0
85.788	4.0
85.803	4.0
85.818	1.0
85.833	2.0
85.848	4.0
85.863	2.0
85.879	4.0
85.894	1.0
85.909	4.0
85.924	2.0
85.939	2.0
85.954	3.0
85.969	3.0
85.984	0.0
85.999	2.0
86.014	2.0
86.029	4.0
86.044	2.0
86.059	2.0
86.074	4.0
86.089	6.0
86.104	3.0
86.119	2.0
86.134	4.0
86.149	2.0
86.164	2.0
86.179	4.0
86.194	3.0
86.209	4.0
86.224	6.0
86.239	0.0
86.254	5.0
86.269	1.0
86.284	1.0
86.299	1.0
86.314	4.0
86.33	4.0
86.345	5.0
86.36	2.0
86.375	5.0
86.39	9.0
86.405	6.0
86.42	1.0
86.435	6.0
86.45	1.0
86.465	1.0
86.48	2.0
86.495	1.0
86.51	6.0
86.525	2.0
86.54	3.0
86.555	2.0
86.57	1.0
86.585	1.0
86.6	3.0
86.615	3.0
86.63	5.0
86.645	2.0
86.659	2.0
86.674	4.0
86.689	2.0
86.704	5.0
86.719	3.0
86.734	5.0
86.749	2.0
86.764	4.0
86.779	4.0
86.794	3.0
86.809	3.0
86.824	1.0
86.839	5.0
86.854	6.0
86.869	5.0
86.884	3.0
86.899	8.0
86.914	8.0
86.929	4.0
86.944	7.0
86.959	2.0
86.974	4.0
86.989	0.0
87.004	4.0
87.019	0.0
87.034	4.0
87.049	2.0
87.064	1.0
87.079	5.0
87.094	4.0
87.109	2.0
87.124	5.0
87.139	3.0
87.154	5.0
87.169	0.0
87.184	2.0
87.199	5.0
87.214	5.0
87.229	8.0
87.244	3.0
87.259	7.0
87.274	3.0
87.289	4.0
87.304	2.0
87.319	3.0
87.334	6.0
87.349	3.0
87.364	0.0
87.379	1.0
87.394	3.0
87.409	4.0
87.424	5.0
87.438	1.0
87.453	2.0
87.468	3.0
87.483	4.0
87.498	1.0
87.513	1.0
87.528	1.0
87.543	3.0
87.558	5.0
87.573	5.0
87.588	3.0
87.603	5.0
87.618	3.0
87.633	3.0
87.648	5.0
87.663	4.0
87.678	1.0
87.693	7.0
87.708	5.0
87.723	4.0
87.738	5.0
87.753	1.0
87.768	3.0
87.783	5.0
87.798	4.0
87.813	7.0
87.828	5.0
87.843	9.0
87.858	5.0
87.873	4.0
87.888	4.0
87.903	6.0
87.918	3.0
87.933	2.0
87.948	2.0
87.963	1.0
87.978	2.0
87.993	2.0
88.008	2.0
88.023	1.0
88.038	2.0
88.053	2.0
88.068	3.0
88.083	3.0
88.098	2.0
88.113	5.0
88.128	2.0
88.143	5.0
88.158	6.0
88.174	4.0
88.189	2.0
88.204	2.0
88.219	1.0
88.234	3.0
88.249	2.0
88.264	2.0
88.279	2.0
88.294	4.0
88.309	6.0
88.324	4.0
88.339	3.0
88.354	7.0
88.369	3.0
88.384	0.0
88.399	3.0
88.414	4.0
88.429	5.0
88.444	1.0
88.459	3.0
88.474	2.0
88.489	6.0
88.504	3.0
88.519	5.0
88.534	3.0
88.549	3.0
88.564	1.0
88.58	3.0
88.595	4.0
88.61	2.0
88.625	2.0
88.64	5.0
88.655	2.0
88.67	4.0
88.685	4.0
88.7	1.0
88.715	1.0
88.73	5.0
88.745	3.0
88.76	5.0
88.775	0.0
88.79	7.0
88.805	2.0
88.82	4.0
88.835	2.0
88.85	1.0
88.865	1.0
88.88	2.0
88.895	3.0
88.911	2.0
88.926	5.0
88.941	4.0
88.956	7.0
88.971	3.0
88.986	2.0
89.001	3.0
89.016	3.0
89.031	3.0
89.046	5.0
89.061	4.0
89.076	1.0
89.091	2.0
89.106	3.0
89.121	6.0
89.136	5.0
89.151	6.0
89.166	4.0
89.181	6.0
89.196	4.0
89.211	4.0
89.227	5.0
89.242	2.0
89.257	2.0
89.272	3.0
89.287	3.0
89.302	4.0
89.317	4.0
89.332	3.0
89.347	9.0
89.362	4.0
89.377	3.0
89.392	5.0
89.407	2.0
89.422	8.0
89.437	6.0
89.452	5.0
89.467	2.0
89.482	3.0
89.497	2.0
89.512	1.0
89.527	2.0
89.542	3.0
89.557	4.0
89.572	2.0
89.587	3.0
89.602	2.0
89.617	1.0
89.632	0.0
89.647	1.0
89.662	0.0
89.677	2.0
89.693	4.0
89.708	1.0
89.723	1.0
89.738	3.0
89.753	6.0
89.768	2.0
89.783	3.0
89.798	3.0
89.813	2.0
89.828	2.0
89.843	5.0
89.858	2.0
89.873	3.0
89.888	5.0
89.903	1.0
89.918	3.0
89.933	1.0
89.948	5.0
89.963	6.0
89.978	3.0
89.993	2.0
90.008	3.0
90.023	0.0
90.038	3.0
90.053	2.0
90.068	3.0
90.083	4.0
90.097	7.0
90.112	5.0
90.127	4.0
90.142	2.0
90.157	2.0
90.172	3.0
90.187	6.0
90.202	4.0
90.217	3.0
90.232	6.0
90.247	4.0
90.262	3.0
90.277	5.0
90.292	7.0
90.307	6.0
90.322	5.0
90.337	3.0
90.352	4.0
90.367	5.0
90.382	1.0
90.397	5.0
90.412	1.0
90.427	1.0
90.442	3.0
90.457	2.0
90.472	2.0
90.487	3.0
90.501	4.0
90.516	3.0
90.531	3.0
90.546	2.0
90.561	2.0
90.576	4.0
90.591	5.0
90.606	2.0
90.621	1.0
90.636	4.0
90.651	3.0
90.666	5.0
90.681	3.0
90.696	7.0
90.711	2.0
90.726	4.0
90.741	2.0
90.755	2.0
90.77	0.0
90.785	0.0
90.8	0.0
90.815	5.0
90.83	1.0
90.845	2.0
90.86	0.0
90.875	1.0
90.89	0.0
90.905	7.0
90.92	0.0
90.935	5.0
90.95	5.0
90.965	5.0
90.979	5.0
90.994	2.0
91.009	3.0
91.024	2.0
91.039	6.0
91.054	5.0
91.069	2.0
91.084	7.0
91.099	5.0
91.114	4.0
91.129	9.0
91.144	3.0
91.159	5.0
91.174	2.0
91.188	4.0
91.203	4.0
91.218	3.0
91.233	2.0
91.248	1.0
91.263	3.0
91.278	1.0
91.293	1.0
91.308	5.0
91.323	1.0
91.338	2.0
91.353	2.0
91.368	4.0
91.383	6.0
91.398	0.0
91.412	2.0
91.427	5.0
91.442	1.0
91.457	3.0
91.472	3.0
91.487	3.0
91.502	3.0
91.517	3.0
91.532	4.0
91.547	1.0
91.562	5.0
91.577	1.0
91.592	4.0
91.607	6.0
91.622	5.0
91.637	2.0
91.652	5.0
91.666	3.0
91.681	1.0
91.696	4.0
91.711	7.0
91.726	3.0
91.741	3.0
91.756	3.0
91.771	3.0
91.786	2.0
91.801	2.0
91.816	5.0
91.831	3.0
91.846	3.0
91.861	1.0
91.876	3.0
91.891	4.0
91.906	4.0
91.921	2.0
91.936	2.0
91.951	3.0
91.966	2.0
91.981	3.0
91.995	4.0
92.01	5.0
92.025	1.0
92.04	3.0
92.055	5.0
92.07	1.0
92.085	2.0
92.1	4.0
92.115	2.0
92.13	5.0
92.145	3.0
92.16	4.0
92.175	1.0
92.19	1.0
92.205	2.0
92.22	4.0
92.235	6.0
92.25	2.0
92.265	5.0
92.28	5.0
92.295	2.0
92.31	1.0
92.325	6.0
92.34	3.0
92.355	3.0
92.37	2.0
92.385	5.0
92.4	0.0
92.415	3.0
92.43	5.0
92.445	7.0
92.46	3.0
92.475	3.0
92.49	3.0
92.505	2.0
92.52	4.0
92.535	2.0
92.55	5.0
92.565	3.0
92.58	2.0
92.595	1.0
92.61	1.0
92.625	2.0
92.64	5.0
92.655	2.0
92.67	3.0
92.685	6.0
92.7	8.0
92.715	5.0
92.73	5.0
92.745	2.0
92.76	1.0
92.775	6.0
92.79	6.0
92.805	0.0
92.82	7.0
92.835	2.0
92.85	2.0
92.865	3.0
92.88	2.0
92.895	3.0
92.91	4.0
92.925	3.0
92.94	3.0
92.955	4.0
92.97	6.0
92.985	1.0
93.0	1.0
93.015	2.0
93.03	1.0
93.045	3.0
93.06	1.0
93.075	8.0
93.09	7.0
93.105	4.0
93.12	5.0
93.135	3.0
93.15	5.0
93.165	4.0
93.18	2.0
93.195	0.0
93.21	2.0
93.225	0.0
93.24	2.0
93.255	4.0
93.27	10.0
93.285	3.0
93.3	3.0
93.315	1.0
93.33	6.0
93.345	2.0
93.36	4.0
93.375	3.0
93.39	3.0
93.405	3.0
93.42	3.0
93.435	1.0
93.45	2.0
93.465	6.0
93.48	3.0
93.495	1.0
93.51	2.0
93.525	4.0
93.54	6.0
93.555	5.0
93.57	2.0
93.585	4.0
93.6	4.0
93.615	3.0
93.63	3.0
93.645	2.0
93.66	2.0
93.675	3.0
93.69	3.0
93.705	5.0
93.72	4.0
93.735	2.0
93.75	4.0
93.765	6.0
93.78	4.0
93.795	4.0
93.81	9.0
93.824	1.0
93.839	3.0
93.854	1.0
93.869	3.0
93.884	1.0
93.899	2.0
93.914	4.0
93.929	1.0
93.944	2.0
93.959	2.0
93.974	3.0
93.989	2.0
94.004	3.0
94.019	2.0
94.034	6.0
94.049	2.0
94.064	4.0
94.079	2.0
94.094	3.0
94.108	1.0
94.123	3.0
94.138	4.0
94.153	4.0
94.168	2.0
94.183	3.0
94.198	3.0
94.213	4.0
94.228	3.0
94.243	4.0
94.258	3.0
94.273	3.0
94.288	4.0
94.302	3.0
94.317	2.0
94.332	7.0
94.347	7.0
94.362	5.0
94.377	8.0
94.392	10.0
94.407	4.0
94.422	6.0
94.437	6.0
94.452	10.0
94.466	4.0
94.481	8.0
94.496	3.0
94.511	3.0
94.526	2.0
94.541	5.0
94.556	3.0
94.571	2.0
94.586	6.0
94.601	3.0
94.615	7.0
94.63	5.0
94.645	3.0
94.66	3.0
94.675	5.0
94.69	2.0
94.705	2.0
94.72	3.0
94.735	6.0
94.749	6.0
94.764	1.0
94.779	1.0
94.794	8.0
94.809	0.0
94.824	1.0
94.839	6.0
94.854	5.0
94.868	3.0
94.883	3.0
94.898	6.0
94.913	3.0
94.928	2.0
94.943	2.0
94.958	4.0
94.973	8.0
94.987	4.0
95.002	3.0
95.017	5.0
95.032	2.0
95.047	3.0
95.062	4.0
95.077	3.0
95.092	4.0
95.106	3.0
95.121	5.0
95.136	2.0
95.151	7.0
95.166	6.0
95.181	2.0
95.196	2.0
95.211	1.0
95.226	6.0
95.24	0.0
95.255	2.0
95.27	2.0
95.285	1.0
95.3	8.0
95.315	4.0
95.33	3.0
95.345	3.0
95.359	3.0
95.374	7.0
95.389	6.0
95.404	0.0
95.419	5.0
95.434	1.0
95.449	3.0
95.464	3.0
95.478	1.0
95.493	4.0
95.508	2.0
95.523	6.0
95.538	1.0
95.553	2.0
95.568	4.0
95.583	5.0
95.597	2.0
95.612	5.0
95.627	3.0
95.642	1.0
95.657	3.0
95.672	5.0
95.687	3.0
95.702	0.0
95.717	5.0
95.731	4.0
95.746	3.0
95.761	2.0
95.776	2.0
95.791	3.0
95.806	3.0
95.821	5.0
95.836	1.0
95.851	3.0
95.866	3.0
95.88	4.0
95.895	3.0
95.91	1.0
95.925	2.0
95.94	5.0
95.955	4.0
95.97	5.0
95.985	1.0
96.0	6.0
96.015	2.0
96.029	4.0
96.044	11.0
96.059	5.0
96.074	5.0
96.089	5.0
96.104	3.0
96.119	6.0
96.134	2.0
96.149	0.0
96.164	7.0
96.179	6.0
96.194	4.0
96.208	3.0
96.223	2.0
96.238	1.0
96.253	3.0
96.268	3.0
96.283	3.0
96.298	4.0
96.313	3.0
96.328	4.0
96.343	4.0
96.358	3.0
96.373	3.0
96.388	2.0
96.403	5.0
96.417	3.0
96.432	3.0
96.447	3.0
96.462	2.0
96.477	2.0
96.492	2.0
96.507	1.0
96.522	1.0
96.537	2.0
96.552	3.0
96.567	4.0
96.582	3.0
96.597	5.0
96.612	3.0
96.627	7.0
96.642	5.0
96.656	4.0
96.671	3.0
96.686	4.0
96.701	6.0
96.716	1.0
96.731	3.0
96.746	2.0
96.761	2.0
96.776	2.0
96.791	5.0
96.806	4.0
96.821	3.0
96.836	2.0
96.851	4.0
96.866	1.0
96.881	2.0
96.896	4.0
96.911	3.0
96.926	7.0
96.94	4.0
96.955	11.0
96.97	2.0
96.985	3.0
97.0	7.0
97.015	1.0
97.03	4.0
97.045	2.0
97.06	5.0
97.075	4.0
97.09	2.0
97.105	3.0
97.12	3.0
97.135	4.0
97.15	2.0
97.165	4.0
97.18	2.0
97.195	2.0
97.21	3.0
97.225	6.0
97.239	2.0
97.254	3.0
97.269	4.0
97.284	4.0
97.299	2.0
97.314	4.0
97.329	4.0
97.344	4.0
97.359	1.0
97.374	5.0
97.389	6.0
97.404	1.0
97.419	1.0
97.434	4.0
97.449	2.0
97.464	5.0
97.479	4.0
97.494	2.0
97.509	0.0
97.524	3.0
97.538	7.0
97.553	3.0
97.568	1.0
97.583	3.0
97.598	3.0
97.613	3.0
97.628	5.0
97.643	4.0
97.658	3.0
97.673	2.0
97.688	4.0
97.703	3.0
97.718	4.0
97.733	2.0
97.748	4.0
97.763	6.0
97.778	5.0
97.792	0.0
97.807	2.0
97.822	3.0
97.837	1.0
97.852	6.0
97.867	4.0
97.882	3.0
97.897	4.0
97.912	7.0
97.927	3.0
97.942	4.0
97.957	4.0
97.972	3.0
97.987	1.0
98.001	2.0
98.016	3.0
98.031	2.0
98.046	3.0
98.061	2.0
98.076	5.0
98.091	7.0
98.106	2.0
98.121	2.0
98.136	1.0
98.151	2.0
98.166	0.0
98.181	5.0
98.195	5.0
98.21	2.0
98.225	4.0
98.24	5.0
98.255	1.0
98.27	3.0
98.285	3.0
98.3	0.0
98.315	3.0
98.33	4.0
98.345	3.0
98.359	1.0
98.374	4.0
98.389	6.0
98.404	2.0
98.419	1.0
98.434	3.0
98.449	2.0
98.464	2.0
98.479	6.0
98.494	6.0
98.508	6.0
98.523	4.0
98.538	2.0
98.553	3.0
98.568	1.0
98.583	4.0
98.598	4.0
98.613	2.0
98.628	2.0
98.642	4.0
98.657	5.0
98.672	2.0
98.687	7.0
98.702	4.0
98.717	6.0
98.732	3.0
98.747	3.0
98.762	1.0
98.776	2.0
98.791	3.0
98.806	4.0
98.821	2.0
98.836	3.0
98.851	2.0
98.866	6.0
98.881	3.0
98.896	2.0
98.91	4.0
98.925	2.0
98.94	4.0
98.955	3.0
98.97	5.0
98.985	5.0
99.0	2.0
99.015	3.0
99.029	2.0
99.044	3.0
99.059	5.0
99.074	2.0
99.089	3.0
99.104	2.0
99.119	3.0
99.133	2.0
99.148	4.0
99.163	7.0
99.178	3.0
99.193	6.0
99.208	6.0
99.223	1.0
99.238	5.0
99.252	3.0
99.267	4.0
99.282	6.0
99.297	7.0
99.312	7.0
99.327	2.0
99.342	4.0
99.356	5.0
99.371	2.0
99.386	6.0
99.401	5.0
99.416	4.0
99.431	4.0
99.446	0.0
99.461	2.0
99.475	4.0
99.49	2.0
99.505	3.0
99.52	3.0
99.535	5.0
99.55	2.0
99.565	1.0
99.579	3.0
99.594	1.0
99.609	3.0
99.624	1.0
99.639	2.0
99.654	3.0
99.669	6.0
99.683	1.0
99.698	3.0
99.713	1.0
99.728	3.0
99.743	1.0
99.758	1.0
99.772	4.0
99.787	3.0
99.802	5.0
99.817	1.0
99.832	2.0
99.847	3.0
99.862	0.0
99.876	3.0
99.891	3.0
99.906	4.0
99.921	4.0
99.936	4.0
99.951	5.0
99.966	1.0
99.98	4.0
99.995	4.0
100.01	5.0
100.025	3.0
100.04	1.0
100.055	1.0
100.069	5.0
100.084	3.0
100.099	1.0
100.114	2.0
100.129	4.0
100.144	1.0
100.159	2.0
100.173	5.0
100.188	3.0
100.203	4.0
100.218	5.0
100.233	3.0
100.248	6.0
100.262	6.0
100.277	3.0
100.292	9.0
100.307	3.0
100.322	2.0
100.337	5.0
100.351	8.0
100.366	8.0
100.381	2.0
100.396	3.0
100.411	2.0
100.426	4.0
100.441	3.0
100.455	3.0
100.47	3.0
100.485	1.0
100.5	4.0
100.515	7.0
100.53	1.0
100.544	4.0
100.559	2.0
100.574	1.0
100.589	4.0
100.604	4.0
100.619	4.0
100.633	3.0
100.648	2.0
100.663	2.0
100.678	2.0
100.693	3.0
100.708	2.0
100.722	4.0
100.737	6.0
100.752	2.0
100.767	6.0
100.782	1.0
100.796	1.0
100.811	5.0
100.826	1.0
100.841	3.0
100.856	2.0
100.871	1.0
100.885	1.0
100.9	0.0
100.915	3.0
100.93	3.0
100.945	3.0
100.96	3.0
100.974	3.0
100.989	5.0
101.004	2.0
101.019	2.0
101.034	6.0
101.048	4.0
101.063	4.0
101.078	1.0
101.093	1.0
101.108	5.0
101.123	6.0
101.137	1.0
101.152	3.0
101.167	5.0
101.182	2.0
101.197	3.0
101.211	1.0
101.226	4.0
101.241	3.0
101.256	4.0
101.271	1.0
101.285	6.0
101.3	5.0
101.315	2.0
101.33	3.0
101.345	5.0
101.359	5.0
101.374	1.0
101.389	1.0
101.404	4.0
101.419	3.0
101.433	4.0
101.448	2.0
101.463	3.0
101.478	7.0
101.493	6.0
101.507	1.0
101.522	2.0
101.537	3.0
101.552	7.0
101.567	1.0
101.581	5.0
101.596	4.0
101.611	1.0
101.626	3.0
101.64	5.0
101.655	4.0
101.67	3.0
101.685	1.0
101.7	2.0
101.714	9.0
101.729	1.0
101.744	3.0
101.759	2.0
101.773	2.0
101.788	2.0
101.803	4.0
101.818	2.0
101.833	1.0
101.847	7.0
101.862	2.0
101.877	3.0
101.892	4.0
101.906	3.0
101.921	4.0
101.936	2.0
101.951	6.0
101.965	3.0
101.98	5.0
101.995	3.0
102.01	4.0
102.025	3.0
102.039	3.0
102.054	8.0
102.069	6.0
102.084	5.0
102.098	2.0
102.113	5.0
102.128	2.0
102.143	1.0
102.157	9.0
102.172	2.0
102.187	4.0
102.202	3.0
102.216	2.0
102.231	7.0
102.246	6.0
102.261	3.0
102.275	2.0
102.29	2.0
102.305	2.0
102.32	2.0
102.334	1.0
102.349	4.0
102.364	4.0
102.378	6.0
102.393	1.0
102.408	3.0
102.423	2.0
102.437	6.0
102.452	5.0
102.467	5.0
102.482	3.0
102.496	7.0
102.511	6.0
102.526	3.0
102.541	2.0
102.555	4.0
102.57	8.0
102.585	2.0
102.6	2.0
102.614	5.0
102.629	4.0
102.644	7.0
102.659	1.0
102.673	5.0
102.688	7.0
102.703	4.0
102.717	3.0
102.732	1.0
102.747	8.0
102.762	4.0
102.776	2.0
102.791	3.0
102.806	2.0
102.821	3.0
102.835	6.0
102.85	0.0
102.865	3.0
102.88	2.0
102.894	1.0
102.909	7.0
102.924	5.0
102.938	5.0
102.953	6.0
102.968	4.0
102.983	5.0
102.997	4.0
103.012	5.0
103.027	3.0
103.042	4.0
103.056	2.0
103.071	4.0
103.086	3.0
103.101	7.0
103.115	3.0
103.13	4.0
103.145	2.0
103.16	3.0
103.174	4.0
103.189	1.0
103.204	2.0
103.219	4.0
103.233	2.0
103.248	3.0
103.263	3.0
103.278	4.0
103.292	2.0
103.307	2.0
103.322	3.0
103.337	3.0
103.351	3.0
103.366	7.0
103.381	2.0
103.396	2.0
103.41	5.0
103.425	2.0
103.44	3.0
103.455	3.0
103.469	2.0
103.484	2.0
103.499	7.0
103.514	4.0
103.529	1.0
103.543	3.0
103.558	2.0
103.573	4.0
103.588	2.0
103.602	3.0
103.617	5.0
103.632	0.0
103.647	7.0
103.661	1.0
103.676	3.0
103.691	3.0
103.706	8.0
103.721	4.0
103.735	2.0
103.75	5.0
103.765	3.0
103.78	5.0
103.795	4.0
103.809	4.0
103.824	2.0
103.839	6.0
103.854	4.0
103.869	2.0
103.883	2.0
103.898	2.0
103.913	2.0
103.928	4.0
103.943	3.0
103.957	0.0
103.972	3.0
103.987	3.0
104.002	5.0
104.017	2.0
104.031	1.0
104.046	1.0
104.061	2.0
104.076	1.0
104.091	0.0
104.106	3.0
104.12	1.0
104.135	3.0
104.15	7.0
104.165	2.0
104.18	4.0
104.195	2.0
104.209	0.0
104.224	0.0
104.239	2.0
104.254	4.0
104.269	4.0
104.284	6.0
104.299	7.0
104.313	3.0
104.328	2.0
104.343	2.0
104.358	3.0
104.373	2.0
104.388	1.0
104.403	3.0
104.417	1.0
104.432	1.0
104.447	10.0
104.462	7.0
104.477	3.0
104.492	5.0
104.507	3.0
104.522	3.0
104.536	3.0
104.551	7.0
104.566	2.0
104.581	5.0
104.596	5.0
104.611	2.0
104.626	3.0
104.641	4.0
104.656	4.0
104.67	3.0
104.685	6.0
104.7	2.0
104.715	4.0
104.73	3.0
104.745	3.0
104.76	2.0
104.775	7.0
104.79	6.0
104.804	1.0
104.819	1.0
104.834	1.0
104.849	3.0
104.864	4.0
104.879	2.0
104.894	6.0
104.909	6.0
104.924	1.0
104.939	2.0
104.954	4.0
104.968	2.0
104.983	1.0
104.998	3.0
105.013	1.0
105.028	4.0
105.043	3.0
105.058	4.0
105.073	2.0
105.088	2.0
105.103	5.0
105.118	3.0
105.133	2.0
105.147	3.0
105.162	3.0
105.177	6.0
105.192	4.0
105.207	3.0
105.222	1.0
105.237	5.0
105.252	2.0
105.267	2.0
105.282	2.0
105.297	5.0
105.312	8.0
105.327	3.0
105.342	3.0
105.356	3.0
105.371	3.0
105.386	3.0
105.401	1.0
105.416	5.0
105.431	4.0
105.446	3.0
105.461	1.0
105.476	4.0
105.491	6.0
105.506	4.0
105.521	3.0
105.536	3.0
105.551	2.0
105.566	2.0
105.581	3.0
105.595	4.0
105.61	3.0
105.625	5.0
105.64	3.0
105.655	5.0
105.67	3.0
105.685	7.0
105.7	3.0
105.715	1.0
105.73	0.0
105.745	0.0
105.76	1.0
105.775	2.0
105.79	2.0
105.805	4.0
105.82	2.0
105.835	6.0
105.85	3.0
105.864	2.0
105.879	4.0
105.894	2.0
105.909	3.0
105.924	2.0
105.939	4.0
105.954	0.0
105.969	4.0
105.984	5.0
105.999	2.0
106.014	2.0
106.029	2.0
106.044	3.0
106.059	4.0
106.074	0.0
106.089	1.0
106.104	1.0
106.119	2.0
106.134	0.0
106.148	2.0
106.163	1.0
106.178	1.0
106.193	4.0
106.208	4.0
106.223	3.0
106.238	1.0
106.253	0.0
106.268	1.0
106.283	2.0
106.298	5.0
106.313	5.0
106.328	3.0
106.343	0.0
106.358	3.0
106.373	1.0
106.388	2.0
106.403	4.0
106.418	6.0
106.432	1.0
106.447	3.0
106.462	1.0
106.477	2.0
106.492	2.0
106.507	2.0
106.522	4.0
106.537	6.0
106.552	0.0
106.567	3.0
106.582	3.0
106.597	3.0
106.612	1.0
106.627	2.0
106.642	1.0
106.657	3.0
106.672	3.0
106.687	6.0
106.701	2.0
106.716	1.0
106.731	3.0
106.746	3.0
106.761	6.0
106.776	1.0
106.791	0.0
106.806	6.0
106.821	2.0
106.836	3.0
106.851	1.0
106.866	3.0
106.881	2.0
106.896	3.0
106.911	6.0
106.926	2.0
106.941	3.0
106.955	4.0
106.97	4.0
106.985	6.0
107.0	7.0
107.015	2.0
107.03	3.0
107.045	4.0
107.06	0.0
107.075	5.0
107.09	2.0
107.105	3.0
107.12	6.0
107.135	4.0
107.15	7.0
107.165	2.0
107.18	2.0
107.194	1.0
107.209	4.0
107.224	6.0
107.239	3.0
107.254	4.0
107.269	5.0
107.284	5.0
107.299	1.0
107.314	5.0
107.329	1.0
107.344	2.0
107.359	2.0
107.374	4.0
107.389	5.0
107.404	3.0
107.418	1.0
107.433	2.0
107.448	5.0
107.463	3.0
107.478	6.0
107.493	2.0
107.508	5.0
107.523	2.0
107.538	3.0
107.553	4.0
107.568	4.0
107.583	4.0
107.598	3.0
107.613	3.0
107.627	1.0
107.642	2.0
107.657	1.0
107.672	6.0
107.687	4.0
107.702	2.0
107.717	3.0
107.732	2.0
107.747	3.0
107.762	3.0
107.777	3.0
107.792	4.0
107.807	2.0
107.821	3.0
107.836	2.0
107.851	2.0
107.866	1.0
107.881	2.0
107.896	2.0
107.911	2.0
107.926	2.0
107.941	4.0
107.956	4.0
107.971	3.0
107.986	4.0
108.0	2.0
108.015	3.0
108.03	4.0
108.045	6.0
108.06	5.0
108.075	5.0
108.09	6.0
108.105	4.0
108.12	1.0
108.135	3.0
108.15	2.0
108.164	8.0
108.179	2.0
108.194	4.0
108.209	3.0
108.224	0.0
108.239	7.0
108.254	5.0
108.269	5.0
108.284	2.0
108.299	4.0
108.313	2.0
108.328	6.0
108.343	5.0
108.358	4.0
108.373	4.0
108.388	4.0
108.403	4.0
108.418	4.0
108.433	1.0
108.448	5.0
108.462	3.0
108.477	5.0
108.492	3.0
108.507	5.0
108.522	8.0
108.537	1.0
108.552	1.0
108.567	5.0
108.582	6.0
108.597	4.0
108.611	5.0
108.626	2.0
108.641	3.0
108.656	2.0
108.671	2.0
108.686	1.0
108.701	9.0
108.716	4.0
108.731	1.0
108.745	5.0
108.76	4.0
108.775	5.0
108.79	3.0
108.805	4.0
108.82	2.0
108.835	2.0
108.85	2.0
108.865	4.0
108.879	4.0
108.894	4.0
108.909	4.0
108.924	7.0
108.939	1.0
108.954	7.0
108.969	2.0
108.984	3.0
108.999	2.0
109.013	4.0
109.028	4.0
109.043	3.0
109.058	1.0
109.073	1.0
109.088	3.0
109.103	7.0
109.118	8.0
109.133	4.0
109.147	1.0
109.162	6.0
109.177	2.0
109.192	2.0
109.207	2.0
109.222	1.0
109.237	3.0
109.252	6.0
109.267	3.0
109.281	2.0
109.296	1.0
109.311	6.0
109.326	3.0
109.341	2.0
109.356	3.0
109.371	4.0
109.386	3.0
109.4	3.0
109.415	2.0
109.43	3.0
109.445	1.0
109.46	3.0
109.475	2.0
109.49	6.0
109.505	5.0
109.52	3.0
109.534	3.0
109.549	1.0
109.564	1.0
109.579	4.0
109.594	1.0
109.609	1.0
109.624	1.0
109.639	2.0
109.653	6.0
109.668	4.0
109.683	1.0
109.698	1.0
109.713	3.0
109.728	3.0
109.743	6.0
109.758	4.0
109.773	4.0
109.787	2.0
109.802	3.0
109.817	2.0
109.832	3.0
109.847	2.0
109.862	3.0
109.877	2.0
109.892	2.0
109.907	1.0
109.921	4.0
109.936	6.0
109.951	2.0
109.966	4.0
109.981	3.0
109.996	2.0
110.011	2.0
110.026	4.0
110.04	1.0
110.055	3.0
110.07	2.0
110.085	2.0
110.1	2.0
110.115	4.0
110.13	3.0
110.145	2.0
110.16	2.0
110.174	4.0
110.189	3.0
110.204	5.0
110.219	5.0
110.234	1.0
110.249	5.0
110.264	4.0
110.279	2.0
110.294	4.0
110.308	2.0
110.323	5.0
110.338	4.0
110.353	2.0
110.368	4.0
110.383	3.0
110.398	2.0
110.413	2.0
110.428	4.0
110.442	4.0
110.457	3.0
110.472	2.0
110.487	4.0
110.502	2.0
110.517	3.0
110.532	1.0
110.547	0.0
110.561	2.0
110.576	3.0
110.591	3.0
110.606	4.0
110.621	5.0
110.636	7.0
110.651	2.0
110.666	3.0
110.681	3.0
110.695	6.0
110.71	4.0
110.725	5.0
110.74	3.0
110.755	5.0
110.77	7.0
110.785	2.0
110.8	10.0
110.815	4.0
110.829	2.0
110.844	1.0
110.859	2.0
110.874	4.0
110.889	4.0
110.904	6.0
110.919	3.0
110.934	4.0
110.948	5.0
110.963	3.0
110.978	1.0
110.993	3.0
111.008	3.0
111.023	2.0
111.038	2.0
111.053	2.0
111.067	2.0
111.082	3.0
111.097	6.0
111.112	3.0
111.127	1.0
111.142	4.0
111.157	1.0
111.172	2.0
111.186	2.0
111.201	3.0
111.216	4.0
111.231	1.0
111.246	6.0
111.261	5.0
111.276	4.0
111.291	1.0
111.305	4.0
111.32	4.0
111.335	1.0
111.35	4.0
111.365	3.0
111.38	3.0
111.395	1.0
111.41	4.0
111.424	3.0
111.439	2.0
111.454	1.0
111.469	2.0
111.484	2.0
111.499	4.0
111.514	2.0
111.528	2.0
111.543	3.0
111.558	5.0
111.573	6.0
111.588	1.0
111.603	1.0
111.618	5.0
111.633	4.0
111.647	2.0
111.662	4.0
111.677	6.0
111.692	3.0
111.707	2.0
111.722	3.0
111.737	8.0
111.751	5.0
111.766	4.0
111.781	1.0
111.796	4.0
111.811	4.0
111.826	3.0
111.84	3.0
111.855	3.0
111.87	1.0
111.885	5.0
111.9	3.0
111.915	3.0
111.93	1.0
111.944	5.0
111.959	2.0
111.974	3.0
111.989	2.0
112.004	3.0
112.019	6.0
112.033	7.0
112.048	6.0
112.063	4.0
112.078	7.0
112.093	5.0
112.108	2.0
112.123	2.0
112.137	4.0
112.152	4.0
112.167	7.0
112.182	4.0
112.197	4.0
112.212	3.0
112.226	2.0
112.241	4.0
112.256	6.0
112.271	2.0
112.286	6.0
112.301	2.0
112.315	4.0
112.33	3.0
112.345	2.0
112.36	3.0
112.375	5.0
112.389	2.0
112.404	3.0
112.419	4.0
112.434	2.0
112.449	3.0
112.464	2.0
112.478	4.0
112.493	6.0
112.508	2.0
112.523	2.0
112.538	4.0
112.553	7.0
112.567	5.0
112.582	6.0
112.597	0.0
112.612	4.0
112.627	4.0
112.642	0.0
112.656	7.0
112.671	3.0
112.686	4.0
112.701	5.0
112.716	2.0
112.73	6.0
112.745	3.0
112.76	5.0
112.775	2.0
112.79	2.0
112.805	5.0
112.819	1.0
112.834	3.0
112.849	1.0
112.864	5.0
112.879	4.0
112.894	5.0
112.908	4.0
112.923	1.0
112.938	4.0
112.953	1.0
112.968	6.0
112.983	3.0
112.997	5.0
113.012	2.0
113.027	5.0
113.042	4.0
113.057	2.0
113.072	2.0
113.086	4.0
113.101	2.0
113.116	6.0
113.131	2.0
113.146	0.0
113.161	0.0
113.175	6.0
113.19	2.0
113.205	2.0
113.22	3.0
113.235	2.0
113.25	3.0
113.265	5.0
113.279	3.0
113.294	4.0
113.309	5.0
113.324	2.0
113.339	2.0
113.354	2.0
113.368	5.0
113.383	3.0
113.398	5.0
113.413	1.0
113.428	3.0
113.443	6.0
113.458	3.0
113.472	0.0
113.487	4.0
113.502	4.0
113.517	4.0
113.532	4.0
113.547	3.0
113.562	4.0
113.576	2.0
113.591	3.0
113.606	1.0
113.621	4.0
113.636	6.0
113.651	5.0
113.666	4.0
113.681	5.0
113.695	6.0
113.71	4.0
113.725	1.0
113.74	4.0
113.755	0.0
113.77	4.0
113.785	1.0
113.8	5.0
113.814	3.0
113.829	5.0
113.844	10.0
113.859	3.0
113.874	1.0
113.889	4.0
113.904	3.0
113.919	5.0
113.934	3.0
113.949	2.0
113.963	2.0
113.978	8.0
113.993	6.0
114.008	7.0
114.023	6.0
114.038	1.0
114.053	6.0
114.068	9.0
114.083	7.0
114.098	3.0
114.113	2.0
114.127	4.0
114.142	3.0
114.157	2.0
114.172	2.0
114.187	0.0
114.202	4.0
114.217	5.0
114.232	3.0
114.247	3.0
114.262	0.0
114.277	3.0
114.292	3.0
114.307	2.0
114.322	6.0
114.337	5.0
114.351	3.0
114.366	7.0
114.381	4.0
114.396	3.0
114.411	3.0
114.426	4.0
114.441	11.0
114.456	4.0
114.471	9.0
114.486	8.0
114.501	6.0
114.516	5.0
114.531	4.0
114.546	4.0
114.561	5.0
114.576	3.0
114.591	2.0
114.606	1.0
114.621	4.0
114.636	3.0
114.65	1.0
114.665	2.0
114.68	2.0
114.695	5.0
114.71	4.0
114.725	2.0
114.74	1.0
114.755	2.0
114.77	2.0
114.785	1.0
114.8	3.0
114.815	2.0
114.83	5.0
114.845	2.0
114.86	3.0
114.875	3.0
114.89	2.0
114.905	4.0
114.92	4.0
114.935	5.0
114.95	3.0
114.965	4.0
114.98	3.0
114.995	3.0
115.009	3.0
115.024	6.0
115.039	4.0
115.054	3.0
115.069	3.0
115.084	3.0
115.099	7.0
115.114	4.0
115.129	4.0
115.144	4.0
115.159	5.0
115.174	1.0
115.189	4.0
115.204	7.0
115.219	2.0
115.234	0.0
115.249	6.0
115.264	2.0
115.279	4.0
115.294	6.0
115.309	10.0
115.323	5.0
115.338	4.0
115.353	2.0
115.368	3.0
115.383	6.0
115.398	6.0
115.413	3.0
115.428	5.0
115.443	3.0
115.458	2.0
115.473	3.0
115.488	4.0
115.503	2.0
115.518	4.0
115.533	3.0
115.548	1.0
115.562	1.0
115.577	2.0
115.592	1.0
115.607	5.0
115.622	0.0
115.637	3.0
115.652	2.0
115.667	5.0
115.682	1.0
115.697	3.0
115.712	3.0
115.727	8.0
115.741	4.0
115.756	4.0
115.771	6.0
115.786	4.0
115.801	1.0
115.816	1.0
115.831	2.0
115.846	2.0
115.861	4.0
115.875	7.0
115.89	7.0
115.905	4.0
115.92	4.0
115.935	3.0
115.95	1.0
115.965	1.0
115.98	3.0
115.995	1.0
116.009	3.0
116.024	3.0
116.039	2.0
116.054	3.0
116.069	6.0
116.084	1.0
116.099	2.0
116.113	3.0
116.128	0.0
116.143	4.0
116.158	3.0
116.173	2.0
116.188	1.0
116.202	2.0
116.217	2.0
116.232	6.0
116.247	4.0
116.262	3.0
116.277	5.0
116.291	2.0
116.306	4.0
116.321	3.0
116.336	3.0
116.351	2.0
116.366	6.0
116.38	3.0
116.395	5.0
116.41	6.0
116.425	9.0
116.44	5.0
116.454	3.0
116.469	4.0
116.484	2.0
116.499	5.0
116.514	5.0
116.528	1.0
116.543	1.0
116.558	5.0
116.573	3.0
116.588	1.0
116.602	2.0
116.617	2.0
116.632	2.0
116.647	4.0
116.662	7.0
116.676	5.0
116.691	6.0
116.706	2.0
116.721	4.0
116.735	7.0
116.75	2.0
116.765	7.0
116.78	0.0
116.795	5.0
116.809	2.0
116.824	5.0
116.839	4.0
116.854	3.0
116.868	7.0
116.883	5.0
116.898	4.0
116.913	4.0
116.927	2.0
116.942	4.0
116.957	4.0
116.972	3.0
116.986	2.0
117.001	7.0
117.016	3.0
117.031	7.0
117.045	5.0
117.06	7.0
117.075	5.0
117.09	1.0
117.104	3.0
117.119	2.0
117.134	5.0
117.149	5.0
117.163	7.0
117.178	9.0
117.193	5.0
117.208	3.0
117.222	3.0
117.237	3.0
117.252	2.0
117.267	4.0
117.281	5.0
117.296	5.0
117.311	2.0
117.325	4.0
117.34	2.0
117.355	3.0
117.37	5.0
117.384	5.0
117.399	6.0
117.414	5.0
117.429	2.0
117.443	1.0
117.458	4.0
117.473	2.0
117.487	2.0
117.502	6.0
117.517	2.0
117.532	3.0
117.546	3.0
117.561	2.0
117.576	4.0
117.59	5.0
117.605	3.0
117.62	6.0
117.635	3.0
117.649	2.0
117.664	2.0
117.679	5.0
117.693	3.0
117.708	3.0
117.723	2.0
117.738	2.0
117.752	4.0
117.767	3.0
117.782	6.0
117.796	2.0
117.811	5.0
117.826	3.0
117.841	1.0
117.855	5.0
117.87	5.0
117.885	3.0
117.899	5.0
117.914	4.0
117.929	3.0
117.944	1.0
117.958	4.0
117.973	8.0
117.988	4.0
118.002	4.0
118.017	7.0
118.032	13.0
118.047	4.0
118.062	5.0
118.077	5.0
118.092	3.0
118.107	5.0
118.121	6.0
118.136	4.0
118.151	2.0
118.166	3.0
118.181	4.0
118.196	2.0
118.211	4.0
118.225	5.0
118.24	1.0
118.255	0.0
118.27	2.0
118.285	11.0
118.3	3.0
118.315	4.0
118.33	4.0
118.344	3.0
118.359	6.0
118.374	2.0
118.389	5.0
118.404	2.0
118.419	4.0
118.434	6.0
118.449	2.0
118.463	2.0
118.478	2.0
118.493	2.0
118.508	3.0
118.523	3.0
118.538	2.0
118.553	5.0
118.567	3.0
118.582	2.0
118.597	5.0
118.612	0.0
118.627	6.0
118.642	3.0
118.657	2.0
118.672	1.0
118.686	3.0
118.701	4.0
118.716	4.0
118.731	3.0
118.746	2.0
118.761	2.0
118.776	3.0
118.791	3.0
118.805	4.0
118.82	6.0
118.835	5.0
118.85	3.0
118.865	3.0
118.88	3.0
118.895	7.0
118.909	6.0
118.924	3.0
118.939	4.0
118.954	8.0
118.969	4.0
118.984	2.0
118.999	6.0
119.014	7.0
119.028	11.0
119.043	2.0
119.058	4.0
119.073	4.0
119.088	3.0
119.103	4.0
119.118	3.0
119.133	5.0
119.147	4.0
119.162	4.0
119.177	2.0
119.192	4.0
119.207	3.0
119.222	5.0
119.237	7.0
119.251	5.0
119.266	6.0
119.281	4.0
119.296	5.0
119.311	4.0
119.326	0.0
119.341	4.0
119.356	3.0
119.37	7.0
119.385	2.0
119.4	1.0
119.415	2.0
119.43	6.0
119.445	4.0
119.46	7.0
119.475	4.0
119.489	1.0
119.504	3.0
119.519	6.0
119.534	4.0
119.549	0.0
119.564	1.0
119.579	4.0
119.593	1.0
119.608	2.0
119.623	1.0
119.638	2.0
119.653	4.0
119.668	3.0
119.683	4.0
119.698	3.0
119.712	7.0
119.727	4.0
119.742	4.0
119.757	1.0
119.772	3.0
119.787	4.0
119.802	3.0
119.817	4.0
119.831	3.0
119.846	6.0
119.861	1.0
119.876	2.0
119.891	4.0
119.906	3.0
119.921	3.0
119.935	1.0
119.95	5.0
119.965	6.0
119.98	0.0
119.995	1.0
120.01	3.0
120.025	0.0
120.04	2.0
120.054	1.0
120.069	2.0
120.084	3.0
120.099	1.0
120.114	1.0
120.129	0.0
120.144	3.0
120.159	1.0
120.173	1.0
120.188	1.0
120.203	2.0
120.218	0.0
120.233	0.0
120.248	1.0
120.263	3.0
120.277	1.0
120.292	0.0
120.307	0.0
120.322	2.0
120.337	1.0
120.352	1.0
120.367	1.0
120.382	0.0
120.396	0.0
120.411	0.0
120.426	0.0
120.441	1.0
120.456	0.0
120.471	0.0
120.486	0.0
120.501	2.0
120.515	0.0
120.53	0.0
120.545	0.0
120.56	1.0
120.575	0.0
120.59	0.0
120.605	1.0
120.619	0.0
120.634	0.0
120.649	0.0
120.664	0.0
120.679	0.0
120.694	0.0
120.709	0.0
120.724	0.0
120.738	0.0
120.753	0.0
120.768	0.0
120.783	0.0
120.798	0.0
120.813	0.0
120.828	0.0
120.843	0.0
120.857	0.0
120.872	0.0
120.887	0.0
120.902	0.0
120.917	0.0
120.932	0.0
120.947	0.0
120.961	0.0
120.976	0.0
