-1.217	0.0
-1.202	0.0
-1.187	0.0
-1.172	0.0
-1.157	0.0
-1.142	0.0
-1.128	0.0
-1.113	0.0
-1.098	0.0
-1.083	0.0
-1.068	0.0
-1.054	0.0
-1.039	0.0
-1.024	1.0
-1.009	0.0
-0.994	0.0
-0.979	0.0
-0.965	0.0
-0.95	0.0
-0.935	0.0
-0.92	0.0
-0.905	0.0
-0.891	0.0
-0.876	0.0
-0.861	0.0
-0.846	0.0
-0.831	0.0
-0.816	0.0
-0.802	0.0
-0.787	0.0
-0.772	0.0
-0.757	0.0
-0.742	0.0
-0.728	0.0
-0.713	0.0
-0.698	0.0
-0.683	0.0
-0.668	0.0
-0.653	0.0
-0.639	0.0
-0.624	0.0
-0.609	0.0
-0.594	0.0
-0.579	0.0
-0.565	0.0
-0.55	0.0
-0.535	0.0
-0.52	0.0
-0.505	0.0
-0.49	0.0
-0.476	0.0
-0.461	0.0
-0.446	0.0
-0.431	0.0
-0.416	0.0
-0.401	0.0
-0.387	0.0
-0.372	0.0
-0.357	0.0
-0.342	0.0
-0.327	0.0
-0.313	0.0
-0.298	0.0
-0.283	0.0
-0.268	0.0
-0.253	0.0
-0.238	1.0
-0.224	0.0
-0.209	0.0
-0.194	0.0
-0.179	0.0
-0.164	0.0
-0.15	0.0
-0.135	0.0
-0.12	0.0
-0.105	0.0
-0.09	0.0
-0.075	0.0
-0.061	0.0
-0.046	0.0
-0.031	0.0
-0.016	0.0
-0.001	0.0
0.013	0.0
0.028	0.0
0.043	0.0
0.058	0.0
0.073	0.0
0.088	0.0
0.102	0.0
0.117	0.0
0.132	0.0
0.147	0.0
0.162	1.0
0.176	0.0
0.191	0.0
0.206	0.0
0.221	0.0
0.236	0.0
0.251	0.0
0.265	0.0
0.28	0.0
0.295	0.0
0.31	0.0
0.325	0.0
0.339	0.0
0.354	0.0
0.369	0.0
0.384	0.0
0.399	0.0
0.414	1.0
0.428	0.0
0.443	0.0
0.458	0.0
0.473	0.0
0.488	0.0
0.502	0.0
0.517	0.0
0.532	0.0
0.547	0.0
0.562	0.0
0.577	0.0
0.591	0.0
0.606	0.0
0.621	0.0
0.636	0.0
0.651	0.0
0.665	0.0
0.68	0.0
0.695	0.0
0.71	0.0
0.725	0.0
0.74	0.0
0.754	0.0
0.769	1.0
0.784	0.0
0.799	0.0
0.814	1.0
0.828	0.0
0.843	0.0
0.858	0.0
0.873	0.0
0.888	0.0
0.903	0.0
0.917	0.0
0.932	0.0
0.947	0.0
0.962	0.0
0.977	0.0
0.991	0.0
1.006	0.0
1.021	0.0
1.036	0.0
1.051	0.0
1.065	0.0
1.08	0.0
1.095	0.0
1.11	0.0
1.125	0.0
1.14	0.0
1.154	0.0
1.169	0.0
1.184	0.0
1.199	0.0
1.214	0.0
1.228	0.0
1.243	0.0
1.258	0.0
1.273	0.0
1.288	0.0
1.302	0.0
1.317	0.0
1.332	0.0
1.347	0.0
1.362	0.0
1.376	0.0
1.391	0.0
1.406	0.0
1.421	0.0
1.436	0.0
1.45	0.0
1.465	0.0
1.48	0.0
1.495	0.0
1.51	0.0
1.524	0.0
1.539	0.0
1.554	1.0
1.569	0.0
1.584	0.0
1.598	0.0
1.613	0.0
1.628	0.0
1.643	0.0
1.658	0.0
1.672	0.0
1.687	0.0
1.702	0.0
1.717	0.0
1.732	0.0
1.746	0.0
1.761	0.0
1.776	0.0
1.791	0.0
1.806	0.0
1.82	0.0
1.835	1.0
1.85	0.0
1.865	1.0
1.88	0.0
1.894	0.0
1.909	0.0
1.924	0.0
1.939	0.0
1.954	0.0
1.968	0.0
1.983	0.0
1.998	0.0
2.013	0.0
2.028	0.0
2.042	0.0
2.057	0.0
2.072	0.0
2.087	0.0
2.101	0.0
2.116	0.0
2.131	0.0
2.146	0.0
2.161	1.0
2.175	0.0
2.19	0.0
2.205	0.0
2.22	0.0
2.235	1.0
2.249	0.0
2.264	1.0
2.279	0.0
2.294	1.0
2.308	0.0
2.323	1.0
2.338	0.0
2.353	1.0
2.368	1.0
2.382	1.0
2.397	1.0
2.412	2.0
2.427	2.0
2.442	2.0
2.456	2.0
2.471	0.0
2.486	2.0
2.501	2.0
2.515	2.0
2.53	1.0
2.545	2.0
2.56	0.0
2.575	3.0
2.589	2.0
2.604	0.0
2.619	0.0
2.634	2.0
2.649	4.0
2.663	2.0
2.678	1.0
2.693	3.0
2.708	3.0
2.722	4.0
2.737	4.0
2.752	2.0
2.767	3.0
2.782	4.0
2.796	3.0
2.811	3.0
2.826	2.0
2.841	6.0
2.856	5.0
2.87	2.0
2.885	3.0
2.9	4.0
2.915	2.0
2.93	4.0
2.944	1.0
2.959	2.0
2.974	5.0
2.989	2.0
3.004	2.0
3.018	5.0
3.033	6.0
3.048	3.0
3.063	4.0
3.078	3.0
3.092	2.0
3.107	3.0
3.122	4.0
3.137	1.0
3.152	7.0
3.166	5.0
3.181	11.0
3.196	3.0
3.211	6.0
3.226	6.0
3.24	0.0
3.255	3.0
3.27	4.0
3.285	2.0
3.3	6.0
3.315	7.0
3.329	3.0
3.344	3.0
3.359	4.0
3.374	11.0
3.389	7.0
3.403	5.0
3.418	2.0
3.433	9.0
3.448	3.0
3.463	4.0
3.478	6.0
3.492	6.0
3.507	4.0
3.522	11.0
3.537	5.0
3.552	7.0
3.567	7.0
3.581	3.0
3.596	7.0
3.611	4.0
3.626	1.0
3.641	4.0
3.656	4.0
3.671	8.0
3.685	5.0
3.7	10.0
3.715	5.0
3.73	7.0
3.745	2.0
3.76	3.0
3.775	2.0
3.789	4.0
3.804	9.0
3.819	6.0
3.834	6.0
3.849	3.0
3.864	7.0
3.879	4.0
3.894	3.0
3.908	8.0
3.923	7.0
3.938	5.0
3.953	5.0
3.968	5.0
3.983	3.0
3.998	5.0
4.013	10.0
4.027	8.0
4.042	7.0
4.057	4.0
4.072	6.0
4.087	6.0
4.102	4.0
4.117	6.0
4.132	7.0
4.147	10.0
4.162	5.0
4.176	9.0
4.191	7.0
4.206	8.0
4.221	7.0
4.236	6.0
4.251	6.0
4.266	9.0
4.281	4.0
4.296	6.0
4.311	6.0
4.326	4.0
4.341	7.0
4.356	4.0
4.37	17.0
4.385	5.0
4.4	10.0
4.415	8.0
4.43	7.0
4.445	10.0
4.46	5.0
4.475	5.0
4.49	6.0
4.505	5.0
4.52	3.0
4.535	4.0
4.55	9.0
4.565	9.0
4.58	7.0
4.595	3.0
4.61	8.0
4.625	6.0
4.639	8.0
4.654	5.0
4.669	3.0
4.684	7.0
4.699	7.0
4.714	17.0
4.729	7.0
4.744	7.0
4.759	6.0
4.774	9.0
4.789	3.0
4.804	5.0
4.819	7.0
4.834	10.0
4.849	12.0
4.864	13.0
4.879	6.0
4.894	5.0
4.909	13.0
4.924	8.0
4.939	6.0
4.954	5.0
4.969	7.0
4.984	7.0
4.999	6.0
5.014	5.0
5.029	9.0
5.044	9.0
5.059	5.0
5.074	8.0
5.089	5.0
5.104	5.0
5.119	6.0
5.134	11.0
5.149	9.0
5.164	9.0
5.179	6.0
5.194	8.0
5.209	11.0
5.224	2.0
5.239	11.0
5.254	7.0
5.269	4.0
5.284	8.0
5.299	11.0
5.314	9.0
5.329	10.0
5.344	8.0
5.359	7.0
5.374	9.0
5.389	9.0
5.404	7.0
5.419	8.0
5.434	4.0
5.449	2.0
5.464	8.0
5.479	3.0
5.494	2.0
5.509	9.0
5.524	11.0
5.539	3.0
5.554	12.0
5.569	10.0
5.584	7.0
5.599	9.0
5.614	7.0
5.629	11.0
5.644	11.0
5.659	13.0
5.674	4.0
5.689	8.0
5.704	9.0
5.719	12.0
5.734	12.0
5.749	10.0
5.764	9.0
5.779	7.0
5.794	6.0
5.809	14.0
5.824	13.0
5.839	12.0
5.854	10.0
5.869	3.0
5.884	13.0
5.899	7.0
5.914	9.0
5.929	13.0
5.944	8.0
5.959	8.0
5.974	5.0
5.989	3.0
6.004	7.0
6.019	9.0
6.034	14.0
6.049	9.0
6.064	11.0
6.079	8.0
6.094	10.0
6.109	5.0
6.124	8.0
6.139	11.0
6.154	7.0
6.169	9.0
6.184	7.0
6.199	2.0
6.214	8.0
6.229	14.0
6.244	9.0
6.259	4.0
6.274	10.0
6.289	9.0
6.304	3.0
6.319	11.0
6.334	13.0
6.349	8.0
6.364	13.0
6.379	11.0
6.394	14.0
6.409	12.0
6.424	11.0
6.439	7.0
6.454	7.0
6.469	5.0
6.484	7.0
6.499	10.0
6.514	16.0
6.529	11.0
6.544	10.0
6.559	8.0
6.574	9.0
6.589	4.0
6.604	6.0
6.619	7.0
6.634	13.0
6.649	5.0
6.664	15.0
6.679	8.0
6.694	5.0
6.709	8.0
6.724	9.0
6.739	10.0
6.754	15.0
6.769	5.0
6.784	14.0
6.799	9.0
6.814	7.0
6.829	13.0
6.844	8.0
6.859	9.0
6.873	9.0
6.888	10.0
6.903	13.0
6.918	10.0
6.933	15.0
6.948	9.0
6.963	8.0
6.978	9.0
6.993	12.0
7.008	6.0
7.023	8.0
7.038	10.0
7.053	5.0
7.068	7.0
7.083	12.0
7.098	12.0
7.113	8.0
7.128	6.0
7.143	15.0
7.157	6.0
7.172	15.0
7.187	8.0
7.202	11.0
7.217	8.0
7.232	8.0
7.247	8.0
7.262	9.0
7.277	13.0
7.292	7.0
7.307	10.0
7.322	9.0
7.336	7.0
7.351	13.0
7.366	11.0
7.381	5.0
7.396	7.0
7.411	11.0
7.426	8.0
7.441	10.0
7.456	6.0
7.471	12.0
7.485	11.0
7.5	12.0
7.515	13.0
7.53	11.0
7.545	7.0
7.56	10.0
7.575	6.0
7.59	6.0
7.604	6.0
7.619	9.0
7.634	13.0
7.649	13.0
7.664	11.0
7.679	6.0
7.693	9.0
7.708	9.0
7.723	7.0
7.738	6.0
7.753	8.0
7.768	10.0
7.783	3.0
7.797	9.0
7.812	5.0
7.827	9.0
7.842	19.0
7.857	11.0
7.871	7.0
7.886	7.0
7.901	3.0
7.916	8.0
7.931	9.0
7.945	8.0
7.96	16.0
7.975	10.0
7.99	6.0
8.005	10.0
8.019	4.0
8.034	12.0
8.049	7.0
8.064	10.0
8.078	12.0
8.093	9.0
8.108	9.0
8.123	11.0
8.137	8.0
8.152	14.0
8.167	20.0
8.182	14.0
8.196	13.0
8.211	12.0
8.226	13.0
8.241	8.0
8.255	9.0
8.27	6.0
8.285	7.0
8.3	13.0
8.314	10.0
8.329	5.0
8.344	16.0
8.358	6.0
8.373	4.0
8.388	12.0
8.403	5.0
8.417	10.0
8.432	9.0
8.447	6.0
8.461	7.0
8.476	8.0
8.491	12.0
8.505	10.0
8.52	6.0
8.535	14.0
8.55	9.0
8.564	6.0
8.579	4.0
8.594	11.0
8.608	4.0
8.623	5.0
8.638	2.0
8.652	7.0
8.667	8.0
8.682	10.0
8.696	6.0
8.711	10.0
8.726	11.0
8.74	15.0
8.755	6.0
8.77	9.0
8.784	12.0
8.799	9.0
8.814	12.0
8.828	11.0
8.843	10.0
8.858	4.0
8.872	7.0
8.887	7.0
8.902	9.0
8.916	10.0
8.931	9.0
8.946	9.0
8.96	5.0
8.975	10.0
8.99	8.0
9.004	11.0
9.019	13.0
9.034	5.0
9.048	5.0
9.063	7.0
9.077	17.0
9.092	2.0
9.107	11.0
9.121	8.0
9.136	10.0
9.151	8.0
9.165	7.0
9.18	5.0
9.195	9.0
9.209	11.0
9.224	14.0
9.239	8.0
9.253	4.0
9.268	7.0
9.283	7.0
9.297	6.0
9.312	6.0
9.327	7.0
9.341	9.0
9.356	6.0
9.371	8.0
9.385	7.0
9.4	8.0
9.415	6.0
9.429	8.0
9.444	8.0
9.458	8.0
9.473	8.0
9.488	10.0
9.502	7.0
9.517	8.0
9.532	8.0
9.546	10.0
9.561	8.0
9.576	6.0
9.59	9.0
9.605	8.0
9.62	6.0
9.635	5.0
9.649	12.0
9.664	8.0
9.679	13.0
9.693	3.0
9.708	9.0
9.723	4.0
9.737	9.0
9.752	9.0
9.767	7.0
9.781	13.0
9.796	5.0
9.811	5.0
9.825	8.0
9.84	6.0
9.855	7.0
9.87	8.0
9.884	11.0
9.899	6.0
9.914	6.0
9.928	7.0
9.943	11.0
9.958	6.0
9.973	12.0
9.987	6.0
10.002	10.0
10.017	7.0
10.031	9.0
10.046	8.0
10.061	11.0
10.076	9.0
10.09	8.0
10.105	3.0
10.12	9.0
10.135	10.0
10.149	8.0
10.164	7.0
10.179	6.0
10.194	7.0
10.208	6.0
10.223	10.0
10.238	8.0
10.253	6.0
10.267	4.0
10.282	12.0
10.297	9.0
10.312	14.0
10.326	5.0
10.341	13.0
10.356	6.0
10.371	7.0
10.386	5.0
10.4	3.0
10.415	5.0
10.43	9.0
10.445	9.0
10.46	11.0
10.474	10.0
10.489	9.0
10.504	5.0
10.519	9.0
10.533	5.0
10.548	3.0
10.563	9.0
10.578	7.0
10.593	13.0
10.608	11.0
10.622	7.0
10.637	7.0
10.652	6.0
10.667	12.0
10.682	6.0
10.696	12.0
10.711	5.0
10.726	8.0
10.741	7.0
10.756	1.0
10.771	9.0
10.785	10.0
10.8	11.0
10.815	5.0
10.83	12.0
10.845	12.0
10.86	8.0
10.874	7.0
10.889	9.0
10.904	9.0
10.919	12.0
10.934	6.0
10.949	9.0
10.963	8.0
10.978	7.0
10.993	7.0
11.008	6.0
11.023	8.0
11.038	8.0
11.053	8.0
11.067	6.0
11.082	10.0
11.097	12.0
11.112	6.0
11.127	6.0
11.142	11.0
11.157	12.0
11.172	6.0
11.186	4.0
11.201	3.0
11.216	8.0
11.231	9.0
11.246	5.0
11.261	11.0
11.276	9.0
11.291	6.0
11.305	6.0
11.32	7.0
11.335	3.0
11.35	4.0
11.365	8.0
11.38	8.0
11.395	8.0
11.41	10.0
11.424	7.0
11.439	8.0
11.454	8.0
11.469	13.0
11.484	7.0
11.499	10.0
11.514	6.0
11.529	5.0
11.544	8.0
11.558	5.0
11.573	8.0
11.588	5.0
11.603	8.0
11.618	9.0
11.633	4.0
11.648	7.0
11.663	10.0
11.678	8.0
11.693	8.0
11.707	7.0
11.722	7.0
11.737	10.0
11.752	3.0
11.767	13.0
11.782	5.0
11.797	12.0
11.812	9.0
11.827	7.0
11.842	5.0
11.856	7.0
11.871	10.0
11.886	10.0
11.901	5.0
11.916	7.0
11.931	9.0
11.946	12.0
11.961	11.0
11.976	7.0
11.991	9.0
12.006	5.0
12.02	13.0
12.035	5.0
12.05	6.0
12.065	11.0
12.08	7.0
12.095	8.0
12.11	9.0
12.125	6.0
12.14	10.0
12.155	13.0
12.17	14.0
12.184	5.0
12.199	12.0
12.214	13.0
12.229	16.0
12.244	11.0
12.259	17.0
12.274	13.0
12.289	9.0
12.304	9.0
12.319	9.0
12.334	7.0
12.348	10.0
12.363	12.0
12.378	17.0
12.393	7.0
12.408	17.0
12.423	11.0
12.438	6.0
12.453	14.0
12.468	13.0
12.483	12.0
12.498	10.0
12.513	14.0
12.527	7.0
12.542	11.0
12.557	13.0
12.572	10.0
12.587	11.0
12.602	17.0
12.617	11.0
12.632	10.0
12.647	10.0
12.662	15.0
12.677	11.0
12.692	12.0
12.707	14.0
12.721	11.0
12.736	10.0
12.751	23.0
12.766	14.0
12.781	13.0
12.796	12.0
12.811	18.0
12.826	13.0
12.841	12.0
12.856	17.0
12.871	9.0
12.886	12.0
12.9	14.0
12.915	22.0
12.93	18.0
12.945	20.0
12.96	20.0
12.975	15.0
12.99	22.0
13.005	16.0
13.02	17.0
13.035	10.0
13.05	20.0
13.065	14.0
13.08	19.0
13.094	29.0
13.109	16.0
13.124	17.0
13.139	8.0
13.154	18.0
13.169	15.0
13.184	31.0
13.199	18.0
13.214	13.0
13.229	14.0
13.244	14.0
13.259	19.0
13.274	32.0
13.288	19.0
13.303	13.0
13.318	22.0
13.333	18.0
13.348	16.0
13.363	25.0
13.378	19.0
13.393	17.0
13.408	22.0
13.423	36.0
13.438	23.0
13.453	36.0
13.468	37.0
13.482	33.0
13.497	38.0
13.512	37.0
13.527	40.0
13.542	39.0
13.557	48.0
13.572	54.0
13.587	57.0
13.602	58.0
13.617	53.0
13.632	56.0
13.647	54.0
13.662	86.0
13.677	89.0
13.691	61.0
13.706	105.0
13.721	99.0
13.736	101.0
13.751	100.0
13.766	101.0
13.781	109.0
13.796	119.0
13.811	140.0
13.826	133.0
13.841	133.0
13.856	115.0
13.871	122.0
13.885	115.0
13.9	78.0
13.915	81.0
13.93	54.0
13.945	56.0
13.96	52.0
13.975	42.0
13.99	42.0
14.005	30.0
14.02	21.0
14.035	27.0
14.05	23.0
14.065	23.0
14.08	22.0
14.094	24.0
14.109	19.0
14.124	22.0
14.139	17.0
14.154	18.0
14.169	20.0
14.184	11.0
14.199	14.0
14.214	25.0
14.229	29.0
14.244	14.0
14.259	20.0
14.274	19.0
14.288	24.0
14.303	23.0
14.318	20.0
14.333	21.0
14.348	20.0
14.363	15.0
14.378	24.0
14.393	16.0
14.408	16.0
14.423	14.0
14.438	25.0
14.453	18.0
14.468	12.0
14.482	17.0
14.497	11.0
14.512	18.0
14.527	20.0
14.542	17.0
14.557	15.0
14.572	17.0
14.587	17.0
14.602	14.0
14.617	23.0
14.632	15.0
14.647	15.0
14.661	10.0
14.676	11.0
14.691	14.0
14.706	13.0
14.721	28.0
14.736	13.0
14.751	15.0
14.766	19.0
14.781	11.0
14.796	21.0
14.811	21.0
14.826	9.0
14.84	19.0
14.855	17.0
14.87	16.0
14.885	16.0
14.9	16.0
14.915	16.0
14.93	9.0
14.945	18.0
14.96	15.0
14.975	13.0
14.989	18.0
15.004	14.0
15.019	11.0
15.034	11.0
15.049	21.0
15.064	16.0
15.079	14.0
15.094	13.0
15.109	18.0
15.124	15.0
15.138	15.0
15.153	13.0
15.168	17.0
15.183	16.0
15.198	17.0
15.213	21.0
15.228	11.0
15.243	18.0
15.258	10.0
15.272	16.0
15.287	12.0
15.302	13.0
15.317	11.0
15.332	19.0
15.347	17.0
15.362	14.0
15.377	11.0
15.391	9.0
15.406	19.0
15.421	12.0
15.436	15.0
15.451	9.0
15.466	14.0
15.481	14.0
15.496	8.0
15.51	15.0
15.525	14.0
15.54	9.0
15.555	12.0
15.57	20.0
15.585	21.0
15.6	17.0
15.614	6.0
15.629	10.0
15.644	11.0
15.659	19.0
15.674	13.0
15.689	14.0
15.704	14.0
15.718	17.0
15.733	11.0
15.748	14.0
15.763	17.0
15.778	10.0
15.793	11.0
15.808	19.0
15.822	11.0
15.837	17.0
15.852	15.0
15.867	12.0
15.882	19.0
15.897	19.0
15.911	21.0
15.926	10.0
15.941	10.0
15.956	8.0
15.971	7.0
15.986	20.0
16.0	15.0
16.015	9.0
16.03	16.0
16.045	25.0
16.06	7.0
16.074	13.0
16.089	7.0
16.104	9.0
16.119	18.0
16.134	17.0
16.149	15.0
16.163	15.0
16.178	18.0
16.193	19.0
16.208	18.0
16.223	8.0
16.237	19.0
16.252	16.0
16.267	7.0
16.282	14.0
16.297	15.0
16.311	14.0
16.326	14.0
16.341	14.0
16.356	20.0
16.37	16.0
16.385	7.0
16.4	17.0
16.415	14.0
16.43	6.0
16.444	16.0
16.459	24.0
16.474	10.0
16.489	17.0
16.504	11.0
16.518	13.0
16.533	8.0
16.548	20.0
16.563	16.0
16.577	16.0
16.592	13.0
16.607	16.0
16.622	19.0
16.637	12.0
16.651	18.0
16.666	15.0
16.681	20.0
16.696	25.0
16.71	26.0
16.725	20.0
16.74	23.0
16.755	30.0
16.77	33.0
16.784	44.0
16.799	31.0
16.814	39.0
16.829	46.0
16.843	45.0
16.858	58.0
16.873	55.0
16.888	53.0
16.902	63.0
16.917	74.0
16.932	73.0
16.947	61.0
16.961	75.0
16.976	81.0
16.991	66.0
17.006	60.0
17.021	48.0
17.035	53.0
17.05	45.0
17.065	57.0
17.08	41.0
17.094	27.0
17.109	24.0
17.124	25.0
17.139	22.0
17.153	15.0
17.168	14.0
17.183	13.0
17.198	21.0
17.212	22.0
17.227	23.0
17.242	17.0
17.257	13.0
17.271	15.0
17.286	9.0
17.301	21.0
17.316	19.0
17.33	11.0
17.345	11.0
17.36	18.0
17.375	20.0
17.39	16.0
17.404	8.0
17.419	15.0
17.434	16.0
17.449	12.0
17.463	16.0
17.478	12.0
17.493	11.0
17.508	17.0
17.522	13.0
17.537	13.0
17.552	12.0
17.567	16.0
17.581	10.0
17.596	13.0
17.611	17.0
17.626	11.0
17.641	13.0
17.655	11.0
17.67	9.0
17.685	15.0
17.7	16.0
17.714	24.0
17.729	12.0
17.744	14.0
17.759	12.0
17.773	17.0
17.788	14.0
17.803	14.0
17.818	19.0
17.833	11.0
17.847	12.0
17.862	14.0
17.877	10.0
17.892	8.0
17.906	14.0
17.921	9.0
17.936	18.0
17.951	11.0
17.966	9.0
17.98	10.0
17.995	17.0
18.01	13.0
18.025	10.0
18.04	14.0
18.054	12.0
18.069	11.0
18.084	9.0
18.099	18.0
18.114	15.0
18.128	18.0
18.143	11.0
18.158	9.0
18.173	12.0
18.188	12.0
18.202	12.0
18.217	8.0
18.232	7.0
18.247	17.0
18.262	14.0
18.276	16.0
18.291	13.0
18.306	9.0
18.321	10.0
18.336	15.0
18.35	11.0
18.365	13.0
18.38	11.0
18.395	10.0
18.41	16.0
18.424	12.0
18.439	10.0
18.454	9.0
18.469	9.0
18.484	7.0
18.498	13.0
18.513	13.0
18.528	16.0
18.543	6.0
18.558	9.0
18.573	17.0
18.587	10.0
18.602	10.0
18.617	11.0
18.632	12.0
18.647	13.0
18.661	10.0
18.676	14.0
18.691	8.0
18.706	14.0
18.721	8.0
18.736	15.0
18.75	16.0
18.765	12.0
18.78	10.0
18.795	10.0
18.81	16.0
18.825	11.0
18.839	18.0
18.854	7.0
18.869	10.0
18.884	8.0
18.899	14.0
18.913	8.0
18.928	14.0
18.943	5.0
18.958	10.0
18.973	13.0
18.988	8.0
19.002	11.0
19.017	10.0
19.032	11.0
19.047	12.0
19.062	16.0
19.077	9.0
19.091	10.0
19.106	11.0
19.121	7.0
19.136	12.0
19.151	16.0
19.165	8.0
19.18	11.0
19.195	10.0
19.21	13.0
19.225	14.0
19.24	13.0
19.254	15.0
19.269	18.0
19.284	11.0
19.299	17.0
19.314	12.0
19.329	12.0
19.343	16.0
19.358	18.0
19.373	22.0
19.388	21.0
19.403	17.0
19.417	20.0
19.432	21.0
19.447	28.0
19.462	22.0
19.477	35.0
19.492	32.0
19.506	35.0
19.521	23.0
19.536	35.0
19.551	33.0
19.566	48.0
19.58	41.0
19.595	35.0
19.61	37.0
19.625	45.0
19.64	50.0
19.655	29.0
19.669	35.0
19.684	30.0
19.699	40.0
19.714	28.0
19.729	33.0
19.743	13.0
19.758	22.0
19.773	24.0
19.788	17.0
19.803	25.0
19.817	21.0
19.832	17.0
19.847	17.0
19.862	10.0
19.877	10.0
19.891	13.0
19.906	22.0
19.921	15.0
19.936	9.0
19.951	9.0
19.965	8.0
19.98	12.0
19.995	13.0
20.01	14.0
20.025	7.0
20.039	9.0
20.054	6.0
20.069	11.0
20.084	13.0
20.099	11.0
20.113	6.0
20.128	17.0
20.143	15.0
20.158	11.0
20.173	15.0
20.187	17.0
20.202	12.0
20.217	7.0
20.232	12.0
20.246	8.0
20.261	12.0
20.276	13.0
20.291	13.0
20.306	11.0
20.32	14.0
20.335	13.0
20.35	3.0
20.365	7.0
20.38	11.0
20.394	6.0
20.409	14.0
20.424	18.0
20.439	8.0
20.453	14.0
20.468	9.0
20.483	12.0
20.498	7.0
20.513	17.0
20.527	13.0
20.542	10.0
20.557	8.0
20.572	10.0
20.586	18.0
20.601	10.0
20.616	12.0
20.631	12.0
20.646	5.0
20.66	14.0
20.675	14.0
20.69	11.0
20.705	15.0
20.719	9.0
20.734	8.0
20.749	11.0
20.764	7.0
20.779	11.0
20.793	14.0
20.808	9.0
20.823	9.0
20.838	10.0
20.853	10.0
20.867	8.0
20.882	14.0
20.897	8.0
20.912	6.0
20.926	12.0
20.941	9.0
20.956	9.0
20.971	13.0
20.986	10.0
21.0	12.0
21.015	11.0
21.03	9.0
21.045	10.0
21.06	10.0
21.074	11.0
21.089	15.0
21.104	12.0
21.119	14.0
21.134	9.0
21.148	10.0
21.163	9.0
21.178	11.0
21.193	13.0
21.208	11.0
21.222	11.0
21.237	11.0
21.252	10.0
21.267	10.0
21.282	6.0
21.296	16.0
21.311	11.0
21.326	12.0
21.341	17.0
21.356	8.0
21.37	10.0
21.385	22.0
21.4	9.0
21.415	17.0
21.43	6.0
21.444	9.0
21.459	16.0
21.474	13.0
21.489	11.0
21.504	14.0
21.519	8.0
21.533	10.0
21.548	21.0
21.563	15.0
21.578	17.0
21.593	8.0
21.608	17.0
21.622	14.0
21.637	16.0
21.652	13.0
21.667	26.0
21.682	17.0
21.697	20.0
21.712	19.0
21.726	19.0
21.741	23.0
21.756	20.0
21.771	33.0
21.786	31.0
21.801	38.0
21.816	49.0
21.83	48.0
21.845	47.0
21.86	53.0
21.875	43.0
21.89	68.0
21.905	79.0
21.92	75.0
21.935	75.0
21.949	78.0
21.964	75.0
21.979	58.0
21.994	78.0
22.009	76.0
22.024	57.0
22.039	60.0
22.054	58.0
22.069	42.0
22.083	52.0
22.098	46.0
22.113	44.0
22.128	27.0
22.143	31.0
22.158	29.0
22.173	20.0
22.188	20.0
22.203	16.0
22.218	15.0
22.233	14.0
22.248	7.0
22.262	10.0
22.277	13.0
22.292	9.0
22.307	13.0
22.322	12.0
22.337	7.0
22.352	16.0
22.367	10.0
22.382	17.0
22.397	18.0
22.412	12.0
22.427	11.0
22.442	8.0
22.457	15.0
22.472	14.0
22.487	10.0
22.502	15.0
22.516	13.0
22.531	15.0
22.546	14.0
22.561	14.0
22.576	9.0
22.591	9.0
22.606	7.0
22.621	12.0
22.636	10.0
22.651	18.0
22.666	11.0
22.681	11.0
22.696	10.0
22.711	13.0
22.726	2.0
22.741	8.0
22.756	6.0
22.771	9.0
22.786	12.0
22.801	10.0
22.816	8.0
22.831	20.0
22.846	10.0
22.861	10.0
22.876	11.0
22.891	11.0
22.906	10.0
22.92	10.0
22.935	11.0
22.95	17.0
22.965	13.0
22.98	12.0
22.995	15.0
23.01	10.0
23.025	13.0
23.04	8.0
23.055	10.0
23.07	6.0
23.085	15.0
23.1	11.0
23.115	13.0
23.13	5.0
23.145	4.0
23.16	5.0
23.175	6.0
23.19	8.0
23.205	8.0
23.22	14.0
23.235	9.0
23.25	13.0
23.265	9.0
23.28	10.0
23.295	8.0
23.31	12.0
23.325	9.0
23.34	11.0
23.355	8.0
23.37	10.0
23.384	9.0
23.399	10.0
23.414	9.0
23.429	12.0
23.444	13.0
23.459	8.0
23.474	6.0
23.489	11.0
23.504	17.0
23.519	13.0
23.534	6.0
23.549	11.0
23.564	8.0
23.579	6.0
23.594	10.0
23.609	5.0
23.624	12.0
23.639	12.0
23.654	13.0
23.668	10.0
23.683	8.0
23.698	13.0
23.713	10.0
23.728	13.0
23.743	17.0
23.758	16.0
23.773	13.0
23.788	15.0
23.803	10.0
23.818	10.0
23.833	19.0
23.848	14.0
23.862	15.0
23.877	20.0
23.892	23.0
23.907	22.0
23.922	21.0
23.937	31.0
23.952	30.0
23.967	20.0
23.982	39.0
23.997	36.0
24.011	56.0
24.026	43.0
24.041	37.0
24.056	34.0
24.071	43.0
24.086	49.0
24.101	38.0
24.116	59.0
24.131	55.0
24.145	44.0
24.16	42.0
24.175	33.0
24.19	29.0
24.205	31.0
24.22	40.0
24.235	34.0
24.249	26.0
24.264	36.0
24.279	23.0
24.294	30.0
24.309	26.0
24.324	12.0
24.338	12.0
24.353	21.0
24.368	14.0
24.383	14.0
24.398	12.0
24.413	10.0
24.428	16.0
24.442	11.0
24.457	7.0
24.472	12.0
24.487	12.0
24.502	16.0
24.516	15.0
24.531	6.0
24.546	6.0
24.561	17.0
24.576	12.0
24.591	12.0
24.605	10.0
24.62	10.0
24.635	18.0
24.65	4.0
24.665	15.0
24.679	7.0
24.694	10.0
24.709	16.0
24.724	11.0
24.739	8.0
24.753	12.0
24.768	12.0
24.783	12.0
24.798	11.0
24.813	15.0
24.827	17.0
24.842	13.0
24.857	9.0
24.872	12.0
24.886	9.0
24.901	10.0
24.916	9.0
24.931	9.0
24.946	12.0
24.96	12.0
24.975	11.0
24.99	16.0
25.005	8.0
25.019	15.0
25.034	11.0
25.049	14.0
25.064	8.0
25.078	11.0
25.093	10.0
25.108	7.0
25.123	8.0
25.138	10.0
25.152	10.0
25.167	12.0
25.182	11.0
25.197	14.0
25.211	5.0
25.226	16.0
25.241	15.0
25.256	10.0
25.27	15.0
25.285	7.0
25.3	7.0
25.315	6.0
25.329	10.0
25.344	7.0
25.359	14.0
25.374	10.0
25.388	10.0
25.403	9.0
25.418	14.0
25.433	13.0
25.447	8.0
25.462	13.0
25.477	10.0
25.492	9.0
25.506	6.0
25.521	13.0
25.536	12.0
25.55	10.0
25.565	14.0
25.58	9.0
25.595	5.0
25.609	13.0
25.624	9.0
25.639	16.0
25.654	7.0
25.668	6.0
25.683	7.0
25.698	6.0
25.713	15.0
25.727	15.0
25.742	12.0
25.757	16.0
25.772	9.0
25.786	11.0
25.801	17.0
25.816	8.0
25.83	12.0
25.845	13.0
25.86	9.0
25.875	9.0
25.889	10.0
25.904	8.0
25.919	8.0
25.934	11.0
25.948	9.0
25.963	15.0
25.978	11.0
25.992	3.0
26.007	16.0
26.022	11.0
26.037	8.0
26.051	8.0
26.066	11.0
26.081	7.0
26.096	11.0
26.11	8.0
26.125	6.0
26.14	9.0
26.155	9.0
26.169	12.0
26.184	3.0
26.199	9.0
26.213	10.0
26.228	5.0
26.243	12.0
26.258	9.0
26.272	13.0
26.287	15.0
26.302	6.0
26.317	7.0
26.331	11.0
26.346	9.0
26.361	14.0
26.376	14.0
26.39	12.0
26.405	9.0
26.42	6.0
26.434	7.0
26.449	17.0
26.464	11.0
26.479	15.0
26.493	13.0
26.508	11.0
26.523	6.0
26.538	5.0
26.552	10.0
26.567	12.0
26.582	6.0
26.597	16.0
26.611	3.0
26.626	8.0
26.641	9.0
26.656	9.0
26.67	14.0
26.685	5.0
26.7	8.0
26.715	12.0
26.729	13.0
26.744	13.0
26.759	9.0
26.773	8.0
26.788	8.0
26.803	9.0
26.818	7.0
26.832	15.0
26.847	7.0
26.862	8.0
26.877	14.0
26.891	10.0
26.906	9.0
26.921	12.0
26.936	9.0
26.95	12.0
26.965	13.0
26.98	12.0
26.995	11.0
27.01	9.0
27.024	5.0
27.039	12.0
27.054	8.0
27.069	8.0
27.083	5.0
27.098	9.0
27.113	11.0
27.128	6.0
27.142	8.0
27.157	14.0
27.172	16.0
27.187	16.0
27.201	12.0
27.216	13.0
27.231	13.0
27.246	4.0
27.261	16.0
27.275	8.0
27.29	12.0
27.305	8.0
27.32	12.0
27.334	11.0
27.349	12.0
27.364	8.0
27.379	14.0
27.394	10.0
27.408	8.0
27.423	10.0
27.438	10.0
27.453	10.0
27.467	7.0
27.482	22.0
27.497	9.0
27.512	11.0
27.527	13.0
27.541	8.0
27.556	9.0
27.571	12.0
27.586	5.0
27.601	8.0
27.615	13.0
27.63	9.0
27.645	10.0
27.66	13.0
27.675	4.0
27.689	22.0
27.704	9.0
27.719	9.0
27.734	17.0
27.749	21.0
27.763	13.0
27.778	15.0
27.793	14.0
27.808	21.0
27.823	14.0
27.838	27.0
27.852	29.0
27.867	19.0
27.882	29.0
27.897	25.0
27.912	26.0
27.926	16.0
27.941	20.0
27.956	24.0
27.971	17.0
27.986	19.0
28.001	21.0
28.015	19.0
28.03	20.0
28.045	17.0
28.06	13.0
28.075	11.0
28.09	24.0
28.105	12.0
28.119	17.0
28.134	10.0
28.149	18.0
28.164	8.0
28.179	12.0
28.194	7.0
28.208	10.0
28.223	12.0
28.238	12.0
28.253	11.0
28.268	6.0
28.283	14.0
28.298	10.0
28.312	13.0
28.327	9.0
28.342	8.0
28.357	12.0
28.372	10.0
28.387	11.0
28.402	9.0
28.417	15.0
28.431	14.0
28.446	14.0
28.461	12.0
28.476	16.0
28.491	8.0
28.506	6.0
28.521	5.0
28.536	17.0
28.55	8.0
28.565	13.0
28.58	11.0
28.595	15.0
28.61	8.0
28.625	7.0
28.64	11.0
28.655	9.0
28.669	13.0
28.684	11.0
28.699	13.0
28.714	8.0
28.729	8.0
28.744	14.0
28.759	9.0
28.774	14.0
28.788	10.0
28.803	9.0
28.818	14.0
28.833	8.0
28.848	9.0
28.863	12.0
28.878	9.0
28.893	11.0
28.908	13.0
28.922	7.0
28.937	12.0
28.952	6.0
28.967	14.0
28.982	8.0
28.997	12.0
29.012	10.0
29.027	14.0
29.041	10.0
29.056	5.0
29.071	16.0
29.086	9.0
29.101	12.0
29.116	15.0
29.131	7.0
29.146	7.0
29.16	7.0
29.175	13.0
29.19	10.0
29.205	14.0
29.22	10.0
29.235	11.0
29.25	8.0
29.265	13.0
29.279	14.0
29.294	10.0
29.309	11.0
29.324	13.0
29.339	13.0
29.354	7.0
29.369	16.0
29.384	20.0
29.398	14.0
29.413	18.0
29.428	15.0
29.443	23.0
29.458	18.0
29.473	32.0
29.488	21.0
29.502	28.0
29.517	26.0
29.532	36.0
29.547	51.0
29.562	43.0
29.577	41.0
29.592	60.0
29.606	48.0
29.621	45.0
29.636	53.0
29.651	52.0
29.666	49.0
29.681	44.0
29.695	39.0
29.71	36.0
29.725	41.0
29.74	26.0
29.755	35.0
29.77	28.0
29.784	34.0
29.799	22.0
29.814	28.0
29.829	25.0
29.844	25.0
29.859	23.0
29.873	24.0
29.888	17.0
29.903	11.0
29.918	20.0
29.933	16.0
29.947	13.0
29.962	15.0
29.977	14.0
29.992	10.0
30.007	14.0
30.021	7.0
30.036	14.0
30.051	10.0
30.066	10.0
30.081	8.0
30.095	12.0
30.11	5.0
30.125	6.0
30.14	7.0
30.155	9.0
30.169	8.0
30.184	17.0
30.199	11.0
30.214	12.0
30.228	14.0
30.243	11.0
30.258	5.0
30.273	13.0
30.288	2.0
30.302	14.0
30.317	17.0
30.332	13.0
30.347	19.0
30.361	13.0
30.376	12.0
30.391	15.0
30.406	11.0
30.42	12.0
30.435	12.0
30.45	16.0
30.465	11.0
30.479	12.0
30.494	7.0
30.509	10.0
30.524	13.0
30.538	11.0
30.553	7.0
30.568	12.0
30.583	6.0
30.597	9.0
30.612	11.0
30.627	8.0
30.641	10.0
30.656	11.0
30.671	9.0
30.686	10.0
30.7	7.0
30.715	15.0
30.73	11.0
30.745	7.0
30.759	11.0
30.774	10.0
30.789	10.0
30.803	14.0
30.818	13.0
30.833	10.0
30.848	11.0
30.862	15.0
30.877	13.0
30.892	12.0
30.906	11.0
30.921	11.0
30.936	12.0
30.951	4.0
30.965	8.0
30.98	10.0
30.995	9.0
31.009	16.0
31.024	12.0
31.039	10.0
31.053	13.0
31.068	13.0
31.083	22.0
31.098	12.0
31.112	7.0
31.127	22.0
31.142	16.0
31.156	14.0
31.171	19.0
31.186	32.0
31.2	33.0
31.215	44.0
31.23	37.0
31.245	24.0
31.259	45.0
31.274	43.0
31.289	33.0
31.303	33.0
31.318	25.0
31.333	30.0
31.347	32.0
31.362	27.0
31.377	27.0
31.392	29.0
31.406	18.0
31.421	24.0
31.436	26.0
31.45	17.0
31.465	20.0
31.48	24.0
31.494	19.0
31.509	14.0
31.524	24.0
31.538	18.0
31.553	13.0
31.568	20.0
31.583	17.0
31.597	12.0
31.612	10.0
31.627	11.0
31.641	18.0
31.656	4.0
31.671	14.0
31.685	9.0
31.7	10.0
31.715	11.0
31.729	10.0
31.744	10.0
31.759	10.0
31.774	12.0
31.788	10.0
31.803	10.0
31.818	8.0
31.832	12.0
31.847	7.0
31.862	12.0
31.876	9.0
31.891	7.0
31.906	11.0
31.92	14.0
31.935	12.0
31.95	8.0
31.965	9.0
31.979	1.0
31.994	13.0
32.009	6.0
32.023	16.0
32.038	6.0
32.053	9.0
32.067	12.0
32.082	14.0
32.097	8.0
32.112	8.0
32.126	9.0
32.141	10.0
32.156	7.0
32.17	10.0
32.185	16.0
32.2	14.0
32.214	6.0
32.229	7.0
32.244	13.0
32.259	8.0
32.273	13.0
32.288	4.0
32.303	12.0
32.317	10.0
32.332	11.0
32.347	12.0
32.362	11.0
32.376	12.0
32.391	14.0
32.406	8.0
32.42	9.0
32.435	10.0
32.45	7.0
32.465	8.0
32.479	11.0
32.494	11.0
32.509	10.0
32.523	12.0
32.538	9.0
32.553	9.0
32.568	11.0
32.582	18.0
32.597	16.0
32.612	10.0
32.627	8.0
32.641	11.0
32.656	10.0
32.671	14.0
32.685	13.0
32.7	16.0
32.715	18.0
32.73	13.0
32.744	23.0
32.759	26.0
32.774	24.0
32.788	24.0
32.803	19.0
32.818	32.0
32.833	27.0
32.847	33.0
32.862	27.0
32.877	28.0
32.892	11.0
32.906	22.0
32.921	22.0
32.936	22.0
32.951	20.0
32.965	21.0
32.98	15.0
32.995	24.0
33.009	28.0
33.024	18.0
33.039	18.0
33.054	22.0
33.068	17.0
33.083	16.0
33.098	9.0
33.113	19.0
33.127	15.0
33.142	10.0
33.157	8.0
33.172	15.0
33.186	11.0
33.201	11.0
33.216	14.0
33.231	12.0
33.245	15.0
33.26	9.0
33.275	6.0
33.29	11.0
33.304	10.0
33.319	8.0
33.334	5.0
33.349	7.0
33.363	11.0
33.378	7.0
33.393	8.0
33.408	14.0
33.422	12.0
33.437	11.0
33.452	13.0
33.467	10.0
33.481	11.0
33.496	7.0
33.511	6.0
33.526	9.0
33.54	12.0
33.555	12.0
33.57	7.0
33.585	12.0
33.599	7.0
33.614	10.0
33.629	10.0
33.644	13.0
33.658	6.0
33.673	12.0
33.688	6.0
33.703	13.0
33.718	9.0
33.732	7.0
33.747	6.0
33.762	7.0
33.777	7.0
33.791	7.0
33.806	16.0
33.821	11.0
33.836	8.0
33.85	7.0
33.865	9.0
33.88	14.0
33.895	8.0
33.91	8.0
33.924	7.0
33.939	4.0
33.954	10.0
33.969	10.0
33.983	18.0
33.998	10.0
34.013	16.0
34.028	8.0
34.042	4.0
34.057	16.0
34.072	10.0
34.087	7.0
34.102	15.0
34.116	9.0
34.131	7.0
34.146	10.0
34.161	11.0
34.175	11.0
34.19	9.0
34.205	10.0
34.22	12.0
34.235	14.0
34.249	11.0
34.264	7.0
34.279	8.0
34.294	12.0
34.309	16.0
34.323	13.0
34.338	18.0
34.353	18.0
34.368	18.0
34.382	16.0
34.397	14.0
34.412	12.0
34.427	9.0
34.442	13.0
34.456	12.0
34.471	12.0
34.486	15.0
34.501	9.0
34.516	9.0
34.53	10.0
34.545	14.0
34.56	4.0
34.575	11.0
34.59	13.0
34.604	9.0
34.619	10.0
34.634	8.0
34.649	12.0
34.664	8.0
34.678	12.0
34.693	15.0
34.708	8.0
34.723	8.0
34.738	7.0
34.752	14.0
34.767	12.0
34.782	14.0
34.797	9.0
34.812	9.0
34.826	8.0
34.841	6.0
34.856	15.0
34.871	4.0
34.886	6.0
34.9	5.0
34.915	6.0
34.93	9.0
34.945	8.0
34.96	12.0
34.974	7.0
34.989	8.0
35.004	11.0
35.019	7.0
35.034	8.0
35.048	12.0
35.063	15.0
35.078	8.0
35.093	8.0
35.108	11.0
35.122	9.0
35.137	5.0
35.152	15.0
35.167	14.0
35.182	10.0
35.196	10.0
35.211	9.0
35.226	10.0
35.241	10.0
35.256	10.0
35.27	12.0
35.285	11.0
35.3	8.0
35.315	13.0
35.33	10.0
35.344	13.0
35.359	5.0
35.374	11.0
35.389	10.0
35.404	12.0
35.418	9.0
35.433	10.0
35.448	10.0
35.463	9.0
35.478	9.0
35.493	13.0
35.507	14.0
35.522	13.0
35.537	6.0
35.552	13.0
35.567	18.0
35.581	7.0
35.596	7.0
35.611	11.0
35.626	11.0
35.641	14.0
35.655	14.0
35.67	15.0
35.685	10.0
35.7	18.0
35.715	14.0
35.729	20.0
35.744	11.0
35.759	19.0
35.774	11.0
35.789	19.0
35.804	19.0
35.818	17.0
35.833	15.0
35.848	19.0
35.863	18.0
35.878	20.0
35.892	15.0
35.907	11.0
35.922	19.0
35.937	11.0
35.952	10.0
35.966	13.0
35.981	13.0
35.996	13.0
36.011	9.0
36.026	18.0
36.04	5.0
36.055	10.0
36.07	9.0
36.085	12.0
36.1	9.0
36.114	9.0
36.129	6.0
36.144	8.0
36.159	15.0
36.174	4.0
36.189	10.0
36.203	6.0
36.218	11.0
36.233	6.0
36.248	8.0
36.263	7.0
36.277	6.0
36.292	5.0
36.307	7.0
36.322	4.0
36.337	4.0
36.351	6.0
36.366	4.0
36.381	10.0
36.396	7.0
36.411	10.0
36.426	10.0
36.44	12.0
36.455	5.0
36.47	8.0
36.485	3.0
36.5	7.0
36.514	6.0
36.529	15.0
36.544	9.0
36.559	8.0
36.574	8.0
36.589	6.0
36.603	5.0
36.618	11.0
36.633	6.0
36.648	13.0
36.663	12.0
36.677	6.0
36.692	8.0
36.707	11.0
36.722	6.0
36.737	13.0
36.752	5.0
36.766	10.0
36.781	7.0
36.796	5.0
36.811	12.0
36.826	8.0
36.841	5.0
36.855	6.0
36.87	14.0
36.885	9.0
36.9	13.0
36.915	7.0
36.93	4.0
36.944	6.0
36.959	9.0
36.974	9.0
36.989	14.0
37.004	9.0
37.019	10.0
37.033	8.0
37.048	14.0
37.063	14.0
37.078	30.0
37.093	15.0
37.108	24.0
37.123	23.0
37.137	17.0
37.152	24.0
37.167	31.0
37.182	30.0
37.197	23.0
37.212	23.0
37.226	35.0
37.241	34.0
37.256	23.0
37.271	19.0
37.286	16.0
37.301	18.0
37.316	19.0
37.331	21.0
37.345	21.0
37.36	13.0
37.375	21.0
37.39	16.0
37.405	15.0
37.42	25.0
37.435	25.0
37.45	20.0
37.464	12.0
37.479	9.0
37.494	13.0
37.509	7.0
37.524	10.0
37.539	9.0
37.554	11.0
37.569	7.0
37.583	5.0
37.598	8.0
37.613	5.0
37.628	12.0
37.643	1.0
37.658	11.0
37.673	6.0
37.688	7.0
37.703	9.0
37.718	8.0
37.733	9.0
37.747	8.0
37.762	8.0
37.777	6.0
37.792	9.0
37.807	9.0
37.822	9.0
37.837	8.0
37.852	6.0
37.867	6.0
37.882	9.0
37.897	8.0
37.912	8.0
37.927	4.0
37.941	8.0
37.956	9.0
37.971	10.0
37.986	4.0
38.001	9.0
38.016	13.0
38.031	10.0
38.046	10.0
38.061	8.0
38.076	11.0
38.091	11.0
38.106	6.0
38.121	8.0
38.136	10.0
38.151	5.0
38.166	7.0
38.181	9.0
38.196	8.0
38.211	3.0
38.226	1.0
38.241	4.0
38.256	3.0
38.271	3.0
38.285	5.0
38.3	4.0
38.315	4.0
38.33	5.0
38.345	7.0
38.36	8.0
38.375	5.0
38.39	9.0
38.405	7.0
38.42	8.0
38.435	4.0
38.45	7.0
38.465	4.0
38.48	2.0
38.495	8.0
38.51	7.0
38.525	8.0
38.54	12.0
38.555	7.0
38.57	7.0
38.585	3.0
38.6	9.0
38.615	4.0
38.63	6.0
38.645	5.0
38.66	7.0
38.675	9.0
38.69	7.0
38.705	7.0
38.72	8.0
38.735	6.0
38.75	10.0
38.765	3.0
38.78	4.0
38.795	5.0
38.81	4.0
38.825	6.0
38.84	1.0
38.855	4.0
38.87	4.0
38.885	9.0
38.9	5.0
38.915	6.0
38.93	9.0
38.945	13.0
38.96	6.0
38.975	11.0
38.99	9.0
39.005	6.0
39.02	7.0
39.035	8.0
39.05	5.0
39.065	5.0
39.08	6.0
39.095	4.0
39.11	4.0
39.125	6.0
39.14	3.0
39.155	10.0
39.17	10.0
39.185	8.0
39.2	4.0
39.215	9.0
39.23	6.0
39.245	7.0
39.26	4.0
39.275	5.0
39.29	7.0
39.305	4.0
39.32	5.0
39.335	7.0
39.35	10.0
39.365	3.0
39.38	6.0
39.395	6.0
39.409	7.0
39.424	9.0
39.439	8.0
39.454	7.0
39.469	5.0
39.484	3.0
39.499	8.0
39.514	5.0
39.529	9.0
39.544	7.0
39.559	8.0
39.574	6.0
39.589	4.0
39.604	9.0
39.619	5.0
39.634	5.0
39.649	7.0
39.664	8.0
39.678	7.0
39.693	9.0
39.708	3.0
39.723	10.0
39.738	4.0
39.753	8.0
39.768	4.0
39.783	6.0
39.798	8.0
39.813	6.0
39.827	7.0
39.842	5.0
39.857	8.0
39.872	7.0
39.887	6.0
39.902	6.0
39.917	6.0
39.932	4.0
39.947	6.0
39.961	6.0
39.976	6.0
39.991	10.0
40.006	9.0
40.021	6.0
40.036	8.0
40.051	7.0
40.065	5.0
40.08	5.0
40.095	3.0
40.11	9.0
40.125	11.0
40.14	8.0
40.154	6.0
40.169	11.0
40.184	7.0
40.199	5.0
40.214	3.0
40.228	5.0
40.243	7.0
40.258	4.0
40.273	5.0
40.288	4.0
40.302	4.0
40.317	4.0
40.332	5.0
40.347	2.0
40.362	7.0
40.376	3.0
40.391	3.0
40.406	4.0
40.421	9.0
40.436	6.0
40.45	4.0
40.465	7.0
40.48	10.0
40.495	4.0
40.509	8.0
40.524	7.0
40.539	6.0
40.554	3.0
40.568	7.0
40.583	7.0
40.598	6.0
40.613	6.0
40.627	8.0
40.642	9.0
40.657	7.0
40.672	9.0
40.686	1.0
40.701	5.0
40.716	5.0
40.731	4.0
40.745	2.0
40.76	7.0
40.775	6.0
40.79	4.0
40.804	6.0
40.819	5.0
40.834	6.0
40.849	4.0
40.863	6.0
40.878	7.0
40.893	8.0
40.907	7.0
40.922	11.0
40.937	8.0
40.952	5.0
40.966	10.0
40.981	7.0
40.996	7.0
41.011	10.0
41.025	9.0
41.04	13.0
41.055	10.0
41.069	17.0
41.084	12.0
41.099	20.0
41.114	17.0
41.128	14.0
41.143	19.0
41.158	15.0
41.173	19.0
41.187	20.0
41.202	13.0
41.217	14.0
41.231	8.0
41.246	15.0
41.261	14.0
41.276	11.0
41.29	13.0
41.305	10.0
41.32	15.0
41.335	14.0
41.349	12.0
41.364	16.0
41.379	18.0
41.393	14.0
41.408	8.0
41.423	17.0
41.438	14.0
41.452	13.0
41.467	10.0
41.482	6.0
41.497	10.0
41.511	6.0
41.526	6.0
41.541	5.0
41.556	6.0
41.57	4.0
41.585	6.0
41.6	4.0
41.615	0.0
41.629	4.0
41.644	3.0
41.659	6.0
41.674	7.0
41.688	5.0
41.703	5.0
41.718	4.0
41.733	5.0
41.747	12.0
41.762	4.0
41.777	3.0
41.792	7.0
41.806	13.0
41.821	7.0
41.836	12.0
41.851	5.0
41.866	5.0
41.88	8.0
41.895	2.0
41.91	7.0
41.925	8.0
41.939	7.0
41.954	5.0
41.969	4.0
41.984	5.0
41.999	6.0
42.013	4.0
42.028	5.0
42.043	4.0
42.058	5.0
42.073	3.0
42.088	2.0
42.102	6.0
42.117	4.0
42.132	4.0
42.147	8.0
42.162	3.0
42.176	4.0
42.191	5.0
42.206	4.0
42.221	9.0
42.236	2.0
42.251	9.0
42.266	9.0
42.28	15.0
42.295	6.0
42.31	7.0
42.325	10.0
42.34	14.0
42.355	19.0
42.369	17.0
42.384	12.0
42.399	15.0
42.414	19.0
42.429	16.0
42.444	13.0
42.459	17.0
42.474	13.0
42.488	16.0
42.503	12.0
42.518	14.0
42.533	15.0
42.548	9.0
42.563	14.0
42.578	14.0
42.593	12.0
42.608	12.0
42.622	7.0
42.637	9.0
42.652	13.0
42.667	7.0
42.682	10.0
42.697	11.0
42.712	12.0
42.727	11.0
42.742	8.0
42.757	9.0
42.772	14.0
42.786	7.0
42.801	3.0
42.816	8.0
42.831	12.0
42.846	6.0
42.861	3.0
42.876	5.0
42.891	4.0
42.906	5.0
42.921	7.0
42.936	4.0
42.951	6.0
42.966	3.0
42.981	6.0
42.996	2.0
43.011	7.0
43.025	7.0
43.04	6.0
43.055	6.0
43.07	7.0
43.085	5.0
43.1	4.0
43.115	4.0
43.13	8.0
43.145	5.0
43.16	4.0
43.175	7.0
43.19	5.0
43.205	5.0
43.22	6.0
43.235	3.0
43.25	5.0
43.265	6.0
43.28	10.0
43.295	4.0
43.31	8.0
43.325	3.0
43.34	6.0
43.355	5.0
43.37	2.0
43.385	4.0
43.4	9.0
43.415	4.0
43.43	5.0
43.445	6.0
43.46	7.0
43.475	8.0
43.49	7.0
43.505	5.0
43.52	9.0
43.535	5.0
43.55	8.0
43.565	7.0
43.58	10.0
43.595	9.0
43.61	6.0
43.625	9.0
43.64	6.0
43.655	6.0
43.67	9.0
43.685	6.0
43.7	6.0
43.715	8.0
43.73	9.0
43.745	6.0
43.76	4.0
43.775	8.0
43.79	7.0
43.805	6.0
43.82	9.0
43.835	12.0
43.85	5.0
43.865	8.0
43.88	4.0
43.895	7.0
43.91	11.0
43.925	12.0
43.94	5.0
43.955	8.0
43.97	7.0
43.985	4.0
44.0	6.0
44.015	2.0
44.03	6.0
44.045	6.0
44.061	7.0
44.076	7.0
44.091	5.0
44.106	3.0
44.121	7.0
44.136	3.0
44.151	3.0
44.166	4.0
44.181	5.0
44.196	6.0
44.211	6.0
44.226	7.0
44.241	3.0
44.256	5.0
44.271	8.0
44.286	6.0
44.301	5.0
44.316	7.0
44.331	6.0
44.346	12.0
44.361	3.0
44.377	8.0
44.392	6.0
44.407	5.0
44.422	4.0
44.437	4.0
44.452	8.0
44.467	1.0
44.482	9.0
44.497	3.0
44.512	7.0
44.527	9.0
44.542	8.0
44.557	6.0
44.572	2.0
44.587	7.0
44.602	7.0
44.617	2.0
44.632	10.0
44.647	6.0
44.663	9.0
44.678	5.0
44.693	5.0
44.708	2.0
44.723	10.0
44.738	12.0
44.753	7.0
44.768	7.0
44.783	8.0
44.798	7.0
44.813	16.0
44.828	7.0
44.843	12.0
44.858	8.0
44.873	9.0
44.888	9.0
44.903	12.0
44.918	7.0
44.933	3.0
44.948	5.0
44.964	3.0
44.979	2.0
44.994	9.0
45.009	6.0
45.024	13.0
45.039	3.0
45.054	8.0
45.069	5.0
45.084	7.0
45.099	7.0
45.114	11.0
45.129	5.0
45.144	10.0
45.159	15.0
45.174	11.0
45.189	8.0
45.204	5.0
45.219	4.0
45.234	3.0
45.249	8.0
45.264	7.0
45.279	3.0
45.294	6.0
45.309	7.0
45.324	3.0
45.339	6.0
45.354	8.0
45.369	6.0
45.384	5.0
45.399	6.0
45.414	4.0
45.429	7.0
45.444	4.0
45.459	3.0
45.474	4.0
45.489	4.0
45.504	1.0
45.519	4.0
45.534	6.0
45.549	8.0
45.564	4.0
45.579	5.0
45.594	6.0
45.609	2.0
45.624	3.0
45.639	4.0
45.654	8.0
45.669	7.0
45.684	8.0
45.699	4.0
45.714	7.0
45.729	3.0
45.744	3.0
45.759	9.0
45.774	5.0
45.789	8.0
45.804	4.0
45.819	10.0
45.834	4.0
45.849	7.0
45.864	5.0
45.879	6.0
45.894	5.0
45.909	6.0
45.924	11.0
45.939	18.0
45.954	16.0
45.969	12.0
45.984	17.0
45.998	21.0
46.013	15.0
46.028	14.0
46.043	12.0
46.058	10.0
46.073	13.0
46.088	10.0
46.103	10.0
46.118	5.0
46.133	9.0
46.148	14.0
46.163	10.0
46.178	15.0
46.192	6.0
46.207	14.0
46.222	6.0
46.237	13.0
46.252	14.0
46.267	7.0
46.282	14.0
46.297	11.0
46.312	11.0
46.327	9.0
46.341	9.0
46.356	11.0
46.371	8.0
46.386	4.0
46.401	4.0
46.416	4.0
46.431	6.0
46.446	5.0
46.46	3.0
46.475	6.0
46.49	3.0
46.505	8.0
46.52	12.0
46.535	4.0
46.55	5.0
46.564	5.0
46.579	2.0
46.594	4.0
46.609	3.0
46.624	6.0
46.639	2.0
46.654	6.0
46.668	4.0
46.683	7.0
46.698	3.0
46.713	6.0
46.728	6.0
46.743	3.0
46.758	4.0
46.772	8.0
46.787	4.0
46.802	5.0
46.817	3.0
46.832	8.0
46.847	4.0
46.861	10.0
46.876	2.0
46.891	3.0
46.906	6.0
46.921	5.0
46.936	3.0
46.95	7.0
46.965	3.0
46.98	7.0
46.995	9.0
47.01	6.0
47.025	11.0
47.039	9.0
47.054	6.0
47.069	12.0
47.084	9.0
47.099	8.0
47.113	12.0
47.128	11.0
47.143	4.0
47.158	7.0
47.173	5.0
47.188	11.0
47.202	9.0
47.217	7.0
47.232	6.0
47.247	9.0
47.262	3.0
47.277	9.0
47.291	4.0
47.306	3.0
47.321	7.0
47.336	2.0
47.351	5.0
47.365	10.0
47.38	5.0
47.395	7.0
47.41	6.0
47.425	9.0
47.44	5.0
47.454	6.0
47.469	5.0
47.484	8.0
47.499	6.0
47.514	2.0
47.528	3.0
47.543	6.0
47.558	5.0
47.573	4.0
47.588	7.0
47.603	4.0
47.617	5.0
47.632	4.0
47.647	6.0
47.662	10.0
47.677	6.0
47.691	8.0
47.706	4.0
47.721	6.0
47.736	6.0
47.751	6.0
47.766	1.0
47.78	6.0
47.795	2.0
47.81	9.0
47.825	5.0
47.84	5.0
47.855	11.0
47.869	2.0
47.884	4.0
47.899	5.0
47.914	6.0
47.929	4.0
47.944	0.0
47.958	1.0
47.973	5.0
47.988	4.0
48.003	5.0
48.018	5.0
48.033	5.0
48.047	5.0
48.062	2.0
48.077	5.0
48.092	5.0
48.107	5.0
48.122	4.0
48.137	1.0
48.151	6.0
48.166	1.0
48.181	7.0
48.196	7.0
48.211	3.0
48.226	3.0
48.241	7.0
48.255	3.0
48.27	1.0
48.285	5.0
48.3	2.0
48.315	4.0
48.33	6.0
48.345	6.0
48.359	4.0
48.374	4.0
48.389	5.0
48.404	5.0
48.419	6.0
48.434	10.0
48.449	6.0
48.464	3.0
48.478	4.0
48.493	8.0
48.508	2.0
48.523	8.0
48.538	6.0
48.553	2.0
48.568	4.0
48.583	6.0
48.597	6.0
48.612	9.0
48.627	3.0
48.642	1.0
48.657	4.0
48.672	4.0
48.687	8.0
48.702	2.0
48.717	4.0
48.731	5.0
48.746	6.0
48.761	3.0
48.776	3.0
48.791	4.0
48.806	6.0
48.821	9.0
48.836	3.0
48.851	2.0
48.866	2.0
48.88	10.0
48.895	3.0
48.91	6.0
48.925	5.0
48.94	3.0
48.955	3.0
48.97	6.0
48.985	5.0
49.0	7.0
49.015	6.0
49.03	5.0
49.044	2.0
49.059	5.0
49.074	6.0
49.089	5.0
49.104	6.0
49.119	7.0
49.134	4.0
49.149	6.0
49.164	3.0
49.179	7.0
49.194	5.0
49.209	5.0
49.224	6.0
49.238	4.0
49.253	5.0
49.268	9.0
49.283	5.0
49.298	3.0
49.313	6.0
49.328	9.0
49.343	7.0
49.358	6.0
49.373	7.0
49.388	10.0
49.403	4.0
49.418	6.0
49.433	11.0
49.448	9.0
49.463	11.0
49.478	5.0
49.492	9.0
49.507	6.0
49.522	3.0
49.537	3.0
49.552	6.0
49.567	8.0
49.582	6.0
49.597	7.0
49.612	10.0
49.627	3.0
49.642	6.0
49.657	7.0
49.672	4.0
49.687	5.0
49.702	2.0
49.717	5.0
49.732	5.0
49.747	8.0
49.762	7.0
49.777	2.0
49.792	5.0
49.807	3.0
49.822	6.0
49.837	6.0
49.852	4.0
49.867	6.0
49.882	6.0
49.897	8.0
49.912	3.0
49.927	11.0
49.942	7.0
49.957	4.0
49.971	9.0
49.986	7.0
50.001	6.0
50.016	6.0
50.031	5.0
50.046	5.0
50.061	3.0
50.076	8.0
50.091	7.0
50.106	8.0
50.121	6.0
50.136	3.0
50.151	7.0
50.166	6.0
50.181	6.0
50.196	5.0
50.211	4.0
50.226	2.0
50.241	2.0
50.256	7.0
50.271	1.0
50.286	8.0
50.302	2.0
50.317	9.0
50.332	10.0
50.347	5.0
50.362	9.0
50.377	6.0
50.392	4.0
50.407	10.0
50.422	9.0
50.437	6.0
50.452	4.0
50.467	8.0
50.482	16.0
50.497	1.0
50.512	5.0
50.527	8.0
50.542	4.0
50.557	6.0
50.572	5.0
50.587	1.0
50.602	7.0
50.617	3.0
50.632	7.0
50.647	5.0
50.662	2.0
50.677	5.0
50.692	6.0
50.707	8.0
50.722	9.0
50.737	5.0
50.752	5.0
50.767	6.0
50.782	7.0
50.797	6.0
50.812	4.0
50.828	3.0
50.843	7.0
50.858	2.0
50.873	8.0
50.888	2.0
50.903	5.0
50.918	8.0
50.933	3.0
50.948	3.0
50.963	9.0
50.978	9.0
50.993	3.0
51.008	3.0
51.023	3.0
51.038	7.0
51.053	4.0
51.068	5.0
51.083	7.0
51.098	3.0
51.114	5.0
51.129	1.0
51.144	3.0
51.159	1.0
51.174	7.0
51.189	6.0
51.204	5.0
51.219	1.0
51.234	6.0
51.249	3.0
51.264	9.0
51.279	5.0
51.294	5.0
51.309	5.0
51.324	4.0
51.34	2.0
51.355	10.0
51.37	12.0
51.385	11.0
51.4	3.0
51.415	8.0
51.43	11.0
51.445	11.0
51.46	11.0
51.475	10.0
51.49	12.0
51.505	11.0
51.52	16.0
51.535	7.0
51.551	13.0
51.566	19.0
51.581	15.0
51.596	14.0
51.611	9.0
51.626	14.0
51.641	3.0
51.656	6.0
51.671	8.0
51.686	8.0
51.701	6.0
51.716	10.0
51.732	13.0
51.747	6.0
51.762	9.0
51.777	6.0
51.792	11.0
51.807	12.0
51.822	12.0
51.837	15.0
51.852	9.0
51.867	16.0
51.882	11.0
51.898	10.0
51.913	9.0
51.928	10.0
51.943	4.0
51.958	2.0
51.973	14.0
51.988	4.0
52.003	4.0
52.018	6.0
52.033	4.0
52.048	9.0
52.064	2.0
52.079	7.0
52.094	10.0
52.109	5.0
52.124	3.0
52.139	3.0
52.154	4.0
52.169	3.0
52.184	7.0
52.199	8.0
52.215	3.0
52.23	2.0
52.245	4.0
52.26	4.0
52.275	6.0
52.29	7.0
52.305	5.0
52.32	5.0
52.335	4.0
52.35	3.0
52.366	5.0
52.381	6.0
52.396	7.0
52.411	8.0
52.426	4.0
52.441	3.0
52.456	3.0
52.471	9.0
52.486	4.0
52.502	13.0
52.517	6.0
52.532	4.0
52.547	8.0
52.562	8.0
52.577	10.0
52.592	12.0
52.607	12.0
52.622	16.0
52.637	8.0
52.653	6.0
52.668	11.0
52.683	8.0
52.698	10.0
52.713	14.0
52.728	13.0
52.743	3.0
52.758	3.0
52.774	3.0
52.789	4.0
52.804	9.0
52.819	8.0
52.834	12.0
52.849	9.0
52.864	6.0
52.879	8.0
52.894	8.0
52.91	11.0
52.925	4.0
52.94	10.0
52.955	4.0
52.97	8.0
52.985	4.0
53.0	6.0
53.015	4.0
53.031	8.0
53.046	5.0
53.061	0.0
53.076	1.0
53.091	3.0
53.106	6.0
53.121	5.0
53.136	4.0
53.152	4.0
53.167	5.0
53.182	5.0
53.197	7.0
53.212	3.0
53.227	8.0
53.242	5.0
53.257	3.0
53.273	5.0
53.288	9.0
53.303	7.0
53.318	6.0
53.333	2.0
53.348	7.0
53.363	4.0
53.379	1.0
53.394	4.0
53.409	6.0
53.424	5.0
53.439	3.0
53.454	8.0
53.469	2.0
53.484	0.0
53.5	3.0
53.515	14.0
53.53	5.0
53.545	6.0
53.56	5.0
53.575	4.0
53.59	5.0
53.606	7.0
53.621	6.0
53.636	4.0
53.651	6.0
53.666	0.0
53.681	3.0
53.696	2.0
53.712	6.0
53.727	4.0
53.742	6.0
53.757	9.0
53.772	2.0
53.787	2.0
53.802	2.0
53.818	4.0
53.833	4.0
53.848	2.0
53.863	2.0
53.878	4.0
53.893	1.0
53.909	4.0
53.924	3.0
53.939	6.0
53.954	4.0
53.969	2.0
53.984	3.0
53.999	6.0
54.015	7.0
54.03	6.0
54.045	10.0
54.06	10.0
54.075	0.0
54.09	2.0
54.106	5.0
54.121	4.0
54.136	4.0
54.151	7.0
54.166	3.0
54.181	6.0
54.197	7.0
54.212	2.0
54.227	2.0
54.242	5.0
54.257	6.0
54.272	4.0
54.288	5.0
54.303	5.0
54.318	7.0
54.333	5.0
54.348	6.0
54.363	4.0
54.379	6.0
54.394	6.0
54.409	7.0
54.424	4.0
54.439	8.0
54.454	11.0
54.47	7.0
54.485	3.0
54.5	5.0
54.515	10.0
54.53	11.0
54.545	4.0
54.561	9.0
54.576	10.0
54.591	12.0
54.606	12.0
54.621	16.0
54.636	12.0
54.652	10.0
54.667	16.0
54.682	7.0
54.697	13.0
54.712	15.0
54.727	8.0
54.743	7.0
54.758	5.0
54.773	4.0
54.788	4.0
54.803	6.0
54.819	8.0
54.834	8.0
54.849	3.0
54.864	8.0
54.879	5.0
54.894	7.0
54.91	7.0
54.925	5.0
54.94	8.0
54.955	5.0
54.97	7.0
54.985	12.0
55.001	5.0
55.016	12.0
55.031	7.0
55.046	8.0
55.061	8.0
55.077	7.0
55.092	7.0
55.107	3.0
55.122	2.0
55.137	7.0
55.152	2.0
55.168	6.0
55.183	5.0
55.198	9.0
55.213	6.0
55.228	2.0
55.243	5.0
55.259	4.0
55.274	9.0
55.289	7.0
55.304	7.0
55.319	7.0
55.335	4.0
55.35	6.0
55.365	7.0
55.38	3.0
55.395	4.0
55.41	8.0
55.426	4.0
55.441	4.0
55.456	5.0
55.471	5.0
55.486	3.0
55.501	9.0
55.517	1.0
55.532	5.0
55.547	5.0
55.562	2.0
55.577	2.0
55.592	9.0
55.608	8.0
55.623	3.0
55.638	10.0
55.653	6.0
55.668	9.0
55.683	8.0
55.699	2.0
55.714	6.0
55.729	3.0
55.744	2.0
55.759	7.0
55.774	8.0
55.79	4.0
55.805	4.0
55.82	10.0
55.835	4.0
55.85	7.0
55.865	5.0
55.881	5.0
55.896	3.0
55.911	6.0
55.926	11.0
55.941	6.0
55.956	5.0
55.972	5.0
55.987	4.0
56.002	6.0
56.017	8.0
56.032	7.0
56.047	12.0
56.063	9.0
56.078	3.0
56.093	0.0
56.108	5.0
56.123	6.0
56.138	8.0
56.154	5.0
56.169	5.0
56.184	3.0
56.199	3.0
56.214	5.0
56.229	2.0
56.244	8.0
56.26	2.0
56.275	4.0
56.29	9.0
56.305	3.0
56.32	4.0
56.335	6.0
56.351	8.0
56.366	2.0
56.381	3.0
56.396	4.0
56.411	4.0
56.426	10.0
56.441	7.0
56.457	3.0
56.472	2.0
56.487	3.0
56.502	4.0
56.517	2.0
56.532	4.0
56.547	2.0
56.563	1.0
56.578	4.0
56.593	4.0
56.608	3.0
56.623	4.0
56.638	6.0
56.653	6.0
56.668	5.0
56.684	1.0
56.699	5.0
56.714	5.0
56.729	7.0
56.744	5.0
56.759	1.0
56.774	3.0
56.79	4.0
56.805	4.0
56.82	3.0
56.835	3.0
56.85	4.0
56.865	9.0
56.88	5.0
56.895	7.0
56.911	3.0
56.926	6.0
56.941	5.0
56.956	5.0
56.971	5.0
56.986	3.0
57.001	5.0
57.016	4.0
57.031	3.0
57.047	2.0
57.062	5.0
57.077	4.0
57.092	4.0
57.107	5.0
57.122	4.0
57.137	5.0
57.152	2.0
57.167	5.0
57.183	2.0
57.198	4.0
57.213	4.0
57.228	5.0
57.243	3.0
57.258	5.0
57.273	5.0
57.288	3.0
57.303	5.0
57.318	4.0
57.334	3.0
57.349	10.0
57.364	2.0
57.379	2.0
57.394	3.0
57.409	5.0
57.424	5.0
57.439	5.0
57.454	6.0
57.469	6.0
57.484	5.0
57.5	7.0
57.515	5.0
57.53	5.0
57.545	2.0
57.56	4.0
57.575	2.0
57.59	7.0
57.605	6.0
57.62	4.0
57.635	7.0
57.65	3.0
57.665	3.0
57.68	8.0
57.696	6.0
57.711	3.0
57.726	4.0
57.741	7.0
57.756	1.0
57.771	3.0
57.786	5.0
57.801	4.0
57.816	4.0
57.831	5.0
57.846	10.0
57.861	2.0
57.876	6.0
57.891	3.0
57.906	1.0
57.921	3.0
57.937	3.0
57.952	7.0
57.967	9.0
57.982	6.0
57.997	6.0
58.012	3.0
58.027	4.0
58.042	5.0
58.057	7.0
58.072	3.0
58.087	7.0
58.102	1.0
58.117	6.0
58.132	2.0
58.147	7.0
58.162	3.0
58.177	7.0
58.192	6.0
58.207	1.0
58.222	1.0
58.237	4.0
58.252	6.0
58.267	5.0
58.282	5.0
58.297	4.0
58.312	3.0
58.327	5.0
58.342	1.0
58.357	2.0
58.372	5.0
58.387	5.0
58.402	8.0
58.418	2.0
58.433	6.0
58.448	3.0
58.463	6.0
58.478	3.0
58.493	5.0
58.508	3.0
58.523	3.0
58.538	9.0
58.553	5.0
58.568	5.0
58.583	5.0
58.598	7.0
58.613	3.0
58.628	13.0
58.643	20.0
58.658	1.0
58.673	10.0
58.688	12.0
58.703	9.0
58.718	7.0
58.733	10.0
58.748	4.0
58.763	4.0
58.778	1.0
58.793	2.0
58.808	1.0
58.823	2.0
58.838	3.0
58.853	4.0
58.868	2.0
58.883	4.0
58.898	1.0
58.913	3.0
58.928	6.0
58.942	3.0
58.957	5.0
58.972	5.0
58.987	8.0
59.002	9.0
59.017	8.0
59.032	6.0
59.047	6.0
59.062	12.0
59.077	6.0
59.092	7.0
59.107	5.0
59.122	6.0
59.137	6.0
59.152	4.0
59.167	3.0
59.182	5.0
59.197	12.0
59.212	2.0
59.227	4.0
59.242	0.0
59.257	4.0
59.272	3.0
59.287	3.0
59.302	2.0
59.317	4.0
59.332	3.0
59.347	4.0
59.362	4.0
59.377	5.0
59.392	7.0
59.407	4.0
59.422	4.0
59.437	1.0
59.452	4.0
59.467	4.0
59.482	9.0
59.497	3.0
59.512	4.0
59.527	7.0
59.542	6.0
59.557	12.0
59.572	6.0
59.587	11.0
59.602	7.0
59.617	9.0
59.632	6.0
59.647	9.0
59.661	7.0
59.676	6.0
59.691	6.0
59.706	7.0
59.721	6.0
59.736	4.0
59.751	5.0
59.766	6.0
59.781	3.0
59.796	4.0
59.811	3.0
59.826	5.0
59.841	3.0
59.856	7.0
59.871	6.0
59.886	4.0
59.901	1.0
59.916	4.0
59.931	3.0
59.946	7.0
59.961	3.0
59.976	6.0
59.991	10.0
60.006	2.0
60.021	5.0
60.036	6.0
60.051	6.0
60.066	11.0
60.081	5.0
60.096	10.0
60.111	4.0
60.126	5.0
60.141	4.0
60.156	3.0
60.171	4.0
60.186	6.0
60.201	3.0
60.216	4.0
60.231	4.0
60.246	4.0
60.261	3.0
60.276	2.0
60.291	6.0
60.306	5.0
60.321	4.0
60.336	6.0
60.35	2.0
60.365	6.0
60.38	6.0
60.395	3.0
60.41	2.0
60.425	1.0
60.44	6.0
60.455	3.0
60.47	5.0
60.485	8.0
60.5	9.0
60.515	4.0
60.53	8.0
60.545	8.0
60.56	12.0
60.575	8.0
60.59	10.0
60.605	2.0
60.62	4.0
60.635	5.0
60.65	9.0
60.665	7.0
60.68	2.0
60.695	4.0
60.71	1.0
60.725	11.0
60.74	2.0
60.755	1.0
60.77	2.0
60.785	5.0
60.8	3.0
60.815	4.0
60.83	2.0
60.845	5.0
60.86	5.0
60.875	5.0
60.89	3.0
60.905	10.0
60.92	5.0
60.935	5.0
60.95	6.0
60.965	6.0
60.98	5.0
60.995	5.0
61.01	1.0
61.025	6.0
61.04	8.0
61.055	9.0
61.07	5.0
61.085	5.0
61.1	4.0
61.115	4.0
61.13	6.0
61.145	3.0
61.16	4.0
61.175	6.0
61.191	4.0
61.206	2.0
61.221	2.0
61.236	6.0
61.251	2.0
61.266	9.0
61.281	3.0
61.296	5.0
61.311	3.0
61.326	4.0
61.341	4.0
61.356	7.0
61.371	2.0
61.386	3.0
61.401	3.0
61.416	7.0
61.431	5.0
61.446	3.0
61.461	7.0
61.476	8.0
61.491	7.0
61.506	6.0
61.521	8.0
61.536	3.0
61.551	4.0
61.566	5.0
61.581	7.0
61.596	4.0
61.611	4.0
61.626	4.0
61.641	8.0
61.656	3.0
61.672	5.0
61.687	4.0
61.702	4.0
61.717	5.0
61.732	6.0
61.747	8.0
61.762	5.0
61.777	4.0
61.792	4.0
61.807	1.0
61.822	6.0
61.837	4.0
61.852	4.0
61.867	2.0
61.882	5.0
61.897	6.0
61.912	6.0
61.927	7.0
61.943	6.0
61.958	11.0
61.973	4.0
61.988	3.0
62.003	2.0
62.018	5.0
62.033	0.0
62.048	8.0
62.063	3.0
62.078	4.0
62.093	6.0
62.108	6.0
62.123	3.0
62.138	7.0
62.153	6.0
62.169	4.0
62.184	3.0
62.199	2.0
62.214	2.0
62.229	5.0
62.244	2.0
62.259	1.0
62.274	4.0
62.289	6.0
62.304	4.0
62.319	3.0
62.335	2.0
62.35	3.0
62.365	5.0
62.38	6.0
62.395	4.0
62.41	7.0
62.425	2.0
62.44	4.0
62.455	5.0
62.47	5.0
62.485	8.0
62.501	5.0
62.516	5.0
62.531	4.0
62.546	3.0
62.561	0.0
62.576	2.0
62.591	9.0
62.606	3.0
62.621	3.0
62.636	6.0
62.652	0.0
62.667	5.0
62.682	3.0
62.697	8.0
62.712	4.0
62.727	2.0
62.742	5.0
62.757	6.0
62.772	1.0
62.787	4.0
62.803	3.0
62.818	5.0
62.833	5.0
62.848	7.0
62.863	4.0
62.878	2.0
62.893	3.0
62.908	3.0
62.923	5.0
62.939	2.0
62.954	3.0
62.969	4.0
62.984	3.0
62.999	5.0
63.014	6.0
63.029	5.0
63.044	3.0
63.059	3.0
63.074	2.0
63.09	3.0
63.105	6.0
63.12	2.0
63.135	4.0
63.15	1.0
63.165	2.0
63.18	6.0
63.195	1.0
63.21	5.0
63.226	7.0
63.241	2.0
63.256	6.0
63.271	7.0
63.286	3.0
63.301	3.0
63.316	8.0
63.331	6.0
63.346	6.0
63.362	6.0
63.377	4.0
63.392	7.0
63.407	8.0
63.422	6.0
63.437	6.0
63.452	4.0
63.467	7.0
63.482	8.0
63.497	3.0
63.513	7.0
63.528	4.0
63.543	3.0
63.558	2.0
63.573	3.0
63.588	4.0
63.603	2.0
63.618	2.0
63.633	3.0
63.648	5.0
63.664	2.0
63.679	9.0
63.694	6.0
63.709	7.0
63.724	3.0
63.739	5.0
63.754	9.0
63.769	8.0
63.784	1.0
63.799	7.0
63.814	7.0
63.83	12.0
63.845	3.0
63.86	6.0
63.875	3.0
63.89	2.0
63.905	6.0
63.92	5.0
63.935	9.0
63.95	4.0
63.965	4.0
63.98	4.0
63.996	5.0
64.011	6.0
64.026	3.0
64.041	4.0
64.056	2.0
64.071	7.0
64.086	2.0
64.101	7.0
64.116	3.0
64.131	2.0
64.146	2.0
64.161	2.0
64.176	4.0
64.191	5.0
64.207	8.0
64.222	7.0
64.237	9.0
64.252	2.0
64.267	3.0
64.282	4.0
64.297	3.0
64.312	2.0
64.327	4.0
64.342	2.0
64.357	4.0
64.372	5.0
64.387	3.0
64.402	7.0
64.417	5.0
64.433	3.0
64.448	6.0
64.463	5.0
64.478	2.0
64.493	5.0
64.508	4.0
64.523	4.0
64.538	4.0
64.553	3.0
64.568	5.0
64.583	2.0
64.598	4.0
64.613	5.0
64.628	5.0
64.643	5.0
64.658	0.0
64.673	3.0
64.688	0.0
64.703	7.0
64.718	5.0
64.734	6.0
64.749	3.0
64.764	3.0
64.779	3.0
64.794	3.0
64.809	3.0
64.824	3.0
64.839	3.0
64.854	4.0
64.869	1.0
64.884	4.0
64.899	0.0
64.914	2.0
64.929	3.0
64.944	2.0
64.959	3.0
64.974	1.0
64.989	3.0
65.004	6.0
65.019	2.0
65.034	6.0
65.049	0.0
65.064	3.0
65.079	7.0
65.094	5.0
65.109	5.0
65.125	6.0
65.14	7.0
65.155	2.0
65.17	3.0
65.185	5.0
65.2	0.0
65.215	4.0
65.23	3.0
65.245	3.0
65.26	6.0
65.275	3.0
65.29	3.0
65.305	5.0
65.32	6.0
65.335	3.0
65.35	9.0
65.365	4.0
65.38	4.0
65.395	5.0
65.41	5.0
65.425	0.0
65.44	2.0
65.455	1.0
65.47	1.0
65.485	5.0
65.5	4.0
65.515	5.0
65.53	1.0
65.545	4.0
65.56	3.0
65.575	3.0
65.59	5.0
65.605	3.0
65.62	8.0
65.635	3.0
65.65	4.0
65.666	0.0
65.681	6.0
65.696	2.0
65.711	4.0
65.726	3.0
65.741	8.0
65.756	3.0
65.771	6.0
65.786	2.0
65.801	4.0
65.816	3.0
65.831	0.0
65.846	6.0
65.861	3.0
65.876	3.0
65.891	3.0
65.906	9.0
65.921	3.0
65.936	6.0
65.951	1.0
65.966	3.0
65.981	1.0
65.996	6.0
66.011	3.0
66.026	4.0
66.041	3.0
66.056	3.0
66.071	7.0
66.086	4.0
66.101	4.0
66.116	11.0
66.131	7.0
66.146	4.0
66.161	5.0
66.176	5.0
66.191	4.0
66.206	13.0
66.221	7.0
66.236	8.0
66.251	6.0
66.266	8.0
66.281	8.0
66.296	7.0
66.311	5.0
66.327	7.0
66.342	4.0
66.357	4.0
66.372	7.0
66.387	5.0
66.402	1.0
66.417	7.0
66.432	4.0
66.447	4.0
66.462	3.0
66.477	1.0
66.492	2.0
66.507	5.0
66.522	7.0
66.537	5.0
66.552	1.0
66.567	5.0
66.582	8.0
66.597	14.0
66.612	5.0
66.627	4.0
66.642	2.0
66.657	8.0
66.672	7.0
66.687	4.0
66.702	4.0
66.717	6.0
66.732	4.0
66.747	3.0
66.762	2.0
66.777	3.0
66.792	6.0
66.807	8.0
66.822	6.0
66.837	3.0
66.853	0.0
66.868	3.0
66.883	2.0
66.898	5.0
66.913	4.0
66.928	3.0
66.943	6.0
66.958	5.0
66.973	2.0
66.988	1.0
67.003	5.0
67.018	5.0
67.033	3.0
67.048	7.0
67.063	4.0
67.078	3.0
67.093	3.0
67.108	10.0
67.123	6.0
67.138	5.0
67.153	6.0
67.168	3.0
67.183	2.0
67.198	4.0
67.214	5.0
67.229	2.0
67.244	2.0
67.259	4.0
67.274	2.0
67.289	1.0
67.304	4.0
67.319	4.0
67.334	6.0
67.349	4.0
67.364	3.0
67.379	2.0
67.394	1.0
67.409	5.0
67.424	6.0
67.439	2.0
67.454	4.0
67.469	7.0
67.484	4.0
67.5	3.0
67.515	8.0
67.53	5.0
67.545	2.0
67.56	3.0
67.575	3.0
67.59	3.0
67.605	7.0
67.62	6.0
67.635	0.0
67.65	8.0
67.665	0.0
67.68	7.0
67.695	4.0
67.71	3.0
67.726	4.0
67.741	1.0
67.756	1.0
67.771	2.0
67.786	1.0
67.801	1.0
67.816	1.0
67.831	4.0
67.846	4.0
67.861	6.0
67.876	3.0
67.891	4.0
67.906	3.0
67.922	2.0
67.937	3.0
67.952	3.0
67.967	4.0
67.982	6.0
67.997	5.0
68.012	3.0
68.027	7.0
68.042	3.0
68.057	3.0
68.072	7.0
68.087	5.0
68.103	3.0
68.118	4.0
68.133	3.0
68.148	2.0
68.163	3.0
68.178	1.0
68.193	4.0
68.208	1.0
68.223	6.0
68.238	5.0
68.254	3.0
68.269	2.0
68.284	4.0
68.299	2.0
68.314	0.0
68.329	4.0
68.344	4.0
68.359	2.0
68.374	5.0
68.389	6.0
68.405	4.0
68.42	4.0
68.435	7.0
68.45	2.0
68.465	7.0
68.48	2.0
68.495	5.0
68.51	3.0
68.525	6.0
68.54	5.0
68.556	2.0
68.571	5.0
68.586	5.0
68.601	3.0
68.616	2.0
68.631	2.0
68.646	6.0
68.661	3.0
68.676	1.0
68.691	4.0
68.707	7.0
68.722	3.0
68.737	3.0
68.752	5.0
68.767	6.0
68.782	4.0
68.797	5.0
68.812	3.0
68.827	5.0
68.842	7.0
68.857	5.0
68.873	1.0
68.888	4.0
68.903	5.0
68.918	4.0
68.933	4.0
68.948	1.0
68.963	4.0
68.978	4.0
68.993	5.0
69.008	5.0
69.023	4.0
69.038	6.0
69.054	2.0
69.069	5.0
69.084	5.0
69.099	4.0
69.114	1.0
69.129	4.0
69.144	3.0
69.159	3.0
69.174	4.0
69.189	6.0
69.204	4.0
69.219	1.0
69.234	4.0
69.249	5.0
69.264	3.0
69.279	3.0
69.295	5.0
69.31	4.0
69.325	5.0
69.34	4.0
69.355	3.0
69.37	2.0
69.385	0.0
69.4	2.0
69.415	4.0
69.43	5.0
69.445	3.0
69.46	9.0
69.475	3.0
69.49	3.0
69.505	5.0
69.52	5.0
69.535	7.0
69.55	1.0
69.565	4.0
69.58	5.0
69.595	6.0
69.61	5.0
69.625	2.0
69.64	3.0
69.655	1.0
69.67	5.0
69.685	4.0
69.7	8.0
69.715	3.0
69.73	6.0
69.745	3.0
69.76	3.0
69.775	13.0
69.79	3.0
69.805	8.0
69.82	4.0
69.835	3.0
69.85	3.0
69.865	3.0
69.88	3.0
69.895	6.0
69.909	4.0
69.924	10.0
69.939	2.0
69.954	1.0
69.969	7.0
69.984	3.0
69.999	1.0
70.014	3.0
70.029	4.0
70.044	5.0
70.059	5.0
70.074	4.0
70.088	3.0
70.103	3.0
70.118	5.0
70.133	5.0
70.148	2.0
70.163	1.0
70.178	2.0
70.193	4.0
70.208	4.0
70.222	2.0
70.237	8.0
70.252	0.0
70.267	7.0
70.282	8.0
70.297	1.0
70.312	6.0
70.327	6.0
70.341	4.0
70.356	9.0
70.371	5.0
70.386	2.0
70.401	4.0
70.416	2.0
70.43	5.0
70.445	4.0
70.46	0.0
70.475	2.0
70.49	3.0
70.505	1.0
70.519	8.0
70.534	8.0
70.549	0.0
70.564	8.0
70.579	1.0
70.594	4.0
70.608	6.0
70.623	8.0
70.638	1.0
70.653	3.0
70.668	7.0
70.683	11.0
70.697	3.0
70.712	13.0
70.727	2.0
70.742	5.0
70.757	3.0
70.771	4.0
70.786	6.0
70.801	1.0
70.816	2.0
70.831	4.0
70.845	6.0
70.86	1.0
70.875	1.0
70.89	2.0
70.905	3.0
70.92	3.0
70.934	1.0
70.949	4.0
70.964	2.0
70.979	4.0
70.994	4.0
71.008	6.0
71.023	2.0
71.038	4.0
71.053	4.0
71.068	2.0
71.082	4.0
71.097	4.0
71.112	4.0
71.127	6.0
71.142	5.0
71.156	11.0
71.171	6.0
71.186	7.0
71.201	3.0
71.216	3.0
71.231	2.0
71.245	4.0
71.26	4.0
71.275	3.0
71.29	5.0
71.305	3.0
71.319	3.0
71.334	3.0
71.349	7.0
71.364	3.0
71.379	3.0
71.394	4.0
71.408	5.0
71.423	2.0
71.438	5.0
71.453	6.0
71.468	4.0
71.483	4.0
71.497	5.0
71.512	2.0
71.527	1.0
71.542	1.0
71.557	3.0
71.572	2.0
71.586	5.0
71.601	3.0
71.616	1.0
71.631	3.0
71.646	4.0
71.661	3.0
71.676	2.0
71.69	5.0
71.705	5.0
71.72	1.0
71.735	7.0
71.75	5.0
71.765	7.0
71.78	1.0
71.795	5.0
71.81	0.0
71.824	4.0
71.839	6.0
71.854	1.0
71.869	5.0
71.884	1.0
71.899	3.0
71.914	3.0
71.929	2.0
71.944	2.0
71.959	2.0
71.974	4.0
71.988	4.0
72.003	2.0
72.018	2.0
72.033	4.0
72.048	5.0
72.063	2.0
72.078	2.0
72.093	1.0
72.108	3.0
72.123	4.0
72.138	3.0
72.153	3.0
72.168	2.0
72.183	4.0
72.198	2.0
72.213	2.0
72.228	5.0
72.243	3.0
72.258	5.0
72.273	3.0
72.288	3.0
72.303	2.0
72.318	5.0
72.333	6.0
72.348	3.0
72.363	5.0
72.378	3.0
72.393	3.0
72.408	9.0
72.423	1.0
72.438	3.0
72.453	3.0
72.468	8.0
72.483	6.0
72.498	3.0
72.513	1.0
72.528	3.0
72.543	3.0
72.558	1.0
72.573	7.0
72.588	2.0
72.603	0.0
72.618	2.0
72.633	0.0
72.649	3.0
72.664	2.0
72.679	1.0
72.694	2.0
72.709	1.0
72.724	6.0
72.739	3.0
72.754	1.0
72.769	5.0
72.784	3.0
72.799	2.0
72.814	1.0
72.829	2.0
72.845	2.0
72.86	2.0
72.875	3.0
72.89	3.0
72.905	3.0
72.92	2.0
72.935	8.0
72.95	5.0
72.965	2.0
72.98	0.0
72.996	6.0
73.011	3.0
73.026	4.0
73.041	4.0
73.056	3.0
73.071	6.0
73.086	4.0
73.101	2.0
73.117	4.0
73.132	4.0
73.147	3.0
73.162	1.0
73.177	3.0
73.192	2.0
73.207	5.0
73.222	5.0
73.238	3.0
73.253	3.0
73.268	3.0
73.283	2.0
73.298	3.0
73.313	4.0
73.328	2.0
73.343	0.0
73.359	2.0
73.374	8.0
73.389	3.0
73.404	5.0
73.419	4.0
73.434	4.0
73.449	4.0
73.465	2.0
73.48	8.0
73.495	3.0
73.51	4.0
73.525	1.0
73.54	6.0
73.556	1.0
73.571	7.0
73.586	1.0
73.601	6.0
73.616	4.0
73.631	4.0
73.646	0.0
73.662	2.0
73.677	2.0
73.692	3.0
73.707	6.0
73.722	2.0
73.737	5.0
73.752	1.0
73.768	2.0
73.783	3.0
73.798	2.0
73.813	3.0
73.828	6.0
73.843	6.0
73.859	4.0
73.874	1.0
73.889	3.0
73.904	2.0
73.919	3.0
73.934	4.0
73.949	5.0
73.965	0.0
73.98	3.0
73.995	4.0
74.01	1.0
74.025	3.0
74.04	6.0
74.056	4.0
74.071	6.0
74.086	3.0
74.101	5.0
74.116	8.0
74.131	8.0
74.146	6.0
74.162	8.0
74.177	4.0
74.192	4.0
74.207	3.0
74.222	3.0
74.237	5.0
74.252	4.0
74.268	2.0
74.283	2.0
74.298	8.0
74.313	2.0
74.328	2.0
74.343	1.0
74.358	2.0
74.374	4.0
74.389	3.0
74.404	5.0
74.419	2.0
74.434	6.0
74.449	2.0
74.464	5.0
74.48	5.0
74.495	2.0
74.51	5.0
74.525	4.0
74.54	8.0
74.555	1.0
74.57	2.0
74.586	8.0
74.601	4.0
74.616	3.0
74.631	3.0
74.646	2.0
74.661	1.0
74.676	4.0
74.691	5.0
74.707	0.0
74.722	2.0
74.737	4.0
74.752	4.0
74.767	7.0
74.782	2.0
74.797	4.0
74.813	0.0
74.828	4.0
74.843	2.0
74.858	5.0
74.873	2.0
74.888	5.0
74.903	2.0
74.918	1.0
74.934	9.0
74.949	7.0
74.964	3.0
74.979	6.0
74.994	2.0
75.009	2.0
75.024	8.0
75.04	0.0
75.055	5.0
75.07	10.0
75.085	3.0
75.1	1.0
75.115	4.0
75.13	7.0
75.145	2.0
75.161	7.0
75.176	1.0
75.191	2.0
75.206	9.0
75.221	2.0
75.236	5.0
75.251	2.0
75.266	3.0
75.282	1.0
75.297	2.0
75.312	0.0
75.327	4.0
75.342	6.0
75.357	0.0
75.372	2.0
75.387	6.0
75.403	2.0
75.418	2.0
75.433	2.0
75.448	0.0
75.463	1.0
75.478	5.0
75.493	1.0
75.509	4.0
75.524	5.0
75.539	3.0
75.554	4.0
75.569	4.0
75.584	5.0
75.599	2.0
75.614	5.0
75.63	4.0
75.645	2.0
75.66	4.0
75.675	2.0
75.69	1.0
75.705	4.0
75.72	3.0
75.735	4.0
75.751	3.0
75.766	2.0
75.781	2.0
75.796	1.0
75.811	3.0
75.826	2.0
75.841	0.0
75.856	6.0
75.872	4.0
75.887	5.0
75.902	6.0
75.917	3.0
75.932	3.0
75.947	7.0
75.962	9.0
75.977	7.0
75.993	5.0
76.008	1.0
76.023	3.0
76.038	3.0
76.053	5.0
76.068	5.0
76.083	3.0
76.098	4.0
76.114	3.0
76.129	2.0
76.144	5.0
76.159	5.0
76.174	4.0
76.189	4.0
76.204	3.0
76.22	1.0
76.235	3.0
76.25	7.0
76.265	3.0
76.28	3.0
76.295	3.0
76.31	2.0
76.325	3.0
76.341	2.0
76.356	6.0
76.371	3.0
76.386	5.0
76.401	3.0
76.416	5.0
76.431	2.0
76.446	9.0
76.462	4.0
76.477	3.0
76.492	3.0
76.507	2.0
76.522	4.0
76.537	4.0
76.552	8.0
76.567	1.0
76.583	3.0
76.598	2.0
76.613	4.0
76.628	3.0
76.643	0.0
76.658	1.0
76.673	4.0
76.688	3.0
76.704	3.0
76.719	2.0
76.734	3.0
76.749	3.0
76.764	7.0
76.779	6.0
76.794	6.0
76.809	6.0
76.824	5.0
76.84	4.0
76.855	1.0
76.87	0.0
76.885	2.0
76.9	3.0
76.915	1.0
76.93	2.0
76.945	2.0
76.96	1.0
76.976	6.0
76.991	2.0
77.006	5.0
77.021	2.0
77.036	9.0
77.051	0.0
77.066	4.0
77.081	4.0
77.096	2.0
77.112	5.0
77.127	2.0
77.142	5.0
77.157	4.0
77.172	8.0
77.187	6.0
77.202	0.0
77.217	4.0
77.232	5.0
77.247	2.0
77.263	5.0
77.278	7.0
77.293	3.0
77.308	4.0
77.323	1.0
77.338	5.0
77.353	6.0
77.368	3.0
77.383	5.0
77.398	4.0
77.413	4.0
77.428	2.0
77.444	14.0
77.459	4.0
77.474	2.0
77.489	2.0
77.504	4.0
77.519	0.0
77.534	3.0
77.549	5.0
77.564	8.0
77.579	4.0
77.594	3.0
77.609	6.0
77.624	2.0
77.64	5.0
77.655	9.0
77.67	6.0
77.685	5.0
77.7	2.0
77.715	3.0
77.73	2.0
77.745	5.0
77.76	2.0
77.775	4.0
77.79	2.0
77.805	2.0
77.82	6.0
77.835	7.0
77.85	4.0
77.865	3.0
77.88	1.0
77.895	4.0
77.91	2.0
77.926	3.0
77.941	4.0
77.956	5.0
77.971	1.0
77.986	4.0
78.001	3.0
78.016	1.0
78.031	4.0
78.046	2.0
78.061	5.0
78.076	3.0
78.091	3.0
78.106	4.0
78.121	5.0
78.136	2.0
78.151	1.0
78.166	5.0
78.181	3.0
78.196	4.0
78.211	5.0
78.226	2.0
78.241	2.0
78.256	3.0
78.271	4.0
78.286	4.0
78.301	1.0
78.316	3.0
78.331	2.0
78.346	6.0
78.361	2.0
78.376	7.0
78.391	7.0
78.406	2.0
78.421	3.0
78.436	3.0
78.451	3.0
78.466	2.0
78.481	4.0
78.496	2.0
78.511	7.0
78.526	4.0
78.541	3.0
78.556	1.0
78.571	2.0
78.586	2.0
78.601	4.0
78.616	1.0
78.631	2.0
78.646	4.0
78.661	5.0
78.676	3.0
78.691	6.0
78.706	2.0
78.721	2.0
78.736	3.0
78.751	3.0
78.766	2.0
78.781	1.0
78.796	5.0
78.811	5.0
78.826	3.0
78.841	2.0
78.856	5.0
78.871	1.0
78.885	6.0
78.9	6.0
78.915	1.0
78.93	4.0
78.945	6.0
78.96	2.0
78.975	5.0
78.99	2.0
79.005	1.0
79.02	3.0
79.035	4.0
79.05	3.0
79.065	7.0
79.08	4.0
79.095	2.0
79.11	2.0
79.125	3.0
79.14	4.0
79.155	2.0
79.17	5.0
79.185	1.0
79.2	4.0
79.215	3.0
79.23	1.0
79.245	3.0
79.26	2.0
79.275	2.0
79.29	4.0
79.304	5.0
79.319	2.0
79.334	6.0
79.349	5.0
79.364	2.0
79.379	3.0
79.394	4.0
79.409	3.0
79.424	4.0
79.439	2.0
79.454	4.0
79.469	4.0
79.484	2.0
79.499	6.0
79.514	2.0
79.529	2.0
79.544	8.0
79.559	2.0
79.574	3.0
79.589	2.0
79.604	3.0
79.619	2.0
79.634	4.0
79.649	2.0
79.664	3.0
79.679	6.0
79.693	4.0
79.708	4.0
79.723	1.0
79.738	4.0
79.753	6.0
79.768	4.0
79.783	2.0
79.798	6.0
79.813	3.0
79.828	4.0
79.843	3.0
79.858	6.0
79.873	3.0
79.888	6.0
79.903	7.0
79.918	6.0
79.933	1.0
79.948	2.0
79.963	3.0
79.978	2.0
79.993	4.0
80.008	6.0
80.023	4.0
80.038	5.0
80.053	3.0
80.068	4.0
80.083	6.0
80.098	4.0
80.113	5.0
80.128	2.0
80.143	3.0
80.158	5.0
80.173	4.0
80.188	5.0
80.202	5.0
80.217	1.0
80.232	1.0
80.247	3.0
80.262	1.0
80.277	4.0
80.292	4.0
80.307	5.0
80.322	0.0
80.337	3.0
80.352	3.0
80.367	1.0
80.382	2.0
80.397	2.0
80.412	2.0
80.427	1.0
80.442	4.0
80.457	0.0
80.472	4.0
80.487	4.0
80.502	3.0
80.517	1.0
80.532	1.0
80.547	3.0
80.562	4.0
80.577	4.0
80.592	1.0
80.607	1.0
80.622	2.0
80.637	4.0
80.652	5.0
80.667	5.0
80.682	2.0
80.697	6.0
80.712	0.0
80.727	2.0
80.742	1.0
80.757	4.0
80.772	3.0
80.787	0.0
80.802	5.0
80.817	4.0
80.832	3.0
80.847	5.0
80.862	4.0
80.877	1.0
80.892	1.0
80.907	2.0
80.922	5.0
80.937	3.0
80.952	4.0
80.967	7.0
80.982	4.0
80.997	4.0
81.012	2.0
81.027	3.0
81.042	5.0
81.057	1.0
81.072	1.0
81.087	4.0
81.101	3.0
81.116	2.0
81.131	8.0
81.146	2.0
81.161	2.0
81.176	4.0
81.191	0.0
81.206	1.0
81.221	3.0
81.236	3.0
81.251	5.0
81.266	4.0
81.281	3.0
81.296	3.0
81.311	5.0
81.326	3.0
81.341	3.0
81.356	4.0
81.371	2.0
81.386	4.0
81.401	2.0
81.416	4.0
81.431	4.0
81.446	2.0
81.461	1.0
81.476	1.0
81.491	1.0
81.506	2.0
81.521	3.0
81.536	2.0
81.55	4.0
81.565	5.0
81.58	3.0
81.595	2.0
81.61	3.0
81.625	2.0
81.64	2.0
81.655	2.0
81.67	2.0
81.685	3.0
81.7	2.0
81.715	1.0
81.73	1.0
81.745	0.0
81.76	4.0
81.775	3.0
81.79	4.0
81.805	3.0
81.819	7.0
81.834	3.0
81.849	3.0
81.864	5.0
81.879	5.0
81.894	4.0
81.909	5.0
81.924	3.0
81.939	3.0
81.954	3.0
81.969	6.0
81.984	3.0
81.999	2.0
82.013	3.0
82.028	4.0
82.043	5.0
82.058	7.0
82.073	5.0
82.088	4.0
82.103	1.0
82.118	4.0
82.133	3.0
82.148	4.0
82.163	2.0
82.177	3.0
82.192	4.0
82.207	3.0
82.222	4.0
82.237	3.0
82.252	2.0
82.267	2.0
82.282	4.0
82.297	4.0
82.312	4.0
82.326	1.0
82.341	2.0
82.356	5.0
82.371	2.0
82.386	6.0
82.401	6.0
82.416	3.0
82.431	6.0
82.445	3.0
82.46	4.0
82.475	2.0
82.49	5.0
82.505	5.0
82.52	2.0
82.535	4.0
82.55	2.0
82.565	3.0
82.579	4.0
82.594	4.0
82.609	5.0
82.624	5.0
82.639	1.0
82.654	4.0
82.669	2.0
82.684	4.0
82.698	4.0
82.713	1.0
82.728	2.0
82.743	2.0
82.758	0.0
82.773	6.0
82.788	6.0
82.803	6.0
82.817	0.0
82.832	4.0
82.847	2.0
82.862	5.0
82.877	4.0
82.892	2.0
82.907	3.0
82.922	6.0
82.937	5.0
82.951	3.0
82.966	2.0
82.981	3.0
82.996	2.0
83.011	4.0
83.026	2.0
83.041	3.0
83.056	1.0
83.07	0.0
83.085	7.0
83.1	3.0
83.115	4.0
83.13	1.0
83.145	3.0
83.16	3.0
83.175	3.0
83.19	2.0
83.204	2.0
83.219	4.0
83.234	2.0
83.249	4.0
83.264	5.0
83.279	1.0
83.294	3.0
83.309	0.0
83.324	3.0
83.339	3.0
83.353	3.0
83.368	2.0
83.383	1.0
83.398	5.0
83.413	2.0
83.428	2.0
83.443	4.0
83.458	3.0
83.473	5.0
83.488	7.0
83.503	4.0
83.517	3.0
83.532	4.0
83.547	5.0
83.562	6.0
83.577	1.0
83.592	4.0
83.607	7.0
83.622	5.0
83.637	4.0
83.652	2.0
83.667	3.0
83.682	1.0
83.697	6.0
83.712	3.0
83.727	3.0
83.741	2.0
83.756	7.0
83.771	2.0
83.786	6.0
83.801	0.0
83.816	2.0
83.831	7.0
83.846	3.0
83.861	4.0
83.876	0.0
83.891	2.0
83.906	4.0
83.921	0.0
83.936	2.0
83.951	1.0
83.966	2.0
83.981	1.0
83.996	3.0
84.011	1.0
84.026	3.0
84.041	1.0
84.056	3.0
84.071	3.0
84.086	10.0
84.101	2.0
84.116	2.0
84.131	5.0
84.146	6.0
84.161	2.0
84.176	2.0
84.191	4.0
84.206	4.0
84.221	4.0
84.236	4.0
84.251	5.0
84.266	2.0
84.281	2.0
84.296	7.0
84.311	3.0
84.326	6.0
84.341	6.0
84.356	5.0
84.371	7.0
84.386	4.0
84.401	2.0
84.416	3.0
84.431	1.0
84.446	9.0
84.461	3.0
84.476	5.0
84.492	5.0
84.507	2.0
84.522	2.0
84.537	2.0
84.552	3.0
84.567	8.0
84.582	0.0
84.597	1.0
84.612	3.0
84.627	3.0
84.642	2.0
84.657	3.0
84.672	1.0
84.687	1.0
84.702	2.0
84.717	4.0
84.733	4.0
84.748	1.0
84.763	2.0
84.778	1.0
84.793	1.0
84.808	2.0
84.823	0.0
84.838	1.0
84.853	2.0
84.868	6.0
84.883	1.0
84.898	4.0
84.913	4.0
84.929	2.0
84.944	2.0
84.959	2.0
84.974	10.0
84.989	5.0
85.004	4.0
85.019	10.0
85.034	3.0
85.049	5.0
85.064	3.0
85.079	2.0
85.094	1.0
85.11	5.0
85.125	2.0
85.14	2.0
85.155	3.0
85.17	0.0
85.185	4.0
85.2	2.0
85.215	5.0
85.23	4.0
85.245	3.0
85.26	4.0
85.276	1.0
85.291	1.0
85.306	3.0
85.321	5.0
85.336	3.0
85.351	6.0
85.366	4.0
85.381	4.0
85.396	5.0
85.411	5.0
85.426	5.0
85.441	3.0
85.457	2.0
85.472	2.0
85.487	5.0
85.502	5.0
85.517	0.0
85.532	5.0
85.547	5.0
85.562	3.0
85.577	2.0
85.592	3.0
85.607	2.0
85.622	0.0
85.637	4.0
85.653	1.0
85.668	3.0
85.683	4.0
85.698	4.0
85.713	1.0
85.728	5.0
85.743	2.0
85.758	3.0
85.773	4.0
85.788	2.0
85.803	5.0
85.818	6.0
85.833	2.0
85.848	2.0
85.863	2.0
85.879	2.0
85.894	4.0
85.909	3.0
85.924	0.0
85.939	5.0
85.954	2.0
85.969	4.0
85.984	1.0
85.999	4.0
86.014	3.0
86.029	1.0
86.044	4.0
86.059	6.0
86.074	0.0
86.089	1.0
86.104	1.0
86.119	4.0
86.134	3.0
86.149	3.0
86.164	1.0
86.179	2.0
86.194	3.0
86.209	3.0
86.224	1.0
86.239	1.0
86.254	1.0
86.269	3.0
86.284	3.0
86.299	1.0
86.314	1.0
86.33	4.0
86.345	3.0
86.36	1.0
86.375	4.0
86.39	4.0
86.405	4.0
86.42	1.0
86.435	8.0
86.45	1.0
86.465	2.0
86.48	6.0
86.495	4.0
86.51	2.0
86.525	1.0
86.54	6.0
86.555	3.0
86.57	2.0
86.585	1.0
86.6	4.0
86.615	3.0
86.63	2.0
86.645	4.0
86.659	4.0
86.674	1.0
86.689	3.0
86.704	1.0
86.719	5.0
86.734	1.0
86.749	4.0
86.764	2.0
86.779	6.0
86.794	5.0
86.809	7.0
86.824	3.0
86.839	5.0
86.854	1.0
86.869	4.0
86.884	3.0
86.899	6.0
86.914	2.0
86.929	1.0
86.944	5.0
86.959	3.0
86.974	3.0
86.989	3.0
87.004	5.0
87.019	8.0
87.034	4.0
87.049	1.0
87.064	0.0
87.079	0.0
87.094	1.0
87.109	2.0
87.124	2.0
87.139	4.0
87.154	3.0
87.169	2.0
87.184	2.0
87.199	1.0
87.214	5.0
87.229	2.0
87.244	3.0
87.259	4.0
87.274	0.0
87.289	2.0
87.304	0.0
87.319	1.0
87.334	2.0
87.349	6.0
87.364	5.0
87.379	4.0
87.394	1.0
87.409	4.0
87.424	7.0
87.438	1.0
87.453	1.0
87.468	5.0
87.483	2.0
87.498	5.0
87.513	5.0
87.528	3.0
87.543	4.0
87.558	5.0
87.573	7.0
87.588	7.0
87.603	3.0
87.618	5.0
87.633	3.0
87.648	7.0
87.663	0.0
87.678	6.0
87.693	3.0
87.708	3.0
87.723	2.0
87.738	3.0
87.753	2.0
87.768	7.0
87.783	2.0
87.798	2.0
87.813	7.0
87.828	5.0
87.843	4.0
87.858	3.0
87.873	8.0
87.888	2.0
87.903	4.0
87.918	2.0
87.933	4.0
87.948	2.0
87.963	3.0
87.978	2.0
87.993	5.0
88.008	5.0
88.023	5.0
88.038	1.0
88.053	3.0
88.068	2.0
88.083	4.0
88.098	2.0
88.113	3.0
88.128	1.0
88.143	2.0
88.158	4.0
88.174	3.0
88.189	4.0
88.204	1.0
88.219	6.0
88.234	0.0
88.249	1.0
88.264	3.0
88.279	2.0
88.294	4.0
88.309	3.0
88.324	3.0
88.339	5.0
88.354	2.0
88.369	3.0
88.384	5.0
88.399	2.0
88.414	2.0
88.429	5.0
88.444	7.0
88.459	3.0
88.474	5.0
88.489	5.0
88.504	4.0
88.519	5.0
88.534	4.0
88.549	4.0
88.564	3.0
88.58	1.0
88.595	4.0
88.61	3.0
88.625	3.0
88.64	2.0
88.655	4.0
88.67	3.0
88.685	5.0
88.7	6.0
88.715	7.0
88.73	4.0
88.745	2.0
88.76	3.0
88.775	4.0
88.79	3.0
88.805	6.0
88.82	0.0
88.835	2.0
88.85	5.0
88.865	2.0
88.88	4.0
88.895	5.0
88.911	3.0
88.926	5.0
88.941	1.0
88.956	2.0
88.971	3.0
88.986	6.0
89.001	1.0
89.016	5.0
89.031	0.0
89.046	2.0
89.061	1.0
89.076	4.0
89.091	4.0
89.106	2.0
89.121	6.0
89.136	5.0
89.151	4.0
89.166	6.0
89.181	4.0
89.196	1.0
89.211	1.0
89.227	3.0
89.242	0.0
89.257	3.0
89.272	3.0
89.287	3.0
89.302	5.0
89.317	2.0
89.332	2.0
89.347	3.0
89.362	1.0
89.377	5.0
89.392	6.0
89.407	2.0
89.422	2.0
89.437	3.0
89.452	4.0
89.467	2.0
89.482	1.0
89.497	5.0
89.512	4.0
89.527	2.0
89.542	2.0
89.557	3.0
89.572	3.0
89.587	0.0
89.602	3.0
89.617	4.0
89.632	2.0
89.647	3.0
89.662	4.0
89.677	6.0
89.693	3.0
89.708	4.0
89.723	2.0
89.738	2.0
89.753	4.0
89.768	3.0
89.783	3.0
89.798	5.0
89.813	5.0
89.828	3.0
89.843	7.0
89.858	1.0
89.873	3.0
89.888	3.0
89.903	5.0
89.918	3.0
89.933	1.0
89.948	4.0
89.963	6.0
89.978	1.0
89.993	2.0
90.008	5.0
90.023	6.0
90.038	5.0
90.053	3.0
90.068	3.0
90.083	2.0
90.097	4.0
90.112	4.0
90.127	3.0
90.142	5.0
90.157	3.0
90.172	6.0
90.187	2.0
90.202	2.0
90.217	3.0
90.232	1.0
90.247	4.0
90.262	2.0
90.277	6.0
90.292	6.0
90.307	3.0
90.322	3.0
90.337	4.0
90.352	2.0
90.367	4.0
90.382	3.0
90.397	3.0
90.412	2.0
90.427	3.0
90.442	5.0
90.457	5.0
90.472	4.0
90.487	0.0
90.501	1.0
90.516	1.0
90.531	8.0
90.546	2.0
90.561	5.0
90.576	6.0
90.591	2.0
90.606	3.0
90.621	2.0
90.636	3.0
90.651	3.0
90.666	1.0
90.681	3.0
90.696	4.0
90.711	1.0
90.726	4.0
90.741	4.0
90.755	3.0
90.77	4.0
90.785	3.0
90.8	3.0
90.815	7.0
90.83	2.0
90.845	2.0
90.86	2.0
90.875	3.0
90.89	2.0
90.905	3.0
90.92	8.0
90.935	6.0
90.95	1.0
90.965	3.0
90.979	2.0
90.994	3.0
91.009	6.0
91.024	3.0
91.039	6.0
91.054	8.0
91.069	5.0
91.084	3.0
91.099	4.0
91.114	4.0
91.129	1.0
91.144	4.0
91.159	2.0
91.174	3.0
91.188	3.0
91.203	4.0
91.218	1.0
91.233	4.0
91.248	3.0
91.263	3.0
91.278	3.0
91.293	0.0
91.308	0.0
91.323	5.0
91.338	2.0
91.353	3.0
91.368	1.0
91.383	2.0
91.398	1.0
91.412	2.0
91.427	3.0
91.442	6.0
91.457	3.0
91.472	4.0
91.487	0.0
91.502	2.0
91.517	4.0
91.532	5.0
91.547	2.0
91.562	3.0
91.577	1.0
91.592	2.0
91.607	0.0
91.622	0.0
91.637	1.0
91.652	4.0
91.666	4.0
91.681	4.0
91.696	5.0
91.711	2.0
91.726	7.0
91.741	5.0
91.756	1.0
91.771	5.0
91.786	6.0
91.801	2.0
91.816	3.0
91.831	6.0
91.846	4.0
91.861	0.0
91.876	1.0
91.891	4.0
91.906	3.0
91.921	4.0
91.936	1.0
91.951	4.0
91.966	3.0
91.981	3.0
91.995	1.0
92.01	5.0
92.025	1.0
92.04	1.0
92.055	2.0
92.07	1.0
92.085	3.0
92.1	4.0
92.115	2.0
92.13	4.0
92.145	5.0
92.16	3.0
92.175	4.0
92.19	2.0
92.205	1.0
92.22	4.0
92.235	4.0
92.25	3.0
92.265	1.0
92.28	2.0
92.295	3.0
92.31	3.0
92.325	4.0
92.34	4.0
92.355	4.0
92.37	1.0
92.385	1.0
92.4	3.0
92.415	1.0
92.43	3.0
92.445	3.0
92.46	2.0
92.475	0.0
92.49	1.0
92.505	4.0
92.52	3.0
92.535	4.0
92.55	3.0
92.565	4.0
92.58	3.0
92.595	1.0
92.61	5.0
92.625	3.0
92.64	4.0
92.655	4.0
92.67	3.0
92.685	1.0
92.7	3.0
92.715	2.0
92.73	1.0
92.745	4.0
92.76	3.0
92.775	4.0
92.79	2.0
92.805	4.0
92.82	8.0
92.835	3.0
92.85	2.0
92.865	1.0
92.88	5.0
92.895	0.0
92.91	4.0
92.925	2.0
92.94	3.0
92.955	3.0
92.97	5.0
92.985	3.0
93.0	4.0
93.015	2.0
93.03	1.0
93.045	2.0
93.06	3.0
93.075	6.0
93.09	1.0
93.105	4.0
93.12	3.0
93.135	3.0
93.15	3.0
93.165	1.0
93.18	4.0
93.195	3.0
93.21	3.0
93.225	3.0
93.24	1.0
93.255	3.0
93.27	1.0
93.285	2.0
93.3	2.0
93.315	0.0
93.33	3.0
93.345	1.0
93.36	0.0
93.375	4.0
93.39	4.0
93.405	5.0
93.42	5.0
93.435	1.0
93.45	2.0
93.465	2.0
93.48	7.0
93.495	4.0
93.51	2.0
93.525	3.0
93.54	4.0
93.555	2.0
93.57	6.0
93.585	1.0
93.6	3.0
93.615	4.0
93.63	4.0
93.645	2.0
93.66	4.0
93.675	6.0
93.69	2.0
93.705	7.0
93.72	3.0
93.735	2.0
93.75	3.0
93.765	3.0
93.78	6.0
93.795	1.0
93.81	6.0
93.824	3.0
93.839	2.0
93.854	4.0
93.869	7.0
93.884	2.0
93.899	2.0
93.914	4.0
93.929	2.0
93.944	2.0
93.959	0.0
93.974	4.0
93.989	0.0
94.004	0.0
94.019	5.0
94.034	2.0
94.049	1.0
94.064	1.0
94.079	2.0
94.094	2.0
94.108	6.0
94.123	4.0
94.138	4.0
94.153	2.0
94.168	6.0
94.183	1.0
94.198	3.0
94.213	4.0
94.228	3.0
94.243	2.0
94.258	4.0
94.273	7.0
94.288	6.0
94.302	1.0
94.317	9.0
94.332	4.0
94.347	6.0
94.362	3.0
94.377	4.0
94.392	7.0
94.407	7.0
94.422	5.0
94.437	3.0
94.452	2.0
94.466	7.0
94.481	1.0
94.496	1.0
94.511	8.0
94.526	2.0
94.541	0.0
94.556	5.0
94.571	3.0
94.586	4.0
94.601	1.0
94.615	6.0
94.63	1.0
94.645	1.0
94.66	3.0
94.675	0.0
94.69	2.0
94.705	3.0
94.72	2.0
94.735	1.0
94.749	3.0
94.764	1.0
94.779	3.0
94.794	5.0
94.809	6.0
94.824	3.0
94.839	2.0
94.854	1.0
94.868	5.0
94.883	2.0
94.898	0.0
94.913	8.0
94.928	4.0
94.943	6.0
94.958	4.0
94.973	2.0
94.987	4.0
95.002	4.0
95.017	1.0
95.032	5.0
95.047	2.0
95.062	2.0
95.077	7.0
95.092	4.0
95.106	9.0
95.121	4.0
95.136	4.0
95.151	5.0
95.166	1.0
95.181	3.0
95.196	6.0
95.211	1.0
95.226	6.0
95.24	6.0
95.255	6.0
95.27	5.0
95.285	2.0
95.3	6.0
95.315	9.0
95.33	3.0
95.345	4.0
95.359	3.0
95.374	5.0
95.389	2.0
95.404	2.0
95.419	6.0
95.434	3.0
95.449	1.0
95.464	3.0
95.478	3.0
95.493	7.0
95.508	3.0
95.523	2.0
95.538	3.0
95.553	5.0
95.568	4.0
95.583	7.0
95.597	2.0
95.612	12.0
95.627	7.0
95.642	2.0
95.657	3.0
95.672	2.0
95.687	2.0
95.702	4.0
95.717	1.0
95.731	5.0
95.746	4.0
95.761	4.0
95.776	4.0
95.791	3.0
95.806	11.0
95.821	2.0
95.836	3.0
95.851	2.0
95.866	2.0
95.88	2.0
95.895	4.0
95.91	3.0
95.925	1.0
95.94	3.0
95.955	1.0
95.97	6.0
95.985	7.0
96.0	2.0
96.015	1.0
96.029	4.0
96.044	1.0
96.059	6.0
96.074	5.0
96.089	4.0
96.104	4.0
96.119	6.0
96.134	0.0
96.149	3.0
96.164	9.0
96.179	3.0
96.194	2.0
96.208	2.0
96.223	4.0
96.238	10.0
96.253	2.0
96.268	1.0
96.283	3.0
96.298	4.0
96.313	4.0
96.328	2.0
96.343	1.0
96.358	1.0
96.373	4.0
96.388	3.0
96.403	4.0
96.417	2.0
96.432	1.0
96.447	0.0
96.462	1.0
96.477	4.0
96.492	2.0
96.507	3.0
96.522	4.0
96.537	4.0
96.552	3.0
96.567	2.0
96.582	2.0
96.597	6.0
96.612	2.0
96.627	4.0
96.642	3.0
96.656	2.0
96.671	3.0
96.686	4.0
96.701	4.0
96.716	6.0
96.731	4.0
96.746	4.0
96.761	5.0
96.776	3.0
96.791	2.0
96.806	3.0
96.821	5.0
96.836	1.0
96.851	3.0
96.866	6.0
96.881	2.0
96.896	2.0
96.911	3.0
96.926	7.0
96.94	6.0
96.955	3.0
96.97	5.0
96.985	4.0
97.0	3.0
97.015	3.0
97.03	4.0
97.045	4.0
97.06	1.0
97.075	3.0
97.09	1.0
97.105	5.0
97.12	4.0
97.135	3.0
97.15	1.0
97.165	5.0
97.18	3.0
97.195	1.0
97.21	1.0
97.225	3.0
97.239	3.0
97.254	3.0
97.269	0.0
97.284	3.0
97.299	5.0
97.314	0.0
97.329	4.0
97.344	2.0
97.359	3.0
97.374	2.0
97.389	2.0
97.404	3.0
97.419	3.0
97.434	6.0
97.449	0.0
97.464	2.0
97.479	2.0
97.494	4.0
97.509	1.0
97.524	6.0
97.538	2.0
97.553	4.0
97.568	1.0
97.583	2.0
97.598	2.0
97.613	6.0
97.628	1.0
97.643	3.0
97.658	6.0
97.673	2.0
97.688	4.0
97.703	5.0
97.718	6.0
97.733	4.0
97.748	2.0
97.763	8.0
97.778	6.0
97.792	3.0
97.807	0.0
97.822	3.0
97.837	6.0
97.852	2.0
97.867	1.0
97.882	1.0
97.897	3.0
97.912	2.0
97.927	5.0
97.942	3.0
97.957	2.0
97.972	3.0
97.987	2.0
98.001	3.0
98.016	0.0
98.031	1.0
98.046	3.0
98.061	3.0
98.076	2.0
98.091	4.0
98.106	5.0
98.121	3.0
98.136	6.0
98.151	4.0
98.166	2.0
98.181	3.0
98.195	1.0
98.21	3.0
98.225	4.0
98.24	1.0
98.255	3.0
98.27	0.0
98.285	2.0
98.3	2.0
98.315	1.0
98.33	3.0
98.345	3.0
98.359	5.0
98.374	1.0
98.389	6.0
98.404	5.0
98.419	2.0
98.434	2.0
98.449	1.0
98.464	2.0
98.479	1.0
98.494	1.0
98.508	1.0
98.523	3.0
98.538	1.0
98.553	0.0
98.568	3.0
98.583	2.0
98.598	0.0
98.613	5.0
98.628	1.0
98.642	5.0
98.657	5.0
98.672	5.0
98.687	6.0
98.702	3.0
98.717	4.0
98.732	5.0
98.747	1.0
98.762	1.0
98.776	2.0
98.791	5.0
98.806	2.0
98.821	2.0
98.836	4.0
98.851	0.0
98.866	4.0
98.881	3.0
98.896	0.0
98.91	8.0
98.925	2.0
98.94	5.0
98.955	2.0
98.97	5.0
98.985	6.0
99.0	5.0
99.015	3.0
99.029	8.0
99.044	3.0
99.059	5.0
99.074	1.0
99.089	3.0
99.104	4.0
99.119	2.0
99.133	1.0
99.148	3.0
99.163	2.0
99.178	2.0
99.193	0.0
99.208	4.0
99.223	3.0
99.238	2.0
99.252	6.0
99.267	1.0
99.282	6.0
99.297	2.0
99.312	1.0
99.327	3.0
99.342	8.0
99.356	0.0
99.371	3.0
99.386	2.0
99.401	10.0
99.416	3.0
99.431	2.0
99.446	3.0
99.461	0.0
99.475	3.0
99.49	1.0
99.505	6.0
99.52	5.0
99.535	2.0
99.55	6.0
99.565	1.0
99.579	4.0
99.594	4.0
99.609	3.0
99.624	1.0
99.639	3.0
99.654	2.0
99.669	1.0
99.683	4.0
99.698	6.0
99.713	7.0
99.728	0.0
99.743	3.0
99.758	3.0
99.772	6.0
99.787	4.0
99.802	3.0
99.817	4.0
99.832	3.0
99.847	6.0
99.862	1.0
99.876	3.0
99.891	4.0
99.906	2.0
99.921	6.0
99.936	2.0
99.951	3.0
99.966	5.0
99.98	5.0
99.995	3.0
100.01	1.0
100.025	0.0
100.04	3.0
100.055	2.0
100.069	2.0
100.084	7.0
100.099	3.0
100.114	2.0
100.129	0.0
100.144	2.0
100.159	4.0
100.173	4.0
100.188	6.0
100.203	3.0
100.218	6.0
100.233	4.0
100.248	4.0
100.262	1.0
100.277	2.0
100.292	2.0
100.307	6.0
100.322	5.0
100.337	4.0
100.351	3.0
100.366	6.0
100.381	1.0
100.396	1.0
100.411	2.0
100.426	5.0
100.441	5.0
100.455	2.0
100.47	4.0
100.485	2.0
100.5	1.0
100.515	2.0
100.53	3.0
100.544	6.0
100.559	7.0
100.574	3.0
100.589	3.0
100.604	6.0
100.619	0.0
100.633	3.0
100.648	3.0
100.663	2.0
100.678	5.0
100.693	2.0
100.708	4.0
100.722	5.0
100.737	7.0
100.752	2.0
100.767	4.0
100.782	3.0
100.796	3.0
100.811	5.0
100.826	7.0
100.841	2.0
100.856	4.0
100.871	2.0
100.885	1.0
100.9	6.0
100.915	4.0
100.93	4.0
100.945	1.0
100.96	3.0
100.974	1.0
100.989	3.0
101.004	0.0
101.019	7.0
101.034	4.0
101.048	6.0
101.063	4.0
101.078	2.0
101.093	3.0
101.108	4.0
101.123	4.0
101.137	5.0
101.152	1.0
101.167	5.0
101.182	1.0
101.197	4.0
101.211	3.0
101.226	2.0
101.241	1.0
101.256	5.0
101.271	6.0
101.285	1.0
101.3	2.0
101.315	1.0
101.33	4.0
101.345	1.0
101.359	2.0
101.374	5.0
101.389	5.0
101.404	2.0
101.419	2.0
101.433	2.0
101.448	3.0
101.463	3.0
101.478	3.0
101.493	4.0
101.507	1.0
101.522	3.0
101.537	6.0
101.552	1.0
101.567	5.0
101.581	3.0
101.596	2.0
101.611	0.0
101.626	2.0
101.64	5.0
101.655	2.0
101.67	6.0
101.685	1.0
101.7	3.0
101.714	2.0
101.729	3.0
101.744	4.0
101.759	5.0
101.773	4.0
101.788	5.0
101.803	3.0
101.818	4.0
101.833	5.0
101.847	1.0
101.862	6.0
101.877	2.0
101.892	2.0
101.906	4.0
101.921	1.0
101.936	4.0
101.951	3.0
101.965	3.0
101.98	3.0
101.995	4.0
102.01	3.0
102.025	6.0
102.039	1.0
102.054	3.0
102.069	7.0
102.084	5.0
102.098	9.0
102.113	3.0
102.128	2.0
102.143	2.0
102.157	2.0
102.172	2.0
102.187	5.0
102.202	5.0
102.216	3.0
102.231	3.0
102.246	3.0
102.261	1.0
102.275	2.0
102.29	2.0
102.305	3.0
102.32	4.0
102.334	3.0
102.349	4.0
102.364	3.0
102.378	3.0
102.393	4.0
102.408	4.0
102.423	5.0
102.437	1.0
102.452	1.0
102.467	4.0
102.482	3.0
102.496	2.0
102.511	2.0
102.526	1.0
102.541	2.0
102.555	5.0
102.57	4.0
102.585	2.0
102.6	2.0
102.614	3.0
102.629	5.0
102.644	3.0
102.659	8.0
102.673	0.0
102.688	0.0
102.703	2.0
102.717	6.0
102.732	1.0
102.747	2.0
102.762	2.0
102.776	5.0
102.791	2.0
102.806	7.0
102.821	7.0
102.835	5.0
102.85	2.0
102.865	3.0
102.88	5.0
102.894	3.0
102.909	7.0
102.924	5.0
102.938	1.0
102.953	3.0
102.968	3.0
102.983	2.0
102.997	6.0
103.012	4.0
103.027	4.0
103.042	6.0
103.056	7.0
103.071	7.0
103.086	0.0
103.101	4.0
103.115	2.0
103.13	5.0
103.145	2.0
103.16	5.0
103.174	4.0
103.189	2.0
103.204	2.0
103.219	4.0
103.233	4.0
103.248	1.0
103.263	3.0
103.278	2.0
103.292	2.0
103.307	3.0
103.322	4.0
103.337	2.0
103.351	3.0
103.366	2.0
103.381	2.0
103.396	4.0
103.41	3.0
103.425	2.0
103.44	1.0
103.455	2.0
103.469	3.0
103.484	3.0
103.499	2.0
103.514	3.0
103.529	5.0
103.543	6.0
103.558	6.0
103.573	2.0
103.588	6.0
103.602	3.0
103.617	2.0
103.632	3.0
103.647	5.0
103.661	5.0
103.676	7.0
103.691	3.0
103.706	6.0
103.721	2.0
103.735	2.0
103.75	2.0
103.765	2.0
103.78	2.0
103.795	2.0
103.809	1.0
103.824	2.0
103.839	3.0
103.854	2.0
103.869	2.0
103.883	4.0
103.898	6.0
103.913	2.0
103.928	4.0
103.943	1.0
103.957	5.0
103.972	5.0
103.987	5.0
104.002	4.0
104.017	1.0
104.031	2.0
104.046	6.0
104.061	5.0
104.076	3.0
104.091	8.0
104.106	3.0
104.12	3.0
104.135	4.0
104.15	4.0
104.165	4.0
104.18	2.0
104.195	2.0
104.209	6.0
104.224	5.0
104.239	1.0
104.254	4.0
104.269	3.0
104.284	1.0
104.299	5.0
104.313	2.0
104.328	6.0
104.343	2.0
104.358	5.0
104.373	5.0
104.388	2.0
104.403	4.0
104.417	2.0
104.432	2.0
104.447	4.0
104.462	2.0
104.477	1.0
104.492	5.0
104.507	5.0
104.522	3.0
104.536	2.0
104.551	2.0
104.566	1.0
104.581	4.0
104.596	1.0
104.611	3.0
104.626	5.0
104.641	2.0
104.656	3.0
104.67	5.0
104.685	2.0
104.7	6.0
104.715	4.0
104.73	3.0
104.745	3.0
104.76	6.0
104.775	2.0
104.79	1.0
104.804	3.0
104.819	2.0
104.834	3.0
104.849	1.0
104.864	1.0
104.879	2.0
104.894	2.0
104.909	4.0
104.924	2.0
104.939	2.0
104.954	1.0
104.968	2.0
104.983	1.0
104.998	3.0
105.013	6.0
105.028	1.0
105.043	4.0
105.058	7.0
105.073	6.0
105.088	3.0
105.103	4.0
105.118	4.0
105.133	3.0
105.147	2.0
105.162	3.0
105.177	5.0
105.192	7.0
105.207	1.0
105.222	3.0
105.237	4.0
105.252	3.0
105.267	1.0
105.282	3.0
105.297	2.0
105.312	1.0
105.327	4.0
105.342	5.0
105.356	0.0
105.371	3.0
105.386	6.0
105.401	3.0
105.416	3.0
105.431	5.0
105.446	3.0
105.461	5.0
105.476	5.0
105.491	3.0
105.506	3.0
105.521	4.0
105.536	6.0
105.551	4.0
105.566	3.0
105.581	1.0
105.595	2.0
105.61	8.0
105.625	6.0
105.64	6.0
105.655	4.0
105.67	5.0
105.685	1.0
105.7	2.0
105.715	3.0
105.73	1.0
105.745	3.0
105.76	5.0
105.775	2.0
105.79	7.0
105.805	4.0
105.82	6.0
105.835	2.0
105.85	3.0
105.864	6.0
105.879	2.0
105.894	7.0
105.909	6.0
105.924	3.0
105.939	2.0
105.954	1.0
105.969	6.0
105.984	5.0
105.999	1.0
106.014	5.0
106.029	1.0
106.044	4.0
106.059	1.0
106.074	1.0
106.089	2.0
106.104	6.0
106.119	1.0
106.134	2.0
106.148	2.0
106.163	6.0
106.178	8.0
106.193	4.0
106.208	2.0
106.223	5.0
106.238	3.0
106.253	4.0
106.268	3.0
106.283	1.0
106.298	4.0
106.313	4.0
106.328	2.0
106.343	3.0
106.358	4.0
106.373	2.0
106.388	2.0
106.403	2.0
106.418	3.0
106.432	4.0
106.447	6.0
106.462	2.0
106.477	3.0
106.492	2.0
106.507	1.0
106.522	6.0
106.537	5.0
106.552	2.0
106.567	5.0
106.582	3.0
106.597	5.0
106.612	0.0
106.627	2.0
106.642	4.0
106.657	1.0
106.672	1.0
106.687	6.0
106.701	3.0
106.716	4.0
106.731	3.0
106.746	6.0
106.761	2.0
106.776	1.0
106.791	5.0
106.806	0.0
106.821	3.0
106.836	4.0
106.851	3.0
106.866	7.0
106.881	2.0
106.896	5.0
106.911	3.0
106.926	1.0
106.941	2.0
106.955	3.0
106.97	1.0
106.985	3.0
107.0	3.0
107.015	4.0
107.03	3.0
107.045	4.0
107.06	1.0
107.075	3.0
107.09	4.0
107.105	2.0
107.12	6.0
107.135	1.0
107.15	3.0
107.165	5.0
107.18	3.0
107.194	1.0
107.209	5.0
107.224	4.0
107.239	4.0
107.254	0.0
107.269	4.0
107.284	3.0
107.299	4.0
107.314	1.0
107.329	9.0
107.344	5.0
107.359	6.0
107.374	2.0
107.389	4.0
107.404	5.0
107.418	5.0
107.433	4.0
107.448	5.0
107.463	2.0
107.478	3.0
107.493	3.0
107.508	3.0
107.523	4.0
107.538	3.0
107.553	4.0
107.568	3.0
107.583	3.0
107.598	6.0
107.613	4.0
107.627	2.0
107.642	5.0
107.657	7.0
107.672	0.0
107.687	3.0
107.702	7.0
107.717	4.0
107.732	3.0
107.747	3.0
107.762	3.0
107.777	1.0
107.792	4.0
107.807	1.0
107.821	3.0
107.836	6.0
107.851	0.0
107.866	6.0
107.881	2.0
107.896	4.0
107.911	4.0
107.926	1.0
107.941	2.0
107.956	1.0
107.971	5.0
107.986	3.0
108.0	4.0
108.015	1.0
108.03	9.0
108.045	4.0
108.06	4.0
108.075	5.0
108.09	8.0
108.105	3.0
108.12	1.0
108.135	5.0
108.15	1.0
108.164	4.0
108.179	6.0
108.194	3.0
108.209	1.0
108.224	3.0
108.239	5.0
108.254	3.0
108.269	6.0
108.284	4.0
108.299	4.0
108.313	2.0
108.328	3.0
108.343	4.0
108.358	6.0
108.373	2.0
108.388	2.0
108.403	4.0
108.418	7.0
108.433	1.0
108.448	3.0
108.462	4.0
108.477	4.0
108.492	3.0
108.507	1.0
108.522	4.0
108.537	2.0
108.552	3.0
108.567	5.0
108.582	6.0
108.597	1.0
108.611	3.0
108.626	1.0
108.641	6.0
108.656	4.0
108.671	1.0
108.686	1.0
108.701	5.0
108.716	2.0
108.731	0.0
108.745	3.0
108.76	3.0
108.775	5.0
108.79	2.0
108.805	3.0
108.82	5.0
108.835	7.0
108.85	3.0
108.865	3.0
108.879	1.0
108.894	4.0
108.909	2.0
108.924	3.0
108.939	4.0
108.954	3.0
108.969	1.0
108.984	3.0
108.999	4.0
109.013	5.0
109.028	3.0
109.043	3.0
109.058	8.0
109.073	3.0
109.088	1.0
109.103	6.0
109.118	3.0
109.133	4.0
109.147	3.0
109.162	4.0
109.177	3.0
109.192	2.0
109.207	2.0
109.222	3.0
109.237	2.0
109.252	6.0
109.267	3.0
109.281	2.0
109.296	2.0
109.311	4.0
109.326	2.0
109.341	2.0
109.356	3.0
109.371	4.0
109.386	5.0
109.4	3.0
109.415	2.0
109.43	2.0
109.445	3.0
109.46	3.0
109.475	6.0
109.49	3.0
109.505	3.0
109.52	5.0
109.534	3.0
109.549	6.0
109.564	1.0
109.579	4.0
109.594	4.0
109.609	4.0
109.624	2.0
109.639	2.0
109.653	3.0
109.668	4.0
109.683	3.0
109.698	1.0
109.713	7.0
109.728	3.0
109.743	3.0
109.758	2.0
109.773	6.0
109.787	2.0
109.802	1.0
109.817	5.0
109.832	3.0
109.847	6.0
109.862	2.0
109.877	3.0
109.892	2.0
109.907	3.0
109.921	2.0
109.936	1.0
109.951	3.0
109.966	3.0
109.981	4.0
109.996	4.0
110.011	0.0
110.026	3.0
110.04	1.0
110.055	2.0
110.07	0.0
110.085	2.0
110.1	3.0
110.115	2.0
110.13	3.0
110.145	5.0
110.16	1.0
110.174	4.0
110.189	1.0
110.204	3.0
110.219	3.0
110.234	5.0
110.249	6.0
110.264	4.0
110.279	4.0
110.294	1.0
110.308	3.0
110.323	5.0
110.338	3.0
110.353	1.0
110.368	4.0
110.383	0.0
110.398	2.0
110.413	2.0
110.428	5.0
110.442	4.0
110.457	4.0
110.472	2.0
110.487	7.0
110.502	1.0
110.517	1.0
110.532	7.0
110.547	5.0
110.561	3.0
110.576	4.0
110.591	3.0
110.606	7.0
110.621	5.0
110.636	3.0
110.651	3.0
110.666	4.0
110.681	2.0
110.695	5.0
110.71	2.0
110.725	3.0
110.74	3.0
110.755	4.0
110.77	2.0
110.785	1.0
110.8	1.0
110.815	3.0
110.829	1.0
110.844	5.0
110.859	4.0
110.874	6.0
110.889	3.0
110.904	4.0
110.919	2.0
110.934	5.0
110.948	5.0
110.963	4.0
110.978	2.0
110.993	4.0
111.008	5.0
111.023	3.0
111.038	5.0
111.053	2.0
111.067	2.0
111.082	3.0
111.097	3.0
111.112	2.0
111.127	6.0
111.142	3.0
111.157	5.0
111.172	3.0
111.186	4.0
111.201	1.0
111.216	2.0
111.231	4.0
111.246	1.0
111.261	1.0
111.276	5.0
111.291	4.0
111.305	1.0
111.32	6.0
111.335	4.0
111.35	3.0
111.365	5.0
111.38	2.0
111.395	1.0
111.41	3.0
111.424	6.0
111.439	3.0
111.454	0.0
111.469	3.0
111.484	2.0
111.499	4.0
111.514	8.0
111.528	4.0
111.543	5.0
111.558	2.0
111.573	3.0
111.588	4.0
111.603	3.0
111.618	5.0
111.633	5.0
111.647	7.0
111.662	4.0
111.677	5.0
111.692	7.0
111.707	2.0
111.722	8.0
111.737	5.0
111.751	4.0
111.766	2.0
111.781	1.0
111.796	7.0
111.811	1.0
111.826	6.0
111.84	1.0
111.855	3.0
111.87	4.0
111.885	2.0
111.9	6.0
111.915	3.0
111.93	3.0
111.944	5.0
111.959	3.0
111.974	1.0
111.989	3.0
112.004	6.0
112.019	3.0
112.033	2.0
112.048	5.0
112.063	2.0
112.078	2.0
112.093	0.0
112.108	3.0
112.123	1.0
112.137	3.0
112.152	4.0
112.167	1.0
112.182	5.0
112.197	2.0
112.212	2.0
112.226	2.0
112.241	2.0
112.256	4.0
112.271	3.0
112.286	1.0
112.301	2.0
112.315	6.0
112.33	4.0
112.345	4.0
112.36	5.0
112.375	5.0
112.389	4.0
112.404	0.0
112.419	1.0
112.434	2.0
112.449	0.0
112.464	2.0
112.478	3.0
112.493	4.0
112.508	3.0
112.523	1.0
112.538	2.0
112.553	2.0
112.567	2.0
112.582	5.0
112.597	6.0
112.612	2.0
112.627	2.0
112.642	5.0
112.656	6.0
112.671	6.0
112.686	4.0
112.701	4.0
112.716	1.0
112.73	2.0
112.745	2.0
112.76	4.0
112.775	2.0
112.79	3.0
112.805	4.0
112.819	4.0
112.834	1.0
112.849	5.0
112.864	3.0
112.879	2.0
112.894	3.0
112.908	3.0
112.923	5.0
112.938	5.0
112.953	3.0
112.968	4.0
112.983	5.0
112.997	4.0
113.012	0.0
113.027	3.0
113.042	3.0
113.057	2.0
113.072	2.0
113.086	6.0
113.101	4.0
113.116	4.0
113.131	3.0
113.146	5.0
113.161	0.0
113.175	6.0
113.19	6.0
113.205	1.0
113.22	5.0
113.235	2.0
113.25	3.0
113.265	2.0
113.279	1.0
113.294	3.0
113.309	4.0
113.324	6.0
113.339	0.0
113.354	1.0
113.368	3.0
113.383	9.0
113.398	4.0
113.413	4.0
113.428	5.0
113.443	3.0
113.458	3.0
113.472	1.0
113.487	3.0
113.502	6.0
113.517	5.0
113.532	0.0
113.547	3.0
113.562	6.0
113.576	3.0
113.591	4.0
113.606	3.0
113.621	2.0
113.636	3.0
113.651	5.0
113.666	10.0
113.681	7.0
113.695	3.0
113.71	1.0
113.725	4.0
113.74	3.0
113.755	4.0
113.77	6.0
113.785	5.0
113.8	7.0
113.814	6.0
113.829	2.0
113.844	2.0
113.859	2.0
113.874	3.0
113.889	10.0
113.904	3.0
113.919	2.0
113.934	5.0
113.949	1.0
113.963	4.0
113.978	3.0
113.993	3.0
114.008	5.0
114.023	4.0
114.038	6.0
114.053	2.0
114.068	5.0
114.083	6.0
114.098	3.0
114.113	3.0
114.127	5.0
114.142	7.0
114.157	3.0
114.172	3.0
114.187	1.0
114.202	5.0
114.217	5.0
114.232	3.0
114.247	6.0
114.262	4.0
114.277	4.0
114.292	4.0
114.307	1.0
114.322	5.0
114.337	2.0
114.351	7.0
114.366	6.0
114.381	1.0
114.396	3.0
114.411	4.0
114.426	3.0
114.441	3.0
114.456	7.0
114.471	3.0
114.486	2.0
114.501	5.0
114.516	3.0
114.531	3.0
114.546	1.0
114.561	4.0
114.576	4.0
114.591	3.0
114.606	4.0
114.621	3.0
114.636	7.0
114.65	3.0
114.665	5.0
114.68	4.0
114.695	3.0
114.71	0.0
114.725	6.0
114.74	5.0
114.755	4.0
114.77	4.0
114.785	7.0
114.8	4.0
114.815	1.0
114.83	1.0
114.845	4.0
114.86	5.0
114.875	5.0
114.89	5.0
114.905	7.0
114.92	3.0
114.935	4.0
114.95	2.0
114.965	3.0
114.98	0.0
114.995	5.0
115.009	3.0
115.024	4.0
115.039	2.0
115.054	5.0
115.069	3.0
115.084	0.0
115.099	3.0
115.114	3.0
115.129	3.0
115.144	5.0
115.159	6.0
115.174	4.0
115.189	5.0
115.204	2.0
115.219	4.0
115.234	4.0
115.249	5.0
115.264	2.0
115.279	2.0
115.294	6.0
115.309	8.0
115.323	1.0
115.338	3.0
115.353	1.0
115.368	5.0
115.383	2.0
115.398	2.0
115.413	5.0
115.428	2.0
115.443	3.0
115.458	4.0
115.473	3.0
115.488	4.0
115.503	3.0
115.518	1.0
115.533	2.0
115.548	4.0
115.562	2.0
115.577	2.0
115.592	5.0
115.607	4.0
115.622	2.0
115.637	4.0
115.652	3.0
115.667	3.0
115.682	7.0
115.697	5.0
115.712	2.0
115.727	6.0
115.741	3.0
115.756	2.0
115.771	5.0
115.786	2.0
115.801	1.0
115.816	4.0
115.831	1.0
115.846	6.0
115.861	4.0
115.875	3.0
115.89	2.0
115.905	2.0
115.92	4.0
115.935	5.0
115.95	3.0
115.965	7.0
115.98	6.0
115.995	6.0
116.009	5.0
116.024	3.0
116.039	4.0
116.054	1.0
116.069	1.0
116.084	3.0
116.099	2.0
116.113	2.0
116.128	2.0
116.143	3.0
116.158	2.0
116.173	0.0
116.188	7.0
116.202	3.0
116.217	6.0
116.232	3.0
116.247	7.0
116.262	4.0
116.277	3.0
116.291	3.0
116.306	8.0
116.321	2.0
116.336	6.0
116.351	3.0
116.366	3.0
116.38	5.0
116.395	3.0
116.41	4.0
116.425	3.0
116.44	3.0
116.454	5.0
116.469	5.0
116.484	2.0
116.499	4.0
116.514	7.0
116.528	5.0
116.543	2.0
116.558	3.0
116.573	3.0
116.588	6.0
116.602	2.0
116.617	4.0
116.632	3.0
116.647	8.0
116.662	3.0
116.676	4.0
116.691	5.0
116.706	5.0
116.721	3.0
116.735	4.0
116.75	3.0
116.765	4.0
116.78	6.0
116.795	4.0
116.809	4.0
116.824	8.0
116.839	2.0
116.854	5.0
116.868	3.0
116.883	2.0
116.898	5.0
116.913	3.0
116.927	7.0
116.942	5.0
116.957	5.0
116.972	2.0
116.986	6.0
117.001	3.0
117.016	5.0
117.031	3.0
117.045	1.0
117.06	3.0
117.075	2.0
117.09	1.0
117.104	2.0
117.119	2.0
117.134	1.0
117.149	3.0
117.163	5.0
117.178	5.0
117.193	5.0
117.208	5.0
117.222	6.0
117.237	3.0
117.252	3.0
117.267	4.0
117.281	4.0
117.296	2.0
117.311	2.0
117.325	7.0
117.34	4.0
117.355	5.0
117.37	7.0
117.384	3.0
117.399	2.0
117.414	2.0
117.429	3.0
117.443	0.0
117.458	2.0
117.473	1.0
117.487	1.0
117.502	3.0
117.517	4.0
117.532	11.0
117.546	5.0
117.561	6.0
117.576	3.0
117.59	1.0
117.605	5.0
117.62	2.0
117.635	3.0
117.649	1.0
117.664	5.0
117.679	2.0
117.693	7.0
117.708	2.0
117.723	0.0
117.738	3.0
117.752	3.0
117.767	3.0
117.782	2.0
117.796	4.0
117.811	4.0
117.826	6.0
117.841	1.0
117.855	3.0
117.87	5.0
117.885	4.0
117.899	7.0
117.914	1.0
117.929	6.0
117.944	1.0
117.958	2.0
117.973	6.0
117.988	5.0
118.002	4.0
118.017	4.0
118.032	5.0
118.047	3.0
118.062	6.0
118.077	1.0
118.092	6.0
118.107	3.0
118.121	6.0
118.136	7.0
118.151	3.0
118.166	4.0
118.181	4.0
118.196	3.0
118.211	4.0
118.225	5.0
118.24	3.0
118.255	1.0
118.27	6.0
118.285	6.0
118.3	6.0
118.315	8.0
118.33	6.0
118.344	5.0
118.359	2.0
118.374	4.0
118.389	6.0
118.404	5.0
118.419	2.0
118.434	2.0
118.449	5.0
118.463	2.0
118.478	1.0
118.493	6.0
118.508	3.0
118.523	5.0
118.538	2.0
118.553	4.0
118.567	0.0
118.582	3.0
118.597	3.0
118.612	3.0
118.627	1.0
118.642	3.0
118.657	2.0
118.672	3.0
118.686	3.0
118.701	3.0
118.716	3.0
118.731	2.0
118.746	1.0
118.761	2.0
118.776	7.0
118.791	2.0
118.805	3.0
118.82	5.0
118.835	5.0
118.85	2.0
118.865	0.0
118.88	3.0
118.895	2.0
118.909	3.0
118.924	4.0
118.939	2.0
118.954	4.0
118.969	3.0
118.984	3.0
118.999	2.0
119.014	3.0
119.028	2.0
119.043	5.0
119.058	7.0
119.073	2.0
119.088	3.0
119.103	5.0
119.118	3.0
119.133	3.0
119.147	3.0
119.162	5.0
119.177	4.0
119.192	5.0
119.207	3.0
119.222	1.0
119.237	3.0
119.251	4.0
119.266	0.0
119.281	1.0
119.296	4.0
119.311	3.0
119.326	4.0
119.341	6.0
119.356	2.0
119.37	1.0
119.385	2.0
119.4	5.0
119.415	2.0
119.43	7.0
119.445	1.0
119.46	2.0
119.475	4.0
119.489	3.0
119.504	2.0
119.519	2.0
119.534	2.0
119.549	4.0
119.564	3.0
119.579	2.0
119.593	6.0
119.608	3.0
119.623	2.0
119.638	2.0
119.653	2.0
119.668	3.0
119.683	3.0
119.698	1.0
119.712	3.0
119.727	3.0
119.742	1.0
119.757	5.0
119.772	8.0
119.787	6.0
119.802	5.0
119.817	3.0
119.831	1.0
119.846	4.0
119.861	2.0
119.876	5.0
119.891	2.0
119.906	4.0
119.921	3.0
119.935	3.0
119.95	4.0
119.965	1.0
119.98	2.0
119.995	1.0
120.01	3.0
120.025	3.0
120.04	4.0
120.054	1.0
120.069	1.0
120.084	0.0
120.099	4.0
120.114	4.0
120.129	3.0
120.144	2.0
120.159	1.0
120.173	1.0
120.188	2.0
120.203	0.0
120.218	1.0
120.233	3.0
120.248	0.0
120.263	1.0
120.277	0.0
120.292	0.0
120.307	0.0
120.322	1.0
120.337	0.0
120.352	2.0
120.367	1.0
120.382	0.0
120.396	0.0
120.411	0.0
120.426	0.0
120.441	0.0
120.456	0.0
120.471	0.0
120.486	0.0
120.501	0.0
120.515	0.0
120.53	0.0
120.545	0.0
120.56	0.0
120.575	0.0
120.59	0.0
120.605	0.0
120.619	0.0
120.634	1.0
120.649	0.0
120.664	0.0
120.679	0.0
120.694	1.0
120.709	0.0
120.724	0.0
120.738	0.0
120.753	0.0
120.768	0.0
120.783	0.0
120.798	0.0
120.813	0.0
120.828	1.0
120.843	0.0
120.857	0.0
120.872	0.0
120.887	0.0
120.902	0.0
120.917	0.0
120.932	0.0
120.947	0.0
120.961	0.0
120.976	0.0
