-1.217	0.0
-1.202	0.0
-1.187	0.0
-1.172	0.0
-1.157	0.0
-1.142	0.0
-1.128	0.0
-1.113	0.0
-1.098	0.0
-1.083	0.0
-1.068	0.0
-1.054	0.0
-1.039	0.0
-1.024	1.0
-1.009	0.0
-0.994	0.0
-0.979	0.0
-0.965	0.0
-0.95	0.0
-0.935	0.0
-0.92	0.0
-0.905	0.0
-0.891	0.0
-0.876	0.0
-0.861	0.0
-0.846	0.0
-0.831	0.0
-0.816	0.0
-0.802	0.0
-0.787	0.0
-0.772	0.0
-0.757	0.0
-0.742	0.0
-0.728	0.0
-0.713	0.0
-0.698	0.0
-0.683	0.0
-0.668	0.0
-0.653	0.0
-0.639	0.0
-0.624	0.0
-0.609	0.0
-0.594	0.0
-0.579	0.0
-0.565	0.0
-0.55	0.0
-0.535	0.0
-0.52	0.0
-0.505	0.0
-0.49	0.0
-0.476	0.0
-0.461	0.0
-0.446	0.0
-0.431	0.0
-0.416	0.0
-0.401	0.0
-0.387	1.0
-0.372	0.0
-0.357	0.0
-0.342	0.0
-0.327	0.0
-0.313	0.0
-0.298	0.0
-0.283	0.0
-0.268	0.0
-0.253	0.0
-0.238	0.0
-0.224	0.0
-0.209	0.0
-0.194	0.0
-0.179	0.0
-0.164	0.0
-0.15	0.0
-0.135	0.0
-0.12	0.0
-0.105	0.0
-0.09	0.0
-0.075	0.0
-0.061	0.0
-0.046	0.0
-0.031	0.0
-0.016	0.0
-0.001	0.0
0.013	0.0
0.028	0.0
0.043	0.0
0.058	0.0
0.073	0.0
0.088	0.0
0.102	0.0
0.117	0.0
0.132	0.0
0.147	0.0
0.162	0.0
0.176	0.0
0.191	0.0
0.206	0.0
0.221	0.0
0.236	1.0
0.251	0.0
0.265	0.0
0.28	0.0
0.295	0.0
0.31	0.0
0.325	0.0
0.339	0.0
0.354	0.0
0.369	0.0
0.384	0.0
0.399	0.0
0.414	0.0
0.428	0.0
0.443	0.0
0.458	0.0
0.473	0.0
0.488	0.0
0.502	0.0
0.517	0.0
0.532	0.0
0.547	0.0
0.562	0.0
0.577	0.0
0.591	0.0
0.606	0.0
0.621	0.0
0.636	0.0
0.651	0.0
0.665	0.0
0.68	0.0
0.695	0.0
0.71	0.0
0.725	0.0
0.74	0.0
0.754	0.0
0.769	0.0
0.784	0.0
0.799	0.0
0.814	0.0
0.828	0.0
0.843	1.0
0.858	0.0
0.873	0.0
0.888	0.0
0.903	1.0
0.917	0.0
0.932	0.0
0.947	0.0
0.962	0.0
0.977	0.0
0.991	0.0
1.006	0.0
1.021	0.0
1.036	0.0
1.051	0.0
1.065	0.0
1.08	0.0
1.095	1.0
1.11	0.0
1.125	0.0
1.14	0.0
1.154	0.0
1.169	0.0
1.184	0.0
1.199	0.0
1.214	0.0
1.228	0.0
1.243	0.0
1.258	0.0
1.273	0.0
1.288	0.0
1.302	0.0
1.317	0.0
1.332	0.0
1.347	0.0
1.362	0.0
1.376	0.0
1.391	0.0
1.406	0.0
1.421	0.0
1.436	0.0
1.45	0.0
1.465	1.0
1.48	0.0
1.495	0.0
1.51	0.0
1.524	1.0
1.539	0.0
1.554	0.0
1.569	0.0
1.584	0.0
1.598	0.0
1.613	0.0
1.628	0.0
1.643	1.0
1.658	0.0
1.672	0.0
1.687	0.0
1.702	0.0
1.717	0.0
1.732	0.0
1.746	0.0
1.761	0.0
1.776	1.0
1.791	0.0
1.806	1.0
1.82	0.0
1.835	1.0
1.85	0.0
1.865	0.0
1.88	0.0
1.894	0.0
1.909	0.0
1.924	0.0
1.939	0.0
1.954	0.0
1.968	0.0
1.983	0.0
1.998	0.0
2.013	1.0
2.028	0.0
2.042	0.0
2.057	0.0
2.072	0.0
2.087	0.0
2.101	0.0
2.116	0.0
2.131	0.0
2.146	0.0
2.161	0.0
2.175	0.0
2.19	0.0
2.205	0.0
2.22	0.0
2.235	0.0
2.249	1.0
2.264	0.0
2.279	0.0
2.294	1.0
2.308	2.0
2.323	0.0
2.338	0.0
2.353	1.0
2.368	1.0
2.382	2.0
2.397	0.0
2.412	2.0
2.427	0.0
2.442	2.0
2.456	2.0
2.471	0.0
2.486	1.0
2.501	1.0
2.515	1.0
2.53	4.0
2.545	1.0
2.56	2.0
2.575	3.0
2.589	1.0
2.604	1.0
2.619	2.0
2.634	2.0
2.649	3.0
2.663	2.0
2.678	1.0
2.693	6.0
2.708	3.0
2.722	4.0
2.737	6.0
2.752	1.0
2.767	4.0
2.782	2.0
2.796	3.0
2.811	1.0
2.826	2.0
2.841	5.0
2.856	2.0
2.87	3.0
2.885	1.0
2.9	3.0
2.915	3.0
2.93	5.0
2.944	5.0
2.959	1.0
2.974	3.0
2.989	3.0
3.004	2.0
3.018	5.0
3.033	6.0
3.048	2.0
3.063	2.0
3.078	3.0
3.092	7.0
3.107	2.0
3.122	3.0
3.137	4.0
3.152	5.0
3.166	6.0
3.181	5.0
3.196	5.0
3.211	0.0
3.226	10.0
3.24	4.0
3.255	6.0
3.27	2.0
3.285	4.0
3.3	3.0
3.315	8.0
3.329	2.0
3.344	2.0
3.359	3.0
3.374	4.0
3.389	2.0
3.403	1.0
3.418	3.0
3.433	0.0
3.448	7.0
3.463	8.0
3.478	4.0
3.492	7.0
3.507	4.0
3.522	2.0
3.537	3.0
3.552	7.0
3.567	7.0
3.581	2.0
3.596	4.0
3.611	1.0
3.626	5.0
3.641	2.0
3.656	4.0
3.671	3.0
3.685	4.0
3.7	6.0
3.715	5.0
3.73	12.0
3.745	3.0
3.76	8.0
3.775	6.0
3.789	5.0
3.804	6.0
3.819	5.0
3.834	6.0
3.849	7.0
3.864	5.0
3.879	7.0
3.894	12.0
3.908	2.0
3.923	4.0
3.938	4.0
3.953	12.0
3.968	4.0
3.983	9.0
3.998	4.0
4.013	6.0
4.027	6.0
4.042	8.0
4.057	7.0
4.072	6.0
4.087	2.0
4.102	9.0
4.117	3.0
4.132	4.0
4.147	4.0
4.162	9.0
4.176	8.0
4.191	9.0
4.206	5.0
4.221	3.0
4.236	8.0
4.251	7.0
4.266	6.0
4.281	6.0
4.296	13.0
4.311	4.0
4.326	7.0
4.341	6.0
4.356	8.0
4.37	8.0
4.385	4.0
4.4	5.0
4.415	4.0
4.43	7.0
4.445	6.0
4.46	8.0
4.475	8.0
4.49	5.0
4.505	7.0
4.52	7.0
4.535	7.0
4.55	8.0
4.565	7.0
4.58	7.0
4.595	8.0
4.61	15.0
4.625	4.0
4.639	6.0
4.654	6.0
4.669	11.0
4.684	8.0
4.699	7.0
4.714	9.0
4.729	7.0
4.744	10.0
4.759	6.0
4.774	6.0
4.789	9.0
4.804	4.0
4.819	7.0
4.834	8.0
4.849	8.0
4.864	5.0
4.879	6.0
4.894	5.0
4.909	5.0
4.924	12.0
4.939	5.0
4.954	11.0
4.969	4.0
4.984	10.0
4.999	4.0
5.014	9.0
5.029	9.0
5.044	11.0
5.059	7.0
5.074	6.0
5.089	10.0
5.104	6.0
5.119	10.0
5.134	8.0
5.149	12.0
5.164	10.0
5.179	8.0
5.194	5.0
5.209	5.0
5.224	10.0
5.239	9.0
5.254	5.0
5.269	6.0
5.284	10.0
5.299	7.0
5.314	8.0
5.329	8.0
5.344	9.0
5.359	9.0
5.374	8.0
5.389	7.0
5.404	10.0
5.419	1.0
5.434	10.0
5.449	5.0
5.464	9.0
5.479	9.0
5.494	8.0
5.509	8.0
5.524	11.0
5.539	3.0
5.554	8.0
5.569	10.0
5.584	9.0
5.599	7.0
5.614	8.0
5.629	10.0
5.644	6.0
5.659	9.0
5.674	10.0
5.689	15.0
5.704	5.0
5.719	9.0
5.734	5.0
5.749	3.0
5.764	8.0
5.779	11.0
5.794	7.0
5.809	7.0
5.824	13.0
5.839	8.0
5.854	8.0
5.869	13.0
5.884	7.0
5.899	11.0
5.914	10.0
5.929	10.0
5.944	10.0
5.959	6.0
5.974	14.0
5.989	6.0
6.004	5.0
6.019	10.0
6.034	8.0
6.049	8.0
6.064	9.0
6.079	7.0
6.094	7.0
6.109	9.0
6.124	9.0
6.139	5.0
6.154	8.0
6.169	7.0
6.184	7.0
6.199	5.0
6.214	5.0
6.229	8.0
6.244	12.0
6.259	8.0
6.274	5.0
6.289	4.0
6.304	8.0
6.319	13.0
6.334	9.0
6.349	8.0
6.364	8.0
6.379	4.0
6.394	12.0
6.409	5.0
6.424	3.0
6.439	7.0
6.454	10.0
6.469	6.0
6.484	7.0
6.499	8.0
6.514	4.0
6.529	8.0
6.544	13.0
6.559	10.0
6.574	4.0
6.589	9.0
6.604	9.0
6.619	5.0
6.634	9.0
6.649	9.0
6.664	12.0
6.679	5.0
6.694	13.0
6.709	5.0
6.724	6.0
6.739	11.0
6.754	7.0
6.769	9.0
6.784	10.0
6.799	14.0
6.814	11.0
6.829	5.0
6.844	9.0
6.859	7.0
6.873	14.0
6.888	9.0
6.903	13.0
6.918	10.0
6.933	11.0
6.948	10.0
6.963	14.0
6.978	8.0
6.993	7.0
7.008	12.0
7.023	8.0
7.038	16.0
7.053	5.0
7.068	10.0
7.083	12.0
7.098	11.0
7.113	9.0
7.128	7.0
7.143	7.0
7.157	2.0
7.172	8.0
7.187	10.0
7.202	6.0
7.217	9.0
7.232	9.0
7.247	6.0
7.262	8.0
7.277	10.0
7.292	9.0
7.307	6.0
7.322	6.0
7.336	8.0
7.351	3.0
7.366	9.0
7.381	10.0
7.396	9.0
7.411	15.0
7.426	11.0
7.441	11.0
7.456	12.0
7.471	9.0
7.485	11.0
7.5	9.0
7.515	8.0
7.53	5.0
7.545	8.0
7.56	9.0
7.575	4.0
7.59	15.0
7.604	6.0
7.619	16.0
7.634	12.0
7.649	10.0
7.664	9.0
7.679	9.0
7.693	3.0
7.708	9.0
7.723	2.0
7.738	9.0
7.753	11.0
7.768	12.0
7.783	11.0
7.797	6.0
7.812	11.0
7.827	12.0
7.842	9.0
7.857	8.0
7.871	13.0
7.886	9.0
7.901	6.0
7.916	10.0
7.931	7.0
7.945	12.0
7.96	7.0
7.975	13.0
7.99	11.0
8.005	8.0
8.019	7.0
8.034	9.0
8.049	12.0
8.064	9.0
8.078	8.0
8.093	3.0
8.108	12.0
8.123	6.0
8.137	12.0
8.152	8.0
8.167	8.0
8.182	2.0
8.196	10.0
8.211	11.0
8.226	7.0
8.241	14.0
8.255	12.0
8.27	7.0
8.285	8.0
8.3	3.0
8.314	10.0
8.329	13.0
8.344	6.0
8.358	8.0
8.373	12.0
8.388	10.0
8.403	13.0
8.417	7.0
8.432	12.0
8.447	14.0
8.461	6.0
8.476	7.0
8.491	10.0
8.505	11.0
8.52	6.0
8.535	6.0
8.55	12.0
8.564	9.0
8.579	14.0
8.594	11.0
8.608	9.0
8.623	8.0
8.638	7.0
8.652	12.0
8.667	10.0
8.682	9.0
8.696	13.0
8.711	6.0
8.726	7.0
8.74	8.0
8.755	8.0
8.77	4.0
8.784	4.0
8.799	9.0
8.814	6.0
8.828	16.0
8.843	5.0
8.858	9.0
8.872	4.0
8.887	14.0
8.902	11.0
8.916	10.0
8.931	7.0
8.946	11.0
8.96	10.0
8.975	6.0
8.99	5.0
9.004	8.0
9.019	9.0
9.034	5.0
9.048	11.0
9.063	7.0
9.077	7.0
9.092	11.0
9.107	3.0
9.121	14.0
9.136	10.0
9.151	11.0
9.165	5.0
9.18	9.0
9.195	7.0
9.209	10.0
9.224	5.0
9.239	7.0
9.253	7.0
9.268	6.0
9.283	6.0
9.297	9.0
9.312	8.0
9.327	3.0
9.341	6.0
9.356	13.0
9.371	10.0
9.385	10.0
9.4	14.0
9.415	10.0
9.429	11.0
9.444	7.0
9.458	13.0
9.473	9.0
9.488	4.0
9.502	10.0
9.517	11.0
9.532	8.0
9.546	9.0
9.561	10.0
9.576	9.0
9.59	5.0
9.605	8.0
9.62	11.0
9.635	6.0
9.649	6.0
9.664	12.0
9.679	11.0
9.693	6.0
9.708	13.0
9.723	6.0
9.737	8.0
9.752	4.0
9.767	10.0
9.781	11.0
9.796	9.0
9.811	8.0
9.825	8.0
9.84	9.0
9.855	7.0
9.87	7.0
9.884	6.0
9.899	8.0
9.914	6.0
9.928	8.0
9.943	8.0
9.958	4.0
9.973	6.0
9.987	7.0
10.002	9.0
10.017	5.0
10.031	10.0
10.046	6.0
10.061	8.0
10.076	5.0
10.09	4.0
10.105	4.0
10.12	7.0
10.135	6.0
10.149	7.0
10.164	10.0
10.179	12.0
10.194	9.0
10.208	12.0
10.223	6.0
10.238	8.0
10.253	9.0
10.267	11.0
10.282	4.0
10.297	4.0
10.312	8.0
10.326	6.0
10.341	7.0
10.356	7.0
10.371	7.0
10.386	10.0
10.4	12.0
10.415	7.0
10.43	14.0
10.445	7.0
10.46	9.0
10.474	9.0
10.489	2.0
10.504	9.0
10.519	13.0
10.533	6.0
10.548	8.0
10.563	10.0
10.578	15.0
10.593	8.0
10.608	8.0
10.622	7.0
10.637	5.0
10.652	1.0
10.667	7.0
10.682	6.0
10.696	5.0
10.711	11.0
10.726	4.0
10.741	5.0
10.756	10.0
10.771	5.0
10.785	9.0
10.8	6.0
10.815	8.0
10.83	4.0
10.845	12.0
10.86	9.0
10.874	10.0
10.889	11.0
10.904	8.0
10.919	6.0
10.934	11.0
10.949	6.0
10.963	15.0
10.978	1.0
10.993	9.0
11.008	7.0
11.023	4.0
11.038	6.0
11.053	6.0
11.067	9.0
11.082	13.0
11.097	10.0
11.112	10.0
11.127	3.0
11.142	9.0
11.157	9.0
11.172	3.0
11.186	6.0
11.201	10.0
11.216	8.0
11.231	4.0
11.246	4.0
11.261	12.0
11.276	5.0
11.291	5.0
11.305	13.0
11.32	8.0
11.335	15.0
11.35	5.0
11.365	10.0
11.38	6.0
11.395	9.0
11.41	3.0
11.424	6.0
11.439	8.0
11.454	2.0
11.469	7.0
11.484	5.0
11.499	9.0
11.514	6.0
11.529	9.0
11.544	10.0
11.558	9.0
11.573	9.0
11.588	10.0
11.603	6.0
11.618	5.0
11.633	5.0
11.648	6.0
11.663	9.0
11.678	6.0
11.693	11.0
11.707	11.0
11.722	13.0
11.737	7.0
11.752	9.0
11.767	7.0
11.782	14.0
11.797	4.0
11.812	7.0
11.827	3.0
11.842	6.0
11.856	10.0
11.871	15.0
11.886	14.0
11.901	8.0
11.916	10.0
11.931	4.0
11.946	14.0
11.961	9.0
11.976	9.0
11.991	7.0
12.006	8.0
12.02	5.0
12.035	11.0
12.05	6.0
12.065	4.0
12.08	10.0
12.095	9.0
12.11	6.0
12.125	7.0
12.14	12.0
12.155	11.0
12.17	5.0
12.184	15.0
12.199	7.0
12.214	12.0
12.229	4.0
12.244	7.0
12.259	11.0
12.274	8.0
12.289	12.0
12.304	11.0
12.319	8.0
12.334	10.0
12.348	14.0
12.363	17.0
12.378	17.0
12.393	11.0
12.408	10.0
12.423	14.0
12.438	11.0
12.453	7.0
12.468	17.0
12.483	16.0
12.498	14.0
12.513	12.0
12.527	15.0
12.542	14.0
12.557	17.0
12.572	11.0
12.587	11.0
12.602	8.0
12.617	8.0
12.632	10.0
12.647	12.0
12.662	19.0
12.677	15.0
12.692	19.0
12.707	15.0
12.721	17.0
12.736	13.0
12.751	17.0
12.766	18.0
12.781	11.0
12.796	18.0
12.811	9.0
12.826	10.0
12.841	22.0
12.856	19.0
12.871	14.0
12.886	13.0
12.9	22.0
12.915	16.0
12.93	22.0
12.945	16.0
12.96	13.0
12.975	17.0
12.99	9.0
13.005	20.0
13.02	13.0
13.035	12.0
13.05	21.0
13.065	21.0
13.08	20.0
13.094	18.0
13.109	10.0
13.124	15.0
13.139	16.0
13.154	17.0
13.169	15.0
13.184	16.0
13.199	18.0
13.214	20.0
13.229	19.0
13.244	17.0
13.259	22.0
13.274	28.0
13.288	21.0
13.303	19.0
13.318	14.0
13.333	16.0
13.348	19.0
13.363	17.0
13.378	26.0
13.393	32.0
13.408	35.0
13.423	26.0
13.438	29.0
13.453	33.0
13.468	32.0
13.482	26.0
13.497	28.0
13.512	56.0
13.527	38.0
13.542	48.0
13.557	50.0
13.572	39.0
13.587	48.0
13.602	49.0
13.617	63.0
13.632	64.0
13.647	75.0
13.662	87.0
13.677	74.0
13.691	79.0
13.706	86.0
13.721	102.0
13.736	103.0
13.751	123.0
13.766	108.0
13.781	134.0
13.796	109.0
13.811	134.0
13.826	141.0
13.841	134.0
13.856	112.0
13.871	101.0
13.885	95.0
13.9	98.0
13.915	96.0
13.93	61.0
13.945	69.0
13.96	53.0
13.975	45.0
13.99	43.0
14.005	30.0
14.02	36.0
14.035	38.0
14.05	23.0
14.065	26.0
14.08	28.0
14.094	25.0
14.109	23.0
14.124	18.0
14.139	16.0
14.154	21.0
14.169	17.0
14.184	20.0
14.199	26.0
14.214	18.0
14.229	20.0
14.244	19.0
14.259	27.0
14.274	25.0
14.288	15.0
14.303	17.0
14.318	22.0
14.333	24.0
14.348	19.0
14.363	13.0
14.378	15.0
14.393	19.0
14.408	21.0
14.423	9.0
14.438	15.0
14.453	16.0
14.468	17.0
14.482	18.0
14.497	24.0
14.512	20.0
14.527	21.0
14.542	13.0
14.557	13.0
14.572	21.0
14.587	20.0
14.602	12.0
14.617	20.0
14.632	20.0
14.647	17.0
14.661	15.0
14.676	20.0
14.691	14.0
14.706	13.0
14.721	12.0
14.736	18.0
14.751	17.0
14.766	21.0
14.781	10.0
14.796	13.0
14.811	13.0
14.826	12.0
14.84	18.0
14.855	17.0
14.87	24.0
14.885	13.0
14.9	20.0
14.915	21.0
14.93	13.0
14.945	11.0
14.96	12.0
14.975	18.0
14.989	11.0
15.004	15.0
15.019	12.0
15.034	13.0
15.049	18.0
15.064	18.0
15.079	19.0
15.094	9.0
15.109	13.0
15.124	12.0
15.138	17.0
15.153	18.0
15.168	11.0
15.183	11.0
15.198	20.0
15.213	11.0
15.228	14.0
15.243	19.0
15.258	13.0
15.272	14.0
15.287	20.0
15.302	13.0
15.317	5.0
15.332	11.0
15.347	10.0
15.362	12.0
15.377	12.0
15.391	18.0
15.406	13.0
15.421	13.0
15.436	10.0
15.451	11.0
15.466	22.0
15.481	17.0
15.496	13.0
15.51	13.0
15.525	24.0
15.54	15.0
15.555	15.0
15.57	16.0
15.585	15.0
15.6	20.0
15.614	14.0
15.629	22.0
15.644	11.0
15.659	14.0
15.674	14.0
15.689	18.0
15.704	12.0
15.718	13.0
15.733	13.0
15.748	20.0
15.763	12.0
15.778	13.0
15.793	10.0
15.808	11.0
15.822	8.0
15.837	9.0
15.852	12.0
15.867	8.0
15.882	17.0
15.897	21.0
15.911	9.0
15.926	16.0
15.941	13.0
15.956	14.0
15.971	11.0
15.986	9.0
16.0	5.0
16.015	16.0
16.03	9.0
16.045	9.0
16.06	14.0
16.074	8.0
16.089	16.0
16.104	9.0
16.119	11.0
16.134	13.0
16.149	18.0
16.163	24.0
16.178	14.0
16.193	16.0
16.208	8.0
16.223	9.0
16.237	23.0
16.252	19.0
16.267	15.0
16.282	15.0
16.297	14.0
16.311	14.0
16.326	20.0
16.341	10.0
16.356	12.0
16.37	17.0
16.385	16.0
16.4	18.0
16.415	21.0
16.43	17.0
16.444	17.0
16.459	13.0
16.474	20.0
16.489	19.0
16.504	13.0
16.518	16.0
16.533	19.0
16.548	19.0
16.563	22.0
16.577	15.0
16.592	15.0
16.607	13.0
16.622	21.0
16.637	23.0
16.651	21.0
16.666	15.0
16.681	26.0
16.696	18.0
16.71	22.0
16.725	31.0
16.74	30.0
16.755	26.0
16.77	34.0
16.784	38.0
16.799	31.0
16.814	44.0
16.829	66.0
16.843	42.0
16.858	47.0
16.873	58.0
16.888	76.0
16.902	66.0
16.917	57.0
16.932	85.0
16.947	68.0
16.961	68.0
16.976	87.0
16.991	92.0
17.006	53.0
17.021	67.0
17.035	55.0
17.05	56.0
17.065	32.0
17.08	40.0
17.094	45.0
17.109	29.0
17.124	24.0
17.139	21.0
17.153	16.0
17.168	14.0
17.183	11.0
17.198	14.0
17.212	19.0
17.227	23.0
17.242	21.0
17.257	11.0
17.271	15.0
17.286	14.0
17.301	17.0
17.316	13.0
17.33	13.0
17.345	13.0
17.36	16.0
17.375	4.0
17.39	10.0
17.404	17.0
17.419	8.0
17.434	15.0
17.449	12.0
17.463	7.0
17.478	14.0
17.493	13.0
17.508	15.0
17.522	13.0
17.537	10.0
17.552	10.0
17.567	7.0
17.581	12.0
17.596	12.0
17.611	13.0
17.626	13.0
17.641	15.0
17.655	13.0
17.67	13.0
17.685	12.0
17.7	10.0
17.714	11.0
17.729	12.0
17.744	12.0
17.759	12.0
17.773	8.0
17.788	9.0
17.803	8.0
17.818	12.0
17.833	16.0
17.847	11.0
17.862	13.0
17.877	13.0
17.892	15.0
17.906	11.0
17.921	13.0
17.936	13.0
17.951	14.0
17.966	11.0
17.98	8.0
17.995	11.0
18.01	11.0
18.025	10.0
18.04	16.0
18.054	14.0
18.069	13.0
18.084	14.0
18.099	12.0
18.114	10.0
18.128	12.0
18.143	15.0
18.158	12.0
18.173	13.0
18.188	16.0
18.202	11.0
18.217	10.0
18.232	12.0
18.247	11.0
18.262	16.0
18.276	12.0
18.291	13.0
18.306	17.0
18.321	12.0
18.336	13.0
18.35	13.0
18.365	8.0
18.38	7.0
18.395	20.0
18.41	13.0
18.424	10.0
18.439	11.0
18.454	6.0
18.469	16.0
18.484	8.0
18.498	12.0
18.513	10.0
18.528	20.0
18.543	12.0
18.558	8.0
18.573	9.0
18.587	12.0
18.602	18.0
18.617	11.0
18.632	10.0
18.647	8.0
18.661	13.0
18.676	11.0
18.691	12.0
18.706	7.0
18.721	15.0
18.736	16.0
18.75	8.0
18.765	18.0
18.78	12.0
18.795	9.0
18.81	9.0
18.825	11.0
18.839	15.0
18.854	14.0
18.869	16.0
18.884	15.0
18.899	6.0
18.913	12.0
18.928	11.0
18.943	7.0
18.958	13.0
18.973	12.0
18.988	19.0
19.002	16.0
19.017	13.0
19.032	19.0
19.047	11.0
19.062	12.0
19.077	9.0
19.091	12.0
19.106	17.0
19.121	7.0
19.136	9.0
19.151	12.0
19.165	17.0
19.18	13.0
19.195	16.0
19.21	13.0
19.225	11.0
19.24	16.0
19.254	9.0
19.269	11.0
19.284	16.0
19.299	20.0
19.314	12.0
19.329	16.0
19.343	20.0
19.358	13.0
19.373	27.0
19.388	16.0
19.403	26.0
19.417	18.0
19.432	17.0
19.447	20.0
19.462	34.0
19.477	22.0
19.492	22.0
19.506	23.0
19.521	30.0
19.536	31.0
19.551	39.0
19.566	25.0
19.58	31.0
19.595	52.0
19.61	43.0
19.625	50.0
19.64	33.0
19.655	40.0
19.669	34.0
19.684	38.0
19.699	39.0
19.714	30.0
19.729	24.0
19.743	15.0
19.758	16.0
19.773	14.0
19.788	24.0
19.803	14.0
19.817	16.0
19.832	17.0
19.847	16.0
19.862	18.0
19.877	19.0
19.891	12.0
19.906	12.0
19.921	10.0
19.936	17.0
19.951	11.0
19.965	13.0
19.98	15.0
19.995	11.0
20.01	16.0
20.025	13.0
20.039	15.0
20.054	16.0
20.069	14.0
20.084	23.0
20.099	7.0
20.113	18.0
20.128	15.0
20.143	10.0
20.158	12.0
20.173	13.0
20.187	14.0
20.202	16.0
20.217	7.0
20.232	15.0
20.246	13.0
20.261	13.0
20.276	8.0
20.291	14.0
20.306	13.0
20.32	10.0
20.335	10.0
20.35	18.0
20.365	15.0
20.38	14.0
20.394	13.0
20.409	9.0
20.424	11.0
20.439	8.0
20.453	12.0
20.468	17.0
20.483	5.0
20.498	7.0
20.513	8.0
20.527	10.0
20.542	9.0
20.557	9.0
20.572	13.0
20.586	14.0
20.601	12.0
20.616	11.0
20.631	11.0
20.646	12.0
20.66	15.0
20.675	10.0
20.69	8.0
20.705	13.0
20.719	11.0
20.734	7.0
20.749	14.0
20.764	11.0
20.779	11.0
20.793	15.0
20.808	10.0
20.823	12.0
20.838	13.0
20.853	12.0
20.867	6.0
20.882	11.0
20.897	11.0
20.912	11.0
20.926	16.0
20.941	11.0
20.956	13.0
20.971	15.0
20.986	14.0
21.0	9.0
21.015	19.0
21.03	17.0
21.045	12.0
21.06	10.0
21.074	11.0
21.089	18.0
21.104	11.0
21.119	13.0
21.134	10.0
21.148	18.0
21.163	10.0
21.178	7.0
21.193	11.0
21.208	15.0
21.222	13.0
21.237	11.0
21.252	13.0
21.267	17.0
21.282	12.0
21.296	10.0
21.311	13.0
21.326	12.0
21.341	15.0
21.356	12.0
21.37	13.0
21.385	14.0
21.4	9.0
21.415	9.0
21.43	16.0
21.444	9.0
21.459	6.0
21.474	19.0
21.489	10.0
21.504	16.0
21.519	7.0
21.533	18.0
21.548	14.0
21.563	13.0
21.578	15.0
21.593	15.0
21.608	13.0
21.622	15.0
21.637	13.0
21.652	10.0
21.667	15.0
21.682	19.0
21.697	19.0
21.712	12.0
21.726	20.0
21.741	23.0
21.756	31.0
21.771	35.0
21.786	34.0
21.801	43.0
21.816	37.0
21.83	42.0
21.845	59.0
21.86	57.0
21.875	59.0
21.89	60.0
21.905	75.0
21.92	77.0
21.935	89.0
21.949	75.0
21.964	74.0
21.979	71.0
21.994	69.0
22.009	74.0
22.024	58.0
22.039	62.0
22.054	61.0
22.069	63.0
22.083	55.0
22.098	49.0
22.113	39.0
22.128	33.0
22.143	23.0
22.158	17.0
22.173	25.0
22.188	19.0
22.203	15.0
22.218	19.0
22.233	15.0
22.248	10.0
22.262	9.0
22.277	16.0
22.292	14.0
22.307	12.0
22.322	15.0
22.337	10.0
22.352	13.0
22.367	16.0
22.382	11.0
22.397	13.0
22.412	8.0
22.427	14.0
22.442	11.0
22.457	14.0
22.472	13.0
22.487	8.0
22.502	11.0
22.516	14.0
22.531	12.0
22.546	10.0
22.561	15.0
22.576	9.0
22.591	7.0
22.606	13.0
22.621	11.0
22.636	13.0
22.651	11.0
22.666	15.0
22.681	13.0
22.696	11.0
22.711	13.0
22.726	9.0
22.741	16.0
22.756	7.0
22.771	14.0
22.786	9.0
22.801	15.0
22.816	9.0
22.831	7.0
22.846	11.0
22.861	14.0
22.876	11.0
22.891	14.0
22.906	7.0
22.92	13.0
22.935	13.0
22.95	9.0
22.965	11.0
22.98	12.0
22.995	13.0
23.01	12.0
23.025	8.0
23.04	9.0
23.055	12.0
23.07	8.0
23.085	11.0
23.1	9.0
23.115	14.0
23.13	8.0
23.145	12.0
23.16	6.0
23.175	4.0
23.19	9.0
23.205	12.0
23.22	12.0
23.235	8.0
23.25	16.0
23.265	14.0
23.28	13.0
23.295	6.0
23.31	8.0
23.325	9.0
23.34	11.0
23.355	8.0
23.37	12.0
23.384	12.0
23.399	12.0
23.414	10.0
23.429	9.0
23.444	8.0
23.459	9.0
23.474	12.0
23.489	10.0
23.504	9.0
23.519	12.0
23.534	11.0
23.549	9.0
23.564	7.0
23.579	10.0
23.594	17.0
23.609	5.0
23.624	16.0
23.639	12.0
23.654	12.0
23.668	13.0
23.683	13.0
23.698	8.0
23.713	13.0
23.728	12.0
23.743	11.0
23.758	12.0
23.773	12.0
23.788	10.0
23.803	13.0
23.818	9.0
23.833	13.0
23.848	13.0
23.862	11.0
23.877	21.0
23.892	14.0
23.907	26.0
23.922	24.0
23.937	22.0
23.952	25.0
23.967	24.0
23.982	30.0
23.997	40.0
24.011	45.0
24.026	52.0
24.041	50.0
24.056	64.0
24.071	63.0
24.086	41.0
24.101	44.0
24.116	49.0
24.131	50.0
24.145	41.0
24.16	36.0
24.175	31.0
24.19	34.0
24.205	39.0
24.22	33.0
24.235	33.0
24.249	28.0
24.264	18.0
24.279	23.0
24.294	23.0
24.309	13.0
24.324	8.0
24.338	15.0
24.353	14.0
24.368	17.0
24.383	16.0
24.398	10.0
24.413	12.0
24.428	12.0
24.442	11.0
24.457	15.0
24.472	12.0
24.487	7.0
24.502	8.0
24.516	7.0
24.531	11.0
24.546	15.0
24.561	16.0
24.576	11.0
24.591	12.0
24.605	8.0
24.62	13.0
24.635	3.0
24.65	10.0
24.665	9.0
24.679	14.0
24.694	12.0
24.709	11.0
24.724	15.0
24.739	9.0
24.753	14.0
24.768	11.0
24.783	12.0
24.798	8.0
24.813	13.0
24.827	9.0
24.842	7.0
24.857	6.0
24.872	13.0
24.886	12.0
24.901	19.0
24.916	11.0
24.931	11.0
24.946	9.0
24.96	6.0
24.975	8.0
24.99	10.0
25.005	12.0
25.019	10.0
25.034	6.0
25.049	11.0
25.064	9.0
25.078	12.0
25.093	18.0
25.108	13.0
25.123	9.0
25.138	16.0
25.152	17.0
25.167	8.0
25.182	7.0
25.197	8.0
25.211	10.0
25.226	16.0
25.241	9.0
25.256	4.0
25.27	12.0
25.285	14.0
25.3	11.0
25.315	7.0
25.329	7.0
25.344	8.0
25.359	14.0
25.374	10.0
25.388	8.0
25.403	8.0
25.418	8.0
25.433	11.0
25.447	9.0
25.462	11.0
25.477	11.0
25.492	12.0
25.506	15.0
25.521	14.0
25.536	11.0
25.55	8.0
25.565	12.0
25.58	6.0
25.595	8.0
25.609	11.0
25.624	7.0
25.639	11.0
25.654	8.0
25.668	14.0
25.683	13.0
25.698	11.0
25.713	9.0
25.727	10.0
25.742	12.0
25.757	10.0
25.772	7.0
25.786	11.0
25.801	6.0
25.816	10.0
25.83	11.0
25.845	9.0
25.86	6.0
25.875	9.0
25.889	8.0
25.904	7.0
25.919	10.0
25.934	11.0
25.948	6.0
25.963	20.0
25.978	8.0
25.992	14.0
26.007	9.0
26.022	14.0
26.037	9.0
26.051	13.0
26.066	12.0
26.081	11.0
26.096	7.0
26.11	12.0
26.125	10.0
26.14	10.0
26.155	9.0
26.169	5.0
26.184	9.0
26.199	11.0
26.213	14.0
26.228	11.0
26.243	3.0
26.258	9.0
26.272	13.0
26.287	13.0
26.302	8.0
26.317	10.0
26.331	6.0
26.346	13.0
26.361	8.0
26.376	4.0
26.39	7.0
26.405	11.0
26.42	12.0
26.434	13.0
26.449	15.0
26.464	16.0
26.479	9.0
26.493	5.0
26.508	11.0
26.523	6.0
26.538	8.0
26.552	8.0
26.567	17.0
26.582	4.0
26.597	10.0
26.611	15.0
26.626	5.0
26.641	10.0
26.656	6.0
26.67	10.0
26.685	13.0
26.7	8.0
26.715	14.0
26.729	11.0
26.744	7.0
26.759	3.0
26.773	11.0
26.788	6.0
26.803	9.0
26.818	10.0
26.832	8.0
26.847	9.0
26.862	11.0
26.877	8.0
26.891	12.0
26.906	12.0
26.921	7.0
26.936	16.0
26.95	9.0
26.965	10.0
26.98	12.0
26.995	10.0
27.01	12.0
27.024	7.0
27.039	12.0
27.054	11.0
27.069	10.0
27.083	14.0
27.098	9.0
27.113	11.0
27.128	12.0
27.142	12.0
27.157	7.0
27.172	5.0
27.187	7.0
27.201	9.0
27.216	12.0
27.231	10.0
27.246	4.0
27.261	14.0
27.275	11.0
27.29	4.0
27.305	20.0
27.32	10.0
27.334	8.0
27.349	12.0
27.364	8.0
27.379	10.0
27.394	10.0
27.408	8.0
27.423	15.0
27.438	11.0
27.453	8.0
27.467	8.0
27.482	7.0
27.497	6.0
27.512	11.0
27.527	12.0
27.541	5.0
27.556	6.0
27.571	9.0
27.586	13.0
27.601	7.0
27.615	11.0
27.63	12.0
27.645	14.0
27.66	11.0
27.675	17.0
27.689	16.0
27.704	8.0
27.719	12.0
27.734	14.0
27.749	19.0
27.763	18.0
27.778	25.0
27.793	22.0
27.808	22.0
27.823	15.0
27.838	27.0
27.852	23.0
27.867	21.0
27.882	20.0
27.897	25.0
27.912	27.0
27.926	29.0
27.941	33.0
27.956	19.0
27.971	18.0
27.986	14.0
28.001	18.0
28.015	22.0
28.03	20.0
28.045	13.0
28.06	18.0
28.075	16.0
28.09	15.0
28.105	11.0
28.119	13.0
28.134	9.0
28.149	10.0
28.164	9.0
28.179	7.0
28.194	7.0
28.208	6.0
28.223	14.0
28.238	8.0
28.253	11.0
28.268	8.0
28.283	11.0
28.298	8.0
28.312	7.0
28.327	15.0
28.342	12.0
28.357	10.0
28.372	4.0
28.387	10.0
28.402	14.0
28.417	9.0
28.431	9.0
28.446	11.0
28.461	14.0
28.476	14.0
28.491	12.0
28.506	15.0
28.521	12.0
28.536	12.0
28.55	8.0
28.565	11.0
28.58	15.0
28.595	10.0
28.61	11.0
28.625	12.0
28.64	10.0
28.655	6.0
28.669	14.0
28.684	12.0
28.699	8.0
28.714	12.0
28.729	13.0
28.744	3.0
28.759	13.0
28.774	12.0
28.788	10.0
28.803	12.0
28.818	5.0
28.833	9.0
28.848	10.0
28.863	12.0
28.878	17.0
28.893	11.0
28.908	8.0
28.922	15.0
28.937	8.0
28.952	15.0
28.967	12.0
28.982	13.0
28.997	14.0
29.012	11.0
29.027	10.0
29.041	7.0
29.056	7.0
29.071	14.0
29.086	13.0
29.101	13.0
29.116	7.0
29.131	11.0
29.146	6.0
29.16	12.0
29.175	7.0
29.19	12.0
29.205	11.0
29.22	11.0
29.235	13.0
29.25	9.0
29.265	15.0
29.279	8.0
29.294	19.0
29.309	14.0
29.324	13.0
29.339	7.0
29.354	10.0
29.369	12.0
29.384	18.0
29.398	23.0
29.413	8.0
29.428	17.0
29.443	16.0
29.458	25.0
29.473	27.0
29.488	25.0
29.502	45.0
29.517	25.0
29.532	42.0
29.547	41.0
29.562	38.0
29.577	46.0
29.592	50.0
29.606	40.0
29.621	48.0
29.636	50.0
29.651	37.0
29.666	47.0
29.681	35.0
29.695	30.0
29.71	25.0
29.725	39.0
29.74	26.0
29.755	30.0
29.77	24.0
29.784	33.0
29.799	41.0
29.814	30.0
29.829	23.0
29.844	24.0
29.859	22.0
29.873	17.0
29.888	13.0
29.903	12.0
29.918	14.0
29.933	16.0
29.947	18.0
29.962	12.0
29.977	9.0
29.992	5.0
30.007	7.0
30.021	8.0
30.036	13.0
30.051	8.0
30.066	15.0
30.081	11.0
30.095	12.0
30.11	10.0
30.125	12.0
30.14	6.0
30.155	8.0
30.169	10.0
30.184	13.0
30.199	12.0
30.214	11.0
30.228	11.0
30.243	19.0
30.258	13.0
30.273	9.0
30.288	10.0
30.302	9.0
30.317	10.0
30.332	11.0
30.347	10.0
30.361	10.0
30.376	11.0
30.391	15.0
30.406	14.0
30.42	7.0
30.435	13.0
30.45	12.0
30.465	11.0
30.479	9.0
30.494	10.0
30.509	12.0
30.524	5.0
30.538	10.0
30.553	13.0
30.568	12.0
30.583	17.0
30.597	12.0
30.612	15.0
30.627	16.0
30.641	8.0
30.656	16.0
30.671	11.0
30.686	9.0
30.7	10.0
30.715	12.0
30.73	16.0
30.745	8.0
30.759	8.0
30.774	12.0
30.789	6.0
30.803	17.0
30.818	7.0
30.833	9.0
30.848	11.0
30.862	11.0
30.877	10.0
30.892	8.0
30.906	13.0
30.921	19.0
30.936	10.0
30.951	13.0
30.965	9.0
30.98	16.0
30.995	9.0
31.009	11.0
31.024	19.0
31.039	11.0
31.053	14.0
31.068	13.0
31.083	23.0
31.098	20.0
31.112	11.0
31.127	19.0
31.142	27.0
31.156	33.0
31.171	26.0
31.186	17.0
31.2	18.0
31.215	29.0
31.23	46.0
31.245	43.0
31.259	38.0
31.274	33.0
31.289	32.0
31.303	34.0
31.318	26.0
31.333	28.0
31.347	27.0
31.362	30.0
31.377	39.0
31.392	25.0
31.406	18.0
31.421	13.0
31.436	29.0
31.45	32.0
31.465	27.0
31.48	20.0
31.494	21.0
31.509	24.0
31.524	22.0
31.538	16.0
31.553	15.0
31.568	12.0
31.583	13.0
31.597	13.0
31.612	13.0
31.627	12.0
31.641	17.0
31.656	10.0
31.671	16.0
31.685	7.0
31.7	4.0
31.715	8.0
31.729	8.0
31.744	11.0
31.759	9.0
31.774	13.0
31.788	17.0
31.803	17.0
31.818	14.0
31.832	13.0
31.847	16.0
31.862	15.0
31.876	8.0
31.891	8.0
31.906	14.0
31.92	8.0
31.935	14.0
31.95	11.0
31.965	7.0
31.979	6.0
31.994	7.0
32.009	14.0
32.023	9.0
32.038	13.0
32.053	10.0
32.067	10.0
32.082	6.0
32.097	5.0
32.112	9.0
32.126	13.0
32.141	13.0
32.156	8.0
32.17	7.0
32.185	9.0
32.2	12.0
32.214	11.0
32.229	11.0
32.244	6.0
32.259	13.0
32.273	6.0
32.288	12.0
32.303	11.0
32.317	9.0
32.332	7.0
32.347	8.0
32.362	9.0
32.376	8.0
32.391	10.0
32.406	14.0
32.42	10.0
32.435	7.0
32.45	7.0
32.465	10.0
32.479	9.0
32.494	11.0
32.509	8.0
32.523	9.0
32.538	9.0
32.553	12.0
32.568	12.0
32.582	5.0
32.597	8.0
32.612	11.0
32.627	12.0
32.641	12.0
32.656	10.0
32.671	11.0
32.685	24.0
32.7	14.0
32.715	16.0
32.73	28.0
32.744	20.0
32.759	20.0
32.774	22.0
32.788	25.0
32.803	29.0
32.818	24.0
32.833	23.0
32.847	26.0
32.862	20.0
32.877	26.0
32.892	21.0
32.906	28.0
32.921	24.0
32.936	21.0
32.951	13.0
32.965	20.0
32.98	11.0
32.995	27.0
33.009	20.0
33.024	18.0
33.039	22.0
33.054	17.0
33.068	18.0
33.083	17.0
33.098	13.0
33.113	12.0
33.127	13.0
33.142	11.0
33.157	12.0
33.172	8.0
33.186	8.0
33.201	9.0
33.216	13.0
33.231	11.0
33.245	7.0
33.26	6.0
33.275	7.0
33.29	6.0
33.304	6.0
33.319	15.0
33.334	15.0
33.349	5.0
33.363	10.0
33.378	12.0
33.393	8.0
33.408	10.0
33.422	8.0
33.437	6.0
33.452	5.0
33.467	13.0
33.481	9.0
33.496	12.0
33.511	11.0
33.526	7.0
33.54	13.0
33.555	16.0
33.57	7.0
33.585	3.0
33.599	12.0
33.614	15.0
33.629	9.0
33.644	11.0
33.658	13.0
33.673	7.0
33.688	9.0
33.703	14.0
33.718	5.0
33.732	9.0
33.747	16.0
33.762	12.0
33.777	7.0
33.791	11.0
33.806	6.0
33.821	7.0
33.836	7.0
33.85	5.0
33.865	14.0
33.88	6.0
33.895	7.0
33.91	10.0
33.924	9.0
33.939	13.0
33.954	8.0
33.969	16.0
33.983	15.0
33.998	13.0
34.013	11.0
34.028	10.0
34.042	17.0
34.057	10.0
34.072	11.0
34.087	7.0
34.102	7.0
34.116	8.0
34.131	17.0
34.146	10.0
34.161	14.0
34.175	12.0
34.19	12.0
34.205	10.0
34.22	12.0
34.235	7.0
34.249	14.0
34.264	12.0
34.279	9.0
34.294	14.0
34.309	7.0
34.323	12.0
34.338	18.0
34.353	12.0
34.368	17.0
34.382	10.0
34.397	8.0
34.412	9.0
34.427	11.0
34.442	15.0
34.456	9.0
34.471	9.0
34.486	14.0
34.501	15.0
34.516	12.0
34.53	9.0
34.545	12.0
34.56	9.0
34.575	7.0
34.59	12.0
34.604	11.0
34.619	9.0
34.634	8.0
34.649	8.0
34.664	10.0
34.678	12.0
34.693	14.0
34.708	12.0
34.723	10.0
34.738	6.0
34.752	10.0
34.767	7.0
34.782	6.0
34.797	8.0
34.812	3.0
34.826	9.0
34.841	9.0
34.856	7.0
34.871	9.0
34.886	12.0
34.9	16.0
34.915	3.0
34.93	12.0
34.945	5.0
34.96	8.0
34.974	10.0
34.989	7.0
35.004	8.0
35.019	6.0
35.034	13.0
35.048	10.0
35.063	14.0
35.078	9.0
35.093	9.0
35.108	9.0
35.122	6.0
35.137	6.0
35.152	11.0
35.167	13.0
35.182	6.0
35.196	7.0
35.211	14.0
35.226	10.0
35.241	11.0
35.256	8.0
35.27	7.0
35.285	12.0
35.3	13.0
35.315	10.0
35.33	6.0
35.344	10.0
35.359	5.0
35.374	13.0
35.389	10.0
35.404	3.0
35.418	14.0
35.433	11.0
35.448	9.0
35.463	9.0
35.478	7.0
35.493	8.0
35.507	4.0
35.522	3.0
35.537	6.0
35.552	8.0
35.567	9.0
35.581	18.0
35.596	12.0
35.611	6.0
35.626	13.0
35.641	5.0
35.655	14.0
35.67	15.0
35.685	21.0
35.7	9.0
35.715	16.0
35.729	19.0
35.744	21.0
35.759	17.0
35.774	14.0
35.789	14.0
35.804	18.0
35.818	17.0
35.833	23.0
35.848	20.0
35.863	17.0
35.878	12.0
35.892	16.0
35.907	18.0
35.922	15.0
35.937	16.0
35.952	16.0
35.966	12.0
35.981	21.0
35.996	21.0
36.011	16.0
36.026	9.0
36.04	9.0
36.055	11.0
36.07	10.0
36.085	12.0
36.1	11.0
36.114	14.0
36.129	15.0
36.144	10.0
36.159	7.0
36.174	11.0
36.189	18.0
36.203	10.0
36.218	5.0
36.233	12.0
36.248	9.0
36.263	7.0
36.277	16.0
36.292	10.0
36.307	14.0
36.322	10.0
36.337	8.0
36.351	17.0
36.366	7.0
36.381	6.0
36.396	13.0
36.411	8.0
36.426	15.0
36.44	5.0
36.455	7.0
36.47	9.0
36.485	11.0
36.5	6.0
36.514	6.0
36.529	14.0
36.544	5.0
36.559	15.0
36.574	9.0
36.589	10.0
36.603	11.0
36.618	8.0
36.633	8.0
36.648	7.0
36.663	11.0
36.677	6.0
36.692	10.0
36.707	5.0
36.722	3.0
36.737	9.0
36.752	7.0
36.766	5.0
36.781	12.0
36.796	7.0
36.811	7.0
36.826	10.0
36.841	5.0
36.855	6.0
36.87	15.0
36.885	7.0
36.9	12.0
36.915	7.0
36.93	6.0
36.944	7.0
36.959	8.0
36.974	10.0
36.989	7.0
37.004	10.0
37.019	6.0
37.033	20.0
37.048	13.0
37.063	12.0
37.078	29.0
37.093	18.0
37.108	26.0
37.123	32.0
37.137	22.0
37.152	24.0
37.167	23.0
37.182	18.0
37.197	22.0
37.212	18.0
37.226	24.0
37.241	24.0
37.256	30.0
37.271	29.0
37.286	15.0
37.301	20.0
37.316	18.0
37.331	14.0
37.345	18.0
37.36	16.0
37.375	19.0
37.39	25.0
37.405	23.0
37.42	16.0
37.435	25.0
37.45	12.0
37.464	16.0
37.479	13.0
37.494	17.0
37.509	7.0
37.524	15.0
37.539	2.0
37.554	15.0
37.569	5.0
37.583	5.0
37.598	1.0
37.613	9.0
37.628	9.0
37.643	8.0
37.658	9.0
37.673	6.0
37.688	9.0
37.703	6.0
37.718	5.0
37.733	11.0
37.747	8.0
37.762	2.0
37.777	7.0
37.792	6.0
37.807	12.0
37.822	6.0
37.837	7.0
37.852	9.0
37.867	7.0
37.882	8.0
37.897	8.0
37.912	9.0
37.927	3.0
37.941	7.0
37.956	14.0
37.971	3.0
37.986	8.0
38.001	8.0
38.016	8.0
38.031	11.0
38.046	4.0
38.061	5.0
38.076	7.0
38.091	13.0
38.106	6.0
38.121	11.0
38.136	6.0
38.151	7.0
38.166	6.0
38.181	8.0
38.196	4.0
38.211	5.0
38.226	6.0
38.241	6.0
38.256	4.0
38.271	7.0
38.285	10.0
38.3	7.0
38.315	6.0
38.33	6.0
38.345	4.0
38.36	9.0
38.375	6.0
38.39	4.0
38.405	4.0
38.42	6.0
38.435	6.0
38.45	7.0
38.465	1.0
38.48	6.0
38.495	8.0
38.51	3.0
38.525	11.0
38.54	8.0
38.555	7.0
38.57	9.0
38.585	2.0
38.6	4.0
38.615	8.0
38.63	5.0
38.645	3.0
38.66	5.0
38.675	6.0
38.69	4.0
38.705	2.0
38.72	9.0
38.735	8.0
38.75	6.0
38.765	6.0
38.78	5.0
38.795	2.0
38.81	11.0
38.825	10.0
38.84	7.0
38.855	5.0
38.87	6.0
38.885	4.0
38.9	3.0
38.915	8.0
38.93	4.0
38.945	7.0
38.96	2.0
38.975	1.0
38.99	6.0
39.005	4.0
39.02	10.0
39.035	6.0
39.05	5.0
39.065	4.0
39.08	8.0
39.095	5.0
39.11	1.0
39.125	7.0
39.14	2.0
39.155	4.0
39.17	9.0
39.185	4.0
39.2	9.0
39.215	5.0
39.23	13.0
39.245	6.0
39.26	9.0
39.275	9.0
39.29	8.0
39.305	7.0
39.32	3.0
39.335	7.0
39.35	4.0
39.365	5.0
39.38	11.0
39.395	2.0
39.409	3.0
39.424	6.0
39.439	6.0
39.454	2.0
39.469	7.0
39.484	2.0
39.499	8.0
39.514	7.0
39.529	12.0
39.544	8.0
39.559	7.0
39.574	3.0
39.589	4.0
39.604	1.0
39.619	9.0
39.634	5.0
39.649	7.0
39.664	7.0
39.678	3.0
39.693	2.0
39.708	7.0
39.723	2.0
39.738	10.0
39.753	7.0
39.768	9.0
39.783	12.0
39.798	7.0
39.813	11.0
39.827	5.0
39.842	4.0
39.857	9.0
39.872	8.0
39.887	9.0
39.902	7.0
39.917	5.0
39.932	7.0
39.947	8.0
39.961	6.0
39.976	8.0
39.991	6.0
40.006	7.0
40.021	5.0
40.036	10.0
40.051	5.0
40.065	7.0
40.08	3.0
40.095	3.0
40.11	8.0
40.125	6.0
40.14	5.0
40.154	3.0
40.169	7.0
40.184	12.0
40.199	4.0
40.214	6.0
40.228	3.0
40.243	8.0
40.258	9.0
40.273	7.0
40.288	5.0
40.302	5.0
40.317	6.0
40.332	4.0
40.347	8.0
40.362	6.0
40.376	4.0
40.391	2.0
40.406	3.0
40.421	10.0
40.436	6.0
40.45	5.0
40.465	2.0
40.48	7.0
40.495	7.0
40.509	5.0
40.524	3.0
40.539	6.0
40.554	10.0
40.568	6.0
40.583	10.0
40.598	4.0
40.613	7.0
40.627	7.0
40.642	6.0
40.657	3.0
40.672	5.0
40.686	6.0
40.701	8.0
40.716	7.0
40.731	4.0
40.745	5.0
40.76	9.0
40.775	8.0
40.79	5.0
40.804	10.0
40.819	7.0
40.834	2.0
40.849	11.0
40.863	4.0
40.878	11.0
40.893	3.0
40.907	4.0
40.922	7.0
40.937	8.0
40.952	4.0
40.966	8.0
40.981	8.0
40.996	10.0
41.011	11.0
41.025	18.0
41.04	11.0
41.055	13.0
41.069	21.0
41.084	16.0
41.099	10.0
41.114	16.0
41.128	21.0
41.143	16.0
41.158	16.0
41.173	17.0
41.187	27.0
41.202	22.0
41.217	16.0
41.231	10.0
41.246	15.0
41.261	11.0
41.276	3.0
41.29	8.0
41.305	12.0
41.32	11.0
41.335	11.0
41.349	11.0
41.364	13.0
41.379	7.0
41.393	19.0
41.408	14.0
41.423	11.0
41.438	14.0
41.452	13.0
41.467	13.0
41.482	15.0
41.497	6.0
41.511	4.0
41.526	6.0
41.541	12.0
41.556	5.0
41.57	4.0
41.585	5.0
41.6	7.0
41.615	5.0
41.629	4.0
41.644	5.0
41.659	8.0
41.674	4.0
41.688	11.0
41.703	7.0
41.718	5.0
41.733	6.0
41.747	6.0
41.762	6.0
41.777	7.0
41.792	4.0
41.806	3.0
41.821	8.0
41.836	4.0
41.851	4.0
41.866	2.0
41.88	6.0
41.895	4.0
41.91	5.0
41.925	8.0
41.939	6.0
41.954	3.0
41.969	3.0
41.984	7.0
41.999	2.0
42.013	6.0
42.028	2.0
42.043	5.0
42.058	4.0
42.073	8.0
42.088	3.0
42.102	4.0
42.117	5.0
42.132	8.0
42.147	5.0
42.162	8.0
42.176	4.0
42.191	8.0
42.206	4.0
42.221	7.0
42.236	5.0
42.251	9.0
42.266	5.0
42.28	10.0
42.295	12.0
42.31	9.0
42.325	18.0
42.34	6.0
42.355	14.0
42.369	24.0
42.384	13.0
42.399	18.0
42.414	14.0
42.429	13.0
42.444	14.0
42.459	11.0
42.474	17.0
42.488	8.0
42.503	9.0
42.518	16.0
42.533	15.0
42.548	9.0
42.563	11.0
42.578	14.0
42.593	12.0
42.608	9.0
42.622	12.0
42.637	6.0
42.652	13.0
42.667	5.0
42.682	10.0
42.697	9.0
42.712	9.0
42.727	9.0
42.742	7.0
42.757	11.0
42.772	8.0
42.786	2.0
42.801	2.0
42.816	14.0
42.831	8.0
42.846	6.0
42.861	6.0
42.876	1.0
42.891	6.0
42.906	3.0
42.921	1.0
42.936	4.0
42.951	10.0
42.966	4.0
42.981	3.0
42.996	5.0
43.011	2.0
43.025	6.0
43.04	2.0
43.055	2.0
43.07	8.0
43.085	5.0
43.1	9.0
43.115	2.0
43.13	10.0
43.145	4.0
43.16	7.0
43.175	10.0
43.19	9.0
43.205	6.0
43.22	4.0
43.235	5.0
43.25	8.0
43.265	3.0
43.28	4.0
43.295	6.0
43.31	5.0
43.325	4.0
43.34	5.0
43.355	6.0
43.37	6.0
43.385	8.0
43.4	2.0
43.415	4.0
43.43	2.0
43.445	8.0
43.46	2.0
43.475	7.0
43.49	9.0
43.505	4.0
43.52	6.0
43.535	8.0
43.55	5.0
43.565	10.0
43.58	12.0
43.595	5.0
43.61	11.0
43.625	8.0
43.64	10.0
43.655	17.0
43.67	10.0
43.685	7.0
43.7	9.0
43.715	11.0
43.73	7.0
43.745	7.0
43.76	4.0
43.775	11.0
43.79	7.0
43.805	10.0
43.82	5.0
43.835	8.0
43.85	5.0
43.865	6.0
43.88	3.0
43.895	8.0
43.91	7.0
43.925	5.0
43.94	6.0
43.955	8.0
43.97	9.0
43.985	4.0
44.0	6.0
44.015	5.0
44.03	6.0
44.045	2.0
44.061	8.0
44.076	2.0
44.091	5.0
44.106	8.0
44.121	5.0
44.136	7.0
44.151	6.0
44.166	6.0
44.181	5.0
44.196	4.0
44.211	3.0
44.226	1.0
44.241	6.0
44.256	4.0
44.271	7.0
44.286	5.0
44.301	6.0
44.316	5.0
44.331	8.0
44.346	7.0
44.361	9.0
44.377	5.0
44.392	9.0
44.407	7.0
44.422	8.0
44.437	5.0
44.452	9.0
44.467	4.0
44.482	4.0
44.497	5.0
44.512	5.0
44.527	4.0
44.542	4.0
44.557	3.0
44.572	4.0
44.587	4.0
44.602	10.0
44.617	5.0
44.632	4.0
44.647	3.0
44.663	8.0
44.678	7.0
44.693	12.0
44.708	10.0
44.723	7.0
44.738	10.0
44.753	7.0
44.768	13.0
44.783	10.0
44.798	18.0
44.813	10.0
44.828	7.0
44.843	5.0
44.858	10.0
44.873	10.0
44.888	10.0
44.903	12.0
44.918	7.0
44.933	9.0
44.948	3.0
44.964	7.0
44.979	8.0
44.994	11.0
45.009	6.0
45.024	13.0
45.039	4.0
45.054	8.0
45.069	6.0
45.084	5.0
45.099	10.0
45.114	6.0
45.129	9.0
45.144	2.0
45.159	8.0
45.174	3.0
45.189	7.0
45.204	3.0
45.219	6.0
45.234	10.0
45.249	6.0
45.264	9.0
45.279	7.0
45.294	6.0
45.309	4.0
45.324	3.0
45.339	3.0
45.354	3.0
45.369	2.0
45.384	3.0
45.399	4.0
45.414	3.0
45.429	1.0
45.444	3.0
45.459	5.0
45.474	5.0
45.489	6.0
45.504	4.0
45.519	5.0
45.534	10.0
45.549	3.0
45.564	0.0
45.579	7.0
45.594	7.0
45.609	2.0
45.624	5.0
45.639	12.0
45.654	7.0
45.669	8.0
45.684	6.0
45.699	6.0
45.714	7.0
45.729	2.0
45.744	3.0
45.759	5.0
45.774	4.0
45.789	7.0
45.804	5.0
45.819	4.0
45.834	6.0
45.849	5.0
45.864	8.0
45.879	12.0
45.894	9.0
45.909	20.0
45.924	11.0
45.939	19.0
45.954	20.0
45.969	14.0
45.984	15.0
45.998	21.0
46.013	14.0
46.028	9.0
46.043	8.0
46.058	8.0
46.073	11.0
46.088	10.0
46.103	11.0
46.118	6.0
46.133	6.0
46.148	16.0
46.163	9.0
46.178	16.0
46.192	9.0
46.207	8.0
46.222	9.0
46.237	11.0
46.252	13.0
46.267	10.0
46.282	12.0
46.297	14.0
46.312	10.0
46.327	17.0
46.341	10.0
46.356	6.0
46.371	12.0
46.386	8.0
46.401	9.0
46.416	8.0
46.431	4.0
46.446	9.0
46.46	5.0
46.475	12.0
46.49	7.0
46.505	2.0
46.52	4.0
46.535	3.0
46.55	5.0
46.564	2.0
46.579	3.0
46.594	3.0
46.609	1.0
46.624	6.0
46.639	6.0
46.654	5.0
46.668	2.0
46.683	3.0
46.698	6.0
46.713	2.0
46.728	5.0
46.743	3.0
46.758	4.0
46.772	2.0
46.787	2.0
46.802	3.0
46.817	5.0
46.832	5.0
46.847	7.0
46.861	5.0
46.876	3.0
46.891	4.0
46.906	6.0
46.921	3.0
46.936	3.0
46.95	10.0
46.965	2.0
46.98	6.0
46.995	5.0
47.01	4.0
47.025	8.0
47.039	1.0
47.054	15.0
47.069	7.0
47.084	12.0
47.099	9.0
47.113	8.0
47.128	12.0
47.143	7.0
47.158	10.0
47.173	6.0
47.188	10.0
47.202	9.0
47.217	5.0
47.232	5.0
47.247	6.0
47.262	5.0
47.277	4.0
47.291	6.0
47.306	3.0
47.321	9.0
47.336	8.0
47.351	7.0
47.365	5.0
47.38	8.0
47.395	4.0
47.41	8.0
47.425	11.0
47.44	5.0
47.454	8.0
47.469	8.0
47.484	6.0
47.499	8.0
47.514	6.0
47.528	5.0
47.543	7.0
47.558	2.0
47.573	5.0
47.588	5.0
47.603	7.0
47.617	5.0
47.632	6.0
47.647	3.0
47.662	5.0
47.677	2.0
47.691	5.0
47.706	4.0
47.721	1.0
47.736	1.0
47.751	7.0
47.766	7.0
47.78	4.0
47.795	7.0
47.81	10.0
47.825	3.0
47.84	7.0
47.855	3.0
47.869	1.0
47.884	4.0
47.899	3.0
47.914	7.0
47.929	3.0
47.944	4.0
47.958	7.0
47.973	3.0
47.988	6.0
48.003	3.0
48.018	3.0
48.033	5.0
48.047	6.0
48.062	8.0
48.077	4.0
48.092	3.0
48.107	4.0
48.122	3.0
48.137	2.0
48.151	3.0
48.166	3.0
48.181	2.0
48.196	5.0
48.211	4.0
48.226	4.0
48.241	7.0
48.255	1.0
48.27	2.0
48.285	5.0
48.3	7.0
48.315	7.0
48.33	3.0
48.345	1.0
48.359	4.0
48.374	4.0
48.389	3.0
48.404	5.0
48.419	5.0
48.434	4.0
48.449	3.0
48.464	5.0
48.478	2.0
48.493	6.0
48.508	5.0
48.523	1.0
48.538	1.0
48.553	2.0
48.568	4.0
48.583	3.0
48.597	4.0
48.612	7.0
48.627	4.0
48.642	4.0
48.657	10.0
48.672	2.0
48.687	2.0
48.702	5.0
48.717	3.0
48.731	5.0
48.746	6.0
48.761	0.0
48.776	2.0
48.791	5.0
48.806	5.0
48.821	7.0
48.836	6.0
48.851	4.0
48.866	5.0
48.88	5.0
48.895	8.0
48.91	6.0
48.925	7.0
48.94	6.0
48.955	6.0
48.97	4.0
48.985	4.0
49.0	4.0
49.015	4.0
49.03	5.0
49.044	5.0
49.059	0.0
49.074	6.0
49.089	6.0
49.104	2.0
49.119	3.0
49.134	3.0
49.149	6.0
49.164	4.0
49.179	9.0
49.194	4.0
49.209	3.0
49.224	5.0
49.238	7.0
49.253	4.0
49.268	6.0
49.283	3.0
49.298	8.0
49.313	6.0
49.328	11.0
49.343	3.0
49.358	5.0
49.373	9.0
49.388	10.0
49.403	10.0
49.418	2.0
49.433	4.0
49.448	8.0
49.463	3.0
49.478	4.0
49.492	7.0
49.507	2.0
49.522	4.0
49.537	5.0
49.552	3.0
49.567	5.0
49.582	6.0
49.597	3.0
49.612	5.0
49.627	4.0
49.642	4.0
49.657	7.0
49.672	4.0
49.687	4.0
49.702	7.0
49.717	7.0
49.732	6.0
49.747	5.0
49.762	5.0
49.777	11.0
49.792	4.0
49.807	3.0
49.822	7.0
49.837	5.0
49.852	1.0
49.867	5.0
49.882	5.0
49.897	5.0
49.912	3.0
49.927	4.0
49.942	8.0
49.957	8.0
49.971	6.0
49.986	4.0
50.001	3.0
50.016	3.0
50.031	6.0
50.046	5.0
50.061	2.0
50.076	10.0
50.091	3.0
50.106	9.0
50.121	4.0
50.136	4.0
50.151	4.0
50.166	3.0
50.181	5.0
50.196	4.0
50.211	4.0
50.226	8.0
50.241	4.0
50.256	9.0
50.271	7.0
50.286	5.0
50.302	4.0
50.317	8.0
50.332	6.0
50.347	4.0
50.362	5.0
50.377	7.0
50.392	6.0
50.407	6.0
50.422	5.0
50.437	5.0
50.452	15.0
50.467	13.0
50.482	12.0
50.497	8.0
50.512	4.0
50.527	4.0
50.542	6.0
50.557	4.0
50.572	10.0
50.587	2.0
50.602	8.0
50.617	4.0
50.632	8.0
50.647	4.0
50.662	8.0
50.677	8.0
50.692	3.0
50.707	5.0
50.722	5.0
50.737	7.0
50.752	9.0
50.767	7.0
50.782	5.0
50.797	8.0
50.812	6.0
50.828	6.0
50.843	3.0
50.858	8.0
50.873	6.0
50.888	6.0
50.903	3.0
50.918	2.0
50.933	5.0
50.948	3.0
50.963	5.0
50.978	7.0
50.993	6.0
51.008	4.0
51.023	2.0
51.038	6.0
51.053	4.0
51.068	5.0
51.083	2.0
51.098	3.0
51.114	3.0
51.129	3.0
51.144	2.0
51.159	4.0
51.174	11.0
51.189	7.0
51.204	6.0
51.219	3.0
51.234	4.0
51.249	4.0
51.264	3.0
51.279	4.0
51.294	5.0
51.309	2.0
51.324	6.0
51.34	7.0
51.355	8.0
51.37	9.0
51.385	7.0
51.4	9.0
51.415	11.0
51.43	10.0
51.445	9.0
51.46	11.0
51.475	12.0
51.49	15.0
51.505	20.0
51.52	11.0
51.535	20.0
51.551	19.0
51.566	14.0
51.581	11.0
51.596	10.0
51.611	20.0
51.626	5.0
51.641	11.0
51.656	7.0
51.671	6.0
51.686	10.0
51.701	4.0
51.716	6.0
51.732	3.0
51.747	8.0
51.762	13.0
51.777	10.0
51.792	15.0
51.807	9.0
51.822	9.0
51.837	11.0
51.852	5.0
51.867	12.0
51.882	6.0
51.898	10.0
51.913	8.0
51.928	10.0
51.943	8.0
51.958	7.0
51.973	7.0
51.988	4.0
52.003	4.0
52.018	7.0
52.033	5.0
52.048	3.0
52.064	2.0
52.079	6.0
52.094	1.0
52.109	4.0
52.124	4.0
52.139	5.0
52.154	7.0
52.169	6.0
52.184	5.0
52.199	4.0
52.215	3.0
52.23	6.0
52.245	6.0
52.26	3.0
52.275	5.0
52.29	6.0
52.305	5.0
52.32	4.0
52.335	5.0
52.35	3.0
52.366	9.0
52.381	3.0
52.396	4.0
52.411	1.0
52.426	6.0
52.441	8.0
52.456	5.0
52.471	9.0
52.486	4.0
52.502	4.0
52.517	8.0
52.532	6.0
52.547	6.0
52.562	9.0
52.577	10.0
52.592	8.0
52.607	9.0
52.622	8.0
52.637	3.0
52.653	10.0
52.668	6.0
52.683	9.0
52.698	4.0
52.713	4.0
52.728	3.0
52.743	4.0
52.758	5.0
52.774	8.0
52.789	5.0
52.804	5.0
52.819	8.0
52.834	4.0
52.849	3.0
52.864	5.0
52.879	5.0
52.894	9.0
52.91	12.0
52.925	6.0
52.94	5.0
52.955	9.0
52.97	3.0
52.985	3.0
53.0	8.0
53.015	4.0
53.031	2.0
53.046	2.0
53.061	2.0
53.076	4.0
53.091	3.0
53.106	4.0
53.121	3.0
53.136	5.0
53.152	7.0
53.167	1.0
53.182	5.0
53.197	3.0
53.212	6.0
53.227	4.0
53.242	3.0
53.257	3.0
53.273	7.0
53.288	3.0
53.303	3.0
53.318	5.0
53.333	5.0
53.348	10.0
53.363	3.0
53.379	4.0
53.394	6.0
53.409	5.0
53.424	5.0
53.439	3.0
53.454	4.0
53.469	1.0
53.484	7.0
53.5	8.0
53.515	4.0
53.53	2.0
53.545	3.0
53.56	3.0
53.575	2.0
53.59	3.0
53.606	6.0
53.621	8.0
53.636	5.0
53.651	2.0
53.666	7.0
53.681	3.0
53.696	5.0
53.712	4.0
53.727	2.0
53.742	4.0
53.757	6.0
53.772	6.0
53.787	5.0
53.802	5.0
53.818	1.0
53.833	5.0
53.848	5.0
53.863	3.0
53.878	3.0
53.893	7.0
53.909	6.0
53.924	5.0
53.939	7.0
53.954	3.0
53.969	8.0
53.984	7.0
53.999	8.0
54.015	1.0
54.03	1.0
54.045	6.0
54.06	2.0
54.075	4.0
54.09	5.0
54.106	4.0
54.121	8.0
54.136	6.0
54.151	4.0
54.166	3.0
54.181	4.0
54.197	6.0
54.212	1.0
54.227	6.0
54.242	2.0
54.257	7.0
54.272	6.0
54.288	1.0
54.303	2.0
54.318	5.0
54.333	3.0
54.348	4.0
54.363	4.0
54.379	8.0
54.394	2.0
54.409	1.0
54.424	6.0
54.439	4.0
54.454	4.0
54.47	8.0
54.485	6.0
54.5	5.0
54.515	7.0
54.53	8.0
54.545	8.0
54.561	12.0
54.576	6.0
54.591	6.0
54.606	14.0
54.621	8.0
54.636	11.0
54.652	14.0
54.667	13.0
54.682	10.0
54.697	8.0
54.712	10.0
54.727	9.0
54.743	13.0
54.758	11.0
54.773	6.0
54.788	3.0
54.803	9.0
54.819	7.0
54.834	5.0
54.849	9.0
54.864	6.0
54.879	6.0
54.894	7.0
54.91	7.0
54.925	11.0
54.94	6.0
54.955	4.0
54.97	11.0
54.985	8.0
55.001	11.0
55.016	7.0
55.031	5.0
55.046	9.0
55.061	7.0
55.077	8.0
55.092	5.0
55.107	6.0
55.122	3.0
55.137	7.0
55.152	8.0
55.168	8.0
55.183	6.0
55.198	9.0
55.213	4.0
55.228	4.0
55.243	2.0
55.259	4.0
55.274	5.0
55.289	3.0
55.304	3.0
55.319	3.0
55.335	5.0
55.35	2.0
55.365	6.0
55.38	5.0
55.395	3.0
55.41	2.0
55.426	2.0
55.441	4.0
55.456	7.0
55.471	6.0
55.486	3.0
55.501	4.0
55.517	6.0
55.532	7.0
55.547	9.0
55.562	5.0
55.577	6.0
55.592	3.0
55.608	6.0
55.623	7.0
55.638	5.0
55.653	2.0
55.668	6.0
55.683	3.0
55.699	13.0
55.714	5.0
55.729	11.0
55.744	8.0
55.759	3.0
55.774	5.0
55.79	1.0
55.805	3.0
55.82	7.0
55.835	3.0
55.85	2.0
55.865	1.0
55.881	3.0
55.896	3.0
55.911	3.0
55.926	4.0
55.941	4.0
55.956	10.0
55.972	7.0
55.987	2.0
56.002	5.0
56.017	2.0
56.032	10.0
56.047	6.0
56.063	6.0
56.078	12.0
56.093	2.0
56.108	3.0
56.123	2.0
56.138	3.0
56.154	6.0
56.169	5.0
56.184	3.0
56.199	4.0
56.214	3.0
56.229	6.0
56.244	6.0
56.26	5.0
56.275	4.0
56.29	3.0
56.305	4.0
56.32	4.0
56.335	4.0
56.351	6.0
56.366	5.0
56.381	3.0
56.396	2.0
56.411	3.0
56.426	1.0
56.441	3.0
56.457	1.0
56.472	3.0
56.487	5.0
56.502	1.0
56.517	3.0
56.532	7.0
56.547	3.0
56.563	2.0
56.578	5.0
56.593	8.0
56.608	3.0
56.623	10.0
56.638	1.0
56.653	5.0
56.668	3.0
56.684	3.0
56.699	3.0
56.714	7.0
56.729	2.0
56.744	5.0
56.759	4.0
56.774	4.0
56.79	4.0
56.805	5.0
56.82	6.0
56.835	10.0
56.85	0.0
56.865	3.0
56.88	1.0
56.895	7.0
56.911	2.0
56.926	5.0
56.941	6.0
56.956	4.0
56.971	8.0
56.986	4.0
57.001	5.0
57.016	6.0
57.031	4.0
57.047	5.0
57.062	3.0
57.077	7.0
57.092	1.0
57.107	3.0
57.122	5.0
57.137	2.0
57.152	2.0
57.167	5.0
57.183	7.0
57.198	4.0
57.213	2.0
57.228	5.0
57.243	3.0
57.258	3.0
57.273	5.0
57.288	2.0
57.303	3.0
57.318	7.0
57.334	4.0
57.349	5.0
57.364	8.0
57.379	5.0
57.394	3.0
57.409	5.0
57.424	3.0
57.439	3.0
57.454	3.0
57.469	2.0
57.484	3.0
57.5	6.0
57.515	3.0
57.53	3.0
57.545	1.0
57.56	5.0
57.575	6.0
57.59	3.0
57.605	4.0
57.62	3.0
57.635	5.0
57.65	4.0
57.665	5.0
57.68	7.0
57.696	2.0
57.711	2.0
57.726	3.0
57.741	8.0
57.756	3.0
57.771	3.0
57.786	9.0
57.801	10.0
57.816	6.0
57.831	3.0
57.846	3.0
57.861	4.0
57.876	4.0
57.891	5.0
57.906	7.0
57.921	4.0
57.937	5.0
57.952	5.0
57.967	4.0
57.982	4.0
57.997	5.0
58.012	4.0
58.027	4.0
58.042	8.0
58.057	8.0
58.072	7.0
58.087	4.0
58.102	3.0
58.117	6.0
58.132	5.0
58.147	7.0
58.162	6.0
58.177	2.0
58.192	2.0
58.207	3.0
58.222	8.0
58.237	2.0
58.252	3.0
58.267	2.0
58.282	3.0
58.297	2.0
58.312	5.0
58.327	5.0
58.342	2.0
58.357	11.0
58.372	3.0
58.387	7.0
58.402	3.0
58.418	2.0
58.433	3.0
58.448	1.0
58.463	5.0
58.478	2.0
58.493	4.0
58.508	3.0
58.523	6.0
58.538	6.0
58.553	7.0
58.568	4.0
58.583	6.0
58.598	7.0
58.613	9.0
58.628	3.0
58.643	5.0
58.658	9.0
58.673	7.0
58.688	7.0
58.703	3.0
58.718	6.0
58.733	6.0
58.748	3.0
58.763	2.0
58.778	4.0
58.793	5.0
58.808	4.0
58.823	5.0
58.838	4.0
58.853	6.0
58.868	4.0
58.883	6.0
58.898	9.0
58.913	5.0
58.928	4.0
58.942	7.0
58.957	4.0
58.972	3.0
58.987	5.0
59.002	10.0
59.017	6.0
59.032	12.0
59.047	5.0
59.062	5.0
59.077	7.0
59.092	8.0
59.107	2.0
59.122	5.0
59.137	6.0
59.152	6.0
59.167	4.0
59.182	5.0
59.197	2.0
59.212	3.0
59.227	6.0
59.242	9.0
59.257	3.0
59.272	4.0
59.287	6.0
59.302	4.0
59.317	8.0
59.332	6.0
59.347	2.0
59.362	3.0
59.377	4.0
59.392	6.0
59.407	3.0
59.422	0.0
59.437	5.0
59.452	4.0
59.467	3.0
59.482	7.0
59.497	6.0
59.512	7.0
59.527	6.0
59.542	7.0
59.557	9.0
59.572	7.0
59.587	10.0
59.602	5.0
59.617	9.0
59.632	14.0
59.647	13.0
59.661	6.0
59.676	6.0
59.691	7.0
59.706	8.0
59.721	7.0
59.736	3.0
59.751	1.0
59.766	1.0
59.781	2.0
59.796	3.0
59.811	2.0
59.826	4.0
59.841	3.0
59.856	4.0
59.871	7.0
59.886	7.0
59.901	2.0
59.916	5.0
59.931	2.0
59.946	3.0
59.961	3.0
59.976	8.0
59.991	3.0
60.006	6.0
60.021	8.0
60.036	6.0
60.051	6.0
60.066	3.0
60.081	8.0
60.096	7.0
60.111	5.0
60.126	2.0
60.141	8.0
60.156	3.0
60.171	3.0
60.186	3.0
60.201	4.0
60.216	3.0
60.231	4.0
60.246	4.0
60.261	4.0
60.276	4.0
60.291	3.0
60.306	6.0
60.321	7.0
60.336	5.0
60.35	3.0
60.365	6.0
60.38	1.0
60.395	4.0
60.41	2.0
60.425	7.0
60.44	10.0
60.455	4.0
60.47	4.0
60.485	5.0
60.5	2.0
60.515	5.0
60.53	9.0
60.545	8.0
60.56	7.0
60.575	7.0
60.59	12.0
60.605	9.0
60.62	5.0
60.635	4.0
60.65	4.0
60.665	4.0
60.68	8.0
60.695	3.0
60.71	5.0
60.725	5.0
60.74	4.0
60.755	5.0
60.77	7.0
60.785	7.0
60.8	3.0
60.815	5.0
60.83	2.0
60.845	1.0
60.86	3.0
60.875	3.0
60.89	8.0
60.905	7.0
60.92	9.0
60.935	5.0
60.95	3.0
60.965	4.0
60.98	6.0
60.995	7.0
61.01	4.0
61.025	3.0
61.04	2.0
61.055	7.0
61.07	6.0
61.085	2.0
61.1	1.0
61.115	4.0
61.13	5.0
61.145	6.0
61.16	5.0
61.175	5.0
61.191	6.0
61.206	6.0
61.221	1.0
61.236	3.0
61.251	1.0
61.266	7.0
61.281	5.0
61.296	2.0
61.311	3.0
61.326	4.0
61.341	5.0
61.356	3.0
61.371	2.0
61.386	1.0
61.401	4.0
61.416	6.0
61.431	4.0
61.446	3.0
61.461	2.0
61.476	6.0
61.491	10.0
61.506	9.0
61.521	8.0
61.536	8.0
61.551	7.0
61.566	2.0
61.581	3.0
61.596	14.0
61.611	4.0
61.626	5.0
61.641	4.0
61.656	4.0
61.672	7.0
61.687	2.0
61.702	5.0
61.717	4.0
61.732	3.0
61.747	5.0
61.762	6.0
61.777	4.0
61.792	3.0
61.807	2.0
61.822	2.0
61.837	6.0
61.852	2.0
61.867	7.0
61.882	4.0
61.897	4.0
61.912	11.0
61.927	3.0
61.943	3.0
61.958	3.0
61.973	6.0
61.988	7.0
62.003	5.0
62.018	6.0
62.033	1.0
62.048	5.0
62.063	4.0
62.078	5.0
62.093	7.0
62.108	3.0
62.123	2.0
62.138	4.0
62.153	4.0
62.169	2.0
62.184	4.0
62.199	5.0
62.214	4.0
62.229	6.0
62.244	8.0
62.259	1.0
62.274	4.0
62.289	6.0
62.304	7.0
62.319	4.0
62.335	7.0
62.35	5.0
62.365	4.0
62.38	1.0
62.395	1.0
62.41	4.0
62.425	3.0
62.44	5.0
62.455	3.0
62.47	8.0
62.485	5.0
62.501	5.0
62.516	8.0
62.531	7.0
62.546	8.0
62.561	3.0
62.576	4.0
62.591	9.0
62.606	3.0
62.621	5.0
62.636	3.0
62.652	2.0
62.667	5.0
62.682	5.0
62.697	4.0
62.712	6.0
62.727	4.0
62.742	3.0
62.757	4.0
62.772	6.0
62.787	5.0
62.803	1.0
62.818	4.0
62.833	3.0
62.848	10.0
62.863	5.0
62.878	4.0
62.893	3.0
62.908	1.0
62.923	5.0
62.939	4.0
62.954	5.0
62.969	2.0
62.984	4.0
62.999	3.0
63.014	8.0
63.029	4.0
63.044	2.0
63.059	5.0
63.074	4.0
63.09	5.0
63.105	6.0
63.12	1.0
63.135	3.0
63.15	3.0
63.165	2.0
63.18	0.0
63.195	5.0
63.21	3.0
63.226	4.0
63.241	3.0
63.256	4.0
63.271	4.0
63.286	4.0
63.301	6.0
63.316	8.0
63.331	2.0
63.346	5.0
63.362	7.0
63.377	5.0
63.392	5.0
63.407	6.0
63.422	11.0
63.437	4.0
63.452	5.0
63.467	11.0
63.482	4.0
63.497	7.0
63.513	5.0
63.528	3.0
63.543	3.0
63.558	7.0
63.573	1.0
63.588	4.0
63.603	3.0
63.618	5.0
63.633	3.0
63.648	12.0
63.664	3.0
63.679	6.0
63.694	1.0
63.709	9.0
63.724	4.0
63.739	4.0
63.754	8.0
63.769	5.0
63.784	5.0
63.799	7.0
63.814	6.0
63.83	8.0
63.845	5.0
63.86	4.0
63.875	3.0
63.89	6.0
63.905	6.0
63.92	5.0
63.935	3.0
63.95	4.0
63.965	4.0
63.98	3.0
63.996	6.0
64.011	4.0
64.026	3.0
64.041	3.0
64.056	6.0
64.071	4.0
64.086	3.0
64.101	1.0
64.116	6.0
64.131	4.0
64.146	7.0
64.161	6.0
64.176	2.0
64.191	1.0
64.207	4.0
64.222	2.0
64.237	3.0
64.252	5.0
64.267	3.0
64.282	1.0
64.297	0.0
64.312	2.0
64.327	3.0
64.342	2.0
64.357	4.0
64.372	1.0
64.387	1.0
64.402	2.0
64.417	4.0
64.433	1.0
64.448	6.0
64.463	6.0
64.478	6.0
64.493	7.0
64.508	4.0
64.523	5.0
64.538	6.0
64.553	3.0
64.568	3.0
64.583	7.0
64.598	5.0
64.613	5.0
64.628	5.0
64.643	1.0
64.658	4.0
64.673	1.0
64.688	5.0
64.703	3.0
64.718	4.0
64.734	5.0
64.749	5.0
64.764	4.0
64.779	2.0
64.794	2.0
64.809	2.0
64.824	6.0
64.839	2.0
64.854	3.0
64.869	5.0
64.884	2.0
64.899	3.0
64.914	5.0
64.929	4.0
64.944	2.0
64.959	1.0
64.974	2.0
64.989	5.0
65.004	6.0
65.019	3.0
65.034	6.0
65.049	3.0
65.064	5.0
65.079	3.0
65.094	4.0
65.109	1.0
65.125	8.0
65.14	4.0
65.155	4.0
65.17	4.0
65.185	2.0
65.2	4.0
65.215	0.0
65.23	4.0
65.245	11.0
65.26	6.0
65.275	4.0
65.29	7.0
65.305	8.0
65.32	6.0
65.335	2.0
65.35	2.0
65.365	3.0
65.38	6.0
65.395	4.0
65.41	7.0
65.425	0.0
65.44	4.0
65.455	6.0
65.47	5.0
65.485	2.0
65.5	2.0
65.515	3.0
65.53	2.0
65.545	2.0
65.56	5.0
65.575	5.0
65.59	4.0
65.605	3.0
65.62	2.0
65.635	1.0
65.65	5.0
65.666	4.0
65.681	9.0
65.696	5.0
65.711	6.0
65.726	6.0
65.741	6.0
65.756	9.0
65.771	4.0
65.786	3.0
65.801	4.0
65.816	5.0
65.831	5.0
65.846	3.0
65.861	6.0
65.876	4.0
65.891	9.0
65.906	2.0
65.921	5.0
65.936	2.0
65.951	2.0
65.966	0.0
65.981	3.0
65.996	2.0
66.011	5.0
66.026	7.0
66.041	4.0
66.056	4.0
66.071	5.0
66.086	6.0
66.101	2.0
66.116	6.0
66.131	10.0
66.146	8.0
66.161	3.0
66.176	8.0
66.191	6.0
66.206	16.0
66.221	4.0
66.236	5.0
66.251	3.0
66.266	8.0
66.281	3.0
66.296	4.0
66.311	7.0
66.327	4.0
66.342	6.0
66.357	0.0
66.372	4.0
66.387	2.0
66.402	1.0
66.417	7.0
66.432	5.0
66.447	6.0
66.462	8.0
66.477	5.0
66.492	3.0
66.507	9.0
66.522	8.0
66.537	5.0
66.552	5.0
66.567	5.0
66.582	9.0
66.597	9.0
66.612	6.0
66.627	5.0
66.642	1.0
66.657	6.0
66.672	10.0
66.687	3.0
66.702	8.0
66.717	2.0
66.732	6.0
66.747	4.0
66.762	2.0
66.777	2.0
66.792	7.0
66.807	6.0
66.822	2.0
66.837	2.0
66.853	3.0
66.868	5.0
66.883	1.0
66.898	3.0
66.913	5.0
66.928	3.0
66.943	3.0
66.958	3.0
66.973	6.0
66.988	8.0
67.003	5.0
67.018	7.0
67.033	4.0
67.048	3.0
67.063	4.0
67.078	2.0
67.093	2.0
67.108	8.0
67.123	4.0
67.138	6.0
67.153	4.0
67.168	6.0
67.183	2.0
67.198	3.0
67.214	2.0
67.229	6.0
67.244	2.0
67.259	4.0
67.274	7.0
67.289	8.0
67.304	2.0
67.319	6.0
67.334	2.0
67.349	4.0
67.364	3.0
67.379	2.0
67.394	4.0
67.409	3.0
67.424	5.0
67.439	1.0
67.454	4.0
67.469	4.0
67.484	4.0
67.5	5.0
67.515	4.0
67.53	6.0
67.545	2.0
67.56	1.0
67.575	4.0
67.59	12.0
67.605	3.0
67.62	3.0
67.635	7.0
67.65	1.0
67.665	6.0
67.68	3.0
67.695	9.0
67.71	4.0
67.726	3.0
67.741	5.0
67.756	1.0
67.771	2.0
67.786	1.0
67.801	4.0
67.816	5.0
67.831	2.0
67.846	3.0
67.861	8.0
67.876	2.0
67.891	4.0
67.906	2.0
67.922	3.0
67.937	2.0
67.952	6.0
67.967	5.0
67.982	4.0
67.997	3.0
68.012	3.0
68.027	8.0
68.042	5.0
68.057	2.0
68.072	6.0
68.087	3.0
68.103	2.0
68.118	3.0
68.133	2.0
68.148	3.0
68.163	3.0
68.178	3.0
68.193	6.0
68.208	4.0
68.223	2.0
68.238	4.0
68.254	2.0
68.269	2.0
68.284	2.0
68.299	10.0
68.314	2.0
68.329	4.0
68.344	6.0
68.359	2.0
68.374	4.0
68.389	4.0
68.405	1.0
68.42	6.0
68.435	7.0
68.45	1.0
68.465	1.0
68.48	4.0
68.495	1.0
68.51	3.0
68.525	2.0
68.54	2.0
68.556	1.0
68.571	1.0
68.586	1.0
68.601	2.0
68.616	2.0
68.631	2.0
68.646	2.0
68.661	4.0
68.676	4.0
68.691	3.0
68.707	3.0
68.722	0.0
68.737	2.0
68.752	4.0
68.767	3.0
68.782	3.0
68.797	3.0
68.812	4.0
68.827	1.0
68.842	4.0
68.857	5.0
68.873	5.0
68.888	2.0
68.903	3.0
68.918	2.0
68.933	6.0
68.948	3.0
68.963	9.0
68.978	2.0
68.993	1.0
69.008	4.0
69.023	1.0
69.038	2.0
69.054	4.0
69.069	6.0
69.084	4.0
69.099	9.0
69.114	3.0
69.129	2.0
69.144	5.0
69.159	3.0
69.174	5.0
69.189	4.0
69.204	3.0
69.219	2.0
69.234	2.0
69.249	4.0
69.264	3.0
69.279	3.0
69.295	3.0
69.31	6.0
69.325	4.0
69.34	6.0
69.355	5.0
69.37	2.0
69.385	6.0
69.4	5.0
69.415	2.0
69.43	4.0
69.445	0.0
69.46	4.0
69.475	3.0
69.49	4.0
69.505	1.0
69.52	4.0
69.535	5.0
69.55	3.0
69.565	1.0
69.58	5.0
69.595	6.0
69.61	6.0
69.625	3.0
69.64	1.0
69.655	2.0
69.67	5.0
69.685	4.0
69.7	11.0
69.715	6.0
69.73	11.0
69.745	1.0
69.76	4.0
69.775	3.0
69.79	10.0
69.805	8.0
69.82	8.0
69.835	7.0
69.85	4.0
69.865	3.0
69.88	3.0
69.895	7.0
69.909	5.0
69.924	4.0
69.939	0.0
69.954	5.0
69.969	7.0
69.984	2.0
69.999	3.0
70.014	2.0
70.029	3.0
70.044	3.0
70.059	2.0
70.074	1.0
70.088	3.0
70.103	5.0
70.118	2.0
70.133	7.0
70.148	0.0
70.163	6.0
70.178	0.0
70.193	1.0
70.208	5.0
70.222	2.0
70.237	9.0
70.252	7.0
70.267	6.0
70.282	1.0
70.297	1.0
70.312	4.0
70.327	3.0
70.341	5.0
70.356	7.0
70.371	3.0
70.386	2.0
70.401	3.0
70.416	6.0
70.43	2.0
70.445	3.0
70.46	4.0
70.475	2.0
70.49	4.0
70.505	6.0
70.519	4.0
70.534	3.0
70.549	2.0
70.564	1.0
70.579	4.0
70.594	6.0
70.608	5.0
70.623	6.0
70.638	3.0
70.653	3.0
70.668	2.0
70.683	1.0
70.697	3.0
70.712	4.0
70.727	4.0
70.742	5.0
70.757	3.0
70.771	4.0
70.786	1.0
70.801	5.0
70.816	3.0
70.831	1.0
70.845	2.0
70.86	3.0
70.875	1.0
70.89	3.0
70.905	4.0
70.92	3.0
70.934	4.0
70.949	3.0
70.964	3.0
70.979	7.0
70.994	3.0
71.008	1.0
71.023	4.0
71.038	0.0
71.053	5.0
71.068	1.0
71.082	3.0
71.097	2.0
71.112	7.0
71.127	8.0
71.142	7.0
71.156	8.0
71.171	6.0
71.186	3.0
71.201	7.0
71.216	7.0
71.231	7.0
71.245	4.0
71.26	1.0
71.275	10.0
71.29	8.0
71.305	1.0
71.319	6.0
71.334	5.0
71.349	6.0
71.364	7.0
71.379	4.0
71.394	4.0
71.408	1.0
71.423	3.0
71.438	1.0
71.453	2.0
71.468	1.0
71.483	3.0
71.497	4.0
71.512	2.0
71.527	3.0
71.542	2.0
71.557	6.0
71.572	8.0
71.586	2.0
71.601	2.0
71.616	5.0
71.631	3.0
71.646	1.0
71.661	1.0
71.676	5.0
71.69	0.0
71.705	4.0
71.72	3.0
71.735	1.0
71.75	3.0
71.765	6.0
71.78	4.0
71.795	3.0
71.81	2.0
71.824	3.0
71.839	1.0
71.854	3.0
71.869	1.0
71.884	1.0
71.899	3.0
71.914	5.0
71.929	6.0
71.944	2.0
71.959	3.0
71.974	2.0
71.988	4.0
72.003	5.0
72.018	5.0
72.033	4.0
72.048	7.0
72.063	4.0
72.078	4.0
72.093	1.0
72.108	3.0
72.123	3.0
72.138	4.0
72.153	4.0
72.168	2.0
72.183	4.0
72.198	3.0
72.213	4.0
72.228	2.0
72.243	1.0
72.258	2.0
72.273	2.0
72.288	5.0
72.303	1.0
72.318	4.0
72.333	4.0
72.348	3.0
72.363	5.0
72.378	5.0
72.393	3.0
72.408	4.0
72.423	4.0
72.438	6.0
72.453	7.0
72.468	3.0
72.483	3.0
72.498	3.0
72.513	4.0
72.528	4.0
72.543	5.0
72.558	3.0
72.573	2.0
72.588	4.0
72.603	1.0
72.618	4.0
72.633	1.0
72.649	2.0
72.664	4.0
72.679	4.0
72.694	1.0
72.709	2.0
72.724	6.0
72.739	5.0
72.754	5.0
72.769	4.0
72.784	6.0
72.799	4.0
72.814	4.0
72.829	1.0
72.845	2.0
72.86	3.0
72.875	0.0
72.89	3.0
72.905	5.0
72.92	6.0
72.935	5.0
72.95	5.0
72.965	2.0
72.98	3.0
72.996	3.0
73.011	2.0
73.026	4.0
73.041	3.0
73.056	4.0
73.071	1.0
73.086	3.0
73.101	4.0
73.117	3.0
73.132	8.0
73.147	2.0
73.162	5.0
73.177	3.0
73.192	2.0
73.207	1.0
73.222	7.0
73.238	2.0
73.253	6.0
73.268	5.0
73.283	2.0
73.298	6.0
73.313	5.0
73.328	3.0
73.343	7.0
73.359	2.0
73.374	4.0
73.389	5.0
73.404	0.0
73.419	4.0
73.434	1.0
73.449	3.0
73.465	1.0
73.48	4.0
73.495	3.0
73.51	7.0
73.525	6.0
73.54	3.0
73.556	6.0
73.571	3.0
73.586	1.0
73.601	0.0
73.616	3.0
73.631	1.0
73.646	3.0
73.662	6.0
73.677	4.0
73.692	1.0
73.707	7.0
73.722	8.0
73.737	3.0
73.752	4.0
73.768	5.0
73.783	4.0
73.798	5.0
73.813	3.0
73.828	4.0
73.843	4.0
73.859	2.0
73.874	6.0
73.889	4.0
73.904	3.0
73.919	5.0
73.934	4.0
73.949	3.0
73.965	1.0
73.98	5.0
73.995	4.0
74.01	6.0
74.025	2.0
74.04	3.0
74.056	2.0
74.071	5.0
74.086	9.0
74.101	2.0
74.116	3.0
74.131	6.0
74.146	5.0
74.162	4.0
74.177	6.0
74.192	2.0
74.207	9.0
74.222	4.0
74.237	4.0
74.252	4.0
74.268	11.0
74.283	2.0
74.298	2.0
74.313	5.0
74.328	4.0
74.343	5.0
74.358	4.0
74.374	3.0
74.389	2.0
74.404	3.0
74.419	5.0
74.434	3.0
74.449	4.0
74.464	6.0
74.48	5.0
74.495	4.0
74.51	3.0
74.525	6.0
74.54	8.0
74.555	0.0
74.57	4.0
74.586	4.0
74.601	4.0
74.616	3.0
74.631	6.0
74.646	4.0
74.661	4.0
74.676	6.0
74.691	3.0
74.707	8.0
74.722	4.0
74.737	7.0
74.752	2.0
74.767	2.0
74.782	3.0
74.797	1.0
74.813	5.0
74.828	2.0
74.843	3.0
74.858	4.0
74.873	4.0
74.888	7.0
74.903	5.0
74.918	2.0
74.934	1.0
74.949	4.0
74.964	1.0
74.979	2.0
74.994	3.0
75.009	4.0
75.024	2.0
75.04	3.0
75.055	3.0
75.07	4.0
75.085	1.0
75.1	4.0
75.115	4.0
75.13	5.0
75.145	8.0
75.161	6.0
75.176	3.0
75.191	1.0
75.206	0.0
75.221	3.0
75.236	3.0
75.251	4.0
75.266	1.0
75.282	3.0
75.297	4.0
75.312	3.0
75.327	1.0
75.342	1.0
75.357	3.0
75.372	3.0
75.387	8.0
75.403	4.0
75.418	5.0
75.433	0.0
75.448	5.0
75.463	1.0
75.478	1.0
75.493	4.0
75.509	2.0
75.524	4.0
75.539	4.0
75.554	0.0
75.569	5.0
75.584	2.0
75.599	1.0
75.614	8.0
75.63	5.0
75.645	4.0
75.66	5.0
75.675	3.0
75.69	1.0
75.705	1.0
75.72	1.0
75.735	6.0
75.751	1.0
75.766	6.0
75.781	1.0
75.796	3.0
75.811	3.0
75.826	1.0
75.841	2.0
75.856	4.0
75.872	4.0
75.887	4.0
75.902	3.0
75.917	4.0
75.932	4.0
75.947	4.0
75.962	3.0
75.977	1.0
75.993	3.0
76.008	2.0
76.023	1.0
76.038	4.0
76.053	1.0
76.068	4.0
76.083	6.0
76.098	2.0
76.114	2.0
76.129	2.0
76.144	2.0
76.159	2.0
76.174	6.0
76.189	5.0
76.204	7.0
76.22	3.0
76.235	5.0
76.25	2.0
76.265	2.0
76.28	4.0
76.295	5.0
76.31	2.0
76.325	2.0
76.341	1.0
76.356	3.0
76.371	3.0
76.386	3.0
76.401	3.0
76.416	6.0
76.431	3.0
76.446	3.0
76.462	3.0
76.477	1.0
76.492	1.0
76.507	3.0
76.522	1.0
76.537	6.0
76.552	5.0
76.567	4.0
76.583	2.0
76.598	2.0
76.613	2.0
76.628	4.0
76.643	1.0
76.658	3.0
76.673	3.0
76.688	3.0
76.704	1.0
76.719	4.0
76.734	1.0
76.749	6.0
76.764	7.0
76.779	2.0
76.794	6.0
76.809	4.0
76.824	3.0
76.84	4.0
76.855	6.0
76.87	4.0
76.885	1.0
76.9	3.0
76.915	4.0
76.93	4.0
76.945	4.0
76.96	8.0
76.976	4.0
76.991	3.0
77.006	3.0
77.021	3.0
77.036	3.0
77.051	1.0
77.066	2.0
77.081	4.0
77.096	3.0
77.112	3.0
77.127	6.0
77.142	2.0
77.157	4.0
77.172	3.0
77.187	3.0
77.202	3.0
77.217	7.0
77.232	2.0
77.247	3.0
77.263	2.0
77.278	5.0
77.293	5.0
77.308	2.0
77.323	6.0
77.338	9.0
77.353	4.0
77.368	6.0
77.383	2.0
77.398	2.0
77.413	3.0
77.428	2.0
77.444	4.0
77.459	0.0
77.474	3.0
77.489	2.0
77.504	10.0
77.519	0.0
77.534	3.0
77.549	5.0
77.564	5.0
77.579	2.0
77.594	5.0
77.609	9.0
77.624	6.0
77.64	3.0
77.655	6.0
77.67	7.0
77.685	5.0
77.7	5.0
77.715	3.0
77.73	4.0
77.745	4.0
77.76	2.0
77.775	5.0
77.79	1.0
77.805	4.0
77.82	2.0
77.835	4.0
77.85	4.0
77.865	6.0
77.88	4.0
77.895	2.0
77.91	3.0
77.926	2.0
77.941	3.0
77.956	6.0
77.971	4.0
77.986	2.0
78.001	1.0
78.016	4.0
78.031	3.0
78.046	2.0
78.061	2.0
78.076	0.0
78.091	3.0
78.106	3.0
78.121	3.0
78.136	4.0
78.151	3.0
78.166	8.0
78.181	4.0
78.196	8.0
78.211	9.0
78.226	4.0
78.241	4.0
78.256	5.0
78.271	5.0
78.286	2.0
78.301	3.0
78.316	2.0
78.331	5.0
78.346	4.0
78.361	2.0
78.376	4.0
78.391	4.0
78.406	2.0
78.421	3.0
78.436	5.0
78.451	5.0
78.466	5.0
78.481	3.0
78.496	2.0
78.511	5.0
78.526	5.0
78.541	5.0
78.556	2.0
78.571	7.0
78.586	2.0
78.601	5.0
78.616	5.0
78.631	2.0
78.646	3.0
78.661	1.0
78.676	2.0
78.691	2.0
78.706	4.0
78.721	1.0
78.736	7.0
78.751	1.0
78.766	4.0
78.781	4.0
78.796	5.0
78.811	1.0
78.826	2.0
78.841	3.0
78.856	2.0
78.871	2.0
78.885	4.0
78.9	2.0
78.915	2.0
78.93	3.0
78.945	2.0
78.96	6.0
78.975	2.0
78.99	1.0
79.005	3.0
79.02	1.0
79.035	3.0
79.05	7.0
79.065	3.0
79.08	5.0
79.095	3.0
79.11	1.0
79.125	2.0
79.14	0.0
79.155	1.0
79.17	3.0
79.185	3.0
79.2	2.0
79.215	1.0
79.23	4.0
79.245	5.0
79.26	1.0
79.275	7.0
79.29	4.0
79.304	2.0
79.319	2.0
79.334	4.0
79.349	6.0
79.364	3.0
79.379	6.0
79.394	2.0
79.409	4.0
79.424	3.0
79.439	2.0
79.454	5.0
79.469	5.0
79.484	3.0
79.499	2.0
79.514	0.0
79.529	4.0
79.544	6.0
79.559	1.0
79.574	2.0
79.589	1.0
79.604	4.0
79.619	4.0
79.634	0.0
79.649	5.0
79.664	5.0
79.679	5.0
79.693	7.0
79.708	2.0
79.723	3.0
79.738	4.0
79.753	2.0
79.768	4.0
79.783	5.0
79.798	5.0
79.813	2.0
79.828	1.0
79.843	2.0
79.858	0.0
79.873	7.0
79.888	0.0
79.903	1.0
79.918	3.0
79.933	1.0
79.948	3.0
79.963	2.0
79.978	7.0
79.993	4.0
80.008	3.0
80.023	4.0
80.038	0.0
80.053	3.0
80.068	0.0
80.083	3.0
80.098	3.0
80.113	9.0
80.128	4.0
80.143	2.0
80.158	2.0
80.173	3.0
80.188	5.0
80.202	3.0
80.217	4.0
80.232	3.0
80.247	4.0
80.262	1.0
80.277	3.0
80.292	3.0
80.307	2.0
80.322	4.0
80.337	2.0
80.352	3.0
80.367	3.0
80.382	2.0
80.397	4.0
80.412	3.0
80.427	5.0
80.442	3.0
80.457	4.0
80.472	3.0
80.487	4.0
80.502	2.0
80.517	2.0
80.532	4.0
80.547	4.0
80.562	7.0
80.577	1.0
80.592	4.0
80.607	3.0
80.622	1.0
80.637	0.0
80.652	6.0
80.667	5.0
80.682	3.0
80.697	4.0
80.712	4.0
80.727	9.0
80.742	2.0
80.757	3.0
80.772	4.0
80.787	2.0
80.802	5.0
80.817	3.0
80.832	3.0
80.847	3.0
80.862	0.0
80.877	2.0
80.892	1.0
80.907	1.0
80.922	0.0
80.937	2.0
80.952	2.0
80.967	2.0
80.982	4.0
80.997	6.0
81.012	5.0
81.027	7.0
81.042	3.0
81.057	5.0
81.072	3.0
81.087	3.0
81.101	2.0
81.116	2.0
81.131	1.0
81.146	1.0
81.161	0.0
81.176	0.0
81.191	5.0
81.206	1.0
81.221	3.0
81.236	0.0
81.251	1.0
81.266	2.0
81.281	4.0
81.296	1.0
81.311	5.0
81.326	5.0
81.341	1.0
81.356	6.0
81.371	3.0
81.386	6.0
81.401	4.0
81.416	1.0
81.431	3.0
81.446	4.0
81.461	3.0
81.476	4.0
81.491	1.0
81.506	3.0
81.521	4.0
81.536	2.0
81.55	2.0
81.565	4.0
81.58	3.0
81.595	2.0
81.61	2.0
81.625	2.0
81.64	1.0
81.655	5.0
81.67	3.0
81.685	9.0
81.7	3.0
81.715	2.0
81.73	2.0
81.745	1.0
81.76	2.0
81.775	3.0
81.79	10.0
81.805	5.0
81.819	5.0
81.834	3.0
81.849	6.0
81.864	4.0
81.879	5.0
81.894	2.0
81.909	7.0
81.924	6.0
81.939	4.0
81.954	2.0
81.969	2.0
81.984	2.0
81.999	4.0
82.013	4.0
82.028	5.0
82.043	2.0
82.058	1.0
82.073	5.0
82.088	2.0
82.103	2.0
82.118	5.0
82.133	4.0
82.148	3.0
82.163	5.0
82.177	0.0
82.192	3.0
82.207	1.0
82.222	3.0
82.237	5.0
82.252	2.0
82.267	3.0
82.282	4.0
82.297	2.0
82.312	4.0
82.326	1.0
82.341	1.0
82.356	4.0
82.371	4.0
82.386	3.0
82.401	1.0
82.416	1.0
82.431	3.0
82.445	3.0
82.46	4.0
82.475	4.0
82.49	2.0
82.505	4.0
82.52	3.0
82.535	4.0
82.55	5.0
82.565	3.0
82.579	1.0
82.594	3.0
82.609	2.0
82.624	2.0
82.639	2.0
82.654	2.0
82.669	6.0
82.684	2.0
82.698	1.0
82.713	2.0
82.728	4.0
82.743	2.0
82.758	2.0
82.773	1.0
82.788	6.0
82.803	4.0
82.817	6.0
82.832	1.0
82.847	2.0
82.862	3.0
82.877	3.0
82.892	2.0
82.907	2.0
82.922	4.0
82.937	3.0
82.951	2.0
82.966	4.0
82.981	4.0
82.996	3.0
83.011	5.0
83.026	2.0
83.041	1.0
83.056	3.0
83.07	3.0
83.085	4.0
83.1	2.0
83.115	7.0
83.13	1.0
83.145	4.0
83.16	1.0
83.175	3.0
83.19	6.0
83.204	3.0
83.219	3.0
83.234	3.0
83.249	2.0
83.264	2.0
83.279	3.0
83.294	1.0
83.309	3.0
83.324	4.0
83.339	2.0
83.353	4.0
83.368	6.0
83.383	1.0
83.398	3.0
83.413	6.0
83.428	2.0
83.443	3.0
83.458	3.0
83.473	3.0
83.488	1.0
83.503	5.0
83.517	3.0
83.532	1.0
83.547	0.0
83.562	6.0
83.577	7.0
83.592	2.0
83.607	4.0
83.622	2.0
83.637	3.0
83.652	1.0
83.667	2.0
83.682	2.0
83.697	2.0
83.712	1.0
83.727	2.0
83.741	4.0
83.756	4.0
83.771	3.0
83.786	1.0
83.801	1.0
83.816	4.0
83.831	3.0
83.846	5.0
83.861	6.0
83.876	1.0
83.891	4.0
83.906	6.0
83.921	0.0
83.936	6.0
83.951	5.0
83.966	4.0
83.981	0.0
83.996	2.0
84.011	2.0
84.026	1.0
84.041	7.0
84.056	5.0
84.071	3.0
84.086	3.0
84.101	8.0
84.116	2.0
84.131	3.0
84.146	1.0
84.161	1.0
84.176	3.0
84.191	7.0
84.206	4.0
84.221	1.0
84.236	7.0
84.251	7.0
84.266	6.0
84.281	2.0
84.296	3.0
84.311	2.0
84.326	10.0
84.341	3.0
84.356	1.0
84.371	3.0
84.386	5.0
84.401	5.0
84.416	6.0
84.431	5.0
84.446	4.0
84.461	6.0
84.476	2.0
84.492	5.0
84.507	2.0
84.522	5.0
84.537	3.0
84.552	4.0
84.567	2.0
84.582	4.0
84.597	5.0
84.612	0.0
84.627	4.0
84.642	2.0
84.657	2.0
84.672	4.0
84.687	4.0
84.702	5.0
84.717	5.0
84.733	3.0
84.748	3.0
84.763	3.0
84.778	4.0
84.793	1.0
84.808	5.0
84.823	3.0
84.838	3.0
84.853	3.0
84.868	6.0
84.883	1.0
84.898	3.0
84.913	5.0
84.929	3.0
84.944	4.0
84.959	5.0
84.974	3.0
84.989	2.0
85.004	4.0
85.019	2.0
85.034	5.0
85.049	9.0
85.064	7.0
85.079	4.0
85.094	1.0
85.11	2.0
85.125	2.0
85.14	5.0
85.155	2.0
85.17	3.0
85.185	3.0
85.2	2.0
85.215	4.0
85.23	1.0
85.245	3.0
85.26	2.0
85.276	1.0
85.291	4.0
85.306	4.0
85.321	3.0
85.336	2.0
85.351	1.0
85.366	3.0
85.381	5.0
85.396	6.0
85.411	3.0
85.426	1.0
85.441	1.0
85.457	3.0
85.472	4.0
85.487	2.0
85.502	4.0
85.517	1.0
85.532	4.0
85.547	2.0
85.562	1.0
85.577	2.0
85.592	3.0
85.607	2.0
85.622	1.0
85.637	0.0
85.653	2.0
85.668	5.0
85.683	2.0
85.698	2.0
85.713	7.0
85.728	5.0
85.743	0.0
85.758	3.0
85.773	3.0
85.788	3.0
85.803	2.0
85.818	4.0
85.833	0.0
85.848	7.0
85.863	1.0
85.879	4.0
85.894	0.0
85.909	3.0
85.924	4.0
85.939	2.0
85.954	1.0
85.969	2.0
85.984	3.0
85.999	2.0
86.014	2.0
86.029	3.0
86.044	2.0
86.059	4.0
86.074	0.0
86.089	3.0
86.104	2.0
86.119	3.0
86.134	3.0
86.149	3.0
86.164	6.0
86.179	2.0
86.194	3.0
86.209	5.0
86.224	4.0
86.239	1.0
86.254	5.0
86.269	5.0
86.284	1.0
86.299	1.0
86.314	1.0
86.33	2.0
86.345	0.0
86.36	2.0
86.375	4.0
86.39	4.0
86.405	6.0
86.42	4.0
86.435	2.0
86.45	4.0
86.465	2.0
86.48	3.0
86.495	1.0
86.51	2.0
86.525	1.0
86.54	5.0
86.555	0.0
86.57	6.0
86.585	2.0
86.6	3.0
86.615	4.0
86.63	3.0
86.645	2.0
86.659	2.0
86.674	5.0
86.689	0.0
86.704	4.0
86.719	2.0
86.734	2.0
86.749	1.0
86.764	3.0
86.779	4.0
86.794	0.0
86.809	5.0
86.824	3.0
86.839	3.0
86.854	11.0
86.869	7.0
86.884	4.0
86.899	2.0
86.914	4.0
86.929	3.0
86.944	3.0
86.959	1.0
86.974	5.0
86.989	6.0
87.004	1.0
87.019	5.0
87.034	3.0
87.049	3.0
87.064	3.0
87.079	5.0
87.094	2.0
87.109	3.0
87.124	4.0
87.139	0.0
87.154	4.0
87.169	1.0
87.184	1.0
87.199	4.0
87.214	2.0
87.229	5.0
87.244	6.0
87.259	1.0
87.274	2.0
87.289	2.0
87.304	1.0
87.319	5.0
87.334	4.0
87.349	1.0
87.364	3.0
87.379	2.0
87.394	2.0
87.409	2.0
87.424	2.0
87.438	5.0
87.453	5.0
87.468	3.0
87.483	9.0
87.498	7.0
87.513	3.0
87.528	2.0
87.543	3.0
87.558	3.0
87.573	6.0
87.588	4.0
87.603	9.0
87.618	7.0
87.633	5.0
87.648	1.0
87.663	4.0
87.678	4.0
87.693	1.0
87.708	5.0
87.723	2.0
87.738	2.0
87.753	3.0
87.768	3.0
87.783	2.0
87.798	3.0
87.813	6.0
87.828	3.0
87.843	2.0
87.858	5.0
87.873	3.0
87.888	1.0
87.903	0.0
87.918	3.0
87.933	3.0
87.948	6.0
87.963	2.0
87.978	3.0
87.993	5.0
88.008	3.0
88.023	4.0
88.038	1.0
88.053	5.0
88.068	4.0
88.083	5.0
88.098	7.0
88.113	4.0
88.128	3.0
88.143	3.0
88.158	1.0
88.174	5.0
88.189	2.0
88.204	2.0
88.219	5.0
88.234	1.0
88.249	3.0
88.264	4.0
88.279	3.0
88.294	4.0
88.309	3.0
88.324	3.0
88.339	0.0
88.354	5.0
88.369	5.0
88.384	6.0
88.399	4.0
88.414	1.0
88.429	2.0
88.444	1.0
88.459	7.0
88.474	7.0
88.489	2.0
88.504	5.0
88.519	1.0
88.534	3.0
88.549	2.0
88.564	5.0
88.58	2.0
88.595	6.0
88.61	3.0
88.625	5.0
88.64	1.0
88.655	10.0
88.67	4.0
88.685	4.0
88.7	4.0
88.715	3.0
88.73	3.0
88.745	3.0
88.76	3.0
88.775	1.0
88.79	6.0
88.805	0.0
88.82	0.0
88.835	0.0
88.85	1.0
88.865	3.0
88.88	3.0
88.895	2.0
88.911	1.0
88.926	4.0
88.941	0.0
88.956	5.0
88.971	4.0
88.986	3.0
89.001	3.0
89.016	3.0
89.031	2.0
89.046	4.0
89.061	6.0
89.076	2.0
89.091	1.0
89.106	7.0
89.121	1.0
89.136	3.0
89.151	6.0
89.166	2.0
89.181	6.0
89.196	3.0
89.211	4.0
89.227	2.0
89.242	3.0
89.257	5.0
89.272	1.0
89.287	5.0
89.302	2.0
89.317	4.0
89.332	2.0
89.347	4.0
89.362	3.0
89.377	1.0
89.392	5.0
89.407	3.0
89.422	3.0
89.437	3.0
89.452	4.0
89.467	7.0
89.482	2.0
89.497	1.0
89.512	3.0
89.527	5.0
89.542	3.0
89.557	1.0
89.572	5.0
89.587	4.0
89.602	3.0
89.617	3.0
89.632	5.0
89.647	7.0
89.662	7.0
89.677	0.0
89.693	3.0
89.708	4.0
89.723	2.0
89.738	2.0
89.753	2.0
89.768	4.0
89.783	2.0
89.798	2.0
89.813	3.0
89.828	2.0
89.843	4.0
89.858	2.0
89.873	5.0
89.888	5.0
89.903	3.0
89.918	3.0
89.933	2.0
89.948	3.0
89.963	0.0
89.978	3.0
89.993	5.0
90.008	4.0
90.023	2.0
90.038	7.0
90.053	4.0
90.068	5.0
90.083	2.0
90.097	3.0
90.112	3.0
90.127	3.0
90.142	2.0
90.157	4.0
90.172	5.0
90.187	5.0
90.202	4.0
90.217	6.0
90.232	5.0
90.247	5.0
90.262	3.0
90.277	1.0
90.292	4.0
90.307	4.0
90.322	4.0
90.337	4.0
90.352	0.0
90.367	6.0
90.382	4.0
90.397	4.0
90.412	3.0
90.427	2.0
90.442	4.0
90.457	4.0
90.472	1.0
90.487	2.0
90.501	4.0
90.516	5.0
90.531	9.0
90.546	3.0
90.561	4.0
90.576	2.0
90.591	2.0
90.606	4.0
90.621	2.0
90.636	0.0
90.651	2.0
90.666	2.0
90.681	3.0
90.696	5.0
90.711	3.0
90.726	3.0
90.741	2.0
90.755	4.0
90.77	2.0
90.785	3.0
90.8	3.0
90.815	3.0
90.83	2.0
90.845	2.0
90.86	2.0
90.875	3.0
90.89	3.0
90.905	7.0
90.92	3.0
90.935	2.0
90.95	6.0
90.965	5.0
90.979	6.0
90.994	8.0
91.009	6.0
91.024	1.0
91.039	2.0
91.054	4.0
91.069	5.0
91.084	3.0
91.099	2.0
91.114	0.0
91.129	1.0
91.144	5.0
91.159	2.0
91.174	4.0
91.188	3.0
91.203	2.0
91.218	2.0
91.233	4.0
91.248	2.0
91.263	4.0
91.278	1.0
91.293	2.0
91.308	6.0
91.323	3.0
91.338	3.0
91.353	6.0
91.368	4.0
91.383	3.0
91.398	1.0
91.412	3.0
91.427	4.0
91.442	3.0
91.457	2.0
91.472	3.0
91.487	1.0
91.502	6.0
91.517	1.0
91.532	0.0
91.547	4.0
91.562	2.0
91.577	7.0
91.592	0.0
91.607	3.0
91.622	5.0
91.637	0.0
91.652	2.0
91.666	1.0
91.681	2.0
91.696	1.0
91.711	4.0
91.726	2.0
91.741	3.0
91.756	1.0
91.771	1.0
91.786	2.0
91.801	4.0
91.816	4.0
91.831	5.0
91.846	3.0
91.861	3.0
91.876	3.0
91.891	0.0
91.906	2.0
91.921	4.0
91.936	5.0
91.951	4.0
91.966	2.0
91.981	5.0
91.995	2.0
92.01	2.0
92.025	0.0
92.04	2.0
92.055	2.0
92.07	3.0
92.085	4.0
92.1	2.0
92.115	2.0
92.13	4.0
92.145	5.0
92.16	2.0
92.175	3.0
92.19	4.0
92.205	1.0
92.22	3.0
92.235	1.0
92.25	1.0
92.265	2.0
92.28	0.0
92.295	4.0
92.31	3.0
92.325	1.0
92.34	4.0
92.355	3.0
92.37	3.0
92.385	2.0
92.4	3.0
92.415	3.0
92.43	4.0
92.445	3.0
92.46	4.0
92.475	1.0
92.49	4.0
92.505	1.0
92.52	2.0
92.535	3.0
92.55	1.0
92.565	2.0
92.58	0.0
92.595	2.0
92.61	1.0
92.625	3.0
92.64	6.0
92.655	4.0
92.67	1.0
92.685	3.0
92.7	2.0
92.715	6.0
92.73	3.0
92.745	2.0
92.76	2.0
92.775	3.0
92.79	3.0
92.805	5.0
92.82	4.0
92.835	5.0
92.85	3.0
92.865	2.0
92.88	5.0
92.895	2.0
92.91	1.0
92.925	5.0
92.94	0.0
92.955	4.0
92.97	1.0
92.985	1.0
93.0	3.0
93.015	3.0
93.03	1.0
93.045	4.0
93.06	4.0
93.075	5.0
93.09	1.0
93.105	1.0
93.12	4.0
93.135	2.0
93.15	5.0
93.165	1.0
93.18	2.0
93.195	2.0
93.21	2.0
93.225	6.0
93.24	4.0
93.255	3.0
93.27	1.0
93.285	2.0
93.3	1.0
93.315	3.0
93.33	5.0
93.345	6.0
93.36	5.0
93.375	4.0
93.39	6.0
93.405	5.0
93.42	6.0
93.435	2.0
93.45	6.0
93.465	2.0
93.48	3.0
93.495	2.0
93.51	2.0
93.525	3.0
93.54	5.0
93.555	7.0
93.57	2.0
93.585	1.0
93.6	2.0
93.615	2.0
93.63	6.0
93.645	9.0
93.66	4.0
93.675	3.0
93.69	5.0
93.705	2.0
93.72	3.0
93.735	2.0
93.75	4.0
93.765	1.0
93.78	2.0
93.795	2.0
93.81	6.0
93.824	2.0
93.839	3.0
93.854	2.0
93.869	0.0
93.884	4.0
93.899	2.0
93.914	3.0
93.929	4.0
93.944	2.0
93.959	1.0
93.974	4.0
93.989	2.0
94.004	0.0
94.019	0.0
94.034	4.0
94.049	5.0
94.064	2.0
94.079	3.0
94.094	3.0
94.108	4.0
94.123	1.0
94.138	6.0
94.153	4.0
94.168	2.0
94.183	4.0
94.198	4.0
94.213	3.0
94.228	3.0
94.243	2.0
94.258	2.0
94.273	3.0
94.288	0.0
94.302	5.0
94.317	1.0
94.332	9.0
94.347	6.0
94.362	2.0
94.377	3.0
94.392	3.0
94.407	5.0
94.422	7.0
94.437	4.0
94.452	4.0
94.466	1.0
94.481	2.0
94.496	2.0
94.511	2.0
94.526	4.0
94.541	6.0
94.556	3.0
94.571	4.0
94.586	2.0
94.601	2.0
94.615	2.0
94.63	3.0
94.645	2.0
94.66	5.0
94.675	4.0
94.69	4.0
94.705	3.0
94.72	5.0
94.735	3.0
94.749	7.0
94.764	5.0
94.779	1.0
94.794	4.0
94.809	2.0
94.824	2.0
94.839	3.0
94.854	3.0
94.868	4.0
94.883	3.0
94.898	4.0
94.913	4.0
94.928	6.0
94.943	2.0
94.958	2.0
94.973	6.0
94.987	0.0
95.002	2.0
95.017	0.0
95.032	3.0
95.047	2.0
95.062	4.0
95.077	5.0
95.092	6.0
95.106	1.0
95.121	6.0
95.136	5.0
95.151	3.0
95.166	5.0
95.181	8.0
95.196	2.0
95.211	2.0
95.226	2.0
95.24	4.0
95.255	4.0
95.27	1.0
95.285	7.0
95.3	3.0
95.315	0.0
95.33	6.0
95.345	3.0
95.359	4.0
95.374	3.0
95.389	1.0
95.404	1.0
95.419	0.0
95.434	3.0
95.449	3.0
95.464	4.0
95.478	5.0
95.493	5.0
95.508	4.0
95.523	4.0
95.538	3.0
95.553	5.0
95.568	6.0
95.583	7.0
95.597	3.0
95.612	3.0
95.627	6.0
95.642	3.0
95.657	2.0
95.672	4.0
95.687	5.0
95.702	1.0
95.717	1.0
95.731	2.0
95.746	1.0
95.761	4.0
95.776	2.0
95.791	2.0
95.806	1.0
95.821	5.0
95.836	4.0
95.851	5.0
95.866	3.0
95.88	2.0
95.895	2.0
95.91	1.0
95.925	4.0
95.94	4.0
95.955	1.0
95.97	3.0
95.985	2.0
96.0	1.0
96.015	5.0
96.029	4.0
96.044	3.0
96.059	8.0
96.074	4.0
96.089	4.0
96.104	3.0
96.119	2.0
96.134	1.0
96.149	2.0
96.164	6.0
96.179	4.0
96.194	2.0
96.208	4.0
96.223	6.0
96.238	9.0
96.253	2.0
96.268	4.0
96.283	4.0
96.298	5.0
96.313	2.0
96.328	2.0
96.343	2.0
96.358	4.0
96.373	3.0
96.388	5.0
96.403	2.0
96.417	3.0
96.432	2.0
96.447	4.0
96.462	1.0
96.477	4.0
96.492	3.0
96.507	4.0
96.522	3.0
96.537	3.0
96.552	3.0
96.567	3.0
96.582	3.0
96.597	1.0
96.612	7.0
96.627	1.0
96.642	3.0
96.656	5.0
96.671	5.0
96.686	0.0
96.701	2.0
96.716	0.0
96.731	2.0
96.746	3.0
96.761	4.0
96.776	3.0
96.791	2.0
96.806	1.0
96.821	7.0
96.836	5.0
96.851	2.0
96.866	4.0
96.881	3.0
96.896	5.0
96.911	5.0
96.926	4.0
96.94	4.0
96.955	5.0
96.97	6.0
96.985	3.0
97.0	5.0
97.015	2.0
97.03	1.0
97.045	3.0
97.06	1.0
97.075	4.0
97.09	2.0
97.105	2.0
97.12	1.0
97.135	4.0
97.15	5.0
97.165	1.0
97.18	3.0
97.195	3.0
97.21	5.0
97.225	4.0
97.239	6.0
97.254	0.0
97.269	0.0
97.284	2.0
97.299	2.0
97.314	1.0
97.329	2.0
97.344	1.0
97.359	7.0
97.374	1.0
97.389	7.0
97.404	3.0
97.419	1.0
97.434	2.0
97.449	5.0
97.464	1.0
97.479	1.0
97.494	4.0
97.509	5.0
97.524	2.0
97.538	2.0
97.553	2.0
97.568	2.0
97.583	1.0
97.598	6.0
97.613	3.0
97.628	5.0
97.643	5.0
97.658	6.0
97.673	6.0
97.688	3.0
97.703	3.0
97.718	2.0
97.733	3.0
97.748	2.0
97.763	2.0
97.778	2.0
97.792	8.0
97.807	2.0
97.822	0.0
97.837	1.0
97.852	4.0
97.867	3.0
97.882	3.0
97.897	4.0
97.912	4.0
97.927	5.0
97.942	2.0
97.957	4.0
97.972	3.0
97.987	2.0
98.001	1.0
98.016	2.0
98.031	6.0
98.046	5.0
98.061	5.0
98.076	4.0
98.091	4.0
98.106	1.0
98.121	1.0
98.136	1.0
98.151	2.0
98.166	6.0
98.181	6.0
98.195	4.0
98.21	2.0
98.225	2.0
98.24	3.0
98.255	1.0
98.27	2.0
98.285	1.0
98.3	6.0
98.315	2.0
98.33	3.0
98.345	5.0
98.359	5.0
98.374	5.0
98.389	2.0
98.404	5.0
98.419	7.0
98.434	2.0
98.449	2.0
98.464	3.0
98.479	5.0
98.494	2.0
98.508	2.0
98.523	3.0
98.538	3.0
98.553	5.0
98.568	6.0
98.583	3.0
98.598	2.0
98.613	2.0
98.628	3.0
98.642	3.0
98.657	1.0
98.672	3.0
98.687	7.0
98.702	3.0
98.717	2.0
98.732	5.0
98.747	3.0
98.762	3.0
98.776	2.0
98.791	2.0
98.806	2.0
98.821	3.0
98.836	8.0
98.851	0.0
98.866	4.0
98.881	3.0
98.896	2.0
98.91	1.0
98.925	2.0
98.94	4.0
98.955	6.0
98.97	1.0
98.985	5.0
99.0	3.0
99.015	4.0
99.029	3.0
99.044	2.0
99.059	3.0
99.074	2.0
99.089	1.0
99.104	3.0
99.119	5.0
99.133	1.0
99.148	2.0
99.163	4.0
99.178	3.0
99.193	2.0
99.208	3.0
99.223	4.0
99.238	2.0
99.252	2.0
99.267	2.0
99.282	7.0
99.297	4.0
99.312	7.0
99.327	0.0
99.342	2.0
99.356	4.0
99.371	1.0
99.386	3.0
99.401	3.0
99.416	2.0
99.431	3.0
99.446	3.0
99.461	2.0
99.475	3.0
99.49	1.0
99.505	3.0
99.52	5.0
99.535	4.0
99.55	1.0
99.565	4.0
99.579	6.0
99.594	1.0
99.609	2.0
99.624	1.0
99.639	5.0
99.654	5.0
99.669	4.0
99.683	1.0
99.698	1.0
99.713	4.0
99.728	3.0
99.743	1.0
99.758	3.0
99.772	1.0
99.787	6.0
99.802	1.0
99.817	2.0
99.832	3.0
99.847	4.0
99.862	1.0
99.876	4.0
99.891	1.0
99.906	1.0
99.921	6.0
99.936	4.0
99.951	3.0
99.966	3.0
99.98	2.0
99.995	3.0
100.01	5.0
100.025	3.0
100.04	3.0
100.055	4.0
100.069	5.0
100.084	1.0
100.099	3.0
100.114	5.0
100.129	2.0
100.144	6.0
100.159	3.0
100.173	2.0
100.188	3.0
100.203	5.0
100.218	3.0
100.233	4.0
100.248	6.0
100.262	5.0
100.277	5.0
100.292	3.0
100.307	2.0
100.322	4.0
100.337	3.0
100.351	2.0
100.366	4.0
100.381	4.0
100.396	5.0
100.411	3.0
100.426	6.0
100.441	3.0
100.455	1.0
100.47	6.0
100.485	1.0
100.5	5.0
100.515	6.0
100.53	2.0
100.544	3.0
100.559	2.0
100.574	6.0
100.589	4.0
100.604	4.0
100.619	1.0
100.633	4.0
100.648	1.0
100.663	3.0
100.678	2.0
100.693	1.0
100.708	2.0
100.722	3.0
100.737	1.0
100.752	2.0
100.767	2.0
100.782	1.0
100.796	1.0
100.811	2.0
100.826	5.0
100.841	4.0
100.856	5.0
100.871	2.0
100.885	2.0
100.9	1.0
100.915	7.0
100.93	2.0
100.945	1.0
100.96	3.0
100.974	3.0
100.989	1.0
101.004	2.0
101.019	0.0
101.034	1.0
101.048	2.0
101.063	1.0
101.078	6.0
101.093	4.0
101.108	5.0
101.123	3.0
101.137	3.0
101.152	6.0
101.167	2.0
101.182	3.0
101.197	1.0
101.211	3.0
101.226	2.0
101.241	3.0
101.256	5.0
101.271	0.0
101.285	6.0
101.3	6.0
101.315	4.0
101.33	3.0
101.345	1.0
101.359	7.0
101.374	2.0
101.389	8.0
101.404	4.0
101.419	3.0
101.433	3.0
101.448	5.0
101.463	4.0
101.478	2.0
101.493	4.0
101.507	2.0
101.522	5.0
101.537	3.0
101.552	4.0
101.567	3.0
101.581	3.0
101.596	2.0
101.611	0.0
101.626	3.0
101.64	2.0
101.655	2.0
101.67	1.0
101.685	1.0
101.7	0.0
101.714	5.0
101.729	1.0
101.744	1.0
101.759	3.0
101.773	4.0
101.788	0.0
101.803	1.0
101.818	3.0
101.833	3.0
101.847	1.0
101.862	1.0
101.877	3.0
101.892	2.0
101.906	0.0
101.921	2.0
101.936	6.0
101.951	5.0
101.965	6.0
101.98	2.0
101.995	2.0
102.01	5.0
102.025	3.0
102.039	4.0
102.054	5.0
102.069	4.0
102.084	1.0
102.098	4.0
102.113	2.0
102.128	2.0
102.143	3.0
102.157	3.0
102.172	3.0
102.187	4.0
102.202	2.0
102.216	3.0
102.231	6.0
102.246	4.0
102.261	5.0
102.275	2.0
102.29	1.0
102.305	4.0
102.32	2.0
102.334	2.0
102.349	4.0
102.364	2.0
102.378	4.0
102.393	3.0
102.408	2.0
102.423	6.0
102.437	2.0
102.452	2.0
102.467	2.0
102.482	2.0
102.496	1.0
102.511	2.0
102.526	0.0
102.541	1.0
102.555	2.0
102.57	4.0
102.585	6.0
102.6	0.0
102.614	2.0
102.629	5.0
102.644	3.0
102.659	2.0
102.673	3.0
102.688	2.0
102.703	4.0
102.717	5.0
102.732	4.0
102.747	3.0
102.762	5.0
102.776	3.0
102.791	5.0
102.806	5.0
102.821	4.0
102.835	4.0
102.85	2.0
102.865	2.0
102.88	4.0
102.894	0.0
102.909	5.0
102.924	5.0
102.938	4.0
102.953	3.0
102.968	2.0
102.983	5.0
102.997	2.0
103.012	5.0
103.027	2.0
103.042	7.0
103.056	4.0
103.071	1.0
103.086	6.0
103.101	4.0
103.115	0.0
103.13	4.0
103.145	4.0
103.16	5.0
103.174	3.0
103.189	0.0
103.204	5.0
103.219	2.0
103.233	2.0
103.248	1.0
103.263	3.0
103.278	3.0
103.292	6.0
103.307	4.0
103.322	4.0
103.337	4.0
103.351	4.0
103.366	3.0
103.381	1.0
103.396	2.0
103.41	3.0
103.425	4.0
103.44	2.0
103.455	1.0
103.469	1.0
103.484	3.0
103.499	6.0
103.514	4.0
103.529	0.0
103.543	1.0
103.558	5.0
103.573	4.0
103.588	3.0
103.602	1.0
103.617	1.0
103.632	3.0
103.647	2.0
103.661	1.0
103.676	1.0
103.691	2.0
103.706	6.0
103.721	3.0
103.735	3.0
103.75	3.0
103.765	4.0
103.78	1.0
103.795	2.0
103.809	1.0
103.824	4.0
103.839	4.0
103.854	3.0
103.869	5.0
103.883	3.0
103.898	1.0
103.913	3.0
103.928	5.0
103.943	8.0
103.957	5.0
103.972	3.0
103.987	3.0
104.002	4.0
104.017	2.0
104.031	1.0
104.046	3.0
104.061	3.0
104.076	2.0
104.091	1.0
104.106	5.0
104.12	1.0
104.135	3.0
104.15	5.0
104.165	1.0
104.18	1.0
104.195	4.0
104.209	2.0
104.224	4.0
104.239	2.0
104.254	0.0
104.269	2.0
104.284	3.0
104.299	4.0
104.313	3.0
104.328	2.0
104.343	2.0
104.358	1.0
104.373	5.0
104.388	0.0
104.403	2.0
104.417	5.0
104.432	3.0
104.447	1.0
104.462	2.0
104.477	3.0
104.492	3.0
104.507	3.0
104.522	7.0
104.536	4.0
104.551	5.0
104.566	4.0
104.581	4.0
104.596	4.0
104.611	5.0
104.626	3.0
104.641	5.0
104.656	3.0
104.67	5.0
104.685	1.0
104.7	5.0
104.715	3.0
104.73	5.0
104.745	2.0
104.76	2.0
104.775	3.0
104.79	6.0
104.804	4.0
104.819	0.0
104.834	0.0
104.849	3.0
104.864	8.0
104.879	4.0
104.894	4.0
104.909	4.0
104.924	3.0
104.939	2.0
104.954	1.0
104.968	2.0
104.983	3.0
104.998	1.0
105.013	3.0
105.028	4.0
105.043	2.0
105.058	5.0
105.073	3.0
105.088	5.0
105.103	4.0
105.118	2.0
105.133	2.0
105.147	2.0
105.162	2.0
105.177	9.0
105.192	1.0
105.207	3.0
105.222	3.0
105.237	2.0
105.252	3.0
105.267	2.0
105.282	2.0
105.297	4.0
105.312	3.0
105.327	2.0
105.342	3.0
105.356	2.0
105.371	5.0
105.386	3.0
105.401	2.0
105.416	4.0
105.431	3.0
105.446	5.0
105.461	3.0
105.476	0.0
105.491	4.0
105.506	3.0
105.521	2.0
105.536	3.0
105.551	4.0
105.566	3.0
105.581	3.0
105.595	4.0
105.61	4.0
105.625	4.0
105.64	0.0
105.655	1.0
105.67	4.0
105.685	4.0
105.7	2.0
105.715	4.0
105.73	5.0
105.745	6.0
105.76	4.0
105.775	2.0
105.79	0.0
105.805	1.0
105.82	3.0
105.835	5.0
105.85	2.0
105.864	2.0
105.879	2.0
105.894	6.0
105.909	2.0
105.924	4.0
105.939	4.0
105.954	6.0
105.969	4.0
105.984	3.0
105.999	2.0
106.014	3.0
106.029	6.0
106.044	4.0
106.059	1.0
106.074	8.0
106.089	2.0
106.104	4.0
106.119	5.0
106.134	4.0
106.148	3.0
106.163	2.0
106.178	5.0
106.193	3.0
106.208	3.0
106.223	0.0
106.238	0.0
106.253	9.0
106.268	4.0
106.283	5.0
106.298	4.0
106.313	2.0
106.328	3.0
106.343	5.0
106.358	3.0
106.373	3.0
106.388	1.0
106.403	3.0
106.418	5.0
106.432	4.0
106.447	5.0
106.462	9.0
106.477	5.0
106.492	2.0
106.507	6.0
106.522	2.0
106.537	1.0
106.552	1.0
106.567	2.0
106.582	5.0
106.597	5.0
106.612	4.0
106.627	3.0
106.642	2.0
106.657	1.0
106.672	3.0
106.687	5.0
106.701	1.0
106.716	3.0
106.731	5.0
106.746	2.0
106.761	3.0
106.776	0.0
106.791	3.0
106.806	2.0
106.821	5.0
106.836	7.0
106.851	1.0
106.866	4.0
106.881	5.0
106.896	3.0
106.911	5.0
106.926	1.0
106.941	2.0
106.955	3.0
106.97	3.0
106.985	3.0
107.0	1.0
107.015	1.0
107.03	2.0
107.045	3.0
107.06	2.0
107.075	3.0
107.09	5.0
107.105	4.0
107.12	6.0
107.135	1.0
107.15	4.0
107.165	3.0
107.18	6.0
107.194	7.0
107.209	6.0
107.224	2.0
107.239	5.0
107.254	4.0
107.269	2.0
107.284	2.0
107.299	6.0
107.314	3.0
107.329	5.0
107.344	0.0
107.359	7.0
107.374	2.0
107.389	6.0
107.404	4.0
107.418	2.0
107.433	5.0
107.448	2.0
107.463	3.0
107.478	1.0
107.493	4.0
107.508	2.0
107.523	3.0
107.538	4.0
107.553	3.0
107.568	1.0
107.583	3.0
107.598	4.0
107.613	1.0
107.627	2.0
107.642	3.0
107.657	3.0
107.672	7.0
107.687	4.0
107.702	2.0
107.717	3.0
107.732	4.0
107.747	4.0
107.762	2.0
107.777	5.0
107.792	8.0
107.807	3.0
107.821	4.0
107.836	1.0
107.851	5.0
107.866	0.0
107.881	3.0
107.896	2.0
107.911	5.0
107.926	5.0
107.941	4.0
107.956	1.0
107.971	2.0
107.986	2.0
108.0	3.0
108.015	5.0
108.03	6.0
108.045	3.0
108.06	8.0
108.075	4.0
108.09	1.0
108.105	3.0
108.12	9.0
108.135	8.0
108.15	2.0
108.164	3.0
108.179	4.0
108.194	1.0
108.209	3.0
108.224	4.0
108.239	3.0
108.254	3.0
108.269	6.0
108.284	2.0
108.299	6.0
108.313	6.0
108.328	3.0
108.343	2.0
108.358	0.0
108.373	3.0
108.388	0.0
108.403	3.0
108.418	1.0
108.433	1.0
108.448	2.0
108.462	6.0
108.477	1.0
108.492	5.0
108.507	3.0
108.522	0.0
108.537	1.0
108.552	4.0
108.567	1.0
108.582	1.0
108.597	2.0
108.611	0.0
108.626	2.0
108.641	4.0
108.656	1.0
108.671	2.0
108.686	6.0
108.701	2.0
108.716	3.0
108.731	5.0
108.745	8.0
108.76	3.0
108.775	3.0
108.79	2.0
108.805	6.0
108.82	3.0
108.835	4.0
108.85	2.0
108.865	4.0
108.879	3.0
108.894	3.0
108.909	2.0
108.924	7.0
108.939	8.0
108.954	3.0
108.969	5.0
108.984	4.0
108.999	4.0
109.013	5.0
109.028	4.0
109.043	4.0
109.058	3.0
109.073	2.0
109.088	4.0
109.103	1.0
109.118	6.0
109.133	4.0
109.147	3.0
109.162	6.0
109.177	5.0
109.192	4.0
109.207	6.0
109.222	6.0
109.237	2.0
109.252	1.0
109.267	1.0
109.281	1.0
109.296	2.0
109.311	5.0
109.326	1.0
109.341	5.0
109.356	1.0
109.371	1.0
109.386	3.0
109.4	2.0
109.415	4.0
109.43	0.0
109.445	5.0
109.46	4.0
109.475	5.0
109.49	3.0
109.505	3.0
109.52	2.0
109.534	3.0
109.549	1.0
109.564	4.0
109.579	5.0
109.594	5.0
109.609	3.0
109.624	4.0
109.639	3.0
109.653	6.0
109.668	0.0
109.683	4.0
109.698	1.0
109.713	1.0
109.728	2.0
109.743	2.0
109.758	2.0
109.773	2.0
109.787	2.0
109.802	2.0
109.817	1.0
109.832	6.0
109.847	1.0
109.862	2.0
109.877	4.0
109.892	3.0
109.907	3.0
109.921	2.0
109.936	3.0
109.951	6.0
109.966	5.0
109.981	7.0
109.996	3.0
110.011	3.0
110.026	4.0
110.04	4.0
110.055	4.0
110.07	2.0
110.085	2.0
110.1	2.0
110.115	2.0
110.13	3.0
110.145	3.0
110.16	1.0
110.174	5.0
110.189	5.0
110.204	3.0
110.219	4.0
110.234	5.0
110.249	3.0
110.264	5.0
110.279	2.0
110.294	2.0
110.308	2.0
110.323	4.0
110.338	1.0
110.353	2.0
110.368	2.0
110.383	2.0
110.398	3.0
110.413	2.0
110.428	2.0
110.442	3.0
110.457	7.0
110.472	4.0
110.487	3.0
110.502	2.0
110.517	4.0
110.532	4.0
110.547	1.0
110.561	4.0
110.576	4.0
110.591	3.0
110.606	3.0
110.621	5.0
110.636	4.0
110.651	5.0
110.666	9.0
110.681	0.0
110.695	6.0
110.71	3.0
110.725	4.0
110.74	3.0
110.755	0.0
110.77	6.0
110.785	4.0
110.8	3.0
110.815	6.0
110.829	7.0
110.844	1.0
110.859	6.0
110.874	2.0
110.889	2.0
110.904	5.0
110.919	4.0
110.934	4.0
110.948	4.0
110.963	5.0
110.978	8.0
110.993	6.0
111.008	4.0
111.023	5.0
111.038	4.0
111.053	6.0
111.067	2.0
111.082	5.0
111.097	3.0
111.112	4.0
111.127	4.0
111.142	3.0
111.157	4.0
111.172	6.0
111.186	2.0
111.201	1.0
111.216	0.0
111.231	4.0
111.246	4.0
111.261	1.0
111.276	3.0
111.291	3.0
111.305	4.0
111.32	5.0
111.335	1.0
111.35	0.0
111.365	3.0
111.38	1.0
111.395	4.0
111.41	2.0
111.424	2.0
111.439	9.0
111.454	5.0
111.469	3.0
111.484	2.0
111.499	3.0
111.514	3.0
111.528	3.0
111.543	8.0
111.558	5.0
111.573	4.0
111.588	4.0
111.603	2.0
111.618	4.0
111.633	2.0
111.647	3.0
111.662	4.0
111.677	3.0
111.692	2.0
111.707	3.0
111.722	1.0
111.737	7.0
111.751	5.0
111.766	3.0
111.781	4.0
111.796	2.0
111.811	3.0
111.826	2.0
111.84	2.0
111.855	3.0
111.87	3.0
111.885	3.0
111.9	2.0
111.915	5.0
111.93	1.0
111.944	4.0
111.959	4.0
111.974	7.0
111.989	4.0
112.004	7.0
112.019	1.0
112.033	5.0
112.048	8.0
112.063	0.0
112.078	2.0
112.093	3.0
112.108	2.0
112.123	3.0
112.137	5.0
112.152	5.0
112.167	4.0
112.182	3.0
112.197	1.0
112.212	4.0
112.226	4.0
112.241	2.0
112.256	3.0
112.271	5.0
112.286	3.0
112.301	4.0
112.315	3.0
112.33	4.0
112.345	3.0
112.36	4.0
112.375	2.0
112.389	5.0
112.404	3.0
112.419	6.0
112.434	5.0
112.449	5.0
112.464	2.0
112.478	4.0
112.493	3.0
112.508	6.0
112.523	2.0
112.538	5.0
112.553	4.0
112.567	4.0
112.582	4.0
112.597	2.0
112.612	5.0
112.627	2.0
112.642	5.0
112.656	3.0
112.671	3.0
112.686	6.0
112.701	2.0
112.716	5.0
112.73	4.0
112.745	6.0
112.76	3.0
112.775	6.0
112.79	4.0
112.805	2.0
112.819	1.0
112.834	1.0
112.849	5.0
112.864	3.0
112.879	1.0
112.894	3.0
112.908	2.0
112.923	1.0
112.938	4.0
112.953	3.0
112.968	4.0
112.983	4.0
112.997	2.0
113.012	2.0
113.027	3.0
113.042	2.0
113.057	3.0
113.072	2.0
113.086	0.0
113.101	5.0
113.116	2.0
113.131	2.0
113.146	7.0
113.161	3.0
113.175	4.0
113.19	5.0
113.205	1.0
113.22	4.0
113.235	2.0
113.25	5.0
113.265	4.0
113.279	2.0
113.294	3.0
113.309	4.0
113.324	1.0
113.339	4.0
113.354	2.0
113.368	4.0
113.383	4.0
113.398	3.0
113.413	6.0
113.428	5.0
113.443	3.0
113.458	3.0
113.472	2.0
113.487	2.0
113.502	1.0
113.517	1.0
113.532	4.0
113.547	2.0
113.562	1.0
113.576	5.0
113.591	6.0
113.606	1.0
113.621	4.0
113.636	4.0
113.651	1.0
113.666	3.0
113.681	5.0
113.695	5.0
113.71	3.0
113.725	4.0
113.74	4.0
113.755	2.0
113.77	4.0
113.785	2.0
113.8	3.0
113.814	0.0
113.829	1.0
113.844	5.0
113.859	5.0
113.874	4.0
113.889	3.0
113.904	1.0
113.919	5.0
113.934	3.0
113.949	6.0
113.963	4.0
113.978	3.0
113.993	5.0
114.008	5.0
114.023	2.0
114.038	3.0
114.053	3.0
114.068	3.0
114.083	3.0
114.098	2.0
114.113	1.0
114.127	4.0
114.142	7.0
114.157	4.0
114.172	7.0
114.187	3.0
114.202	1.0
114.217	7.0
114.232	5.0
114.247	3.0
114.262	4.0
114.277	2.0
114.292	5.0
114.307	0.0
114.322	0.0
114.337	4.0
114.351	4.0
114.366	0.0
114.381	2.0
114.396	3.0
114.411	1.0
114.426	1.0
114.441	5.0
114.456	3.0
114.471	4.0
114.486	2.0
114.501	1.0
114.516	1.0
114.531	1.0
114.546	3.0
114.561	5.0
114.576	1.0
114.591	5.0
114.606	5.0
114.621	1.0
114.636	6.0
114.65	5.0
114.665	5.0
114.68	9.0
114.695	2.0
114.71	3.0
114.725	3.0
114.74	6.0
114.755	3.0
114.77	2.0
114.785	5.0
114.8	2.0
114.815	4.0
114.83	2.0
114.845	2.0
114.86	2.0
114.875	6.0
114.89	2.0
114.905	0.0
114.92	4.0
114.935	2.0
114.95	4.0
114.965	4.0
114.98	4.0
114.995	4.0
115.009	3.0
115.024	3.0
115.039	2.0
115.054	3.0
115.069	4.0
115.084	3.0
115.099	1.0
115.114	5.0
115.129	3.0
115.144	3.0
115.159	6.0
115.174	4.0
115.189	2.0
115.204	7.0
115.219	4.0
115.234	6.0
115.249	6.0
115.264	4.0
115.279	2.0
115.294	1.0
115.309	4.0
115.323	2.0
115.338	6.0
115.353	4.0
115.368	7.0
115.383	3.0
115.398	2.0
115.413	3.0
115.428	5.0
115.443	4.0
115.458	1.0
115.473	5.0
115.488	1.0
115.503	3.0
115.518	3.0
115.533	6.0
115.548	0.0
115.562	2.0
115.577	6.0
115.592	1.0
115.607	3.0
115.622	5.0
115.637	1.0
115.652	2.0
115.667	5.0
115.682	3.0
115.697	4.0
115.712	4.0
115.727	4.0
115.741	2.0
115.756	3.0
115.771	5.0
115.786	4.0
115.801	4.0
115.816	2.0
115.831	0.0
115.846	3.0
115.861	4.0
115.875	5.0
115.89	6.0
115.905	1.0
115.92	4.0
115.935	4.0
115.95	4.0
115.965	1.0
115.98	4.0
115.995	3.0
116.009	4.0
116.024	2.0
116.039	3.0
116.054	3.0
116.069	5.0
116.084	6.0
116.099	7.0
116.113	2.0
116.128	1.0
116.143	4.0
116.158	3.0
116.173	0.0
116.188	4.0
116.202	2.0
116.217	5.0
116.232	2.0
116.247	6.0
116.262	4.0
116.277	2.0
116.291	2.0
116.306	6.0
116.321	2.0
116.336	3.0
116.351	2.0
116.366	3.0
116.38	8.0
116.395	3.0
116.41	5.0
116.425	2.0
116.44	4.0
116.454	1.0
116.469	1.0
116.484	1.0
116.499	3.0
116.514	6.0
116.528	6.0
116.543	12.0
116.558	5.0
116.573	4.0
116.588	2.0
116.602	2.0
116.617	1.0
116.632	5.0
116.647	1.0
116.662	2.0
116.676	3.0
116.691	6.0
116.706	3.0
116.721	5.0
116.735	9.0
116.75	3.0
116.765	1.0
116.78	3.0
116.795	4.0
116.809	5.0
116.824	3.0
116.839	3.0
116.854	3.0
116.868	5.0
116.883	1.0
116.898	2.0
116.913	3.0
116.927	8.0
116.942	1.0
116.957	3.0
116.972	3.0
116.986	3.0
117.001	3.0
117.016	6.0
117.031	3.0
117.045	2.0
117.06	4.0
117.075	2.0
117.09	4.0
117.104	2.0
117.119	5.0
117.134	2.0
117.149	4.0
117.163	5.0
117.178	3.0
117.193	1.0
117.208	5.0
117.222	8.0
117.237	6.0
117.252	4.0
117.267	2.0
117.281	4.0
117.296	2.0
117.311	1.0
117.325	2.0
117.34	3.0
117.355	4.0
117.37	2.0
117.384	6.0
117.399	4.0
117.414	5.0
117.429	4.0
117.443	6.0
117.458	5.0
117.473	2.0
117.487	2.0
117.502	3.0
117.517	4.0
117.532	7.0
117.546	3.0
117.561	1.0
117.576	6.0
117.59	3.0
117.605	2.0
117.62	1.0
117.635	3.0
117.649	2.0
117.664	5.0
117.679	5.0
117.693	4.0
117.708	6.0
117.723	6.0
117.738	6.0
117.752	3.0
117.767	1.0
117.782	5.0
117.796	2.0
117.811	6.0
117.826	6.0
117.841	4.0
117.855	1.0
117.87	4.0
117.885	4.0
117.899	2.0
117.914	3.0
117.929	2.0
117.944	0.0
117.958	4.0
117.973	3.0
117.988	4.0
118.002	2.0
118.017	2.0
118.032	1.0
118.047	5.0
118.062	6.0
118.077	5.0
118.092	7.0
118.107	6.0
118.121	6.0
118.136	4.0
118.151	1.0
118.166	0.0
118.181	3.0
118.196	6.0
118.211	3.0
118.225	4.0
118.24	6.0
118.255	1.0
118.27	1.0
118.285	4.0
118.3	7.0
118.315	3.0
118.33	5.0
118.344	4.0
118.359	2.0
118.374	3.0
118.389	3.0
118.404	4.0
118.419	0.0
118.434	4.0
118.449	2.0
118.463	3.0
118.478	3.0
118.493	3.0
118.508	3.0
118.523	8.0
118.538	2.0
118.553	0.0
118.567	1.0
118.582	4.0
118.597	3.0
118.612	3.0
118.627	5.0
118.642	2.0
118.657	7.0
118.672	0.0
118.686	6.0
118.701	3.0
118.716	3.0
118.731	6.0
118.746	3.0
118.761	5.0
118.776	1.0
118.791	3.0
118.805	3.0
118.82	4.0
118.835	4.0
118.85	2.0
118.865	5.0
118.88	4.0
118.895	5.0
118.909	6.0
118.924	1.0
118.939	3.0
118.954	4.0
118.969	2.0
118.984	2.0
118.999	4.0
119.014	2.0
119.028	3.0
119.043	1.0
119.058	4.0
119.073	3.0
119.088	6.0
119.103	7.0
119.118	3.0
119.133	5.0
119.147	5.0
119.162	5.0
119.177	6.0
119.192	2.0
119.207	3.0
119.222	8.0
119.237	0.0
119.251	3.0
119.266	3.0
119.281	5.0
119.296	7.0
119.311	6.0
119.326	3.0
119.341	5.0
119.356	2.0
119.37	5.0
119.385	2.0
119.4	5.0
119.415	6.0
119.43	3.0
119.445	4.0
119.46	3.0
119.475	1.0
119.489	3.0
119.504	1.0
119.519	6.0
119.534	3.0
119.549	3.0
119.564	0.0
119.579	3.0
119.593	1.0
119.608	6.0
119.623	0.0
119.638	5.0
119.653	5.0
119.668	2.0
119.683	3.0
119.698	3.0
119.712	5.0
119.727	4.0
119.742	1.0
119.757	6.0
119.772	1.0
119.787	2.0
119.802	2.0
119.817	0.0
119.831	3.0
119.846	1.0
119.861	4.0
119.876	5.0
119.891	1.0
119.906	1.0
119.921	2.0
119.935	2.0
119.95	1.0
119.965	5.0
119.98	3.0
119.995	5.0
120.01	3.0
120.025	4.0
120.04	0.0
120.054	5.0
120.069	4.0
120.084	1.0
120.099	2.0
120.114	2.0
120.129	1.0
120.144	1.0
120.159	2.0
120.173	1.0
120.188	2.0
120.203	1.0
120.218	0.0
120.233	1.0
120.248	0.0
120.263	0.0
120.277	1.0
120.292	1.0
120.307	1.0
120.322	1.0
120.337	0.0
120.352	0.0
120.367	0.0
120.382	1.0
120.396	0.0
120.411	0.0
120.426	0.0
120.441	0.0
120.456	1.0
120.471	0.0
120.486	0.0
120.501	0.0
120.515	1.0
120.53	0.0
120.545	0.0
120.56	0.0
120.575	0.0
120.59	0.0
120.605	0.0
120.619	0.0
120.634	0.0
120.649	0.0
120.664	0.0
120.679	0.0
120.694	0.0
120.709	0.0
120.724	0.0
120.738	0.0
120.753	0.0
120.768	0.0
120.783	0.0
120.798	0.0
120.813	0.0
120.828	0.0
120.843	0.0
120.857	0.0
120.872	0.0
120.887	0.0
120.902	0.0
120.917	0.0
120.932	0.0
120.947	0.0
120.961	0.0
120.976	0.0
