-1.217	0.0
-1.202	0.0
-1.187	0.0
-1.172	0.0
-1.157	0.0
-1.142	0.0
-1.128	0.0
-1.113	0.0
-1.098	0.0
-1.083	0.0
-1.068	0.0
-1.054	1.0
-1.039	0.0
-1.024	0.0
-1.009	0.0
-0.994	0.0
-0.979	0.0
-0.965	0.0
-0.95	0.0
-0.935	0.0
-0.92	0.0
-0.905	0.0
-0.891	0.0
-0.876	0.0
-0.861	0.0
-0.846	0.0
-0.831	0.0
-0.816	0.0
-0.802	0.0
-0.787	0.0
-0.772	0.0
-0.757	0.0
-0.742	0.0
-0.728	0.0
-0.713	0.0
-0.698	0.0
-0.683	0.0
-0.668	0.0
-0.653	0.0
-0.639	0.0
-0.624	0.0
-0.609	0.0
-0.594	0.0
-0.579	0.0
-0.565	0.0
-0.55	0.0
-0.535	0.0
-0.52	0.0
-0.505	0.0
-0.49	0.0
-0.476	0.0
-0.461	0.0
-0.446	0.0
-0.431	1.0
-0.416	0.0
-0.401	0.0
-0.387	0.0
-0.372	0.0
-0.357	0.0
-0.342	0.0
-0.327	0.0
-0.313	0.0
-0.298	0.0
-0.283	0.0
-0.268	0.0
-0.253	0.0
-0.238	0.0
-0.224	0.0
-0.209	0.0
-0.194	0.0
-0.179	0.0
-0.164	0.0
-0.15	0.0
-0.135	0.0
-0.12	0.0
-0.105	0.0
-0.09	0.0
-0.075	0.0
-0.061	1.0
-0.046	0.0
-0.031	0.0
-0.016	0.0
-0.001	0.0
0.013	0.0
0.028	0.0
0.043	0.0
0.058	0.0
0.073	0.0
0.088	0.0
0.102	1.0
0.117	0.0
0.132	0.0
0.147	0.0
0.162	0.0
0.176	0.0
0.191	0.0
0.206	0.0
0.221	0.0
0.236	0.0
0.251	0.0
0.265	0.0
0.28	0.0
0.295	0.0
0.31	0.0
0.325	0.0
0.339	0.0
0.354	0.0
0.369	0.0
0.384	0.0
0.399	0.0
0.414	0.0
0.428	0.0
0.443	0.0
0.458	0.0
0.473	0.0
0.488	0.0
0.502	0.0
0.517	0.0
0.532	0.0
0.547	0.0
0.562	0.0
0.577	0.0
0.591	0.0
0.606	0.0
0.621	0.0
0.636	0.0
0.651	0.0
0.665	0.0
0.68	0.0
0.695	0.0
0.71	0.0
0.725	0.0
0.74	1.0
0.754	0.0
0.769	0.0
0.784	0.0
0.799	0.0
0.814	0.0
0.828	0.0
0.843	0.0
0.858	0.0
0.873	0.0
0.888	0.0
0.903	0.0
0.917	0.0
0.932	0.0
0.947	0.0
0.962	0.0
0.977	0.0
0.991	0.0
1.006	0.0
1.021	0.0
1.036	0.0
1.051	0.0
1.065	0.0
1.08	0.0
1.095	0.0
1.11	0.0
1.125	1.0
1.14	0.0
1.154	0.0
1.169	0.0
1.184	0.0
1.199	0.0
1.214	0.0
1.228	0.0
1.243	0.0
1.258	0.0
1.273	0.0
1.288	0.0
1.302	0.0
1.317	0.0
1.332	0.0
1.347	0.0
1.362	0.0
1.376	0.0
1.391	0.0
1.406	0.0
1.421	0.0
1.436	0.0
1.45	0.0
1.465	0.0
1.48	0.0
1.495	0.0
1.51	0.0
1.524	0.0
1.539	0.0
1.554	0.0
1.569	0.0
1.584	0.0
1.598	0.0
1.613	1.0
1.628	0.0
1.643	0.0
1.658	0.0
1.672	1.0
1.687	0.0
1.702	0.0
1.717	0.0
1.732	0.0
1.746	0.0
1.761	0.0
1.776	0.0
1.791	0.0
1.806	1.0
1.82	0.0
1.835	0.0
1.85	0.0
1.865	0.0
1.88	1.0
1.894	0.0
1.909	0.0
1.924	0.0
1.939	0.0
1.954	0.0
1.968	0.0
1.983	0.0
1.998	1.0
2.013	0.0
2.028	0.0
2.042	0.0
2.057	0.0
2.072	0.0
2.087	0.0
2.101	0.0
2.116	0.0
2.131	0.0
2.146	0.0
2.161	1.0
2.175	0.0
2.19	0.0
2.205	1.0
2.22	2.0
2.235	0.0
2.249	0.0
2.264	0.0
2.279	2.0
2.294	0.0
2.308	1.0
2.323	1.0
2.338	0.0
2.353	2.0
2.368	0.0
2.382	0.0
2.397	1.0
2.412	0.0
2.427	2.0
2.442	1.0
2.456	1.0
2.471	1.0
2.486	2.0
2.501	0.0
2.515	1.0
2.53	2.0
2.545	1.0
2.56	0.0
2.575	3.0
2.589	0.0
2.604	1.0
2.619	5.0
2.634	1.0
2.649	1.0
2.663	4.0
2.678	2.0
2.693	1.0
2.708	4.0
2.722	4.0
2.737	2.0
2.752	3.0
2.767	4.0
2.782	2.0
2.796	2.0
2.811	3.0
2.826	2.0
2.841	1.0
2.856	1.0
2.87	3.0
2.885	1.0
2.9	5.0
2.915	2.0
2.93	7.0
2.944	4.0
2.959	3.0
2.974	3.0
2.989	5.0
3.004	4.0
3.018	2.0
3.033	2.0
3.048	5.0
3.063	4.0
3.078	3.0
3.092	8.0
3.107	7.0
3.122	3.0
3.137	5.0
3.152	2.0
3.166	4.0
3.181	3.0
3.196	3.0
3.211	6.0
3.226	4.0
3.24	3.0
3.255	3.0
3.27	2.0
3.285	6.0
3.3	9.0
3.315	8.0
3.329	2.0
3.344	4.0
3.359	4.0
3.374	7.0
3.389	3.0
3.403	2.0
3.418	8.0
3.433	3.0
3.448	6.0
3.463	6.0
3.478	9.0
3.492	2.0
3.507	6.0
3.522	7.0
3.537	8.0
3.552	5.0
3.567	5.0
3.581	6.0
3.596	5.0
3.611	7.0
3.626	7.0
3.641	3.0
3.656	4.0
3.671	10.0
3.685	7.0
3.7	4.0
3.715	2.0
3.73	7.0
3.745	5.0
3.76	5.0
3.775	4.0
3.789	6.0
3.804	3.0
3.819	3.0
3.834	5.0
3.849	6.0
3.864	4.0
3.879	5.0
3.894	5.0
3.908	6.0
3.923	4.0
3.938	7.0
3.953	9.0
3.968	4.0
3.983	8.0
3.998	8.0
4.013	10.0
4.027	8.0
4.042	6.0
4.057	7.0
4.072	6.0
4.087	2.0
4.102	3.0
4.117	5.0
4.132	3.0
4.147	8.0
4.162	11.0
4.176	7.0
4.191	6.0
4.206	7.0
4.221	6.0
4.236	9.0
4.251	6.0
4.266	8.0
4.281	8.0
4.296	2.0
4.311	6.0
4.326	4.0
4.341	4.0
4.356	2.0
4.37	12.0
4.385	11.0
4.4	12.0
4.415	10.0
4.43	15.0
4.445	13.0
4.46	4.0
4.475	12.0
4.49	6.0
4.505	10.0
4.52	7.0
4.535	8.0
4.55	7.0
4.565	3.0
4.58	11.0
4.595	9.0
4.61	11.0
4.625	3.0
4.639	8.0
4.654	13.0
4.669	11.0
4.684	9.0
4.699	12.0
4.714	6.0
4.729	10.0
4.744	9.0
4.759	6.0
4.774	11.0
4.789	8.0
4.804	7.0
4.819	6.0
4.834	7.0
4.849	7.0
4.864	8.0
4.879	6.0
4.894	9.0
4.909	8.0
4.924	4.0
4.939	4.0
4.954	6.0
4.969	7.0
4.984	13.0
4.999	15.0
5.014	6.0
5.029	12.0
5.044	5.0
5.059	5.0
5.074	4.0
5.089	11.0
5.104	8.0
5.119	7.0
5.134	16.0
5.149	11.0
5.164	5.0
5.179	9.0
5.194	10.0
5.209	10.0
5.224	5.0
5.239	7.0
5.254	8.0
5.269	9.0
5.284	12.0
5.299	8.0
5.314	4.0
5.329	9.0
5.344	9.0
5.359	4.0
5.374	16.0
5.389	10.0
5.404	14.0
5.419	2.0
5.434	11.0
5.449	8.0
5.464	6.0
5.479	6.0
5.494	9.0
5.509	17.0
5.524	12.0
5.539	8.0
5.554	7.0
5.569	9.0
5.584	8.0
5.599	6.0
5.614	6.0
5.629	7.0
5.644	12.0
5.659	3.0
5.674	9.0
5.689	5.0
5.704	9.0
5.719	8.0
5.734	6.0
5.749	8.0
5.764	7.0
5.779	8.0
5.794	5.0
5.809	6.0
5.824	8.0
5.839	8.0
5.854	13.0
5.869	10.0
5.884	8.0
5.899	8.0
5.914	6.0
5.929	7.0
5.944	7.0
5.959	11.0
5.974	11.0
5.989	8.0
6.004	10.0
6.019	9.0
6.034	12.0
6.049	9.0
6.064	13.0
6.079	8.0
6.094	9.0
6.109	12.0
6.124	11.0
6.139	7.0
6.154	8.0
6.169	6.0
6.184	8.0
6.199	10.0
6.214	12.0
6.229	15.0
6.244	4.0
6.259	11.0
6.274	6.0
6.289	6.0
6.304	7.0
6.319	7.0
6.334	5.0
6.349	8.0
6.364	10.0
6.379	10.0
6.394	10.0
6.409	13.0
6.424	7.0
6.439	6.0
6.454	7.0
6.469	4.0
6.484	14.0
6.499	5.0
6.514	5.0
6.529	8.0
6.544	6.0
6.559	4.0
6.574	5.0
6.589	5.0
6.604	10.0
6.619	9.0
6.634	10.0
6.649	8.0
6.664	8.0
6.679	11.0
6.694	5.0
6.709	11.0
6.724	9.0
6.739	8.0
6.754	5.0
6.769	6.0
6.784	9.0
6.799	9.0
6.814	8.0
6.829	17.0
6.844	10.0
6.859	5.0
6.873	13.0
6.888	10.0
6.903	8.0
6.918	12.0
6.933	13.0
6.948	5.0
6.963	11.0
6.978	5.0
6.993	4.0
7.008	10.0
7.023	8.0
7.038	10.0
7.053	10.0
7.068	7.0
7.083	7.0
7.098	6.0
7.113	7.0
7.128	8.0
7.143	6.0
7.157	10.0
7.172	13.0
7.187	9.0
7.202	9.0
7.217	15.0
7.232	8.0
7.247	6.0
7.262	8.0
7.277	6.0
7.292	8.0
7.307	13.0
7.322	6.0
7.336	12.0
7.351	11.0
7.366	10.0
7.381	7.0
7.396	9.0
7.411	9.0
7.426	12.0
7.441	9.0
7.456	11.0
7.471	5.0
7.485	9.0
7.5	12.0
7.515	8.0
7.53	11.0
7.545	10.0
7.56	9.0
7.575	3.0
7.59	10.0
7.604	12.0
7.619	8.0
7.634	6.0
7.649	4.0
7.664	10.0
7.679	6.0
7.693	8.0
7.708	5.0
7.723	7.0
7.738	12.0
7.753	9.0
7.768	5.0
7.783	5.0
7.797	9.0
7.812	12.0
7.827	10.0
7.842	7.0
7.857	9.0
7.871	3.0
7.886	10.0
7.901	12.0
7.916	11.0
7.931	11.0
7.945	9.0
7.96	8.0
7.975	13.0
7.99	7.0
8.005	8.0
8.019	7.0
8.034	6.0
8.049	4.0
8.064	7.0
8.078	7.0
8.093	12.0
8.108	10.0
8.123	5.0
8.137	7.0
8.152	11.0
8.167	9.0
8.182	10.0
8.196	7.0
8.211	13.0
8.226	9.0
8.241	9.0
8.255	13.0
8.27	9.0
8.285	15.0
8.3	5.0
8.314	8.0
8.329	3.0
8.344	10.0
8.358	13.0
8.373	8.0
8.388	10.0
8.403	8.0
8.417	7.0
8.432	15.0
8.447	4.0
8.461	8.0
8.476	10.0
8.491	14.0
8.505	10.0
8.52	10.0
8.535	6.0
8.55	7.0
8.564	7.0
8.579	12.0
8.594	9.0
8.608	9.0
8.623	6.0
8.638	11.0
8.652	10.0
8.667	3.0
8.682	10.0
8.696	11.0
8.711	14.0
8.726	9.0
8.74	8.0
8.755	6.0
8.77	9.0
8.784	9.0
8.799	8.0
8.814	6.0
8.828	9.0
8.843	12.0
8.858	8.0
8.872	5.0
8.887	8.0
8.902	5.0
8.916	8.0
8.931	7.0
8.946	7.0
8.96	13.0
8.975	6.0
8.99	8.0
9.004	12.0
9.019	6.0
9.034	6.0
9.048	5.0
9.063	11.0
9.077	7.0
9.092	13.0
9.107	7.0
9.121	9.0
9.136	6.0
9.151	8.0
9.165	5.0
9.18	13.0
9.195	9.0
9.209	3.0
9.224	7.0
9.239	6.0
9.253	9.0
9.268	10.0
9.283	6.0
9.297	9.0
9.312	8.0
9.327	10.0
9.341	11.0
9.356	7.0
9.371	8.0
9.385	5.0
9.4	14.0
9.415	4.0
9.429	8.0
9.444	7.0
9.458	8.0
9.473	11.0
9.488	11.0
9.502	8.0
9.517	9.0
9.532	6.0
9.546	11.0
9.561	7.0
9.576	7.0
9.59	4.0
9.605	8.0
9.62	8.0
9.635	3.0
9.649	9.0
9.664	12.0
9.679	8.0
9.693	9.0
9.708	9.0
9.723	2.0
9.737	8.0
9.752	10.0
9.767	7.0
9.781	9.0
9.796	5.0
9.811	11.0
9.825	9.0
9.84	4.0
9.855	11.0
9.87	9.0
9.884	8.0
9.899	7.0
9.914	6.0
9.928	6.0
9.943	9.0
9.958	4.0
9.973	11.0
9.987	3.0
10.002	5.0
10.017	10.0
10.031	9.0
10.046	7.0
10.061	11.0
10.076	10.0
10.09	13.0
10.105	11.0
10.12	9.0
10.135	4.0
10.149	12.0
10.164	16.0
10.179	7.0
10.194	10.0
10.208	11.0
10.223	7.0
10.238	11.0
10.253	8.0
10.267	11.0
10.282	10.0
10.297	11.0
10.312	8.0
10.326	6.0
10.341	5.0
10.356	8.0
10.371	14.0
10.386	6.0
10.4	5.0
10.415	6.0
10.43	6.0
10.445	5.0
10.46	9.0
10.474	5.0
10.489	7.0
10.504	7.0
10.519	4.0
10.533	7.0
10.548	9.0
10.563	6.0
10.578	10.0
10.593	9.0
10.608	8.0
10.622	8.0
10.637	6.0
10.652	11.0
10.667	9.0
10.682	10.0
10.696	10.0
10.711	5.0
10.726	11.0
10.741	5.0
10.756	7.0
10.771	7.0
10.785	8.0
10.8	6.0
10.815	12.0
10.83	8.0
10.845	6.0
10.86	10.0
10.874	8.0
10.889	11.0
10.904	8.0
10.919	10.0
10.934	7.0
10.949	7.0
10.963	6.0
10.978	7.0
10.993	9.0
11.008	8.0
11.023	8.0
11.038	8.0
11.053	8.0
11.067	7.0
11.082	9.0
11.097	4.0
11.112	6.0
11.127	9.0
11.142	8.0
11.157	10.0
11.172	7.0
11.186	6.0
11.201	7.0
11.216	6.0
11.231	4.0
11.246	12.0
11.261	8.0
11.276	12.0
11.291	10.0
11.305	8.0
11.32	6.0
11.335	5.0
11.35	7.0
11.365	4.0
11.38	8.0
11.395	6.0
11.41	5.0
11.424	14.0
11.439	4.0
11.454	6.0
11.469	9.0
11.484	14.0
11.499	9.0
11.514	7.0
11.529	14.0
11.544	9.0
11.558	11.0
11.573	9.0
11.588	11.0
11.603	7.0
11.618	6.0
11.633	5.0
11.648	6.0
11.663	6.0
11.678	7.0
11.693	9.0
11.707	10.0
11.722	11.0
11.737	10.0
11.752	11.0
11.767	3.0
11.782	5.0
11.797	7.0
11.812	9.0
11.827	8.0
11.842	11.0
11.856	7.0
11.871	11.0
11.886	13.0
11.901	8.0
11.916	8.0
11.931	14.0
11.946	5.0
11.961	10.0
11.976	7.0
11.991	13.0
12.006	14.0
12.02	9.0
12.035	12.0
12.05	7.0
12.065	11.0
12.08	3.0
12.095	8.0
12.11	11.0
12.125	10.0
12.14	11.0
12.155	8.0
12.17	11.0
12.184	12.0
12.199	9.0
12.214	8.0
12.229	14.0
12.244	9.0
12.259	8.0
12.274	19.0
12.289	9.0
12.304	10.0
12.319	11.0
12.334	8.0
12.348	18.0
12.363	13.0
12.378	10.0
12.393	17.0
12.408	11.0
12.423	4.0
12.438	14.0
12.453	16.0
12.468	13.0
12.483	14.0
12.498	9.0
12.513	16.0
12.527	10.0
12.542	11.0
12.557	13.0
12.572	7.0
12.587	14.0
12.602	9.0
12.617	15.0
12.632	15.0
12.647	11.0
12.662	14.0
12.677	11.0
12.692	11.0
12.707	16.0
12.721	13.0
12.736	18.0
12.751	16.0
12.766	8.0
12.781	7.0
12.796	13.0
12.811	19.0
12.826	11.0
12.841	12.0
12.856	12.0
12.871	14.0
12.886	13.0
12.9	9.0
12.915	20.0
12.93	20.0
12.945	21.0
12.96	20.0
12.975	19.0
12.99	18.0
13.005	12.0
13.02	14.0
13.035	25.0
13.05	14.0
13.065	22.0
13.08	21.0
13.094	15.0
13.109	9.0
13.124	17.0
13.139	18.0
13.154	16.0
13.169	19.0
13.184	22.0
13.199	15.0
13.214	19.0
13.229	19.0
13.244	16.0
13.259	12.0
13.274	19.0
13.288	22.0
13.303	18.0
13.318	24.0
13.333	20.0
13.348	22.0
13.363	23.0
13.378	29.0
13.393	25.0
13.408	19.0
13.423	27.0
13.438	30.0
13.453	32.0
13.468	34.0
13.482	28.0
13.497	34.0
13.512	36.0
13.527	36.0
13.542	45.0
13.557	31.0
13.572	54.0
13.587	59.0
13.602	58.0
13.617	73.0
13.632	85.0
13.647	70.0
13.662	73.0
13.677	77.0
13.691	69.0
13.706	97.0
13.721	91.0
13.736	101.0
13.751	111.0
13.766	124.0
13.781	101.0
13.796	121.0
13.811	149.0
13.826	117.0
13.841	148.0
13.856	144.0
13.871	112.0
13.885	105.0
13.9	91.0
13.915	71.0
13.93	76.0
13.945	72.0
13.96	74.0
13.975	43.0
13.99	33.0
14.005	33.0
14.02	29.0
14.035	32.0
14.05	26.0
14.065	37.0
14.08	34.0
14.094	32.0
14.109	25.0
14.124	22.0
14.139	19.0
14.154	21.0
14.169	25.0
14.184	24.0
14.199	19.0
14.214	17.0
14.229	25.0
14.244	25.0
14.259	26.0
14.274	25.0
14.288	19.0
14.303	16.0
14.318	21.0
14.333	17.0
14.348	19.0
14.363	27.0
14.378	25.0
14.393	20.0
14.408	12.0
14.423	19.0
14.438	13.0
14.453	20.0
14.468	13.0
14.482	25.0
14.497	23.0
14.512	19.0
14.527	19.0
14.542	8.0
14.557	12.0
14.572	18.0
14.587	11.0
14.602	20.0
14.617	13.0
14.632	21.0
14.647	11.0
14.661	13.0
14.676	13.0
14.691	19.0
14.706	17.0
14.721	14.0
14.736	15.0
14.751	15.0
14.766	11.0
14.781	12.0
14.796	16.0
14.811	17.0
14.826	14.0
14.84	17.0
14.855	16.0
14.87	14.0
14.885	19.0
14.9	12.0
14.915	22.0
14.93	18.0
14.945	16.0
14.96	18.0
14.975	12.0
14.989	13.0
15.004	13.0
15.019	13.0
15.034	13.0
15.049	15.0
15.064	11.0
15.079	14.0
15.094	8.0
15.109	20.0
15.124	19.0
15.138	14.0
15.153	14.0
15.168	18.0
15.183	18.0
15.198	18.0
15.213	19.0
15.228	9.0
15.243	11.0
15.258	20.0
15.272	20.0
15.287	14.0
15.302	18.0
15.317	19.0
15.332	11.0
15.347	18.0
15.362	14.0
15.377	20.0
15.391	25.0
15.406	15.0
15.421	16.0
15.436	15.0
15.451	14.0
15.466	13.0
15.481	19.0
15.496	17.0
15.51	14.0
15.525	16.0
15.54	13.0
15.555	11.0
15.57	17.0
15.585	17.0
15.6	15.0
15.614	14.0
15.629	9.0
15.644	11.0
15.659	14.0
15.674	11.0
15.689	12.0
15.704	14.0
15.718	13.0
15.733	11.0
15.748	11.0
15.763	12.0
15.778	19.0
15.793	8.0
15.808	17.0
15.822	16.0
15.837	5.0
15.852	9.0
15.867	12.0
15.882	13.0
15.897	20.0
15.911	13.0
15.926	19.0
15.941	16.0
15.956	18.0
15.971	10.0
15.986	19.0
16.0	18.0
16.015	15.0
16.03	15.0
16.045	16.0
16.06	15.0
16.074	20.0
16.089	18.0
16.104	11.0
16.119	14.0
16.134	14.0
16.149	18.0
16.163	15.0
16.178	16.0
16.193	13.0
16.208	15.0
16.223	15.0
16.237	14.0
16.252	11.0
16.267	16.0
16.282	13.0
16.297	18.0
16.311	16.0
16.326	10.0
16.341	11.0
16.356	10.0
16.37	14.0
16.385	9.0
16.4	14.0
16.415	19.0
16.43	8.0
16.444	16.0
16.459	10.0
16.474	9.0
16.489	22.0
16.504	19.0
16.518	16.0
16.533	18.0
16.548	22.0
16.563	12.0
16.577	12.0
16.592	27.0
16.607	14.0
16.622	23.0
16.637	27.0
16.651	11.0
16.666	23.0
16.681	33.0
16.696	23.0
16.71	29.0
16.725	25.0
16.74	28.0
16.755	24.0
16.77	30.0
16.784	37.0
16.799	37.0
16.814	50.0
16.829	49.0
16.843	45.0
16.858	53.0
16.873	54.0
16.888	62.0
16.902	69.0
16.917	75.0
16.932	63.0
16.947	64.0
16.961	66.0
16.976	81.0
16.991	65.0
17.006	69.0
17.021	48.0
17.035	59.0
17.05	56.0
17.065	54.0
17.08	27.0
17.094	49.0
17.109	30.0
17.124	33.0
17.139	25.0
17.153	26.0
17.168	18.0
17.183	18.0
17.198	25.0
17.212	21.0
17.227	14.0
17.242	8.0
17.257	17.0
17.271	16.0
17.286	18.0
17.301	22.0
17.316	22.0
17.33	16.0
17.345	10.0
17.36	7.0
17.375	21.0
17.39	13.0
17.404	14.0
17.419	11.0
17.434	8.0
17.449	17.0
17.463	14.0
17.478	8.0
17.493	14.0
17.508	12.0
17.522	8.0
17.537	10.0
17.552	7.0
17.567	11.0
17.581	15.0
17.596	14.0
17.611	15.0
17.626	15.0
17.641	12.0
17.655	15.0
17.67	10.0
17.685	16.0
17.7	6.0
17.714	9.0
17.729	10.0
17.744	12.0
17.759	6.0
17.773	11.0
17.788	11.0
17.803	8.0
17.818	16.0
17.833	14.0
17.847	15.0
17.862	14.0
17.877	10.0
17.892	9.0
17.906	12.0
17.921	13.0
17.936	7.0
17.951	9.0
17.966	14.0
17.98	8.0
17.995	10.0
18.01	11.0
18.025	12.0
18.04	8.0
18.054	14.0
18.069	13.0
18.084	14.0
18.099	10.0
18.114	7.0
18.128	11.0
18.143	10.0
18.158	16.0
18.173	14.0
18.188	8.0
18.202	13.0
18.217	13.0
18.232	11.0
18.247	15.0
18.262	9.0
18.276	14.0
18.291	6.0
18.306	13.0
18.321	9.0
18.336	8.0
18.35	12.0
18.365	13.0
18.38	11.0
18.395	14.0
18.41	16.0
18.424	12.0
18.439	12.0
18.454	14.0
18.469	17.0
18.484	14.0
18.498	17.0
18.513	12.0
18.528	10.0
18.543	6.0
18.558	13.0
18.573	7.0
18.587	14.0
18.602	11.0
18.617	9.0
18.632	8.0
18.647	13.0
18.661	13.0
18.676	9.0
18.691	7.0
18.706	15.0
18.721	10.0
18.736	9.0
18.75	6.0
18.765	14.0
18.78	11.0
18.795	10.0
18.81	15.0
18.825	18.0
18.839	13.0
18.854	5.0
18.869	12.0
18.884	4.0
18.899	17.0
18.913	12.0
18.928	10.0
18.943	14.0
18.958	11.0
18.973	13.0
18.988	17.0
19.002	12.0
19.017	11.0
19.032	17.0
19.047	17.0
19.062	8.0
19.077	12.0
19.091	14.0
19.106	12.0
19.121	17.0
19.136	10.0
19.151	11.0
19.165	14.0
19.18	8.0
19.195	21.0
19.21	17.0
19.225	11.0
19.24	10.0
19.254	18.0
19.269	15.0
19.284	13.0
19.299	12.0
19.314	12.0
19.329	18.0
19.343	14.0
19.358	15.0
19.373	17.0
19.388	16.0
19.403	18.0
19.417	33.0
19.432	20.0
19.447	21.0
19.462	12.0
19.477	39.0
19.492	34.0
19.506	35.0
19.521	29.0
19.536	28.0
19.551	35.0
19.566	43.0
19.58	35.0
19.595	38.0
19.61	45.0
19.625	39.0
19.64	43.0
19.655	31.0
19.669	31.0
19.684	36.0
19.699	25.0
19.714	21.0
19.729	19.0
19.743	15.0
19.758	19.0
19.773	25.0
19.788	19.0
19.803	14.0
19.817	14.0
19.832	14.0
19.847	10.0
19.862	12.0
19.877	17.0
19.891	23.0
19.906	11.0
19.921	14.0
19.936	17.0
19.951	13.0
19.965	18.0
19.98	18.0
19.995	18.0
20.01	8.0
20.025	10.0
20.039	18.0
20.054	11.0
20.069	15.0
20.084	10.0
20.099	9.0
20.113	12.0
20.128	10.0
20.143	17.0
20.158	11.0
20.173	13.0
20.187	11.0
20.202	5.0
20.217	13.0
20.232	17.0
20.246	15.0
20.261	11.0
20.276	12.0
20.291	9.0
20.306	13.0
20.32	9.0
20.335	15.0
20.35	18.0
20.365	16.0
20.38	11.0
20.394	11.0
20.409	6.0
20.424	11.0
20.439	9.0
20.453	18.0
20.468	15.0
20.483	10.0
20.498	9.0
20.513	12.0
20.527	5.0
20.542	17.0
20.557	15.0
20.572	14.0
20.586	13.0
20.601	13.0
20.616	9.0
20.631	11.0
20.646	10.0
20.66	9.0
20.675	8.0
20.69	8.0
20.705	13.0
20.719	12.0
20.734	16.0
20.749	12.0
20.764	7.0
20.779	12.0
20.793	12.0
20.808	14.0
20.823	12.0
20.838	10.0
20.853	11.0
20.867	9.0
20.882	9.0
20.897	4.0
20.912	8.0
20.926	13.0
20.941	7.0
20.956	10.0
20.971	11.0
20.986	12.0
21.0	11.0
21.015	12.0
21.03	12.0
21.045	17.0
21.06	10.0
21.074	5.0
21.089	14.0
21.104	17.0
21.119	11.0
21.134	8.0
21.148	10.0
21.163	20.0
21.178	17.0
21.193	10.0
21.208	12.0
21.222	14.0
21.237	13.0
21.252	17.0
21.267	16.0
21.282	15.0
21.296	13.0
21.311	13.0
21.326	11.0
21.341	8.0
21.356	13.0
21.37	11.0
21.385	12.0
21.4	11.0
21.415	11.0
21.43	13.0
21.444	11.0
21.459	2.0
21.474	9.0
21.489	12.0
21.504	10.0
21.519	13.0
21.533	11.0
21.548	11.0
21.563	15.0
21.578	16.0
21.593	8.0
21.608	12.0
21.622	12.0
21.637	17.0
21.652	18.0
21.667	19.0
21.682	16.0
21.697	18.0
21.712	20.0
21.726	18.0
21.741	29.0
21.756	32.0
21.771	31.0
21.786	30.0
21.801	36.0
21.816	31.0
21.83	58.0
21.845	60.0
21.86	61.0
21.875	69.0
21.89	68.0
21.905	75.0
21.92	78.0
21.935	77.0
21.949	84.0
21.964	87.0
21.979	69.0
21.994	95.0
22.009	72.0
22.024	55.0
22.039	57.0
22.054	62.0
22.069	53.0
22.083	40.0
22.098	50.0
22.113	36.0
22.128	45.0
22.143	23.0
22.158	29.0
22.173	22.0
22.188	15.0
22.203	20.0
22.218	18.0
22.233	15.0
22.248	12.0
22.262	9.0
22.277	20.0
22.292	14.0
22.307	16.0
22.322	14.0
22.337	9.0
22.352	12.0
22.367	12.0
22.382	15.0
22.397	14.0
22.412	15.0
22.427	12.0
22.442	15.0
22.457	13.0
22.472	13.0
22.487	8.0
22.502	12.0
22.516	12.0
22.531	6.0
22.546	19.0
22.561	11.0
22.576	9.0
22.591	12.0
22.606	7.0
22.621	8.0
22.636	9.0
22.651	9.0
22.666	8.0
22.681	11.0
22.696	15.0
22.711	12.0
22.726	13.0
22.741	13.0
22.756	6.0
22.771	12.0
22.786	10.0
22.801	8.0
22.816	11.0
22.831	16.0
22.846	7.0
22.861	13.0
22.876	7.0
22.891	12.0
22.906	12.0
22.92	6.0
22.935	13.0
22.95	8.0
22.965	15.0
22.98	13.0
22.995	9.0
23.01	2.0
23.025	10.0
23.04	10.0
23.055	12.0
23.07	11.0
23.085	13.0
23.1	7.0
23.115	3.0
23.13	6.0
23.145	7.0
23.16	14.0
23.175	8.0
23.19	16.0
23.205	12.0
23.22	17.0
23.235	15.0
23.25	11.0
23.265	11.0
23.28	9.0
23.295	11.0
23.31	5.0
23.325	3.0
23.34	9.0
23.355	11.0
23.37	8.0
23.384	7.0
23.399	10.0
23.414	11.0
23.429	13.0
23.444	9.0
23.459	6.0
23.474	10.0
23.489	9.0
23.504	17.0
23.519	12.0
23.534	12.0
23.549	8.0
23.564	5.0
23.579	8.0
23.594	9.0
23.609	15.0
23.624	10.0
23.639	9.0
23.654	6.0
23.668	12.0
23.683	11.0
23.698	13.0
23.713	9.0
23.728	15.0
23.743	13.0
23.758	17.0
23.773	13.0
23.788	16.0
23.803	13.0
23.818	16.0
23.833	8.0
23.848	18.0
23.862	14.0
23.877	13.0
23.892	24.0
23.907	29.0
23.922	24.0
23.937	23.0
23.952	30.0
23.967	36.0
23.982	35.0
23.997	34.0
24.011	35.0
24.026	35.0
24.041	54.0
24.056	53.0
24.071	56.0
24.086	68.0
24.101	49.0
24.116	39.0
24.131	48.0
24.145	43.0
24.16	44.0
24.175	39.0
24.19	30.0
24.205	35.0
24.22	35.0
24.235	27.0
24.249	28.0
24.264	27.0
24.279	20.0
24.294	25.0
24.309	20.0
24.324	12.0
24.338	12.0
24.353	17.0
24.368	13.0
24.383	18.0
24.398	14.0
24.413	15.0
24.428	10.0
24.442	16.0
24.457	10.0
24.472	9.0
24.487	13.0
24.502	12.0
24.516	14.0
24.531	7.0
24.546	7.0
24.561	14.0
24.576	8.0
24.591	12.0
24.605	9.0
24.62	10.0
24.635	11.0
24.65	10.0
24.665	14.0
24.679	6.0
24.694	15.0
24.709	10.0
24.724	16.0
24.739	7.0
24.753	13.0
24.768	8.0
24.783	9.0
24.798	9.0
24.813	14.0
24.827	9.0
24.842	9.0
24.857	12.0
24.872	16.0
24.886	7.0
24.901	11.0
24.916	6.0
24.931	16.0
24.946	7.0
24.96	12.0
24.975	12.0
24.99	10.0
25.005	10.0
25.019	11.0
25.034	13.0
25.049	6.0
25.064	13.0
25.078	8.0
25.093	5.0
25.108	10.0
25.123	7.0
25.138	6.0
25.152	17.0
25.167	15.0
25.182	11.0
25.197	10.0
25.211	7.0
25.226	16.0
25.241	14.0
25.256	13.0
25.27	12.0
25.285	5.0
25.3	19.0
25.315	9.0
25.329	9.0
25.344	10.0
25.359	9.0
25.374	14.0
25.388	7.0
25.403	13.0
25.418	5.0
25.433	7.0
25.447	14.0
25.462	6.0
25.477	9.0
25.492	14.0
25.506	10.0
25.521	8.0
25.536	7.0
25.55	6.0
25.565	14.0
25.58	4.0
25.595	7.0
25.609	9.0
25.624	8.0
25.639	10.0
25.654	9.0
25.668	12.0
25.683	9.0
25.698	14.0
25.713	8.0
25.727	6.0
25.742	10.0
25.757	6.0
25.772	6.0
25.786	12.0
25.801	14.0
25.816	13.0
25.83	17.0
25.845	7.0
25.86	4.0
25.875	10.0
25.889	10.0
25.904	11.0
25.919	7.0
25.934	11.0
25.948	10.0
25.963	6.0
25.978	8.0
25.992	9.0
26.007	16.0
26.022	16.0
26.037	14.0
26.051	8.0
26.066	9.0
26.081	14.0
26.096	15.0
26.11	9.0
26.125	9.0
26.14	9.0
26.155	13.0
26.169	12.0
26.184	10.0
26.199	10.0
26.213	6.0
26.228	6.0
26.243	8.0
26.258	15.0
26.272	11.0
26.287	6.0
26.302	10.0
26.317	5.0
26.331	7.0
26.346	7.0
26.361	9.0
26.376	8.0
26.39	12.0
26.405	13.0
26.42	8.0
26.434	6.0
26.449	10.0
26.464	10.0
26.479	3.0
26.493	7.0
26.508	9.0
26.523	9.0
26.538	9.0
26.552	10.0
26.567	10.0
26.582	8.0
26.597	10.0
26.611	10.0
26.626	11.0
26.641	12.0
26.656	6.0
26.67	18.0
26.685	15.0
26.7	15.0
26.715	13.0
26.729	9.0
26.744	8.0
26.759	14.0
26.773	6.0
26.788	5.0
26.803	19.0
26.818	6.0
26.832	14.0
26.847	14.0
26.862	9.0
26.877	10.0
26.891	11.0
26.906	9.0
26.921	8.0
26.936	12.0
26.95	17.0
26.965	8.0
26.98	18.0
26.995	11.0
27.01	12.0
27.024	15.0
27.039	10.0
27.054	8.0
27.069	12.0
27.083	13.0
27.098	4.0
27.113	16.0
27.128	12.0
27.142	12.0
27.157	13.0
27.172	7.0
27.187	10.0
27.201	7.0
27.216	12.0
27.231	7.0
27.246	8.0
27.261	6.0
27.275	17.0
27.29	6.0
27.305	11.0
27.32	7.0
27.334	12.0
27.349	10.0
27.364	7.0
27.379	11.0
27.394	7.0
27.408	11.0
27.423	15.0
27.438	12.0
27.453	15.0
27.467	15.0
27.482	13.0
27.497	10.0
27.512	10.0
27.527	5.0
27.541	13.0
27.556	13.0
27.571	9.0
27.586	9.0
27.601	10.0
27.615	11.0
27.63	12.0
27.645	12.0
27.66	13.0
27.675	7.0
27.689	10.0
27.704	12.0
27.719	11.0
27.734	13.0
27.749	18.0
27.763	19.0
27.778	23.0
27.793	15.0
27.808	20.0
27.823	20.0
27.838	17.0
27.852	26.0
27.867	18.0
27.882	24.0
27.897	20.0
27.912	20.0
27.926	26.0
27.941	23.0
27.956	24.0
27.971	24.0
27.986	17.0
28.001	21.0
28.015	25.0
28.03	21.0
28.045	23.0
28.06	22.0
28.075	20.0
28.09	17.0
28.105	16.0
28.119	12.0
28.134	15.0
28.149	9.0
28.164	18.0
28.179	12.0
28.194	10.0
28.208	13.0
28.223	11.0
28.238	11.0
28.253	14.0
28.268	8.0
28.283	7.0
28.298	13.0
28.312	19.0
28.327	11.0
28.342	9.0
28.357	13.0
28.372	6.0
28.387	13.0
28.402	12.0
28.417	12.0
28.431	9.0
28.446	17.0
28.461	13.0
28.476	12.0
28.491	12.0
28.506	8.0
28.521	10.0
28.536	14.0
28.55	13.0
28.565	10.0
28.58	7.0
28.595	11.0
28.61	15.0
28.625	8.0
28.64	12.0
28.655	13.0
28.669	10.0
28.684	11.0
28.699	9.0
28.714	9.0
28.729	9.0
28.744	15.0
28.759	10.0
28.774	14.0
28.788	9.0
28.803	10.0
28.818	9.0
28.833	9.0
28.848	14.0
28.863	10.0
28.878	16.0
28.893	10.0
28.908	9.0
28.922	2.0
28.937	8.0
28.952	7.0
28.967	11.0
28.982	6.0
28.997	8.0
29.012	9.0
29.027	16.0
29.041	5.0
29.056	11.0
29.071	17.0
29.086	17.0
29.101	8.0
29.116	9.0
29.131	13.0
29.146	10.0
29.16	9.0
29.175	9.0
29.19	5.0
29.205	9.0
29.22	8.0
29.235	8.0
29.25	10.0
29.265	6.0
29.279	9.0
29.294	15.0
29.309	15.0
29.324	13.0
29.339	13.0
29.354	11.0
29.369	9.0
29.384	16.0
29.398	18.0
29.413	11.0
29.428	18.0
29.443	18.0
29.458	24.0
29.473	24.0
29.488	26.0
29.502	24.0
29.517	28.0
29.532	34.0
29.547	33.0
29.562	40.0
29.577	47.0
29.592	48.0
29.606	40.0
29.621	51.0
29.636	61.0
29.651	44.0
29.666	48.0
29.681	38.0
29.695	44.0
29.71	50.0
29.725	39.0
29.74	28.0
29.755	36.0
29.77	24.0
29.784	38.0
29.799	36.0
29.814	20.0
29.829	34.0
29.844	28.0
29.859	27.0
29.873	16.0
29.888	14.0
29.903	19.0
29.918	13.0
29.933	15.0
29.947	18.0
29.962	10.0
29.977	12.0
29.992	12.0
30.007	13.0
30.021	16.0
30.036	9.0
30.051	7.0
30.066	8.0
30.081	10.0
30.095	10.0
30.11	5.0
30.125	9.0
30.14	14.0
30.155	10.0
30.169	14.0
30.184	14.0
30.199	13.0
30.214	7.0
30.228	12.0
30.243	9.0
30.258	14.0
30.273	16.0
30.288	12.0
30.302	11.0
30.317	9.0
30.332	11.0
30.347	14.0
30.361	11.0
30.376	15.0
30.391	6.0
30.406	14.0
30.42	15.0
30.435	5.0
30.45	15.0
30.465	15.0
30.479	13.0
30.494	8.0
30.509	14.0
30.524	10.0
30.538	12.0
30.553	7.0
30.568	10.0
30.583	13.0
30.597	11.0
30.612	9.0
30.627	8.0
30.641	8.0
30.656	13.0
30.671	9.0
30.686	15.0
30.7	9.0
30.715	10.0
30.73	13.0
30.745	13.0
30.759	7.0
30.774	8.0
30.789	11.0
30.803	14.0
30.818	11.0
30.833	11.0
30.848	5.0
30.862	13.0
30.877	8.0
30.892	10.0
30.906	15.0
30.921	12.0
30.936	11.0
30.951	12.0
30.965	12.0
30.98	18.0
30.995	13.0
31.009	12.0
31.024	14.0
31.039	12.0
31.053	7.0
31.068	11.0
31.083	14.0
31.098	23.0
31.112	11.0
31.127	26.0
31.142	31.0
31.156	21.0
31.171	22.0
31.186	33.0
31.2	24.0
31.215	32.0
31.23	25.0
31.245	44.0
31.259	30.0
31.274	38.0
31.289	27.0
31.303	40.0
31.318	30.0
31.333	48.0
31.347	32.0
31.362	24.0
31.377	32.0
31.392	29.0
31.406	29.0
31.421	18.0
31.436	24.0
31.45	27.0
31.465	23.0
31.48	34.0
31.494	24.0
31.509	19.0
31.524	17.0
31.538	23.0
31.553	13.0
31.568	18.0
31.583	12.0
31.597	9.0
31.612	7.0
31.627	8.0
31.641	9.0
31.656	12.0
31.671	9.0
31.685	15.0
31.7	9.0
31.715	11.0
31.729	11.0
31.744	15.0
31.759	14.0
31.774	10.0
31.788	16.0
31.803	7.0
31.818	5.0
31.832	12.0
31.847	10.0
31.862	8.0
31.876	14.0
31.891	10.0
31.906	11.0
31.92	12.0
31.935	6.0
31.95	14.0
31.965	12.0
31.979	7.0
31.994	15.0
32.009	14.0
32.023	11.0
32.038	12.0
32.053	11.0
32.067	14.0
32.082	10.0
32.097	7.0
32.112	12.0
32.126	8.0
32.141	7.0
32.156	13.0
32.17	10.0
32.185	12.0
32.2	13.0
32.214	14.0
32.229	12.0
32.244	13.0
32.259	12.0
32.273	8.0
32.288	8.0
32.303	13.0
32.317	9.0
32.332	15.0
32.347	13.0
32.362	9.0
32.376	9.0
32.391	9.0
32.406	8.0
32.42	6.0
32.435	9.0
32.45	10.0
32.465	10.0
32.479	8.0
32.494	11.0
32.509	7.0
32.523	10.0
32.538	8.0
32.553	14.0
32.568	15.0
32.582	15.0
32.597	13.0
32.612	12.0
32.627	15.0
32.641	10.0
32.656	12.0
32.671	12.0
32.685	26.0
32.7	11.0
32.715	21.0
32.73	9.0
32.744	18.0
32.759	18.0
32.774	21.0
32.788	17.0
32.803	31.0
32.818	23.0
32.833	23.0
32.847	31.0
32.862	30.0
32.877	32.0
32.892	21.0
32.906	13.0
32.921	13.0
32.936	18.0
32.951	23.0
32.965	27.0
32.98	19.0
32.995	22.0
33.009	24.0
33.024	13.0
33.039	20.0
33.054	22.0
33.068	23.0
33.083	15.0
33.098	18.0
33.113	17.0
33.127	11.0
33.142	10.0
33.157	10.0
33.172	15.0
33.186	12.0
33.201	3.0
33.216	11.0
33.231	18.0
33.245	10.0
33.26	10.0
33.275	9.0
33.29	2.0
33.304	12.0
33.319	8.0
33.334	9.0
33.349	5.0
33.363	12.0
33.378	8.0
33.393	12.0
33.408	13.0
33.422	16.0
33.437	11.0
33.452	7.0
33.467	7.0
33.481	7.0
33.496	8.0
33.511	9.0
33.526	13.0
33.54	14.0
33.555	9.0
33.57	12.0
33.585	3.0
33.599	6.0
33.614	6.0
33.629	12.0
33.644	10.0
33.658	10.0
33.673	11.0
33.688	12.0
33.703	6.0
33.718	12.0
33.732	6.0
33.747	16.0
33.762	5.0
33.777	9.0
33.791	14.0
33.806	3.0
33.821	7.0
33.836	7.0
33.85	13.0
33.865	15.0
33.88	7.0
33.895	11.0
33.91	10.0
33.924	9.0
33.939	6.0
33.954	17.0
33.969	9.0
33.983	12.0
33.998	8.0
34.013	16.0
34.028	17.0
34.042	7.0
34.057	15.0
34.072	7.0
34.087	15.0
34.102	10.0
34.116	7.0
34.131	8.0
34.146	9.0
34.161	15.0
34.175	15.0
34.19	13.0
34.205	9.0
34.22	10.0
34.235	17.0
34.249	7.0
34.264	12.0
34.279	9.0
34.294	16.0
34.309	12.0
34.323	10.0
34.338	10.0
34.353	13.0
34.368	12.0
34.382	12.0
34.397	17.0
34.412	9.0
34.427	14.0
34.442	15.0
34.456	12.0
34.471	9.0
34.486	11.0
34.501	12.0
34.516	7.0
34.53	11.0
34.545	13.0
34.56	10.0
34.575	5.0
34.59	7.0
34.604	11.0
34.619	11.0
34.634	11.0
34.649	9.0
34.664	14.0
34.678	13.0
34.693	8.0
34.708	9.0
34.723	9.0
34.738	13.0
34.752	7.0
34.767	8.0
34.782	7.0
34.797	13.0
34.812	9.0
34.826	9.0
34.841	13.0
34.856	11.0
34.871	7.0
34.886	13.0
34.9	7.0
34.915	11.0
34.93	15.0
34.945	11.0
34.96	11.0
34.974	14.0
34.989	8.0
35.004	10.0
35.019	8.0
35.034	10.0
35.048	6.0
35.063	10.0
35.078	9.0
35.093	13.0
35.108	13.0
35.122	8.0
35.137	7.0
35.152	5.0
35.167	14.0
35.182	9.0
35.196	8.0
35.211	3.0
35.226	10.0
35.241	11.0
35.256	4.0
35.27	10.0
35.285	8.0
35.3	5.0
35.315	9.0
35.33	14.0
35.344	5.0
35.359	3.0
35.374	10.0
35.389	8.0
35.404	9.0
35.418	7.0
35.433	4.0
35.448	7.0
35.463	13.0
35.478	14.0
35.493	8.0
35.507	9.0
35.522	8.0
35.537	10.0
35.552	9.0
35.567	11.0
35.581	2.0
35.596	9.0
35.611	8.0
35.626	11.0
35.641	17.0
35.655	12.0
35.67	18.0
35.685	10.0
35.7	13.0
35.715	17.0
35.729	10.0
35.744	17.0
35.759	17.0
35.774	17.0
35.789	21.0
35.804	16.0
35.818	23.0
35.833	23.0
35.848	7.0
35.863	18.0
35.878	16.0
35.892	15.0
35.907	15.0
35.922	17.0
35.937	12.0
35.952	16.0
35.966	17.0
35.981	16.0
35.996	15.0
36.011	16.0
36.026	7.0
36.04	17.0
36.055	11.0
36.07	9.0
36.085	11.0
36.1	9.0
36.114	15.0
36.129	6.0
36.144	5.0
36.159	11.0
36.174	7.0
36.189	14.0
36.203	9.0
36.218	8.0
36.233	5.0
36.248	2.0
36.263	11.0
36.277	9.0
36.292	9.0
36.307	7.0
36.322	8.0
36.337	7.0
36.351	9.0
36.366	7.0
36.381	8.0
36.396	7.0
36.411	9.0
36.426	13.0
36.44	10.0
36.455	7.0
36.47	7.0
36.485	8.0
36.5	8.0
36.514	7.0
36.529	14.0
36.544	8.0
36.559	12.0
36.574	5.0
36.589	6.0
36.603	7.0
36.618	7.0
36.633	8.0
36.648	9.0
36.663	7.0
36.677	5.0
36.692	6.0
36.707	16.0
36.722	6.0
36.737	7.0
36.752	1.0
36.766	8.0
36.781	5.0
36.796	10.0
36.811	13.0
36.826	14.0
36.841	10.0
36.855	6.0
36.87	4.0
36.885	8.0
36.9	6.0
36.915	15.0
36.93	13.0
36.944	8.0
36.959	11.0
36.974	10.0
36.989	11.0
37.004	5.0
37.019	7.0
37.033	12.0
37.048	16.0
37.063	16.0
37.078	24.0
37.093	25.0
37.108	19.0
37.123	23.0
37.137	21.0
37.152	18.0
37.167	25.0
37.182	29.0
37.197	23.0
37.212	25.0
37.226	23.0
37.241	29.0
37.256	18.0
37.271	26.0
37.286	16.0
37.301	19.0
37.316	18.0
37.331	18.0
37.345	16.0
37.36	25.0
37.375	20.0
37.39	14.0
37.405	18.0
37.42	17.0
37.435	25.0
37.45	16.0
37.464	19.0
37.479	17.0
37.494	7.0
37.509	18.0
37.524	9.0
37.539	8.0
37.554	10.0
37.569	13.0
37.583	6.0
37.598	12.0
37.613	6.0
37.628	15.0
37.643	10.0
37.658	7.0
37.673	8.0
37.688	4.0
37.703	4.0
37.718	10.0
37.733	6.0
37.747	7.0
37.762	7.0
37.777	5.0
37.792	12.0
37.807	11.0
37.822	6.0
37.837	6.0
37.852	2.0
37.867	10.0
37.882	9.0
37.897	9.0
37.912	7.0
37.927	7.0
37.941	9.0
37.956	9.0
37.971	11.0
37.986	10.0
38.001	5.0
38.016	5.0
38.031	5.0
38.046	5.0
38.061	6.0
38.076	10.0
38.091	2.0
38.106	3.0
38.121	7.0
38.136	7.0
38.151	11.0
38.166	8.0
38.181	5.0
38.196	4.0
38.211	5.0
38.226	6.0
38.241	12.0
38.256	9.0
38.271	1.0
38.285	6.0
38.3	5.0
38.315	7.0
38.33	6.0
38.345	7.0
38.36	4.0
38.375	4.0
38.39	5.0
38.405	7.0
38.42	6.0
38.435	6.0
38.45	7.0
38.465	8.0
38.48	5.0
38.495	5.0
38.51	9.0
38.525	7.0
38.54	9.0
38.555	10.0
38.57	7.0
38.585	1.0
38.6	5.0
38.615	9.0
38.63	3.0
38.645	9.0
38.66	7.0
38.675	6.0
38.69	5.0
38.705	4.0
38.72	6.0
38.735	7.0
38.75	9.0
38.765	5.0
38.78	7.0
38.795	8.0
38.81	8.0
38.825	5.0
38.84	3.0
38.855	3.0
38.87	4.0
38.885	3.0
38.9	5.0
38.915	6.0
38.93	11.0
38.945	7.0
38.96	7.0
38.975	10.0
38.99	5.0
39.005	5.0
39.02	5.0
39.035	9.0
39.05	1.0
39.065	6.0
39.08	3.0
39.095	5.0
39.11	6.0
39.125	7.0
39.14	8.0
39.155	8.0
39.17	6.0
39.185	6.0
39.2	7.0
39.215	8.0
39.23	2.0
39.245	7.0
39.26	5.0
39.275	10.0
39.29	8.0
39.305	7.0
39.32	3.0
39.335	4.0
39.35	4.0
39.365	4.0
39.38	12.0
39.395	5.0
39.409	5.0
39.424	5.0
39.439	6.0
39.454	6.0
39.469	6.0
39.484	7.0
39.499	6.0
39.514	4.0
39.529	4.0
39.544	9.0
39.559	5.0
39.574	10.0
39.589	5.0
39.604	1.0
39.619	6.0
39.634	6.0
39.649	13.0
39.664	6.0
39.678	6.0
39.693	5.0
39.708	4.0
39.723	12.0
39.738	7.0
39.753	5.0
39.768	3.0
39.783	11.0
39.798	12.0
39.813	9.0
39.827	14.0
39.842	9.0
39.857	11.0
39.872	11.0
39.887	10.0
39.902	8.0
39.917	5.0
39.932	5.0
39.947	8.0
39.961	11.0
39.976	9.0
39.991	6.0
40.006	1.0
40.021	7.0
40.036	9.0
40.051	5.0
40.065	8.0
40.08	5.0
40.095	12.0
40.11	6.0
40.125	8.0
40.14	8.0
40.154	5.0
40.169	5.0
40.184	4.0
40.199	5.0
40.214	7.0
40.228	3.0
40.243	1.0
40.258	6.0
40.273	5.0
40.288	7.0
40.302	6.0
40.317	3.0
40.332	8.0
40.347	6.0
40.362	8.0
40.376	5.0
40.391	7.0
40.406	3.0
40.421	7.0
40.436	6.0
40.45	6.0
40.465	1.0
40.48	3.0
40.495	6.0
40.509	4.0
40.524	6.0
40.539	6.0
40.554	9.0
40.568	7.0
40.583	7.0
40.598	6.0
40.613	2.0
40.627	6.0
40.642	7.0
40.657	6.0
40.672	7.0
40.686	14.0
40.701	8.0
40.716	5.0
40.731	5.0
40.745	5.0
40.76	12.0
40.775	7.0
40.79	9.0
40.804	6.0
40.819	6.0
40.834	7.0
40.849	4.0
40.863	6.0
40.878	9.0
40.893	7.0
40.907	10.0
40.922	3.0
40.937	8.0
40.952	5.0
40.966	5.0
40.981	3.0
40.996	12.0
41.011	13.0
41.025	8.0
41.04	18.0
41.055	6.0
41.069	12.0
41.084	16.0
41.099	16.0
41.114	12.0
41.128	21.0
41.143	16.0
41.158	18.0
41.173	26.0
41.187	21.0
41.202	21.0
41.217	24.0
41.231	15.0
41.246	8.0
41.261	10.0
41.276	16.0
41.29	12.0
41.305	10.0
41.32	11.0
41.335	18.0
41.349	10.0
41.364	12.0
41.379	13.0
41.393	14.0
41.408	15.0
41.423	18.0
41.438	11.0
41.452	9.0
41.467	13.0
41.482	7.0
41.497	4.0
41.511	9.0
41.526	7.0
41.541	5.0
41.556	6.0
41.57	4.0
41.585	6.0
41.6	6.0
41.615	10.0
41.629	8.0
41.644	4.0
41.659	5.0
41.674	2.0
41.688	5.0
41.703	2.0
41.718	4.0
41.733	7.0
41.747	3.0
41.762	3.0
41.777	4.0
41.792	9.0
41.806	6.0
41.821	3.0
41.836	6.0
41.851	5.0
41.866	7.0
41.88	6.0
41.895	5.0
41.91	5.0
41.925	6.0
41.939	7.0
41.954	4.0
41.969	3.0
41.984	7.0
41.999	4.0
42.013	8.0
42.028	5.0
42.043	7.0
42.058	6.0
42.073	10.0
42.088	3.0
42.102	4.0
42.117	7.0
42.132	5.0
42.147	4.0
42.162	9.0
42.176	8.0
42.191	4.0
42.206	2.0
42.221	7.0
42.236	4.0
42.251	5.0
42.266	10.0
42.28	8.0
42.295	11.0
42.31	15.0
42.325	7.0
42.34	15.0
42.355	4.0
42.369	9.0
42.384	18.0
42.399	14.0
42.414	21.0
42.429	14.0
42.444	20.0
42.459	15.0
42.474	10.0
42.488	6.0
42.503	12.0
42.518	12.0
42.533	7.0
42.548	5.0
42.563	13.0
42.578	9.0
42.593	10.0
42.608	8.0
42.622	9.0
42.637	11.0
42.652	5.0
42.667	14.0
42.682	9.0
42.697	5.0
42.712	9.0
42.727	12.0
42.742	12.0
42.757	9.0
42.772	3.0
42.786	5.0
42.801	5.0
42.816	11.0
42.831	5.0
42.846	2.0
42.861	9.0
42.876	5.0
42.891	6.0
42.906	11.0
42.921	3.0
42.936	8.0
42.951	3.0
42.966	6.0
42.981	5.0
42.996	8.0
43.011	3.0
43.025	4.0
43.04	10.0
43.055	9.0
43.07	3.0
43.085	5.0
43.1	2.0
43.115	8.0
43.13	8.0
43.145	7.0
43.16	6.0
43.175	1.0
43.19	6.0
43.205	2.0
43.22	7.0
43.235	4.0
43.25	5.0
43.265	9.0
43.28	7.0
43.295	3.0
43.31	6.0
43.325	8.0
43.34	8.0
43.355	3.0
43.37	9.0
43.385	6.0
43.4	3.0
43.415	3.0
43.43	8.0
43.445	8.0
43.46	4.0
43.475	7.0
43.49	7.0
43.505	9.0
43.52	4.0
43.535	7.0
43.55	6.0
43.565	7.0
43.58	6.0
43.595	4.0
43.61	11.0
43.625	6.0
43.64	6.0
43.655	8.0
43.67	8.0
43.685	7.0
43.7	7.0
43.715	12.0
43.73	10.0
43.745	3.0
43.76	6.0
43.775	7.0
43.79	9.0
43.805	7.0
43.82	9.0
43.835	6.0
43.85	4.0
43.865	9.0
43.88	7.0
43.895	11.0
43.91	9.0
43.925	8.0
43.94	3.0
43.955	5.0
43.97	6.0
43.985	6.0
44.0	1.0
44.015	3.0
44.03	9.0
44.045	3.0
44.061	3.0
44.076	9.0
44.091	5.0
44.106	3.0
44.121	5.0
44.136	4.0
44.151	5.0
44.166	5.0
44.181	2.0
44.196	4.0
44.211	4.0
44.226	3.0
44.241	6.0
44.256	7.0
44.271	7.0
44.286	4.0
44.301	3.0
44.316	4.0
44.331	7.0
44.346	7.0
44.361	8.0
44.377	4.0
44.392	6.0
44.407	1.0
44.422	7.0
44.437	7.0
44.452	5.0
44.467	3.0
44.482	7.0
44.497	6.0
44.512	5.0
44.527	5.0
44.542	5.0
44.557	6.0
44.572	9.0
44.587	7.0
44.602	4.0
44.617	8.0
44.632	3.0
44.647	4.0
44.663	6.0
44.678	8.0
44.693	6.0
44.708	10.0
44.723	6.0
44.738	12.0
44.753	9.0
44.768	8.0
44.783	10.0
44.798	10.0
44.813	11.0
44.828	10.0
44.843	7.0
44.858	13.0
44.873	11.0
44.888	12.0
44.903	11.0
44.918	7.0
44.933	8.0
44.948	7.0
44.964	5.0
44.979	2.0
44.994	9.0
45.009	8.0
45.024	7.0
45.039	9.0
45.054	13.0
45.069	11.0
45.084	10.0
45.099	3.0
45.114	8.0
45.129	11.0
45.144	9.0
45.159	5.0
45.174	13.0
45.189	9.0
45.204	6.0
45.219	8.0
45.234	6.0
45.249	6.0
45.264	7.0
45.279	9.0
45.294	4.0
45.309	5.0
45.324	3.0
45.339	5.0
45.354	2.0
45.369	5.0
45.384	4.0
45.399	7.0
45.414	7.0
45.429	7.0
45.444	2.0
45.459	4.0
45.474	7.0
45.489	4.0
45.504	4.0
45.519	5.0
45.534	5.0
45.549	4.0
45.564	5.0
45.579	5.0
45.594	5.0
45.609	8.0
45.624	6.0
45.639	8.0
45.654	8.0
45.669	4.0
45.684	10.0
45.699	3.0
45.714	4.0
45.729	6.0
45.744	8.0
45.759	7.0
45.774	6.0
45.789	5.0
45.804	4.0
45.819	6.0
45.834	7.0
45.849	7.0
45.864	6.0
45.879	9.0
45.894	15.0
45.909	14.0
45.924	9.0
45.939	17.0
45.954	19.0
45.969	14.0
45.984	14.0
45.998	11.0
46.013	14.0
46.028	19.0
46.043	9.0
46.058	15.0
46.073	15.0
46.088	8.0
46.103	7.0
46.118	10.0
46.133	8.0
46.148	8.0
46.163	9.0
46.178	12.0
46.192	6.0
46.207	6.0
46.222	13.0
46.237	14.0
46.252	9.0
46.267	9.0
46.282	9.0
46.297	11.0
46.312	10.0
46.327	14.0
46.341	8.0
46.356	7.0
46.371	5.0
46.386	8.0
46.401	4.0
46.416	4.0
46.431	3.0
46.446	9.0
46.46	3.0
46.475	7.0
46.49	7.0
46.505	8.0
46.52	7.0
46.535	7.0
46.55	6.0
46.564	0.0
46.579	4.0
46.594	4.0
46.609	4.0
46.624	5.0
46.639	7.0
46.654	6.0
46.668	3.0
46.683	4.0
46.698	5.0
46.713	5.0
46.728	4.0
46.743	3.0
46.758	5.0
46.772	5.0
46.787	5.0
46.802	5.0
46.817	3.0
46.832	5.0
46.847	0.0
46.861	8.0
46.876	4.0
46.891	10.0
46.906	6.0
46.921	10.0
46.936	7.0
46.95	2.0
46.965	6.0
46.98	4.0
46.995	9.0
47.01	8.0
47.025	7.0
47.039	9.0
47.054	11.0
47.069	7.0
47.084	9.0
47.099	13.0
47.113	12.0
47.128	10.0
47.143	6.0
47.158	7.0
47.173	9.0
47.188	6.0
47.202	9.0
47.217	10.0
47.232	6.0
47.247	7.0
47.262	1.0
47.277	8.0
47.291	6.0
47.306	11.0
47.321	4.0
47.336	7.0
47.351	4.0
47.365	4.0
47.38	9.0
47.395	7.0
47.41	9.0
47.425	5.0
47.44	7.0
47.454	9.0
47.469	7.0
47.484	1.0
47.499	5.0
47.514	8.0
47.528	4.0
47.543	1.0
47.558	4.0
47.573	2.0
47.588	4.0
47.603	2.0
47.617	4.0
47.632	5.0
47.647	4.0
47.662	7.0
47.677	2.0
47.691	1.0
47.706	5.0
47.721	3.0
47.736	6.0
47.751	3.0
47.766	6.0
47.78	7.0
47.795	3.0
47.81	2.0
47.825	5.0
47.84	5.0
47.855	8.0
47.869	2.0
47.884	7.0
47.899	4.0
47.914	2.0
47.929	3.0
47.944	3.0
47.958	4.0
47.973	4.0
47.988	5.0
48.003	1.0
48.018	4.0
48.033	3.0
48.047	4.0
48.062	3.0
48.077	5.0
48.092	5.0
48.107	1.0
48.122	5.0
48.137	3.0
48.151	3.0
48.166	1.0
48.181	5.0
48.196	4.0
48.211	8.0
48.226	3.0
48.241	4.0
48.255	4.0
48.27	3.0
48.285	6.0
48.3	7.0
48.315	1.0
48.33	5.0
48.345	4.0
48.359	4.0
48.374	3.0
48.389	8.0
48.404	2.0
48.419	2.0
48.434	7.0
48.449	3.0
48.464	3.0
48.478	5.0
48.493	6.0
48.508	6.0
48.523	7.0
48.538	7.0
48.553	6.0
48.568	4.0
48.583	6.0
48.597	2.0
48.612	3.0
48.627	4.0
48.642	5.0
48.657	2.0
48.672	2.0
48.687	7.0
48.702	2.0
48.717	7.0
48.731	7.0
48.746	4.0
48.761	7.0
48.776	3.0
48.791	5.0
48.806	5.0
48.821	3.0
48.836	2.0
48.851	1.0
48.866	5.0
48.88	5.0
48.895	5.0
48.91	9.0
48.925	3.0
48.94	4.0
48.955	3.0
48.97	3.0
48.985	3.0
49.0	2.0
49.015	4.0
49.03	5.0
49.044	4.0
49.059	5.0
49.074	3.0
49.089	4.0
49.104	6.0
49.119	10.0
49.134	6.0
49.149	3.0
49.164	6.0
49.179	4.0
49.194	4.0
49.209	6.0
49.224	7.0
49.238	3.0
49.253	5.0
49.268	6.0
49.283	4.0
49.298	6.0
49.313	6.0
49.328	8.0
49.343	7.0
49.358	8.0
49.373	5.0
49.388	10.0
49.403	7.0
49.418	11.0
49.433	6.0
49.448	10.0
49.463	6.0
49.478	9.0
49.492	5.0
49.507	14.0
49.522	2.0
49.537	3.0
49.552	6.0
49.567	5.0
49.582	1.0
49.597	2.0
49.612	5.0
49.627	11.0
49.642	7.0
49.657	6.0
49.672	5.0
49.687	11.0
49.702	4.0
49.717	2.0
49.732	5.0
49.747	5.0
49.762	2.0
49.777	4.0
49.792	9.0
49.807	3.0
49.822	5.0
49.837	4.0
49.852	6.0
49.867	5.0
49.882	1.0
49.897	7.0
49.912	3.0
49.927	5.0
49.942	3.0
49.957	7.0
49.971	10.0
49.986	5.0
50.001	4.0
50.016	10.0
50.031	4.0
50.046	8.0
50.061	7.0
50.076	3.0
50.091	1.0
50.106	5.0
50.121	5.0
50.136	0.0
50.151	1.0
50.166	3.0
50.181	3.0
50.196	7.0
50.211	2.0
50.226	6.0
50.241	3.0
50.256	6.0
50.271	8.0
50.286	3.0
50.302	4.0
50.317	2.0
50.332	6.0
50.347	2.0
50.362	13.0
50.377	4.0
50.392	7.0
50.407	8.0
50.422	7.0
50.437	10.0
50.452	7.0
50.467	8.0
50.482	5.0
50.497	1.0
50.512	7.0
50.527	4.0
50.542	7.0
50.557	9.0
50.572	3.0
50.587	9.0
50.602	7.0
50.617	7.0
50.632	10.0
50.647	2.0
50.662	5.0
50.677	7.0
50.692	5.0
50.707	6.0
50.722	8.0
50.737	7.0
50.752	7.0
50.767	6.0
50.782	7.0
50.797	3.0
50.812	5.0
50.828	3.0
50.843	6.0
50.858	5.0
50.873	10.0
50.888	6.0
50.903	8.0
50.918	8.0
50.933	4.0
50.948	7.0
50.963	5.0
50.978	4.0
50.993	3.0
51.008	4.0
51.023	4.0
51.038	7.0
51.053	5.0
51.068	3.0
51.083	5.0
51.098	9.0
51.114	1.0
51.129	1.0
51.144	2.0
51.159	5.0
51.174	6.0
51.189	3.0
51.204	6.0
51.219	3.0
51.234	10.0
51.249	8.0
51.264	6.0
51.279	7.0
51.294	7.0
51.309	9.0
51.324	7.0
51.34	6.0
51.355	7.0
51.37	9.0
51.385	9.0
51.4	9.0
51.415	7.0
51.43	7.0
51.445	5.0
51.46	7.0
51.475	16.0
51.49	22.0
51.505	17.0
51.52	12.0
51.535	20.0
51.551	14.0
51.566	11.0
51.581	12.0
51.596	8.0
51.611	8.0
51.626	8.0
51.641	13.0
51.656	4.0
51.671	12.0
51.686	8.0
51.701	7.0
51.716	8.0
51.732	4.0
51.747	4.0
51.762	3.0
51.777	8.0
51.792	11.0
51.807	11.0
51.822	11.0
51.837	7.0
51.852	20.0
51.867	10.0
51.882	14.0
51.898	7.0
51.913	7.0
51.928	5.0
51.943	5.0
51.958	7.0
51.973	7.0
51.988	6.0
52.003	3.0
52.018	6.0
52.033	9.0
52.048	5.0
52.064	7.0
52.079	6.0
52.094	5.0
52.109	6.0
52.124	3.0
52.139	8.0
52.154	3.0
52.169	3.0
52.184	8.0
52.199	3.0
52.215	6.0
52.23	6.0
52.245	5.0
52.26	5.0
52.275	5.0
52.29	8.0
52.305	5.0
52.32	5.0
52.335	7.0
52.35	4.0
52.366	0.0
52.381	5.0
52.396	5.0
52.411	5.0
52.426	4.0
52.441	5.0
52.456	3.0
52.471	4.0
52.486	1.0
52.502	6.0
52.517	4.0
52.532	8.0
52.547	8.0
52.562	12.0
52.577	4.0
52.592	8.0
52.607	8.0
52.622	7.0
52.637	8.0
52.653	10.0
52.668	8.0
52.683	3.0
52.698	6.0
52.713	6.0
52.728	6.0
52.743	4.0
52.758	7.0
52.774	4.0
52.789	6.0
52.804	5.0
52.819	1.0
52.834	3.0
52.849	8.0
52.864	5.0
52.879	5.0
52.894	12.0
52.91	5.0
52.925	7.0
52.94	6.0
52.955	10.0
52.97	11.0
52.985	6.0
53.0	5.0
53.015	6.0
53.031	2.0
53.046	6.0
53.061	3.0
53.076	6.0
53.091	9.0
53.106	7.0
53.121	4.0
53.136	6.0
53.152	3.0
53.167	3.0
53.182	6.0
53.197	6.0
53.212	5.0
53.227	6.0
53.242	4.0
53.257	5.0
53.273	6.0
53.288	3.0
53.303	4.0
53.318	4.0
53.333	0.0
53.348	1.0
53.363	4.0
53.379	2.0
53.394	7.0
53.409	7.0
53.424	7.0
53.439	5.0
53.454	8.0
53.469	5.0
53.484	4.0
53.5	5.0
53.515	2.0
53.53	7.0
53.545	6.0
53.56	4.0
53.575	4.0
53.59	2.0
53.606	3.0
53.621	3.0
53.636	2.0
53.651	3.0
53.666	5.0
53.681	3.0
53.696	5.0
53.712	4.0
53.727	3.0
53.742	11.0
53.757	2.0
53.772	8.0
53.787	6.0
53.802	4.0
53.818	4.0
53.833	7.0
53.848	4.0
53.863	5.0
53.878	5.0
53.893	6.0
53.909	5.0
53.924	7.0
53.939	5.0
53.954	6.0
53.969	3.0
53.984	4.0
53.999	3.0
54.015	4.0
54.03	9.0
54.045	2.0
54.06	9.0
54.075	3.0
54.09	5.0
54.106	8.0
54.121	4.0
54.136	6.0
54.151	2.0
54.166	6.0
54.181	6.0
54.197	3.0
54.212	5.0
54.227	4.0
54.242	6.0
54.257	8.0
54.272	3.0
54.288	7.0
54.303	3.0
54.318	5.0
54.333	4.0
54.348	2.0
54.363	4.0
54.379	3.0
54.394	7.0
54.409	4.0
54.424	6.0
54.439	5.0
54.454	6.0
54.47	3.0
54.485	10.0
54.5	5.0
54.515	8.0
54.53	5.0
54.545	3.0
54.561	10.0
54.576	4.0
54.591	11.0
54.606	7.0
54.621	12.0
54.636	9.0
54.652	16.0
54.667	10.0
54.682	14.0
54.697	11.0
54.712	12.0
54.727	7.0
54.743	10.0
54.758	8.0
54.773	6.0
54.788	4.0
54.803	7.0
54.819	5.0
54.834	11.0
54.849	8.0
54.864	7.0
54.879	2.0
54.894	7.0
54.91	8.0
54.925	12.0
54.94	9.0
54.955	12.0
54.97	12.0
54.985	9.0
55.001	11.0
55.016	9.0
55.031	10.0
55.046	15.0
55.061	13.0
55.077	4.0
55.092	4.0
55.107	14.0
55.122	5.0
55.137	6.0
55.152	4.0
55.168	8.0
55.183	6.0
55.198	5.0
55.213	1.0
55.228	0.0
55.243	6.0
55.259	9.0
55.274	6.0
55.289	9.0
55.304	4.0
55.319	5.0
55.335	5.0
55.35	3.0
55.365	6.0
55.38	3.0
55.395	8.0
55.41	5.0
55.426	6.0
55.441	3.0
55.456	3.0
55.471	8.0
55.486	6.0
55.501	7.0
55.517	5.0
55.532	5.0
55.547	5.0
55.562	5.0
55.577	7.0
55.592	3.0
55.608	10.0
55.623	6.0
55.638	7.0
55.653	5.0
55.668	9.0
55.683	3.0
55.699	8.0
55.714	7.0
55.729	6.0
55.744	7.0
55.759	7.0
55.774	6.0
55.79	6.0
55.805	12.0
55.82	7.0
55.835	5.0
55.85	7.0
55.865	5.0
55.881	4.0
55.896	7.0
55.911	6.0
55.926	2.0
55.941	7.0
55.956	5.0
55.972	2.0
55.987	4.0
56.002	7.0
56.017	5.0
56.032	4.0
56.047	5.0
56.063	7.0
56.078	5.0
56.093	7.0
56.108	7.0
56.123	7.0
56.138	7.0
56.154	4.0
56.169	1.0
56.184	3.0
56.199	4.0
56.214	1.0
56.229	8.0
56.244	5.0
56.26	9.0
56.275	6.0
56.29	4.0
56.305	6.0
56.32	4.0
56.335	3.0
56.351	7.0
56.366	7.0
56.381	1.0
56.396	6.0
56.411	5.0
56.426	4.0
56.441	11.0
56.457	3.0
56.472	5.0
56.487	7.0
56.502	5.0
56.517	1.0
56.532	6.0
56.547	5.0
56.563	4.0
56.578	3.0
56.593	2.0
56.608	8.0
56.623	3.0
56.638	4.0
56.653	4.0
56.668	3.0
56.684	1.0
56.699	7.0
56.714	6.0
56.729	3.0
56.744	1.0
56.759	7.0
56.774	3.0
56.79	5.0
56.805	4.0
56.82	5.0
56.835	3.0
56.85	4.0
56.865	5.0
56.88	5.0
56.895	5.0
56.911	6.0
56.926	3.0
56.941	4.0
56.956	3.0
56.971	2.0
56.986	6.0
57.001	3.0
57.016	5.0
57.031	5.0
57.047	4.0
57.062	7.0
57.077	8.0
57.092	5.0
57.107	7.0
57.122	5.0
57.137	7.0
57.152	5.0
57.167	9.0
57.183	4.0
57.198	2.0
57.213	3.0
57.228	4.0
57.243	7.0
57.258	7.0
57.273	4.0
57.288	7.0
57.303	4.0
57.318	3.0
57.334	4.0
57.349	7.0
57.364	6.0
57.379	2.0
57.394	2.0
57.409	1.0
57.424	8.0
57.439	3.0
57.454	6.0
57.469	3.0
57.484	3.0
57.5	6.0
57.515	9.0
57.53	1.0
57.545	4.0
57.56	1.0
57.575	6.0
57.59	9.0
57.605	5.0
57.62	5.0
57.635	5.0
57.65	5.0
57.665	17.0
57.68	5.0
57.696	7.0
57.711	3.0
57.726	4.0
57.741	5.0
57.756	5.0
57.771	3.0
57.786	6.0
57.801	8.0
57.816	7.0
57.831	2.0
57.846	4.0
57.861	3.0
57.876	4.0
57.891	9.0
57.906	0.0
57.921	4.0
57.937	7.0
57.952	6.0
57.967	8.0
57.982	2.0
57.997	4.0
58.012	5.0
58.027	5.0
58.042	4.0
58.057	6.0
58.072	8.0
58.087	2.0
58.102	2.0
58.117	10.0
58.132	6.0
58.147	6.0
58.162	2.0
58.177	3.0
58.192	6.0
58.207	3.0
58.222	6.0
58.237	4.0
58.252	6.0
58.267	2.0
58.282	4.0
58.297	7.0
58.312	2.0
58.327	7.0
58.342	3.0
58.357	6.0
58.372	5.0
58.387	5.0
58.402	4.0
58.418	4.0
58.433	5.0
58.448	1.0
58.463	3.0
58.478	8.0
58.493	4.0
58.508	8.0
58.523	7.0
58.538	6.0
58.553	6.0
58.568	7.0
58.583	5.0
58.598	5.0
58.613	7.0
58.628	5.0
58.643	6.0
58.658	12.0
58.673	8.0
58.688	12.0
58.703	5.0
58.718	3.0
58.733	2.0
58.748	4.0
58.763	6.0
58.778	4.0
58.793	4.0
58.808	5.0
58.823	2.0
58.838	7.0
58.853	3.0
58.868	9.0
58.883	3.0
58.898	8.0
58.913	9.0
58.928	2.0
58.942	5.0
58.957	6.0
58.972	6.0
58.987	11.0
59.002	6.0
59.017	6.0
59.032	2.0
59.047	7.0
59.062	4.0
59.077	6.0
59.092	7.0
59.107	8.0
59.122	6.0
59.137	5.0
59.152	7.0
59.167	2.0
59.182	6.0
59.197	5.0
59.212	6.0
59.227	4.0
59.242	5.0
59.257	6.0
59.272	4.0
59.287	1.0
59.302	5.0
59.317	3.0
59.332	5.0
59.347	3.0
59.362	3.0
59.377	6.0
59.392	7.0
59.407	4.0
59.422	1.0
59.437	2.0
59.452	4.0
59.467	6.0
59.482	5.0
59.497	7.0
59.512	5.0
59.527	11.0
59.542	9.0
59.557	3.0
59.572	9.0
59.587	4.0
59.602	9.0
59.617	7.0
59.632	13.0
59.647	10.0
59.661	11.0
59.676	8.0
59.691	6.0
59.706	6.0
59.721	0.0
59.736	7.0
59.751	6.0
59.766	4.0
59.781	7.0
59.796	4.0
59.811	9.0
59.826	9.0
59.841	8.0
59.856	7.0
59.871	2.0
59.886	7.0
59.901	6.0
59.916	5.0
59.931	6.0
59.946	1.0
59.961	3.0
59.976	8.0
59.991	8.0
60.006	6.0
60.021	8.0
60.036	5.0
60.051	6.0
60.066	4.0
60.081	6.0
60.096	3.0
60.111	7.0
60.126	1.0
60.141	6.0
60.156	3.0
60.171	6.0
60.186	3.0
60.201	4.0
60.216	4.0
60.231	1.0
60.246	5.0
60.261	5.0
60.276	3.0
60.291	3.0
60.306	10.0
60.321	4.0
60.336	3.0
60.35	8.0
60.365	6.0
60.38	1.0
60.395	5.0
60.41	4.0
60.425	2.0
60.44	3.0
60.455	5.0
60.47	6.0
60.485	7.0
60.5	8.0
60.515	8.0
60.53	3.0
60.545	4.0
60.56	5.0
60.575	9.0
60.59	11.0
60.605	11.0
60.62	3.0
60.635	7.0
60.65	5.0
60.665	5.0
60.68	3.0
60.695	7.0
60.71	2.0
60.725	7.0
60.74	5.0
60.755	2.0
60.77	3.0
60.785	2.0
60.8	6.0
60.815	5.0
60.83	3.0
60.845	4.0
60.86	6.0
60.875	6.0
60.89	3.0
60.905	4.0
60.92	5.0
60.935	6.0
60.95	9.0
60.965	2.0
60.98	5.0
60.995	10.0
61.01	2.0
61.025	4.0
61.04	6.0
61.055	7.0
61.07	6.0
61.085	5.0
61.1	7.0
61.115	2.0
61.13	5.0
61.145	2.0
61.16	4.0
61.175	6.0
61.191	2.0
61.206	3.0
61.221	5.0
61.236	2.0
61.251	2.0
61.266	3.0
61.281	3.0
61.296	2.0
61.311	3.0
61.326	3.0
61.341	5.0
61.356	6.0
61.371	4.0
61.386	5.0
61.401	2.0
61.416	5.0
61.431	3.0
61.446	7.0
61.461	5.0
61.476	8.0
61.491	9.0
61.506	7.0
61.521	5.0
61.536	8.0
61.551	10.0
61.566	5.0
61.581	8.0
61.596	8.0
61.611	4.0
61.626	4.0
61.641	3.0
61.656	6.0
61.672	5.0
61.687	1.0
61.702	2.0
61.717	4.0
61.732	2.0
61.747	5.0
61.762	2.0
61.777	4.0
61.792	7.0
61.807	2.0
61.822	2.0
61.837	3.0
61.852	4.0
61.867	8.0
61.882	9.0
61.897	7.0
61.912	3.0
61.927	2.0
61.943	5.0
61.958	2.0
61.973	4.0
61.988	6.0
62.003	1.0
62.018	6.0
62.033	5.0
62.048	2.0
62.063	7.0
62.078	4.0
62.093	4.0
62.108	2.0
62.123	2.0
62.138	1.0
62.153	4.0
62.169	2.0
62.184	5.0
62.199	6.0
62.214	5.0
62.229	5.0
62.244	4.0
62.259	6.0
62.274	2.0
62.289	2.0
62.304	4.0
62.319	4.0
62.335	4.0
62.35	2.0
62.365	8.0
62.38	5.0
62.395	5.0
62.41	5.0
62.425	1.0
62.44	5.0
62.455	5.0
62.47	5.0
62.485	11.0
62.501	2.0
62.516	4.0
62.531	3.0
62.546	1.0
62.561	1.0
62.576	1.0
62.591	3.0
62.606	4.0
62.621	5.0
62.636	4.0
62.652	2.0
62.667	3.0
62.682	7.0
62.697	4.0
62.712	3.0
62.727	4.0
62.742	2.0
62.757	2.0
62.772	3.0
62.787	4.0
62.803	4.0
62.818	2.0
62.833	3.0
62.848	3.0
62.863	13.0
62.878	2.0
62.893	7.0
62.908	4.0
62.923	6.0
62.939	5.0
62.954	4.0
62.969	4.0
62.984	6.0
62.999	1.0
63.014	1.0
63.029	3.0
63.044	4.0
63.059	5.0
63.074	3.0
63.09	7.0
63.105	4.0
63.12	6.0
63.135	1.0
63.15	7.0
63.165	6.0
63.18	3.0
63.195	8.0
63.21	3.0
63.226	5.0
63.241	4.0
63.256	1.0
63.271	3.0
63.286	8.0
63.301	4.0
63.316	4.0
63.331	6.0
63.346	4.0
63.362	2.0
63.377	2.0
63.392	10.0
63.407	7.0
63.422	9.0
63.437	6.0
63.452	6.0
63.467	3.0
63.482	12.0
63.497	8.0
63.513	4.0
63.528	7.0
63.543	5.0
63.558	7.0
63.573	3.0
63.588	4.0
63.603	8.0
63.618	4.0
63.633	1.0
63.648	4.0
63.664	3.0
63.679	5.0
63.694	3.0
63.709	6.0
63.724	6.0
63.739	8.0
63.754	6.0
63.769	3.0
63.784	9.0
63.799	8.0
63.814	9.0
63.83	6.0
63.845	6.0
63.86	3.0
63.875	2.0
63.89	6.0
63.905	9.0
63.92	6.0
63.935	7.0
63.95	5.0
63.965	5.0
63.98	6.0
63.996	2.0
64.011	2.0
64.026	2.0
64.041	1.0
64.056	5.0
64.071	4.0
64.086	7.0
64.101	4.0
64.116	4.0
64.131	5.0
64.146	7.0
64.161	3.0
64.176	4.0
64.191	4.0
64.207	5.0
64.222	2.0
64.237	8.0
64.252	3.0
64.267	5.0
64.282	4.0
64.297	3.0
64.312	7.0
64.327	7.0
64.342	5.0
64.357	2.0
64.372	6.0
64.387	3.0
64.402	7.0
64.417	1.0
64.433	5.0
64.448	4.0
64.463	7.0
64.478	6.0
64.493	5.0
64.508	6.0
64.523	3.0
64.538	0.0
64.553	3.0
64.568	1.0
64.583	4.0
64.598	4.0
64.613	8.0
64.628	4.0
64.643	4.0
64.658	6.0
64.673	5.0
64.688	5.0
64.703	3.0
64.718	5.0
64.734	3.0
64.749	1.0
64.764	6.0
64.779	1.0
64.794	3.0
64.809	2.0
64.824	7.0
64.839	2.0
64.854	5.0
64.869	1.0
64.884	3.0
64.899	3.0
64.914	3.0
64.929	4.0
64.944	4.0
64.959	7.0
64.974	3.0
64.989	0.0
65.004	2.0
65.019	2.0
65.034	6.0
65.049	5.0
65.064	4.0
65.079	4.0
65.094	4.0
65.109	7.0
65.125	3.0
65.14	7.0
65.155	6.0
65.17	3.0
65.185	7.0
65.2	5.0
65.215	7.0
65.23	2.0
65.245	4.0
65.26	5.0
65.275	4.0
65.29	6.0
65.305	3.0
65.32	4.0
65.335	5.0
65.35	6.0
65.365	4.0
65.38	6.0
65.395	7.0
65.41	5.0
65.425	4.0
65.44	4.0
65.455	0.0
65.47	3.0
65.485	0.0
65.5	8.0
65.515	8.0
65.53	2.0
65.545	5.0
65.56	3.0
65.575	3.0
65.59	3.0
65.605	4.0
65.62	3.0
65.635	5.0
65.65	4.0
65.666	6.0
65.681	7.0
65.696	4.0
65.711	3.0
65.726	6.0
65.741	3.0
65.756	4.0
65.771	3.0
65.786	0.0
65.801	6.0
65.816	2.0
65.831	6.0
65.846	2.0
65.861	4.0
65.876	3.0
65.891	1.0
65.906	4.0
65.921	4.0
65.936	6.0
65.951	4.0
65.966	5.0
65.981	3.0
65.996	4.0
66.011	4.0
66.026	4.0
66.041	9.0
66.056	6.0
66.071	6.0
66.086	4.0
66.101	6.0
66.116	5.0
66.131	10.0
66.146	8.0
66.161	8.0
66.176	14.0
66.191	7.0
66.206	11.0
66.221	9.0
66.236	4.0
66.251	7.0
66.266	6.0
66.281	3.0
66.296	7.0
66.311	4.0
66.327	4.0
66.342	3.0
66.357	4.0
66.372	3.0
66.387	5.0
66.402	4.0
66.417	3.0
66.432	4.0
66.447	5.0
66.462	3.0
66.477	3.0
66.492	2.0
66.507	4.0
66.522	5.0
66.537	2.0
66.552	7.0
66.567	2.0
66.582	8.0
66.597	8.0
66.612	8.0
66.627	3.0
66.642	6.0
66.657	5.0
66.672	1.0
66.687	6.0
66.702	6.0
66.717	3.0
66.732	0.0
66.747	5.0
66.762	4.0
66.777	6.0
66.792	4.0
66.807	4.0
66.822	1.0
66.837	4.0
66.853	6.0
66.868	5.0
66.883	5.0
66.898	3.0
66.913	0.0
66.928	4.0
66.943	7.0
66.958	5.0
66.973	3.0
66.988	4.0
67.003	0.0
67.018	4.0
67.033	3.0
67.048	5.0
67.063	3.0
67.078	3.0
67.093	3.0
67.108	6.0
67.123	5.0
67.138	6.0
67.153	8.0
67.168	7.0
67.183	2.0
67.198	6.0
67.214	5.0
67.229	0.0
67.244	6.0
67.259	3.0
67.274	6.0
67.289	1.0
67.304	1.0
67.319	3.0
67.334	3.0
67.349	2.0
67.364	3.0
67.379	3.0
67.394	3.0
67.409	6.0
67.424	2.0
67.439	2.0
67.454	5.0
67.469	7.0
67.484	9.0
67.5	2.0
67.515	3.0
67.53	3.0
67.545	2.0
67.56	6.0
67.575	6.0
67.59	5.0
67.605	2.0
67.62	3.0
67.635	4.0
67.65	1.0
67.665	4.0
67.68	2.0
67.695	4.0
67.71	1.0
67.726	8.0
67.741	4.0
67.756	5.0
67.771	9.0
67.786	2.0
67.801	2.0
67.816	3.0
67.831	3.0
67.846	1.0
67.861	5.0
67.876	2.0
67.891	3.0
67.906	4.0
67.922	3.0
67.937	6.0
67.952	5.0
67.967	2.0
67.982	6.0
67.997	8.0
68.012	7.0
68.027	6.0
68.042	9.0
68.057	3.0
68.072	1.0
68.087	5.0
68.103	6.0
68.118	2.0
68.133	2.0
68.148	3.0
68.163	0.0
68.178	2.0
68.193	3.0
68.208	4.0
68.223	3.0
68.238	7.0
68.254	1.0
68.269	4.0
68.284	3.0
68.299	2.0
68.314	4.0
68.329	4.0
68.344	6.0
68.359	4.0
68.374	0.0
68.389	4.0
68.405	3.0
68.42	7.0
68.435	6.0
68.45	1.0
68.465	2.0
68.48	2.0
68.495	3.0
68.51	8.0
68.525	3.0
68.54	7.0
68.556	2.0
68.571	0.0
68.586	1.0
68.601	3.0
68.616	3.0
68.631	3.0
68.646	11.0
68.661	2.0
68.676	4.0
68.691	1.0
68.707	1.0
68.722	5.0
68.737	2.0
68.752	3.0
68.767	5.0
68.782	3.0
68.797	4.0
68.812	4.0
68.827	4.0
68.842	3.0
68.857	3.0
68.873	2.0
68.888	5.0
68.903	4.0
68.918	5.0
68.933	6.0
68.948	3.0
68.963	5.0
68.978	4.0
68.993	2.0
69.008	2.0
69.023	2.0
69.038	3.0
69.054	7.0
69.069	2.0
69.084	6.0
69.099	6.0
69.114	6.0
69.129	4.0
69.144	3.0
69.159	2.0
69.174	4.0
69.189	3.0
69.204	3.0
69.219	1.0
69.234	4.0
69.249	4.0
69.264	4.0
69.279	5.0
69.295	4.0
69.31	2.0
69.325	6.0
69.34	2.0
69.355	2.0
69.37	3.0
69.385	8.0
69.4	3.0
69.415	8.0
69.43	4.0
69.445	4.0
69.46	6.0
69.475	5.0
69.49	8.0
69.505	4.0
69.52	2.0
69.535	5.0
69.55	3.0
69.565	4.0
69.58	4.0
69.595	7.0
69.61	1.0
69.625	1.0
69.64	4.0
69.655	2.0
69.67	6.0
69.685	2.0
69.7	5.0
69.715	4.0
69.73	5.0
69.745	6.0
69.76	9.0
69.775	8.0
69.79	5.0
69.805	5.0
69.82	6.0
69.835	3.0
69.85	15.0
69.865	7.0
69.88	6.0
69.895	3.0
69.909	4.0
69.924	4.0
69.939	2.0
69.954	4.0
69.969	4.0
69.984	6.0
69.999	1.0
70.014	0.0
70.029	5.0
70.044	3.0
70.059	1.0
70.074	2.0
70.088	3.0
70.103	2.0
70.118	6.0
70.133	5.0
70.148	3.0
70.163	2.0
70.178	5.0
70.193	1.0
70.208	4.0
70.222	4.0
70.237	8.0
70.252	4.0
70.267	5.0
70.282	7.0
70.297	8.0
70.312	5.0
70.327	8.0
70.341	5.0
70.356	4.0
70.371	0.0
70.386	2.0
70.401	2.0
70.416	3.0
70.43	5.0
70.445	3.0
70.46	0.0
70.475	3.0
70.49	0.0
70.505	5.0
70.519	8.0
70.534	1.0
70.549	3.0
70.564	4.0
70.579	2.0
70.594	5.0
70.608	2.0
70.623	4.0
70.638	7.0
70.653	3.0
70.668	5.0
70.683	6.0
70.697	4.0
70.712	5.0
70.727	5.0
70.742	2.0
70.757	3.0
70.771	1.0
70.786	9.0
70.801	6.0
70.816	3.0
70.831	7.0
70.845	0.0
70.86	1.0
70.875	3.0
70.89	6.0
70.905	2.0
70.92	1.0
70.934	3.0
70.949	2.0
70.964	7.0
70.979	6.0
70.994	6.0
71.008	4.0
71.023	7.0
71.038	2.0
71.053	1.0
71.068	5.0
71.082	4.0
71.097	2.0
71.112	2.0
71.127	2.0
71.142	5.0
71.156	8.0
71.171	6.0
71.186	7.0
71.201	7.0
71.216	4.0
71.231	1.0
71.245	7.0
71.26	4.0
71.275	3.0
71.29	3.0
71.305	2.0
71.319	2.0
71.334	5.0
71.349	0.0
71.364	4.0
71.379	2.0
71.394	4.0
71.408	5.0
71.423	3.0
71.438	3.0
71.453	2.0
71.468	2.0
71.483	1.0
71.497	2.0
71.512	3.0
71.527	2.0
71.542	3.0
71.557	4.0
71.572	3.0
71.586	3.0
71.601	5.0
71.616	2.0
71.631	3.0
71.646	5.0
71.661	6.0
71.676	5.0
71.69	3.0
71.705	2.0
71.72	3.0
71.735	4.0
71.75	5.0
71.765	6.0
71.78	5.0
71.795	2.0
71.81	5.0
71.824	6.0
71.839	7.0
71.854	3.0
71.869	7.0
71.884	1.0
71.899	2.0
71.914	3.0
71.929	1.0
71.944	2.0
71.959	4.0
71.974	4.0
71.988	7.0
72.003	2.0
72.018	5.0
72.033	0.0
72.048	5.0
72.063	5.0
72.078	4.0
72.093	1.0
72.108	3.0
72.123	5.0
72.138	6.0
72.153	4.0
72.168	4.0
72.183	1.0
72.198	4.0
72.213	1.0
72.228	3.0
72.243	3.0
72.258	3.0
72.273	3.0
72.288	5.0
72.303	6.0
72.318	2.0
72.333	7.0
72.348	3.0
72.363	6.0
72.378	3.0
72.393	6.0
72.408	1.0
72.423	4.0
72.438	1.0
72.453	3.0
72.468	4.0
72.483	3.0
72.498	4.0
72.513	0.0
72.528	0.0
72.543	3.0
72.558	1.0
72.573	3.0
72.588	4.0
72.603	0.0
72.618	5.0
72.633	4.0
72.649	3.0
72.664	1.0
72.679	1.0
72.694	2.0
72.709	2.0
72.724	1.0
72.739	3.0
72.754	2.0
72.769	6.0
72.784	5.0
72.799	0.0
72.814	1.0
72.829	5.0
72.845	2.0
72.86	3.0
72.875	2.0
72.89	9.0
72.905	6.0
72.92	2.0
72.935	6.0
72.95	2.0
72.965	2.0
72.98	4.0
72.996	5.0
73.011	1.0
73.026	4.0
73.041	1.0
73.056	4.0
73.071	2.0
73.086	4.0
73.101	5.0
73.117	2.0
73.132	4.0
73.147	6.0
73.162	1.0
73.177	5.0
73.192	3.0
73.207	4.0
73.222	8.0
73.238	2.0
73.253	1.0
73.268	7.0
73.283	1.0
73.298	6.0
73.313	2.0
73.328	6.0
73.343	4.0
73.359	3.0
73.374	3.0
73.389	3.0
73.404	4.0
73.419	2.0
73.434	3.0
73.449	5.0
73.465	3.0
73.48	3.0
73.495	3.0
73.51	3.0
73.525	6.0
73.54	3.0
73.556	4.0
73.571	4.0
73.586	3.0
73.601	2.0
73.616	2.0
73.631	5.0
73.646	4.0
73.662	7.0
73.677	3.0
73.692	4.0
73.707	3.0
73.722	3.0
73.737	5.0
73.752	2.0
73.768	6.0
73.783	3.0
73.798	3.0
73.813	8.0
73.828	8.0
73.843	5.0
73.859	4.0
73.874	3.0
73.889	2.0
73.904	2.0
73.919	5.0
73.934	1.0
73.949	8.0
73.965	2.0
73.98	4.0
73.995	4.0
74.01	0.0
74.025	2.0
74.04	0.0
74.056	5.0
74.071	3.0
74.086	7.0
74.101	4.0
74.116	3.0
74.131	12.0
74.146	7.0
74.162	4.0
74.177	7.0
74.192	5.0
74.207	9.0
74.222	4.0
74.237	5.0
74.252	5.0
74.268	2.0
74.283	8.0
74.298	3.0
74.313	4.0
74.328	6.0
74.343	7.0
74.358	3.0
74.374	1.0
74.389	8.0
74.404	7.0
74.419	3.0
74.434	1.0
74.449	2.0
74.464	7.0
74.48	3.0
74.495	6.0
74.51	3.0
74.525	4.0
74.54	4.0
74.555	4.0
74.57	5.0
74.586	2.0
74.601	4.0
74.616	3.0
74.631	3.0
74.646	3.0
74.661	3.0
74.676	6.0
74.691	6.0
74.707	5.0
74.722	2.0
74.737	2.0
74.752	4.0
74.767	6.0
74.782	6.0
74.797	3.0
74.813	3.0
74.828	6.0
74.843	6.0
74.858	5.0
74.873	1.0
74.888	4.0
74.903	1.0
74.918	2.0
74.934	3.0
74.949	4.0
74.964	2.0
74.979	5.0
74.994	6.0
75.009	5.0
75.024	2.0
75.04	7.0
75.055	5.0
75.07	2.0
75.085	7.0
75.1	2.0
75.115	2.0
75.13	2.0
75.145	7.0
75.161	3.0
75.176	6.0
75.191	2.0
75.206	1.0
75.221	6.0
75.236	3.0
75.251	2.0
75.266	4.0
75.282	3.0
75.297	5.0
75.312	5.0
75.327	2.0
75.342	5.0
75.357	5.0
75.372	5.0
75.387	5.0
75.403	4.0
75.418	3.0
75.433	3.0
75.448	2.0
75.463	4.0
75.478	2.0
75.493	3.0
75.509	4.0
75.524	3.0
75.539	2.0
75.554	2.0
75.569	3.0
75.584	5.0
75.599	2.0
75.614	4.0
75.63	1.0
75.645	3.0
75.66	4.0
75.675	4.0
75.69	2.0
75.705	3.0
75.72	2.0
75.735	5.0
75.751	1.0
75.766	2.0
75.781	5.0
75.796	2.0
75.811	3.0
75.826	0.0
75.841	2.0
75.856	4.0
75.872	3.0
75.887	6.0
75.902	3.0
75.917	1.0
75.932	5.0
75.947	2.0
75.962	6.0
75.977	4.0
75.993	10.0
76.008	3.0
76.023	6.0
76.038	4.0
76.053	7.0
76.068	5.0
76.083	4.0
76.098	2.0
76.114	3.0
76.129	4.0
76.144	4.0
76.159	3.0
76.174	3.0
76.189	4.0
76.204	0.0
76.22	3.0
76.235	1.0
76.25	4.0
76.265	3.0
76.28	3.0
76.295	3.0
76.31	2.0
76.325	5.0
76.341	4.0
76.356	7.0
76.371	2.0
76.386	5.0
76.401	1.0
76.416	1.0
76.431	4.0
76.446	5.0
76.462	2.0
76.477	3.0
76.492	7.0
76.507	2.0
76.522	5.0
76.537	3.0
76.552	3.0
76.567	6.0
76.583	7.0
76.598	2.0
76.613	3.0
76.628	3.0
76.643	3.0
76.658	6.0
76.673	5.0
76.688	3.0
76.704	8.0
76.719	3.0
76.734	4.0
76.749	2.0
76.764	2.0
76.779	5.0
76.794	4.0
76.809	4.0
76.824	2.0
76.84	5.0
76.855	4.0
76.87	1.0
76.885	6.0
76.9	3.0
76.915	4.0
76.93	4.0
76.945	2.0
76.96	0.0
76.976	3.0
76.991	8.0
77.006	4.0
77.021	0.0
77.036	3.0
77.051	1.0
77.066	6.0
77.081	4.0
77.096	8.0
77.112	5.0
77.127	1.0
77.142	7.0
77.157	2.0
77.172	4.0
77.187	4.0
77.202	3.0
77.217	1.0
77.232	4.0
77.247	5.0
77.263	2.0
77.278	4.0
77.293	4.0
77.308	8.0
77.323	4.0
77.338	3.0
77.353	6.0
77.368	2.0
77.383	6.0
77.398	5.0
77.413	3.0
77.428	3.0
77.444	1.0
77.459	8.0
77.474	4.0
77.489	0.0
77.504	5.0
77.519	4.0
77.534	4.0
77.549	3.0
77.564	5.0
77.579	2.0
77.594	3.0
77.609	5.0
77.624	3.0
77.64	6.0
77.655	7.0
77.67	4.0
77.685	7.0
77.7	7.0
77.715	2.0
77.73	4.0
77.745	7.0
77.76	6.0
77.775	1.0
77.79	2.0
77.805	1.0
77.82	3.0
77.835	3.0
77.85	2.0
77.865	3.0
77.88	7.0
77.895	7.0
77.91	6.0
77.926	1.0
77.941	4.0
77.956	1.0
77.971	5.0
77.986	4.0
78.001	1.0
78.016	3.0
78.031	2.0
78.046	2.0
78.061	1.0
78.076	3.0
78.091	6.0
78.106	6.0
78.121	5.0
78.136	6.0
78.151	1.0
78.166	5.0
78.181	3.0
78.196	6.0
78.211	3.0
78.226	3.0
78.241	6.0
78.256	4.0
78.271	4.0
78.286	2.0
78.301	3.0
78.316	5.0
78.331	2.0
78.346	1.0
78.361	5.0
78.376	1.0
78.391	4.0
78.406	2.0
78.421	3.0
78.436	1.0
78.451	6.0
78.466	2.0
78.481	4.0
78.496	4.0
78.511	7.0
78.526	2.0
78.541	2.0
78.556	3.0
78.571	1.0
78.586	5.0
78.601	3.0
78.616	4.0
78.631	1.0
78.646	2.0
78.661	4.0
78.676	1.0
78.691	1.0
78.706	5.0
78.721	3.0
78.736	3.0
78.751	4.0
78.766	2.0
78.781	1.0
78.796	3.0
78.811	3.0
78.826	1.0
78.841	4.0
78.856	4.0
78.871	1.0
78.885	3.0
78.9	4.0
78.915	5.0
78.93	7.0
78.945	3.0
78.96	2.0
78.975	2.0
78.99	3.0
79.005	4.0
79.02	5.0
79.035	2.0
79.05	5.0
79.065	2.0
79.08	4.0
79.095	5.0
79.11	4.0
79.125	5.0
79.14	3.0
79.155	6.0
79.17	2.0
79.185	2.0
79.2	1.0
79.215	4.0
79.23	4.0
79.245	5.0
79.26	3.0
79.275	1.0
79.29	2.0
79.304	2.0
79.319	2.0
79.334	3.0
79.349	4.0
79.364	3.0
79.379	5.0
79.394	5.0
79.409	5.0
79.424	1.0
79.439	5.0
79.454	3.0
79.469	2.0
79.484	4.0
79.499	6.0
79.514	2.0
79.529	1.0
79.544	3.0
79.559	1.0
79.574	1.0
79.589	0.0
79.604	3.0
79.619	1.0
79.634	1.0
79.649	3.0
79.664	2.0
79.679	6.0
79.693	3.0
79.708	3.0
79.723	1.0
79.738	3.0
79.753	4.0
79.768	4.0
79.783	3.0
79.798	2.0
79.813	5.0
79.828	3.0
79.843	2.0
79.858	2.0
79.873	8.0
79.888	6.0
79.903	3.0
79.918	3.0
79.933	3.0
79.948	2.0
79.963	5.0
79.978	2.0
79.993	5.0
80.008	2.0
80.023	5.0
80.038	1.0
80.053	2.0
80.068	4.0
80.083	6.0
80.098	12.0
80.113	4.0
80.128	2.0
80.143	3.0
80.158	3.0
80.173	5.0
80.188	7.0
80.202	3.0
80.217	1.0
80.232	5.0
80.247	4.0
80.262	1.0
80.277	4.0
80.292	5.0
80.307	2.0
80.322	3.0
80.337	5.0
80.352	2.0
80.367	2.0
80.382	3.0
80.397	3.0
80.412	3.0
80.427	8.0
80.442	3.0
80.457	2.0
80.472	3.0
80.487	1.0
80.502	6.0
80.517	3.0
80.532	1.0
80.547	2.0
80.562	5.0
80.577	6.0
80.592	2.0
80.607	3.0
80.622	1.0
80.637	4.0
80.652	0.0
80.667	4.0
80.682	6.0
80.697	1.0
80.712	4.0
80.727	6.0
80.742	1.0
80.757	3.0
80.772	7.0
80.787	3.0
80.802	5.0
80.817	4.0
80.832	3.0
80.847	3.0
80.862	2.0
80.877	2.0
80.892	4.0
80.907	3.0
80.922	1.0
80.937	1.0
80.952	4.0
80.967	5.0
80.982	6.0
80.997	2.0
81.012	5.0
81.027	3.0
81.042	6.0
81.057	4.0
81.072	3.0
81.087	5.0
81.101	4.0
81.116	3.0
81.131	3.0
81.146	4.0
81.161	3.0
81.176	1.0
81.191	4.0
81.206	2.0
81.221	4.0
81.236	2.0
81.251	3.0
81.266	2.0
81.281	4.0
81.296	4.0
81.311	2.0
81.326	4.0
81.341	1.0
81.356	4.0
81.371	4.0
81.386	1.0
81.401	1.0
81.416	3.0
81.431	1.0
81.446	3.0
81.461	3.0
81.476	1.0
81.491	4.0
81.506	1.0
81.521	4.0
81.536	3.0
81.55	3.0
81.565	1.0
81.58	4.0
81.595	4.0
81.61	4.0
81.625	3.0
81.64	4.0
81.655	1.0
81.67	4.0
81.685	6.0
81.7	4.0
81.715	3.0
81.73	0.0
81.745	4.0
81.76	2.0
81.775	2.0
81.79	1.0
81.805	3.0
81.819	2.0
81.834	4.0
81.849	3.0
81.864	7.0
81.879	2.0
81.894	3.0
81.909	5.0
81.924	5.0
81.939	6.0
81.954	1.0
81.969	1.0
81.984	5.0
81.999	3.0
82.013	4.0
82.028	2.0
82.043	1.0
82.058	3.0
82.073	5.0
82.088	5.0
82.103	3.0
82.118	2.0
82.133	0.0
82.148	6.0
82.163	2.0
82.177	2.0
82.192	2.0
82.207	7.0
82.222	0.0
82.237	3.0
82.252	4.0
82.267	3.0
82.282	2.0
82.297	1.0
82.312	3.0
82.326	3.0
82.341	3.0
82.356	3.0
82.371	0.0
82.386	2.0
82.401	2.0
82.416	5.0
82.431	6.0
82.445	4.0
82.46	3.0
82.475	5.0
82.49	3.0
82.505	5.0
82.52	2.0
82.535	3.0
82.55	4.0
82.565	2.0
82.579	5.0
82.594	4.0
82.609	2.0
82.624	2.0
82.639	4.0
82.654	3.0
82.669	3.0
82.684	4.0
82.698	2.0
82.713	4.0
82.728	2.0
82.743	4.0
82.758	3.0
82.773	1.0
82.788	1.0
82.803	4.0
82.817	3.0
82.832	2.0
82.847	4.0
82.862	4.0
82.877	1.0
82.892	3.0
82.907	5.0
82.922	3.0
82.937	3.0
82.951	5.0
82.966	3.0
82.981	2.0
82.996	3.0
83.011	1.0
83.026	5.0
83.041	4.0
83.056	7.0
83.07	2.0
83.085	2.0
83.1	6.0
83.115	1.0
83.13	2.0
83.145	3.0
83.16	4.0
83.175	4.0
83.19	2.0
83.204	3.0
83.219	2.0
83.234	4.0
83.249	2.0
83.264	4.0
83.279	2.0
83.294	3.0
83.309	2.0
83.324	3.0
83.339	3.0
83.353	3.0
83.368	4.0
83.383	4.0
83.398	4.0
83.413	0.0
83.428	3.0
83.443	1.0
83.458	3.0
83.473	3.0
83.488	0.0
83.503	2.0
83.517	2.0
83.532	7.0
83.547	1.0
83.562	8.0
83.577	5.0
83.592	1.0
83.607	5.0
83.622	3.0
83.637	3.0
83.652	4.0
83.667	3.0
83.682	3.0
83.697	8.0
83.712	1.0
83.727	4.0
83.741	6.0
83.756	5.0
83.771	4.0
83.786	6.0
83.801	2.0
83.816	3.0
83.831	2.0
83.846	2.0
83.861	1.0
83.876	1.0
83.891	4.0
83.906	1.0
83.921	3.0
83.936	0.0
83.951	1.0
83.966	3.0
83.981	5.0
83.996	2.0
84.011	4.0
84.026	2.0
84.041	1.0
84.056	3.0
84.071	3.0
84.086	0.0
84.101	2.0
84.116	3.0
84.131	1.0
84.146	3.0
84.161	8.0
84.176	4.0
84.191	3.0
84.206	2.0
84.221	8.0
84.236	3.0
84.251	2.0
84.266	2.0
84.281	3.0
84.296	2.0
84.311	7.0
84.326	8.0
84.341	4.0
84.356	4.0
84.371	4.0
84.386	2.0
84.401	4.0
84.416	4.0
84.431	1.0
84.446	3.0
84.461	3.0
84.476	4.0
84.492	5.0
84.507	1.0
84.522	3.0
84.537	3.0
84.552	2.0
84.567	4.0
84.582	4.0
84.597	4.0
84.612	5.0
84.627	6.0
84.642	2.0
84.657	2.0
84.672	7.0
84.687	5.0
84.702	1.0
84.717	5.0
84.733	5.0
84.748	5.0
84.763	2.0
84.778	3.0
84.793	3.0
84.808	1.0
84.823	1.0
84.838	4.0
84.853	7.0
84.868	3.0
84.883	1.0
84.898	2.0
84.913	1.0
84.929	2.0
84.944	2.0
84.959	2.0
84.974	1.0
84.989	5.0
85.004	5.0
85.019	2.0
85.034	3.0
85.049	2.0
85.064	4.0
85.079	3.0
85.094	3.0
85.11	4.0
85.125	3.0
85.14	5.0
85.155	5.0
85.17	3.0
85.185	3.0
85.2	1.0
85.215	4.0
85.23	3.0
85.245	3.0
85.26	3.0
85.276	4.0
85.291	3.0
85.306	4.0
85.321	2.0
85.336	1.0
85.351	2.0
85.366	4.0
85.381	2.0
85.396	0.0
85.411	4.0
85.426	2.0
85.441	2.0
85.457	2.0
85.472	5.0
85.487	5.0
85.502	2.0
85.517	5.0
85.532	2.0
85.547	5.0
85.562	4.0
85.577	2.0
85.592	5.0
85.607	2.0
85.622	5.0
85.637	3.0
85.653	2.0
85.668	0.0
85.683	2.0
85.698	4.0
85.713	2.0
85.728	2.0
85.743	2.0
85.758	4.0
85.773	2.0
85.788	1.0
85.803	8.0
85.818	3.0
85.833	3.0
85.848	4.0
85.863	1.0
85.879	2.0
85.894	4.0
85.909	1.0
85.924	3.0
85.939	5.0
85.954	4.0
85.969	4.0
85.984	3.0
85.999	2.0
86.014	2.0
86.029	1.0
86.044	0.0
86.059	2.0
86.074	1.0
86.089	0.0
86.104	2.0
86.119	3.0
86.134	3.0
86.149	5.0
86.164	1.0
86.179	2.0
86.194	8.0
86.209	3.0
86.224	3.0
86.239	5.0
86.254	3.0
86.269	4.0
86.284	1.0
86.299	3.0
86.314	6.0
86.33	2.0
86.345	5.0
86.36	2.0
86.375	4.0
86.39	2.0
86.405	3.0
86.42	4.0
86.435	1.0
86.45	2.0
86.465	3.0
86.48	5.0
86.495	4.0
86.51	3.0
86.525	4.0
86.54	3.0
86.555	2.0
86.57	4.0
86.585	3.0
86.6	1.0
86.615	4.0
86.63	2.0
86.645	4.0
86.659	6.0
86.674	4.0
86.689	6.0
86.704	3.0
86.719	4.0
86.734	3.0
86.749	1.0
86.764	3.0
86.779	8.0
86.794	3.0
86.809	5.0
86.824	1.0
86.839	2.0
86.854	7.0
86.869	8.0
86.884	4.0
86.899	4.0
86.914	8.0
86.929	9.0
86.944	6.0
86.959	3.0
86.974	3.0
86.989	2.0
87.004	4.0
87.019	5.0
87.034	6.0
87.049	4.0
87.064	1.0
87.079	6.0
87.094	5.0
87.109	1.0
87.124	1.0
87.139	4.0
87.154	3.0
87.169	3.0
87.184	5.0
87.199	2.0
87.214	3.0
87.229	5.0
87.244	3.0
87.259	4.0
87.274	4.0
87.289	5.0
87.304	4.0
87.319	2.0
87.334	2.0
87.349	3.0
87.364	0.0
87.379	3.0
87.394	2.0
87.409	1.0
87.424	1.0
87.438	4.0
87.453	2.0
87.468	3.0
87.483	4.0
87.498	4.0
87.513	4.0
87.528	2.0
87.543	5.0
87.558	5.0
87.573	8.0
87.588	5.0
87.603	1.0
87.618	5.0
87.633	6.0
87.648	2.0
87.663	4.0
87.678	2.0
87.693	8.0
87.708	0.0
87.723	3.0
87.738	4.0
87.753	6.0
87.768	3.0
87.783	4.0
87.798	4.0
87.813	0.0
87.828	5.0
87.843	3.0
87.858	4.0
87.873	4.0
87.888	2.0
87.903	4.0
87.918	4.0
87.933	3.0
87.948	5.0
87.963	3.0
87.978	4.0
87.993	0.0
88.008	3.0
88.023	3.0
88.038	1.0
88.053	3.0
88.068	4.0
88.083	2.0
88.098	4.0
88.113	2.0
88.128	3.0
88.143	3.0
88.158	1.0
88.174	4.0
88.189	4.0
88.204	2.0
88.219	1.0
88.234	1.0
88.249	2.0
88.264	2.0
88.279	1.0
88.294	5.0
88.309	2.0
88.324	2.0
88.339	1.0
88.354	2.0
88.369	4.0
88.384	3.0
88.399	5.0
88.414	3.0
88.429	2.0
88.444	4.0
88.459	3.0
88.474	4.0
88.489	3.0
88.504	4.0
88.519	3.0
88.534	3.0
88.549	6.0
88.564	4.0
88.58	5.0
88.595	7.0
88.61	2.0
88.625	3.0
88.64	4.0
88.655	4.0
88.67	2.0
88.685	5.0
88.7	2.0
88.715	1.0
88.73	2.0
88.745	1.0
88.76	6.0
88.775	4.0
88.79	0.0
88.805	3.0
88.82	2.0
88.835	5.0
88.85	1.0
88.865	0.0
88.88	3.0
88.895	3.0
88.911	3.0
88.926	2.0
88.941	0.0
88.956	3.0
88.971	1.0
88.986	4.0
89.001	2.0
89.016	3.0
89.031	2.0
89.046	3.0
89.061	2.0
89.076	2.0
89.091	1.0
89.106	2.0
89.121	5.0
89.136	1.0
89.151	2.0
89.166	1.0
89.181	4.0
89.196	5.0
89.211	1.0
89.227	1.0
89.242	2.0
89.257	5.0
89.272	4.0
89.287	0.0
89.302	3.0
89.317	4.0
89.332	2.0
89.347	0.0
89.362	3.0
89.377	3.0
89.392	1.0
89.407	9.0
89.422	6.0
89.437	4.0
89.452	1.0
89.467	3.0
89.482	5.0
89.497	3.0
89.512	3.0
89.527	5.0
89.542	3.0
89.557	0.0
89.572	3.0
89.587	3.0
89.602	2.0
89.617	6.0
89.632	3.0
89.647	1.0
89.662	7.0
89.677	1.0
89.693	2.0
89.708	4.0
89.723	4.0
89.738	1.0
89.753	5.0
89.768	3.0
89.783	2.0
89.798	3.0
89.813	3.0
89.828	4.0
89.843	1.0
89.858	2.0
89.873	5.0
89.888	5.0
89.903	1.0
89.918	2.0
89.933	4.0
89.948	4.0
89.963	4.0
89.978	5.0
89.993	2.0
90.008	3.0
90.023	5.0
90.038	8.0
90.053	4.0
90.068	5.0
90.083	5.0
90.097	3.0
90.112	3.0
90.127	2.0
90.142	8.0
90.157	5.0
90.172	3.0
90.187	3.0
90.202	4.0
90.217	6.0
90.232	3.0
90.247	5.0
90.262	2.0
90.277	0.0
90.292	6.0
90.307	5.0
90.322	2.0
90.337	2.0
90.352	3.0
90.367	5.0
90.382	6.0
90.397	2.0
90.412	5.0
90.427	1.0
90.442	5.0
90.457	5.0
90.472	4.0
90.487	5.0
90.501	2.0
90.516	0.0
90.531	4.0
90.546	1.0
90.561	1.0
90.576	6.0
90.591	5.0
90.606	1.0
90.621	1.0
90.636	2.0
90.651	1.0
90.666	2.0
90.681	1.0
90.696	4.0
90.711	2.0
90.726	0.0
90.741	6.0
90.755	2.0
90.77	5.0
90.785	2.0
90.8	4.0
90.815	5.0
90.83	4.0
90.845	2.0
90.86	3.0
90.875	2.0
90.89	5.0
90.905	2.0
90.92	1.0
90.935	4.0
90.95	3.0
90.965	2.0
90.979	3.0
90.994	4.0
91.009	1.0
91.024	4.0
91.039	3.0
91.054	5.0
91.069	4.0
91.084	3.0
91.099	4.0
91.114	3.0
91.129	1.0
91.144	1.0
91.159	4.0
91.174	3.0
91.188	1.0
91.203	2.0
91.218	3.0
91.233	1.0
91.248	1.0
91.263	1.0
91.278	3.0
91.293	3.0
91.308	4.0
91.323	5.0
91.338	2.0
91.353	3.0
91.368	4.0
91.383	2.0
91.398	2.0
91.412	4.0
91.427	2.0
91.442	7.0
91.457	1.0
91.472	4.0
91.487	3.0
91.502	2.0
91.517	4.0
91.532	2.0
91.547	3.0
91.562	4.0
91.577	3.0
91.592	2.0
91.607	5.0
91.622	3.0
91.637	5.0
91.652	1.0
91.666	1.0
91.681	5.0
91.696	2.0
91.711	4.0
91.726	4.0
91.741	2.0
91.756	2.0
91.771	2.0
91.786	2.0
91.801	2.0
91.816	3.0
91.831	3.0
91.846	5.0
91.861	3.0
91.876	1.0
91.891	5.0
91.906	4.0
91.921	1.0
91.936	1.0
91.951	4.0
91.966	3.0
91.981	3.0
91.995	5.0
92.01	1.0
92.025	3.0
92.04	2.0
92.055	4.0
92.07	5.0
92.085	4.0
92.1	2.0
92.115	0.0
92.13	2.0
92.145	4.0
92.16	2.0
92.175	3.0
92.19	3.0
92.205	4.0
92.22	2.0
92.235	3.0
92.25	2.0
92.265	2.0
92.28	4.0
92.295	5.0
92.31	2.0
92.325	3.0
92.34	2.0
92.355	0.0
92.37	3.0
92.385	1.0
92.4	2.0
92.415	1.0
92.43	0.0
92.445	3.0
92.46	2.0
92.475	2.0
92.49	4.0
92.505	4.0
92.52	5.0
92.535	2.0
92.55	1.0
92.565	1.0
92.58	1.0
92.595	2.0
92.61	7.0
92.625	3.0
92.64	2.0
92.655	4.0
92.67	4.0
92.685	3.0
92.7	2.0
92.715	0.0
92.73	3.0
92.745	1.0
92.76	6.0
92.775	1.0
92.79	1.0
92.805	1.0
92.82	4.0
92.835	4.0
92.85	4.0
92.865	2.0
92.88	1.0
92.895	1.0
92.91	2.0
92.925	6.0
92.94	2.0
92.955	3.0
92.97	1.0
92.985	3.0
93.0	2.0
93.015	3.0
93.03	4.0
93.045	7.0
93.06	4.0
93.075	3.0
93.09	5.0
93.105	2.0
93.12	3.0
93.135	3.0
93.15	5.0
93.165	3.0
93.18	3.0
93.195	1.0
93.21	5.0
93.225	0.0
93.24	2.0
93.255	5.0
93.27	2.0
93.285	2.0
93.3	3.0
93.315	4.0
93.33	3.0
93.345	0.0
93.36	2.0
93.375	6.0
93.39	1.0
93.405	3.0
93.42	7.0
93.435	8.0
93.45	5.0
93.465	4.0
93.48	2.0
93.495	4.0
93.51	4.0
93.525	3.0
93.54	6.0
93.555	3.0
93.57	8.0
93.585	4.0
93.6	1.0
93.615	2.0
93.63	4.0
93.645	5.0
93.66	4.0
93.675	4.0
93.69	6.0
93.705	3.0
93.72	2.0
93.735	1.0
93.75	0.0
93.765	4.0
93.78	4.0
93.795	4.0
93.81	3.0
93.824	7.0
93.839	2.0
93.854	4.0
93.869	3.0
93.884	2.0
93.899	3.0
93.914	2.0
93.929	2.0
93.944	1.0
93.959	7.0
93.974	3.0
93.989	3.0
94.004	2.0
94.019	4.0
94.034	4.0
94.049	5.0
94.064	0.0
94.079	7.0
94.094	1.0
94.108	0.0
94.123	1.0
94.138	2.0
94.153	3.0
94.168	4.0
94.183	1.0
94.198	3.0
94.213	2.0
94.228	4.0
94.243	4.0
94.258	4.0
94.273	6.0
94.288	2.0
94.302	2.0
94.317	7.0
94.332	8.0
94.347	4.0
94.362	5.0
94.377	5.0
94.392	2.0
94.407	1.0
94.422	3.0
94.437	5.0
94.452	2.0
94.466	9.0
94.481	6.0
94.496	2.0
94.511	9.0
94.526	3.0
94.541	4.0
94.556	2.0
94.571	4.0
94.586	2.0
94.601	7.0
94.615	3.0
94.63	6.0
94.645	4.0
94.66	6.0
94.675	5.0
94.69	1.0
94.705	1.0
94.72	3.0
94.735	3.0
94.749	4.0
94.764	1.0
94.779	1.0
94.794	3.0
94.809	7.0
94.824	1.0
94.839	0.0
94.854	0.0
94.868	5.0
94.883	3.0
94.898	3.0
94.913	2.0
94.928	5.0
94.943	3.0
94.958	2.0
94.973	8.0
94.987	4.0
95.002	2.0
95.017	3.0
95.032	2.0
95.047	7.0
95.062	3.0
95.077	3.0
95.092	7.0
95.106	5.0
95.121	2.0
95.136	5.0
95.151	4.0
95.166	3.0
95.181	3.0
95.196	5.0
95.211	3.0
95.226	4.0
95.24	4.0
95.255	6.0
95.27	4.0
95.285	4.0
95.3	8.0
95.315	3.0
95.33	5.0
95.345	4.0
95.359	1.0
95.374	4.0
95.389	4.0
95.404	5.0
95.419	1.0
95.434	1.0
95.449	4.0
95.464	3.0
95.478	2.0
95.493	2.0
95.508	0.0
95.523	6.0
95.538	4.0
95.553	3.0
95.568	6.0
95.583	6.0
95.597	2.0
95.612	7.0
95.627	1.0
95.642	8.0
95.657	3.0
95.672	2.0
95.687	2.0
95.702	5.0
95.717	2.0
95.731	6.0
95.746	2.0
95.761	6.0
95.776	4.0
95.791	2.0
95.806	4.0
95.821	4.0
95.836	2.0
95.851	3.0
95.866	2.0
95.88	5.0
95.895	4.0
95.91	3.0
95.925	2.0
95.94	5.0
95.955	1.0
95.97	3.0
95.985	5.0
96.0	2.0
96.015	0.0
96.029	4.0
96.044	4.0
96.059	5.0
96.074	4.0
96.089	2.0
96.104	7.0
96.119	3.0
96.134	1.0
96.149	5.0
96.164	3.0
96.179	2.0
96.194	8.0
96.208	8.0
96.223	3.0
96.238	3.0
96.253	0.0
96.268	1.0
96.283	4.0
96.298	1.0
96.313	5.0
96.328	1.0
96.343	3.0
96.358	3.0
96.373	3.0
96.388	5.0
96.403	4.0
96.417	2.0
96.432	2.0
96.447	0.0
96.462	3.0
96.477	0.0
96.492	2.0
96.507	3.0
96.522	3.0
96.537	1.0
96.552	4.0
96.567	8.0
96.582	3.0
96.597	1.0
96.612	2.0
96.627	2.0
96.642	4.0
96.656	0.0
96.671	4.0
96.686	3.0
96.701	4.0
96.716	3.0
96.731	2.0
96.746	1.0
96.761	3.0
96.776	1.0
96.791	1.0
96.806	9.0
96.821	2.0
96.836	2.0
96.851	6.0
96.866	1.0
96.881	4.0
96.896	7.0
96.911	8.0
96.926	2.0
96.94	4.0
96.955	3.0
96.97	3.0
96.985	6.0
97.0	2.0
97.015	3.0
97.03	4.0
97.045	2.0
97.06	7.0
97.075	1.0
97.09	6.0
97.105	1.0
97.12	7.0
97.135	5.0
97.15	2.0
97.165	2.0
97.18	5.0
97.195	3.0
97.21	5.0
97.225	1.0
97.239	3.0
97.254	1.0
97.269	2.0
97.284	1.0
97.299	3.0
97.314	4.0
97.329	0.0
97.344	6.0
97.359	2.0
97.374	6.0
97.389	1.0
97.404	2.0
97.419	2.0
97.434	5.0
97.449	2.0
97.464	4.0
97.479	6.0
97.494	2.0
97.509	3.0
97.524	2.0
97.538	5.0
97.553	1.0
97.568	5.0
97.583	3.0
97.598	0.0
97.613	2.0
97.628	5.0
97.643	9.0
97.658	1.0
97.673	1.0
97.688	5.0
97.703	5.0
97.718	3.0
97.733	4.0
97.748	1.0
97.763	3.0
97.778	7.0
97.792	2.0
97.807	3.0
97.822	2.0
97.837	4.0
97.852	5.0
97.867	3.0
97.882	4.0
97.897	2.0
97.912	6.0
97.927	6.0
97.942	4.0
97.957	5.0
97.972	2.0
97.987	3.0
98.001	4.0
98.016	3.0
98.031	10.0
98.046	3.0
98.061	2.0
98.076	3.0
98.091	3.0
98.106	1.0
98.121	1.0
98.136	2.0
98.151	3.0
98.166	5.0
98.181	2.0
98.195	3.0
98.21	2.0
98.225	2.0
98.24	5.0
98.255	1.0
98.27	5.0
98.285	2.0
98.3	3.0
98.315	2.0
98.33	2.0
98.345	3.0
98.359	1.0
98.374	4.0
98.389	2.0
98.404	5.0
98.419	3.0
98.434	6.0
98.449	5.0
98.464	2.0
98.479	3.0
98.494	4.0
98.508	2.0
98.523	5.0
98.538	5.0
98.553	4.0
98.568	0.0
98.583	4.0
98.598	5.0
98.613	4.0
98.628	4.0
98.642	3.0
98.657	4.0
98.672	4.0
98.687	2.0
98.702	1.0
98.717	6.0
98.732	8.0
98.747	3.0
98.762	2.0
98.776	7.0
98.791	3.0
98.806	3.0
98.821	4.0
98.836	4.0
98.851	3.0
98.866	4.0
98.881	3.0
98.896	4.0
98.91	3.0
98.925	4.0
98.94	1.0
98.955	3.0
98.97	2.0
98.985	2.0
99.0	3.0
99.015	3.0
99.029	2.0
99.044	5.0
99.059	3.0
99.074	1.0
99.089	2.0
99.104	2.0
99.119	3.0
99.133	9.0
99.148	2.0
99.163	1.0
99.178	3.0
99.193	3.0
99.208	4.0
99.223	2.0
99.238	3.0
99.252	3.0
99.267	4.0
99.282	1.0
99.297	3.0
99.312	2.0
99.327	3.0
99.342	2.0
99.356	2.0
99.371	3.0
99.386	6.0
99.401	2.0
99.416	1.0
99.431	2.0
99.446	4.0
99.461	5.0
99.475	5.0
99.49	3.0
99.505	3.0
99.52	6.0
99.535	1.0
99.55	3.0
99.565	3.0
99.579	6.0
99.594	6.0
99.609	1.0
99.624	3.0
99.639	6.0
99.654	3.0
99.669	6.0
99.683	3.0
99.698	1.0
99.713	2.0
99.728	2.0
99.743	2.0
99.758	4.0
99.772	0.0
99.787	2.0
99.802	4.0
99.817	3.0
99.832	3.0
99.847	6.0
99.862	5.0
99.876	3.0
99.891	4.0
99.906	3.0
99.921	1.0
99.936	4.0
99.951	3.0
99.966	4.0
99.98	3.0
99.995	1.0
100.01	1.0
100.025	1.0
100.04	5.0
100.055	7.0
100.069	3.0
100.084	2.0
100.099	0.0
100.114	5.0
100.129	1.0
100.144	3.0
100.159	3.0
100.173	1.0
100.188	1.0
100.203	6.0
100.218	4.0
100.233	0.0
100.248	4.0
100.262	3.0
100.277	2.0
100.292	3.0
100.307	3.0
100.322	3.0
100.337	2.0
100.351	1.0
100.366	7.0
100.381	3.0
100.396	3.0
100.411	1.0
100.426	5.0
100.441	1.0
100.455	1.0
100.47	0.0
100.485	5.0
100.5	1.0
100.515	2.0
100.53	4.0
100.544	4.0
100.559	1.0
100.574	2.0
100.589	4.0
100.604	0.0
100.619	1.0
100.633	1.0
100.648	7.0
100.663	2.0
100.678	1.0
100.693	0.0
100.708	6.0
100.722	4.0
100.737	2.0
100.752	1.0
100.767	3.0
100.782	3.0
100.796	5.0
100.811	5.0
100.826	5.0
100.841	4.0
100.856	3.0
100.871	6.0
100.885	5.0
100.9	7.0
100.915	2.0
100.93	1.0
100.945	5.0
100.96	5.0
100.974	2.0
100.989	3.0
101.004	6.0
101.019	3.0
101.034	0.0
101.048	6.0
101.063	1.0
101.078	2.0
101.093	1.0
101.108	6.0
101.123	6.0
101.137	5.0
101.152	4.0
101.167	6.0
101.182	2.0
101.197	2.0
101.211	3.0
101.226	1.0
101.241	5.0
101.256	5.0
101.271	3.0
101.285	6.0
101.3	4.0
101.315	5.0
101.33	2.0
101.345	2.0
101.359	1.0
101.374	4.0
101.389	2.0
101.404	5.0
101.419	2.0
101.433	4.0
101.448	1.0
101.463	4.0
101.478	5.0
101.493	7.0
101.507	4.0
101.522	2.0
101.537	1.0
101.552	2.0
101.567	3.0
101.581	3.0
101.596	2.0
101.611	4.0
101.626	4.0
101.64	3.0
101.655	2.0
101.67	2.0
101.685	2.0
101.7	1.0
101.714	3.0
101.729	5.0
101.744	5.0
101.759	0.0
101.773	4.0
101.788	4.0
101.803	1.0
101.818	2.0
101.833	6.0
101.847	5.0
101.862	7.0
101.877	3.0
101.892	2.0
101.906	4.0
101.921	2.0
101.936	7.0
101.951	2.0
101.965	6.0
101.98	4.0
101.995	3.0
102.01	2.0
102.025	4.0
102.039	1.0
102.054	5.0
102.069	5.0
102.084	3.0
102.098	4.0
102.113	2.0
102.128	3.0
102.143	2.0
102.157	4.0
102.172	2.0
102.187	6.0
102.202	5.0
102.216	6.0
102.231	1.0
102.246	4.0
102.261	6.0
102.275	3.0
102.29	3.0
102.305	4.0
102.32	4.0
102.334	1.0
102.349	5.0
102.364	3.0
102.378	0.0
102.393	4.0
102.408	2.0
102.423	1.0
102.437	3.0
102.452	5.0
102.467	2.0
102.482	5.0
102.496	2.0
102.511	3.0
102.526	3.0
102.541	3.0
102.555	2.0
102.57	2.0
102.585	2.0
102.6	1.0
102.614	2.0
102.629	1.0
102.644	2.0
102.659	1.0
102.673	2.0
102.688	7.0
102.703	3.0
102.717	2.0
102.732	1.0
102.747	5.0
102.762	5.0
102.776	1.0
102.791	4.0
102.806	5.0
102.821	11.0
102.835	8.0
102.85	4.0
102.865	4.0
102.88	3.0
102.894	4.0
102.909	4.0
102.924	5.0
102.938	5.0
102.953	2.0
102.968	4.0
102.983	5.0
102.997	2.0
103.012	3.0
103.027	2.0
103.042	8.0
103.056	3.0
103.071	5.0
103.086	3.0
103.101	5.0
103.115	4.0
103.13	5.0
103.145	4.0
103.16	7.0
103.174	4.0
103.189	5.0
103.204	2.0
103.219	3.0
103.233	3.0
103.248	3.0
103.263	2.0
103.278	3.0
103.292	3.0
103.307	3.0
103.322	4.0
103.337	2.0
103.351	1.0
103.366	3.0
103.381	3.0
103.396	2.0
103.41	3.0
103.425	2.0
103.44	4.0
103.455	0.0
103.469	4.0
103.484	4.0
103.499	2.0
103.514	3.0
103.529	0.0
103.543	3.0
103.558	2.0
103.573	1.0
103.588	4.0
103.602	8.0
103.617	4.0
103.632	1.0
103.647	6.0
103.661	4.0
103.676	4.0
103.691	2.0
103.706	2.0
103.721	5.0
103.735	3.0
103.75	8.0
103.765	8.0
103.78	8.0
103.795	5.0
103.809	3.0
103.824	1.0
103.839	6.0
103.854	5.0
103.869	2.0
103.883	6.0
103.898	3.0
103.913	7.0
103.928	2.0
103.943	2.0
103.957	2.0
103.972	6.0
103.987	6.0
104.002	3.0
104.017	1.0
104.031	1.0
104.046	3.0
104.061	4.0
104.076	2.0
104.091	4.0
104.106	2.0
104.12	0.0
104.135	1.0
104.15	3.0
104.165	3.0
104.18	2.0
104.195	1.0
104.209	1.0
104.224	4.0
104.239	5.0
104.254	0.0
104.269	3.0
104.284	1.0
104.299	2.0
104.313	2.0
104.328	3.0
104.343	3.0
104.358	4.0
104.373	3.0
104.388	5.0
104.403	4.0
104.417	2.0
104.432	3.0
104.447	6.0
104.462	5.0
104.477	4.0
104.492	5.0
104.507	2.0
104.522	5.0
104.536	5.0
104.551	2.0
104.566	3.0
104.581	3.0
104.596	4.0
104.611	6.0
104.626	11.0
104.641	0.0
104.656	5.0
104.67	4.0
104.685	5.0
104.7	3.0
104.715	3.0
104.73	6.0
104.745	1.0
104.76	4.0
104.775	4.0
104.79	2.0
104.804	5.0
104.819	3.0
104.834	3.0
104.849	3.0
104.864	9.0
104.879	6.0
104.894	2.0
104.909	5.0
104.924	3.0
104.939	3.0
104.954	2.0
104.968	1.0
104.983	1.0
104.998	5.0
105.013	1.0
105.028	1.0
105.043	4.0
105.058	5.0
105.073	3.0
105.088	3.0
105.103	4.0
105.118	4.0
105.133	4.0
105.147	3.0
105.162	3.0
105.177	3.0
105.192	2.0
105.207	3.0
105.222	0.0
105.237	2.0
105.252	1.0
105.267	4.0
105.282	4.0
105.297	2.0
105.312	2.0
105.327	2.0
105.342	3.0
105.356	4.0
105.371	2.0
105.386	6.0
105.401	3.0
105.416	2.0
105.431	1.0
105.446	2.0
105.461	4.0
105.476	3.0
105.491	6.0
105.506	4.0
105.521	6.0
105.536	2.0
105.551	3.0
105.566	3.0
105.581	4.0
105.595	5.0
105.61	3.0
105.625	2.0
105.64	2.0
105.655	4.0
105.67	3.0
105.685	2.0
105.7	0.0
105.715	3.0
105.73	3.0
105.745	1.0
105.76	4.0
105.775	5.0
105.79	4.0
105.805	0.0
105.82	4.0
105.835	2.0
105.85	2.0
105.864	2.0
105.879	2.0
105.894	2.0
105.909	2.0
105.924	4.0
105.939	2.0
105.954	1.0
105.969	4.0
105.984	4.0
105.999	0.0
106.014	5.0
106.029	2.0
106.044	4.0
106.059	4.0
106.074	3.0
106.089	1.0
106.104	1.0
106.119	2.0
106.134	4.0
106.148	5.0
106.163	1.0
106.178	1.0
106.193	3.0
106.208	2.0
106.223	2.0
106.238	1.0
106.253	4.0
106.268	2.0
106.283	4.0
106.298	7.0
106.313	4.0
106.328	2.0
106.343	3.0
106.358	2.0
106.373	7.0
106.388	5.0
106.403	1.0
106.418	2.0
106.432	1.0
106.447	1.0
106.462	1.0
106.477	1.0
106.492	2.0
106.507	5.0
106.522	4.0
106.537	2.0
106.552	2.0
106.567	1.0
106.582	1.0
106.597	1.0
106.612	1.0
106.627	6.0
106.642	4.0
106.657	2.0
106.672	1.0
106.687	1.0
106.701	4.0
106.716	4.0
106.731	0.0
106.746	4.0
106.761	3.0
106.776	4.0
106.791	2.0
106.806	4.0
106.821	2.0
106.836	2.0
106.851	3.0
106.866	4.0
106.881	3.0
106.896	5.0
106.911	3.0
106.926	5.0
106.941	3.0
106.955	3.0
106.97	4.0
106.985	0.0
107.0	5.0
107.015	1.0
107.03	4.0
107.045	2.0
107.06	2.0
107.075	3.0
107.09	3.0
107.105	5.0
107.12	6.0
107.135	4.0
107.15	2.0
107.165	4.0
107.18	5.0
107.194	2.0
107.209	4.0
107.224	4.0
107.239	2.0
107.254	5.0
107.269	2.0
107.284	5.0
107.299	7.0
107.314	3.0
107.329	1.0
107.344	2.0
107.359	7.0
107.374	2.0
107.389	1.0
107.404	4.0
107.418	2.0
107.433	1.0
107.448	2.0
107.463	3.0
107.478	1.0
107.493	4.0
107.508	2.0
107.523	3.0
107.538	1.0
107.553	2.0
107.568	5.0
107.583	3.0
107.598	3.0
107.613	3.0
107.627	3.0
107.642	2.0
107.657	1.0
107.672	0.0
107.687	2.0
107.702	2.0
107.717	5.0
107.732	6.0
107.747	1.0
107.762	8.0
107.777	1.0
107.792	4.0
107.807	5.0
107.821	3.0
107.836	2.0
107.851	3.0
107.866	4.0
107.881	3.0
107.896	5.0
107.911	0.0
107.926	3.0
107.941	3.0
107.956	2.0
107.971	1.0
107.986	3.0
108.0	3.0
108.015	3.0
108.03	2.0
108.045	1.0
108.06	4.0
108.075	3.0
108.09	4.0
108.105	6.0
108.12	7.0
108.135	1.0
108.15	3.0
108.164	5.0
108.179	2.0
108.194	3.0
108.209	7.0
108.224	7.0
108.239	0.0
108.254	5.0
108.269	2.0
108.284	1.0
108.299	7.0
108.313	3.0
108.328	4.0
108.343	7.0
108.358	6.0
108.373	6.0
108.388	4.0
108.403	4.0
108.418	2.0
108.433	4.0
108.448	3.0
108.462	4.0
108.477	2.0
108.492	4.0
108.507	4.0
108.522	4.0
108.537	3.0
108.552	4.0
108.567	1.0
108.582	4.0
108.597	5.0
108.611	3.0
108.626	5.0
108.641	3.0
108.656	6.0
108.671	0.0
108.686	1.0
108.701	3.0
108.716	3.0
108.731	4.0
108.745	3.0
108.76	2.0
108.775	2.0
108.79	3.0
108.805	3.0
108.82	2.0
108.835	4.0
108.85	2.0
108.865	1.0
108.879	4.0
108.894	1.0
108.909	6.0
108.924	5.0
108.939	5.0
108.954	4.0
108.969	2.0
108.984	5.0
108.999	4.0
109.013	5.0
109.028	1.0
109.043	4.0
109.058	0.0
109.073	2.0
109.088	3.0
109.103	7.0
109.118	5.0
109.133	4.0
109.147	4.0
109.162	8.0
109.177	3.0
109.192	2.0
109.207	1.0
109.222	0.0
109.237	6.0
109.252	1.0
109.267	8.0
109.281	2.0
109.296	4.0
109.311	7.0
109.326	5.0
109.341	6.0
109.356	2.0
109.371	1.0
109.386	3.0
109.4	6.0
109.415	3.0
109.43	6.0
109.445	1.0
109.46	2.0
109.475	1.0
109.49	5.0
109.505	4.0
109.52	2.0
109.534	3.0
109.549	2.0
109.564	3.0
109.579	1.0
109.594	1.0
109.609	2.0
109.624	2.0
109.639	4.0
109.653	1.0
109.668	1.0
109.683	3.0
109.698	6.0
109.713	2.0
109.728	2.0
109.743	6.0
109.758	5.0
109.773	5.0
109.787	7.0
109.802	2.0
109.817	2.0
109.832	3.0
109.847	6.0
109.862	1.0
109.877	1.0
109.892	3.0
109.907	2.0
109.921	5.0
109.936	2.0
109.951	4.0
109.966	3.0
109.981	7.0
109.996	4.0
110.011	3.0
110.026	5.0
110.04	3.0
110.055	2.0
110.07	5.0
110.085	6.0
110.1	2.0
110.115	2.0
110.13	3.0
110.145	3.0
110.16	4.0
110.174	1.0
110.189	3.0
110.204	5.0
110.219	2.0
110.234	2.0
110.249	4.0
110.264	0.0
110.279	3.0
110.294	3.0
110.308	3.0
110.323	2.0
110.338	2.0
110.353	3.0
110.368	10.0
110.383	4.0
110.398	4.0
110.413	3.0
110.428	7.0
110.442	4.0
110.457	1.0
110.472	6.0
110.487	3.0
110.502	2.0
110.517	1.0
110.532	4.0
110.547	4.0
110.561	5.0
110.576	0.0
110.591	2.0
110.606	1.0
110.621	4.0
110.636	1.0
110.651	2.0
110.666	6.0
110.681	5.0
110.695	1.0
110.71	9.0
110.725	2.0
110.74	5.0
110.755	3.0
110.77	4.0
110.785	0.0
110.8	7.0
110.815	4.0
110.829	5.0
110.844	3.0
110.859	4.0
110.874	6.0
110.889	4.0
110.904	2.0
110.919	2.0
110.934	2.0
110.948	5.0
110.963	4.0
110.978	3.0
110.993	4.0
111.008	3.0
111.023	4.0
111.038	3.0
111.053	6.0
111.067	2.0
111.082	2.0
111.097	3.0
111.112	2.0
111.127	8.0
111.142	1.0
111.157	7.0
111.172	4.0
111.186	3.0
111.201	4.0
111.216	2.0
111.231	3.0
111.246	3.0
111.261	3.0
111.276	5.0
111.291	5.0
111.305	4.0
111.32	6.0
111.335	1.0
111.35	2.0
111.365	3.0
111.38	1.0
111.395	4.0
111.41	6.0
111.424	7.0
111.439	3.0
111.454	1.0
111.469	2.0
111.484	4.0
111.499	3.0
111.514	1.0
111.528	2.0
111.543	2.0
111.558	4.0
111.573	5.0
111.588	0.0
111.603	4.0
111.618	6.0
111.633	2.0
111.647	4.0
111.662	4.0
111.677	1.0
111.692	3.0
111.707	2.0
111.722	1.0
111.737	5.0
111.751	3.0
111.766	1.0
111.781	6.0
111.796	3.0
111.811	2.0
111.826	4.0
111.84	2.0
111.855	3.0
111.87	5.0
111.885	3.0
111.9	6.0
111.915	4.0
111.93	1.0
111.944	2.0
111.959	2.0
111.974	6.0
111.989	7.0
112.004	3.0
112.019	4.0
112.033	3.0
112.048	1.0
112.063	6.0
112.078	6.0
112.093	2.0
112.108	5.0
112.123	1.0
112.137	2.0
112.152	6.0
112.167	2.0
112.182	2.0
112.197	1.0
112.212	2.0
112.226	1.0
112.241	1.0
112.256	6.0
112.271	6.0
112.286	3.0
112.301	4.0
112.315	7.0
112.33	0.0
112.345	4.0
112.36	2.0
112.375	7.0
112.389	2.0
112.404	2.0
112.419	1.0
112.434	3.0
112.449	2.0
112.464	3.0
112.478	4.0
112.493	4.0
112.508	2.0
112.523	4.0
112.538	0.0
112.553	5.0
112.567	3.0
112.582	5.0
112.597	1.0
112.612	1.0
112.627	4.0
112.642	2.0
112.656	10.0
112.671	3.0
112.686	3.0
112.701	5.0
112.716	5.0
112.73	4.0
112.745	4.0
112.76	2.0
112.775	4.0
112.79	3.0
112.805	3.0
112.819	7.0
112.834	5.0
112.849	2.0
112.864	2.0
112.879	1.0
112.894	4.0
112.908	3.0
112.923	4.0
112.938	4.0
112.953	5.0
112.968	5.0
112.983	3.0
112.997	2.0
113.012	4.0
113.027	1.0
113.042	7.0
113.057	4.0
113.072	5.0
113.086	2.0
113.101	4.0
113.116	1.0
113.131	4.0
113.146	3.0
113.161	5.0
113.175	1.0
113.19	2.0
113.205	5.0
113.22	2.0
113.235	4.0
113.25	1.0
113.265	4.0
113.279	3.0
113.294	2.0
113.309	1.0
113.324	1.0
113.339	2.0
113.354	5.0
113.368	2.0
113.383	2.0
113.398	1.0
113.413	3.0
113.428	1.0
113.443	5.0
113.458	3.0
113.472	2.0
113.487	6.0
113.502	5.0
113.517	3.0
113.532	3.0
113.547	2.0
113.562	2.0
113.576	3.0
113.591	3.0
113.606	7.0
113.621	2.0
113.636	5.0
113.651	6.0
113.666	3.0
113.681	2.0
113.695	1.0
113.71	2.0
113.725	3.0
113.74	1.0
113.755	4.0
113.77	3.0
113.785	4.0
113.8	4.0
113.814	4.0
113.829	4.0
113.844	3.0
113.859	2.0
113.874	4.0
113.889	2.0
113.904	4.0
113.919	7.0
113.934	5.0
113.949	5.0
113.963	2.0
113.978	3.0
113.993	4.0
114.008	0.0
114.023	3.0
114.038	6.0
114.053	3.0
114.068	3.0
114.083	2.0
114.098	5.0
114.113	3.0
114.127	5.0
114.142	3.0
114.157	3.0
114.172	1.0
114.187	1.0
114.202	3.0
114.217	2.0
114.232	3.0
114.247	7.0
114.262	2.0
114.277	4.0
114.292	8.0
114.307	7.0
114.322	0.0
114.337	1.0
114.351	3.0
114.366	3.0
114.381	3.0
114.396	1.0
114.411	1.0
114.426	4.0
114.441	3.0
114.456	3.0
114.471	3.0
114.486	4.0
114.501	1.0
114.516	2.0
114.531	4.0
114.546	6.0
114.561	3.0
114.576	2.0
114.591	4.0
114.606	3.0
114.621	3.0
114.636	2.0
114.65	2.0
114.665	3.0
114.68	3.0
114.695	1.0
114.71	3.0
114.725	3.0
114.74	3.0
114.755	4.0
114.77	3.0
114.785	6.0
114.8	4.0
114.815	3.0
114.83	4.0
114.845	6.0
114.86	3.0
114.875	1.0
114.89	6.0
114.905	6.0
114.92	5.0
114.935	1.0
114.95	3.0
114.965	6.0
114.98	7.0
114.995	6.0
115.009	2.0
115.024	2.0
115.039	1.0
115.054	5.0
115.069	2.0
115.084	3.0
115.099	4.0
115.114	4.0
115.129	8.0
115.144	4.0
115.159	9.0
115.174	4.0
115.189	2.0
115.204	4.0
115.219	8.0
115.234	5.0
115.249	1.0
115.264	2.0
115.279	3.0
115.294	4.0
115.309	3.0
115.323	3.0
115.338	5.0
115.353	5.0
115.368	2.0
115.383	2.0
115.398	3.0
115.413	3.0
115.428	4.0
115.443	5.0
115.458	2.0
115.473	6.0
115.488	5.0
115.503	1.0
115.518	3.0
115.533	4.0
115.548	1.0
115.562	0.0
115.577	3.0
115.592	5.0
115.607	0.0
115.622	3.0
115.637	3.0
115.652	4.0
115.667	4.0
115.682	2.0
115.697	4.0
115.712	2.0
115.727	3.0
115.741	2.0
115.756	6.0
115.771	4.0
115.786	6.0
115.801	2.0
115.816	4.0
115.831	7.0
115.846	4.0
115.861	3.0
115.875	5.0
115.89	5.0
115.905	6.0
115.92	3.0
115.935	5.0
115.95	3.0
115.965	1.0
115.98	3.0
115.995	2.0
116.009	4.0
116.024	5.0
116.039	2.0
116.054	6.0
116.069	4.0
116.084	4.0
116.099	3.0
116.113	4.0
116.128	5.0
116.143	3.0
116.158	3.0
116.173	0.0
116.188	1.0
116.202	2.0
116.217	3.0
116.232	2.0
116.247	4.0
116.262	7.0
116.277	1.0
116.291	5.0
116.306	2.0
116.321	6.0
116.336	4.0
116.351	3.0
116.366	5.0
116.38	3.0
116.395	3.0
116.41	6.0
116.425	4.0
116.44	3.0
116.454	5.0
116.469	3.0
116.484	4.0
116.499	3.0
116.514	3.0
116.528	5.0
116.543	2.0
116.558	2.0
116.573	2.0
116.588	5.0
116.602	9.0
116.617	4.0
116.632	3.0
116.647	4.0
116.662	3.0
116.676	2.0
116.691	3.0
116.706	2.0
116.721	6.0
116.735	6.0
116.75	5.0
116.765	5.0
116.78	1.0
116.795	4.0
116.809	6.0
116.824	4.0
116.839	9.0
116.854	3.0
116.868	4.0
116.883	5.0
116.898	5.0
116.913	5.0
116.927	2.0
116.942	3.0
116.957	4.0
116.972	6.0
116.986	6.0
117.001	0.0
117.016	3.0
117.031	9.0
117.045	5.0
117.06	2.0
117.075	3.0
117.09	3.0
117.104	1.0
117.119	4.0
117.134	4.0
117.149	2.0
117.163	2.0
117.178	4.0
117.193	2.0
117.208	5.0
117.222	2.0
117.237	2.0
117.252	5.0
117.267	7.0
117.281	2.0
117.296	5.0
117.311	7.0
117.325	0.0
117.34	3.0
117.355	2.0
117.37	4.0
117.384	5.0
117.399	2.0
117.414	2.0
117.429	4.0
117.443	4.0
117.458	2.0
117.473	5.0
117.487	2.0
117.502	7.0
117.517	2.0
117.532	1.0
117.546	2.0
117.561	5.0
117.576	7.0
117.59	5.0
117.605	2.0
117.62	2.0
117.635	2.0
117.649	3.0
117.664	3.0
117.679	7.0
117.693	1.0
117.708	4.0
117.723	3.0
117.738	5.0
117.752	7.0
117.767	3.0
117.782	4.0
117.796	3.0
117.811	7.0
117.826	4.0
117.841	3.0
117.855	5.0
117.87	3.0
117.885	5.0
117.899	4.0
117.914	3.0
117.929	3.0
117.944	1.0
117.958	5.0
117.973	6.0
117.988	8.0
118.002	7.0
118.017	2.0
118.032	3.0
118.047	7.0
118.062	1.0
118.077	6.0
118.092	2.0
118.107	9.0
118.121	5.0
118.136	3.0
118.151	4.0
118.166	2.0
118.181	4.0
118.196	7.0
118.211	1.0
118.225	5.0
118.24	2.0
118.255	4.0
118.27	3.0
118.285	6.0
118.3	6.0
118.315	3.0
118.33	2.0
118.344	2.0
118.359	7.0
118.374	3.0
118.389	3.0
118.404	6.0
118.419	7.0
118.434	4.0
118.449	4.0
118.463	1.0
118.478	6.0
118.493	2.0
118.508	4.0
118.523	4.0
118.538	4.0
118.553	7.0
118.567	3.0
118.582	6.0
118.597	3.0
118.612	8.0
118.627	4.0
118.642	3.0
118.657	2.0
118.672	3.0
118.686	1.0
118.701	7.0
118.716	2.0
118.731	5.0
118.746	4.0
118.761	1.0
118.776	2.0
118.791	3.0
118.805	4.0
118.82	4.0
118.835	4.0
118.85	4.0
118.865	2.0
118.88	5.0
118.895	2.0
118.909	2.0
118.924	3.0
118.939	4.0
118.954	4.0
118.969	2.0
118.984	1.0
118.999	3.0
119.014	7.0
119.028	3.0
119.043	3.0
119.058	5.0
119.073	1.0
119.088	3.0
119.103	4.0
119.118	1.0
119.133	5.0
119.147	8.0
119.162	2.0
119.177	6.0
119.192	2.0
119.207	4.0
119.222	2.0
119.237	4.0
119.251	7.0
119.266	9.0
119.281	2.0
119.296	1.0
119.311	3.0
119.326	4.0
119.341	8.0
119.356	3.0
119.37	3.0
119.385	5.0
119.4	3.0
119.415	4.0
119.43	5.0
119.445	2.0
119.46	8.0
119.475	4.0
119.489	6.0
119.504	1.0
119.519	4.0
119.534	2.0
119.549	0.0
119.564	4.0
119.579	3.0
119.593	1.0
119.608	4.0
119.623	0.0
119.638	8.0
119.653	2.0
119.668	2.0
119.683	5.0
119.698	3.0
119.712	6.0
119.727	4.0
119.742	5.0
119.757	8.0
119.772	0.0
119.787	0.0
119.802	5.0
119.817	2.0
119.831	1.0
119.846	3.0
119.861	2.0
119.876	1.0
119.891	3.0
119.906	4.0
119.921	5.0
119.935	6.0
119.95	5.0
119.965	3.0
119.98	3.0
119.995	1.0
120.01	0.0
120.025	1.0
120.04	1.0
120.054	3.0
120.069	1.0
120.084	4.0
120.099	6.0
120.114	2.0
120.129	1.0
120.144	1.0
120.159	2.0
120.173	0.0
120.188	1.0
120.203	1.0
120.218	1.0
120.233	3.0
120.248	1.0
120.263	1.0
120.277	0.0
120.292	1.0
120.307	0.0
120.322	1.0
120.337	0.0
120.352	0.0
120.367	1.0
120.382	0.0
120.396	0.0
120.411	1.0
120.426	1.0
120.441	0.0
120.456	0.0
120.471	1.0
120.486	1.0
120.501	0.0
120.515	0.0
120.53	0.0
120.545	0.0
120.56	0.0
120.575	0.0
120.59	0.0
120.605	0.0
120.619	0.0
120.634	1.0
120.649	0.0
120.664	0.0
120.679	0.0
120.694	0.0
120.709	0.0
120.724	0.0
120.738	0.0
120.753	0.0
120.768	0.0
120.783	0.0
120.798	0.0
120.813	0.0
120.828	0.0
120.843	0.0
120.857	0.0
120.872	0.0
120.887	0.0
120.902	0.0
120.917	0.0
120.932	0.0
120.947	0.0
120.961	0.0
120.976	0.0
