-1.217	0.0
-1.202	0.0
-1.187	0.0
-1.172	0.0
-1.157	0.0
-1.142	0.0
-1.128	0.0
-1.113	0.0
-1.098	0.0
-1.083	0.0
-1.068	0.0
-1.054	0.0
-1.039	0.0
-1.024	0.0
-1.009	0.0
-0.994	0.0
-0.979	0.0
-0.965	0.0
-0.95	0.0
-0.935	0.0
-0.92	0.0
-0.905	0.0
-0.891	0.0
-0.876	0.0
-0.861	0.0
-0.846	0.0
-0.831	0.0
-0.816	0.0
-0.802	0.0
-0.787	0.0
-0.772	0.0
-0.757	0.0
-0.742	0.0
-0.728	0.0
-0.713	0.0
-0.698	0.0
-0.683	0.0
-0.668	0.0
-0.653	0.0
-0.639	0.0
-0.624	0.0
-0.609	0.0
-0.594	0.0
-0.579	0.0
-0.565	0.0
-0.55	0.0
-0.535	0.0
-0.52	0.0
-0.505	0.0
-0.49	0.0
-0.476	0.0
-0.461	0.0
-0.446	0.0
-0.431	0.0
-0.416	0.0
-0.401	0.0
-0.387	0.0
-0.372	0.0
-0.357	0.0
-0.342	0.0
-0.327	0.0
-0.313	0.0
-0.298	0.0
-0.283	0.0
-0.268	0.0
-0.253	0.0
-0.238	0.0
-0.224	0.0
-0.209	0.0
-0.194	0.0
-0.179	0.0
-0.164	0.0
-0.15	0.0
-0.135	1.0
-0.12	0.0
-0.105	0.0
-0.09	0.0
-0.075	0.0
-0.061	0.0
-0.046	0.0
-0.031	0.0
-0.016	0.0
-0.001	0.0
0.013	0.0
0.028	0.0
0.043	0.0
0.058	0.0
0.073	0.0
0.088	0.0
0.102	0.0
0.117	0.0
0.132	0.0
0.147	0.0
0.162	0.0
0.176	0.0
0.191	0.0
0.206	0.0
0.221	0.0
0.236	0.0
0.251	0.0
0.265	1.0
0.28	0.0
0.295	0.0
0.31	0.0
0.325	0.0
0.339	0.0
0.354	0.0
0.369	0.0
0.384	0.0
0.399	0.0
0.414	0.0
0.428	0.0
0.443	0.0
0.458	0.0
0.473	0.0
0.488	0.0
0.502	1.0
0.517	0.0
0.532	0.0
0.547	0.0
0.562	0.0
0.577	0.0
0.591	0.0
0.606	0.0
0.621	0.0
0.636	0.0
0.651	0.0
0.665	0.0
0.68	0.0
0.695	0.0
0.71	0.0
0.725	0.0
0.74	0.0
0.754	0.0
0.769	0.0
0.784	0.0
0.799	1.0
0.814	0.0
0.828	0.0
0.843	0.0
0.858	0.0
0.873	0.0
0.888	0.0
0.903	0.0
0.917	0.0
0.932	0.0
0.947	0.0
0.962	0.0
0.977	0.0
0.991	0.0
1.006	0.0
1.021	0.0
1.036	0.0
1.051	0.0
1.065	0.0
1.08	1.0
1.095	1.0
1.11	0.0
1.125	0.0
1.14	0.0
1.154	0.0
1.169	0.0
1.184	0.0
1.199	0.0
1.214	0.0
1.228	0.0
1.243	0.0
1.258	0.0
1.273	0.0
1.288	0.0
1.302	0.0
1.317	0.0
1.332	0.0
1.347	0.0
1.362	0.0
1.376	0.0
1.391	0.0
1.406	0.0
1.421	1.0
1.436	0.0
1.45	0.0
1.465	0.0
1.48	0.0
1.495	0.0
1.51	0.0
1.524	0.0
1.539	0.0
1.554	0.0
1.569	0.0
1.584	0.0
1.598	0.0
1.613	0.0
1.628	0.0
1.643	0.0
1.658	1.0
1.672	0.0
1.687	0.0
1.702	0.0
1.717	0.0
1.732	0.0
1.746	0.0
1.761	0.0
1.776	0.0
1.791	0.0
1.806	0.0
1.82	1.0
1.835	1.0
1.85	1.0
1.865	0.0
1.88	1.0
1.894	1.0
1.909	0.0
1.924	0.0
1.939	0.0
1.954	0.0
1.968	0.0
1.983	0.0
1.998	0.0
2.013	0.0
2.028	0.0
2.042	0.0
2.057	0.0
2.072	0.0
2.087	1.0
2.101	0.0
2.116	0.0
2.131	0.0
2.146	0.0
2.161	0.0
2.175	0.0
2.19	2.0
2.205	0.0
2.22	0.0
2.235	0.0
2.249	0.0
2.264	1.0
2.279	0.0
2.294	1.0
2.308	1.0
2.323	0.0
2.338	1.0
2.353	0.0
2.368	0.0
2.382	2.0
2.397	0.0
2.412	1.0
2.427	2.0
2.442	2.0
2.456	5.0
2.471	0.0
2.486	0.0
2.501	1.0
2.515	3.0
2.53	3.0
2.545	1.0
2.56	1.0
2.575	1.0
2.589	4.0
2.604	5.0
2.619	2.0
2.634	2.0
2.649	1.0
2.663	2.0
2.678	4.0
2.693	1.0
2.708	1.0
2.722	3.0
2.737	3.0
2.752	4.0
2.767	5.0
2.782	5.0
2.796	5.0
2.811	1.0
2.826	7.0
2.841	4.0
2.856	4.0
2.87	4.0
2.885	5.0
2.9	2.0
2.915	4.0
2.93	5.0
2.944	6.0
2.959	4.0
2.974	2.0
2.989	2.0
3.004	2.0
3.018	3.0
3.033	4.0
3.048	2.0
3.063	2.0
3.078	3.0
3.092	3.0
3.107	4.0
3.122	5.0
3.137	1.0
3.152	5.0
3.166	3.0
3.181	3.0
3.196	3.0
3.211	4.0
3.226	3.0
3.24	1.0
3.255	6.0
3.27	5.0
3.285	4.0
3.3	5.0
3.315	4.0
3.329	9.0
3.344	7.0
3.359	10.0
3.374	5.0
3.389	1.0
3.403	4.0
3.418	3.0
3.433	4.0
3.448	4.0
3.463	2.0
3.478	7.0
3.492	6.0
3.507	6.0
3.522	13.0
3.537	3.0
3.552	10.0
3.567	3.0
3.581	6.0
3.596	6.0
3.611	8.0
3.626	10.0
3.641	4.0
3.656	8.0
3.671	6.0
3.685	9.0
3.7	3.0
3.715	7.0
3.73	9.0
3.745	6.0
3.76	6.0
3.775	7.0
3.789	4.0
3.804	4.0
3.819	6.0
3.834	5.0
3.849	6.0
3.864	2.0
3.879	5.0
3.894	5.0
3.908	11.0
3.923	5.0
3.938	2.0
3.953	3.0
3.968	12.0
3.983	8.0
3.998	6.0
4.013	4.0
4.027	5.0
4.042	9.0
4.057	7.0
4.072	11.0
4.087	6.0
4.102	7.0
4.117	10.0
4.132	8.0
4.147	7.0
4.162	5.0
4.176	7.0
4.191	3.0
4.206	5.0
4.221	5.0
4.236	6.0
4.251	2.0
4.266	6.0
4.281	6.0
4.296	7.0
4.311	7.0
4.326	7.0
4.341	3.0
4.356	9.0
4.37	8.0
4.385	8.0
4.4	8.0
4.415	6.0
4.43	10.0
4.445	8.0
4.46	8.0
4.475	5.0
4.49	8.0
4.505	12.0
4.52	7.0
4.535	8.0
4.55	8.0
4.565	7.0
4.58	5.0
4.595	3.0
4.61	7.0
4.625	9.0
4.639	12.0
4.654	9.0
4.669	3.0
4.684	4.0
4.699	8.0
4.714	9.0
4.729	4.0
4.744	13.0
4.759	6.0
4.774	5.0
4.789	6.0
4.804	8.0
4.819	8.0
4.834	6.0
4.849	4.0
4.864	9.0
4.879	6.0
4.894	5.0
4.909	6.0
4.924	9.0
4.939	4.0
4.954	7.0
4.969	7.0
4.984	7.0
4.999	5.0
5.014	5.0
5.029	7.0
5.044	10.0
5.059	4.0
5.074	6.0
5.089	8.0
5.104	4.0
5.119	9.0
5.134	9.0
5.149	7.0
5.164	5.0
5.179	9.0
5.194	1.0
5.209	10.0
5.224	8.0
5.239	7.0
5.254	6.0
5.269	9.0
5.284	13.0
5.299	14.0
5.314	9.0
5.329	8.0
5.344	9.0
5.359	9.0
5.374	10.0
5.389	5.0
5.404	5.0
5.419	8.0
5.434	11.0
5.449	9.0
5.464	10.0
5.479	11.0
5.494	7.0
5.509	8.0
5.524	12.0
5.539	9.0
5.554	6.0
5.569	10.0
5.584	11.0
5.599	4.0
5.614	6.0
5.629	8.0
5.644	8.0
5.659	12.0
5.674	6.0
5.689	17.0
5.704	7.0
5.719	11.0
5.734	10.0
5.749	8.0
5.764	9.0
5.779	9.0
5.794	13.0
5.809	9.0
5.824	9.0
5.839	9.0
5.854	6.0
5.869	6.0
5.884	9.0
5.899	12.0
5.914	11.0
5.929	6.0
5.944	10.0
5.959	13.0
5.974	6.0
5.989	3.0
6.004	7.0
6.019	6.0
6.034	3.0
6.049	6.0
6.064	9.0
6.079	4.0
6.094	8.0
6.109	6.0
6.124	14.0
6.139	8.0
6.154	7.0
6.169	15.0
6.184	8.0
6.199	8.0
6.214	8.0
6.229	7.0
6.244	8.0
6.259	14.0
6.274	12.0
6.289	11.0
6.304	7.0
6.319	15.0
6.334	6.0
6.349	9.0
6.364	13.0
6.379	12.0
6.394	6.0
6.409	13.0
6.424	7.0
6.439	9.0
6.454	10.0
6.469	10.0
6.484	10.0
6.499	8.0
6.514	6.0
6.529	12.0
6.544	12.0
6.559	11.0
6.574	8.0
6.589	7.0
6.604	6.0
6.619	10.0
6.634	5.0
6.649	5.0
6.664	10.0
6.679	13.0
6.694	5.0
6.709	5.0
6.724	5.0
6.739	9.0
6.754	10.0
6.769	8.0
6.784	10.0
6.799	5.0
6.814	5.0
6.829	11.0
6.844	10.0
6.859	10.0
6.873	10.0
6.888	6.0
6.903	4.0
6.918	6.0
6.933	6.0
6.948	9.0
6.963	8.0
6.978	8.0
6.993	3.0
7.008	2.0
7.023	8.0
7.038	11.0
7.053	6.0
7.068	4.0
7.083	11.0
7.098	7.0
7.113	7.0
7.128	11.0
7.143	11.0
7.157	10.0
7.172	10.0
7.187	12.0
7.202	10.0
7.217	11.0
7.232	7.0
7.247	7.0
7.262	13.0
7.277	4.0
7.292	12.0
7.307	9.0
7.322	7.0
7.336	16.0
7.351	7.0
7.366	7.0
7.381	8.0
7.396	10.0
7.411	17.0
7.426	6.0
7.441	13.0
7.456	13.0
7.471	12.0
7.485	10.0
7.5	13.0
7.515	12.0
7.53	10.0
7.545	8.0
7.56	11.0
7.575	7.0
7.59	11.0
7.604	9.0
7.619	10.0
7.634	13.0
7.649	14.0
7.664	11.0
7.679	12.0
7.693	10.0
7.708	5.0
7.723	10.0
7.738	10.0
7.753	8.0
7.768	5.0
7.783	5.0
7.797	7.0
7.812	10.0
7.827	8.0
7.842	9.0
7.857	7.0
7.871	6.0
7.886	7.0
7.901	13.0
7.916	8.0
7.931	7.0
7.945	12.0
7.96	6.0
7.975	12.0
7.99	8.0
8.005	10.0
8.019	7.0
8.034	7.0
8.049	10.0
8.064	8.0
8.078	8.0
8.093	11.0
8.108	6.0
8.123	12.0
8.137	4.0
8.152	10.0
8.167	6.0
8.182	9.0
8.196	6.0
8.211	5.0
8.226	7.0
8.241	6.0
8.255	9.0
8.27	14.0
8.285	12.0
8.3	9.0
8.314	9.0
8.329	8.0
8.344	4.0
8.358	9.0
8.373	8.0
8.388	10.0
8.403	10.0
8.417	10.0
8.432	11.0
8.447	10.0
8.461	5.0
8.476	11.0
8.491	13.0
8.505	11.0
8.52	11.0
8.535	8.0
8.55	13.0
8.564	15.0
8.579	9.0
8.594	10.0
8.608	13.0
8.623	7.0
8.638	10.0
8.652	9.0
8.667	13.0
8.682	9.0
8.696	10.0
8.711	4.0
8.726	9.0
8.74	9.0
8.755	6.0
8.77	11.0
8.784	10.0
8.799	7.0
8.814	4.0
8.828	7.0
8.843	4.0
8.858	11.0
8.872	11.0
8.887	8.0
8.902	5.0
8.916	9.0
8.931	6.0
8.946	8.0
8.96	6.0
8.975	9.0
8.99	4.0
9.004	6.0
9.019	6.0
9.034	12.0
9.048	17.0
9.063	17.0
9.077	15.0
9.092	8.0
9.107	2.0
9.121	7.0
9.136	7.0
9.151	9.0
9.165	13.0
9.18	7.0
9.195	10.0
9.209	9.0
9.224	8.0
9.239	8.0
9.253	11.0
9.268	11.0
9.283	9.0
9.297	8.0
9.312	10.0
9.327	6.0
9.341	10.0
9.356	11.0
9.371	18.0
9.385	11.0
9.4	7.0
9.415	12.0
9.429	7.0
9.444	7.0
9.458	8.0
9.473	11.0
9.488	6.0
9.502	5.0
9.517	10.0
9.532	6.0
9.546	5.0
9.561	7.0
9.576	7.0
9.59	7.0
9.605	10.0
9.62	4.0
9.635	15.0
9.649	12.0
9.664	12.0
9.679	5.0
9.693	9.0
9.708	13.0
9.723	18.0
9.737	6.0
9.752	8.0
9.767	1.0
9.781	5.0
9.796	10.0
9.811	14.0
9.825	8.0
9.84	11.0
9.855	11.0
9.87	9.0
9.884	8.0
9.899	8.0
9.914	8.0
9.928	12.0
9.943	10.0
9.958	6.0
9.973	4.0
9.987	8.0
10.002	6.0
10.017	8.0
10.031	11.0
10.046	13.0
10.061	11.0
10.076	9.0
10.09	10.0
10.105	6.0
10.12	6.0
10.135	7.0
10.149	9.0
10.164	9.0
10.179	9.0
10.194	6.0
10.208	16.0
10.223	6.0
10.238	4.0
10.253	6.0
10.267	13.0
10.282	9.0
10.297	10.0
10.312	7.0
10.326	8.0
10.341	11.0
10.356	13.0
10.371	8.0
10.386	12.0
10.4	8.0
10.415	6.0
10.43	7.0
10.445	8.0
10.46	7.0
10.474	5.0
10.489	8.0
10.504	7.0
10.519	7.0
10.533	12.0
10.548	6.0
10.563	7.0
10.578	8.0
10.593	8.0
10.608	10.0
10.622	5.0
10.637	9.0
10.652	6.0
10.667	7.0
10.682	13.0
10.696	8.0
10.711	6.0
10.726	7.0
10.741	9.0
10.756	10.0
10.771	11.0
10.785	11.0
10.8	6.0
10.815	15.0
10.83	8.0
10.845	6.0
10.86	9.0
10.874	8.0
10.889	12.0
10.904	11.0
10.919	8.0
10.934	7.0
10.949	9.0
10.963	12.0
10.978	3.0
10.993	7.0
11.008	8.0
11.023	5.0
11.038	7.0
11.053	6.0
11.067	6.0
11.082	11.0
11.097	6.0
11.112	11.0
11.127	10.0
11.142	10.0
11.157	8.0
11.172	2.0
11.186	3.0
11.201	8.0
11.216	9.0
11.231	2.0
11.246	5.0
11.261	7.0
11.276	6.0
11.291	9.0
11.305	6.0
11.32	8.0
11.335	4.0
11.35	8.0
11.365	9.0
11.38	12.0
11.395	5.0
11.41	8.0
11.424	7.0
11.439	5.0
11.454	6.0
11.469	7.0
11.484	9.0
11.499	7.0
11.514	10.0
11.529	17.0
11.544	8.0
11.558	10.0
11.573	11.0
11.588	5.0
11.603	7.0
11.618	15.0
11.633	7.0
11.648	12.0
11.663	15.0
11.678	8.0
11.693	10.0
11.707	7.0
11.722	9.0
11.737	11.0
11.752	11.0
11.767	7.0
11.782	9.0
11.797	15.0
11.812	9.0
11.827	5.0
11.842	4.0
11.856	9.0
11.871	10.0
11.886	5.0
11.901	11.0
11.916	13.0
11.931	6.0
11.946	10.0
11.961	9.0
11.976	14.0
11.991	13.0
12.006	9.0
12.02	14.0
12.035	10.0
12.05	6.0
12.065	13.0
12.08	3.0
12.095	11.0
12.11	8.0
12.125	9.0
12.14	10.0
12.155	11.0
12.17	12.0
12.184	12.0
12.199	7.0
12.214	11.0
12.229	12.0
12.244	12.0
12.259	20.0
12.274	18.0
12.289	5.0
12.304	8.0
12.319	14.0
12.334	10.0
12.348	12.0
12.363	17.0
12.378	12.0
12.393	7.0
12.408	7.0
12.423	8.0
12.438	13.0
12.453	8.0
12.468	12.0
12.483	7.0
12.498	10.0
12.513	11.0
12.527	15.0
12.542	11.0
12.557	8.0
12.572	17.0
12.587	17.0
12.602	9.0
12.617	10.0
12.632	11.0
12.647	14.0
12.662	11.0
12.677	6.0
12.692	13.0
12.707	12.0
12.721	12.0
12.736	11.0
12.751	24.0
12.766	20.0
12.781	14.0
12.796	9.0
12.811	13.0
12.826	12.0
12.841	10.0
12.856	12.0
12.871	18.0
12.886	16.0
12.9	12.0
12.915	17.0
12.93	13.0
12.945	10.0
12.96	13.0
12.975	13.0
12.99	16.0
13.005	19.0
13.02	13.0
13.035	22.0
13.05	22.0
13.065	19.0
13.08	16.0
13.094	12.0
13.109	11.0
13.124	17.0
13.139	17.0
13.154	22.0
13.169	11.0
13.184	12.0
13.199	22.0
13.214	18.0
13.229	15.0
13.244	19.0
13.259	18.0
13.274	20.0
13.288	28.0
13.303	17.0
13.318	22.0
13.333	24.0
13.348	18.0
13.363	29.0
13.378	31.0
13.393	26.0
13.408	28.0
13.423	30.0
13.438	26.0
13.453	32.0
13.468	30.0
13.482	37.0
13.497	35.0
13.512	42.0
13.527	41.0
13.542	50.0
13.557	55.0
13.572	47.0
13.587	53.0
13.602	61.0
13.617	68.0
13.632	72.0
13.647	65.0
13.662	78.0
13.677	79.0
13.691	97.0
13.706	80.0
13.721	98.0
13.736	107.0
13.751	124.0
13.766	129.0
13.781	105.0
13.796	109.0
13.811	126.0
13.826	125.0
13.841	120.0
13.856	123.0
13.871	123.0
13.885	100.0
13.9	102.0
13.915	70.0
13.93	64.0
13.945	59.0
13.96	49.0
13.975	44.0
13.99	29.0
14.005	32.0
14.02	45.0
14.035	37.0
14.05	29.0
14.065	17.0
14.08	28.0
14.094	29.0
14.109	24.0
14.124	22.0
14.139	20.0
14.154	20.0
14.169	26.0
14.184	23.0
14.199	23.0
14.214	23.0
14.229	23.0
14.244	20.0
14.259	12.0
14.274	25.0
14.288	28.0
14.303	20.0
14.318	15.0
14.333	22.0
14.348	15.0
14.363	15.0
14.378	25.0
14.393	27.0
14.408	21.0
14.423	17.0
14.438	15.0
14.453	20.0
14.468	19.0
14.482	26.0
14.497	11.0
14.512	16.0
14.527	12.0
14.542	18.0
14.557	16.0
14.572	18.0
14.587	18.0
14.602	14.0
14.617	18.0
14.632	11.0
14.647	16.0
14.661	19.0
14.676	13.0
14.691	15.0
14.706	15.0
14.721	16.0
14.736	13.0
14.751	12.0
14.766	14.0
14.781	19.0
14.796	14.0
14.811	19.0
14.826	16.0
14.84	12.0
14.855	19.0
14.87	17.0
14.885	17.0
14.9	16.0
14.915	12.0
14.93	17.0
14.945	10.0
14.96	14.0
14.975	14.0
14.989	20.0
15.004	18.0
15.019	13.0
15.034	11.0
15.049	9.0
15.064	16.0
15.079	15.0
15.094	11.0
15.109	13.0
15.124	19.0
15.138	16.0
15.153	10.0
15.168	17.0
15.183	14.0
15.198	14.0
15.213	13.0
15.228	5.0
15.243	22.0
15.258	12.0
15.272	24.0
15.287	13.0
15.302	14.0
15.317	19.0
15.332	15.0
15.347	13.0
15.362	8.0
15.377	11.0
15.391	14.0
15.406	13.0
15.421	14.0
15.436	13.0
15.451	16.0
15.466	19.0
15.481	14.0
15.496	11.0
15.51	15.0
15.525	16.0
15.54	15.0
15.555	11.0
15.57	14.0
15.585	9.0
15.6	23.0
15.614	12.0
15.629	15.0
15.644	17.0
15.659	14.0
15.674	16.0
15.689	15.0
15.704	16.0
15.718	9.0
15.733	21.0
15.748	7.0
15.763	16.0
15.778	13.0
15.793	18.0
15.808	13.0
15.822	13.0
15.837	8.0
15.852	20.0
15.867	7.0
15.882	14.0
15.897	14.0
15.911	11.0
15.926	12.0
15.941	16.0
15.956	14.0
15.971	11.0
15.986	14.0
16.0	16.0
16.015	16.0
16.03	16.0
16.045	17.0
16.06	13.0
16.074	19.0
16.089	18.0
16.104	15.0
16.119	19.0
16.134	17.0
16.149	15.0
16.163	19.0
16.178	13.0
16.193	12.0
16.208	20.0
16.223	13.0
16.237	9.0
16.252	13.0
16.267	10.0
16.282	14.0
16.297	12.0
16.311	14.0
16.326	14.0
16.341	13.0
16.356	12.0
16.37	9.0
16.385	11.0
16.4	14.0
16.415	15.0
16.43	17.0
16.444	10.0
16.459	15.0
16.474	12.0
16.489	11.0
16.504	16.0
16.518	11.0
16.533	9.0
16.548	17.0
16.563	17.0
16.577	25.0
16.592	18.0
16.607	21.0
16.622	13.0
16.637	17.0
16.651	26.0
16.666	20.0
16.681	19.0
16.696	23.0
16.71	17.0
16.725	28.0
16.74	19.0
16.755	24.0
16.77	38.0
16.784	26.0
16.799	26.0
16.814	44.0
16.829	46.0
16.843	54.0
16.858	64.0
16.873	53.0
16.888	54.0
16.902	77.0
16.917	70.0
16.932	83.0
16.947	69.0
16.961	80.0
16.976	60.0
16.991	65.0
17.006	65.0
17.021	69.0
17.035	44.0
17.05	43.0
17.065	35.0
17.08	35.0
17.094	34.0
17.109	32.0
17.124	29.0
17.139	30.0
17.153	22.0
17.168	16.0
17.183	15.0
17.198	20.0
17.212	12.0
17.227	22.0
17.242	8.0
17.257	10.0
17.271	14.0
17.286	10.0
17.301	17.0
17.316	13.0
17.33	11.0
17.345	14.0
17.36	14.0
17.375	12.0
17.39	10.0
17.404	11.0
17.419	15.0
17.434	17.0
17.449	12.0
17.463	16.0
17.478	8.0
17.493	4.0
17.508	10.0
17.522	8.0
17.537	16.0
17.552	23.0
17.567	10.0
17.581	9.0
17.596	17.0
17.611	6.0
17.626	12.0
17.641	13.0
17.655	19.0
17.67	17.0
17.685	17.0
17.7	10.0
17.714	11.0
17.729	14.0
17.744	9.0
17.759	16.0
17.773	15.0
17.788	12.0
17.803	9.0
17.818	12.0
17.833	13.0
17.847	14.0
17.862	19.0
17.877	6.0
17.892	11.0
17.906	11.0
17.921	15.0
17.936	6.0
17.951	10.0
17.966	9.0
17.98	4.0
17.995	10.0
18.01	8.0
18.025	7.0
18.04	12.0
18.054	19.0
18.069	17.0
18.084	17.0
18.099	9.0
18.114	7.0
18.128	10.0
18.143	20.0
18.158	13.0
18.173	12.0
18.188	10.0
18.202	12.0
18.217	17.0
18.232	10.0
18.247	8.0
18.262	15.0
18.276	12.0
18.291	9.0
18.306	17.0
18.321	13.0
18.336	11.0
18.35	9.0
18.365	10.0
18.38	17.0
18.395	20.0
18.41	16.0
18.424	12.0
18.439	15.0
18.454	8.0
18.469	10.0
18.484	9.0
18.498	4.0
18.513	10.0
18.528	12.0
18.543	6.0
18.558	13.0
18.573	10.0
18.587	14.0
18.602	15.0
18.617	9.0
18.632	7.0
18.647	15.0
18.661	10.0
18.676	10.0
18.691	15.0
18.706	12.0
18.721	13.0
18.736	13.0
18.75	8.0
18.765	13.0
18.78	11.0
18.795	11.0
18.81	14.0
18.825	7.0
18.839	12.0
18.854	13.0
18.869	9.0
18.884	8.0
18.899	12.0
18.913	9.0
18.928	13.0
18.943	7.0
18.958	12.0
18.973	8.0
18.988	16.0
19.002	12.0
19.017	7.0
19.032	16.0
19.047	9.0
19.062	9.0
19.077	18.0
19.091	16.0
19.106	9.0
19.121	14.0
19.136	9.0
19.151	13.0
19.165	7.0
19.18	9.0
19.195	10.0
19.21	15.0
19.225	11.0
19.24	9.0
19.254	10.0
19.269	13.0
19.284	22.0
19.299	13.0
19.314	17.0
19.329	19.0
19.343	19.0
19.358	22.0
19.373	24.0
19.388	16.0
19.403	27.0
19.417	22.0
19.432	25.0
19.447	25.0
19.462	26.0
19.477	35.0
19.492	31.0
19.506	32.0
19.521	32.0
19.536	38.0
19.551	35.0
19.566	43.0
19.58	40.0
19.595	46.0
19.61	48.0
19.625	41.0
19.64	47.0
19.655	39.0
19.669	25.0
19.684	41.0
19.699	29.0
19.714	35.0
19.729	20.0
19.743	19.0
19.758	22.0
19.773	27.0
19.788	18.0
19.803	13.0
19.817	10.0
19.832	16.0
19.847	14.0
19.862	14.0
19.877	14.0
19.891	9.0
19.906	10.0
19.921	16.0
19.936	19.0
19.951	20.0
19.965	9.0
19.98	15.0
19.995	8.0
20.01	13.0
20.025	8.0
20.039	12.0
20.054	9.0
20.069	16.0
20.084	18.0
20.099	9.0
20.113	13.0
20.128	14.0
20.143	12.0
20.158	8.0
20.173	12.0
20.187	10.0
20.202	2.0
20.217	12.0
20.232	6.0
20.246	11.0
20.261	12.0
20.276	14.0
20.291	12.0
20.306	18.0
20.32	15.0
20.335	14.0
20.35	10.0
20.365	10.0
20.38	14.0
20.394	10.0
20.409	13.0
20.424	12.0
20.439	10.0
20.453	8.0
20.468	14.0
20.483	11.0
20.498	11.0
20.513	8.0
20.527	13.0
20.542	5.0
20.557	10.0
20.572	6.0
20.586	8.0
20.601	10.0
20.616	9.0
20.631	9.0
20.646	11.0
20.66	6.0
20.675	6.0
20.69	10.0
20.705	9.0
20.719	10.0
20.734	14.0
20.749	9.0
20.764	17.0
20.779	6.0
20.793	11.0
20.808	9.0
20.823	12.0
20.838	12.0
20.853	5.0
20.867	13.0
20.882	16.0
20.897	11.0
20.912	13.0
20.926	14.0
20.941	8.0
20.956	13.0
20.971	8.0
20.986	8.0
21.0	18.0
21.015	10.0
21.03	9.0
21.045	10.0
21.06	14.0
21.074	7.0
21.089	11.0
21.104	14.0
21.119	14.0
21.134	10.0
21.148	14.0
21.163	16.0
21.178	12.0
21.193	11.0
21.208	16.0
21.222	13.0
21.237	10.0
21.252	9.0
21.267	12.0
21.282	13.0
21.296	8.0
21.311	5.0
21.326	13.0
21.341	15.0
21.356	14.0
21.37	12.0
21.385	14.0
21.4	7.0
21.415	16.0
21.43	14.0
21.444	10.0
21.459	16.0
21.474	16.0
21.489	13.0
21.504	16.0
21.519	13.0
21.533	12.0
21.548	12.0
21.563	6.0
21.578	9.0
21.593	12.0
21.608	10.0
21.622	12.0
21.637	16.0
21.652	17.0
21.667	13.0
21.682	15.0
21.697	19.0
21.712	24.0
21.726	22.0
21.741	24.0
21.756	29.0
21.771	32.0
21.786	34.0
21.801	36.0
21.816	42.0
21.83	50.0
21.845	52.0
21.86	55.0
21.875	64.0
21.89	77.0
21.905	72.0
21.92	72.0
21.935	81.0
21.949	81.0
21.964	74.0
21.979	74.0
21.994	59.0
22.009	55.0
22.024	62.0
22.039	65.0
22.054	55.0
22.069	49.0
22.083	53.0
22.098	46.0
22.113	42.0
22.128	38.0
22.143	18.0
22.158	29.0
22.173	26.0
22.188	25.0
22.203	19.0
22.218	11.0
22.233	16.0
22.248	14.0
22.262	6.0
22.277	19.0
22.292	13.0
22.307	8.0
22.322	19.0
22.337	10.0
22.352	12.0
22.367	16.0
22.382	15.0
22.397	10.0
22.412	20.0
22.427	8.0
22.442	11.0
22.457	10.0
22.472	5.0
22.487	16.0
22.502	10.0
22.516	13.0
22.531	16.0
22.546	7.0
22.561	11.0
22.576	11.0
22.591	11.0
22.606	15.0
22.621	12.0
22.636	17.0
22.651	10.0
22.666	11.0
22.681	9.0
22.696	10.0
22.711	7.0
22.726	11.0
22.741	15.0
22.756	11.0
22.771	14.0
22.786	12.0
22.801	14.0
22.816	7.0
22.831	10.0
22.846	12.0
22.861	10.0
22.876	10.0
22.891	8.0
22.906	8.0
22.92	12.0
22.935	10.0
22.95	11.0
22.965	12.0
22.98	8.0
22.995	11.0
23.01	13.0
23.025	7.0
23.04	16.0
23.055	13.0
23.07	14.0
23.085	12.0
23.1	5.0
23.115	8.0
23.13	6.0
23.145	9.0
23.16	10.0
23.175	7.0
23.19	9.0
23.205	7.0
23.22	11.0
23.235	13.0
23.25	10.0
23.265	12.0
23.28	11.0
23.295	7.0
23.31	12.0
23.325	8.0
23.34	6.0
23.355	10.0
23.37	13.0
23.384	14.0
23.399	9.0
23.414	9.0
23.429	14.0
23.444	10.0
23.459	16.0
23.474	8.0
23.489	7.0
23.504	14.0
23.519	13.0
23.534	9.0
23.549	15.0
23.564	12.0
23.579	8.0
23.594	15.0
23.609	5.0
23.624	18.0
23.639	12.0
23.654	16.0
23.668	15.0
23.683	13.0
23.698	9.0
23.713	8.0
23.728	12.0
23.743	15.0
23.758	15.0
23.773	16.0
23.788	12.0
23.803	13.0
23.818	14.0
23.833	13.0
23.848	13.0
23.862	13.0
23.877	17.0
23.892	16.0
23.907	18.0
23.922	19.0
23.937	32.0
23.952	23.0
23.967	31.0
23.982	52.0
23.997	36.0
24.011	36.0
24.026	36.0
24.041	33.0
24.056	49.0
24.071	45.0
24.086	67.0
24.101	43.0
24.116	39.0
24.131	47.0
24.145	45.0
24.16	47.0
24.175	30.0
24.19	40.0
24.205	35.0
24.22	39.0
24.235	21.0
24.249	21.0
24.264	31.0
24.279	22.0
24.294	31.0
24.309	14.0
24.324	21.0
24.338	14.0
24.353	18.0
24.368	16.0
24.383	12.0
24.398	18.0
24.413	12.0
24.428	15.0
24.442	9.0
24.457	12.0
24.472	13.0
24.487	13.0
24.502	16.0
24.516	11.0
24.531	11.0
24.546	13.0
24.561	14.0
24.576	13.0
24.591	12.0
24.605	10.0
24.62	8.0
24.635	15.0
24.65	9.0
24.665	17.0
24.679	4.0
24.694	13.0
24.709	18.0
24.724	15.0
24.739	13.0
24.753	10.0
24.768	8.0
24.783	10.0
24.798	15.0
24.813	14.0
24.827	9.0
24.842	8.0
24.857	3.0
24.872	6.0
24.886	13.0
24.901	11.0
24.916	11.0
24.931	10.0
24.946	11.0
24.96	12.0
24.975	9.0
24.99	10.0
25.005	7.0
25.019	6.0
25.034	13.0
25.049	11.0
25.064	13.0
25.078	9.0
25.093	11.0
25.108	12.0
25.123	9.0
25.138	9.0
25.152	11.0
25.167	9.0
25.182	14.0
25.197	7.0
25.211	9.0
25.226	13.0
25.241	5.0
25.256	7.0
25.27	11.0
25.285	5.0
25.3	7.0
25.315	15.0
25.329	9.0
25.344	5.0
25.359	13.0
25.374	8.0
25.388	10.0
25.403	9.0
25.418	8.0
25.433	9.0
25.447	13.0
25.462	11.0
25.477	11.0
25.492	6.0
25.506	7.0
25.521	11.0
25.536	7.0
25.55	7.0
25.565	8.0
25.58	7.0
25.595	14.0
25.609	13.0
25.624	12.0
25.639	6.0
25.654	16.0
25.668	11.0
25.683	9.0
25.698	10.0
25.713	11.0
25.727	6.0
25.742	9.0
25.757	16.0
25.772	10.0
25.786	10.0
25.801	10.0
25.816	19.0
25.83	9.0
25.845	7.0
25.86	10.0
25.875	9.0
25.889	10.0
25.904	12.0
25.919	9.0
25.934	8.0
25.948	11.0
25.963	15.0
25.978	8.0
25.992	6.0
26.007	13.0
26.022	11.0
26.037	10.0
26.051	14.0
26.066	8.0
26.081	12.0
26.096	8.0
26.11	11.0
26.125	13.0
26.14	10.0
26.155	11.0
26.169	11.0
26.184	9.0
26.199	13.0
26.213	12.0
26.228	9.0
26.243	10.0
26.258	11.0
26.272	13.0
26.287	4.0
26.302	13.0
26.317	7.0
26.331	10.0
26.346	6.0
26.361	16.0
26.376	12.0
26.39	7.0
26.405	15.0
26.42	11.0
26.434	10.0
26.449	13.0
26.464	7.0
26.479	8.0
26.493	13.0
26.508	7.0
26.523	15.0
26.538	11.0
26.552	10.0
26.567	14.0
26.582	12.0
26.597	11.0
26.611	6.0
26.626	5.0
26.641	12.0
26.656	6.0
26.67	6.0
26.685	12.0
26.7	12.0
26.715	6.0
26.729	9.0
26.744	10.0
26.759	7.0
26.773	7.0
26.788	10.0
26.803	13.0
26.818	12.0
26.832	10.0
26.847	10.0
26.862	12.0
26.877	10.0
26.891	8.0
26.906	14.0
26.921	10.0
26.936	18.0
26.95	13.0
26.965	12.0
26.98	8.0
26.995	15.0
27.01	11.0
27.024	11.0
27.039	16.0
27.054	9.0
27.069	9.0
27.083	10.0
27.098	9.0
27.113	6.0
27.128	11.0
27.142	6.0
27.157	12.0
27.172	13.0
27.187	13.0
27.201	10.0
27.216	16.0
27.231	9.0
27.246	8.0
27.261	12.0
27.275	6.0
27.29	16.0
27.305	13.0
27.32	10.0
27.334	10.0
27.349	11.0
27.364	8.0
27.379	12.0
27.394	12.0
27.408	13.0
27.423	9.0
27.438	9.0
27.453	9.0
27.467	7.0
27.482	9.0
27.497	10.0
27.512	13.0
27.527	13.0
27.541	11.0
27.556	15.0
27.571	10.0
27.586	9.0
27.601	6.0
27.615	5.0
27.63	10.0
27.645	13.0
27.66	14.0
27.675	12.0
27.689	9.0
27.704	8.0
27.719	18.0
27.734	20.0
27.749	18.0
27.763	16.0
27.778	15.0
27.793	15.0
27.808	25.0
27.823	22.0
27.838	33.0
27.852	26.0
27.867	23.0
27.882	22.0
27.897	18.0
27.912	25.0
27.926	21.0
27.941	19.0
27.956	22.0
27.971	15.0
27.986	20.0
28.001	16.0
28.015	8.0
28.03	15.0
28.045	31.0
28.06	16.0
28.075	16.0
28.09	14.0
28.105	19.0
28.119	14.0
28.134	6.0
28.149	13.0
28.164	12.0
28.179	7.0
28.194	10.0
28.208	12.0
28.223	14.0
28.238	15.0
28.253	7.0
28.268	11.0
28.283	7.0
28.298	5.0
28.312	9.0
28.327	17.0
28.342	11.0
28.357	5.0
28.372	6.0
28.387	5.0
28.402	12.0
28.417	11.0
28.431	10.0
28.446	8.0
28.461	5.0
28.476	11.0
28.491	10.0
28.506	10.0
28.521	19.0
28.536	7.0
28.55	14.0
28.565	7.0
28.58	12.0
28.595	6.0
28.61	11.0
28.625	8.0
28.64	15.0
28.655	11.0
28.669	9.0
28.684	6.0
28.699	9.0
28.714	15.0
28.729	7.0
28.744	7.0
28.759	9.0
28.774	7.0
28.788	5.0
28.803	13.0
28.818	7.0
28.833	7.0
28.848	13.0
28.863	14.0
28.878	19.0
28.893	15.0
28.908	12.0
28.922	9.0
28.937	8.0
28.952	8.0
28.967	10.0
28.982	6.0
28.997	9.0
29.012	10.0
29.027	15.0
29.041	14.0
29.056	10.0
29.071	9.0
29.086	10.0
29.101	12.0
29.116	5.0
29.131	14.0
29.146	11.0
29.16	13.0
29.175	10.0
29.19	5.0
29.205	9.0
29.22	8.0
29.235	7.0
29.25	15.0
29.265	11.0
29.279	9.0
29.294	12.0
29.309	13.0
29.324	12.0
29.339	15.0
29.354	16.0
29.369	8.0
29.384	13.0
29.398	19.0
29.413	20.0
29.428	17.0
29.443	24.0
29.458	23.0
29.473	39.0
29.488	34.0
29.502	40.0
29.517	27.0
29.532	46.0
29.547	37.0
29.562	41.0
29.577	39.0
29.592	38.0
29.606	50.0
29.621	50.0
29.636	61.0
29.651	50.0
29.666	59.0
29.681	36.0
29.695	42.0
29.71	34.0
29.725	40.0
29.74	37.0
29.755	43.0
29.77	32.0
29.784	31.0
29.799	22.0
29.814	24.0
29.829	32.0
29.844	14.0
29.859	24.0
29.873	17.0
29.888	15.0
29.903	19.0
29.918	16.0
29.933	12.0
29.947	11.0
29.962	11.0
29.977	14.0
29.992	8.0
30.007	5.0
30.021	14.0
30.036	11.0
30.051	9.0
30.066	11.0
30.081	12.0
30.095	13.0
30.11	13.0
30.125	18.0
30.14	5.0
30.155	9.0
30.169	15.0
30.184	6.0
30.199	11.0
30.214	11.0
30.228	13.0
30.243	10.0
30.258	15.0
30.273	12.0
30.288	15.0
30.302	14.0
30.317	15.0
30.332	10.0
30.347	10.0
30.361	15.0
30.376	12.0
30.391	17.0
30.406	16.0
30.42	12.0
30.435	14.0
30.45	7.0
30.465	12.0
30.479	14.0
30.494	6.0
30.509	8.0
30.524	11.0
30.538	14.0
30.553	11.0
30.568	15.0
30.583	16.0
30.597	13.0
30.612	11.0
30.627	12.0
30.641	10.0
30.656	8.0
30.671	6.0
30.686	12.0
30.7	14.0
30.715	6.0
30.73	9.0
30.745	13.0
30.759	11.0
30.774	15.0
30.789	10.0
30.803	10.0
30.818	10.0
30.833	9.0
30.848	9.0
30.862	8.0
30.877	12.0
30.892	9.0
30.906	10.0
30.921	7.0
30.936	15.0
30.951	12.0
30.965	16.0
30.98	11.0
30.995	18.0
31.009	12.0
31.024	14.0
31.039	9.0
31.053	12.0
31.068	16.0
31.083	18.0
31.098	12.0
31.112	24.0
31.127	21.0
31.142	26.0
31.156	18.0
31.171	21.0
31.186	25.0
31.2	36.0
31.215	34.0
31.23	37.0
31.245	37.0
31.259	28.0
31.274	36.0
31.289	30.0
31.303	39.0
31.318	25.0
31.333	29.0
31.347	32.0
31.362	22.0
31.377	30.0
31.392	27.0
31.406	35.0
31.421	31.0
31.436	30.0
31.45	25.0
31.465	33.0
31.48	25.0
31.494	27.0
31.509	20.0
31.524	14.0
31.538	22.0
31.553	8.0
31.568	10.0
31.583	13.0
31.597	18.0
31.612	7.0
31.627	9.0
31.641	17.0
31.656	13.0
31.671	14.0
31.685	5.0
31.7	10.0
31.715	10.0
31.729	10.0
31.744	8.0
31.759	8.0
31.774	6.0
31.788	7.0
31.803	14.0
31.818	13.0
31.832	4.0
31.847	15.0
31.862	16.0
31.876	7.0
31.891	4.0
31.906	6.0
31.92	9.0
31.935	10.0
31.95	9.0
31.965	6.0
31.979	5.0
31.994	7.0
32.009	10.0
32.023	5.0
32.038	8.0
32.053	14.0
32.067	9.0
32.082	15.0
32.097	7.0
32.112	15.0
32.126	20.0
32.141	12.0
32.156	11.0
32.17	14.0
32.185	13.0
32.2	11.0
32.214	9.0
32.229	8.0
32.244	8.0
32.259	3.0
32.273	9.0
32.288	10.0
32.303	10.0
32.317	7.0
32.332	9.0
32.347	10.0
32.362	8.0
32.376	10.0
32.391	14.0
32.406	12.0
32.42	14.0
32.435	13.0
32.45	4.0
32.465	9.0
32.479	6.0
32.494	6.0
32.509	11.0
32.523	6.0
32.538	10.0
32.553	14.0
32.568	5.0
32.582	12.0
32.597	16.0
32.612	14.0
32.627	12.0
32.641	8.0
32.656	16.0
32.671	9.0
32.685	11.0
32.7	20.0
32.715	14.0
32.73	18.0
32.744	16.0
32.759	24.0
32.774	22.0
32.788	20.0
32.803	25.0
32.818	24.0
32.833	30.0
32.847	22.0
32.862	23.0
32.877	23.0
32.892	21.0
32.906	17.0
32.921	22.0
32.936	20.0
32.951	25.0
32.965	28.0
32.98	19.0
32.995	17.0
33.009	19.0
33.024	25.0
33.039	15.0
33.054	12.0
33.068	15.0
33.083	8.0
33.098	8.0
33.113	12.0
33.127	11.0
33.142	10.0
33.157	9.0
33.172	8.0
33.186	11.0
33.201	11.0
33.216	11.0
33.231	7.0
33.245	10.0
33.26	9.0
33.275	8.0
33.29	12.0
33.304	9.0
33.319	8.0
33.334	11.0
33.349	16.0
33.363	8.0
33.378	4.0
33.393	7.0
33.408	12.0
33.422	14.0
33.437	10.0
33.452	8.0
33.467	10.0
33.481	6.0
33.496	9.0
33.511	8.0
33.526	11.0
33.54	13.0
33.555	7.0
33.57	11.0
33.585	9.0
33.599	12.0
33.614	11.0
33.629	12.0
33.644	10.0
33.658	9.0
33.673	10.0
33.688	14.0
33.703	12.0
33.718	10.0
33.732	8.0
33.747	10.0
33.762	5.0
33.777	12.0
33.791	11.0
33.806	5.0
33.821	12.0
33.836	6.0
33.85	11.0
33.865	17.0
33.88	13.0
33.895	11.0
33.91	8.0
33.924	5.0
33.939	13.0
33.954	11.0
33.969	6.0
33.983	9.0
33.998	13.0
34.013	14.0
34.028	12.0
34.042	7.0
34.057	12.0
34.072	15.0
34.087	7.0
34.102	7.0
34.116	13.0
34.131	15.0
34.146	17.0
34.161	12.0
34.175	12.0
34.19	9.0
34.205	12.0
34.22	15.0
34.235	9.0
34.249	13.0
34.264	15.0
34.279	9.0
34.294	15.0
34.309	17.0
34.323	14.0
34.338	16.0
34.353	11.0
34.368	14.0
34.382	10.0
34.397	12.0
34.412	10.0
34.427	14.0
34.442	15.0
34.456	19.0
34.471	14.0
34.486	15.0
34.501	9.0
34.516	11.0
34.53	11.0
34.545	9.0
34.56	11.0
34.575	10.0
34.59	9.0
34.604	10.0
34.619	9.0
34.634	8.0
34.649	10.0
34.664	17.0
34.678	11.0
34.693	7.0
34.708	14.0
34.723	9.0
34.738	8.0
34.752	10.0
34.767	6.0
34.782	7.0
34.797	6.0
34.812	12.0
34.826	6.0
34.841	5.0
34.856	6.0
34.871	6.0
34.886	8.0
34.9	13.0
34.915	7.0
34.93	4.0
34.945	7.0
34.96	16.0
34.974	7.0
34.989	10.0
35.004	7.0
35.019	6.0
35.034	6.0
35.048	10.0
35.063	12.0
35.078	6.0
35.093	8.0
35.108	7.0
35.122	12.0
35.137	10.0
35.152	7.0
35.167	5.0
35.182	6.0
35.196	8.0
35.211	7.0
35.226	6.0
35.241	12.0
35.256	6.0
35.27	9.0
35.285	1.0
35.3	9.0
35.315	7.0
35.33	10.0
35.344	14.0
35.359	7.0
35.374	9.0
35.389	3.0
35.404	11.0
35.418	6.0
35.433	8.0
35.448	16.0
35.463	10.0
35.478	6.0
35.493	10.0
35.507	7.0
35.522	6.0
35.537	12.0
35.552	14.0
35.567	5.0
35.581	5.0
35.596	6.0
35.611	13.0
35.626	17.0
35.641	15.0
35.655	10.0
35.67	19.0
35.685	13.0
35.7	18.0
35.715	17.0
35.729	18.0
35.744	21.0
35.759	23.0
35.774	13.0
35.789	24.0
35.804	20.0
35.818	23.0
35.833	12.0
35.848	21.0
35.863	12.0
35.878	17.0
35.892	12.0
35.907	18.0
35.922	11.0
35.937	11.0
35.952	15.0
35.966	12.0
35.981	10.0
35.996	13.0
36.011	11.0
36.026	16.0
36.04	15.0
36.055	18.0
36.07	15.0
36.085	18.0
36.1	19.0
36.114	10.0
36.129	11.0
36.144	9.0
36.159	9.0
36.174	5.0
36.189	10.0
36.203	12.0
36.218	5.0
36.233	8.0
36.248	12.0
36.263	10.0
36.277	7.0
36.292	11.0
36.307	10.0
36.322	12.0
36.337	5.0
36.351	6.0
36.366	6.0
36.381	10.0
36.396	8.0
36.411	9.0
36.426	9.0
36.44	8.0
36.455	10.0
36.47	11.0
36.485	6.0
36.5	11.0
36.514	9.0
36.529	9.0
36.544	11.0
36.559	11.0
36.574	7.0
36.589	9.0
36.603	1.0
36.618	13.0
36.633	4.0
36.648	4.0
36.663	6.0
36.677	7.0
36.692	6.0
36.707	8.0
36.722	6.0
36.737	4.0
36.752	8.0
36.766	2.0
36.781	10.0
36.796	6.0
36.811	7.0
36.826	15.0
36.841	9.0
36.855	5.0
36.87	13.0
36.885	4.0
36.9	12.0
36.915	5.0
36.93	7.0
36.944	3.0
36.959	6.0
36.974	7.0
36.989	15.0
37.004	8.0
37.019	11.0
37.033	8.0
37.048	11.0
37.063	16.0
37.078	21.0
37.093	20.0
37.108	24.0
37.123	21.0
37.137	33.0
37.152	24.0
37.167	25.0
37.182	31.0
37.197	15.0
37.212	24.0
37.226	20.0
37.241	27.0
37.256	34.0
37.271	16.0
37.286	16.0
37.301	16.0
37.316	20.0
37.331	20.0
37.345	16.0
37.36	22.0
37.375	18.0
37.39	12.0
37.405	18.0
37.42	27.0
37.435	19.0
37.45	19.0
37.464	16.0
37.479	10.0
37.494	9.0
37.509	11.0
37.524	6.0
37.539	7.0
37.554	17.0
37.569	16.0
37.583	9.0
37.598	8.0
37.613	7.0
37.628	6.0
37.643	9.0
37.658	8.0
37.673	8.0
37.688	11.0
37.703	12.0
37.718	8.0
37.733	4.0
37.747	8.0
37.762	3.0
37.777	2.0
37.792	6.0
37.807	6.0
37.822	11.0
37.837	11.0
37.852	8.0
37.867	5.0
37.882	8.0
37.897	9.0
37.912	1.0
37.927	5.0
37.941	6.0
37.956	11.0
37.971	4.0
37.986	7.0
38.001	6.0
38.016	8.0
38.031	5.0
38.046	10.0
38.061	6.0
38.076	5.0
38.091	10.0
38.106	5.0
38.121	9.0
38.136	6.0
38.151	5.0
38.166	8.0
38.181	11.0
38.196	5.0
38.211	9.0
38.226	6.0
38.241	8.0
38.256	9.0
38.271	9.0
38.285	12.0
38.3	8.0
38.315	5.0
38.33	7.0
38.345	4.0
38.36	6.0
38.375	5.0
38.39	7.0
38.405	8.0
38.42	3.0
38.435	12.0
38.45	9.0
38.465	3.0
38.48	4.0
38.495	8.0
38.51	8.0
38.525	3.0
38.54	3.0
38.555	4.0
38.57	7.0
38.585	12.0
38.6	6.0
38.615	2.0
38.63	5.0
38.645	7.0
38.66	5.0
38.675	5.0
38.69	5.0
38.705	7.0
38.72	4.0
38.735	9.0
38.75	8.0
38.765	5.0
38.78	6.0
38.795	2.0
38.81	5.0
38.825	4.0
38.84	3.0
38.855	11.0
38.87	5.0
38.885	6.0
38.9	11.0
38.915	6.0
38.93	4.0
38.945	11.0
38.96	9.0
38.975	9.0
38.99	7.0
39.005	2.0
39.02	9.0
39.035	6.0
39.05	11.0
39.065	7.0
39.08	4.0
39.095	5.0
39.11	4.0
39.125	7.0
39.14	5.0
39.155	7.0
39.17	10.0
39.185	2.0
39.2	10.0
39.215	5.0
39.23	5.0
39.245	9.0
39.26	8.0
39.275	5.0
39.29	6.0
39.305	8.0
39.32	2.0
39.335	4.0
39.35	9.0
39.365	8.0
39.38	5.0
39.395	7.0
39.409	8.0
39.424	6.0
39.439	3.0
39.454	4.0
39.469	9.0
39.484	8.0
39.499	7.0
39.514	3.0
39.529	3.0
39.544	4.0
39.559	5.0
39.574	5.0
39.589	4.0
39.604	8.0
39.619	5.0
39.634	4.0
39.649	7.0
39.664	5.0
39.678	8.0
39.693	7.0
39.708	7.0
39.723	7.0
39.738	6.0
39.753	7.0
39.768	8.0
39.783	12.0
39.798	9.0
39.813	11.0
39.827	12.0
39.842	8.0
39.857	7.0
39.872	13.0
39.887	10.0
39.902	10.0
39.917	5.0
39.932	8.0
39.947	10.0
39.961	7.0
39.976	8.0
39.991	6.0
40.006	7.0
40.021	5.0
40.036	7.0
40.051	4.0
40.065	7.0
40.08	5.0
40.095	5.0
40.11	7.0
40.125	6.0
40.14	9.0
40.154	9.0
40.169	6.0
40.184	4.0
40.199	8.0
40.214	3.0
40.228	3.0
40.243	7.0
40.258	7.0
40.273	5.0
40.288	4.0
40.302	4.0
40.317	4.0
40.332	7.0
40.347	6.0
40.362	7.0
40.376	9.0
40.391	5.0
40.406	3.0
40.421	5.0
40.436	2.0
40.45	3.0
40.465	4.0
40.48	5.0
40.495	3.0
40.509	5.0
40.524	6.0
40.539	4.0
40.554	6.0
40.568	8.0
40.583	2.0
40.598	8.0
40.613	3.0
40.627	5.0
40.642	8.0
40.657	5.0
40.672	6.0
40.686	6.0
40.701	5.0
40.716	5.0
40.731	3.0
40.745	10.0
40.76	4.0
40.775	1.0
40.79	10.0
40.804	5.0
40.819	6.0
40.834	6.0
40.849	7.0
40.863	4.0
40.878	4.0
40.893	9.0
40.907	6.0
40.922	8.0
40.937	8.0
40.952	5.0
40.966	7.0
40.981	8.0
40.996	7.0
41.011	11.0
41.025	11.0
41.04	9.0
41.055	11.0
41.069	20.0
41.084	14.0
41.099	26.0
41.114	21.0
41.128	21.0
41.143	18.0
41.158	23.0
41.173	26.0
41.187	17.0
41.202	14.0
41.217	11.0
41.231	12.0
41.246	13.0
41.261	15.0
41.276	9.0
41.29	10.0
41.305	11.0
41.32	14.0
41.335	10.0
41.349	15.0
41.364	17.0
41.379	13.0
41.393	13.0
41.408	13.0
41.423	14.0
41.438	11.0
41.452	8.0
41.467	19.0
41.482	8.0
41.497	7.0
41.511	5.0
41.526	10.0
41.541	9.0
41.556	6.0
41.57	6.0
41.585	4.0
41.6	10.0
41.615	2.0
41.629	7.0
41.644	5.0
41.659	4.0
41.674	8.0
41.688	5.0
41.703	3.0
41.718	4.0
41.733	4.0
41.747	5.0
41.762	6.0
41.777	6.0
41.792	3.0
41.806	2.0
41.821	3.0
41.836	7.0
41.851	5.0
41.866	10.0
41.88	6.0
41.895	7.0
41.91	4.0
41.925	8.0
41.939	5.0
41.954	6.0
41.969	9.0
41.984	4.0
41.999	5.0
42.013	11.0
42.028	6.0
42.043	4.0
42.058	4.0
42.073	6.0
42.088	8.0
42.102	8.0
42.117	9.0
42.132	6.0
42.147	5.0
42.162	10.0
42.176	6.0
42.191	7.0
42.206	12.0
42.221	9.0
42.236	7.0
42.251	9.0
42.266	10.0
42.28	9.0
42.295	9.0
42.31	9.0
42.325	9.0
42.34	10.0
42.355	10.0
42.369	25.0
42.384	17.0
42.399	15.0
42.414	19.0
42.429	12.0
42.444	20.0
42.459	16.0
42.474	8.0
42.488	15.0
42.503	14.0
42.518	3.0
42.533	6.0
42.548	7.0
42.563	7.0
42.578	13.0
42.593	10.0
42.608	8.0
42.622	11.0
42.637	22.0
42.652	9.0
42.667	15.0
42.682	21.0
42.697	5.0
42.712	10.0
42.727	7.0
42.742	6.0
42.757	2.0
42.772	7.0
42.786	7.0
42.801	7.0
42.816	7.0
42.831	11.0
42.846	7.0
42.861	3.0
42.876	4.0
42.891	9.0
42.906	4.0
42.921	6.0
42.936	5.0
42.951	4.0
42.966	6.0
42.981	7.0
42.996	5.0
43.011	5.0
43.025	5.0
43.04	4.0
43.055	2.0
43.07	4.0
43.085	6.0
43.1	9.0
43.115	5.0
43.13	5.0
43.145	4.0
43.16	3.0
43.175	5.0
43.19	4.0
43.205	8.0
43.22	6.0
43.235	8.0
43.25	6.0
43.265	4.0
43.28	5.0
43.295	4.0
43.31	6.0
43.325	11.0
43.34	2.0
43.355	6.0
43.37	5.0
43.385	13.0
43.4	4.0
43.415	7.0
43.43	6.0
43.445	6.0
43.46	5.0
43.475	7.0
43.49	8.0
43.505	11.0
43.52	8.0
43.535	11.0
43.55	7.0
43.565	4.0
43.58	10.0
43.595	7.0
43.61	8.0
43.625	11.0
43.64	6.0
43.655	13.0
43.67	4.0
43.685	12.0
43.7	10.0
43.715	8.0
43.73	2.0
43.745	5.0
43.76	15.0
43.775	3.0
43.79	9.0
43.805	13.0
43.82	4.0
43.835	2.0
43.85	4.0
43.865	9.0
43.88	5.0
43.895	6.0
43.91	6.0
43.925	11.0
43.94	4.0
43.955	10.0
43.97	4.0
43.985	6.0
44.0	3.0
44.015	3.0
44.03	4.0
44.045	8.0
44.061	7.0
44.076	6.0
44.091	5.0
44.106	4.0
44.121	4.0
44.136	3.0
44.151	6.0
44.166	6.0
44.181	6.0
44.196	7.0
44.211	4.0
44.226	5.0
44.241	6.0
44.256	3.0
44.271	5.0
44.286	7.0
44.301	4.0
44.316	7.0
44.331	5.0
44.346	7.0
44.361	2.0
44.377	7.0
44.392	3.0
44.407	3.0
44.422	4.0
44.437	6.0
44.452	3.0
44.467	7.0
44.482	6.0
44.497	4.0
44.512	9.0
44.527	0.0
44.542	8.0
44.557	5.0
44.572	3.0
44.587	4.0
44.602	4.0
44.617	5.0
44.632	5.0
44.647	8.0
44.663	7.0
44.678	5.0
44.693	5.0
44.708	6.0
44.723	7.0
44.738	5.0
44.753	6.0
44.768	11.0
44.783	14.0
44.798	11.0
44.813	8.0
44.828	9.0
44.843	4.0
44.858	13.0
44.873	8.0
44.888	10.0
44.903	11.0
44.918	14.0
44.933	9.0
44.948	4.0
44.964	9.0
44.979	5.0
44.994	4.0
45.009	8.0
45.024	7.0
45.039	8.0
45.054	4.0
45.069	10.0
45.084	9.0
45.099	10.0
45.114	6.0
45.129	9.0
45.144	6.0
45.159	11.0
45.174	5.0
45.189	7.0
45.204	2.0
45.219	5.0
45.234	6.0
45.249	4.0
45.264	5.0
45.279	10.0
45.294	2.0
45.309	4.0
45.324	2.0
45.339	3.0
45.354	4.0
45.369	5.0
45.384	5.0
45.399	7.0
45.414	3.0
45.429	5.0
45.444	5.0
45.459	3.0
45.474	4.0
45.489	6.0
45.504	4.0
45.519	5.0
45.534	5.0
45.549	4.0
45.564	2.0
45.579	4.0
45.594	5.0
45.609	5.0
45.624	5.0
45.639	5.0
45.654	3.0
45.669	9.0
45.684	6.0
45.699	3.0
45.714	4.0
45.729	8.0
45.744	7.0
45.759	9.0
45.774	8.0
45.789	4.0
45.804	8.0
45.819	6.0
45.834	12.0
45.849	8.0
45.864	9.0
45.879	16.0
45.894	9.0
45.909	9.0
45.924	12.0
45.939	10.0
45.954	13.0
45.969	13.0
45.984	17.0
45.998	17.0
46.013	10.0
46.028	16.0
46.043	21.0
46.058	18.0
46.073	8.0
46.088	10.0
46.103	10.0
46.118	7.0
46.133	6.0
46.148	12.0
46.163	4.0
46.178	11.0
46.192	9.0
46.207	6.0
46.222	7.0
46.237	7.0
46.252	11.0
46.267	9.0
46.282	8.0
46.297	10.0
46.312	11.0
46.327	11.0
46.341	8.0
46.356	3.0
46.371	8.0
46.386	8.0
46.401	7.0
46.416	7.0
46.431	5.0
46.446	5.0
46.46	7.0
46.475	5.0
46.49	6.0
46.505	4.0
46.52	4.0
46.535	5.0
46.55	3.0
46.564	6.0
46.579	1.0
46.594	5.0
46.609	7.0
46.624	3.0
46.639	9.0
46.654	3.0
46.668	7.0
46.683	7.0
46.698	3.0
46.713	3.0
46.728	2.0
46.743	3.0
46.758	6.0
46.772	4.0
46.787	7.0
46.802	7.0
46.817	1.0
46.832	4.0
46.847	9.0
46.861	7.0
46.876	4.0
46.891	9.0
46.906	5.0
46.921	9.0
46.936	8.0
46.95	3.0
46.965	2.0
46.98	4.0
46.995	5.0
47.01	4.0
47.025	7.0
47.039	6.0
47.054	7.0
47.069	9.0
47.084	4.0
47.099	4.0
47.113	10.0
47.128	13.0
47.143	16.0
47.158	18.0
47.173	8.0
47.188	9.0
47.202	8.0
47.217	4.0
47.232	10.0
47.247	7.0
47.262	4.0
47.277	2.0
47.291	5.0
47.306	5.0
47.321	7.0
47.336	5.0
47.351	5.0
47.365	9.0
47.38	9.0
47.395	12.0
47.41	8.0
47.425	11.0
47.44	8.0
47.454	12.0
47.469	8.0
47.484	11.0
47.499	5.0
47.514	3.0
47.528	14.0
47.543	4.0
47.558	12.0
47.573	3.0
47.588	3.0
47.603	14.0
47.617	3.0
47.632	6.0
47.647	4.0
47.662	1.0
47.677	6.0
47.691	6.0
47.706	9.0
47.721	6.0
47.736	4.0
47.751	5.0
47.766	4.0
47.78	4.0
47.795	2.0
47.81	3.0
47.825	5.0
47.84	2.0
47.855	5.0
47.869	4.0
47.884	2.0
47.899	8.0
47.914	3.0
47.929	1.0
47.944	2.0
47.958	2.0
47.973	4.0
47.988	6.0
48.003	3.0
48.018	6.0
48.033	2.0
48.047	4.0
48.062	9.0
48.077	2.0
48.092	10.0
48.107	4.0
48.122	2.0
48.137	7.0
48.151	4.0
48.166	7.0
48.181	4.0
48.196	2.0
48.211	4.0
48.226	6.0
48.241	2.0
48.255	4.0
48.27	7.0
48.285	6.0
48.3	5.0
48.315	8.0
48.33	1.0
48.345	7.0
48.359	6.0
48.374	7.0
48.389	5.0
48.404	5.0
48.419	4.0
48.434	2.0
48.449	11.0
48.464	8.0
48.478	4.0
48.493	7.0
48.508	3.0
48.523	4.0
48.538	3.0
48.553	9.0
48.568	3.0
48.583	4.0
48.597	2.0
48.612	3.0
48.627	4.0
48.642	3.0
48.657	3.0
48.672	6.0
48.687	3.0
48.702	8.0
48.717	3.0
48.731	3.0
48.746	5.0
48.761	4.0
48.776	3.0
48.791	3.0
48.806	5.0
48.821	4.0
48.836	4.0
48.851	4.0
48.866	5.0
48.88	8.0
48.895	6.0
48.91	6.0
48.925	5.0
48.94	6.0
48.955	7.0
48.97	1.0
48.985	9.0
49.0	5.0
49.015	6.0
49.03	6.0
49.044	5.0
49.059	2.0
49.074	4.0
49.089	9.0
49.104	7.0
49.119	1.0
49.134	3.0
49.149	4.0
49.164	4.0
49.179	10.0
49.194	4.0
49.209	8.0
49.224	4.0
49.238	4.0
49.253	4.0
49.268	2.0
49.283	2.0
49.298	9.0
49.313	6.0
49.328	3.0
49.343	10.0
49.358	9.0
49.373	4.0
49.388	12.0
49.403	12.0
49.418	6.0
49.433	11.0
49.448	5.0
49.463	4.0
49.478	10.0
49.492	6.0
49.507	4.0
49.522	2.0
49.537	5.0
49.552	9.0
49.567	5.0
49.582	1.0
49.597	7.0
49.612	1.0
49.627	7.0
49.642	12.0
49.657	7.0
49.672	7.0
49.687	10.0
49.702	7.0
49.717	7.0
49.732	7.0
49.747	5.0
49.762	4.0
49.777	8.0
49.792	2.0
49.807	7.0
49.822	3.0
49.837	6.0
49.852	1.0
49.867	2.0
49.882	5.0
49.897	6.0
49.912	10.0
49.927	5.0
49.942	5.0
49.957	4.0
49.971	7.0
49.986	7.0
50.001	16.0
50.016	5.0
50.031	7.0
50.046	4.0
50.061	6.0
50.076	6.0
50.091	9.0
50.106	6.0
50.121	4.0
50.136	9.0
50.151	5.0
50.166	5.0
50.181	4.0
50.196	9.0
50.211	4.0
50.226	4.0
50.241	6.0
50.256	3.0
50.271	3.0
50.286	5.0
50.302	5.0
50.317	7.0
50.332	6.0
50.347	5.0
50.362	7.0
50.377	3.0
50.392	4.0
50.407	4.0
50.422	9.0
50.437	10.0
50.452	6.0
50.467	7.0
50.482	7.0
50.497	4.0
50.512	4.0
50.527	10.0
50.542	6.0
50.557	6.0
50.572	5.0
50.587	10.0
50.602	10.0
50.617	3.0
50.632	5.0
50.647	5.0
50.662	5.0
50.677	3.0
50.692	7.0
50.707	6.0
50.722	6.0
50.737	3.0
50.752	4.0
50.767	4.0
50.782	4.0
50.797	11.0
50.812	3.0
50.828	7.0
50.843	3.0
50.858	14.0
50.873	8.0
50.888	2.0
50.903	5.0
50.918	5.0
50.933	7.0
50.948	3.0
50.963	5.0
50.978	5.0
50.993	2.0
51.008	7.0
51.023	5.0
51.038	5.0
51.053	11.0
51.068	7.0
51.083	6.0
51.098	4.0
51.114	7.0
51.129	2.0
51.144	6.0
51.159	4.0
51.174	6.0
51.189	7.0
51.204	4.0
51.219	5.0
51.234	5.0
51.249	6.0
51.264	7.0
51.279	5.0
51.294	4.0
51.309	6.0
51.324	5.0
51.34	4.0
51.355	6.0
51.37	5.0
51.385	3.0
51.4	7.0
51.415	14.0
51.43	6.0
51.445	11.0
51.46	8.0
51.475	9.0
51.49	16.0
51.505	18.0
51.52	5.0
51.535	11.0
51.551	18.0
51.566	20.0
51.581	11.0
51.596	15.0
51.611	10.0
51.626	13.0
51.641	9.0
51.656	5.0
51.671	4.0
51.686	11.0
51.701	5.0
51.716	7.0
51.732	12.0
51.747	6.0
51.762	5.0
51.777	7.0
51.792	15.0
51.807	7.0
51.822	7.0
51.837	7.0
51.852	9.0
51.867	10.0
51.882	15.0
51.898	6.0
51.913	14.0
51.928	10.0
51.943	6.0
51.958	4.0
51.973	11.0
51.988	5.0
52.003	5.0
52.018	10.0
52.033	8.0
52.048	4.0
52.064	4.0
52.079	4.0
52.094	5.0
52.109	2.0
52.124	9.0
52.139	5.0
52.154	4.0
52.169	4.0
52.184	2.0
52.199	5.0
52.215	2.0
52.23	6.0
52.245	5.0
52.26	2.0
52.275	7.0
52.29	5.0
52.305	6.0
52.32	6.0
52.335	4.0
52.35	5.0
52.366	8.0
52.381	4.0
52.396	3.0
52.411	7.0
52.426	7.0
52.441	8.0
52.456	10.0
52.471	5.0
52.486	10.0
52.502	11.0
52.517	8.0
52.532	8.0
52.547	11.0
52.562	5.0
52.577	9.0
52.592	11.0
52.607	10.0
52.622	5.0
52.637	8.0
52.653	9.0
52.668	9.0
52.683	8.0
52.698	6.0
52.713	5.0
52.728	5.0
52.743	6.0
52.758	8.0
52.774	3.0
52.789	3.0
52.804	0.0
52.819	3.0
52.834	4.0
52.849	10.0
52.864	5.0
52.879	5.0
52.894	6.0
52.91	5.0
52.925	2.0
52.94	6.0
52.955	6.0
52.97	5.0
52.985	4.0
53.0	10.0
53.015	4.0
53.031	15.0
53.046	2.0
53.061	3.0
53.076	3.0
53.091	4.0
53.106	3.0
53.121	9.0
53.136	5.0
53.152	5.0
53.167	4.0
53.182	2.0
53.197	3.0
53.212	6.0
53.227	7.0
53.242	6.0
53.257	9.0
53.273	10.0
53.288	4.0
53.303	5.0
53.318	5.0
53.333	3.0
53.348	3.0
53.363	2.0
53.379	5.0
53.394	6.0
53.409	6.0
53.424	5.0
53.439	2.0
53.454	3.0
53.469	4.0
53.484	1.0
53.5	4.0
53.515	1.0
53.53	7.0
53.545	3.0
53.56	9.0
53.575	3.0
53.59	7.0
53.606	7.0
53.621	2.0
53.636	6.0
53.651	5.0
53.666	7.0
53.681	6.0
53.696	4.0
53.712	3.0
53.727	2.0
53.742	6.0
53.757	5.0
53.772	6.0
53.787	9.0
53.802	8.0
53.818	3.0
53.833	7.0
53.848	5.0
53.863	2.0
53.878	3.0
53.893	7.0
53.909	4.0
53.924	4.0
53.939	3.0
53.954	7.0
53.969	4.0
53.984	5.0
53.999	3.0
54.015	6.0
54.03	6.0
54.045	0.0
54.06	3.0
54.075	2.0
54.09	4.0
54.106	5.0
54.121	5.0
54.136	2.0
54.151	7.0
54.166	5.0
54.181	1.0
54.197	3.0
54.212	3.0
54.227	3.0
54.242	5.0
54.257	6.0
54.272	8.0
54.288	6.0
54.303	8.0
54.318	2.0
54.333	3.0
54.348	1.0
54.363	4.0
54.379	3.0
54.394	2.0
54.409	7.0
54.424	4.0
54.439	3.0
54.454	7.0
54.47	11.0
54.485	10.0
54.5	5.0
54.515	7.0
54.53	9.0
54.545	4.0
54.561	7.0
54.576	11.0
54.591	10.0
54.606	10.0
54.621	8.0
54.636	7.0
54.652	17.0
54.667	12.0
54.682	15.0
54.697	15.0
54.712	10.0
54.727	14.0
54.743	8.0
54.758	7.0
54.773	5.0
54.788	8.0
54.803	11.0
54.819	4.0
54.834	5.0
54.849	7.0
54.864	2.0
54.879	2.0
54.894	9.0
54.91	7.0
54.925	2.0
54.94	12.0
54.955	7.0
54.97	6.0
54.985	11.0
55.001	9.0
55.016	4.0
55.031	9.0
55.046	11.0
55.061	10.0
55.077	10.0
55.092	5.0
55.107	7.0
55.122	6.0
55.137	7.0
55.152	3.0
55.168	3.0
55.183	7.0
55.198	5.0
55.213	3.0
55.228	9.0
55.243	6.0
55.259	3.0
55.274	3.0
55.289	0.0
55.304	7.0
55.319	3.0
55.335	2.0
55.35	7.0
55.365	6.0
55.38	7.0
55.395	5.0
55.41	5.0
55.426	1.0
55.441	5.0
55.456	5.0
55.471	5.0
55.486	3.0
55.501	4.0
55.517	4.0
55.532	2.0
55.547	8.0
55.562	4.0
55.577	6.0
55.592	2.0
55.608	6.0
55.623	1.0
55.638	8.0
55.653	11.0
55.668	6.0
55.683	1.0
55.699	8.0
55.714	11.0
55.729	2.0
55.744	6.0
55.759	4.0
55.774	5.0
55.79	3.0
55.805	4.0
55.82	10.0
55.835	4.0
55.85	5.0
55.865	7.0
55.881	6.0
55.896	7.0
55.911	9.0
55.926	7.0
55.941	4.0
55.956	3.0
55.972	7.0
55.987	5.0
56.002	7.0
56.017	9.0
56.032	7.0
56.047	9.0
56.063	7.0
56.078	5.0
56.093	5.0
56.108	7.0
56.123	6.0
56.138	7.0
56.154	2.0
56.169	5.0
56.184	7.0
56.199	3.0
56.214	4.0
56.229	3.0
56.244	4.0
56.26	3.0
56.275	4.0
56.29	3.0
56.305	2.0
56.32	2.0
56.335	5.0
56.351	4.0
56.366	8.0
56.381	1.0
56.396	4.0
56.411	2.0
56.426	6.0
56.441	2.0
56.457	7.0
56.472	4.0
56.487	4.0
56.502	4.0
56.517	4.0
56.532	6.0
56.547	2.0
56.563	7.0
56.578	3.0
56.593	5.0
56.608	7.0
56.623	4.0
56.638	4.0
56.653	2.0
56.668	2.0
56.684	4.0
56.699	3.0
56.714	6.0
56.729	5.0
56.744	5.0
56.759	5.0
56.774	3.0
56.79	4.0
56.805	3.0
56.82	1.0
56.835	8.0
56.85	9.0
56.865	5.0
56.88	3.0
56.895	2.0
56.911	3.0
56.926	7.0
56.941	9.0
56.956	2.0
56.971	2.0
56.986	5.0
57.001	5.0
57.016	2.0
57.031	5.0
57.047	2.0
57.062	5.0
57.077	6.0
57.092	6.0
57.107	5.0
57.122	5.0
57.137	5.0
57.152	3.0
57.167	3.0
57.183	6.0
57.198	2.0
57.213	7.0
57.228	5.0
57.243	6.0
57.258	6.0
57.273	2.0
57.288	2.0
57.303	1.0
57.318	5.0
57.334	5.0
57.349	2.0
57.364	7.0
57.379	4.0
57.394	4.0
57.409	4.0
57.424	3.0
57.439	7.0
57.454	9.0
57.469	3.0
57.484	4.0
57.5	1.0
57.515	7.0
57.53	5.0
57.545	3.0
57.56	2.0
57.575	2.0
57.59	2.0
57.605	3.0
57.62	4.0
57.635	7.0
57.65	5.0
57.665	7.0
57.68	5.0
57.696	5.0
57.711	7.0
57.726	1.0
57.741	6.0
57.756	9.0
57.771	3.0
57.786	4.0
57.801	2.0
57.816	4.0
57.831	3.0
57.846	4.0
57.861	2.0
57.876	4.0
57.891	4.0
57.906	1.0
57.921	1.0
57.937	5.0
57.952	7.0
57.967	7.0
57.982	7.0
57.997	3.0
58.012	6.0
58.027	4.0
58.042	6.0
58.057	8.0
58.072	9.0
58.087	5.0
58.102	2.0
58.117	4.0
58.132	6.0
58.147	7.0
58.162	5.0
58.177	4.0
58.192	3.0
58.207	2.0
58.222	6.0
58.237	4.0
58.252	7.0
58.267	6.0
58.282	4.0
58.297	6.0
58.312	5.0
58.327	3.0
58.342	4.0
58.357	5.0
58.372	4.0
58.387	4.0
58.402	4.0
58.418	4.0
58.433	3.0
58.448	1.0
58.463	8.0
58.478	5.0
58.493	6.0
58.508	7.0
58.523	0.0
58.538	9.0
58.553	8.0
58.568	6.0
58.583	5.0
58.598	5.0
58.613	11.0
58.628	10.0
58.643	10.0
58.658	7.0
58.673	9.0
58.688	10.0
58.703	11.0
58.718	15.0
58.733	5.0
58.748	7.0
58.763	8.0
58.778	10.0
58.793	2.0
58.808	4.0
58.823	5.0
58.838	3.0
58.853	6.0
58.868	1.0
58.883	2.0
58.898	2.0
58.913	7.0
58.928	4.0
58.942	10.0
58.957	2.0
58.972	5.0
58.987	5.0
59.002	6.0
59.017	6.0
59.032	3.0
59.047	5.0
59.062	11.0
59.077	8.0
59.092	3.0
59.107	7.0
59.122	4.0
59.137	2.0
59.152	3.0
59.167	4.0
59.182	4.0
59.197	5.0
59.212	1.0
59.227	8.0
59.242	7.0
59.257	3.0
59.272	4.0
59.287	7.0
59.302	5.0
59.317	2.0
59.332	4.0
59.347	7.0
59.362	7.0
59.377	4.0
59.392	7.0
59.407	3.0
59.422	4.0
59.437	7.0
59.452	4.0
59.467	5.0
59.482	3.0
59.497	8.0
59.512	7.0
59.527	5.0
59.542	10.0
59.557	5.0
59.572	5.0
59.587	10.0
59.602	12.0
59.617	4.0
59.632	7.0
59.647	10.0
59.661	5.0
59.676	8.0
59.691	8.0
59.706	7.0
59.721	7.0
59.736	5.0
59.751	3.0
59.766	3.0
59.781	2.0
59.796	7.0
59.811	7.0
59.826	1.0
59.841	7.0
59.856	2.0
59.871	5.0
59.886	3.0
59.901	8.0
59.916	3.0
59.931	6.0
59.946	5.0
59.961	8.0
59.976	5.0
59.991	9.0
60.006	5.0
60.021	7.0
60.036	7.0
60.051	7.0
60.066	3.0
60.081	8.0
60.096	8.0
60.111	3.0
60.126	4.0
60.141	8.0
60.156	6.0
60.171	5.0
60.186	2.0
60.201	9.0
60.216	4.0
60.231	3.0
60.246	3.0
60.261	2.0
60.276	4.0
60.291	7.0
60.306	9.0
60.321	5.0
60.336	1.0
60.35	7.0
60.365	5.0
60.38	4.0
60.395	3.0
60.41	7.0
60.425	5.0
60.44	4.0
60.455	3.0
60.47	5.0
60.485	4.0
60.5	0.0
60.515	6.0
60.53	8.0
60.545	5.0
60.56	7.0
60.575	8.0
60.59	4.0
60.605	8.0
60.62	10.0
60.635	8.0
60.65	4.0
60.665	7.0
60.68	6.0
60.695	2.0
60.71	5.0
60.725	3.0
60.74	3.0
60.755	3.0
60.77	5.0
60.785	4.0
60.8	1.0
60.815	1.0
60.83	3.0
60.845	1.0
60.86	5.0
60.875	2.0
60.89	2.0
60.905	8.0
60.92	3.0
60.935	6.0
60.95	3.0
60.965	4.0
60.98	7.0
60.995	3.0
61.01	5.0
61.025	9.0
61.04	5.0
61.055	7.0
61.07	4.0
61.085	3.0
61.1	5.0
61.115	4.0
61.13	7.0
61.145	3.0
61.16	3.0
61.175	6.0
61.191	3.0
61.206	4.0
61.221	4.0
61.236	1.0
61.251	3.0
61.266	0.0
61.281	6.0
61.296	3.0
61.311	3.0
61.326	5.0
61.341	5.0
61.356	4.0
61.371	3.0
61.386	8.0
61.401	2.0
61.416	7.0
61.431	5.0
61.446	4.0
61.461	4.0
61.476	4.0
61.491	5.0
61.506	8.0
61.521	5.0
61.536	6.0
61.551	9.0
61.566	4.0
61.581	2.0
61.596	7.0
61.611	11.0
61.626	5.0
61.641	4.0
61.656	3.0
61.672	9.0
61.687	2.0
61.702	2.0
61.717	5.0
61.732	4.0
61.747	2.0
61.762	3.0
61.777	2.0
61.792	3.0
61.807	4.0
61.822	6.0
61.837	6.0
61.852	2.0
61.867	4.0
61.882	3.0
61.897	4.0
61.912	7.0
61.927	6.0
61.943	5.0
61.958	2.0
61.973	3.0
61.988	7.0
62.003	2.0
62.018	2.0
62.033	4.0
62.048	5.0
62.063	9.0
62.078	5.0
62.093	2.0
62.108	2.0
62.123	4.0
62.138	4.0
62.153	5.0
62.169	6.0
62.184	2.0
62.199	2.0
62.214	3.0
62.229	5.0
62.244	1.0
62.259	8.0
62.274	2.0
62.289	6.0
62.304	6.0
62.319	2.0
62.335	4.0
62.35	2.0
62.365	6.0
62.38	7.0
62.395	4.0
62.41	2.0
62.425	2.0
62.44	3.0
62.455	1.0
62.47	6.0
62.485	9.0
62.501	3.0
62.516	5.0
62.531	5.0
62.546	3.0
62.561	2.0
62.576	5.0
62.591	3.0
62.606	7.0
62.621	4.0
62.636	3.0
62.652	4.0
62.667	4.0
62.682	3.0
62.697	2.0
62.712	1.0
62.727	4.0
62.742	3.0
62.757	2.0
62.772	4.0
62.787	2.0
62.803	2.0
62.818	5.0
62.833	5.0
62.848	4.0
62.863	3.0
62.878	6.0
62.893	4.0
62.908	1.0
62.923	4.0
62.939	6.0
62.954	3.0
62.969	0.0
62.984	4.0
62.999	2.0
63.014	6.0
63.029	3.0
63.044	3.0
63.059	5.0
63.074	2.0
63.09	3.0
63.105	4.0
63.12	6.0
63.135	5.0
63.15	5.0
63.165	3.0
63.18	1.0
63.195	4.0
63.21	4.0
63.226	5.0
63.241	1.0
63.256	0.0
63.271	5.0
63.286	5.0
63.301	6.0
63.316	6.0
63.331	7.0
63.346	9.0
63.362	9.0
63.377	5.0
63.392	8.0
63.407	9.0
63.422	7.0
63.437	4.0
63.452	12.0
63.467	4.0
63.482	4.0
63.497	3.0
63.513	2.0
63.528	3.0
63.543	4.0
63.558	7.0
63.573	8.0
63.588	1.0
63.603	1.0
63.618	3.0
63.633	2.0
63.648	4.0
63.664	2.0
63.679	2.0
63.694	5.0
63.709	3.0
63.724	5.0
63.739	4.0
63.754	3.0
63.769	8.0
63.784	6.0
63.799	5.0
63.814	3.0
63.83	4.0
63.845	7.0
63.86	6.0
63.875	7.0
63.89	1.0
63.905	3.0
63.92	2.0
63.935	1.0
63.95	4.0
63.965	4.0
63.98	4.0
63.996	5.0
64.011	6.0
64.026	6.0
64.041	7.0
64.056	4.0
64.071	4.0
64.086	7.0
64.101	6.0
64.116	2.0
64.131	6.0
64.146	3.0
64.161	1.0
64.176	4.0
64.191	4.0
64.207	4.0
64.222	2.0
64.237	0.0
64.252	6.0
64.267	3.0
64.282	1.0
64.297	4.0
64.312	6.0
64.327	1.0
64.342	4.0
64.357	2.0
64.372	3.0
64.387	7.0
64.402	3.0
64.417	3.0
64.433	1.0
64.448	2.0
64.463	5.0
64.478	6.0
64.493	5.0
64.508	6.0
64.523	2.0
64.538	4.0
64.553	3.0
64.568	3.0
64.583	6.0
64.598	7.0
64.613	2.0
64.628	4.0
64.643	5.0
64.658	4.0
64.673	2.0
64.688	3.0
64.703	6.0
64.718	8.0
64.734	4.0
64.749	4.0
64.764	6.0
64.779	4.0
64.794	5.0
64.809	4.0
64.824	7.0
64.839	3.0
64.854	5.0
64.869	2.0
64.884	3.0
64.899	3.0
64.914	4.0
64.929	6.0
64.944	5.0
64.959	1.0
64.974	3.0
64.989	4.0
65.004	7.0
65.019	0.0
65.034	6.0
65.049	6.0
65.064	4.0
65.079	6.0
65.094	5.0
65.109	5.0
65.125	5.0
65.14	6.0
65.155	7.0
65.17	5.0
65.185	4.0
65.2	6.0
65.215	3.0
65.23	5.0
65.245	4.0
65.26	6.0
65.275	4.0
65.29	6.0
65.305	5.0
65.32	4.0
65.335	6.0
65.35	10.0
65.365	7.0
65.38	9.0
65.395	4.0
65.41	3.0
65.425	3.0
65.44	7.0
65.455	5.0
65.47	3.0
65.485	3.0
65.5	2.0
65.515	2.0
65.53	5.0
65.545	1.0
65.56	3.0
65.575	2.0
65.59	2.0
65.605	5.0
65.62	4.0
65.635	5.0
65.65	1.0
65.666	5.0
65.681	4.0
65.696	2.0
65.711	3.0
65.726	3.0
65.741	3.0
65.756	3.0
65.771	5.0
65.786	4.0
65.801	7.0
65.816	5.0
65.831	6.0
65.846	3.0
65.861	2.0
65.876	6.0
65.891	6.0
65.906	2.0
65.921	3.0
65.936	4.0
65.951	4.0
65.966	6.0
65.981	3.0
65.996	7.0
66.011	5.0
66.026	4.0
66.041	4.0
66.056	4.0
66.071	7.0
66.086	4.0
66.101	6.0
66.116	10.0
66.131	7.0
66.146	25.0
66.161	7.0
66.176	5.0
66.191	4.0
66.206	8.0
66.221	10.0
66.236	7.0
66.251	5.0
66.266	3.0
66.281	8.0
66.296	5.0
66.311	3.0
66.327	3.0
66.342	3.0
66.357	3.0
66.372	1.0
66.387	2.0
66.402	3.0
66.417	0.0
66.432	7.0
66.447	3.0
66.462	1.0
66.477	2.0
66.492	5.0
66.507	4.0
66.522	2.0
66.537	8.0
66.552	3.0
66.567	6.0
66.582	2.0
66.597	3.0
66.612	3.0
66.627	5.0
66.642	7.0
66.657	7.0
66.672	4.0
66.687	6.0
66.702	2.0
66.717	7.0
66.732	8.0
66.747	5.0
66.762	2.0
66.777	5.0
66.792	8.0
66.807	3.0
66.822	1.0
66.837	4.0
66.853	8.0
66.868	4.0
66.883	6.0
66.898	2.0
66.913	6.0
66.928	3.0
66.943	2.0
66.958	5.0
66.973	5.0
66.988	1.0
67.003	2.0
67.018	2.0
67.033	7.0
67.048	3.0
67.063	7.0
67.078	10.0
67.093	7.0
67.108	7.0
67.123	3.0
67.138	2.0
67.153	7.0
67.168	3.0
67.183	2.0
67.198	1.0
67.214	6.0
67.229	6.0
67.244	2.0
67.259	3.0
67.274	3.0
67.289	4.0
67.304	3.0
67.319	3.0
67.334	3.0
67.349	2.0
67.364	5.0
67.379	7.0
67.394	1.0
67.409	5.0
67.424	4.0
67.439	3.0
67.454	8.0
67.469	6.0
67.484	7.0
67.5	2.0
67.515	3.0
67.53	4.0
67.545	2.0
67.56	4.0
67.575	3.0
67.59	3.0
67.605	4.0
67.62	2.0
67.635	1.0
67.65	4.0
67.665	3.0
67.68	1.0
67.695	1.0
67.71	4.0
67.726	2.0
67.741	6.0
67.756	2.0
67.771	3.0
67.786	5.0
67.801	5.0
67.816	1.0
67.831	6.0
67.846	1.0
67.861	2.0
67.876	3.0
67.891	2.0
67.906	0.0
67.922	2.0
67.937	3.0
67.952	6.0
67.967	4.0
67.982	9.0
67.997	5.0
68.012	3.0
68.027	5.0
68.042	7.0
68.057	4.0
68.072	5.0
68.087	4.0
68.103	4.0
68.118	2.0
68.133	3.0
68.148	4.0
68.163	1.0
68.178	6.0
68.193	3.0
68.208	6.0
68.223	0.0
68.238	3.0
68.254	2.0
68.269	5.0
68.284	5.0
68.299	5.0
68.314	1.0
68.329	4.0
68.344	1.0
68.359	2.0
68.374	4.0
68.389	5.0
68.405	2.0
68.42	4.0
68.435	6.0
68.45	6.0
68.465	8.0
68.48	6.0
68.495	5.0
68.51	6.0
68.525	2.0
68.54	3.0
68.556	5.0
68.571	2.0
68.586	5.0
68.601	2.0
68.616	4.0
68.631	4.0
68.646	8.0
68.661	4.0
68.676	3.0
68.691	2.0
68.707	5.0
68.722	5.0
68.737	3.0
68.752	3.0
68.767	5.0
68.782	1.0
68.797	3.0
68.812	4.0
68.827	6.0
68.842	5.0
68.857	1.0
68.873	3.0
68.888	6.0
68.903	4.0
68.918	0.0
68.933	6.0
68.948	3.0
68.963	1.0
68.978	3.0
68.993	2.0
69.008	2.0
69.023	4.0
69.038	1.0
69.054	5.0
69.069	3.0
69.084	8.0
69.099	5.0
69.114	3.0
69.129	5.0
69.144	6.0
69.159	4.0
69.174	6.0
69.189	4.0
69.204	6.0
69.219	2.0
69.234	2.0
69.249	1.0
69.264	1.0
69.279	6.0
69.295	2.0
69.31	8.0
69.325	4.0
69.34	5.0
69.355	3.0
69.37	5.0
69.385	6.0
69.4	5.0
69.415	5.0
69.43	5.0
69.445	5.0
69.46	8.0
69.475	1.0
69.49	3.0
69.505	4.0
69.52	4.0
69.535	4.0
69.55	1.0
69.565	3.0
69.58	1.0
69.595	3.0
69.61	2.0
69.625	1.0
69.64	6.0
69.655	2.0
69.67	4.0
69.685	4.0
69.7	5.0
69.715	3.0
69.73	3.0
69.745	3.0
69.76	7.0
69.775	4.0
69.79	3.0
69.805	4.0
69.82	6.0
69.835	9.0
69.85	5.0
69.865	6.0
69.88	3.0
69.895	2.0
69.909	6.0
69.924	4.0
69.939	5.0
69.954	3.0
69.969	5.0
69.984	6.0
69.999	2.0
70.014	4.0
70.029	6.0
70.044	4.0
70.059	3.0
70.074	3.0
70.088	2.0
70.103	0.0
70.118	1.0
70.133	3.0
70.148	3.0
70.163	6.0
70.178	5.0
70.193	4.0
70.208	10.0
70.222	5.0
70.237	10.0
70.252	8.0
70.267	2.0
70.282	6.0
70.297	4.0
70.312	6.0
70.327	2.0
70.341	3.0
70.356	8.0
70.371	3.0
70.386	4.0
70.401	4.0
70.416	4.0
70.43	4.0
70.445	4.0
70.46	5.0
70.475	5.0
70.49	6.0
70.505	5.0
70.519	3.0
70.534	2.0
70.549	2.0
70.564	4.0
70.579	5.0
70.594	5.0
70.608	0.0
70.623	7.0
70.638	8.0
70.653	7.0
70.668	5.0
70.683	7.0
70.697	2.0
70.712	12.0
70.727	7.0
70.742	5.0
70.757	6.0
70.771	5.0
70.786	7.0
70.801	2.0
70.816	4.0
70.831	3.0
70.845	1.0
70.86	2.0
70.875	5.0
70.89	3.0
70.905	5.0
70.92	6.0
70.934	3.0
70.949	2.0
70.964	4.0
70.979	3.0
70.994	2.0
71.008	3.0
71.023	7.0
71.038	3.0
71.053	6.0
71.068	3.0
71.082	5.0
71.097	4.0
71.112	3.0
71.127	6.0
71.142	4.0
71.156	4.0
71.171	8.0
71.186	1.0
71.201	1.0
71.216	5.0
71.231	1.0
71.245	2.0
71.26	2.0
71.275	1.0
71.29	4.0
71.305	5.0
71.319	4.0
71.334	3.0
71.349	10.0
71.364	1.0
71.379	2.0
71.394	2.0
71.408	3.0
71.423	5.0
71.438	1.0
71.453	2.0
71.468	3.0
71.483	3.0
71.497	2.0
71.512	6.0
71.527	3.0
71.542	3.0
71.557	1.0
71.572	2.0
71.586	2.0
71.601	4.0
71.616	2.0
71.631	1.0
71.646	5.0
71.661	3.0
71.676	4.0
71.69	8.0
71.705	2.0
71.72	4.0
71.735	3.0
71.75	4.0
71.765	5.0
71.78	0.0
71.795	5.0
71.81	5.0
71.824	4.0
71.839	6.0
71.854	2.0
71.869	1.0
71.884	4.0
71.899	1.0
71.914	3.0
71.929	0.0
71.944	2.0
71.959	6.0
71.974	0.0
71.988	3.0
72.003	2.0
72.018	6.0
72.033	5.0
72.048	2.0
72.063	5.0
72.078	2.0
72.093	4.0
72.108	3.0
72.123	4.0
72.138	2.0
72.153	5.0
72.168	3.0
72.183	3.0
72.198	2.0
72.213	4.0
72.228	2.0
72.243	3.0
72.258	4.0
72.273	6.0
72.288	4.0
72.303	2.0
72.318	1.0
72.333	2.0
72.348	0.0
72.363	4.0
72.378	6.0
72.393	3.0
72.408	4.0
72.423	1.0
72.438	7.0
72.453	1.0
72.468	7.0
72.483	4.0
72.498	4.0
72.513	5.0
72.528	2.0
72.543	5.0
72.558	1.0
72.573	4.0
72.588	4.0
72.603	3.0
72.618	6.0
72.633	5.0
72.649	4.0
72.664	2.0
72.679	6.0
72.694	4.0
72.709	2.0
72.724	3.0
72.739	7.0
72.754	5.0
72.769	2.0
72.784	3.0
72.799	2.0
72.814	3.0
72.829	4.0
72.845	4.0
72.86	3.0
72.875	1.0
72.89	1.0
72.905	4.0
72.92	2.0
72.935	1.0
72.95	5.0
72.965	3.0
72.98	1.0
72.996	3.0
73.011	1.0
73.026	2.0
73.041	2.0
73.056	4.0
73.071	2.0
73.086	0.0
73.101	5.0
73.117	5.0
73.132	2.0
73.147	5.0
73.162	1.0
73.177	4.0
73.192	6.0
73.207	4.0
73.222	4.0
73.238	4.0
73.253	9.0
73.268	4.0
73.283	5.0
73.298	6.0
73.313	5.0
73.328	4.0
73.343	5.0
73.359	6.0
73.374	6.0
73.389	6.0
73.404	2.0
73.419	2.0
73.434	3.0
73.449	3.0
73.465	3.0
73.48	1.0
73.495	2.0
73.51	3.0
73.525	2.0
73.54	3.0
73.556	1.0
73.571	3.0
73.586	5.0
73.601	6.0
73.616	4.0
73.631	2.0
73.646	4.0
73.662	7.0
73.677	5.0
73.692	2.0
73.707	1.0
73.722	1.0
73.737	3.0
73.752	5.0
73.768	2.0
73.783	3.0
73.798	2.0
73.813	3.0
73.828	7.0
73.843	2.0
73.859	4.0
73.874	4.0
73.889	4.0
73.904	4.0
73.919	3.0
73.934	3.0
73.949	2.0
73.965	4.0
73.98	5.0
73.995	5.0
74.01	3.0
74.025	3.0
74.04	1.0
74.056	4.0
74.071	2.0
74.086	6.0
74.101	6.0
74.116	5.0
74.131	6.0
74.146	6.0
74.162	1.0
74.177	7.0
74.192	5.0
74.207	6.0
74.222	4.0
74.237	8.0
74.252	5.0
74.268	5.0
74.283	4.0
74.298	4.0
74.313	2.0
74.328	3.0
74.343	2.0
74.358	1.0
74.374	3.0
74.389	1.0
74.404	4.0
74.419	2.0
74.434	4.0
74.449	5.0
74.464	2.0
74.48	5.0
74.495	4.0
74.51	5.0
74.525	5.0
74.54	2.0
74.555	3.0
74.57	3.0
74.586	3.0
74.601	5.0
74.616	3.0
74.631	2.0
74.646	6.0
74.661	4.0
74.676	9.0
74.691	7.0
74.707	5.0
74.722	7.0
74.737	2.0
74.752	5.0
74.767	2.0
74.782	7.0
74.797	3.0
74.813	5.0
74.828	4.0
74.843	7.0
74.858	2.0
74.873	1.0
74.888	4.0
74.903	5.0
74.918	3.0
74.934	4.0
74.949	3.0
74.964	3.0
74.979	4.0
74.994	7.0
75.009	6.0
75.024	5.0
75.04	7.0
75.055	5.0
75.07	5.0
75.085	2.0
75.1	3.0
75.115	3.0
75.13	6.0
75.145	5.0
75.161	1.0
75.176	5.0
75.191	2.0
75.206	2.0
75.221	3.0
75.236	4.0
75.251	3.0
75.266	6.0
75.282	1.0
75.297	5.0
75.312	0.0
75.327	3.0
75.342	1.0
75.357	3.0
75.372	3.0
75.387	7.0
75.403	6.0
75.418	4.0
75.433	3.0
75.448	3.0
75.463	3.0
75.478	6.0
75.493	2.0
75.509	4.0
75.524	4.0
75.539	3.0
75.554	4.0
75.569	2.0
75.584	5.0
75.599	7.0
75.614	6.0
75.63	1.0
75.645	4.0
75.66	6.0
75.675	5.0
75.69	4.0
75.705	2.0
75.72	4.0
75.735	3.0
75.751	4.0
75.766	7.0
75.781	5.0
75.796	1.0
75.811	6.0
75.826	3.0
75.841	1.0
75.856	0.0
75.872	2.0
75.887	8.0
75.902	7.0
75.917	3.0
75.932	3.0
75.947	4.0
75.962	2.0
75.977	4.0
75.993	3.0
76.008	7.0
76.023	3.0
76.038	2.0
76.053	2.0
76.068	2.0
76.083	3.0
76.098	2.0
76.114	4.0
76.129	1.0
76.144	4.0
76.159	2.0
76.174	7.0
76.189	3.0
76.204	4.0
76.22	2.0
76.235	4.0
76.25	3.0
76.265	4.0
76.28	2.0
76.295	3.0
76.31	1.0
76.325	1.0
76.341	6.0
76.356	3.0
76.371	4.0
76.386	3.0
76.401	2.0
76.416	2.0
76.431	3.0
76.446	3.0
76.462	4.0
76.477	3.0
76.492	5.0
76.507	4.0
76.522	1.0
76.537	1.0
76.552	2.0
76.567	5.0
76.583	5.0
76.598	7.0
76.613	7.0
76.628	2.0
76.643	5.0
76.658	3.0
76.673	2.0
76.688	5.0
76.704	3.0
76.719	5.0
76.734	1.0
76.749	6.0
76.764	6.0
76.779	4.0
76.794	5.0
76.809	3.0
76.824	7.0
76.84	3.0
76.855	6.0
76.87	0.0
76.885	4.0
76.9	2.0
76.915	0.0
76.93	3.0
76.945	2.0
76.96	4.0
76.976	4.0
76.991	5.0
77.006	5.0
77.021	2.0
77.036	4.0
77.051	4.0
77.066	4.0
77.081	3.0
77.096	1.0
77.112	4.0
77.127	6.0
77.142	4.0
77.157	5.0
77.172	1.0
77.187	0.0
77.202	1.0
77.217	4.0
77.232	4.0
77.247	3.0
77.263	3.0
77.278	5.0
77.293	5.0
77.308	0.0
77.323	5.0
77.338	2.0
77.353	5.0
77.368	2.0
77.383	2.0
77.398	4.0
77.413	2.0
77.428	4.0
77.444	1.0
77.459	2.0
77.474	1.0
77.489	4.0
77.504	7.0
77.519	4.0
77.534	3.0
77.549	4.0
77.564	5.0
77.579	2.0
77.594	5.0
77.609	3.0
77.624	8.0
77.64	3.0
77.655	4.0
77.67	6.0
77.685	5.0
77.7	4.0
77.715	1.0
77.73	0.0
77.745	1.0
77.76	1.0
77.775	4.0
77.79	2.0
77.805	3.0
77.82	1.0
77.835	3.0
77.85	2.0
77.865	4.0
77.88	4.0
77.895	8.0
77.91	7.0
77.926	4.0
77.941	5.0
77.956	4.0
77.971	1.0
77.986	4.0
78.001	3.0
78.016	3.0
78.031	3.0
78.046	2.0
78.061	4.0
78.076	4.0
78.091	4.0
78.106	4.0
78.121	3.0
78.136	0.0
78.151	4.0
78.166	4.0
78.181	2.0
78.196	6.0
78.211	1.0
78.226	7.0
78.241	3.0
78.256	7.0
78.271	4.0
78.286	2.0
78.301	3.0
78.316	3.0
78.331	2.0
78.346	6.0
78.361	2.0
78.376	4.0
78.391	2.0
78.406	5.0
78.421	5.0
78.436	2.0
78.451	2.0
78.466	2.0
78.481	6.0
78.496	0.0
78.511	1.0
78.526	3.0
78.541	4.0
78.556	2.0
78.571	3.0
78.586	5.0
78.601	3.0
78.616	0.0
78.631	3.0
78.646	3.0
78.661	2.0
78.676	2.0
78.691	2.0
78.706	3.0
78.721	4.0
78.736	2.0
78.751	3.0
78.766	2.0
78.781	2.0
78.796	5.0
78.811	3.0
78.826	2.0
78.841	2.0
78.856	6.0
78.871	6.0
78.885	4.0
78.9	3.0
78.915	3.0
78.93	3.0
78.945	2.0
78.96	1.0
78.975	2.0
78.99	4.0
79.005	4.0
79.02	3.0
79.035	3.0
79.05	5.0
79.065	5.0
79.08	5.0
79.095	3.0
79.11	2.0
79.125	1.0
79.14	3.0
79.155	4.0
79.17	4.0
79.185	5.0
79.2	3.0
79.215	4.0
79.23	2.0
79.245	3.0
79.26	5.0
79.275	2.0
79.29	8.0
79.304	1.0
79.319	4.0
79.334	6.0
79.349	5.0
79.364	4.0
79.379	0.0
79.394	5.0
79.409	4.0
79.424	8.0
79.439	2.0
79.454	4.0
79.469	2.0
79.484	2.0
79.499	2.0
79.514	3.0
79.529	3.0
79.544	2.0
79.559	2.0
79.574	3.0
79.589	3.0
79.604	4.0
79.619	4.0
79.634	3.0
79.649	4.0
79.664	1.0
79.679	4.0
79.693	5.0
79.708	3.0
79.723	2.0
79.738	4.0
79.753	1.0
79.768	4.0
79.783	3.0
79.798	5.0
79.813	3.0
79.828	6.0
79.843	7.0
79.858	6.0
79.873	3.0
79.888	1.0
79.903	3.0
79.918	5.0
79.933	5.0
79.948	3.0
79.963	2.0
79.978	3.0
79.993	3.0
80.008	4.0
80.023	1.0
80.038	5.0
80.053	2.0
80.068	6.0
80.083	2.0
80.098	2.0
80.113	3.0
80.128	4.0
80.143	3.0
80.158	5.0
80.173	3.0
80.188	7.0
80.202	2.0
80.217	4.0
80.232	5.0
80.247	1.0
80.262	2.0
80.277	4.0
80.292	3.0
80.307	1.0
80.322	1.0
80.337	2.0
80.352	4.0
80.367	5.0
80.382	3.0
80.397	2.0
80.412	5.0
80.427	3.0
80.442	4.0
80.457	4.0
80.472	7.0
80.487	2.0
80.502	5.0
80.517	1.0
80.532	3.0
80.547	1.0
80.562	2.0
80.577	0.0
80.592	1.0
80.607	3.0
80.622	2.0
80.637	1.0
80.652	4.0
80.667	3.0
80.682	3.0
80.697	2.0
80.712	5.0
80.727	1.0
80.742	4.0
80.757	2.0
80.772	5.0
80.787	5.0
80.802	2.0
80.817	1.0
80.832	6.0
80.847	2.0
80.862	1.0
80.877	1.0
80.892	5.0
80.907	1.0
80.922	2.0
80.937	2.0
80.952	5.0
80.967	4.0
80.982	2.0
80.997	4.0
81.012	6.0
81.027	5.0
81.042	2.0
81.057	6.0
81.072	5.0
81.087	2.0
81.101	2.0
81.116	4.0
81.131	5.0
81.146	3.0
81.161	3.0
81.176	4.0
81.191	3.0
81.206	0.0
81.221	2.0
81.236	1.0
81.251	2.0
81.266	3.0
81.281	3.0
81.296	1.0
81.311	5.0
81.326	1.0
81.341	0.0
81.356	2.0
81.371	2.0
81.386	0.0
81.401	4.0
81.416	0.0
81.431	4.0
81.446	4.0
81.461	4.0
81.476	3.0
81.491	5.0
81.506	4.0
81.521	5.0
81.536	1.0
81.55	1.0
81.565	4.0
81.58	4.0
81.595	2.0
81.61	7.0
81.625	2.0
81.64	6.0
81.655	2.0
81.67	5.0
81.685	4.0
81.7	5.0
81.715	3.0
81.73	2.0
81.745	3.0
81.76	2.0
81.775	4.0
81.79	2.0
81.805	3.0
81.819	4.0
81.834	6.0
81.849	4.0
81.864	2.0
81.879	3.0
81.894	4.0
81.909	3.0
81.924	2.0
81.939	3.0
81.954	2.0
81.969	3.0
81.984	7.0
81.999	2.0
82.013	4.0
82.028	5.0
82.043	2.0
82.058	4.0
82.073	4.0
82.088	1.0
82.103	1.0
82.118	3.0
82.133	4.0
82.148	7.0
82.163	5.0
82.177	2.0
82.192	1.0
82.207	2.0
82.222	4.0
82.237	4.0
82.252	5.0
82.267	3.0
82.282	2.0
82.297	2.0
82.312	2.0
82.326	2.0
82.341	6.0
82.356	5.0
82.371	6.0
82.386	4.0
82.401	3.0
82.416	4.0
82.431	4.0
82.445	6.0
82.46	2.0
82.475	5.0
82.49	3.0
82.505	4.0
82.52	3.0
82.535	6.0
82.55	1.0
82.565	4.0
82.579	3.0
82.594	3.0
82.609	2.0
82.624	2.0
82.639	3.0
82.654	2.0
82.669	2.0
82.684	1.0
82.698	2.0
82.713	6.0
82.728	3.0
82.743	2.0
82.758	3.0
82.773	1.0
82.788	3.0
82.803	2.0
82.817	3.0
82.832	2.0
82.847	5.0
82.862	5.0
82.877	1.0
82.892	4.0
82.907	3.0
82.922	6.0
82.937	3.0
82.951	3.0
82.966	2.0
82.981	5.0
82.996	3.0
83.011	3.0
83.026	0.0
83.041	2.0
83.056	5.0
83.07	2.0
83.085	5.0
83.1	0.0
83.115	0.0
83.13	3.0
83.145	4.0
83.16	3.0
83.175	2.0
83.19	3.0
83.204	1.0
83.219	3.0
83.234	5.0
83.249	4.0
83.264	5.0
83.279	2.0
83.294	2.0
83.309	3.0
83.324	1.0
83.339	4.0
83.353	4.0
83.368	4.0
83.383	4.0
83.398	2.0
83.413	5.0
83.428	5.0
83.443	3.0
83.458	3.0
83.473	2.0
83.488	4.0
83.503	4.0
83.517	5.0
83.532	3.0
83.547	3.0
83.562	3.0
83.577	5.0
83.592	1.0
83.607	5.0
83.622	3.0
83.637	1.0
83.652	4.0
83.667	2.0
83.682	3.0
83.697	5.0
83.712	3.0
83.727	4.0
83.741	1.0
83.756	3.0
83.771	3.0
83.786	3.0
83.801	3.0
83.816	3.0
83.831	2.0
83.846	5.0
83.861	2.0
83.876	4.0
83.891	5.0
83.906	2.0
83.921	2.0
83.936	3.0
83.951	2.0
83.966	4.0
83.981	1.0
83.996	1.0
84.011	1.0
84.026	5.0
84.041	2.0
84.056	1.0
84.071	3.0
84.086	1.0
84.101	1.0
84.116	2.0
84.131	2.0
84.146	4.0
84.161	2.0
84.176	5.0
84.191	2.0
84.206	2.0
84.221	4.0
84.236	4.0
84.251	4.0
84.266	1.0
84.281	4.0
84.296	4.0
84.311	4.0
84.326	3.0
84.341	3.0
84.356	6.0
84.371	8.0
84.386	10.0
84.401	1.0
84.416	3.0
84.431	3.0
84.446	1.0
84.461	2.0
84.476	1.0
84.492	4.0
84.507	2.0
84.522	0.0
84.537	4.0
84.552	0.0
84.567	2.0
84.582	5.0
84.597	7.0
84.612	2.0
84.627	5.0
84.642	5.0
84.657	2.0
84.672	4.0
84.687	3.0
84.702	4.0
84.717	3.0
84.733	3.0
84.748	2.0
84.763	2.0
84.778	3.0
84.793	3.0
84.808	1.0
84.823	5.0
84.838	7.0
84.853	3.0
84.868	2.0
84.883	4.0
84.898	2.0
84.913	3.0
84.929	1.0
84.944	3.0
84.959	4.0
84.974	5.0
84.989	4.0
85.004	2.0
85.019	3.0
85.034	2.0
85.049	6.0
85.064	6.0
85.079	2.0
85.094	4.0
85.11	4.0
85.125	3.0
85.14	2.0
85.155	4.0
85.17	2.0
85.185	3.0
85.2	3.0
85.215	6.0
85.23	4.0
85.245	3.0
85.26	1.0
85.276	3.0
85.291	3.0
85.306	2.0
85.321	4.0
85.336	8.0
85.351	4.0
85.366	3.0
85.381	1.0
85.396	6.0
85.411	2.0
85.426	0.0
85.441	2.0
85.457	3.0
85.472	5.0
85.487	1.0
85.502	2.0
85.517	5.0
85.532	2.0
85.547	4.0
85.562	3.0
85.577	6.0
85.592	5.0
85.607	2.0
85.622	0.0
85.637	2.0
85.653	6.0
85.668	3.0
85.683	2.0
85.698	4.0
85.713	2.0
85.728	4.0
85.743	0.0
85.758	3.0
85.773	6.0
85.788	2.0
85.803	2.0
85.818	5.0
85.833	5.0
85.848	8.0
85.863	0.0
85.879	4.0
85.894	2.0
85.909	3.0
85.924	3.0
85.939	5.0
85.954	3.0
85.969	3.0
85.984	0.0
85.999	1.0
86.014	3.0
86.029	1.0
86.044	4.0
86.059	7.0
86.074	3.0
86.089	1.0
86.104	4.0
86.119	4.0
86.134	1.0
86.149	2.0
86.164	1.0
86.179	3.0
86.194	2.0
86.209	3.0
86.224	2.0
86.239	2.0
86.254	2.0
86.269	3.0
86.284	2.0
86.299	4.0
86.314	4.0
86.33	2.0
86.345	3.0
86.36	2.0
86.375	3.0
86.39	4.0
86.405	2.0
86.42	3.0
86.435	6.0
86.45	5.0
86.465	2.0
86.48	0.0
86.495	2.0
86.51	3.0
86.525	4.0
86.54	1.0
86.555	5.0
86.57	8.0
86.585	1.0
86.6	2.0
86.615	5.0
86.63	7.0
86.645	5.0
86.659	6.0
86.674	2.0
86.689	3.0
86.704	2.0
86.719	3.0
86.734	7.0
86.749	2.0
86.764	4.0
86.779	1.0
86.794	1.0
86.809	4.0
86.824	2.0
86.839	2.0
86.854	4.0
86.869	3.0
86.884	5.0
86.899	2.0
86.914	4.0
86.929	2.0
86.944	7.0
86.959	4.0
86.974	5.0
86.989	1.0
87.004	7.0
87.019	4.0
87.034	4.0
87.049	3.0
87.064	4.0
87.079	2.0
87.094	4.0
87.109	2.0
87.124	0.0
87.139	4.0
87.154	2.0
87.169	0.0
87.184	2.0
87.199	3.0
87.214	4.0
87.229	2.0
87.244	5.0
87.259	2.0
87.274	3.0
87.289	3.0
87.304	2.0
87.319	3.0
87.334	5.0
87.349	3.0
87.364	2.0
87.379	3.0
87.394	2.0
87.409	1.0
87.424	2.0
87.438	3.0
87.453	4.0
87.468	1.0
87.483	4.0
87.498	4.0
87.513	4.0
87.528	5.0
87.543	7.0
87.558	2.0
87.573	7.0
87.588	4.0
87.603	2.0
87.618	4.0
87.633	2.0
87.648	5.0
87.663	5.0
87.678	3.0
87.693	6.0
87.708	2.0
87.723	3.0
87.738	3.0
87.753	4.0
87.768	3.0
87.783	6.0
87.798	2.0
87.813	5.0
87.828	3.0
87.843	5.0
87.858	6.0
87.873	2.0
87.888	2.0
87.903	2.0
87.918	1.0
87.933	5.0
87.948	1.0
87.963	1.0
87.978	3.0
87.993	3.0
88.008	3.0
88.023	4.0
88.038	1.0
88.053	2.0
88.068	3.0
88.083	4.0
88.098	2.0
88.113	3.0
88.128	1.0
88.143	0.0
88.158	5.0
88.174	2.0
88.189	1.0
88.204	1.0
88.219	1.0
88.234	3.0
88.249	1.0
88.264	2.0
88.279	2.0
88.294	4.0
88.309	3.0
88.324	3.0
88.339	3.0
88.354	1.0
88.369	1.0
88.384	2.0
88.399	5.0
88.414	5.0
88.429	6.0
88.444	5.0
88.459	1.0
88.474	4.0
88.489	3.0
88.504	6.0
88.519	6.0
88.534	3.0
88.549	6.0
88.564	4.0
88.58	1.0
88.595	2.0
88.61	0.0
88.625	5.0
88.64	4.0
88.655	2.0
88.67	3.0
88.685	0.0
88.7	2.0
88.715	1.0
88.73	6.0
88.745	3.0
88.76	1.0
88.775	1.0
88.79	5.0
88.805	3.0
88.82	2.0
88.835	2.0
88.85	10.0
88.865	4.0
88.88	1.0
88.895	3.0
88.911	3.0
88.926	0.0
88.941	2.0
88.956	1.0
88.971	1.0
88.986	2.0
89.001	2.0
89.016	2.0
89.031	3.0
89.046	1.0
89.061	2.0
89.076	6.0
89.091	0.0
89.106	2.0
89.121	6.0
89.136	1.0
89.151	2.0
89.166	3.0
89.181	1.0
89.196	2.0
89.211	2.0
89.227	0.0
89.242	5.0
89.257	0.0
89.272	3.0
89.287	1.0
89.302	1.0
89.317	5.0
89.332	2.0
89.347	6.0
89.362	4.0
89.377	6.0
89.392	1.0
89.407	2.0
89.422	4.0
89.437	3.0
89.452	5.0
89.467	2.0
89.482	5.0
89.497	4.0
89.512	5.0
89.527	1.0
89.542	3.0
89.557	5.0
89.572	1.0
89.587	2.0
89.602	2.0
89.617	3.0
89.632	3.0
89.647	3.0
89.662	0.0
89.677	2.0
89.693	6.0
89.708	3.0
89.723	2.0
89.738	4.0
89.753	0.0
89.768	5.0
89.783	7.0
89.798	3.0
89.813	3.0
89.828	2.0
89.843	1.0
89.858	1.0
89.873	3.0
89.888	1.0
89.903	1.0
89.918	7.0
89.933	4.0
89.948	0.0
89.963	4.0
89.978	1.0
89.993	3.0
90.008	5.0
90.023	3.0
90.038	6.0
90.053	8.0
90.068	4.0
90.083	6.0
90.097	1.0
90.112	4.0
90.127	5.0
90.142	4.0
90.157	3.0
90.172	3.0
90.187	2.0
90.202	6.0
90.217	5.0
90.232	3.0
90.247	8.0
90.262	8.0
90.277	7.0
90.292	7.0
90.307	5.0
90.322	4.0
90.337	5.0
90.352	4.0
90.367	3.0
90.382	1.0
90.397	1.0
90.412	3.0
90.427	0.0
90.442	5.0
90.457	1.0
90.472	2.0
90.487	5.0
90.501	6.0
90.516	4.0
90.531	4.0
90.546	0.0
90.561	1.0
90.576	3.0
90.591	3.0
90.606	5.0
90.621	3.0
90.636	1.0
90.651	2.0
90.666	3.0
90.681	3.0
90.696	3.0
90.711	3.0
90.726	2.0
90.741	5.0
90.755	2.0
90.77	3.0
90.785	2.0
90.8	3.0
90.815	3.0
90.83	7.0
90.845	1.0
90.86	2.0
90.875	3.0
90.89	8.0
90.905	2.0
90.92	4.0
90.935	4.0
90.95	4.0
90.965	5.0
90.979	2.0
90.994	3.0
91.009	4.0
91.024	6.0
91.039	5.0
91.054	1.0
91.069	4.0
91.084	4.0
91.099	2.0
91.114	1.0
91.129	5.0
91.144	5.0
91.159	4.0
91.174	2.0
91.188	0.0
91.203	2.0
91.218	4.0
91.233	3.0
91.248	3.0
91.263	4.0
91.278	2.0
91.293	2.0
91.308	4.0
91.323	1.0
91.338	4.0
91.353	3.0
91.368	1.0
91.383	1.0
91.398	3.0
91.412	4.0
91.427	3.0
91.442	8.0
91.457	4.0
91.472	7.0
91.487	5.0
91.502	2.0
91.517	3.0
91.532	1.0
91.547	4.0
91.562	2.0
91.577	6.0
91.592	4.0
91.607	4.0
91.622	1.0
91.637	3.0
91.652	2.0
91.666	4.0
91.681	2.0
91.696	1.0
91.711	2.0
91.726	4.0
91.741	3.0
91.756	4.0
91.771	1.0
91.786	6.0
91.801	2.0
91.816	2.0
91.831	6.0
91.846	4.0
91.861	0.0
91.876	3.0
91.891	3.0
91.906	2.0
91.921	1.0
91.936	6.0
91.951	4.0
91.966	3.0
91.981	2.0
91.995	3.0
92.01	2.0
92.025	2.0
92.04	0.0
92.055	4.0
92.07	3.0
92.085	2.0
92.1	3.0
92.115	1.0
92.13	0.0
92.145	3.0
92.16	3.0
92.175	4.0
92.19	2.0
92.205	4.0
92.22	2.0
92.235	3.0
92.25	3.0
92.265	0.0
92.28	2.0
92.295	3.0
92.31	4.0
92.325	6.0
92.34	2.0
92.355	3.0
92.37	2.0
92.385	1.0
92.4	4.0
92.415	0.0
92.43	3.0
92.445	0.0
92.46	5.0
92.475	3.0
92.49	1.0
92.505	2.0
92.52	0.0
92.535	5.0
92.55	2.0
92.565	2.0
92.58	2.0
92.595	2.0
92.61	4.0
92.625	1.0
92.64	3.0
92.655	3.0
92.67	3.0
92.685	2.0
92.7	2.0
92.715	1.0
92.73	2.0
92.745	3.0
92.76	2.0
92.775	6.0
92.79	2.0
92.805	1.0
92.82	3.0
92.835	2.0
92.85	0.0
92.865	2.0
92.88	1.0
92.895	3.0
92.91	4.0
92.925	2.0
92.94	3.0
92.955	5.0
92.97	5.0
92.985	1.0
93.0	5.0
93.015	1.0
93.03	1.0
93.045	1.0
93.06	6.0
93.075	4.0
93.09	4.0
93.105	3.0
93.12	4.0
93.135	1.0
93.15	3.0
93.165	0.0
93.18	2.0
93.195	0.0
93.21	3.0
93.225	4.0
93.24	7.0
93.255	3.0
93.27	3.0
93.285	3.0
93.3	3.0
93.315	4.0
93.33	3.0
93.345	1.0
93.36	3.0
93.375	3.0
93.39	2.0
93.405	2.0
93.42	1.0
93.435	0.0
93.45	4.0
93.465	2.0
93.48	4.0
93.495	0.0
93.51	3.0
93.525	2.0
93.54	4.0
93.555	1.0
93.57	3.0
93.585	4.0
93.6	3.0
93.615	3.0
93.63	1.0
93.645	4.0
93.66	2.0
93.675	5.0
93.69	9.0
93.705	0.0
93.72	2.0
93.735	4.0
93.75	4.0
93.765	3.0
93.78	3.0
93.795	3.0
93.81	2.0
93.824	1.0
93.839	3.0
93.854	2.0
93.869	2.0
93.884	0.0
93.899	4.0
93.914	4.0
93.929	1.0
93.944	3.0
93.959	4.0
93.974	2.0
93.989	5.0
94.004	2.0
94.019	3.0
94.034	3.0
94.049	2.0
94.064	3.0
94.079	5.0
94.094	0.0
94.108	2.0
94.123	2.0
94.138	3.0
94.153	5.0
94.168	2.0
94.183	4.0
94.198	7.0
94.213	4.0
94.228	0.0
94.243	5.0
94.258	5.0
94.273	1.0
94.288	1.0
94.302	3.0
94.317	4.0
94.332	11.0
94.347	2.0
94.362	7.0
94.377	6.0
94.392	5.0
94.407	7.0
94.422	4.0
94.437	5.0
94.452	5.0
94.466	6.0
94.481	1.0
94.496	5.0
94.511	4.0
94.526	6.0
94.541	1.0
94.556	7.0
94.571	1.0
94.586	3.0
94.601	3.0
94.615	3.0
94.63	3.0
94.645	3.0
94.66	2.0
94.675	2.0
94.69	7.0
94.705	5.0
94.72	4.0
94.735	4.0
94.749	5.0
94.764	4.0
94.779	3.0
94.794	3.0
94.809	4.0
94.824	3.0
94.839	4.0
94.854	2.0
94.868	2.0
94.883	1.0
94.898	0.0
94.913	5.0
94.928	5.0
94.943	3.0
94.958	1.0
94.973	4.0
94.987	2.0
95.002	3.0
95.017	1.0
95.032	2.0
95.047	3.0
95.062	3.0
95.077	6.0
95.092	5.0
95.106	6.0
95.121	2.0
95.136	1.0
95.151	6.0
95.166	2.0
95.181	4.0
95.196	2.0
95.211	5.0
95.226	5.0
95.24	4.0
95.255	3.0
95.27	4.0
95.285	2.0
95.3	2.0
95.315	3.0
95.33	2.0
95.345	2.0
95.359	2.0
95.374	6.0
95.389	2.0
95.404	9.0
95.419	4.0
95.434	0.0
95.449	4.0
95.464	5.0
95.478	4.0
95.493	7.0
95.508	3.0
95.523	3.0
95.538	4.0
95.553	9.0
95.568	3.0
95.583	4.0
95.597	6.0
95.612	5.0
95.627	1.0
95.642	2.0
95.657	5.0
95.672	2.0
95.687	3.0
95.702	3.0
95.717	6.0
95.731	2.0
95.746	4.0
95.761	2.0
95.776	1.0
95.791	3.0
95.806	3.0
95.821	4.0
95.836	1.0
95.851	3.0
95.866	1.0
95.88	1.0
95.895	6.0
95.91	2.0
95.925	2.0
95.94	3.0
95.955	4.0
95.97	4.0
95.985	2.0
96.0	2.0
96.015	1.0
96.029	8.0
96.044	1.0
96.059	5.0
96.074	4.0
96.089	5.0
96.104	6.0
96.119	1.0
96.134	3.0
96.149	4.0
96.164	4.0
96.179	0.0
96.194	3.0
96.208	4.0
96.223	1.0
96.238	1.0
96.253	2.0
96.268	4.0
96.283	3.0
96.298	1.0
96.313	4.0
96.328	3.0
96.343	5.0
96.358	6.0
96.373	2.0
96.388	1.0
96.403	1.0
96.417	7.0
96.432	3.0
96.447	2.0
96.462	1.0
96.477	4.0
96.492	5.0
96.507	2.0
96.522	2.0
96.537	6.0
96.552	6.0
96.567	2.0
96.582	3.0
96.597	5.0
96.612	2.0
96.627	0.0
96.642	4.0
96.656	2.0
96.671	1.0
96.686	0.0
96.701	4.0
96.716	2.0
96.731	1.0
96.746	4.0
96.761	1.0
96.776	1.0
96.791	5.0
96.806	0.0
96.821	5.0
96.836	4.0
96.851	3.0
96.866	2.0
96.881	3.0
96.896	2.0
96.911	3.0
96.926	4.0
96.94	3.0
96.955	4.0
96.97	3.0
96.985	3.0
97.0	2.0
97.015	3.0
97.03	2.0
97.045	1.0
97.06	7.0
97.075	6.0
97.09	8.0
97.105	3.0
97.12	3.0
97.135	1.0
97.15	6.0
97.165	4.0
97.18	4.0
97.195	2.0
97.21	2.0
97.225	3.0
97.239	1.0
97.254	2.0
97.269	5.0
97.284	6.0
97.299	0.0
97.314	4.0
97.329	2.0
97.344	6.0
97.359	3.0
97.374	4.0
97.389	5.0
97.404	1.0
97.419	2.0
97.434	2.0
97.449	3.0
97.464	3.0
97.479	6.0
97.494	3.0
97.509	6.0
97.524	1.0
97.538	4.0
97.553	5.0
97.568	3.0
97.583	4.0
97.598	1.0
97.613	4.0
97.628	3.0
97.643	4.0
97.658	3.0
97.673	2.0
97.688	3.0
97.703	3.0
97.718	4.0
97.733	1.0
97.748	3.0
97.763	4.0
97.778	4.0
97.792	3.0
97.807	6.0
97.822	2.0
97.837	4.0
97.852	2.0
97.867	4.0
97.882	2.0
97.897	5.0
97.912	2.0
97.927	6.0
97.942	4.0
97.957	2.0
97.972	5.0
97.987	3.0
98.001	4.0
98.016	2.0
98.031	2.0
98.046	0.0
98.061	3.0
98.076	3.0
98.091	2.0
98.106	4.0
98.121	4.0
98.136	2.0
98.151	5.0
98.166	2.0
98.181	1.0
98.195	3.0
98.21	4.0
98.225	2.0
98.24	0.0
98.255	2.0
98.27	3.0
98.285	5.0
98.3	3.0
98.315	2.0
98.33	1.0
98.345	1.0
98.359	3.0
98.374	5.0
98.389	4.0
98.404	3.0
98.419	3.0
98.434	4.0
98.449	2.0
98.464	6.0
98.479	4.0
98.494	4.0
98.508	1.0
98.523	3.0
98.538	3.0
98.553	3.0
98.568	4.0
98.583	4.0
98.598	5.0
98.613	3.0
98.628	2.0
98.642	1.0
98.657	4.0
98.672	3.0
98.687	5.0
98.702	7.0
98.717	3.0
98.732	3.0
98.747	3.0
98.762	6.0
98.776	0.0
98.791	4.0
98.806	3.0
98.821	6.0
98.836	1.0
98.851	1.0
98.866	1.0
98.881	4.0
98.896	1.0
98.91	4.0
98.925	4.0
98.94	4.0
98.955	2.0
98.97	1.0
98.985	4.0
99.0	1.0
99.015	3.0
99.029	2.0
99.044	2.0
99.059	1.0
99.074	6.0
99.089	3.0
99.104	4.0
99.119	2.0
99.133	2.0
99.148	1.0
99.163	6.0
99.178	2.0
99.193	3.0
99.208	1.0
99.223	5.0
99.238	4.0
99.252	0.0
99.267	6.0
99.282	3.0
99.297	2.0
99.312	6.0
99.327	3.0
99.342	4.0
99.356	4.0
99.371	4.0
99.386	2.0
99.401	7.0
99.416	3.0
99.431	3.0
99.446	2.0
99.461	4.0
99.475	3.0
99.49	1.0
99.505	4.0
99.52	3.0
99.535	4.0
99.55	2.0
99.565	5.0
99.579	3.0
99.594	10.0
99.609	3.0
99.624	1.0
99.639	2.0
99.654	3.0
99.669	4.0
99.683	1.0
99.698	5.0
99.713	2.0
99.728	1.0
99.743	3.0
99.758	3.0
99.772	3.0
99.787	4.0
99.802	2.0
99.817	1.0
99.832	5.0
99.847	2.0
99.862	4.0
99.876	4.0
99.891	4.0
99.906	6.0
99.921	1.0
99.936	1.0
99.951	2.0
99.966	0.0
99.98	1.0
99.995	5.0
100.01	3.0
100.025	4.0
100.04	5.0
100.055	5.0
100.069	3.0
100.084	3.0
100.099	3.0
100.114	4.0
100.129	1.0
100.144	0.0
100.159	4.0
100.173	3.0
100.188	5.0
100.203	2.0
100.218	3.0
100.233	2.0
100.248	4.0
100.262	5.0
100.277	1.0
100.292	1.0
100.307	6.0
100.322	4.0
100.337	3.0
100.351	3.0
100.366	7.0
100.381	5.0
100.396	2.0
100.411	6.0
100.426	2.0
100.441	0.0
100.455	3.0
100.47	7.0
100.485	7.0
100.5	3.0
100.515	4.0
100.53	2.0
100.544	9.0
100.559	6.0
100.574	1.0
100.589	2.0
100.604	3.0
100.619	3.0
100.633	1.0
100.648	5.0
100.663	3.0
100.678	3.0
100.693	3.0
100.708	3.0
100.722	2.0
100.737	4.0
100.752	2.0
100.767	2.0
100.782	5.0
100.796	2.0
100.811	2.0
100.826	6.0
100.841	3.0
100.856	3.0
100.871	0.0
100.885	1.0
100.9	3.0
100.915	2.0
100.93	1.0
100.945	3.0
100.96	6.0
100.974	5.0
100.989	4.0
101.004	4.0
101.019	5.0
101.034	2.0
101.048	3.0
101.063	2.0
101.078	4.0
101.093	10.0
101.108	3.0
101.123	4.0
101.137	5.0
101.152	7.0
101.167	6.0
101.182	5.0
101.197	11.0
101.211	3.0
101.226	4.0
101.241	2.0
101.256	4.0
101.271	3.0
101.285	3.0
101.3	3.0
101.315	1.0
101.33	8.0
101.345	2.0
101.359	1.0
101.374	5.0
101.389	5.0
101.404	2.0
101.419	0.0
101.433	5.0
101.448	3.0
101.463	5.0
101.478	6.0
101.493	4.0
101.507	3.0
101.522	1.0
101.537	2.0
101.552	1.0
101.567	4.0
101.581	2.0
101.596	2.0
101.611	4.0
101.626	1.0
101.64	1.0
101.655	5.0
101.67	4.0
101.685	1.0
101.7	2.0
101.714	3.0
101.729	4.0
101.744	5.0
101.759	3.0
101.773	0.0
101.788	1.0
101.803	8.0
101.818	6.0
101.833	4.0
101.847	2.0
101.862	3.0
101.877	5.0
101.892	4.0
101.906	4.0
101.921	0.0
101.936	2.0
101.951	5.0
101.965	7.0
101.98	4.0
101.995	1.0
102.01	5.0
102.025	4.0
102.039	4.0
102.054	4.0
102.069	2.0
102.084	4.0
102.098	4.0
102.113	6.0
102.128	5.0
102.143	1.0
102.157	5.0
102.172	4.0
102.187	3.0
102.202	6.0
102.216	1.0
102.231	3.0
102.246	5.0
102.261	4.0
102.275	4.0
102.29	3.0
102.305	3.0
102.32	3.0
102.334	4.0
102.349	3.0
102.364	5.0
102.378	5.0
102.393	5.0
102.408	4.0
102.423	2.0
102.437	3.0
102.452	1.0
102.467	0.0
102.482	2.0
102.496	2.0
102.511	2.0
102.526	4.0
102.541	4.0
102.555	5.0
102.57	0.0
102.585	4.0
102.6	1.0
102.614	4.0
102.629	7.0
102.644	5.0
102.659	3.0
102.673	2.0
102.688	3.0
102.703	1.0
102.717	3.0
102.732	3.0
102.747	8.0
102.762	5.0
102.776	3.0
102.791	3.0
102.806	3.0
102.821	1.0
102.835	3.0
102.85	5.0
102.865	3.0
102.88	8.0
102.894	2.0
102.909	0.0
102.924	7.0
102.938	3.0
102.953	5.0
102.968	3.0
102.983	5.0
102.997	3.0
103.012	4.0
103.027	2.0
103.042	2.0
103.056	3.0
103.071	3.0
103.086	5.0
103.101	4.0
103.115	0.0
103.13	3.0
103.145	4.0
103.16	0.0
103.174	3.0
103.189	3.0
103.204	2.0
103.219	0.0
103.233	3.0
103.248	2.0
103.263	4.0
103.278	2.0
103.292	4.0
103.307	4.0
103.322	3.0
103.337	4.0
103.351	4.0
103.366	5.0
103.381	1.0
103.396	2.0
103.41	2.0
103.425	4.0
103.44	4.0
103.455	1.0
103.469	5.0
103.484	1.0
103.499	4.0
103.514	3.0
103.529	2.0
103.543	3.0
103.558	6.0
103.573	5.0
103.588	6.0
103.602	5.0
103.617	4.0
103.632	0.0
103.647	6.0
103.661	2.0
103.676	9.0
103.691	7.0
103.706	6.0
103.721	3.0
103.735	6.0
103.75	3.0
103.765	3.0
103.78	2.0
103.795	1.0
103.809	2.0
103.824	4.0
103.839	2.0
103.854	4.0
103.869	5.0
103.883	3.0
103.898	3.0
103.913	4.0
103.928	1.0
103.943	3.0
103.957	4.0
103.972	4.0
103.987	2.0
104.002	3.0
104.017	8.0
104.031	1.0
104.046	3.0
104.061	5.0
104.076	3.0
104.091	1.0
104.106	4.0
104.12	4.0
104.135	2.0
104.15	2.0
104.165	5.0
104.18	4.0
104.195	3.0
104.209	3.0
104.224	0.0
104.239	4.0
104.254	2.0
104.269	2.0
104.284	2.0
104.299	3.0
104.313	3.0
104.328	1.0
104.343	3.0
104.358	4.0
104.373	4.0
104.388	5.0
104.403	1.0
104.417	1.0
104.432	3.0
104.447	1.0
104.462	3.0
104.477	2.0
104.492	4.0
104.507	4.0
104.522	2.0
104.536	4.0
104.551	3.0
104.566	6.0
104.581	4.0
104.596	5.0
104.611	1.0
104.626	4.0
104.641	4.0
104.656	7.0
104.67	3.0
104.685	4.0
104.7	5.0
104.715	5.0
104.73	2.0
104.745	3.0
104.76	5.0
104.775	0.0
104.79	1.0
104.804	3.0
104.819	5.0
104.834	4.0
104.849	2.0
104.864	3.0
104.879	4.0
104.894	2.0
104.909	3.0
104.924	3.0
104.939	2.0
104.954	3.0
104.968	1.0
104.983	5.0
104.998	4.0
105.013	2.0
105.028	7.0
105.043	1.0
105.058	5.0
105.073	5.0
105.088	3.0
105.103	0.0
105.118	2.0
105.133	3.0
105.147	6.0
105.162	1.0
105.177	4.0
105.192	4.0
105.207	2.0
105.222	2.0
105.237	1.0
105.252	0.0
105.267	3.0
105.282	3.0
105.297	1.0
105.312	3.0
105.327	2.0
105.342	2.0
105.356	1.0
105.371	0.0
105.386	4.0
105.401	5.0
105.416	1.0
105.431	2.0
105.446	3.0
105.461	2.0
105.476	2.0
105.491	2.0
105.506	0.0
105.521	4.0
105.536	4.0
105.551	4.0
105.566	2.0
105.581	1.0
105.595	3.0
105.61	3.0
105.625	1.0
105.64	1.0
105.655	5.0
105.67	2.0
105.685	1.0
105.7	1.0
105.715	1.0
105.73	4.0
105.745	2.0
105.76	1.0
105.775	0.0
105.79	4.0
105.805	6.0
105.82	4.0
105.835	3.0
105.85	4.0
105.864	2.0
105.879	1.0
105.894	2.0
105.909	2.0
105.924	2.0
105.939	2.0
105.954	6.0
105.969	5.0
105.984	5.0
105.999	0.0
106.014	2.0
106.029	0.0
106.044	3.0
106.059	4.0
106.074	2.0
106.089	2.0
106.104	3.0
106.119	1.0
106.134	2.0
106.148	0.0
106.163	1.0
106.178	2.0
106.193	2.0
106.208	5.0
106.223	2.0
106.238	3.0
106.253	3.0
106.268	6.0
106.283	2.0
106.298	3.0
106.313	4.0
106.328	1.0
106.343	2.0
106.358	3.0
106.373	7.0
106.388	5.0
106.403	3.0
106.418	0.0
106.432	3.0
106.447	5.0
106.462	3.0
106.477	3.0
106.492	2.0
106.507	7.0
106.522	1.0
106.537	2.0
106.552	3.0
106.567	4.0
106.582	3.0
106.597	4.0
106.612	8.0
106.627	4.0
106.642	3.0
106.657	3.0
106.672	2.0
106.687	0.0
106.701	2.0
106.716	3.0
106.731	1.0
106.746	4.0
106.761	3.0
106.776	4.0
106.791	3.0
106.806	1.0
106.821	3.0
106.836	4.0
106.851	6.0
106.866	2.0
106.881	3.0
106.896	4.0
106.911	4.0
106.926	4.0
106.941	2.0
106.955	2.0
106.97	4.0
106.985	4.0
107.0	3.0
107.015	5.0
107.03	2.0
107.045	3.0
107.06	2.0
107.075	2.0
107.09	6.0
107.105	2.0
107.12	5.0
107.135	6.0
107.15	2.0
107.165	8.0
107.18	8.0
107.194	5.0
107.209	4.0
107.224	4.0
107.239	4.0
107.254	6.0
107.269	1.0
107.284	6.0
107.299	0.0
107.314	6.0
107.329	4.0
107.344	6.0
107.359	5.0
107.374	2.0
107.389	3.0
107.404	4.0
107.418	1.0
107.433	4.0
107.448	4.0
107.463	4.0
107.478	3.0
107.493	1.0
107.508	4.0
107.523	3.0
107.538	4.0
107.553	3.0
107.568	2.0
107.583	5.0
107.598	2.0
107.613	2.0
107.627	4.0
107.642	5.0
107.657	3.0
107.672	4.0
107.687	3.0
107.702	4.0
107.717	3.0
107.732	6.0
107.747	10.0
107.762	4.0
107.777	2.0
107.792	4.0
107.807	5.0
107.821	1.0
107.836	3.0
107.851	5.0
107.866	4.0
107.881	5.0
107.896	4.0
107.911	4.0
107.926	1.0
107.941	1.0
107.956	6.0
107.971	0.0
107.986	4.0
108.0	4.0
108.015	4.0
108.03	1.0
108.045	4.0
108.06	4.0
108.075	3.0
108.09	6.0
108.105	4.0
108.12	5.0
108.135	4.0
108.15	7.0
108.164	4.0
108.179	4.0
108.194	6.0
108.209	5.0
108.224	1.0
108.239	11.0
108.254	2.0
108.269	2.0
108.284	4.0
108.299	2.0
108.313	3.0
108.328	4.0
108.343	3.0
108.358	3.0
108.373	1.0
108.388	1.0
108.403	3.0
108.418	7.0
108.433	3.0
108.448	2.0
108.462	2.0
108.477	4.0
108.492	2.0
108.507	2.0
108.522	5.0
108.537	3.0
108.552	3.0
108.567	7.0
108.582	5.0
108.597	2.0
108.611	1.0
108.626	3.0
108.641	1.0
108.656	7.0
108.671	0.0
108.686	2.0
108.701	1.0
108.716	0.0
108.731	1.0
108.745	1.0
108.76	7.0
108.775	2.0
108.79	3.0
108.805	3.0
108.82	4.0
108.835	3.0
108.85	5.0
108.865	4.0
108.879	3.0
108.894	2.0
108.909	4.0
108.924	2.0
108.939	3.0
108.954	5.0
108.969	1.0
108.984	9.0
108.999	3.0
109.013	7.0
109.028	5.0
109.043	3.0
109.058	6.0
109.073	7.0
109.088	4.0
109.103	5.0
109.118	5.0
109.133	2.0
109.147	3.0
109.162	1.0
109.177	4.0
109.192	2.0
109.207	1.0
109.222	0.0
109.237	5.0
109.252	4.0
109.267	1.0
109.281	4.0
109.296	5.0
109.311	5.0
109.326	6.0
109.341	2.0
109.356	1.0
109.371	2.0
109.386	2.0
109.4	5.0
109.415	2.0
109.43	2.0
109.445	3.0
109.46	4.0
109.475	2.0
109.49	1.0
109.505	2.0
109.52	2.0
109.534	1.0
109.549	3.0
109.564	3.0
109.579	1.0
109.594	3.0
109.609	4.0
109.624	2.0
109.639	7.0
109.653	5.0
109.668	4.0
109.683	4.0
109.698	1.0
109.713	5.0
109.728	1.0
109.743	5.0
109.758	3.0
109.773	2.0
109.787	4.0
109.802	5.0
109.817	2.0
109.832	1.0
109.847	0.0
109.862	0.0
109.877	2.0
109.892	3.0
109.907	2.0
109.921	5.0
109.936	3.0
109.951	4.0
109.966	6.0
109.981	3.0
109.996	4.0
110.011	6.0
110.026	0.0
110.04	1.0
110.055	2.0
110.07	1.0
110.085	3.0
110.1	3.0
110.115	10.0
110.13	6.0
110.145	5.0
110.16	5.0
110.174	2.0
110.189	1.0
110.204	5.0
110.219	5.0
110.234	5.0
110.249	2.0
110.264	3.0
110.279	2.0
110.294	3.0
110.308	1.0
110.323	1.0
110.338	2.0
110.353	5.0
110.368	3.0
110.383	2.0
110.398	3.0
110.413	2.0
110.428	4.0
110.442	2.0
110.457	1.0
110.472	3.0
110.487	1.0
110.502	5.0
110.517	3.0
110.532	1.0
110.547	4.0
110.561	1.0
110.576	1.0
110.591	5.0
110.606	2.0
110.621	2.0
110.636	3.0
110.651	0.0
110.666	2.0
110.681	2.0
110.695	2.0
110.71	2.0
110.725	4.0
110.74	1.0
110.755	5.0
110.77	3.0
110.785	3.0
110.8	3.0
110.815	6.0
110.829	1.0
110.844	3.0
110.859	1.0
110.874	5.0
110.889	4.0
110.904	1.0
110.919	5.0
110.934	5.0
110.948	4.0
110.963	4.0
110.978	4.0
110.993	5.0
111.008	1.0
111.023	3.0
111.038	3.0
111.053	6.0
111.067	3.0
111.082	5.0
111.097	2.0
111.112	3.0
111.127	4.0
111.142	1.0
111.157	3.0
111.172	5.0
111.186	7.0
111.201	2.0
111.216	0.0
111.231	1.0
111.246	1.0
111.261	5.0
111.276	2.0
111.291	5.0
111.305	5.0
111.32	1.0
111.335	1.0
111.35	3.0
111.365	2.0
111.38	4.0
111.395	2.0
111.41	4.0
111.424	3.0
111.439	1.0
111.454	5.0
111.469	4.0
111.484	3.0
111.499	1.0
111.514	0.0
111.528	1.0
111.543	5.0
111.558	5.0
111.573	6.0
111.588	5.0
111.603	4.0
111.618	3.0
111.633	2.0
111.647	5.0
111.662	2.0
111.677	2.0
111.692	2.0
111.707	3.0
111.722	2.0
111.737	5.0
111.751	2.0
111.766	5.0
111.781	7.0
111.796	2.0
111.811	3.0
111.826	1.0
111.84	2.0
111.855	1.0
111.87	3.0
111.885	2.0
111.9	4.0
111.915	1.0
111.93	4.0
111.944	6.0
111.959	7.0
111.974	1.0
111.989	5.0
112.004	0.0
112.019	3.0
112.033	3.0
112.048	1.0
112.063	2.0
112.078	3.0
112.093	4.0
112.108	5.0
112.123	1.0
112.137	2.0
112.152	4.0
112.167	4.0
112.182	2.0
112.197	1.0
112.212	4.0
112.226	1.0
112.241	5.0
112.256	3.0
112.271	1.0
112.286	1.0
112.301	2.0
112.315	5.0
112.33	3.0
112.345	4.0
112.36	2.0
112.375	1.0
112.389	7.0
112.404	2.0
112.419	4.0
112.434	3.0
112.449	2.0
112.464	1.0
112.478	2.0
112.493	1.0
112.508	1.0
112.523	1.0
112.538	4.0
112.553	2.0
112.567	3.0
112.582	4.0
112.597	3.0
112.612	4.0
112.627	1.0
112.642	1.0
112.656	1.0
112.671	3.0
112.686	3.0
112.701	1.0
112.716	4.0
112.73	2.0
112.745	5.0
112.76	1.0
112.775	4.0
112.79	1.0
112.805	5.0
112.819	2.0
112.834	4.0
112.849	3.0
112.864	0.0
112.879	1.0
112.894	4.0
112.908	2.0
112.923	1.0
112.938	3.0
112.953	2.0
112.968	4.0
112.983	5.0
112.997	10.0
113.012	2.0
113.027	3.0
113.042	5.0
113.057	3.0
113.072	5.0
113.086	0.0
113.101	6.0
113.116	1.0
113.131	2.0
113.146	2.0
113.161	4.0
113.175	2.0
113.19	4.0
113.205	2.0
113.22	1.0
113.235	3.0
113.25	0.0
113.265	3.0
113.279	3.0
113.294	2.0
113.309	1.0
113.324	3.0
113.339	4.0
113.354	3.0
113.368	2.0
113.383	8.0
113.398	1.0
113.413	2.0
113.428	2.0
113.443	4.0
113.458	5.0
113.472	8.0
113.487	4.0
113.502	5.0
113.517	1.0
113.532	4.0
113.547	8.0
113.562	3.0
113.576	7.0
113.591	3.0
113.606	1.0
113.621	7.0
113.636	5.0
113.651	4.0
113.666	5.0
113.681	2.0
113.695	7.0
113.71	5.0
113.725	4.0
113.74	6.0
113.755	4.0
113.77	3.0
113.785	6.0
113.8	3.0
113.814	5.0
113.829	2.0
113.844	2.0
113.859	5.0
113.874	4.0
113.889	8.0
113.904	4.0
113.919	3.0
113.934	4.0
113.949	4.0
113.963	3.0
113.978	5.0
113.993	6.0
114.008	2.0
114.023	2.0
114.038	0.0
114.053	5.0
114.068	3.0
114.083	1.0
114.098	4.0
114.113	3.0
114.127	6.0
114.142	0.0
114.157	5.0
114.172	3.0
114.187	7.0
114.202	5.0
114.217	4.0
114.232	2.0
114.247	2.0
114.262	2.0
114.277	6.0
114.292	5.0
114.307	4.0
114.322	5.0
114.337	2.0
114.351	1.0
114.366	4.0
114.381	1.0
114.396	6.0
114.411	5.0
114.426	6.0
114.441	5.0
114.456	2.0
114.471	6.0
114.486	1.0
114.501	5.0
114.516	3.0
114.531	6.0
114.546	4.0
114.561	4.0
114.576	2.0
114.591	6.0
114.606	1.0
114.621	7.0
114.636	5.0
114.65	4.0
114.665	5.0
114.68	0.0
114.695	6.0
114.71	3.0
114.725	3.0
114.74	4.0
114.755	3.0
114.77	5.0
114.785	4.0
114.8	4.0
114.815	2.0
114.83	5.0
114.845	4.0
114.86	1.0
114.875	2.0
114.89	4.0
114.905	4.0
114.92	2.0
114.935	4.0
114.95	6.0
114.965	2.0
114.98	7.0
114.995	2.0
115.009	6.0
115.024	4.0
115.039	3.0
115.054	2.0
115.069	5.0
115.084	4.0
115.099	7.0
115.114	2.0
115.129	1.0
115.144	3.0
115.159	7.0
115.174	5.0
115.189	4.0
115.204	2.0
115.219	7.0
115.234	5.0
115.249	8.0
115.264	4.0
115.279	6.0
115.294	8.0
115.309	2.0
115.323	3.0
115.338	0.0
115.353	5.0
115.368	4.0
115.383	1.0
115.398	9.0
115.413	3.0
115.428	3.0
115.443	3.0
115.458	1.0
115.473	6.0
115.488	6.0
115.503	0.0
115.518	2.0
115.533	7.0
115.548	5.0
115.562	5.0
115.577	0.0
115.592	3.0
115.607	0.0
115.622	5.0
115.637	2.0
115.652	5.0
115.667	1.0
115.682	6.0
115.697	3.0
115.712	2.0
115.727	3.0
115.741	2.0
115.756	4.0
115.771	0.0
115.786	2.0
115.801	7.0
115.816	3.0
115.831	4.0
115.846	5.0
115.861	2.0
115.875	7.0
115.89	6.0
115.905	2.0
115.92	4.0
115.935	5.0
115.95	0.0
115.965	4.0
115.98	2.0
115.995	1.0
116.009	4.0
116.024	4.0
116.039	2.0
116.054	2.0
116.069	7.0
116.084	2.0
116.099	1.0
116.113	3.0
116.128	5.0
116.143	1.0
116.158	6.0
116.173	3.0
116.188	3.0
116.202	3.0
116.217	1.0
116.232	4.0
116.247	5.0
116.262	1.0
116.277	4.0
116.291	4.0
116.306	3.0
116.321	0.0
116.336	5.0
116.351	1.0
116.366	0.0
116.38	6.0
116.395	2.0
116.41	2.0
116.425	5.0
116.44	5.0
116.454	4.0
116.469	0.0
116.484	3.0
116.499	4.0
116.514	4.0
116.528	3.0
116.543	4.0
116.558	0.0
116.573	5.0
116.588	5.0
116.602	4.0
116.617	4.0
116.632	3.0
116.647	1.0
116.662	2.0
116.676	2.0
116.691	2.0
116.706	0.0
116.721	5.0
116.735	5.0
116.75	4.0
116.765	5.0
116.78	5.0
116.795	4.0
116.809	2.0
116.824	3.0
116.839	6.0
116.854	7.0
116.868	2.0
116.883	3.0
116.898	1.0
116.913	1.0
116.927	2.0
116.942	5.0
116.957	5.0
116.972	6.0
116.986	6.0
117.001	1.0
117.016	2.0
117.031	5.0
117.045	3.0
117.06	10.0
117.075	3.0
117.09	4.0
117.104	6.0
117.119	2.0
117.134	2.0
117.149	5.0
117.163	1.0
117.178	5.0
117.193	7.0
117.208	2.0
117.222	7.0
117.237	4.0
117.252	1.0
117.267	6.0
117.281	1.0
117.296	6.0
117.311	3.0
117.325	3.0
117.34	7.0
117.355	4.0
117.37	4.0
117.384	5.0
117.399	6.0
117.414	5.0
117.429	1.0
117.443	9.0
117.458	1.0
117.473	6.0
117.487	2.0
117.502	3.0
117.517	3.0
117.532	3.0
117.546	3.0
117.561	4.0
117.576	4.0
117.59	4.0
117.605	3.0
117.62	1.0
117.635	8.0
117.649	3.0
117.664	1.0
117.679	4.0
117.693	4.0
117.708	2.0
117.723	5.0
117.738	5.0
117.752	6.0
117.767	2.0
117.782	3.0
117.796	8.0
117.811	2.0
117.826	8.0
117.841	5.0
117.855	2.0
117.87	2.0
117.885	7.0
117.899	4.0
117.914	6.0
117.929	6.0
117.944	4.0
117.958	3.0
117.973	4.0
117.988	4.0
118.002	0.0
118.017	4.0
118.032	4.0
118.047	4.0
118.062	2.0
118.077	4.0
118.092	2.0
118.107	5.0
118.121	2.0
118.136	5.0
118.151	5.0
118.166	5.0
118.181	6.0
118.196	5.0
118.211	5.0
118.225	5.0
118.24	1.0
118.255	3.0
118.27	3.0
118.285	0.0
118.3	7.0
118.315	3.0
118.33	2.0
118.344	0.0
118.359	8.0
118.374	6.0
118.389	3.0
118.404	5.0
118.419	8.0
118.434	3.0
118.449	2.0
118.463	5.0
118.478	0.0
118.493	0.0
118.508	3.0
118.523	2.0
118.538	2.0
118.553	5.0
118.567	2.0
118.582	2.0
118.597	2.0
118.612	1.0
118.627	4.0
118.642	2.0
118.657	2.0
118.672	2.0
118.686	1.0
118.701	2.0
118.716	5.0
118.731	0.0
118.746	8.0
118.761	2.0
118.776	4.0
118.791	7.0
118.805	6.0
118.82	5.0
118.835	7.0
118.85	2.0
118.865	3.0
118.88	4.0
118.895	2.0
118.909	0.0
118.924	1.0
118.939	2.0
118.954	3.0
118.969	4.0
118.984	4.0
118.999	3.0
119.014	2.0
119.028	3.0
119.043	5.0
119.058	3.0
119.073	2.0
119.088	8.0
119.103	2.0
119.118	7.0
119.133	2.0
119.147	3.0
119.162	6.0
119.177	4.0
119.192	6.0
119.207	2.0
119.222	3.0
119.237	1.0
119.251	3.0
119.266	1.0
119.281	3.0
119.296	5.0
119.311	2.0
119.326	7.0
119.341	4.0
119.356	4.0
119.37	3.0
119.385	7.0
119.4	3.0
119.415	2.0
119.43	5.0
119.445	3.0
119.46	2.0
119.475	3.0
119.489	1.0
119.504	2.0
119.519	2.0
119.534	5.0
119.549	5.0
119.564	3.0
119.579	1.0
119.593	4.0
119.608	2.0
119.623	8.0
119.638	1.0
119.653	1.0
119.668	3.0
119.683	9.0
119.698	3.0
119.712	4.0
119.727	4.0
119.742	5.0
119.757	4.0
119.772	6.0
119.787	1.0
119.802	3.0
119.817	3.0
119.831	1.0
119.846	4.0
119.861	3.0
119.876	2.0
119.891	4.0
119.906	3.0
119.921	3.0
119.935	5.0
119.95	2.0
119.965	4.0
119.98	1.0
119.995	1.0
120.01	6.0
120.025	3.0
120.04	3.0
120.054	5.0
120.069	5.0
120.084	2.0
120.099	2.0
120.114	2.0
120.129	1.0
120.144	0.0
120.159	3.0
120.173	2.0
120.188	1.0
120.203	2.0
120.218	0.0
120.233	1.0
120.248	0.0
120.263	0.0
120.277	0.0
120.292	0.0
120.307	0.0
120.322	0.0
120.337	0.0
120.352	0.0
120.367	0.0
120.382	0.0
120.396	0.0
120.411	0.0
120.426	0.0
120.441	0.0
120.456	0.0
120.471	0.0
120.486	0.0
120.501	0.0
120.515	0.0
120.53	0.0
120.545	0.0
120.56	0.0
120.575	0.0
120.59	0.0
120.605	1.0
120.619	1.0
120.634	0.0
120.649	1.0
120.664	0.0
120.679	0.0
120.694	0.0
120.709	0.0
120.724	0.0
120.738	0.0
120.753	0.0
120.768	0.0
120.783	0.0
120.798	0.0
120.813	0.0
120.828	0.0
120.843	0.0
120.857	0.0
120.872	0.0
120.887	0.0
120.902	0.0
120.917	1.0
120.932	0.0
120.947	0.0
120.961	0.0
120.976	0.0
