-1.217	0.0
-1.202	0.0
-1.187	0.0
-1.172	0.0
-1.157	0.0
-1.142	0.0
-1.128	1.0
-1.113	0.0
-1.098	0.0
-1.083	0.0
-1.068	0.0
-1.054	0.0
-1.039	0.0
-1.024	0.0
-1.009	0.0
-0.994	0.0
-0.979	0.0
-0.965	0.0
-0.95	0.0
-0.935	0.0
-0.92	0.0
-0.905	0.0
-0.891	0.0
-0.876	0.0
-0.861	0.0
-0.846	0.0
-0.831	0.0
-0.816	0.0
-0.802	0.0
-0.787	0.0
-0.772	0.0
-0.757	0.0
-0.742	0.0
-0.728	0.0
-0.713	0.0
-0.698	0.0
-0.683	0.0
-0.668	0.0
-0.653	0.0
-0.639	0.0
-0.624	0.0
-0.609	0.0
-0.594	0.0
-0.579	0.0
-0.565	0.0
-0.55	0.0
-0.535	0.0
-0.52	0.0
-0.505	0.0
-0.49	0.0
-0.476	0.0
-0.461	0.0
-0.446	0.0
-0.431	0.0
-0.416	0.0
-0.401	0.0
-0.387	0.0
-0.372	0.0
-0.357	0.0
-0.342	0.0
-0.327	0.0
-0.313	0.0
-0.298	0.0
-0.283	0.0
-0.268	0.0
-0.253	0.0
-0.238	0.0
-0.224	0.0
-0.209	1.0
-0.194	0.0
-0.179	0.0
-0.164	0.0
-0.15	0.0
-0.135	0.0
-0.12	0.0
-0.105	0.0
-0.09	0.0
-0.075	0.0
-0.061	0.0
-0.046	0.0
-0.031	0.0
-0.016	0.0
-0.001	0.0
0.013	0.0
0.028	0.0
0.043	0.0
0.058	0.0
0.073	0.0
0.088	0.0
0.102	0.0
0.117	0.0
0.132	1.0
0.147	1.0
0.162	0.0
0.176	0.0
0.191	0.0
0.206	0.0
0.221	0.0
0.236	0.0
0.251	0.0
0.265	0.0
0.28	0.0
0.295	0.0
0.31	0.0
0.325	0.0
0.339	0.0
0.354	0.0
0.369	0.0
0.384	0.0
0.399	1.0
0.414	0.0
0.428	0.0
0.443	0.0
0.458	0.0
0.473	0.0
0.488	0.0
0.502	0.0
0.517	1.0
0.532	0.0
0.547	0.0
0.562	0.0
0.577	0.0
0.591	0.0
0.606	0.0
0.621	0.0
0.636	0.0
0.651	0.0
0.665	0.0
0.68	0.0
0.695	0.0
0.71	0.0
0.725	0.0
0.74	0.0
0.754	0.0
0.769	0.0
0.784	0.0
0.799	0.0
0.814	1.0
0.828	0.0
0.843	0.0
0.858	0.0
0.873	0.0
0.888	0.0
0.903	0.0
0.917	1.0
0.932	0.0
0.947	0.0
0.962	0.0
0.977	0.0
0.991	0.0
1.006	0.0
1.021	0.0
1.036	0.0
1.051	0.0
1.065	0.0
1.08	0.0
1.095	0.0
1.11	0.0
1.125	0.0
1.14	0.0
1.154	0.0
1.169	0.0
1.184	0.0
1.199	0.0
1.214	0.0
1.228	0.0
1.243	0.0
1.258	0.0
1.273	0.0
1.288	0.0
1.302	0.0
1.317	0.0
1.332	0.0
1.347	0.0
1.362	0.0
1.376	0.0
1.391	0.0
1.406	0.0
1.421	0.0
1.436	0.0
1.45	0.0
1.465	0.0
1.48	0.0
1.495	0.0
1.51	0.0
1.524	0.0
1.539	0.0
1.554	0.0
1.569	0.0
1.584	1.0
1.598	0.0
1.613	0.0
1.628	0.0
1.643	0.0
1.658	1.0
1.672	0.0
1.687	0.0
1.702	0.0
1.717	0.0
1.732	0.0
1.746	0.0
1.761	0.0
1.776	0.0
1.791	1.0
1.806	0.0
1.82	0.0
1.835	0.0
1.85	1.0
1.865	1.0
1.88	0.0
1.894	0.0
1.909	0.0
1.924	0.0
1.939	0.0
1.954	0.0
1.968	0.0
1.983	0.0
1.998	0.0
2.013	0.0
2.028	1.0
2.042	0.0
2.057	0.0
2.072	0.0
2.087	1.0
2.101	1.0
2.116	0.0
2.131	0.0
2.146	0.0
2.161	0.0
2.175	0.0
2.19	0.0
2.205	0.0
2.22	0.0
2.235	0.0
2.249	0.0
2.264	0.0
2.279	0.0
2.294	0.0
2.308	0.0
2.323	0.0
2.338	0.0
2.353	0.0
2.368	0.0
2.382	1.0
2.397	0.0
2.412	0.0
2.427	1.0
2.442	1.0
2.456	1.0
2.471	3.0
2.486	3.0
2.501	1.0
2.515	2.0
2.53	5.0
2.545	0.0
2.56	2.0
2.575	2.0
2.589	2.0
2.604	2.0
2.619	1.0
2.634	3.0
2.649	3.0
2.663	1.0
2.678	3.0
2.693	2.0
2.708	1.0
2.722	2.0
2.737	2.0
2.752	2.0
2.767	1.0
2.782	1.0
2.796	7.0
2.811	3.0
2.826	5.0
2.841	3.0
2.856	5.0
2.87	4.0
2.885	2.0
2.9	3.0
2.915	4.0
2.93	5.0
2.944	2.0
2.959	2.0
2.974	4.0
2.989	5.0
3.004	6.0
3.018	2.0
3.033	2.0
3.048	5.0
3.063	4.0
3.078	3.0
3.092	3.0
3.107	6.0
3.122	5.0
3.137	3.0
3.152	1.0
3.166	6.0
3.181	3.0
3.196	6.0
3.211	2.0
3.226	2.0
3.24	7.0
3.255	3.0
3.27	2.0
3.285	4.0
3.3	2.0
3.315	8.0
3.329	4.0
3.344	4.0
3.359	4.0
3.374	5.0
3.389	6.0
3.403	3.0
3.418	2.0
3.433	2.0
3.448	4.0
3.463	9.0
3.478	6.0
3.492	5.0
3.507	3.0
3.522	7.0
3.537	1.0
3.552	9.0
3.567	3.0
3.581	5.0
3.596	7.0
3.611	10.0
3.626	2.0
3.641	4.0
3.656	3.0
3.671	4.0
3.685	5.0
3.7	3.0
3.715	6.0
3.73	3.0
3.745	6.0
3.76	5.0
3.775	10.0
3.789	5.0
3.804	9.0
3.819	2.0
3.834	2.0
3.849	4.0
3.864	0.0
3.879	4.0
3.894	10.0
3.908	7.0
3.923	6.0
3.938	10.0
3.953	8.0
3.968	6.0
3.983	2.0
3.998	6.0
4.013	7.0
4.027	7.0
4.042	8.0
4.057	13.0
4.072	9.0
4.087	7.0
4.102	8.0
4.117	3.0
4.132	4.0
4.147	5.0
4.162	1.0
4.176	7.0
4.191	5.0
4.206	6.0
4.221	8.0
4.236	5.0
4.251	6.0
4.266	6.0
4.281	5.0
4.296	4.0
4.311	13.0
4.326	9.0
4.341	5.0
4.356	4.0
4.37	7.0
4.385	2.0
4.4	13.0
4.415	8.0
4.43	5.0
4.445	6.0
4.46	10.0
4.475	9.0
4.49	6.0
4.505	9.0
4.52	9.0
4.535	3.0
4.55	8.0
4.565	10.0
4.58	9.0
4.595	10.0
4.61	6.0
4.625	2.0
4.639	5.0
4.654	2.0
4.669	2.0
4.684	10.0
4.699	6.0
4.714	4.0
4.729	11.0
4.744	9.0
4.759	7.0
4.774	9.0
4.789	4.0
4.804	6.0
4.819	12.0
4.834	3.0
4.849	5.0
4.864	8.0
4.879	13.0
4.894	13.0
4.909	11.0
4.924	8.0
4.939	7.0
4.954	7.0
4.969	7.0
4.984	9.0
4.999	3.0
5.014	6.0
5.029	7.0
5.044	11.0
5.059	7.0
5.074	7.0
5.089	7.0
5.104	7.0
5.119	10.0
5.134	5.0
5.149	16.0
5.164	9.0
5.179	5.0
5.194	5.0
5.209	8.0
5.224	10.0
5.239	8.0
5.254	12.0
5.269	5.0
5.284	7.0
5.299	5.0
5.314	9.0
5.329	7.0
5.344	6.0
5.359	10.0
5.374	2.0
5.389	8.0
5.404	9.0
5.419	8.0
5.434	10.0
5.449	4.0
5.464	5.0
5.479	9.0
5.494	5.0
5.509	7.0
5.524	8.0
5.539	6.0
5.554	11.0
5.569	12.0
5.584	5.0
5.599	5.0
5.614	7.0
5.629	11.0
5.644	9.0
5.659	8.0
5.674	5.0
5.689	4.0
5.704	10.0
5.719	10.0
5.734	11.0
5.749	12.0
5.764	6.0
5.779	6.0
5.794	8.0
5.809	11.0
5.824	12.0
5.839	13.0
5.854	7.0
5.869	4.0
5.884	9.0
5.899	10.0
5.914	11.0
5.929	4.0
5.944	8.0
5.959	7.0
5.974	10.0
5.989	8.0
6.004	6.0
6.019	8.0
6.034	5.0
6.049	13.0
6.064	6.0
6.079	6.0
6.094	7.0
6.109	10.0
6.124	4.0
6.139	9.0
6.154	7.0
6.169	11.0
6.184	13.0
6.199	4.0
6.214	6.0
6.229	6.0
6.244	9.0
6.259	10.0
6.274	5.0
6.289	5.0
6.304	8.0
6.319	4.0
6.334	8.0
6.349	9.0
6.364	7.0
6.379	2.0
6.394	8.0
6.409	5.0
6.424	7.0
6.439	13.0
6.454	8.0
6.469	12.0
6.484	7.0
6.499	9.0
6.514	9.0
6.529	14.0
6.544	11.0
6.559	7.0
6.574	7.0
6.589	10.0
6.604	11.0
6.619	7.0
6.634	6.0
6.649	9.0
6.664	8.0
6.679	11.0
6.694	7.0
6.709	13.0
6.724	6.0
6.739	5.0
6.754	8.0
6.769	6.0
6.784	12.0
6.799	9.0
6.814	6.0
6.829	6.0
6.844	8.0
6.859	12.0
6.873	4.0
6.888	13.0
6.903	7.0
6.918	5.0
6.933	5.0
6.948	10.0
6.963	14.0
6.978	13.0
6.993	7.0
7.008	11.0
7.023	8.0
7.038	15.0
7.053	7.0
7.068	7.0
7.083	6.0
7.098	10.0
7.113	11.0
7.128	8.0
7.143	8.0
7.157	7.0
7.172	4.0
7.187	4.0
7.202	12.0
7.217	5.0
7.232	8.0
7.247	4.0
7.262	6.0
7.277	5.0
7.292	8.0
7.307	8.0
7.322	11.0
7.336	8.0
7.351	8.0
7.366	10.0
7.381	12.0
7.396	6.0
7.411	10.0
7.426	8.0
7.441	9.0
7.456	11.0
7.471	8.0
7.485	6.0
7.5	14.0
7.515	7.0
7.53	5.0
7.545	8.0
7.56	10.0
7.575	7.0
7.59	7.0
7.604	9.0
7.619	12.0
7.634	7.0
7.649	11.0
7.664	9.0
7.679	9.0
7.693	6.0
7.708	4.0
7.723	10.0
7.738	9.0
7.753	10.0
7.768	8.0
7.783	11.0
7.797	10.0
7.812	5.0
7.827	7.0
7.842	10.0
7.857	9.0
7.871	7.0
7.886	11.0
7.901	9.0
7.916	7.0
7.931	11.0
7.945	5.0
7.96	6.0
7.975	6.0
7.99	7.0
8.005	3.0
8.019	12.0
8.034	9.0
8.049	7.0
8.064	11.0
8.078	11.0
8.093	9.0
8.108	4.0
8.123	11.0
8.137	11.0
8.152	8.0
8.167	15.0
8.182	8.0
8.196	13.0
8.211	8.0
8.226	8.0
8.241	8.0
8.255	13.0
8.27	9.0
8.285	1.0
8.3	13.0
8.314	7.0
8.329	10.0
8.344	9.0
8.358	6.0
8.373	13.0
8.388	5.0
8.403	8.0
8.417	8.0
8.432	10.0
8.447	7.0
8.461	9.0
8.476	5.0
8.491	7.0
8.505	15.0
8.52	6.0
8.535	11.0
8.55	8.0
8.564	13.0
8.579	8.0
8.594	9.0
8.608	4.0
8.623	10.0
8.638	9.0
8.652	7.0
8.667	16.0
8.682	4.0
8.696	10.0
8.711	4.0
8.726	10.0
8.74	9.0
8.755	11.0
8.77	6.0
8.784	4.0
8.799	10.0
8.814	5.0
8.828	8.0
8.843	5.0
8.858	11.0
8.872	8.0
8.887	10.0
8.902	8.0
8.916	5.0
8.931	8.0
8.946	8.0
8.96	13.0
8.975	11.0
8.99	8.0
9.004	10.0
9.019	11.0
9.034	3.0
9.048	15.0
9.063	19.0
9.077	11.0
9.092	4.0
9.107	8.0
9.121	6.0
9.136	10.0
9.151	9.0
9.165	15.0
9.18	11.0
9.195	9.0
9.209	9.0
9.224	8.0
9.239	7.0
9.253	7.0
9.268	6.0
9.283	11.0
9.297	6.0
9.312	9.0
9.327	7.0
9.341	7.0
9.356	8.0
9.371	8.0
9.385	13.0
9.4	5.0
9.415	7.0
9.429	15.0
9.444	6.0
9.458	10.0
9.473	15.0
9.488	6.0
9.502	5.0
9.517	8.0
9.532	7.0
9.546	10.0
9.561	5.0
9.576	8.0
9.59	9.0
9.605	4.0
9.62	4.0
9.635	10.0
9.649	7.0
9.664	6.0
9.679	9.0
9.693	9.0
9.708	6.0
9.723	8.0
9.737	2.0
9.752	11.0
9.767	5.0
9.781	8.0
9.796	10.0
9.811	8.0
9.825	13.0
9.84	10.0
9.855	7.0
9.87	10.0
9.884	5.0
9.899	5.0
9.914	6.0
9.928	14.0
9.943	12.0
9.958	11.0
9.973	7.0
9.987	10.0
10.002	9.0
10.017	4.0
10.031	9.0
10.046	7.0
10.061	11.0
10.076	11.0
10.09	9.0
10.105	3.0
10.12	12.0
10.135	8.0
10.149	9.0
10.164	10.0
10.179	9.0
10.194	7.0
10.208	5.0
10.223	12.0
10.238	8.0
10.253	6.0
10.267	6.0
10.282	9.0
10.297	4.0
10.312	10.0
10.326	14.0
10.341	4.0
10.356	7.0
10.371	7.0
10.386	10.0
10.4	9.0
10.415	10.0
10.43	9.0
10.445	6.0
10.46	13.0
10.474	8.0
10.489	7.0
10.504	6.0
10.519	9.0
10.533	5.0
10.548	10.0
10.563	3.0
10.578	8.0
10.593	4.0
10.608	5.0
10.622	8.0
10.637	2.0
10.652	6.0
10.667	11.0
10.682	13.0
10.696	10.0
10.711	5.0
10.726	3.0
10.741	7.0
10.756	8.0
10.771	7.0
10.785	3.0
10.8	7.0
10.815	10.0
10.83	3.0
10.845	8.0
10.86	9.0
10.874	6.0
10.889	7.0
10.904	12.0
10.919	4.0
10.934	10.0
10.949	10.0
10.963	8.0
10.978	5.0
10.993	5.0
11.008	2.0
11.023	13.0
11.038	11.0
11.053	7.0
11.067	9.0
11.082	6.0
11.097	11.0
11.112	11.0
11.127	3.0
11.142	4.0
11.157	6.0
11.172	7.0
11.186	9.0
11.201	6.0
11.216	4.0
11.231	10.0
11.246	5.0
11.261	7.0
11.276	7.0
11.291	8.0
11.305	7.0
11.32	12.0
11.335	10.0
11.35	4.0
11.365	6.0
11.38	7.0
11.395	9.0
11.41	3.0
11.424	5.0
11.439	4.0
11.454	6.0
11.469	6.0
11.484	5.0
11.499	10.0
11.514	11.0
11.529	6.0
11.544	5.0
11.558	8.0
11.573	6.0
11.588	13.0
11.603	3.0
11.618	4.0
11.633	6.0
11.648	7.0
11.663	7.0
11.678	7.0
11.693	8.0
11.707	7.0
11.722	5.0
11.737	7.0
11.752	7.0
11.767	8.0
11.782	13.0
11.797	7.0
11.812	8.0
11.827	12.0
11.842	7.0
11.856	14.0
11.871	12.0
11.886	10.0
11.901	11.0
11.916	12.0
11.931	9.0
11.946	4.0
11.961	11.0
11.976	5.0
11.991	12.0
12.006	8.0
12.02	7.0
12.035	10.0
12.05	7.0
12.065	7.0
12.08	6.0
12.095	2.0
12.11	12.0
12.125	15.0
12.14	6.0
12.155	15.0
12.17	16.0
12.184	7.0
12.199	5.0
12.214	7.0
12.229	12.0
12.244	11.0
12.259	11.0
12.274	9.0
12.289	10.0
12.304	6.0
12.319	5.0
12.334	12.0
12.348	11.0
12.363	11.0
12.378	12.0
12.393	14.0
12.408	10.0
12.423	12.0
12.438	9.0
12.453	20.0
12.468	9.0
12.483	17.0
12.498	13.0
12.513	8.0
12.527	12.0
12.542	8.0
12.557	8.0
12.572	17.0
12.587	20.0
12.602	8.0
12.617	6.0
12.632	9.0
12.647	9.0
12.662	5.0
12.677	15.0
12.692	13.0
12.707	12.0
12.721	14.0
12.736	8.0
12.751	10.0
12.766	11.0
12.781	7.0
12.796	11.0
12.811	13.0
12.826	10.0
12.841	11.0
12.856	16.0
12.871	19.0
12.886	22.0
12.9	20.0
12.915	17.0
12.93	16.0
12.945	17.0
12.96	13.0
12.975	22.0
12.99	13.0
13.005	22.0
13.02	14.0
13.035	18.0
13.05	25.0
13.065	18.0
13.08	13.0
13.094	13.0
13.109	13.0
13.124	16.0
13.139	11.0
13.154	21.0
13.169	22.0
13.184	20.0
13.199	17.0
13.214	15.0
13.229	15.0
13.244	23.0
13.259	16.0
13.274	14.0
13.288	19.0
13.303	20.0
13.318	22.0
13.333	21.0
13.348	20.0
13.363	18.0
13.378	24.0
13.393	16.0
13.408	24.0
13.423	29.0
13.438	31.0
13.453	27.0
13.468	39.0
13.482	35.0
13.497	47.0
13.512	41.0
13.527	43.0
13.542	37.0
13.557	55.0
13.572	49.0
13.587	54.0
13.602	44.0
13.617	63.0
13.632	86.0
13.647	51.0
13.662	80.0
13.677	77.0
13.691	84.0
13.706	74.0
13.721	86.0
13.736	93.0
13.751	104.0
13.766	113.0
13.781	93.0
13.796	123.0
13.811	129.0
13.826	128.0
13.841	108.0
13.856	121.0
13.871	97.0
13.885	107.0
13.9	80.0
13.915	76.0
13.93	69.0
13.945	47.0
13.96	40.0
13.975	37.0
13.99	40.0
14.005	40.0
14.02	31.0
14.035	33.0
14.05	22.0
14.065	34.0
14.08	23.0
14.094	32.0
14.109	25.0
14.124	32.0
14.139	25.0
14.154	16.0
14.169	20.0
14.184	20.0
14.199	19.0
14.214	25.0
14.229	19.0
14.244	22.0
14.259	18.0
14.274	16.0
14.288	14.0
14.303	19.0
14.318	19.0
14.333	20.0
14.348	19.0
14.363	19.0
14.378	16.0
14.393	17.0
14.408	19.0
14.423	13.0
14.438	14.0
14.453	19.0
14.468	22.0
14.482	14.0
14.497	22.0
14.512	17.0
14.527	17.0
14.542	26.0
14.557	20.0
14.572	23.0
14.587	14.0
14.602	17.0
14.617	15.0
14.632	19.0
14.647	19.0
14.661	19.0
14.676	13.0
14.691	16.0
14.706	11.0
14.721	19.0
14.736	16.0
14.751	14.0
14.766	8.0
14.781	20.0
14.796	12.0
14.811	20.0
14.826	12.0
14.84	17.0
14.855	13.0
14.87	13.0
14.885	14.0
14.9	17.0
14.915	18.0
14.93	16.0
14.945	11.0
14.96	19.0
14.975	18.0
14.989	6.0
15.004	23.0
15.019	14.0
15.034	9.0
15.049	11.0
15.064	18.0
15.079	14.0
15.094	20.0
15.109	17.0
15.124	11.0
15.138	15.0
15.153	22.0
15.168	10.0
15.183	12.0
15.198	8.0
15.213	15.0
15.228	15.0
15.243	11.0
15.258	11.0
15.272	15.0
15.287	14.0
15.302	9.0
15.317	10.0
15.332	15.0
15.347	20.0
15.362	12.0
15.377	9.0
15.391	13.0
15.406	16.0
15.421	12.0
15.436	13.0
15.451	23.0
15.466	15.0
15.481	11.0
15.496	14.0
15.51	14.0
15.525	12.0
15.54	15.0
15.555	11.0
15.57	14.0
15.585	7.0
15.6	8.0
15.614	6.0
15.629	10.0
15.644	15.0
15.659	7.0
15.674	11.0
15.689	10.0
15.704	15.0
15.718	11.0
15.733	15.0
15.748	16.0
15.763	12.0
15.778	19.0
15.793	11.0
15.808	15.0
15.822	15.0
15.837	18.0
15.852	6.0
15.867	17.0
15.882	12.0
15.897	9.0
15.911	16.0
15.926	19.0
15.941	12.0
15.956	14.0
15.971	10.0
15.986	15.0
16.0	12.0
16.015	11.0
16.03	12.0
16.045	16.0
16.06	11.0
16.074	19.0
16.089	17.0
16.104	13.0
16.119	19.0
16.134	16.0
16.149	16.0
16.163	12.0
16.178	13.0
16.193	18.0
16.208	11.0
16.223	10.0
16.237	14.0
16.252	9.0
16.267	16.0
16.282	17.0
16.297	14.0
16.311	14.0
16.326	12.0
16.341	11.0
16.356	11.0
16.37	12.0
16.385	19.0
16.4	19.0
16.415	10.0
16.43	11.0
16.444	7.0
16.459	16.0
16.474	17.0
16.489	22.0
16.504	10.0
16.518	14.0
16.533	14.0
16.548	14.0
16.563	13.0
16.577	12.0
16.592	9.0
16.607	12.0
16.622	19.0
16.637	19.0
16.651	11.0
16.666	20.0
16.681	18.0
16.696	26.0
16.71	29.0
16.725	32.0
16.74	28.0
16.755	31.0
16.77	25.0
16.784	41.0
16.799	41.0
16.814	42.0
16.829	43.0
16.843	38.0
16.858	43.0
16.873	41.0
16.888	50.0
16.902	58.0
16.917	77.0
16.932	58.0
16.947	76.0
16.961	76.0
16.976	66.0
16.991	67.0
17.006	71.0
17.021	65.0
17.035	56.0
17.05	45.0
17.065	42.0
17.08	44.0
17.094	27.0
17.109	33.0
17.124	31.0
17.139	23.0
17.153	18.0
17.168	18.0
17.183	16.0
17.198	14.0
17.212	14.0
17.227	17.0
17.242	11.0
17.257	17.0
17.271	20.0
17.286	10.0
17.301	9.0
17.316	12.0
17.33	15.0
17.345	20.0
17.36	12.0
17.375	12.0
17.39	18.0
17.404	16.0
17.419	12.0
17.434	9.0
17.449	12.0
17.463	9.0
17.478	10.0
17.493	10.0
17.508	9.0
17.522	11.0
17.537	9.0
17.552	7.0
17.567	9.0
17.581	13.0
17.596	15.0
17.611	10.0
17.626	9.0
17.641	18.0
17.655	14.0
17.67	8.0
17.685	16.0
17.7	10.0
17.714	7.0
17.729	14.0
17.744	16.0
17.759	15.0
17.773	6.0
17.788	12.0
17.803	13.0
17.818	12.0
17.833	7.0
17.847	14.0
17.862	9.0
17.877	6.0
17.892	14.0
17.906	16.0
17.921	15.0
17.936	15.0
17.951	15.0
17.966	11.0
17.98	5.0
17.995	7.0
18.01	10.0
18.025	9.0
18.04	14.0
18.054	7.0
18.069	10.0
18.084	10.0
18.099	12.0
18.114	4.0
18.128	8.0
18.143	10.0
18.158	9.0
18.173	9.0
18.188	11.0
18.202	8.0
18.217	13.0
18.232	9.0
18.247	4.0
18.262	14.0
18.276	6.0
18.291	5.0
18.306	13.0
18.321	12.0
18.336	21.0
18.35	14.0
18.365	9.0
18.38	9.0
18.395	6.0
18.41	13.0
18.424	11.0
18.439	10.0
18.454	8.0
18.469	11.0
18.484	16.0
18.498	11.0
18.513	15.0
18.528	17.0
18.543	8.0
18.558	12.0
18.573	8.0
18.587	9.0
18.602	10.0
18.617	12.0
18.632	13.0
18.647	17.0
18.661	9.0
18.676	11.0
18.691	10.0
18.706	10.0
18.721	8.0
18.736	11.0
18.75	10.0
18.765	10.0
18.78	8.0
18.795	13.0
18.81	12.0
18.825	11.0
18.839	18.0
18.854	9.0
18.869	7.0
18.884	8.0
18.899	9.0
18.913	12.0
18.928	19.0
18.943	8.0
18.958	8.0
18.973	8.0
18.988	12.0
19.002	13.0
19.017	13.0
19.032	8.0
19.047	9.0
19.062	10.0
19.077	15.0
19.091	8.0
19.106	12.0
19.121	12.0
19.136	11.0
19.151	8.0
19.165	12.0
19.18	15.0
19.195	15.0
19.21	13.0
19.225	9.0
19.24	14.0
19.254	9.0
19.269	11.0
19.284	14.0
19.299	9.0
19.314	11.0
19.329	17.0
19.343	16.0
19.358	20.0
19.373	12.0
19.388	15.0
19.403	15.0
19.417	19.0
19.432	15.0
19.447	29.0
19.462	14.0
19.477	23.0
19.492	36.0
19.506	20.0
19.521	41.0
19.536	31.0
19.551	27.0
19.566	35.0
19.58	40.0
19.595	43.0
19.61	35.0
19.625	41.0
19.64	31.0
19.655	41.0
19.669	26.0
19.684	34.0
19.699	26.0
19.714	29.0
19.729	22.0
19.743	29.0
19.758	25.0
19.773	17.0
19.788	18.0
19.803	20.0
19.817	17.0
19.832	14.0
19.847	10.0
19.862	9.0
19.877	14.0
19.891	8.0
19.906	14.0
19.921	11.0
19.936	19.0
19.951	19.0
19.965	10.0
19.98	12.0
19.995	12.0
20.01	18.0
20.025	7.0
20.039	12.0
20.054	18.0
20.069	17.0
20.084	9.0
20.099	11.0
20.113	7.0
20.128	13.0
20.143	19.0
20.158	13.0
20.173	11.0
20.187	14.0
20.202	9.0
20.217	9.0
20.232	8.0
20.246	15.0
20.261	7.0
20.276	17.0
20.291	8.0
20.306	6.0
20.32	12.0
20.335	12.0
20.35	10.0
20.365	5.0
20.38	13.0
20.394	8.0
20.409	8.0
20.424	10.0
20.439	8.0
20.453	11.0
20.468	9.0
20.483	11.0
20.498	3.0
20.513	5.0
20.527	14.0
20.542	16.0
20.557	10.0
20.572	13.0
20.586	15.0
20.601	15.0
20.616	8.0
20.631	12.0
20.646	13.0
20.66	16.0
20.675	16.0
20.69	10.0
20.705	12.0
20.719	10.0
20.734	9.0
20.749	14.0
20.764	11.0
20.779	7.0
20.793	8.0
20.808	12.0
20.823	13.0
20.838	10.0
20.853	9.0
20.867	14.0
20.882	10.0
20.897	13.0
20.912	6.0
20.926	11.0
20.941	12.0
20.956	8.0
20.971	13.0
20.986	12.0
21.0	14.0
21.015	10.0
21.03	6.0
21.045	11.0
21.06	10.0
21.074	9.0
21.089	10.0
21.104	6.0
21.119	11.0
21.134	9.0
21.148	5.0
21.163	8.0
21.178	13.0
21.193	18.0
21.208	9.0
21.222	15.0
21.237	12.0
21.252	16.0
21.267	12.0
21.282	10.0
21.296	14.0
21.311	15.0
21.326	11.0
21.341	10.0
21.356	8.0
21.37	16.0
21.385	17.0
21.4	9.0
21.415	8.0
21.43	16.0
21.444	12.0
21.459	12.0
21.474	15.0
21.489	13.0
21.504	7.0
21.519	18.0
21.533	11.0
21.548	12.0
21.563	10.0
21.578	13.0
21.593	14.0
21.608	17.0
21.622	14.0
21.637	20.0
21.652	10.0
21.667	12.0
21.682	23.0
21.697	11.0
21.712	16.0
21.726	22.0
21.741	26.0
21.756	26.0
21.771	30.0
21.786	33.0
21.801	33.0
21.816	40.0
21.83	48.0
21.845	33.0
21.86	77.0
21.875	54.0
21.89	61.0
21.905	60.0
21.92	74.0
21.935	76.0
21.949	74.0
21.964	95.0
21.979	88.0
21.994	68.0
22.009	77.0
22.024	61.0
22.039	62.0
22.054	48.0
22.069	49.0
22.083	41.0
22.098	45.0
22.113	39.0
22.128	35.0
22.143	24.0
22.158	28.0
22.173	23.0
22.188	17.0
22.203	15.0
22.218	11.0
22.233	14.0
22.248	16.0
22.262	12.0
22.277	17.0
22.292	19.0
22.307	9.0
22.322	18.0
22.337	13.0
22.352	6.0
22.367	12.0
22.382	13.0
22.397	11.0
22.412	9.0
22.427	14.0
22.442	15.0
22.457	10.0
22.472	10.0
22.487	16.0
22.502	12.0
22.516	14.0
22.531	7.0
22.546	7.0
22.561	12.0
22.576	14.0
22.591	4.0
22.606	12.0
22.621	15.0
22.636	19.0
22.651	13.0
22.666	6.0
22.681	11.0
22.696	10.0
22.711	11.0
22.726	7.0
22.741	6.0
22.756	11.0
22.771	16.0
22.786	9.0
22.801	5.0
22.816	7.0
22.831	6.0
22.846	9.0
22.861	10.0
22.876	14.0
22.891	10.0
22.906	9.0
22.92	9.0
22.935	6.0
22.95	4.0
22.965	11.0
22.98	8.0
22.995	14.0
23.01	13.0
23.025	4.0
23.04	12.0
23.055	4.0
23.07	6.0
23.085	11.0
23.1	8.0
23.115	7.0
23.13	6.0
23.145	8.0
23.16	10.0
23.175	8.0
23.19	10.0
23.205	11.0
23.22	8.0
23.235	9.0
23.25	14.0
23.265	10.0
23.28	13.0
23.295	11.0
23.31	9.0
23.325	12.0
23.34	8.0
23.355	8.0
23.37	9.0
23.384	12.0
23.399	7.0
23.414	7.0
23.429	10.0
23.444	8.0
23.459	13.0
23.474	6.0
23.489	9.0
23.504	13.0
23.519	12.0
23.534	13.0
23.549	10.0
23.564	9.0
23.579	11.0
23.594	7.0
23.609	9.0
23.624	12.0
23.639	5.0
23.654	15.0
23.668	13.0
23.683	12.0
23.698	19.0
23.713	13.0
23.728	12.0
23.743	13.0
23.758	13.0
23.773	8.0
23.788	17.0
23.803	11.0
23.818	18.0
23.833	13.0
23.848	14.0
23.862	23.0
23.877	15.0
23.892	23.0
23.907	31.0
23.922	17.0
23.937	20.0
23.952	25.0
23.967	28.0
23.982	37.0
23.997	33.0
24.011	44.0
24.026	24.0
24.041	41.0
24.056	49.0
24.071	40.0
24.086	53.0
24.101	43.0
24.116	39.0
24.131	42.0
24.145	45.0
24.16	38.0
24.175	31.0
24.19	30.0
24.205	30.0
24.22	25.0
24.235	32.0
24.249	22.0
24.264	21.0
24.279	24.0
24.294	22.0
24.309	17.0
24.324	20.0
24.338	20.0
24.353	18.0
24.368	10.0
24.383	12.0
24.398	18.0
24.413	12.0
24.428	14.0
24.442	13.0
24.457	7.0
24.472	9.0
24.487	15.0
24.502	8.0
24.516	11.0
24.531	9.0
24.546	10.0
24.561	11.0
24.576	10.0
24.591	6.0
24.605	10.0
24.62	11.0
24.635	11.0
24.65	13.0
24.665	8.0
24.679	5.0
24.694	10.0
24.709	12.0
24.724	10.0
24.739	12.0
24.753	9.0
24.768	12.0
24.783	12.0
24.798	7.0
24.813	12.0
24.827	11.0
24.842	8.0
24.857	14.0
24.872	14.0
24.886	9.0
24.901	10.0
24.916	7.0
24.931	8.0
24.946	7.0
24.96	10.0
24.975	7.0
24.99	6.0
25.005	12.0
25.019	7.0
25.034	10.0
25.049	12.0
25.064	8.0
25.078	7.0
25.093	10.0
25.108	11.0
25.123	3.0
25.138	7.0
25.152	7.0
25.167	7.0
25.182	10.0
25.197	5.0
25.211	12.0
25.226	8.0
25.241	15.0
25.256	9.0
25.27	6.0
25.285	9.0
25.3	12.0
25.315	10.0
25.329	13.0
25.344	7.0
25.359	6.0
25.374	14.0
25.388	11.0
25.403	11.0
25.418	9.0
25.433	8.0
25.447	5.0
25.462	14.0
25.477	5.0
25.492	9.0
25.506	9.0
25.521	3.0
25.536	11.0
25.55	6.0
25.565	11.0
25.58	10.0
25.595	13.0
25.609	6.0
25.624	5.0
25.639	7.0
25.654	9.0
25.668	7.0
25.683	9.0
25.698	7.0
25.713	14.0
25.727	11.0
25.742	6.0
25.757	13.0
25.772	12.0
25.786	9.0
25.801	9.0
25.816	7.0
25.83	9.0
25.845	6.0
25.86	7.0
25.875	6.0
25.889	14.0
25.904	10.0
25.919	8.0
25.934	9.0
25.948	11.0
25.963	11.0
25.978	8.0
25.992	9.0
26.007	9.0
26.022	8.0
26.037	10.0
26.051	14.0
26.066	10.0
26.081	4.0
26.096	4.0
26.11	10.0
26.125	12.0
26.14	4.0
26.155	15.0
26.169	11.0
26.184	10.0
26.199	6.0
26.213	3.0
26.228	13.0
26.243	10.0
26.258	8.0
26.272	11.0
26.287	6.0
26.302	11.0
26.317	8.0
26.331	3.0
26.346	11.0
26.361	13.0
26.376	7.0
26.39	10.0
26.405	10.0
26.42	6.0
26.434	14.0
26.449	13.0
26.464	9.0
26.479	11.0
26.493	11.0
26.508	8.0
26.523	9.0
26.538	6.0
26.552	10.0
26.567	9.0
26.582	6.0
26.597	10.0
26.611	6.0
26.626	11.0
26.641	8.0
26.656	7.0
26.67	10.0
26.685	15.0
26.7	14.0
26.715	10.0
26.729	8.0
26.744	9.0
26.759	8.0
26.773	17.0
26.788	5.0
26.803	10.0
26.818	8.0
26.832	4.0
26.847	9.0
26.862	15.0
26.877	12.0
26.891	7.0
26.906	6.0
26.921	9.0
26.936	2.0
26.95	13.0
26.965	15.0
26.98	4.0
26.995	8.0
27.01	8.0
27.024	11.0
27.039	7.0
27.054	8.0
27.069	9.0
27.083	10.0
27.098	4.0
27.113	8.0
27.128	6.0
27.142	6.0
27.157	9.0
27.172	7.0
27.187	9.0
27.201	5.0
27.216	15.0
27.231	10.0
27.246	13.0
27.261	7.0
27.275	7.0
27.29	5.0
27.305	6.0
27.32	10.0
27.334	5.0
27.349	9.0
27.364	6.0
27.379	10.0
27.394	13.0
27.408	14.0
27.423	11.0
27.438	7.0
27.453	9.0
27.467	9.0
27.482	9.0
27.497	3.0
27.512	11.0
27.527	12.0
27.541	13.0
27.556	4.0
27.571	15.0
27.586	8.0
27.601	10.0
27.615	18.0
27.63	8.0
27.645	9.0
27.66	11.0
27.675	14.0
27.689	9.0
27.704	12.0
27.719	9.0
27.734	9.0
27.749	12.0
27.763	12.0
27.778	9.0
27.793	19.0
27.808	20.0
27.823	23.0
27.838	25.0
27.852	25.0
27.867	22.0
27.882	21.0
27.897	20.0
27.912	32.0
27.926	24.0
27.941	25.0
27.956	23.0
27.971	14.0
27.986	23.0
28.001	24.0
28.015	8.0
28.03	15.0
28.045	13.0
28.06	12.0
28.075	15.0
28.09	8.0
28.105	18.0
28.119	11.0
28.134	14.0
28.149	6.0
28.164	7.0
28.179	14.0
28.194	17.0
28.208	11.0
28.223	11.0
28.238	10.0
28.253	15.0
28.268	12.0
28.283	14.0
28.298	10.0
28.312	15.0
28.327	15.0
28.342	10.0
28.357	12.0
28.372	10.0
28.387	11.0
28.402	12.0
28.417	13.0
28.431	9.0
28.446	12.0
28.461	11.0
28.476	12.0
28.491	11.0
28.506	14.0
28.521	11.0
28.536	16.0
28.55	9.0
28.565	12.0
28.58	11.0
28.595	9.0
28.61	10.0
28.625	9.0
28.64	9.0
28.655	11.0
28.669	10.0
28.684	12.0
28.699	13.0
28.714	6.0
28.729	9.0
28.744	9.0
28.759	9.0
28.774	9.0
28.788	9.0
28.803	11.0
28.818	4.0
28.833	15.0
28.848	2.0
28.863	8.0
28.878	8.0
28.893	11.0
28.908	7.0
28.922	12.0
28.937	14.0
28.952	7.0
28.967	11.0
28.982	7.0
28.997	13.0
29.012	16.0
29.027	7.0
29.041	11.0
29.056	7.0
29.071	11.0
29.086	15.0
29.101	5.0
29.116	11.0
29.131	5.0
29.146	11.0
29.16	7.0
29.175	9.0
29.19	10.0
29.205	6.0
29.22	11.0
29.235	12.0
29.25	15.0
29.265	7.0
29.279	13.0
29.294	15.0
29.309	16.0
29.324	9.0
29.339	10.0
29.354	14.0
29.369	13.0
29.384	11.0
29.398	19.0
29.413	19.0
29.428	15.0
29.443	9.0
29.458	21.0
29.473	22.0
29.488	33.0
29.502	28.0
29.517	26.0
29.532	31.0
29.547	33.0
29.562	42.0
29.577	55.0
29.592	54.0
29.606	40.0
29.621	40.0
29.636	43.0
29.651	52.0
29.666	44.0
29.681	34.0
29.695	22.0
29.71	36.0
29.725	29.0
29.74	26.0
29.755	33.0
29.77	31.0
29.784	29.0
29.799	25.0
29.814	26.0
29.829	28.0
29.844	24.0
29.859	18.0
29.873	22.0
29.888	19.0
29.903	17.0
29.918	17.0
29.933	10.0
29.947	10.0
29.962	9.0
29.977	10.0
29.992	10.0
30.007	11.0
30.021	9.0
30.036	7.0
30.051	12.0
30.066	7.0
30.081	10.0
30.095	12.0
30.11	7.0
30.125	10.0
30.14	13.0
30.155	4.0
30.169	11.0
30.184	12.0
30.199	10.0
30.214	12.0
30.228	10.0
30.243	11.0
30.258	7.0
30.273	14.0
30.288	14.0
30.302	12.0
30.317	10.0
30.332	10.0
30.347	17.0
30.361	7.0
30.376	17.0
30.391	4.0
30.406	11.0
30.42	15.0
30.435	5.0
30.45	10.0
30.465	13.0
30.479	11.0
30.494	13.0
30.509	13.0
30.524	12.0
30.538	17.0
30.553	10.0
30.568	3.0
30.583	10.0
30.597	6.0
30.612	10.0
30.627	8.0
30.641	13.0
30.656	17.0
30.671	5.0
30.686	13.0
30.7	10.0
30.715	9.0
30.73	6.0
30.745	13.0
30.759	14.0
30.774	11.0
30.789	18.0
30.803	9.0
30.818	10.0
30.833	12.0
30.848	17.0
30.862	13.0
30.877	10.0
30.892	7.0
30.906	11.0
30.921	13.0
30.936	6.0
30.951	13.0
30.965	15.0
30.98	12.0
30.995	10.0
31.009	11.0
31.024	10.0
31.039	9.0
31.053	14.0
31.068	17.0
31.083	21.0
31.098	10.0
31.112	9.0
31.127	20.0
31.142	18.0
31.156	16.0
31.171	33.0
31.186	27.0
31.2	36.0
31.215	20.0
31.23	34.0
31.245	34.0
31.259	44.0
31.274	44.0
31.289	39.0
31.303	23.0
31.318	28.0
31.333	26.0
31.347	23.0
31.362	24.0
31.377	29.0
31.392	28.0
31.406	28.0
31.421	26.0
31.436	18.0
31.45	18.0
31.465	20.0
31.48	16.0
31.494	21.0
31.509	22.0
31.524	24.0
31.538	22.0
31.553	12.0
31.568	18.0
31.583	8.0
31.597	12.0
31.612	13.0
31.627	9.0
31.641	13.0
31.656	13.0
31.671	8.0
31.685	12.0
31.7	9.0
31.715	15.0
31.729	11.0
31.744	8.0
31.759	11.0
31.774	11.0
31.788	6.0
31.803	7.0
31.818	16.0
31.832	9.0
31.847	17.0
31.862	12.0
31.876	14.0
31.891	14.0
31.906	7.0
31.92	10.0
31.935	19.0
31.95	15.0
31.965	5.0
31.979	10.0
31.994	13.0
32.009	7.0
32.023	9.0
32.038	15.0
32.053	13.0
32.067	4.0
32.082	7.0
32.097	10.0
32.112	13.0
32.126	9.0
32.141	9.0
32.156	16.0
32.17	8.0
32.185	8.0
32.2	14.0
32.214	11.0
32.229	13.0
32.244	9.0
32.259	4.0
32.273	12.0
32.288	6.0
32.303	14.0
32.317	10.0
32.332	12.0
32.347	7.0
32.362	8.0
32.376	10.0
32.391	9.0
32.406	16.0
32.42	13.0
32.435	9.0
32.45	4.0
32.465	9.0
32.479	12.0
32.494	6.0
32.509	8.0
32.523	12.0
32.538	12.0
32.553	24.0
32.568	8.0
32.582	10.0
32.597	7.0
32.612	18.0
32.627	8.0
32.641	11.0
32.656	10.0
32.671	16.0
32.685	15.0
32.7	16.0
32.715	10.0
32.73	20.0
32.744	22.0
32.759	24.0
32.774	22.0
32.788	19.0
32.803	26.0
32.818	23.0
32.833	20.0
32.847	23.0
32.862	20.0
32.877	26.0
32.892	24.0
32.906	27.0
32.921	16.0
32.936	24.0
32.951	15.0
32.965	19.0
32.98	17.0
32.995	21.0
33.009	20.0
33.024	14.0
33.039	17.0
33.054	26.0
33.068	17.0
33.083	17.0
33.098	11.0
33.113	16.0
33.127	12.0
33.142	15.0
33.157	17.0
33.172	15.0
33.186	12.0
33.201	12.0
33.216	12.0
33.231	10.0
33.245	11.0
33.26	11.0
33.275	8.0
33.29	7.0
33.304	8.0
33.319	7.0
33.334	10.0
33.349	6.0
33.363	9.0
33.378	6.0
33.393	10.0
33.408	9.0
33.422	4.0
33.437	4.0
33.452	15.0
33.467	9.0
33.481	9.0
33.496	6.0
33.511	11.0
33.526	7.0
33.54	10.0
33.555	10.0
33.57	10.0
33.585	9.0
33.599	5.0
33.614	9.0
33.629	4.0
33.644	7.0
33.658	15.0
33.673	13.0
33.688	12.0
33.703	6.0
33.718	6.0
33.732	6.0
33.747	6.0
33.762	10.0
33.777	13.0
33.791	7.0
33.806	5.0
33.821	5.0
33.836	9.0
33.85	17.0
33.865	7.0
33.88	10.0
33.895	11.0
33.91	4.0
33.924	8.0
33.939	16.0
33.954	7.0
33.969	10.0
33.983	12.0
33.998	7.0
34.013	9.0
34.028	11.0
34.042	13.0
34.057	7.0
34.072	7.0
34.087	11.0
34.102	9.0
34.116	9.0
34.131	11.0
34.146	12.0
34.161	14.0
34.175	13.0
34.19	13.0
34.205	10.0
34.22	10.0
34.235	16.0
34.249	8.0
34.264	15.0
34.279	11.0
34.294	10.0
34.309	10.0
34.323	10.0
34.338	17.0
34.353	19.0
34.368	13.0
34.382	9.0
34.397	17.0
34.412	12.0
34.427	12.0
34.442	10.0
34.456	9.0
34.471	16.0
34.486	10.0
34.501	10.0
34.516	6.0
34.53	20.0
34.545	11.0
34.56	14.0
34.575	6.0
34.59	8.0
34.604	9.0
34.619	9.0
34.634	7.0
34.649	9.0
34.664	6.0
34.678	9.0
34.693	9.0
34.708	12.0
34.723	9.0
34.738	8.0
34.752	8.0
34.767	12.0
34.782	10.0
34.797	7.0
34.812	11.0
34.826	6.0
34.841	6.0
34.856	7.0
34.871	8.0
34.886	8.0
34.9	9.0
34.915	9.0
34.93	11.0
34.945	10.0
34.96	9.0
34.974	6.0
34.989	5.0
35.004	8.0
35.019	10.0
35.034	11.0
35.048	3.0
35.063	6.0
35.078	15.0
35.093	6.0
35.108	4.0
35.122	13.0
35.137	12.0
35.152	6.0
35.167	3.0
35.182	9.0
35.196	4.0
35.211	10.0
35.226	11.0
35.241	6.0
35.256	7.0
35.27	6.0
35.285	7.0
35.3	12.0
35.315	9.0
35.33	8.0
35.344	4.0
35.359	6.0
35.374	8.0
35.389	7.0
35.404	15.0
35.418	14.0
35.433	8.0
35.448	9.0
35.463	11.0
35.478	7.0
35.493	10.0
35.507	9.0
35.522	9.0
35.537	9.0
35.552	7.0
35.567	12.0
35.581	6.0
35.596	14.0
35.611	11.0
35.626	7.0
35.641	9.0
35.655	15.0
35.67	16.0
35.685	16.0
35.7	18.0
35.715	13.0
35.729	15.0
35.744	17.0
35.759	26.0
35.774	10.0
35.789	22.0
35.804	21.0
35.818	21.0
35.833	12.0
35.848	16.0
35.863	19.0
35.878	11.0
35.892	14.0
35.907	8.0
35.922	11.0
35.937	11.0
35.952	17.0
35.966	15.0
35.981	14.0
35.996	16.0
36.011	11.0
36.026	9.0
36.04	11.0
36.055	6.0
36.07	3.0
36.085	9.0
36.1	8.0
36.114	11.0
36.129	11.0
36.144	9.0
36.159	10.0
36.174	7.0
36.189	11.0
36.203	7.0
36.218	6.0
36.233	11.0
36.248	12.0
36.263	8.0
36.277	12.0
36.292	9.0
36.307	10.0
36.322	13.0
36.337	7.0
36.351	5.0
36.366	7.0
36.381	4.0
36.396	6.0
36.411	6.0
36.426	10.0
36.44	9.0
36.455	3.0
36.47	6.0
36.485	10.0
36.5	9.0
36.514	6.0
36.529	7.0
36.544	7.0
36.559	8.0
36.574	5.0
36.589	3.0
36.603	11.0
36.618	6.0
36.633	9.0
36.648	11.0
36.663	13.0
36.677	8.0
36.692	9.0
36.707	9.0
36.722	9.0
36.737	10.0
36.752	7.0
36.766	11.0
36.781	9.0
36.796	9.0
36.811	10.0
36.826	10.0
36.841	5.0
36.855	6.0
36.87	7.0
36.885	5.0
36.9	5.0
36.915	8.0
36.93	8.0
36.944	5.0
36.959	12.0
36.974	8.0
36.989	11.0
37.004	10.0
37.019	23.0
37.033	8.0
37.048	10.0
37.063	16.0
37.078	10.0
37.093	21.0
37.108	25.0
37.123	20.0
37.137	23.0
37.152	19.0
37.167	16.0
37.182	23.0
37.197	19.0
37.212	18.0
37.226	25.0
37.241	21.0
37.256	22.0
37.271	20.0
37.286	19.0
37.301	27.0
37.316	17.0
37.331	16.0
37.345	22.0
37.36	15.0
37.375	15.0
37.39	20.0
37.405	23.0
37.42	18.0
37.435	18.0
37.45	13.0
37.464	9.0
37.479	11.0
37.494	12.0
37.509	2.0
37.524	6.0
37.539	9.0
37.554	9.0
37.569	12.0
37.583	7.0
37.598	4.0
37.613	9.0
37.628	4.0
37.643	4.0
37.658	8.0
37.673	7.0
37.688	11.0
37.703	7.0
37.718	7.0
37.733	7.0
37.747	6.0
37.762	9.0
37.777	5.0
37.792	6.0
37.807	3.0
37.822	4.0
37.837	6.0
37.852	3.0
37.867	10.0
37.882	7.0
37.897	7.0
37.912	8.0
37.927	8.0
37.941	8.0
37.956	6.0
37.971	5.0
37.986	3.0
38.001	7.0
38.016	5.0
38.031	3.0
38.046	7.0
38.061	10.0
38.076	11.0
38.091	7.0
38.106	4.0
38.121	9.0
38.136	5.0
38.151	4.0
38.166	3.0
38.181	5.0
38.196	3.0
38.211	3.0
38.226	7.0
38.241	6.0
38.256	7.0
38.271	3.0
38.285	5.0
38.3	6.0
38.315	9.0
38.33	5.0
38.345	5.0
38.36	6.0
38.375	2.0
38.39	9.0
38.405	6.0
38.42	7.0
38.435	9.0
38.45	4.0
38.465	8.0
38.48	7.0
38.495	5.0
38.51	7.0
38.525	5.0
38.54	4.0
38.555	9.0
38.57	3.0
38.585	2.0
38.6	3.0
38.615	11.0
38.63	6.0
38.645	12.0
38.66	4.0
38.675	6.0
38.69	4.0
38.705	9.0
38.72	9.0
38.735	7.0
38.75	8.0
38.765	5.0
38.78	7.0
38.795	6.0
38.81	1.0
38.825	5.0
38.84	7.0
38.855	3.0
38.87	3.0
38.885	7.0
38.9	5.0
38.915	7.0
38.93	5.0
38.945	3.0
38.96	6.0
38.975	11.0
38.99	3.0
39.005	10.0
39.02	8.0
39.035	4.0
39.05	2.0
39.065	5.0
39.08	3.0
39.095	3.0
39.11	2.0
39.125	6.0
39.14	2.0
39.155	3.0
39.17	6.0
39.185	10.0
39.2	7.0
39.215	5.0
39.23	1.0
39.245	4.0
39.26	6.0
39.275	4.0
39.29	7.0
39.305	6.0
39.32	7.0
39.335	3.0
39.35	3.0
39.365	3.0
39.38	6.0
39.395	8.0
39.409	2.0
39.424	6.0
39.439	4.0
39.454	12.0
39.469	4.0
39.484	10.0
39.499	4.0
39.514	7.0
39.529	6.0
39.544	4.0
39.559	2.0
39.574	7.0
39.589	0.0
39.604	5.0
39.619	4.0
39.634	6.0
39.649	6.0
39.664	9.0
39.678	6.0
39.693	6.0
39.708	8.0
39.723	6.0
39.738	8.0
39.753	4.0
39.768	6.0
39.783	7.0
39.798	11.0
39.813	4.0
39.827	4.0
39.842	12.0
39.857	11.0
39.872	11.0
39.887	11.0
39.902	9.0
39.917	11.0
39.932	13.0
39.947	7.0
39.961	4.0
39.976	5.0
39.991	6.0
40.006	5.0
40.021	5.0
40.036	2.0
40.051	5.0
40.065	8.0
40.08	7.0
40.095	7.0
40.11	6.0
40.125	16.0
40.14	5.0
40.154	9.0
40.169	7.0
40.184	4.0
40.199	6.0
40.214	7.0
40.228	6.0
40.243	3.0
40.258	2.0
40.273	8.0
40.288	5.0
40.302	11.0
40.317	5.0
40.332	6.0
40.347	7.0
40.362	2.0
40.376	8.0
40.391	2.0
40.406	6.0
40.421	6.0
40.436	6.0
40.45	2.0
40.465	4.0
40.48	4.0
40.495	7.0
40.509	6.0
40.524	6.0
40.539	5.0
40.554	5.0
40.568	3.0
40.583	9.0
40.598	5.0
40.613	8.0
40.627	4.0
40.642	1.0
40.657	6.0
40.672	6.0
40.686	5.0
40.701	3.0
40.716	4.0
40.731	4.0
40.745	4.0
40.76	5.0
40.775	6.0
40.79	9.0
40.804	4.0
40.819	2.0
40.834	5.0
40.849	5.0
40.863	3.0
40.878	3.0
40.893	3.0
40.907	4.0
40.922	4.0
40.937	6.0
40.952	6.0
40.966	12.0
40.981	9.0
40.996	9.0
41.011	9.0
41.025	9.0
41.04	17.0
41.055	13.0
41.069	16.0
41.084	7.0
41.099	15.0
41.114	14.0
41.128	17.0
41.143	11.0
41.158	17.0
41.173	18.0
41.187	15.0
41.202	16.0
41.217	14.0
41.231	17.0
41.246	16.0
41.261	10.0
41.276	11.0
41.29	9.0
41.305	12.0
41.32	11.0
41.335	12.0
41.349	11.0
41.364	12.0
41.379	9.0
41.393	18.0
41.408	20.0
41.423	12.0
41.438	20.0
41.452	4.0
41.467	8.0
41.482	11.0
41.497	11.0
41.511	9.0
41.526	10.0
41.541	12.0
41.556	4.0
41.57	7.0
41.585	6.0
41.6	6.0
41.615	5.0
41.629	4.0
41.644	5.0
41.659	4.0
41.674	4.0
41.688	1.0
41.703	10.0
41.718	4.0
41.733	7.0
41.747	2.0
41.762	8.0
41.777	11.0
41.792	5.0
41.806	8.0
41.821	2.0
41.836	9.0
41.851	8.0
41.866	6.0
41.88	6.0
41.895	4.0
41.91	3.0
41.925	5.0
41.939	2.0
41.954	6.0
41.969	3.0
41.984	5.0
41.999	3.0
42.013	3.0
42.028	9.0
42.043	8.0
42.058	3.0
42.073	6.0
42.088	8.0
42.102	2.0
42.117	2.0
42.132	8.0
42.147	9.0
42.162	12.0
42.176	6.0
42.191	7.0
42.206	6.0
42.221	4.0
42.236	9.0
42.251	12.0
42.266	6.0
42.28	12.0
42.295	13.0
42.31	8.0
42.325	9.0
42.34	15.0
42.355	16.0
42.369	12.0
42.384	19.0
42.399	14.0
42.414	19.0
42.429	21.0
42.444	17.0
42.459	12.0
42.474	15.0
42.488	9.0
42.503	7.0
42.518	8.0
42.533	10.0
42.548	15.0
42.563	10.0
42.578	7.0
42.593	14.0
42.608	10.0
42.622	6.0
42.637	11.0
42.652	13.0
42.667	10.0
42.682	10.0
42.697	12.0
42.712	11.0
42.727	11.0
42.742	10.0
42.757	5.0
42.772	8.0
42.786	10.0
42.801	7.0
42.816	5.0
42.831	5.0
42.846	5.0
42.861	6.0
42.876	10.0
42.891	7.0
42.906	6.0
42.921	2.0
42.936	5.0
42.951	6.0
42.966	8.0
42.981	2.0
42.996	3.0
43.011	6.0
43.025	3.0
43.04	3.0
43.055	8.0
43.07	9.0
43.085	4.0
43.1	1.0
43.115	9.0
43.13	2.0
43.145	8.0
43.16	7.0
43.175	5.0
43.19	4.0
43.205	3.0
43.22	5.0
43.235	3.0
43.25	2.0
43.265	5.0
43.28	8.0
43.295	4.0
43.31	3.0
43.325	5.0
43.34	8.0
43.355	4.0
43.37	4.0
43.385	3.0
43.4	6.0
43.415	3.0
43.43	6.0
43.445	4.0
43.46	7.0
43.475	6.0
43.49	9.0
43.505	9.0
43.52	4.0
43.535	9.0
43.55	13.0
43.565	11.0
43.58	7.0
43.595	13.0
43.61	12.0
43.625	9.0
43.64	9.0
43.655	8.0
43.67	7.0
43.685	11.0
43.7	10.0
43.715	5.0
43.73	9.0
43.745	5.0
43.76	4.0
43.775	4.0
43.79	3.0
43.805	12.0
43.82	8.0
43.835	10.0
43.85	6.0
43.865	10.0
43.88	14.0
43.895	6.0
43.91	5.0
43.925	7.0
43.94	10.0
43.955	7.0
43.97	7.0
43.985	6.0
44.0	4.0
44.015	6.0
44.03	2.0
44.045	3.0
44.061	10.0
44.076	4.0
44.091	6.0
44.106	4.0
44.121	2.0
44.136	6.0
44.151	3.0
44.166	4.0
44.181	8.0
44.196	7.0
44.211	2.0
44.226	5.0
44.241	5.0
44.256	7.0
44.271	3.0
44.286	8.0
44.301	3.0
44.316	3.0
44.331	3.0
44.346	3.0
44.361	3.0
44.377	6.0
44.392	4.0
44.407	7.0
44.422	5.0
44.437	4.0
44.452	8.0
44.467	9.0
44.482	7.0
44.497	8.0
44.512	6.0
44.527	4.0
44.542	9.0
44.557	3.0
44.572	1.0
44.587	7.0
44.602	4.0
44.617	9.0
44.632	7.0
44.647	4.0
44.663	5.0
44.678	7.0
44.693	9.0
44.708	3.0
44.723	10.0
44.738	3.0
44.753	12.0
44.768	7.0
44.783	12.0
44.798	10.0
44.813	11.0
44.828	12.0
44.843	9.0
44.858	6.0
44.873	9.0
44.888	7.0
44.903	5.0
44.918	4.0
44.933	9.0
44.948	5.0
44.964	5.0
44.979	7.0
44.994	8.0
45.009	10.0
45.024	8.0
45.039	7.0
45.054	7.0
45.069	9.0
45.084	12.0
45.099	12.0
45.114	7.0
45.129	4.0
45.144	7.0
45.159	7.0
45.174	9.0
45.189	6.0
45.204	7.0
45.219	4.0
45.234	8.0
45.249	5.0
45.264	4.0
45.279	4.0
45.294	4.0
45.309	4.0
45.324	3.0
45.339	4.0
45.354	2.0
45.369	5.0
45.384	6.0
45.399	3.0
45.414	1.0
45.429	3.0
45.444	3.0
45.459	4.0
45.474	1.0
45.489	5.0
45.504	6.0
45.519	6.0
45.534	6.0
45.549	1.0
45.564	4.0
45.579	9.0
45.594	6.0
45.609	6.0
45.624	4.0
45.639	4.0
45.654	4.0
45.669	5.0
45.684	6.0
45.699	6.0
45.714	3.0
45.729	6.0
45.744	5.0
45.759	5.0
45.774	7.0
45.789	13.0
45.804	6.0
45.819	5.0
45.834	11.0
45.849	8.0
45.864	3.0
45.879	5.0
45.894	4.0
45.909	10.0
45.924	18.0
45.939	11.0
45.954	13.0
45.969	14.0
45.984	17.0
45.998	18.0
46.013	21.0
46.028	17.0
46.043	16.0
46.058	8.0
46.073	11.0
46.088	12.0
46.103	10.0
46.118	8.0
46.133	5.0
46.148	7.0
46.163	10.0
46.178	6.0
46.192	13.0
46.207	12.0
46.222	9.0
46.237	9.0
46.252	17.0
46.267	14.0
46.282	11.0
46.297	8.0
46.312	12.0
46.327	11.0
46.341	8.0
46.356	10.0
46.371	4.0
46.386	7.0
46.401	5.0
46.416	6.0
46.431	7.0
46.446	7.0
46.46	3.0
46.475	1.0
46.49	7.0
46.505	6.0
46.52	4.0
46.535	9.0
46.55	2.0
46.564	4.0
46.579	4.0
46.594	5.0
46.609	1.0
46.624	2.0
46.639	2.0
46.654	4.0
46.668	3.0
46.683	3.0
46.698	3.0
46.713	8.0
46.728	6.0
46.743	7.0
46.758	7.0
46.772	5.0
46.787	8.0
46.802	5.0
46.817	6.0
46.832	6.0
46.847	4.0
46.861	2.0
46.876	4.0
46.891	5.0
46.906	5.0
46.921	4.0
46.936	10.0
46.95	3.0
46.965	11.0
46.98	6.0
46.995	5.0
47.01	7.0
47.025	6.0
47.039	12.0
47.054	7.0
47.069	9.0
47.084	12.0
47.099	4.0
47.113	8.0
47.128	5.0
47.143	5.0
47.158	5.0
47.173	11.0
47.188	4.0
47.202	10.0
47.217	3.0
47.232	11.0
47.247	7.0
47.262	4.0
47.277	5.0
47.291	5.0
47.306	5.0
47.321	6.0
47.336	4.0
47.351	8.0
47.365	3.0
47.38	6.0
47.395	4.0
47.41	8.0
47.425	8.0
47.44	7.0
47.454	7.0
47.469	4.0
47.484	7.0
47.499	6.0
47.514	9.0
47.528	9.0
47.543	7.0
47.558	6.0
47.573	8.0
47.588	6.0
47.603	4.0
47.617	5.0
47.632	8.0
47.647	6.0
47.662	7.0
47.677	6.0
47.691	9.0
47.706	5.0
47.721	7.0
47.736	7.0
47.751	5.0
47.766	4.0
47.78	4.0
47.795	4.0
47.81	3.0
47.825	2.0
47.84	4.0
47.855	3.0
47.869	5.0
47.884	8.0
47.899	2.0
47.914	4.0
47.929	3.0
47.944	2.0
47.958	1.0
47.973	1.0
47.988	3.0
48.003	4.0
48.018	7.0
48.033	6.0
48.047	5.0
48.062	5.0
48.077	6.0
48.092	2.0
48.107	2.0
48.122	5.0
48.137	3.0
48.151	3.0
48.166	5.0
48.181	3.0
48.196	5.0
48.211	6.0
48.226	4.0
48.241	5.0
48.255	3.0
48.27	6.0
48.285	6.0
48.3	7.0
48.315	6.0
48.33	2.0
48.345	4.0
48.359	2.0
48.374	3.0
48.389	5.0
48.404	6.0
48.419	3.0
48.434	3.0
48.449	4.0
48.464	6.0
48.478	5.0
48.493	6.0
48.508	6.0
48.523	2.0
48.538	6.0
48.553	3.0
48.568	2.0
48.583	9.0
48.597	5.0
48.612	9.0
48.627	3.0
48.642	4.0
48.657	3.0
48.672	6.0
48.687	1.0
48.702	3.0
48.717	3.0
48.731	4.0
48.746	3.0
48.761	5.0
48.776	4.0
48.791	2.0
48.806	7.0
48.821	2.0
48.836	4.0
48.851	5.0
48.866	3.0
48.88	2.0
48.895	4.0
48.91	5.0
48.925	4.0
48.94	9.0
48.955	6.0
48.97	2.0
48.985	7.0
49.0	3.0
49.015	6.0
49.03	4.0
49.044	3.0
49.059	7.0
49.074	4.0
49.089	3.0
49.104	4.0
49.119	7.0
49.134	3.0
49.149	0.0
49.164	2.0
49.179	4.0
49.194	7.0
49.209	5.0
49.224	6.0
49.238	10.0
49.253	3.0
49.268	5.0
49.283	8.0
49.298	6.0
49.313	4.0
49.328	9.0
49.343	6.0
49.358	4.0
49.373	9.0
49.388	10.0
49.403	7.0
49.418	10.0
49.433	9.0
49.448	9.0
49.463	6.0
49.478	6.0
49.492	4.0
49.507	4.0
49.522	9.0
49.537	7.0
49.552	4.0
49.567	5.0
49.582	4.0
49.597	2.0
49.612	8.0
49.627	7.0
49.642	12.0
49.657	7.0
49.672	2.0
49.687	8.0
49.702	5.0
49.717	5.0
49.732	4.0
49.747	7.0
49.762	5.0
49.777	2.0
49.792	3.0
49.807	8.0
49.822	5.0
49.837	2.0
49.852	6.0
49.867	6.0
49.882	7.0
49.897	7.0
49.912	1.0
49.927	8.0
49.942	6.0
49.957	5.0
49.971	6.0
49.986	5.0
50.001	5.0
50.016	1.0
50.031	3.0
50.046	4.0
50.061	7.0
50.076	5.0
50.091	5.0
50.106	3.0
50.121	3.0
50.136	5.0
50.151	4.0
50.166	4.0
50.181	6.0
50.196	5.0
50.211	4.0
50.226	5.0
50.241	6.0
50.256	4.0
50.271	1.0
50.286	6.0
50.302	7.0
50.317	2.0
50.332	5.0
50.347	2.0
50.362	4.0
50.377	7.0
50.392	11.0
50.407	10.0
50.422	8.0
50.437	8.0
50.452	8.0
50.467	5.0
50.482	4.0
50.497	4.0
50.512	9.0
50.527	3.0
50.542	8.0
50.557	5.0
50.572	8.0
50.587	5.0
50.602	7.0
50.617	6.0
50.632	5.0
50.647	5.0
50.662	6.0
50.677	5.0
50.692	6.0
50.707	5.0
50.722	3.0
50.737	6.0
50.752	7.0
50.767	4.0
50.782	7.0
50.797	5.0
50.812	5.0
50.828	3.0
50.843	5.0
50.858	6.0
50.873	7.0
50.888	2.0
50.903	6.0
50.918	3.0
50.933	8.0
50.948	4.0
50.963	0.0
50.978	7.0
50.993	9.0
51.008	4.0
51.023	4.0
51.038	4.0
51.053	2.0
51.068	6.0
51.083	4.0
51.098	5.0
51.114	5.0
51.129	4.0
51.144	5.0
51.159	5.0
51.174	4.0
51.189	3.0
51.204	2.0
51.219	6.0
51.234	4.0
51.249	5.0
51.264	4.0
51.279	2.0
51.294	2.0
51.309	8.0
51.324	4.0
51.34	5.0
51.355	5.0
51.37	5.0
51.385	8.0
51.4	5.0
51.415	7.0
51.43	10.0
51.445	4.0
51.46	16.0
51.475	14.0
51.49	22.0
51.505	11.0
51.52	10.0
51.535	19.0
51.551	15.0
51.566	14.0
51.581	16.0
51.596	11.0
51.611	8.0
51.626	11.0
51.641	8.0
51.656	6.0
51.671	3.0
51.686	6.0
51.701	6.0
51.716	3.0
51.732	9.0
51.747	7.0
51.762	8.0
51.777	8.0
51.792	12.0
51.807	8.0
51.822	8.0
51.837	10.0
51.852	13.0
51.867	12.0
51.882	13.0
51.898	13.0
51.913	10.0
51.928	8.0
51.943	7.0
51.958	5.0
51.973	5.0
51.988	2.0
52.003	7.0
52.018	5.0
52.033	7.0
52.048	6.0
52.064	2.0
52.079	5.0
52.094	8.0
52.109	3.0
52.124	8.0
52.139	2.0
52.154	7.0
52.169	5.0
52.184	5.0
52.199	5.0
52.215	9.0
52.23	3.0
52.245	11.0
52.26	8.0
52.275	6.0
52.29	8.0
52.305	3.0
52.32	3.0
52.335	3.0
52.35	7.0
52.366	2.0
52.381	2.0
52.396	3.0
52.411	1.0
52.426	4.0
52.441	6.0
52.456	6.0
52.471	7.0
52.486	8.0
52.502	8.0
52.517	6.0
52.532	6.0
52.547	7.0
52.562	8.0
52.577	9.0
52.592	14.0
52.607	9.0
52.622	10.0
52.637	10.0
52.653	10.0
52.668	11.0
52.683	7.0
52.698	11.0
52.713	5.0
52.728	3.0
52.743	8.0
52.758	7.0
52.774	5.0
52.789	4.0
52.804	5.0
52.819	4.0
52.834	7.0
52.849	8.0
52.864	7.0
52.879	5.0
52.894	5.0
52.91	8.0
52.925	1.0
52.94	10.0
52.955	6.0
52.97	9.0
52.985	6.0
53.0	7.0
53.015	5.0
53.031	4.0
53.046	6.0
53.061	3.0
53.076	2.0
53.091	5.0
53.106	3.0
53.121	2.0
53.136	3.0
53.152	6.0
53.167	7.0
53.182	2.0
53.197	4.0
53.212	3.0
53.227	6.0
53.242	6.0
53.257	10.0
53.273	7.0
53.288	5.0
53.303	4.0
53.318	1.0
53.333	3.0
53.348	4.0
53.363	4.0
53.379	5.0
53.394	2.0
53.409	1.0
53.424	3.0
53.439	4.0
53.454	7.0
53.469	4.0
53.484	4.0
53.5	6.0
53.515	1.0
53.53	9.0
53.545	6.0
53.56	5.0
53.575	4.0
53.59	3.0
53.606	7.0
53.621	6.0
53.636	10.0
53.651	6.0
53.666	5.0
53.681	3.0
53.696	3.0
53.712	1.0
53.727	4.0
53.742	7.0
53.757	2.0
53.772	1.0
53.787	4.0
53.802	4.0
53.818	3.0
53.833	2.0
53.848	3.0
53.863	5.0
53.878	3.0
53.893	4.0
53.909	6.0
53.924	4.0
53.939	7.0
53.954	1.0
53.969	3.0
53.984	4.0
53.999	7.0
54.015	6.0
54.03	6.0
54.045	3.0
54.06	4.0
54.075	4.0
54.09	5.0
54.106	5.0
54.121	3.0
54.136	2.0
54.151	3.0
54.166	3.0
54.181	6.0
54.197	3.0
54.212	7.0
54.227	4.0
54.242	7.0
54.257	5.0
54.272	4.0
54.288	4.0
54.303	6.0
54.318	3.0
54.333	7.0
54.348	4.0
54.363	5.0
54.379	3.0
54.394	3.0
54.409	5.0
54.424	3.0
54.439	4.0
54.454	7.0
54.47	9.0
54.485	6.0
54.5	6.0
54.515	6.0
54.53	4.0
54.545	6.0
54.561	5.0
54.576	6.0
54.591	9.0
54.606	5.0
54.621	10.0
54.636	9.0
54.652	20.0
54.667	4.0
54.682	13.0
54.697	9.0
54.712	8.0
54.727	5.0
54.743	7.0
54.758	7.0
54.773	3.0
54.788	10.0
54.803	3.0
54.819	4.0
54.834	5.0
54.849	2.0
54.864	3.0
54.879	6.0
54.894	6.0
54.91	1.0
54.925	1.0
54.94	9.0
54.955	8.0
54.97	3.0
54.985	7.0
55.001	7.0
55.016	5.0
55.031	8.0
55.046	7.0
55.061	3.0
55.077	5.0
55.092	10.0
55.107	4.0
55.122	6.0
55.137	7.0
55.152	5.0
55.168	9.0
55.183	7.0
55.198	4.0
55.213	6.0
55.228	3.0
55.243	3.0
55.259	6.0
55.274	2.0
55.289	2.0
55.304	4.0
55.319	7.0
55.335	4.0
55.35	9.0
55.365	5.0
55.38	5.0
55.395	3.0
55.41	4.0
55.426	8.0
55.441	3.0
55.456	1.0
55.471	7.0
55.486	2.0
55.501	7.0
55.517	7.0
55.532	6.0
55.547	8.0
55.562	4.0
55.577	4.0
55.592	10.0
55.608	3.0
55.623	6.0
55.638	7.0
55.653	2.0
55.668	8.0
55.683	6.0
55.699	6.0
55.714	8.0
55.729	9.0
55.744	1.0
55.759	5.0
55.774	9.0
55.79	9.0
55.805	9.0
55.82	4.0
55.835	2.0
55.85	6.0
55.865	6.0
55.881	3.0
55.896	6.0
55.911	8.0
55.926	2.0
55.941	4.0
55.956	4.0
55.972	3.0
55.987	8.0
56.002	4.0
56.017	4.0
56.032	5.0
56.047	6.0
56.063	6.0
56.078	5.0
56.093	7.0
56.108	4.0
56.123	4.0
56.138	4.0
56.154	2.0
56.169	2.0
56.184	6.0
56.199	1.0
56.214	3.0
56.229	2.0
56.244	6.0
56.26	2.0
56.275	7.0
56.29	6.0
56.305	2.0
56.32	3.0
56.335	2.0
56.351	1.0
56.366	8.0
56.381	4.0
56.396	2.0
56.411	0.0
56.426	0.0
56.441	3.0
56.457	4.0
56.472	4.0
56.487	8.0
56.502	3.0
56.517	11.0
56.532	6.0
56.547	2.0
56.563	2.0
56.578	5.0
56.593	6.0
56.608	3.0
56.623	5.0
56.638	3.0
56.653	2.0
56.668	2.0
56.684	4.0
56.699	3.0
56.714	3.0
56.729	5.0
56.744	1.0
56.759	2.0
56.774	4.0
56.79	4.0
56.805	5.0
56.82	2.0
56.835	8.0
56.85	3.0
56.865	2.0
56.88	6.0
56.895	3.0
56.911	3.0
56.926	2.0
56.941	4.0
56.956	2.0
56.971	3.0
56.986	3.0
57.001	3.0
57.016	4.0
57.031	1.0
57.047	3.0
57.062	7.0
57.077	2.0
57.092	4.0
57.107	5.0
57.122	4.0
57.137	5.0
57.152	5.0
57.167	5.0
57.183	4.0
57.198	1.0
57.213	6.0
57.228	4.0
57.243	4.0
57.258	2.0
57.273	3.0
57.288	3.0
57.303	4.0
57.318	4.0
57.334	2.0
57.349	6.0
57.364	3.0
57.379	8.0
57.394	4.0
57.409	2.0
57.424	4.0
57.439	2.0
57.454	3.0
57.469	1.0
57.484	2.0
57.5	4.0
57.515	4.0
57.53	2.0
57.545	5.0
57.56	5.0
57.575	4.0
57.59	8.0
57.605	4.0
57.62	4.0
57.635	4.0
57.65	10.0
57.665	7.0
57.68	5.0
57.696	8.0
57.711	4.0
57.726	6.0
57.741	5.0
57.756	3.0
57.771	4.0
57.786	4.0
57.801	4.0
57.816	2.0
57.831	8.0
57.846	3.0
57.861	2.0
57.876	2.0
57.891	3.0
57.906	5.0
57.921	4.0
57.937	1.0
57.952	3.0
57.967	4.0
57.982	9.0
57.997	7.0
58.012	8.0
58.027	5.0
58.042	5.0
58.057	6.0
58.072	7.0
58.087	4.0
58.102	3.0
58.117	4.0
58.132	4.0
58.147	4.0
58.162	5.0
58.177	6.0
58.192	2.0
58.207	8.0
58.222	3.0
58.237	1.0
58.252	2.0
58.267	6.0
58.282	10.0
58.297	5.0
58.312	4.0
58.327	1.0
58.342	5.0
58.357	4.0
58.372	3.0
58.387	9.0
58.402	3.0
58.418	1.0
58.433	7.0
58.448	5.0
58.463	7.0
58.478	2.0
58.493	4.0
58.508	6.0
58.523	3.0
58.538	5.0
58.553	7.0
58.568	1.0
58.583	4.0
58.598	6.0
58.613	12.0
58.628	14.0
58.643	7.0
58.658	11.0
58.673	14.0
58.688	9.0
58.703	8.0
58.718	3.0
58.733	8.0
58.748	3.0
58.763	5.0
58.778	6.0
58.793	2.0
58.808	5.0
58.823	3.0
58.838	6.0
58.853	3.0
58.868	3.0
58.883	3.0
58.898	4.0
58.913	6.0
58.928	4.0
58.942	4.0
58.957	5.0
58.972	2.0
58.987	10.0
59.002	9.0
59.017	11.0
59.032	9.0
59.047	11.0
59.062	5.0
59.077	7.0
59.092	10.0
59.107	1.0
59.122	4.0
59.137	10.0
59.152	3.0
59.167	4.0
59.182	6.0
59.197	6.0
59.212	6.0
59.227	5.0
59.242	4.0
59.257	4.0
59.272	6.0
59.287	5.0
59.302	2.0
59.317	3.0
59.332	7.0
59.347	2.0
59.362	5.0
59.377	4.0
59.392	3.0
59.407	5.0
59.422	6.0
59.437	5.0
59.452	7.0
59.467	3.0
59.482	7.0
59.497	5.0
59.512	4.0
59.527	1.0
59.542	9.0
59.557	6.0
59.572	8.0
59.587	4.0
59.602	9.0
59.617	9.0
59.632	7.0
59.647	9.0
59.661	8.0
59.676	7.0
59.691	2.0
59.706	10.0
59.721	8.0
59.736	5.0
59.751	2.0
59.766	2.0
59.781	5.0
59.796	6.0
59.811	8.0
59.826	4.0
59.841	3.0
59.856	3.0
59.871	3.0
59.886	5.0
59.901	2.0
59.916	3.0
59.931	2.0
59.946	4.0
59.961	6.0
59.976	7.0
59.991	4.0
60.006	6.0
60.021	4.0
60.036	10.0
60.051	5.0
60.066	5.0
60.081	7.0
60.096	5.0
60.111	2.0
60.126	5.0
60.141	4.0
60.156	5.0
60.171	1.0
60.186	3.0
60.201	4.0
60.216	3.0
60.231	3.0
60.246	1.0
60.261	8.0
60.276	4.0
60.291	4.0
60.306	5.0
60.321	2.0
60.336	2.0
60.35	4.0
60.365	5.0
60.38	4.0
60.395	5.0
60.41	4.0
60.425	4.0
60.44	1.0
60.455	5.0
60.47	7.0
60.485	7.0
60.5	2.0
60.515	3.0
60.53	2.0
60.545	2.0
60.56	6.0
60.575	5.0
60.59	10.0
60.605	10.0
60.62	2.0
60.635	9.0
60.65	9.0
60.665	4.0
60.68	7.0
60.695	2.0
60.71	3.0
60.725	4.0
60.74	4.0
60.755	5.0
60.77	4.0
60.785	3.0
60.8	4.0
60.815	3.0
60.83	6.0
60.845	0.0
60.86	4.0
60.875	7.0
60.89	3.0
60.905	2.0
60.92	5.0
60.935	3.0
60.95	7.0
60.965	8.0
60.98	5.0
60.995	4.0
61.01	3.0
61.025	8.0
61.04	5.0
61.055	0.0
61.07	7.0
61.085	5.0
61.1	4.0
61.115	8.0
61.13	3.0
61.145	0.0
61.16	4.0
61.175	5.0
61.191	3.0
61.206	1.0
61.221	3.0
61.236	3.0
61.251	2.0
61.266	2.0
61.281	7.0
61.296	7.0
61.311	11.0
61.326	5.0
61.341	2.0
61.356	5.0
61.371	2.0
61.386	4.0
61.401	4.0
61.416	3.0
61.431	4.0
61.446	3.0
61.461	5.0
61.476	7.0
61.491	8.0
61.506	9.0
61.521	7.0
61.536	4.0
61.551	7.0
61.566	14.0
61.581	5.0
61.596	2.0
61.611	4.0
61.626	9.0
61.641	4.0
61.656	3.0
61.672	6.0
61.687	3.0
61.702	8.0
61.717	4.0
61.732	2.0
61.747	8.0
61.762	3.0
61.777	7.0
61.792	4.0
61.807	2.0
61.822	6.0
61.837	4.0
61.852	1.0
61.867	4.0
61.882	5.0
61.897	4.0
61.912	1.0
61.927	2.0
61.943	2.0
61.958	7.0
61.973	2.0
61.988	2.0
62.003	4.0
62.018	4.0
62.033	3.0
62.048	8.0
62.063	5.0
62.078	6.0
62.093	3.0
62.108	2.0
62.123	3.0
62.138	5.0
62.153	6.0
62.169	6.0
62.184	5.0
62.199	5.0
62.214	8.0
62.229	1.0
62.244	3.0
62.259	3.0
62.274	3.0
62.289	2.0
62.304	3.0
62.319	5.0
62.335	4.0
62.35	3.0
62.365	6.0
62.38	2.0
62.395	8.0
62.41	1.0
62.425	5.0
62.44	4.0
62.455	5.0
62.47	4.0
62.485	1.0
62.501	6.0
62.516	7.0
62.531	4.0
62.546	3.0
62.561	2.0
62.576	5.0
62.591	4.0
62.606	3.0
62.621	4.0
62.636	2.0
62.652	6.0
62.667	6.0
62.682	8.0
62.697	7.0
62.712	2.0
62.727	4.0
62.742	1.0
62.757	1.0
62.772	4.0
62.787	5.0
62.803	6.0
62.818	4.0
62.833	5.0
62.848	6.0
62.863	3.0
62.878	5.0
62.893	5.0
62.908	2.0
62.923	3.0
62.939	2.0
62.954	2.0
62.969	4.0
62.984	6.0
62.999	5.0
63.014	6.0
63.029	4.0
63.044	2.0
63.059	1.0
63.074	2.0
63.09	2.0
63.105	3.0
63.12	6.0
63.135	4.0
63.15	1.0
63.165	6.0
63.18	4.0
63.195	3.0
63.21	1.0
63.226	3.0
63.241	4.0
63.256	2.0
63.271	6.0
63.286	1.0
63.301	6.0
63.316	3.0
63.331	5.0
63.346	7.0
63.362	5.0
63.377	12.0
63.392	9.0
63.407	4.0
63.422	7.0
63.437	9.0
63.452	5.0
63.467	7.0
63.482	8.0
63.497	0.0
63.513	7.0
63.528	3.0
63.543	9.0
63.558	6.0
63.573	5.0
63.588	4.0
63.603	1.0
63.618	4.0
63.633	3.0
63.648	3.0
63.664	4.0
63.679	3.0
63.694	6.0
63.709	6.0
63.724	3.0
63.739	0.0
63.754	3.0
63.769	4.0
63.784	5.0
63.799	10.0
63.814	4.0
63.83	3.0
63.845	7.0
63.86	4.0
63.875	4.0
63.89	6.0
63.905	2.0
63.92	6.0
63.935	3.0
63.95	7.0
63.965	2.0
63.98	4.0
63.996	1.0
64.011	1.0
64.026	6.0
64.041	5.0
64.056	1.0
64.071	2.0
64.086	4.0
64.101	2.0
64.116	1.0
64.131	1.0
64.146	1.0
64.161	5.0
64.176	4.0
64.191	1.0
64.207	5.0
64.222	7.0
64.237	8.0
64.252	4.0
64.267	1.0
64.282	6.0
64.297	4.0
64.312	4.0
64.327	3.0
64.342	7.0
64.357	3.0
64.372	3.0
64.387	4.0
64.402	9.0
64.417	4.0
64.433	10.0
64.448	4.0
64.463	2.0
64.478	6.0
64.493	4.0
64.508	3.0
64.523	1.0
64.538	6.0
64.553	3.0
64.568	2.0
64.583	6.0
64.598	5.0
64.613	4.0
64.628	7.0
64.643	0.0
64.658	5.0
64.673	2.0
64.688	6.0
64.703	2.0
64.718	6.0
64.734	4.0
64.749	3.0
64.764	3.0
64.779	5.0
64.794	5.0
64.809	3.0
64.824	4.0
64.839	2.0
64.854	7.0
64.869	1.0
64.884	5.0
64.899	6.0
64.914	1.0
64.929	5.0
64.944	3.0
64.959	5.0
64.974	4.0
64.989	4.0
65.004	2.0
65.019	4.0
65.034	6.0
65.049	4.0
65.064	2.0
65.079	4.0
65.094	6.0
65.109	4.0
65.125	4.0
65.14	3.0
65.155	2.0
65.17	4.0
65.185	5.0
65.2	4.0
65.215	10.0
65.23	3.0
65.245	5.0
65.26	3.0
65.275	2.0
65.29	4.0
65.305	1.0
65.32	2.0
65.335	6.0
65.35	7.0
65.365	4.0
65.38	3.0
65.395	1.0
65.41	0.0
65.425	6.0
65.44	1.0
65.455	4.0
65.47	5.0
65.485	8.0
65.5	4.0
65.515	4.0
65.53	3.0
65.545	2.0
65.56	3.0
65.575	3.0
65.59	3.0
65.605	4.0
65.62	3.0
65.635	6.0
65.65	5.0
65.666	3.0
65.681	5.0
65.696	2.0
65.711	4.0
65.726	6.0
65.741	3.0
65.756	3.0
65.771	3.0
65.786	3.0
65.801	2.0
65.816	5.0
65.831	4.0
65.846	5.0
65.861	6.0
65.876	5.0
65.891	1.0
65.906	5.0
65.921	2.0
65.936	5.0
65.951	4.0
65.966	3.0
65.981	0.0
65.996	2.0
66.011	5.0
66.026	8.0
66.041	4.0
66.056	3.0
66.071	1.0
66.086	13.0
66.101	5.0
66.116	5.0
66.131	6.0
66.146	4.0
66.161	13.0
66.176	5.0
66.191	6.0
66.206	9.0
66.221	5.0
66.236	8.0
66.251	11.0
66.266	6.0
66.281	4.0
66.296	9.0
66.311	5.0
66.327	2.0
66.342	4.0
66.357	3.0
66.372	2.0
66.387	4.0
66.402	9.0
66.417	3.0
66.432	6.0
66.447	5.0
66.462	3.0
66.477	3.0
66.492	2.0
66.507	2.0
66.522	1.0
66.537	5.0
66.552	3.0
66.567	2.0
66.582	7.0
66.597	7.0
66.612	2.0
66.627	6.0
66.642	7.0
66.657	8.0
66.672	6.0
66.687	5.0
66.702	5.0
66.717	5.0
66.732	3.0
66.747	4.0
66.762	4.0
66.777	4.0
66.792	2.0
66.807	3.0
66.822	2.0
66.837	4.0
66.853	2.0
66.868	6.0
66.883	2.0
66.898	5.0
66.913	5.0
66.928	4.0
66.943	2.0
66.958	0.0
66.973	11.0
66.988	1.0
67.003	4.0
67.018	3.0
67.033	2.0
67.048	3.0
67.063	6.0
67.078	11.0
67.093	10.0
67.108	5.0
67.123	4.0
67.138	9.0
67.153	4.0
67.168	3.0
67.183	6.0
67.198	3.0
67.214	4.0
67.229	6.0
67.244	2.0
67.259	3.0
67.274	1.0
67.289	3.0
67.304	7.0
67.319	2.0
67.334	5.0
67.349	3.0
67.364	6.0
67.379	3.0
67.394	3.0
67.409	3.0
67.424	4.0
67.439	5.0
67.454	2.0
67.469	2.0
67.484	2.0
67.5	5.0
67.515	3.0
67.53	2.0
67.545	0.0
67.56	7.0
67.575	6.0
67.59	3.0
67.605	4.0
67.62	3.0
67.635	1.0
67.65	7.0
67.665	3.0
67.68	4.0
67.695	2.0
67.71	6.0
67.726	0.0
67.741	4.0
67.756	3.0
67.771	5.0
67.786	1.0
67.801	4.0
67.816	2.0
67.831	2.0
67.846	4.0
67.861	3.0
67.876	2.0
67.891	5.0
67.906	3.0
67.922	1.0
67.937	6.0
67.952	1.0
67.967	0.0
67.982	6.0
67.997	2.0
68.012	0.0
68.027	6.0
68.042	5.0
68.057	3.0
68.072	2.0
68.087	4.0
68.103	3.0
68.118	5.0
68.133	1.0
68.148	4.0
68.163	0.0
68.178	4.0
68.193	5.0
68.208	1.0
68.223	4.0
68.238	4.0
68.254	8.0
68.269	1.0
68.284	4.0
68.299	3.0
68.314	0.0
68.329	3.0
68.344	2.0
68.359	4.0
68.374	1.0
68.389	6.0
68.405	2.0
68.42	2.0
68.435	1.0
68.45	3.0
68.465	3.0
68.48	2.0
68.495	3.0
68.51	5.0
68.525	2.0
68.54	5.0
68.556	5.0
68.571	1.0
68.586	2.0
68.601	0.0
68.616	4.0
68.631	2.0
68.646	7.0
68.661	1.0
68.676	3.0
68.691	0.0
68.707	3.0
68.722	4.0
68.737	2.0
68.752	6.0
68.767	2.0
68.782	5.0
68.797	3.0
68.812	3.0
68.827	4.0
68.842	3.0
68.857	3.0
68.873	4.0
68.888	6.0
68.903	1.0
68.918	3.0
68.933	3.0
68.948	7.0
68.963	4.0
68.978	8.0
68.993	5.0
69.008	4.0
69.023	4.0
69.038	7.0
69.054	4.0
69.069	4.0
69.084	5.0
69.099	9.0
69.114	1.0
69.129	2.0
69.144	4.0
69.159	4.0
69.174	4.0
69.189	5.0
69.204	3.0
69.219	6.0
69.234	6.0
69.249	1.0
69.264	2.0
69.279	2.0
69.295	3.0
69.31	2.0
69.325	4.0
69.34	5.0
69.355	3.0
69.37	5.0
69.385	6.0
69.4	6.0
69.415	1.0
69.43	3.0
69.445	4.0
69.46	3.0
69.475	3.0
69.49	5.0
69.505	5.0
69.52	2.0
69.535	3.0
69.55	5.0
69.565	5.0
69.58	1.0
69.595	4.0
69.61	3.0
69.625	3.0
69.64	0.0
69.655	2.0
69.67	5.0
69.685	4.0
69.7	2.0
69.715	3.0
69.73	5.0
69.745	8.0
69.76	3.0
69.775	7.0
69.79	3.0
69.805	1.0
69.82	6.0
69.835	6.0
69.85	7.0
69.865	4.0
69.88	5.0
69.895	9.0
69.909	2.0
69.924	3.0
69.939	2.0
69.954	2.0
69.969	3.0
69.984	1.0
69.999	3.0
70.014	2.0
70.029	4.0
70.044	4.0
70.059	4.0
70.074	2.0
70.088	2.0
70.103	2.0
70.118	5.0
70.133	3.0
70.148	5.0
70.163	4.0
70.178	1.0
70.193	5.0
70.208	4.0
70.222	1.0
70.237	8.0
70.252	2.0
70.267	5.0
70.282	1.0
70.297	2.0
70.312	5.0
70.327	1.0
70.341	10.0
70.356	2.0
70.371	4.0
70.386	3.0
70.401	2.0
70.416	7.0
70.43	7.0
70.445	4.0
70.46	2.0
70.475	4.0
70.49	1.0
70.505	5.0
70.519	7.0
70.534	3.0
70.549	7.0
70.564	7.0
70.579	2.0
70.594	6.0
70.608	4.0
70.623	2.0
70.638	7.0
70.653	5.0
70.668	3.0
70.683	7.0
70.697	7.0
70.712	6.0
70.727	5.0
70.742	7.0
70.757	8.0
70.771	3.0
70.786	3.0
70.801	5.0
70.816	3.0
70.831	4.0
70.845	3.0
70.86	3.0
70.875	5.0
70.89	3.0
70.905	2.0
70.92	10.0
70.934	3.0
70.949	3.0
70.964	3.0
70.979	4.0
70.994	4.0
71.008	3.0
71.023	6.0
71.038	3.0
71.053	3.0
71.068	7.0
71.082	6.0
71.097	2.0
71.112	4.0
71.127	2.0
71.142	4.0
71.156	6.0
71.171	3.0
71.186	2.0
71.201	4.0
71.216	7.0
71.231	7.0
71.245	5.0
71.26	4.0
71.275	4.0
71.29	4.0
71.305	2.0
71.319	2.0
71.334	3.0
71.349	4.0
71.364	7.0
71.379	3.0
71.394	6.0
71.408	5.0
71.423	4.0
71.438	4.0
71.453	4.0
71.468	3.0
71.483	1.0
71.497	5.0
71.512	2.0
71.527	4.0
71.542	8.0
71.557	3.0
71.572	5.0
71.586	7.0
71.601	7.0
71.616	1.0
71.631	4.0
71.646	2.0
71.661	1.0
71.676	1.0
71.69	2.0
71.705	4.0
71.72	4.0
71.735	6.0
71.75	1.0
71.765	4.0
71.78	4.0
71.795	1.0
71.81	1.0
71.824	1.0
71.839	2.0
71.854	5.0
71.869	4.0
71.884	7.0
71.899	0.0
71.914	4.0
71.929	4.0
71.944	6.0
71.959	3.0
71.974	6.0
71.988	9.0
72.003	7.0
72.018	5.0
72.033	1.0
72.048	0.0
72.063	2.0
72.078	0.0
72.093	2.0
72.108	4.0
72.123	3.0
72.138	2.0
72.153	2.0
72.168	3.0
72.183	1.0
72.198	6.0
72.213	1.0
72.228	1.0
72.243	4.0
72.258	2.0
72.273	7.0
72.288	2.0
72.303	4.0
72.318	5.0
72.333	4.0
72.348	2.0
72.363	1.0
72.378	7.0
72.393	3.0
72.408	6.0
72.423	5.0
72.438	5.0
72.453	3.0
72.468	3.0
72.483	4.0
72.498	2.0
72.513	5.0
72.528	7.0
72.543	7.0
72.558	6.0
72.573	6.0
72.588	1.0
72.603	2.0
72.618	3.0
72.633	6.0
72.649	6.0
72.664	3.0
72.679	3.0
72.694	4.0
72.709	5.0
72.724	6.0
72.739	3.0
72.754	3.0
72.769	2.0
72.784	2.0
72.799	6.0
72.814	4.0
72.829	5.0
72.845	2.0
72.86	6.0
72.875	2.0
72.89	4.0
72.905	3.0
72.92	2.0
72.935	5.0
72.95	5.0
72.965	2.0
72.98	3.0
72.996	6.0
73.011	2.0
73.026	5.0
73.041	3.0
73.056	0.0
73.071	5.0
73.086	1.0
73.101	1.0
73.117	3.0
73.132	3.0
73.147	2.0
73.162	1.0
73.177	2.0
73.192	2.0
73.207	4.0
73.222	2.0
73.238	3.0
73.253	9.0
73.268	1.0
73.283	4.0
73.298	1.0
73.313	3.0
73.328	2.0
73.343	5.0
73.359	4.0
73.374	3.0
73.389	3.0
73.404	9.0
73.419	3.0
73.434	0.0
73.449	4.0
73.465	1.0
73.48	2.0
73.495	4.0
73.51	5.0
73.525	2.0
73.54	6.0
73.556	4.0
73.571	6.0
73.586	3.0
73.601	3.0
73.616	3.0
73.631	5.0
73.646	1.0
73.662	3.0
73.677	4.0
73.692	3.0
73.707	3.0
73.722	4.0
73.737	3.0
73.752	1.0
73.768	3.0
73.783	1.0
73.798	0.0
73.813	2.0
73.828	3.0
73.843	2.0
73.859	5.0
73.874	5.0
73.889	5.0
73.904	4.0
73.919	2.0
73.934	4.0
73.949	1.0
73.965	3.0
73.98	1.0
73.995	6.0
74.01	2.0
74.025	5.0
74.04	3.0
74.056	3.0
74.071	3.0
74.086	3.0
74.101	1.0
74.116	2.0
74.131	7.0
74.146	6.0
74.162	5.0
74.177	7.0
74.192	5.0
74.207	3.0
74.222	2.0
74.237	5.0
74.252	4.0
74.268	8.0
74.283	4.0
74.298	7.0
74.313	6.0
74.328	2.0
74.343	0.0
74.358	3.0
74.374	5.0
74.389	1.0
74.404	4.0
74.419	5.0
74.434	4.0
74.449	2.0
74.464	1.0
74.48	2.0
74.495	1.0
74.51	3.0
74.525	3.0
74.54	1.0
74.555	6.0
74.57	5.0
74.586	8.0
74.601	3.0
74.616	5.0
74.631	1.0
74.646	2.0
74.661	5.0
74.676	3.0
74.691	3.0
74.707	5.0
74.722	2.0
74.737	7.0
74.752	3.0
74.767	6.0
74.782	3.0
74.797	9.0
74.813	1.0
74.828	0.0
74.843	3.0
74.858	4.0
74.873	2.0
74.888	6.0
74.903	3.0
74.918	4.0
74.934	2.0
74.949	4.0
74.964	10.0
74.979	4.0
74.994	4.0
75.009	8.0
75.024	4.0
75.04	3.0
75.055	6.0
75.07	4.0
75.085	4.0
75.1	6.0
75.115	3.0
75.13	5.0
75.145	9.0
75.161	5.0
75.176	4.0
75.191	7.0
75.206	3.0
75.221	2.0
75.236	3.0
75.251	3.0
75.266	1.0
75.282	4.0
75.297	1.0
75.312	6.0
75.327	3.0
75.342	4.0
75.357	6.0
75.372	2.0
75.387	2.0
75.403	4.0
75.418	7.0
75.433	3.0
75.448	2.0
75.463	5.0
75.478	1.0
75.493	3.0
75.509	5.0
75.524	3.0
75.539	5.0
75.554	1.0
75.569	3.0
75.584	6.0
75.599	4.0
75.614	4.0
75.63	2.0
75.645	1.0
75.66	3.0
75.675	5.0
75.69	2.0
75.705	6.0
75.72	4.0
75.735	1.0
75.751	4.0
75.766	3.0
75.781	5.0
75.796	3.0
75.811	3.0
75.826	3.0
75.841	2.0
75.856	2.0
75.872	4.0
75.887	5.0
75.902	3.0
75.917	5.0
75.932	3.0
75.947	3.0
75.962	2.0
75.977	3.0
75.993	1.0
76.008	3.0
76.023	3.0
76.038	3.0
76.053	1.0
76.068	4.0
76.083	3.0
76.098	5.0
76.114	7.0
76.129	3.0
76.144	3.0
76.159	1.0
76.174	3.0
76.189	3.0
76.204	2.0
76.22	1.0
76.235	2.0
76.25	5.0
76.265	4.0
76.28	4.0
76.295	2.0
76.31	4.0
76.325	5.0
76.341	1.0
76.356	4.0
76.371	2.0
76.386	1.0
76.401	2.0
76.416	3.0
76.431	2.0
76.446	1.0
76.462	3.0
76.477	5.0
76.492	3.0
76.507	2.0
76.522	1.0
76.537	4.0
76.552	2.0
76.567	1.0
76.583	0.0
76.598	2.0
76.613	3.0
76.628	2.0
76.643	2.0
76.658	5.0
76.673	4.0
76.688	5.0
76.704	1.0
76.719	4.0
76.734	1.0
76.749	5.0
76.764	5.0
76.779	0.0
76.794	7.0
76.809	5.0
76.824	4.0
76.84	1.0
76.855	3.0
76.87	3.0
76.885	1.0
76.9	5.0
76.915	3.0
76.93	4.0
76.945	3.0
76.96	2.0
76.976	2.0
76.991	1.0
77.006	7.0
77.021	7.0
77.036	2.0
77.051	0.0
77.066	6.0
77.081	4.0
77.096	5.0
77.112	1.0
77.127	2.0
77.142	2.0
77.157	6.0
77.172	2.0
77.187	2.0
77.202	2.0
77.217	2.0
77.232	4.0
77.247	6.0
77.263	3.0
77.278	4.0
77.293	2.0
77.308	2.0
77.323	5.0
77.338	2.0
77.353	5.0
77.368	3.0
77.383	2.0
77.398	4.0
77.413	2.0
77.428	7.0
77.444	1.0
77.459	3.0
77.474	3.0
77.489	6.0
77.504	3.0
77.519	5.0
77.534	7.0
77.549	2.0
77.564	7.0
77.579	4.0
77.594	4.0
77.609	4.0
77.624	4.0
77.64	4.0
77.655	8.0
77.67	3.0
77.685	4.0
77.7	4.0
77.715	1.0
77.73	4.0
77.745	3.0
77.76	3.0
77.775	0.0
77.79	7.0
77.805	3.0
77.82	1.0
77.835	5.0
77.85	2.0
77.865	4.0
77.88	3.0
77.895	2.0
77.91	4.0
77.926	5.0
77.941	5.0
77.956	3.0
77.971	5.0
77.986	5.0
78.001	1.0
78.016	2.0
78.031	2.0
78.046	3.0
78.061	2.0
78.076	7.0
78.091	10.0
78.106	4.0
78.121	6.0
78.136	6.0
78.151	1.0
78.166	8.0
78.181	4.0
78.196	5.0
78.211	6.0
78.226	2.0
78.241	2.0
78.256	1.0
78.271	2.0
78.286	1.0
78.301	3.0
78.316	4.0
78.331	3.0
78.346	4.0
78.361	4.0
78.376	2.0
78.391	0.0
78.406	2.0
78.421	2.0
78.436	3.0
78.451	5.0
78.466	5.0
78.481	4.0
78.496	2.0
78.511	1.0
78.526	1.0
78.541	4.0
78.556	5.0
78.571	2.0
78.586	3.0
78.601	2.0
78.616	3.0
78.631	2.0
78.646	1.0
78.661	4.0
78.676	2.0
78.691	0.0
78.706	1.0
78.721	1.0
78.736	2.0
78.751	1.0
78.766	3.0
78.781	4.0
78.796	3.0
78.811	4.0
78.826	7.0
78.841	4.0
78.856	2.0
78.871	3.0
78.885	8.0
78.9	4.0
78.915	4.0
78.93	2.0
78.945	1.0
78.96	3.0
78.975	4.0
78.99	3.0
79.005	2.0
79.02	2.0
79.035	3.0
79.05	6.0
79.065	1.0
79.08	2.0
79.095	1.0
79.11	5.0
79.125	2.0
79.14	3.0
79.155	1.0
79.17	0.0
79.185	4.0
79.2	3.0
79.215	4.0
79.23	6.0
79.245	1.0
79.26	1.0
79.275	0.0
79.29	6.0
79.304	4.0
79.319	1.0
79.334	6.0
79.349	5.0
79.364	1.0
79.379	0.0
79.394	5.0
79.409	6.0
79.424	4.0
79.439	1.0
79.454	3.0
79.469	4.0
79.484	5.0
79.499	3.0
79.514	1.0
79.529	2.0
79.544	2.0
79.559	5.0
79.574	4.0
79.589	3.0
79.604	1.0
79.619	2.0
79.634	2.0
79.649	4.0
79.664	5.0
79.679	1.0
79.693	6.0
79.708	0.0
79.723	4.0
79.738	3.0
79.753	3.0
79.768	1.0
79.783	3.0
79.798	3.0
79.813	1.0
79.828	3.0
79.843	5.0
79.858	6.0
79.873	2.0
79.888	3.0
79.903	2.0
79.918	8.0
79.933	2.0
79.948	5.0
79.963	3.0
79.978	4.0
79.993	4.0
80.008	5.0
80.023	6.0
80.038	7.0
80.053	3.0
80.068	3.0
80.083	3.0
80.098	4.0
80.113	5.0
80.128	3.0
80.143	6.0
80.158	1.0
80.173	3.0
80.188	4.0
80.202	7.0
80.217	4.0
80.232	5.0
80.247	3.0
80.262	3.0
80.277	2.0
80.292	1.0
80.307	2.0
80.322	2.0
80.337	3.0
80.352	3.0
80.367	1.0
80.382	0.0
80.397	3.0
80.412	1.0
80.427	5.0
80.442	2.0
80.457	1.0
80.472	3.0
80.487	4.0
80.502	3.0
80.517	5.0
80.532	3.0
80.547	2.0
80.562	3.0
80.577	4.0
80.592	2.0
80.607	1.0
80.622	1.0
80.637	3.0
80.652	4.0
80.667	4.0
80.682	3.0
80.697	5.0
80.712	3.0
80.727	1.0
80.742	6.0
80.757	3.0
80.772	4.0
80.787	5.0
80.802	3.0
80.817	2.0
80.832	5.0
80.847	6.0
80.862	1.0
80.877	3.0
80.892	2.0
80.907	3.0
80.922	7.0
80.937	7.0
80.952	1.0
80.967	0.0
80.982	2.0
80.997	3.0
81.012	4.0
81.027	5.0
81.042	4.0
81.057	5.0
81.072	5.0
81.087	4.0
81.101	4.0
81.116	3.0
81.131	5.0
81.146	1.0
81.161	2.0
81.176	5.0
81.191	1.0
81.206	4.0
81.221	2.0
81.236	3.0
81.251	2.0
81.266	3.0
81.281	2.0
81.296	4.0
81.311	4.0
81.326	0.0
81.341	5.0
81.356	5.0
81.371	4.0
81.386	3.0
81.401	5.0
81.416	4.0
81.431	7.0
81.446	0.0
81.461	2.0
81.476	2.0
81.491	5.0
81.506	3.0
81.521	7.0
81.536	3.0
81.55	1.0
81.565	3.0
81.58	5.0
81.595	2.0
81.61	3.0
81.625	2.0
81.64	3.0
81.655	3.0
81.67	3.0
81.685	4.0
81.7	4.0
81.715	3.0
81.73	6.0
81.745	2.0
81.76	3.0
81.775	2.0
81.79	4.0
81.805	5.0
81.819	3.0
81.834	5.0
81.849	8.0
81.864	1.0
81.879	1.0
81.894	6.0
81.909	3.0
81.924	1.0
81.939	4.0
81.954	4.0
81.969	5.0
81.984	5.0
81.999	5.0
82.013	1.0
82.028	0.0
82.043	3.0
82.058	1.0
82.073	1.0
82.088	2.0
82.103	3.0
82.118	2.0
82.133	1.0
82.148	2.0
82.163	3.0
82.177	2.0
82.192	2.0
82.207	3.0
82.222	2.0
82.237	2.0
82.252	4.0
82.267	2.0
82.282	2.0
82.297	1.0
82.312	3.0
82.326	5.0
82.341	1.0
82.356	5.0
82.371	2.0
82.386	2.0
82.401	6.0
82.416	5.0
82.431	5.0
82.445	3.0
82.46	1.0
82.475	4.0
82.49	2.0
82.505	4.0
82.52	5.0
82.535	2.0
82.55	5.0
82.565	3.0
82.579	1.0
82.594	2.0
82.609	4.0
82.624	3.0
82.639	5.0
82.654	2.0
82.669	4.0
82.684	3.0
82.698	1.0
82.713	2.0
82.728	3.0
82.743	2.0
82.758	1.0
82.773	4.0
82.788	1.0
82.803	3.0
82.817	0.0
82.832	0.0
82.847	0.0
82.862	4.0
82.877	3.0
82.892	3.0
82.907	2.0
82.922	4.0
82.937	3.0
82.951	2.0
82.966	2.0
82.981	5.0
82.996	3.0
83.011	1.0
83.026	2.0
83.041	3.0
83.056	2.0
83.07	4.0
83.085	4.0
83.1	4.0
83.115	1.0
83.13	3.0
83.145	0.0
83.16	1.0
83.175	1.0
83.19	5.0
83.204	2.0
83.219	3.0
83.234	2.0
83.249	1.0
83.264	2.0
83.279	4.0
83.294	2.0
83.309	2.0
83.324	3.0
83.339	5.0
83.353	1.0
83.368	4.0
83.383	5.0
83.398	4.0
83.413	2.0
83.428	5.0
83.443	5.0
83.458	0.0
83.473	3.0
83.488	1.0
83.503	5.0
83.517	7.0
83.532	1.0
83.547	4.0
83.562	2.0
83.577	0.0
83.592	2.0
83.607	6.0
83.622	4.0
83.637	4.0
83.652	2.0
83.667	2.0
83.682	3.0
83.697	3.0
83.712	5.0
83.727	2.0
83.741	4.0
83.756	1.0
83.771	2.0
83.786	7.0
83.801	4.0
83.816	3.0
83.831	0.0
83.846	3.0
83.861	1.0
83.876	0.0
83.891	2.0
83.906	3.0
83.921	2.0
83.936	4.0
83.951	3.0
83.966	3.0
83.981	4.0
83.996	2.0
84.011	3.0
84.026	5.0
84.041	3.0
84.056	5.0
84.071	4.0
84.086	6.0
84.101	1.0
84.116	6.0
84.131	3.0
84.146	4.0
84.161	5.0
84.176	6.0
84.191	7.0
84.206	2.0
84.221	7.0
84.236	5.0
84.251	6.0
84.266	3.0
84.281	4.0
84.296	5.0
84.311	4.0
84.326	10.0
84.341	5.0
84.356	5.0
84.371	4.0
84.386	1.0
84.401	3.0
84.416	3.0
84.431	1.0
84.446	3.0
84.461	2.0
84.476	7.0
84.492	3.0
84.507	0.0
84.522	1.0
84.537	2.0
84.552	2.0
84.567	4.0
84.582	4.0
84.597	4.0
84.612	1.0
84.627	4.0
84.642	4.0
84.657	1.0
84.672	2.0
84.687	4.0
84.702	2.0
84.717	1.0
84.733	1.0
84.748	0.0
84.763	4.0
84.778	1.0
84.793	2.0
84.808	1.0
84.823	1.0
84.838	2.0
84.853	2.0
84.868	3.0
84.883	3.0
84.898	2.0
84.913	3.0
84.929	3.0
84.944	5.0
84.959	1.0
84.974	2.0
84.989	6.0
85.004	2.0
85.019	3.0
85.034	6.0
85.049	1.0
85.064	0.0
85.079	4.0
85.094	3.0
85.11	4.0
85.125	3.0
85.14	1.0
85.155	2.0
85.17	0.0
85.185	4.0
85.2	1.0
85.215	4.0
85.23	1.0
85.245	3.0
85.26	0.0
85.276	0.0
85.291	2.0
85.306	1.0
85.321	5.0
85.336	2.0
85.351	2.0
85.366	2.0
85.381	3.0
85.396	3.0
85.411	2.0
85.426	1.0
85.441	2.0
85.457	2.0
85.472	1.0
85.487	3.0
85.502	1.0
85.517	2.0
85.532	4.0
85.547	3.0
85.562	3.0
85.577	5.0
85.592	4.0
85.607	4.0
85.622	6.0
85.637	3.0
85.653	3.0
85.668	4.0
85.683	3.0
85.698	4.0
85.713	3.0
85.728	0.0
85.743	2.0
85.758	0.0
85.773	2.0
85.788	4.0
85.803	4.0
85.818	1.0
85.833	1.0
85.848	1.0
85.863	6.0
85.879	5.0
85.894	1.0
85.909	2.0
85.924	1.0
85.939	5.0
85.954	4.0
85.969	0.0
85.984	2.0
85.999	3.0
86.014	3.0
86.029	1.0
86.044	7.0
86.059	4.0
86.074	1.0
86.089	2.0
86.104	2.0
86.119	5.0
86.134	3.0
86.149	2.0
86.164	3.0
86.179	3.0
86.194	3.0
86.209	3.0
86.224	0.0
86.239	5.0
86.254	5.0
86.269	3.0
86.284	4.0
86.299	5.0
86.314	2.0
86.33	2.0
86.345	2.0
86.36	2.0
86.375	4.0
86.39	4.0
86.405	4.0
86.42	3.0
86.435	1.0
86.45	4.0
86.465	1.0
86.48	5.0
86.495	0.0
86.51	0.0
86.525	1.0
86.54	3.0
86.555	4.0
86.57	3.0
86.585	6.0
86.6	5.0
86.615	5.0
86.63	2.0
86.645	5.0
86.659	3.0
86.674	4.0
86.689	5.0
86.704	2.0
86.719	2.0
86.734	5.0
86.749	2.0
86.764	1.0
86.779	2.0
86.794	2.0
86.809	2.0
86.824	5.0
86.839	2.0
86.854	4.0
86.869	2.0
86.884	2.0
86.899	3.0
86.914	6.0
86.929	3.0
86.944	1.0
86.959	7.0
86.974	4.0
86.989	3.0
87.004	4.0
87.019	2.0
87.034	0.0
87.049	0.0
87.064	0.0
87.079	2.0
87.094	3.0
87.109	0.0
87.124	6.0
87.139	3.0
87.154	2.0
87.169	2.0
87.184	5.0
87.199	2.0
87.214	2.0
87.229	3.0
87.244	1.0
87.259	3.0
87.274	1.0
87.289	5.0
87.304	6.0
87.319	3.0
87.334	8.0
87.349	1.0
87.364	4.0
87.379	1.0
87.394	3.0
87.409	3.0
87.424	4.0
87.438	2.0
87.453	1.0
87.468	4.0
87.483	4.0
87.498	4.0
87.513	3.0
87.528	3.0
87.543	3.0
87.558	4.0
87.573	2.0
87.588	9.0
87.603	7.0
87.618	5.0
87.633	2.0
87.648	4.0
87.663	5.0
87.678	5.0
87.693	2.0
87.708	9.0
87.723	2.0
87.738	3.0
87.753	3.0
87.768	4.0
87.783	4.0
87.798	1.0
87.813	5.0
87.828	4.0
87.843	2.0
87.858	3.0
87.873	4.0
87.888	3.0
87.903	8.0
87.918	5.0
87.933	4.0
87.948	5.0
87.963	4.0
87.978	4.0
87.993	0.0
88.008	7.0
88.023	4.0
88.038	1.0
88.053	2.0
88.068	6.0
88.083	4.0
88.098	6.0
88.113	5.0
88.128	5.0
88.143	3.0
88.158	2.0
88.174	1.0
88.189	1.0
88.204	5.0
88.219	1.0
88.234	1.0
88.249	2.0
88.264	2.0
88.279	5.0
88.294	4.0
88.309	2.0
88.324	2.0
88.339	4.0
88.354	5.0
88.369	4.0
88.384	5.0
88.399	5.0
88.414	3.0
88.429	4.0
88.444	3.0
88.459	5.0
88.474	6.0
88.489	3.0
88.504	4.0
88.519	2.0
88.534	3.0
88.549	3.0
88.564	1.0
88.58	5.0
88.595	2.0
88.61	4.0
88.625	2.0
88.64	3.0
88.655	2.0
88.67	4.0
88.685	1.0
88.7	3.0
88.715	2.0
88.73	6.0
88.745	2.0
88.76	1.0
88.775	2.0
88.79	5.0
88.805	4.0
88.82	3.0
88.835	3.0
88.85	1.0
88.865	5.0
88.88	2.0
88.895	2.0
88.911	3.0
88.926	3.0
88.941	2.0
88.956	1.0
88.971	0.0
88.986	5.0
89.001	4.0
89.016	4.0
89.031	3.0
89.046	2.0
89.061	6.0
89.076	3.0
89.091	2.0
89.106	4.0
89.121	3.0
89.136	1.0
89.151	1.0
89.166	2.0
89.181	3.0
89.196	6.0
89.211	2.0
89.227	3.0
89.242	4.0
89.257	6.0
89.272	3.0
89.287	4.0
89.302	7.0
89.317	6.0
89.332	2.0
89.347	0.0
89.362	4.0
89.377	6.0
89.392	3.0
89.407	0.0
89.422	3.0
89.437	0.0
89.452	0.0
89.467	5.0
89.482	4.0
89.497	2.0
89.512	8.0
89.527	2.0
89.542	3.0
89.557	1.0
89.572	3.0
89.587	4.0
89.602	1.0
89.617	4.0
89.632	2.0
89.647	4.0
89.662	5.0
89.677	3.0
89.693	3.0
89.708	5.0
89.723	4.0
89.738	3.0
89.753	5.0
89.768	2.0
89.783	3.0
89.798	1.0
89.813	0.0
89.828	4.0
89.843	1.0
89.858	4.0
89.873	4.0
89.888	1.0
89.903	0.0
89.918	1.0
89.933	3.0
89.948	1.0
89.963	3.0
89.978	0.0
89.993	4.0
90.008	5.0
90.023	2.0
90.038	3.0
90.053	2.0
90.068	2.0
90.083	1.0
90.097	3.0
90.112	3.0
90.127	4.0
90.142	4.0
90.157	8.0
90.172	5.0
90.187	3.0
90.202	5.0
90.217	5.0
90.232	4.0
90.247	5.0
90.262	4.0
90.277	5.0
90.292	7.0
90.307	4.0
90.322	6.0
90.337	4.0
90.352	4.0
90.367	1.0
90.382	3.0
90.397	1.0
90.412	5.0
90.427	10.0
90.442	6.0
90.457	3.0
90.472	3.0
90.487	3.0
90.501	4.0
90.516	2.0
90.531	1.0
90.546	3.0
90.561	3.0
90.576	1.0
90.591	2.0
90.606	6.0
90.621	4.0
90.636	4.0
90.651	0.0
90.666	3.0
90.681	1.0
90.696	3.0
90.711	1.0
90.726	2.0
90.741	2.0
90.755	0.0
90.77	5.0
90.785	4.0
90.8	4.0
90.815	2.0
90.83	2.0
90.845	2.0
90.86	5.0
90.875	5.0
90.89	3.0
90.905	2.0
90.92	5.0
90.935	4.0
90.95	2.0
90.965	4.0
90.979	2.0
90.994	4.0
91.009	4.0
91.024	3.0
91.039	2.0
91.054	5.0
91.069	4.0
91.084	3.0
91.099	3.0
91.114	0.0
91.129	5.0
91.144	3.0
91.159	4.0
91.174	3.0
91.188	4.0
91.203	4.0
91.218	6.0
91.233	2.0
91.248	3.0
91.263	2.0
91.278	1.0
91.293	6.0
91.308	3.0
91.323	2.0
91.338	1.0
91.353	3.0
91.368	5.0
91.383	1.0
91.398	5.0
91.412	1.0
91.427	2.0
91.442	4.0
91.457	3.0
91.472	3.0
91.487	2.0
91.502	3.0
91.517	3.0
91.532	4.0
91.547	3.0
91.562	3.0
91.577	3.0
91.592	2.0
91.607	2.0
91.622	1.0
91.637	3.0
91.652	2.0
91.666	2.0
91.681	5.0
91.696	7.0
91.711	7.0
91.726	2.0
91.741	4.0
91.756	6.0
91.771	6.0
91.786	4.0
91.801	2.0
91.816	4.0
91.831	6.0
91.846	4.0
91.861	6.0
91.876	2.0
91.891	2.0
91.906	3.0
91.921	3.0
91.936	2.0
91.951	5.0
91.966	3.0
91.981	5.0
91.995	2.0
92.01	2.0
92.025	2.0
92.04	0.0
92.055	2.0
92.07	5.0
92.085	3.0
92.1	4.0
92.115	2.0
92.13	2.0
92.145	4.0
92.16	1.0
92.175	1.0
92.19	5.0
92.205	4.0
92.22	4.0
92.235	1.0
92.25	4.0
92.265	5.0
92.28	3.0
92.295	1.0
92.31	1.0
92.325	1.0
92.34	3.0
92.355	4.0
92.37	1.0
92.385	3.0
92.4	6.0
92.415	2.0
92.43	2.0
92.445	3.0
92.46	2.0
92.475	5.0
92.49	5.0
92.505	1.0
92.52	6.0
92.535	1.0
92.55	3.0
92.565	4.0
92.58	0.0
92.595	2.0
92.61	4.0
92.625	1.0
92.64	3.0
92.655	5.0
92.67	2.0
92.685	3.0
92.7	1.0
92.715	5.0
92.73	4.0
92.745	1.0
92.76	4.0
92.775	3.0
92.79	3.0
92.805	2.0
92.82	4.0
92.835	1.0
92.85	6.0
92.865	4.0
92.88	2.0
92.895	3.0
92.91	1.0
92.925	3.0
92.94	4.0
92.955	2.0
92.97	5.0
92.985	4.0
93.0	2.0
93.015	1.0
93.03	3.0
93.045	3.0
93.06	2.0
93.075	2.0
93.09	1.0
93.105	3.0
93.12	1.0
93.135	2.0
93.15	3.0
93.165	3.0
93.18	2.0
93.195	2.0
93.21	5.0
93.225	3.0
93.24	5.0
93.255	6.0
93.27	3.0
93.285	5.0
93.3	1.0
93.315	2.0
93.33	6.0
93.345	2.0
93.36	3.0
93.375	4.0
93.39	2.0
93.405	3.0
93.42	1.0
93.435	2.0
93.45	2.0
93.465	6.0
93.48	3.0
93.495	5.0
93.51	3.0
93.525	4.0
93.54	5.0
93.555	1.0
93.57	4.0
93.585	1.0
93.6	5.0
93.615	3.0
93.63	4.0
93.645	1.0
93.66	7.0
93.675	2.0
93.69	0.0
93.705	3.0
93.72	4.0
93.735	1.0
93.75	1.0
93.765	2.0
93.78	2.0
93.795	1.0
93.81	5.0
93.824	4.0
93.839	4.0
93.854	1.0
93.869	2.0
93.884	3.0
93.899	4.0
93.914	6.0
93.929	6.0
93.944	2.0
93.959	2.0
93.974	4.0
93.989	5.0
94.004	5.0
94.019	2.0
94.034	2.0
94.049	3.0
94.064	3.0
94.079	3.0
94.094	1.0
94.108	3.0
94.123	2.0
94.138	3.0
94.153	3.0
94.168	3.0
94.183	4.0
94.198	3.0
94.213	1.0
94.228	3.0
94.243	2.0
94.258	4.0
94.273	6.0
94.288	2.0
94.302	4.0
94.317	3.0
94.332	8.0
94.347	5.0
94.362	2.0
94.377	8.0
94.392	8.0
94.407	4.0
94.422	3.0
94.437	2.0
94.452	8.0
94.466	4.0
94.481	5.0
94.496	2.0
94.511	7.0
94.526	1.0
94.541	0.0
94.556	1.0
94.571	6.0
94.586	1.0
94.601	1.0
94.615	3.0
94.63	6.0
94.645	3.0
94.66	5.0
94.675	1.0
94.69	6.0
94.705	2.0
94.72	0.0
94.735	3.0
94.749	1.0
94.764	4.0
94.779	5.0
94.794	2.0
94.809	2.0
94.824	3.0
94.839	4.0
94.854	5.0
94.868	1.0
94.883	3.0
94.898	1.0
94.913	1.0
94.928	5.0
94.943	3.0
94.958	5.0
94.973	4.0
94.987	0.0
95.002	6.0
95.017	3.0
95.032	1.0
95.047	2.0
95.062	6.0
95.077	4.0
95.092	7.0
95.106	1.0
95.121	9.0
95.136	1.0
95.151	3.0
95.166	4.0
95.181	4.0
95.196	3.0
95.211	7.0
95.226	3.0
95.24	5.0
95.255	2.0
95.27	9.0
95.285	7.0
95.3	6.0
95.315	1.0
95.33	5.0
95.345	3.0
95.359	3.0
95.374	3.0
95.389	5.0
95.404	1.0
95.419	4.0
95.434	1.0
95.449	3.0
95.464	7.0
95.478	5.0
95.493	7.0
95.508	2.0
95.523	5.0
95.538	5.0
95.553	6.0
95.568	2.0
95.583	0.0
95.597	5.0
95.612	4.0
95.627	2.0
95.642	8.0
95.657	2.0
95.672	4.0
95.687	3.0
95.702	5.0
95.717	4.0
95.731	1.0
95.746	2.0
95.761	1.0
95.776	4.0
95.791	4.0
95.806	3.0
95.821	4.0
95.836	1.0
95.851	1.0
95.866	1.0
95.88	2.0
95.895	3.0
95.91	2.0
95.925	3.0
95.94	7.0
95.955	3.0
95.97	4.0
95.985	1.0
96.0	2.0
96.015	4.0
96.029	2.0
96.044	4.0
96.059	3.0
96.074	1.0
96.089	5.0
96.104	4.0
96.119	4.0
96.134	3.0
96.149	1.0
96.164	2.0
96.179	5.0
96.194	4.0
96.208	6.0
96.223	3.0
96.238	4.0
96.253	3.0
96.268	3.0
96.283	2.0
96.298	1.0
96.313	1.0
96.328	3.0
96.343	3.0
96.358	2.0
96.373	4.0
96.388	3.0
96.403	6.0
96.417	6.0
96.432	4.0
96.447	4.0
96.462	4.0
96.477	5.0
96.492	1.0
96.507	3.0
96.522	0.0
96.537	3.0
96.552	0.0
96.567	2.0
96.582	3.0
96.597	3.0
96.612	2.0
96.627	2.0
96.642	2.0
96.656	2.0
96.671	2.0
96.686	1.0
96.701	2.0
96.716	3.0
96.731	4.0
96.746	2.0
96.761	2.0
96.776	3.0
96.791	6.0
96.806	3.0
96.821	3.0
96.836	3.0
96.851	1.0
96.866	1.0
96.881	2.0
96.896	4.0
96.911	3.0
96.926	5.0
96.94	5.0
96.955	4.0
96.97	0.0
96.985	7.0
97.0	6.0
97.015	2.0
97.03	2.0
97.045	5.0
97.06	4.0
97.075	2.0
97.09	3.0
97.105	1.0
97.12	2.0
97.135	4.0
97.15	3.0
97.165	0.0
97.18	3.0
97.195	1.0
97.21	4.0
97.225	1.0
97.239	4.0
97.254	7.0
97.269	1.0
97.284	3.0
97.299	0.0
97.314	2.0
97.329	3.0
97.344	3.0
97.359	4.0
97.374	1.0
97.389	1.0
97.404	3.0
97.419	2.0
97.434	1.0
97.449	2.0
97.464	2.0
97.479	4.0
97.494	1.0
97.509	2.0
97.524	4.0
97.538	6.0
97.553	0.0
97.568	3.0
97.583	2.0
97.598	1.0
97.613	5.0
97.628	2.0
97.643	2.0
97.658	4.0
97.673	5.0
97.688	4.0
97.703	8.0
97.718	3.0
97.733	4.0
97.748	3.0
97.763	3.0
97.778	3.0
97.792	3.0
97.807	5.0
97.822	4.0
97.837	2.0
97.852	2.0
97.867	2.0
97.882	4.0
97.897	5.0
97.912	2.0
97.927	2.0
97.942	4.0
97.957	4.0
97.972	4.0
97.987	2.0
98.001	6.0
98.016	4.0
98.031	1.0
98.046	4.0
98.061	1.0
98.076	2.0
98.091	3.0
98.106	0.0
98.121	2.0
98.136	2.0
98.151	2.0
98.166	4.0
98.181	3.0
98.195	2.0
98.21	4.0
98.225	2.0
98.24	3.0
98.255	6.0
98.27	2.0
98.285	2.0
98.3	7.0
98.315	4.0
98.33	4.0
98.345	1.0
98.359	4.0
98.374	4.0
98.389	2.0
98.404	4.0
98.419	2.0
98.434	2.0
98.449	3.0
98.464	4.0
98.479	5.0
98.494	5.0
98.508	3.0
98.523	0.0
98.538	3.0
98.553	2.0
98.568	6.0
98.583	1.0
98.598	3.0
98.613	4.0
98.628	0.0
98.642	5.0
98.657	6.0
98.672	5.0
98.687	2.0
98.702	1.0
98.717	3.0
98.732	3.0
98.747	3.0
98.762	2.0
98.776	2.0
98.791	3.0
98.806	4.0
98.821	3.0
98.836	4.0
98.851	0.0
98.866	1.0
98.881	1.0
98.896	1.0
98.91	4.0
98.925	4.0
98.94	1.0
98.955	6.0
98.97	3.0
98.985	4.0
99.0	5.0
99.015	3.0
99.029	2.0
99.044	5.0
99.059	3.0
99.074	6.0
99.089	3.0
99.104	8.0
99.119	2.0
99.133	3.0
99.148	3.0
99.163	3.0
99.178	4.0
99.193	4.0
99.208	2.0
99.223	5.0
99.238	0.0
99.252	4.0
99.267	6.0
99.282	1.0
99.297	3.0
99.312	0.0
99.327	0.0
99.342	1.0
99.356	1.0
99.371	4.0
99.386	2.0
99.401	4.0
99.416	1.0
99.431	2.0
99.446	4.0
99.461	4.0
99.475	4.0
99.49	2.0
99.505	1.0
99.52	6.0
99.535	1.0
99.55	5.0
99.565	3.0
99.579	4.0
99.594	3.0
99.609	2.0
99.624	7.0
99.639	3.0
99.654	2.0
99.669	3.0
99.683	3.0
99.698	5.0
99.713	2.0
99.728	2.0
99.743	2.0
99.758	2.0
99.772	0.0
99.787	1.0
99.802	3.0
99.817	0.0
99.832	3.0
99.847	4.0
99.862	2.0
99.876	0.0
99.891	3.0
99.906	0.0
99.921	2.0
99.936	0.0
99.951	3.0
99.966	5.0
99.98	3.0
99.995	5.0
100.01	3.0
100.025	2.0
100.04	2.0
100.055	2.0
100.069	1.0
100.084	0.0
100.099	3.0
100.114	3.0
100.129	2.0
100.144	4.0
100.159	7.0
100.173	6.0
100.188	2.0
100.203	3.0
100.218	4.0
100.233	4.0
100.248	5.0
100.262	2.0
100.277	2.0
100.292	0.0
100.307	2.0
100.322	2.0
100.337	1.0
100.351	4.0
100.366	1.0
100.381	7.0
100.396	7.0
100.411	5.0
100.426	2.0
100.441	3.0
100.455	3.0
100.47	1.0
100.485	3.0
100.5	2.0
100.515	2.0
100.53	1.0
100.544	4.0
100.559	4.0
100.574	2.0
100.589	0.0
100.604	1.0
100.619	2.0
100.633	5.0
100.648	1.0
100.663	1.0
100.678	3.0
100.693	4.0
100.708	3.0
100.722	3.0
100.737	3.0
100.752	4.0
100.767	4.0
100.782	3.0
100.796	2.0
100.811	6.0
100.826	1.0
100.841	7.0
100.856	4.0
100.871	7.0
100.885	1.0
100.9	5.0
100.915	3.0
100.93	2.0
100.945	1.0
100.96	3.0
100.974	2.0
100.989	4.0
101.004	3.0
101.019	0.0
101.034	4.0
101.048	0.0
101.063	4.0
101.078	5.0
101.093	6.0
101.108	3.0
101.123	3.0
101.137	8.0
101.152	5.0
101.167	4.0
101.182	5.0
101.197	6.0
101.211	3.0
101.226	3.0
101.241	4.0
101.256	5.0
101.271	4.0
101.285	1.0
101.3	4.0
101.315	3.0
101.33	4.0
101.345	5.0
101.359	8.0
101.374	7.0
101.389	6.0
101.404	4.0
101.419	2.0
101.433	3.0
101.448	4.0
101.463	3.0
101.478	2.0
101.493	1.0
101.507	3.0
101.522	2.0
101.537	2.0
101.552	3.0
101.567	2.0
101.581	4.0
101.596	4.0
101.611	3.0
101.626	8.0
101.64	5.0
101.655	4.0
101.67	3.0
101.685	0.0
101.7	3.0
101.714	1.0
101.729	0.0
101.744	4.0
101.759	2.0
101.773	4.0
101.788	0.0
101.803	3.0
101.818	3.0
101.833	6.0
101.847	4.0
101.862	1.0
101.877	4.0
101.892	4.0
101.906	6.0
101.921	4.0
101.936	4.0
101.951	6.0
101.965	4.0
101.98	7.0
101.995	2.0
102.01	3.0
102.025	5.0
102.039	3.0
102.054	3.0
102.069	7.0
102.084	2.0
102.098	7.0
102.113	3.0
102.128	4.0
102.143	5.0
102.157	1.0
102.172	2.0
102.187	1.0
102.202	2.0
102.216	4.0
102.231	3.0
102.246	3.0
102.261	3.0
102.275	3.0
102.29	1.0
102.305	4.0
102.32	4.0
102.334	5.0
102.349	3.0
102.364	1.0
102.378	0.0
102.393	4.0
102.408	1.0
102.423	2.0
102.437	1.0
102.452	1.0
102.467	3.0
102.482	5.0
102.496	2.0
102.511	3.0
102.526	2.0
102.541	2.0
102.555	2.0
102.57	4.0
102.585	2.0
102.6	0.0
102.614	2.0
102.629	5.0
102.644	3.0
102.659	2.0
102.673	1.0
102.688	4.0
102.703	1.0
102.717	3.0
102.732	3.0
102.747	5.0
102.762	2.0
102.776	3.0
102.791	3.0
102.806	4.0
102.821	3.0
102.835	4.0
102.85	6.0
102.865	3.0
102.88	1.0
102.894	4.0
102.909	3.0
102.924	2.0
102.938	4.0
102.953	3.0
102.968	1.0
102.983	3.0
102.997	5.0
103.012	3.0
103.027	2.0
103.042	3.0
103.056	2.0
103.071	2.0
103.086	6.0
103.101	2.0
103.115	1.0
103.13	2.0
103.145	2.0
103.16	3.0
103.174	4.0
103.189	3.0
103.204	5.0
103.219	3.0
103.233	2.0
103.248	2.0
103.263	2.0
103.278	2.0
103.292	0.0
103.307	3.0
103.322	3.0
103.337	2.0
103.351	2.0
103.366	2.0
103.381	6.0
103.396	3.0
103.41	3.0
103.425	2.0
103.44	2.0
103.455	5.0
103.469	3.0
103.484	0.0
103.499	3.0
103.514	1.0
103.529	2.0
103.543	1.0
103.558	2.0
103.573	5.0
103.588	2.0
103.602	4.0
103.617	1.0
103.632	2.0
103.647	1.0
103.661	1.0
103.676	2.0
103.691	4.0
103.706	4.0
103.721	4.0
103.735	1.0
103.75	5.0
103.765	1.0
103.78	3.0
103.795	5.0
103.809	2.0
103.824	3.0
103.839	3.0
103.854	2.0
103.869	2.0
103.883	1.0
103.898	1.0
103.913	5.0
103.928	3.0
103.943	5.0
103.957	2.0
103.972	6.0
103.987	1.0
104.002	2.0
104.017	3.0
104.031	2.0
104.046	2.0
104.061	3.0
104.076	3.0
104.091	3.0
104.106	2.0
104.12	4.0
104.135	1.0
104.15	0.0
104.165	2.0
104.18	5.0
104.195	1.0
104.209	1.0
104.224	2.0
104.239	1.0
104.254	1.0
104.269	4.0
104.284	3.0
104.299	3.0
104.313	1.0
104.328	4.0
104.343	2.0
104.358	2.0
104.373	3.0
104.388	1.0
104.403	1.0
104.417	2.0
104.432	2.0
104.447	1.0
104.462	2.0
104.477	3.0
104.492	4.0
104.507	3.0
104.522	2.0
104.536	0.0
104.551	2.0
104.566	5.0
104.581	3.0
104.596	4.0
104.611	3.0
104.626	2.0
104.641	5.0
104.656	3.0
104.67	5.0
104.685	5.0
104.7	2.0
104.715	8.0
104.73	6.0
104.745	2.0
104.76	2.0
104.775	4.0
104.79	4.0
104.804	4.0
104.819	3.0
104.834	1.0
104.849	0.0
104.864	5.0
104.879	1.0
104.894	2.0
104.909	6.0
104.924	1.0
104.939	0.0
104.954	4.0
104.968	3.0
104.983	5.0
104.998	4.0
105.013	1.0
105.028	3.0
105.043	2.0
105.058	2.0
105.073	4.0
105.088	2.0
105.103	3.0
105.118	4.0
105.133	2.0
105.147	3.0
105.162	4.0
105.177	3.0
105.192	4.0
105.207	5.0
105.222	2.0
105.237	0.0
105.252	5.0
105.267	2.0
105.282	2.0
105.297	0.0
105.312	1.0
105.327	4.0
105.342	5.0
105.356	4.0
105.371	1.0
105.386	3.0
105.401	3.0
105.416	3.0
105.431	2.0
105.446	3.0
105.461	7.0
105.476	4.0
105.491	2.0
105.506	2.0
105.521	1.0
105.536	7.0
105.551	1.0
105.566	2.0
105.581	2.0
105.595	5.0
105.61	1.0
105.625	2.0
105.64	2.0
105.655	2.0
105.67	4.0
105.685	4.0
105.7	3.0
105.715	3.0
105.73	5.0
105.745	5.0
105.76	3.0
105.775	2.0
105.79	4.0
105.805	2.0
105.82	3.0
105.835	5.0
105.85	1.0
105.864	4.0
105.879	0.0
105.894	4.0
105.909	1.0
105.924	2.0
105.939	1.0
105.954	3.0
105.969	4.0
105.984	3.0
105.999	0.0
106.014	4.0
106.029	4.0
106.044	4.0
106.059	1.0
106.074	3.0
106.089	2.0
106.104	3.0
106.119	3.0
106.134	4.0
106.148	4.0
106.163	4.0
106.178	1.0
106.193	2.0
106.208	2.0
106.223	4.0
106.238	7.0
106.253	1.0
106.268	2.0
106.283	4.0
106.298	4.0
106.313	3.0
106.328	5.0
106.343	4.0
106.358	3.0
106.373	5.0
106.388	2.0
106.403	3.0
106.418	3.0
106.432	3.0
106.447	2.0
106.462	1.0
106.477	1.0
106.492	7.0
106.507	2.0
106.522	4.0
106.537	0.0
106.552	4.0
106.567	1.0
106.582	4.0
106.597	5.0
106.612	4.0
106.627	3.0
106.642	1.0
106.657	6.0
106.672	5.0
106.687	4.0
106.701	1.0
106.716	1.0
106.731	4.0
106.746	0.0
106.761	4.0
106.776	2.0
106.791	2.0
106.806	2.0
106.821	3.0
106.836	3.0
106.851	2.0
106.866	1.0
106.881	5.0
106.896	2.0
106.911	4.0
106.926	1.0
106.941	3.0
106.955	3.0
106.97	1.0
106.985	2.0
107.0	3.0
107.015	4.0
107.03	4.0
107.045	3.0
107.06	7.0
107.075	2.0
107.09	1.0
107.105	3.0
107.12	2.0
107.135	3.0
107.15	3.0
107.165	9.0
107.18	3.0
107.194	5.0
107.209	6.0
107.224	4.0
107.239	4.0
107.254	3.0
107.269	2.0
107.284	5.0
107.299	4.0
107.314	5.0
107.329	4.0
107.344	2.0
107.359	4.0
107.374	1.0
107.389	1.0
107.404	0.0
107.418	6.0
107.433	2.0
107.448	8.0
107.463	6.0
107.478	6.0
107.493	2.0
107.508	5.0
107.523	2.0
107.538	5.0
107.553	2.0
107.568	0.0
107.583	4.0
107.598	1.0
107.613	2.0
107.627	4.0
107.642	7.0
107.657	2.0
107.672	3.0
107.687	2.0
107.702	3.0
107.717	4.0
107.732	4.0
107.747	3.0
107.762	2.0
107.777	3.0
107.792	2.0
107.807	2.0
107.821	2.0
107.836	2.0
107.851	2.0
107.866	2.0
107.881	2.0
107.896	7.0
107.911	1.0
107.926	3.0
107.941	1.0
107.956	6.0
107.971	1.0
107.986	3.0
108.0	3.0
108.015	3.0
108.03	2.0
108.045	5.0
108.06	4.0
108.075	5.0
108.09	3.0
108.105	4.0
108.12	2.0
108.135	4.0
108.15	7.0
108.164	3.0
108.179	3.0
108.194	2.0
108.209	3.0
108.224	3.0
108.239	4.0
108.254	2.0
108.269	2.0
108.284	1.0
108.299	5.0
108.313	5.0
108.328	3.0
108.343	6.0
108.358	3.0
108.373	3.0
108.388	2.0
108.403	1.0
108.418	1.0
108.433	4.0
108.448	3.0
108.462	2.0
108.477	5.0
108.492	1.0
108.507	5.0
108.522	3.0
108.537	2.0
108.552	2.0
108.567	3.0
108.582	5.0
108.597	3.0
108.611	2.0
108.626	5.0
108.641	1.0
108.656	5.0
108.671	2.0
108.686	4.0
108.701	3.0
108.716	1.0
108.731	4.0
108.745	3.0
108.76	7.0
108.775	2.0
108.79	2.0
108.805	4.0
108.82	3.0
108.835	3.0
108.85	2.0
108.865	4.0
108.879	1.0
108.894	6.0
108.909	1.0
108.924	3.0
108.939	4.0
108.954	5.0
108.969	6.0
108.984	2.0
108.999	6.0
109.013	2.0
109.028	3.0
109.043	2.0
109.058	4.0
109.073	2.0
109.088	2.0
109.103	5.0
109.118	1.0
109.133	4.0
109.147	4.0
109.162	2.0
109.177	2.0
109.192	1.0
109.207	1.0
109.222	4.0
109.237	3.0
109.252	1.0
109.267	2.0
109.281	1.0
109.296	1.0
109.311	0.0
109.326	0.0
109.341	4.0
109.356	2.0
109.371	5.0
109.386	1.0
109.4	4.0
109.415	1.0
109.43	4.0
109.445	2.0
109.46	3.0
109.475	4.0
109.49	2.0
109.505	7.0
109.52	5.0
109.534	3.0
109.549	4.0
109.564	3.0
109.579	4.0
109.594	1.0
109.609	2.0
109.624	2.0
109.639	4.0
109.653	2.0
109.668	3.0
109.683	0.0
109.698	4.0
109.713	3.0
109.728	6.0
109.743	3.0
109.758	4.0
109.773	2.0
109.787	2.0
109.802	3.0
109.817	7.0
109.832	6.0
109.847	5.0
109.862	2.0
109.877	0.0
109.892	2.0
109.907	3.0
109.921	1.0
109.936	4.0
109.951	4.0
109.966	5.0
109.981	3.0
109.996	2.0
110.011	3.0
110.026	1.0
110.04	4.0
110.055	0.0
110.07	2.0
110.085	3.0
110.1	0.0
110.115	2.0
110.13	3.0
110.145	2.0
110.16	3.0
110.174	3.0
110.189	5.0
110.204	2.0
110.219	2.0
110.234	3.0
110.249	0.0
110.264	3.0
110.279	2.0
110.294	1.0
110.308	5.0
110.323	3.0
110.338	1.0
110.353	2.0
110.368	3.0
110.383	1.0
110.398	7.0
110.413	3.0
110.428	2.0
110.442	3.0
110.457	3.0
110.472	2.0
110.487	3.0
110.502	1.0
110.517	5.0
110.532	3.0
110.547	1.0
110.561	4.0
110.576	5.0
110.591	2.0
110.606	4.0
110.621	2.0
110.636	6.0
110.651	2.0
110.666	1.0
110.681	7.0
110.695	4.0
110.71	2.0
110.725	2.0
110.74	3.0
110.755	3.0
110.77	3.0
110.785	3.0
110.8	5.0
110.815	6.0
110.829	2.0
110.844	2.0
110.859	3.0
110.874	5.0
110.889	1.0
110.904	3.0
110.919	1.0
110.934	3.0
110.948	3.0
110.963	2.0
110.978	2.0
110.993	3.0
111.008	2.0
111.023	3.0
111.038	1.0
111.053	6.0
111.067	3.0
111.082	4.0
111.097	3.0
111.112	1.0
111.127	4.0
111.142	5.0
111.157	4.0
111.172	3.0
111.186	4.0
111.201	3.0
111.216	6.0
111.231	4.0
111.246	8.0
111.261	4.0
111.276	2.0
111.291	5.0
111.305	2.0
111.32	4.0
111.335	2.0
111.35	2.0
111.365	5.0
111.38	5.0
111.395	2.0
111.41	3.0
111.424	4.0
111.439	1.0
111.454	3.0
111.469	1.0
111.484	6.0
111.499	4.0
111.514	3.0
111.528	0.0
111.543	3.0
111.558	3.0
111.573	4.0
111.588	5.0
111.603	4.0
111.618	2.0
111.633	5.0
111.647	5.0
111.662	1.0
111.677	3.0
111.692	2.0
111.707	5.0
111.722	2.0
111.737	4.0
111.751	2.0
111.766	2.0
111.781	3.0
111.796	3.0
111.811	4.0
111.826	3.0
111.84	4.0
111.855	2.0
111.87	0.0
111.885	2.0
111.9	3.0
111.915	6.0
111.93	3.0
111.944	4.0
111.959	7.0
111.974	1.0
111.989	3.0
112.004	4.0
112.019	2.0
112.033	4.0
112.048	3.0
112.063	7.0
112.078	5.0
112.093	7.0
112.108	6.0
112.123	2.0
112.137	4.0
112.152	2.0
112.167	3.0
112.182	2.0
112.197	1.0
112.212	1.0
112.226	4.0
112.241	1.0
112.256	3.0
112.271	2.0
112.286	1.0
112.301	1.0
112.315	1.0
112.33	2.0
112.345	4.0
112.36	5.0
112.375	3.0
112.389	4.0
112.404	4.0
112.419	1.0
112.434	6.0
112.449	5.0
112.464	4.0
112.478	4.0
112.493	3.0
112.508	4.0
112.523	3.0
112.538	3.0
112.553	3.0
112.567	5.0
112.582	5.0
112.597	2.0
112.612	3.0
112.627	1.0
112.642	3.0
112.656	4.0
112.671	5.0
112.686	4.0
112.701	3.0
112.716	6.0
112.73	6.0
112.745	3.0
112.76	2.0
112.775	4.0
112.79	2.0
112.805	0.0
112.819	1.0
112.834	4.0
112.849	3.0
112.864	4.0
112.879	2.0
112.894	3.0
112.908	3.0
112.923	2.0
112.938	2.0
112.953	1.0
112.968	4.0
112.983	0.0
112.997	0.0
113.012	4.0
113.027	4.0
113.042	3.0
113.057	6.0
113.072	2.0
113.086	1.0
113.101	2.0
113.116	6.0
113.131	6.0
113.146	6.0
113.161	3.0
113.175	5.0
113.19	6.0
113.205	2.0
113.22	3.0
113.235	3.0
113.25	2.0
113.265	4.0
113.279	3.0
113.294	3.0
113.309	4.0
113.324	2.0
113.339	2.0
113.354	2.0
113.368	3.0
113.383	3.0
113.398	4.0
113.413	6.0
113.428	6.0
113.443	2.0
113.458	3.0
113.472	5.0
113.487	3.0
113.502	2.0
113.517	6.0
113.532	3.0
113.547	2.0
113.562	4.0
113.576	6.0
113.591	4.0
113.606	4.0
113.621	5.0
113.636	1.0
113.651	2.0
113.666	2.0
113.681	1.0
113.695	4.0
113.71	4.0
113.725	1.0
113.74	5.0
113.755	1.0
113.77	4.0
113.785	3.0
113.8	2.0
113.814	2.0
113.829	3.0
113.844	2.0
113.859	2.0
113.874	0.0
113.889	5.0
113.904	1.0
113.919	3.0
113.934	6.0
113.949	4.0
113.963	2.0
113.978	1.0
113.993	4.0
114.008	5.0
114.023	1.0
114.038	3.0
114.053	5.0
114.068	4.0
114.083	5.0
114.098	5.0
114.113	5.0
114.127	1.0
114.142	2.0
114.157	6.0
114.172	8.0
114.187	2.0
114.202	3.0
114.217	4.0
114.232	5.0
114.247	1.0
114.262	5.0
114.277	3.0
114.292	3.0
114.307	3.0
114.322	3.0
114.337	4.0
114.351	9.0
114.366	4.0
114.381	1.0
114.396	0.0
114.411	5.0
114.426	6.0
114.441	2.0
114.456	3.0
114.471	2.0
114.486	6.0
114.501	2.0
114.516	0.0
114.531	7.0
114.546	2.0
114.561	2.0
114.576	3.0
114.591	3.0
114.606	5.0
114.621	2.0
114.636	5.0
114.65	2.0
114.665	1.0
114.68	0.0
114.695	6.0
114.71	3.0
114.725	3.0
114.74	2.0
114.755	3.0
114.77	2.0
114.785	1.0
114.8	6.0
114.815	1.0
114.83	3.0
114.845	2.0
114.86	6.0
114.875	6.0
114.89	3.0
114.905	2.0
114.92	5.0
114.935	0.0
114.95	6.0
114.965	1.0
114.98	2.0
114.995	2.0
115.009	2.0
115.024	5.0
115.039	5.0
115.054	5.0
115.069	6.0
115.084	1.0
115.099	1.0
115.114	2.0
115.129	4.0
115.144	2.0
115.159	6.0
115.174	3.0
115.189	9.0
115.204	3.0
115.219	1.0
115.234	4.0
115.249	6.0
115.264	5.0
115.279	4.0
115.294	5.0
115.309	7.0
115.323	8.0
115.338	4.0
115.353	5.0
115.368	3.0
115.383	3.0
115.398	7.0
115.413	5.0
115.428	5.0
115.443	6.0
115.458	5.0
115.473	4.0
115.488	3.0
115.503	4.0
115.518	1.0
115.533	3.0
115.548	3.0
115.562	6.0
115.577	4.0
115.592	0.0
115.607	0.0
115.622	3.0
115.637	5.0
115.652	3.0
115.667	3.0
115.682	4.0
115.697	3.0
115.712	6.0
115.727	4.0
115.741	6.0
115.756	5.0
115.771	4.0
115.786	1.0
115.801	2.0
115.816	4.0
115.831	6.0
115.846	3.0
115.861	7.0
115.875	1.0
115.89	6.0
115.905	1.0
115.92	3.0
115.935	2.0
115.95	5.0
115.965	4.0
115.98	0.0
115.995	4.0
116.009	2.0
116.024	6.0
116.039	1.0
116.054	5.0
116.069	2.0
116.084	4.0
116.099	4.0
116.113	3.0
116.128	1.0
116.143	1.0
116.158	1.0
116.173	5.0
116.188	4.0
116.202	5.0
116.217	1.0
116.232	6.0
116.247	0.0
116.262	3.0
116.277	7.0
116.291	1.0
116.306	5.0
116.321	6.0
116.336	4.0
116.351	7.0
116.366	5.0
116.38	3.0
116.395	3.0
116.41	4.0
116.425	3.0
116.44	7.0
116.454	4.0
116.469	1.0
116.484	5.0
116.499	3.0
116.514	0.0
116.528	2.0
116.543	2.0
116.558	3.0
116.573	3.0
116.588	2.0
116.602	0.0
116.617	3.0
116.632	2.0
116.647	5.0
116.662	3.0
116.676	4.0
116.691	2.0
116.706	1.0
116.721	3.0
116.735	2.0
116.75	3.0
116.765	5.0
116.78	3.0
116.795	4.0
116.809	5.0
116.824	2.0
116.839	3.0
116.854	3.0
116.868	4.0
116.883	1.0
116.898	5.0
116.913	5.0
116.927	2.0
116.942	5.0
116.957	3.0
116.972	2.0
116.986	3.0
117.001	1.0
117.016	4.0
117.031	0.0
117.045	8.0
117.06	4.0
117.075	2.0
117.09	2.0
117.104	4.0
117.119	2.0
117.134	1.0
117.149	3.0
117.163	4.0
117.178	6.0
117.193	5.0
117.208	7.0
117.222	3.0
117.237	6.0
117.252	7.0
117.267	2.0
117.281	1.0
117.296	5.0
117.311	5.0
117.325	3.0
117.34	4.0
117.355	1.0
117.37	0.0
117.384	5.0
117.399	3.0
117.414	0.0
117.429	1.0
117.443	7.0
117.458	6.0
117.473	2.0
117.487	3.0
117.502	2.0
117.517	7.0
117.532	4.0
117.546	6.0
117.561	2.0
117.576	3.0
117.59	2.0
117.605	2.0
117.62	2.0
117.635	0.0
117.649	3.0
117.664	3.0
117.679	1.0
117.693	3.0
117.708	0.0
117.723	1.0
117.738	5.0
117.752	3.0
117.767	1.0
117.782	4.0
117.796	5.0
117.811	3.0
117.826	3.0
117.841	4.0
117.855	3.0
117.87	2.0
117.885	4.0
117.899	3.0
117.914	4.0
117.929	3.0
117.944	5.0
117.958	7.0
117.973	4.0
117.988	1.0
118.002	5.0
118.017	4.0
118.032	2.0
118.047	1.0
118.062	3.0
118.077	3.0
118.092	6.0
118.107	6.0
118.121	5.0
118.136	3.0
118.151	4.0
118.166	4.0
118.181	5.0
118.196	3.0
118.211	5.0
118.225	4.0
118.24	5.0
118.255	3.0
118.27	2.0
118.285	0.0
118.3	0.0
118.315	3.0
118.33	8.0
118.344	6.0
118.359	6.0
118.374	4.0
118.389	3.0
118.404	5.0
118.419	2.0
118.434	4.0
118.449	3.0
118.463	3.0
118.478	3.0
118.493	4.0
118.508	2.0
118.523	2.0
118.538	4.0
118.553	3.0
118.567	6.0
118.582	2.0
118.597	4.0
118.612	6.0
118.627	5.0
118.642	6.0
118.657	2.0
118.672	0.0
118.686	1.0
118.701	3.0
118.716	5.0
118.731	4.0
118.746	3.0
118.761	3.0
118.776	3.0
118.791	5.0
118.805	4.0
118.82	0.0
118.835	2.0
118.85	2.0
118.865	4.0
118.88	5.0
118.895	1.0
118.909	4.0
118.924	4.0
118.939	2.0
118.954	3.0
118.969	2.0
118.984	3.0
118.999	3.0
119.014	1.0
119.028	5.0
119.043	3.0
119.058	3.0
119.073	2.0
119.088	6.0
119.103	4.0
119.118	6.0
119.133	4.0
119.147	7.0
119.162	5.0
119.177	4.0
119.192	4.0
119.207	6.0
119.222	6.0
119.237	5.0
119.251	4.0
119.266	8.0
119.281	6.0
119.296	5.0
119.311	5.0
119.326	1.0
119.341	6.0
119.356	4.0
119.37	3.0
119.385	0.0
119.4	6.0
119.415	5.0
119.43	1.0
119.445	5.0
119.46	5.0
119.475	5.0
119.489	3.0
119.504	6.0
119.519	4.0
119.534	5.0
119.549	0.0
119.564	6.0
119.579	6.0
119.593	2.0
119.608	5.0
119.623	3.0
119.638	1.0
119.653	2.0
119.668	3.0
119.683	5.0
119.698	4.0
119.712	6.0
119.727	4.0
119.742	2.0
119.757	6.0
119.772	3.0
119.787	6.0
119.802	1.0
119.817	2.0
119.831	2.0
119.846	2.0
119.861	2.0
119.876	5.0
119.891	1.0
119.906	1.0
119.921	3.0
119.935	3.0
119.95	5.0
119.965	6.0
119.98	2.0
119.995	3.0
120.01	2.0
120.025	2.0
120.04	3.0
120.054	2.0
120.069	3.0
120.084	2.0
120.099	4.0
120.114	4.0
120.129	2.0
120.144	1.0
120.159	2.0
120.173	3.0
120.188	3.0
120.203	1.0
120.218	1.0
120.233	1.0
120.248	0.0
120.263	2.0
120.277	0.0
120.292	0.0
120.307	0.0
120.322	0.0
120.337	1.0
120.352	1.0
120.367	0.0
120.382	0.0
120.396	0.0
120.411	0.0
120.426	0.0
120.441	0.0
120.456	0.0
120.471	0.0
120.486	0.0
120.501	0.0
120.515	1.0
120.53	1.0
120.545	0.0
120.56	0.0
120.575	0.0
120.59	0.0
120.605	0.0
120.619	0.0
120.634	0.0
120.649	0.0
120.664	0.0
120.679	1.0
120.694	0.0
120.709	0.0
120.724	0.0
120.738	1.0
120.753	0.0
120.768	0.0
120.783	0.0
120.798	0.0
120.813	0.0
120.828	0.0
120.843	0.0
120.857	1.0
120.872	0.0
120.887	0.0
120.902	0.0
120.917	0.0
120.932	0.0
120.947	0.0
120.961	0.0
120.976	0.0
