-1.217	0.0
-1.202	0.0
-1.187	0.0
-1.172	0.0
-1.157	0.0
-1.142	0.0
-1.128	0.0
-1.113	0.0
-1.098	0.0
-1.083	0.0
-1.068	0.0
-1.054	0.0
-1.039	0.0
-1.024	0.0
-1.009	0.0
-0.994	0.0
-0.979	0.0
-0.965	0.0
-0.95	0.0
-0.935	0.0
-0.92	0.0
-0.905	0.0
-0.891	0.0
-0.876	0.0
-0.861	0.0
-0.846	0.0
-0.831	0.0
-0.816	0.0
-0.802	0.0
-0.787	0.0
-0.772	0.0
-0.757	0.0
-0.742	0.0
-0.728	0.0
-0.713	0.0
-0.698	0.0
-0.683	0.0
-0.668	0.0
-0.653	0.0
-0.639	0.0
-0.624	0.0
-0.609	0.0
-0.594	0.0
-0.579	0.0
-0.565	0.0
-0.55	0.0
-0.535	0.0
-0.52	0.0
-0.505	0.0
-0.49	0.0
-0.476	0.0
-0.461	0.0
-0.446	0.0
-0.431	0.0
-0.416	0.0
-0.401	0.0
-0.387	0.0
-0.372	0.0
-0.357	0.0
-0.342	0.0
-0.327	0.0
-0.313	0.0
-0.298	0.0
-0.283	0.0
-0.268	0.0
-0.253	0.0
-0.238	0.0
-0.224	0.0
-0.209	0.0
-0.194	0.0
-0.179	0.0
-0.164	0.0
-0.15	0.0
-0.135	0.0
-0.12	0.0
-0.105	0.0
-0.09	0.0
-0.075	0.0
-0.061	0.0
-0.046	0.0
-0.031	0.0
-0.016	0.0
-0.001	0.0
0.013	1.0
0.028	0.0
0.043	0.0
0.058	0.0
0.073	0.0
0.088	0.0
0.102	0.0
0.117	0.0
0.132	0.0
0.147	0.0
0.162	0.0
0.176	0.0
0.191	0.0
0.206	0.0
0.221	0.0
0.236	0.0
0.251	0.0
0.265	0.0
0.28	0.0
0.295	0.0
0.31	0.0
0.325	0.0
0.339	0.0
0.354	0.0
0.369	0.0
0.384	2.0
0.399	0.0
0.414	0.0
0.428	0.0
0.443	0.0
0.458	0.0
0.473	0.0
0.488	0.0
0.502	0.0
0.517	0.0
0.532	0.0
0.547	0.0
0.562	0.0
0.577	0.0
0.591	0.0
0.606	0.0
0.621	0.0
0.636	0.0
0.651	0.0
0.665	0.0
0.68	1.0
0.695	0.0
0.71	0.0
0.725	0.0
0.74	0.0
0.754	0.0
0.769	0.0
0.784	0.0
0.799	0.0
0.814	0.0
0.828	0.0
0.843	0.0
0.858	0.0
0.873	0.0
0.888	0.0
0.903	0.0
0.917	0.0
0.932	0.0
0.947	0.0
0.962	0.0
0.977	0.0
0.991	0.0
1.006	0.0
1.021	0.0
1.036	0.0
1.051	0.0
1.065	0.0
1.08	0.0
1.095	0.0
1.11	0.0
1.125	0.0
1.14	0.0
1.154	0.0
1.169	0.0
1.184	0.0
1.199	0.0
1.214	0.0
1.228	0.0
1.243	0.0
1.258	0.0
1.273	0.0
1.288	0.0
1.302	0.0
1.317	0.0
1.332	0.0
1.347	0.0
1.362	0.0
1.376	0.0
1.391	0.0
1.406	0.0
1.421	0.0
1.436	0.0
1.45	0.0
1.465	0.0
1.48	0.0
1.495	0.0
1.51	0.0
1.524	0.0
1.539	0.0
1.554	0.0
1.569	0.0
1.584	0.0
1.598	0.0
1.613	1.0
1.628	1.0
1.643	1.0
1.658	1.0
1.672	0.0
1.687	0.0
1.702	0.0
1.717	0.0
1.732	0.0
1.746	0.0
1.761	1.0
1.776	0.0
1.791	0.0
1.806	0.0
1.82	0.0
1.835	0.0
1.85	0.0
1.865	0.0
1.88	0.0
1.894	0.0
1.909	0.0
1.924	0.0
1.939	0.0
1.954	0.0
1.968	0.0
1.983	1.0
1.998	0.0
2.013	0.0
2.028	0.0
2.042	0.0
2.057	0.0
2.072	0.0
2.087	0.0
2.101	0.0
2.116	0.0
2.131	0.0
2.146	1.0
2.161	0.0
2.175	1.0
2.19	1.0
2.205	1.0
2.22	0.0
2.235	1.0
2.249	1.0
2.264	0.0
2.279	0.0
2.294	0.0
2.308	0.0
2.323	1.0
2.338	1.0
2.353	0.0
2.368	0.0
2.382	1.0
2.397	2.0
2.412	1.0
2.427	2.0
2.442	1.0
2.456	0.0
2.471	2.0
2.486	0.0
2.501	1.0
2.515	2.0
2.53	0.0
2.545	1.0
2.56	2.0
2.575	0.0
2.589	0.0
2.604	2.0
2.619	4.0
2.634	2.0
2.649	3.0
2.663	2.0
2.678	2.0
2.693	2.0
2.708	1.0
2.722	4.0
2.737	3.0
2.752	1.0
2.767	3.0
2.782	1.0
2.796	5.0
2.811	0.0
2.826	6.0
2.841	4.0
2.856	2.0
2.87	4.0
2.885	1.0
2.9	1.0
2.915	5.0
2.93	3.0
2.944	3.0
2.959	5.0
2.974	0.0
2.989	6.0
3.004	7.0
3.018	1.0
3.033	7.0
3.048	4.0
3.063	2.0
3.078	6.0
3.092	1.0
3.107	4.0
3.122	6.0
3.137	2.0
3.152	3.0
3.166	5.0
3.181	1.0
3.196	1.0
3.211	2.0
3.226	5.0
3.24	5.0
3.255	4.0
3.27	6.0
3.285	4.0
3.3	3.0
3.315	6.0
3.329	5.0
3.344	7.0
3.359	5.0
3.374	6.0
3.389	4.0
3.403	8.0
3.418	4.0
3.433	8.0
3.448	6.0
3.463	6.0
3.478	3.0
3.492	4.0
3.507	2.0
3.522	6.0
3.537	7.0
3.552	6.0
3.567	7.0
3.581	9.0
3.596	6.0
3.611	14.0
3.626	6.0
3.641	10.0
3.656	2.0
3.671	4.0
3.685	5.0
3.7	4.0
3.715	8.0
3.73	4.0
3.745	11.0
3.76	10.0
3.775	3.0
3.789	6.0
3.804	5.0
3.819	4.0
3.834	8.0
3.849	7.0
3.864	10.0
3.879	4.0
3.894	11.0
3.908	8.0
3.923	5.0
3.938	4.0
3.953	6.0
3.968	7.0
3.983	7.0
3.998	2.0
4.013	9.0
4.027	4.0
4.042	12.0
4.057	4.0
4.072	10.0
4.087	7.0
4.102	6.0
4.117	7.0
4.132	9.0
4.147	4.0
4.162	4.0
4.176	6.0
4.191	6.0
4.206	9.0
4.221	6.0
4.236	7.0
4.251	5.0
4.266	8.0
4.281	6.0
4.296	5.0
4.311	11.0
4.326	6.0
4.341	7.0
4.356	13.0
4.37	14.0
4.385	5.0
4.4	7.0
4.415	5.0
4.43	1.0
4.445	9.0
4.46	10.0
4.475	7.0
4.49	12.0
4.505	5.0
4.52	8.0
4.535	4.0
4.55	10.0
4.565	8.0
4.58	5.0
4.595	11.0
4.61	10.0
4.625	5.0
4.639	6.0
4.654	12.0
4.669	10.0
4.684	1.0
4.699	8.0
4.714	9.0
4.729	10.0
4.744	6.0
4.759	11.0
4.774	10.0
4.789	7.0
4.804	7.0
4.819	16.0
4.834	6.0
4.849	5.0
4.864	4.0
4.879	8.0
4.894	7.0
4.909	6.0
4.924	8.0
4.939	12.0
4.954	5.0
4.969	6.0
4.984	11.0
4.999	14.0
5.014	3.0
5.029	9.0
5.044	7.0
5.059	5.0
5.074	5.0
5.089	5.0
5.104	8.0
5.119	8.0
5.134	6.0
5.149	6.0
5.164	8.0
5.179	10.0
5.194	7.0
5.209	6.0
5.224	9.0
5.239	6.0
5.254	10.0
5.269	6.0
5.284	5.0
5.299	8.0
5.314	5.0
5.329	5.0
5.344	5.0
5.359	9.0
5.374	16.0
5.389	5.0
5.404	4.0
5.419	8.0
5.434	9.0
5.449	4.0
5.464	8.0
5.479	8.0
5.494	10.0
5.509	7.0
5.524	7.0
5.539	10.0
5.554	8.0
5.569	8.0
5.584	6.0
5.599	11.0
5.614	12.0
5.629	11.0
5.644	4.0
5.659	9.0
5.674	8.0
5.689	7.0
5.704	10.0
5.719	4.0
5.734	7.0
5.749	9.0
5.764	6.0
5.779	7.0
5.794	4.0
5.809	11.0
5.824	10.0
5.839	5.0
5.854	10.0
5.869	15.0
5.884	6.0
5.899	8.0
5.914	8.0
5.929	9.0
5.944	6.0
5.959	14.0
5.974	8.0
5.989	7.0
6.004	4.0
6.019	8.0
6.034	7.0
6.049	10.0
6.064	8.0
6.079	11.0
6.094	6.0
6.109	6.0
6.124	10.0
6.139	6.0
6.154	8.0
6.169	12.0
6.184	10.0
6.199	11.0
6.214	9.0
6.229	8.0
6.244	11.0
6.259	8.0
6.274	10.0
6.289	8.0
6.304	11.0
6.319	8.0
6.334	6.0
6.349	9.0
6.364	5.0
6.379	11.0
6.394	12.0
6.409	6.0
6.424	11.0
6.439	6.0
6.454	8.0
6.469	5.0
6.484	8.0
6.499	17.0
6.514	16.0
6.529	7.0
6.544	10.0
6.559	9.0
6.574	10.0
6.589	5.0
6.604	9.0
6.619	6.0
6.634	15.0
6.649	9.0
6.664	11.0
6.679	9.0
6.694	6.0
6.709	12.0
6.724	7.0
6.739	15.0
6.754	9.0
6.769	10.0
6.784	7.0
6.799	10.0
6.814	7.0
6.829	8.0
6.844	11.0
6.859	11.0
6.873	11.0
6.888	9.0
6.903	12.0
6.918	10.0
6.933	10.0
6.948	7.0
6.963	5.0
6.978	11.0
6.993	8.0
7.008	10.0
7.023	13.0
7.038	6.0
7.053	11.0
7.068	3.0
7.083	6.0
7.098	8.0
7.113	10.0
7.128	8.0
7.143	10.0
7.157	14.0
7.172	11.0
7.187	7.0
7.202	11.0
7.217	11.0
7.232	5.0
7.247	7.0
7.262	12.0
7.277	11.0
7.292	9.0
7.307	8.0
7.322	11.0
7.336	8.0
7.351	10.0
7.366	10.0
7.381	13.0
7.396	7.0
7.411	6.0
7.426	7.0
7.441	9.0
7.456	4.0
7.471	6.0
7.485	9.0
7.5	10.0
7.515	9.0
7.53	11.0
7.545	4.0
7.56	9.0
7.575	15.0
7.59	8.0
7.604	10.0
7.619	6.0
7.634	8.0
7.649	11.0
7.664	9.0
7.679	8.0
7.693	7.0
7.708	7.0
7.723	1.0
7.738	9.0
7.753	14.0
7.768	9.0
7.783	6.0
7.797	5.0
7.812	7.0
7.827	13.0
7.842	6.0
7.857	7.0
7.871	10.0
7.886	5.0
7.901	7.0
7.916	7.0
7.931	7.0
7.945	7.0
7.96	9.0
7.975	7.0
7.99	6.0
8.005	7.0
8.019	14.0
8.034	13.0
8.049	9.0
8.064	8.0
8.078	10.0
8.093	6.0
8.108	7.0
8.123	7.0
8.137	11.0
8.152	7.0
8.167	8.0
8.182	9.0
8.196	11.0
8.211	6.0
8.226	9.0
8.241	7.0
8.255	12.0
8.27	5.0
8.285	10.0
8.3	10.0
8.314	10.0
8.329	8.0
8.344	12.0
8.358	10.0
8.373	4.0
8.388	10.0
8.403	7.0
8.417	7.0
8.432	10.0
8.447	7.0
8.461	9.0
8.476	8.0
8.491	9.0
8.505	10.0
8.52	11.0
8.535	10.0
8.55	9.0
8.564	6.0
8.579	6.0
8.594	11.0
8.608	3.0
8.623	9.0
8.638	12.0
8.652	15.0
8.667	9.0
8.682	11.0
8.696	3.0
8.711	9.0
8.726	6.0
8.74	8.0
8.755	13.0
8.77	15.0
8.784	10.0
8.799	7.0
8.814	4.0
8.828	6.0
8.843	6.0
8.858	8.0
8.872	8.0
8.887	9.0
8.902	7.0
8.916	13.0
8.931	11.0
8.946	6.0
8.96	7.0
8.975	11.0
8.99	8.0
9.004	8.0
9.019	10.0
9.034	12.0
9.048	5.0
9.063	10.0
9.077	11.0
9.092	11.0
9.107	9.0
9.121	6.0
9.136	8.0
9.151	10.0
9.165	8.0
9.18	8.0
9.195	6.0
9.209	8.0
9.224	8.0
9.239	11.0
9.253	4.0
9.268	15.0
9.283	7.0
9.297	11.0
9.312	10.0
9.327	4.0
9.341	11.0
9.356	5.0
9.371	4.0
9.385	9.0
9.4	7.0
9.415	10.0
9.429	8.0
9.444	8.0
9.458	7.0
9.473	13.0
9.488	3.0
9.502	9.0
9.517	7.0
9.532	9.0
9.546	5.0
9.561	3.0
9.576	5.0
9.59	6.0
9.605	12.0
9.62	8.0
9.635	11.0
9.649	4.0
9.664	5.0
9.679	8.0
9.693	7.0
9.708	7.0
9.723	8.0
9.737	18.0
9.752	10.0
9.767	3.0
9.781	11.0
9.796	5.0
9.811	10.0
9.825	6.0
9.84	8.0
9.855	1.0
9.87	16.0
9.884	12.0
9.899	8.0
9.914	12.0
9.928	6.0
9.943	5.0
9.958	18.0
9.973	8.0
9.987	10.0
10.002	10.0
10.017	8.0
10.031	10.0
10.046	7.0
10.061	6.0
10.076	12.0
10.09	11.0
10.105	12.0
10.12	11.0
10.135	14.0
10.149	6.0
10.164	8.0
10.179	5.0
10.194	7.0
10.208	9.0
10.223	7.0
10.238	8.0
10.253	13.0
10.267	14.0
10.282	6.0
10.297	13.0
10.312	12.0
10.326	9.0
10.341	10.0
10.356	7.0
10.371	7.0
10.386	9.0
10.4	8.0
10.415	8.0
10.43	7.0
10.445	11.0
10.46	4.0
10.474	3.0
10.489	4.0
10.504	4.0
10.519	8.0
10.533	3.0
10.548	1.0
10.563	6.0
10.578	9.0
10.593	5.0
10.608	10.0
10.622	6.0
10.637	7.0
10.652	8.0
10.667	10.0
10.682	8.0
10.696	5.0
10.711	12.0
10.726	8.0
10.741	11.0
10.756	9.0
10.771	10.0
10.785	7.0
10.8	7.0
10.815	4.0
10.83	13.0
10.845	3.0
10.86	6.0
10.874	6.0
10.889	6.0
10.904	9.0
10.919	10.0
10.934	2.0
10.949	10.0
10.963	6.0
10.978	8.0
10.993	15.0
11.008	11.0
11.023	12.0
11.038	4.0
11.053	4.0
11.067	10.0
11.082	5.0
11.097	11.0
11.112	10.0
11.127	3.0
11.142	7.0
11.157	13.0
11.172	9.0
11.186	9.0
11.201	2.0
11.216	5.0
11.231	11.0
11.246	9.0
11.261	5.0
11.276	9.0
11.291	6.0
11.305	4.0
11.32	11.0
11.335	7.0
11.35	10.0
11.365	7.0
11.38	10.0
11.395	6.0
11.41	7.0
11.424	6.0
11.439	4.0
11.454	8.0
11.469	7.0
11.484	7.0
11.499	2.0
11.514	7.0
11.529	7.0
11.544	7.0
11.558	9.0
11.573	6.0
11.588	9.0
11.603	7.0
11.618	12.0
11.633	11.0
11.648	10.0
11.663	7.0
11.678	7.0
11.693	9.0
11.707	5.0
11.722	3.0
11.737	9.0
11.752	6.0
11.767	10.0
11.782	15.0
11.797	5.0
11.812	7.0
11.827	10.0
11.842	7.0
11.856	6.0
11.871	12.0
11.886	15.0
11.901	8.0
11.916	7.0
11.931	11.0
11.946	6.0
11.961	7.0
11.976	4.0
11.991	12.0
12.006	8.0
12.02	5.0
12.035	10.0
12.05	13.0
12.065	7.0
12.08	4.0
12.095	10.0
12.11	11.0
12.125	9.0
12.14	10.0
12.155	15.0
12.17	16.0
12.184	14.0
12.199	14.0
12.214	8.0
12.229	14.0
12.244	13.0
12.259	13.0
12.274	14.0
12.289	5.0
12.304	10.0
12.319	13.0
12.334	11.0
12.348	9.0
12.363	10.0
12.378	12.0
12.393	10.0
12.408	12.0
12.423	15.0
12.438	13.0
12.453	18.0
12.468	11.0
12.483	14.0
12.498	16.0
12.513	8.0
12.527	15.0
12.542	7.0
12.557	14.0
12.572	15.0
12.587	9.0
12.602	11.0
12.617	13.0
12.632	6.0
12.647	22.0
12.662	17.0
12.677	19.0
12.692	10.0
12.707	14.0
12.721	12.0
12.736	11.0
12.751	14.0
12.766	17.0
12.781	13.0
12.796	19.0
12.811	18.0
12.826	18.0
12.841	13.0
12.856	15.0
12.871	10.0
12.886	14.0
12.9	17.0
12.915	11.0
12.93	20.0
12.945	17.0
12.96	15.0
12.975	17.0
12.99	23.0
13.005	14.0
13.02	13.0
13.035	14.0
13.05	20.0
13.065	9.0
13.08	13.0
13.094	20.0
13.109	17.0
13.124	12.0
13.139	22.0
13.154	20.0
13.169	22.0
13.184	20.0
13.199	22.0
13.214	19.0
13.229	19.0
13.244	23.0
13.259	19.0
13.274	15.0
13.288	16.0
13.303	23.0
13.318	28.0
13.333	14.0
13.348	22.0
13.363	22.0
13.378	14.0
13.393	28.0
13.408	22.0
13.423	32.0
13.438	28.0
13.453	34.0
13.468	31.0
13.482	45.0
13.497	41.0
13.512	43.0
13.527	43.0
13.542	56.0
13.557	34.0
13.572	48.0
13.587	59.0
13.602	64.0
13.617	60.0
13.632	74.0
13.647	70.0
13.662	80.0
13.677	63.0
13.691	83.0
13.706	79.0
13.721	107.0
13.736	93.0
13.751	93.0
13.766	109.0
13.781	119.0
13.796	124.0
13.811	112.0
13.826	148.0
13.841	134.0
13.856	135.0
13.871	117.0
13.885	112.0
13.9	83.0
13.915	85.0
13.93	84.0
13.945	48.0
13.96	50.0
13.975	48.0
13.99	36.0
14.005	41.0
14.02	30.0
14.035	26.0
14.05	25.0
14.065	25.0
14.08	22.0
14.094	25.0
14.109	18.0
14.124	14.0
14.139	28.0
14.154	20.0
14.169	30.0
14.184	32.0
14.199	21.0
14.214	23.0
14.229	20.0
14.244	19.0
14.259	19.0
14.274	24.0
14.288	23.0
14.303	12.0
14.318	21.0
14.333	20.0
14.348	19.0
14.363	19.0
14.378	28.0
14.393	21.0
14.408	5.0
14.423	18.0
14.438	17.0
14.453	22.0
14.468	15.0
14.482	14.0
14.497	12.0
14.512	16.0
14.527	19.0
14.542	19.0
14.557	17.0
14.572	15.0
14.587	21.0
14.602	21.0
14.617	14.0
14.632	12.0
14.647	16.0
14.661	15.0
14.676	21.0
14.691	18.0
14.706	23.0
14.721	10.0
14.736	18.0
14.751	16.0
14.766	8.0
14.781	15.0
14.796	22.0
14.811	22.0
14.826	19.0
14.84	21.0
14.855	21.0
14.87	21.0
14.885	9.0
14.9	22.0
14.915	19.0
14.93	14.0
14.945	14.0
14.96	11.0
14.975	20.0
14.989	19.0
15.004	8.0
15.019	19.0
15.034	12.0
15.049	9.0
15.064	16.0
15.079	13.0
15.094	13.0
15.109	18.0
15.124	15.0
15.138	14.0
15.153	9.0
15.168	15.0
15.183	22.0
15.198	17.0
15.213	12.0
15.228	22.0
15.243	14.0
15.258	12.0
15.272	10.0
15.287	12.0
15.302	16.0
15.317	14.0
15.332	15.0
15.347	13.0
15.362	14.0
15.377	14.0
15.391	18.0
15.406	12.0
15.421	8.0
15.436	18.0
15.451	19.0
15.466	17.0
15.481	11.0
15.496	16.0
15.51	14.0
15.525	11.0
15.54	19.0
15.555	13.0
15.57	18.0
15.585	17.0
15.6	19.0
15.614	14.0
15.629	12.0
15.644	15.0
15.659	17.0
15.674	10.0
15.689	16.0
15.704	19.0
15.718	17.0
15.733	16.0
15.748	14.0
15.763	14.0
15.778	16.0
15.793	10.0
15.808	6.0
15.822	17.0
15.837	12.0
15.852	12.0
15.867	10.0
15.882	8.0
15.897	21.0
15.911	12.0
15.926	12.0
15.941	3.0
15.956	14.0
15.971	18.0
15.986	14.0
16.0	17.0
16.015	17.0
16.03	13.0
16.045	16.0
16.06	18.0
16.074	15.0
16.089	16.0
16.104	14.0
16.119	11.0
16.134	15.0
16.149	13.0
16.163	16.0
16.178	12.0
16.193	11.0
16.208	11.0
16.223	14.0
16.237	9.0
16.252	12.0
16.267	18.0
16.282	12.0
16.297	15.0
16.311	11.0
16.326	10.0
16.341	10.0
16.356	23.0
16.37	12.0
16.385	13.0
16.4	15.0
16.415	11.0
16.43	14.0
16.444	14.0
16.459	18.0
16.474	15.0
16.489	13.0
16.504	15.0
16.518	9.0
16.533	20.0
16.548	8.0
16.563	18.0
16.577	16.0
16.592	15.0
16.607	13.0
16.622	17.0
16.637	20.0
16.651	17.0
16.666	35.0
16.681	18.0
16.696	19.0
16.71	18.0
16.725	42.0
16.74	22.0
16.755	40.0
16.77	41.0
16.784	29.0
16.799	38.0
16.814	40.0
16.829	53.0
16.843	39.0
16.858	63.0
16.873	50.0
16.888	66.0
16.902	77.0
16.917	70.0
16.932	65.0
16.947	78.0
16.961	67.0
16.976	67.0
16.991	69.0
17.006	90.0
17.021	57.0
17.035	51.0
17.05	42.0
17.065	47.0
17.08	46.0
17.094	26.0
17.109	29.0
17.124	25.0
17.139	33.0
17.153	12.0
17.168	25.0
17.183	21.0
17.198	13.0
17.212	25.0
17.227	18.0
17.242	14.0
17.257	19.0
17.271	16.0
17.286	13.0
17.301	16.0
17.316	12.0
17.33	15.0
17.345	8.0
17.36	19.0
17.375	11.0
17.39	26.0
17.404	12.0
17.419	11.0
17.434	13.0
17.449	10.0
17.463	7.0
17.478	18.0
17.493	21.0
17.508	8.0
17.522	14.0
17.537	10.0
17.552	8.0
17.567	20.0
17.581	18.0
17.596	10.0
17.611	10.0
17.626	21.0
17.641	9.0
17.655	11.0
17.67	11.0
17.685	5.0
17.7	12.0
17.714	12.0
17.729	14.0
17.744	13.0
17.759	8.0
17.773	11.0
17.788	17.0
17.803	14.0
17.818	15.0
17.833	11.0
17.847	12.0
17.862	8.0
17.877	16.0
17.892	14.0
17.906	8.0
17.921	12.0
17.936	11.0
17.951	16.0
17.966	9.0
17.98	11.0
17.995	10.0
18.01	7.0
18.025	10.0
18.04	9.0
18.054	8.0
18.069	16.0
18.084	17.0
18.099	13.0
18.114	13.0
18.128	12.0
18.143	11.0
18.158	24.0
18.173	9.0
18.188	12.0
18.202	16.0
18.217	12.0
18.232	11.0
18.247	11.0
18.262	14.0
18.276	14.0
18.291	11.0
18.306	8.0
18.321	15.0
18.336	13.0
18.35	10.0
18.365	21.0
18.38	18.0
18.395	10.0
18.41	8.0
18.424	13.0
18.439	10.0
18.454	10.0
18.469	13.0
18.484	12.0
18.498	18.0
18.513	19.0
18.528	16.0
18.543	3.0
18.558	10.0
18.573	16.0
18.587	8.0
18.602	10.0
18.617	10.0
18.632	7.0
18.647	7.0
18.661	11.0
18.676	10.0
18.691	14.0
18.706	14.0
18.721	8.0
18.736	14.0
18.75	16.0
18.765	16.0
18.78	7.0
18.795	15.0
18.81	9.0
18.825	16.0
18.839	6.0
18.854	10.0
18.869	9.0
18.884	7.0
18.899	7.0
18.913	16.0
18.928	16.0
18.943	10.0
18.958	10.0
18.973	11.0
18.988	11.0
19.002	14.0
19.017	10.0
19.032	13.0
19.047	10.0
19.062	14.0
19.077	9.0
19.091	9.0
19.106	11.0
19.121	10.0
19.136	13.0
19.151	12.0
19.165	10.0
19.18	14.0
19.195	8.0
19.21	13.0
19.225	22.0
19.24	13.0
19.254	11.0
19.269	15.0
19.284	12.0
19.299	11.0
19.314	15.0
19.329	21.0
19.343	17.0
19.358	18.0
19.373	13.0
19.388	12.0
19.403	18.0
19.417	25.0
19.432	27.0
19.447	32.0
19.462	24.0
19.477	24.0
19.492	25.0
19.506	29.0
19.521	38.0
19.536	44.0
19.551	36.0
19.566	47.0
19.58	32.0
19.595	44.0
19.61	46.0
19.625	40.0
19.64	49.0
19.655	32.0
19.669	35.0
19.684	43.0
19.699	29.0
19.714	25.0
19.729	31.0
19.743	29.0
19.758	24.0
19.773	26.0
19.788	20.0
19.803	14.0
19.817	23.0
19.832	12.0
19.847	9.0
19.862	14.0
19.877	10.0
19.891	13.0
19.906	8.0
19.921	13.0
19.936	16.0
19.951	12.0
19.965	12.0
19.98	16.0
19.995	11.0
20.01	8.0
20.025	9.0
20.039	12.0
20.054	11.0
20.069	12.0
20.084	10.0
20.099	15.0
20.113	12.0
20.128	8.0
20.143	5.0
20.158	18.0
20.173	12.0
20.187	12.0
20.202	12.0
20.217	14.0
20.232	14.0
20.246	11.0
20.261	16.0
20.276	15.0
20.291	17.0
20.306	12.0
20.32	8.0
20.335	14.0
20.35	14.0
20.365	12.0
20.38	16.0
20.394	10.0
20.409	8.0
20.424	18.0
20.439	9.0
20.453	10.0
20.468	8.0
20.483	13.0
20.498	8.0
20.513	17.0
20.527	7.0
20.542	10.0
20.557	11.0
20.572	13.0
20.586	19.0
20.601	14.0
20.616	12.0
20.631	7.0
20.646	8.0
20.66	13.0
20.675	12.0
20.69	9.0
20.705	13.0
20.719	12.0
20.734	8.0
20.749	6.0
20.764	6.0
20.779	11.0
20.793	11.0
20.808	6.0
20.823	7.0
20.838	13.0
20.853	9.0
20.867	19.0
20.882	11.0
20.897	13.0
20.912	18.0
20.926	8.0
20.941	21.0
20.956	12.0
20.971	6.0
20.986	12.0
21.0	13.0
21.015	9.0
21.03	12.0
21.045	8.0
21.06	14.0
21.074	13.0
21.089	14.0
21.104	10.0
21.119	10.0
21.134	15.0
21.148	11.0
21.163	6.0
21.178	15.0
21.193	11.0
21.208	10.0
21.222	8.0
21.237	11.0
21.252	10.0
21.267	12.0
21.282	11.0
21.296	9.0
21.311	13.0
21.326	10.0
21.341	15.0
21.356	12.0
21.37	11.0
21.385	12.0
21.4	12.0
21.415	13.0
21.43	14.0
21.444	12.0
21.459	13.0
21.474	18.0
21.489	8.0
21.504	19.0
21.519	21.0
21.533	17.0
21.548	12.0
21.563	13.0
21.578	9.0
21.593	23.0
21.608	16.0
21.622	15.0
21.637	13.0
21.652	25.0
21.667	24.0
21.682	15.0
21.697	23.0
21.712	20.0
21.726	21.0
21.741	19.0
21.756	22.0
21.771	22.0
21.786	28.0
21.801	28.0
21.816	36.0
21.83	53.0
21.845	42.0
21.86	62.0
21.875	56.0
21.89	93.0
21.905	69.0
21.92	70.0
21.935	86.0
21.949	84.0
21.964	97.0
21.979	84.0
21.994	63.0
22.009	72.0
22.024	68.0
22.039	48.0
22.054	61.0
22.069	54.0
22.083	48.0
22.098	47.0
22.113	43.0
22.128	41.0
22.143	35.0
22.158	29.0
22.173	20.0
22.188	17.0
22.203	15.0
22.218	28.0
22.233	14.0
22.248	9.0
22.262	11.0
22.277	13.0
22.292	19.0
22.307	17.0
22.322	8.0
22.337	11.0
22.352	9.0
22.367	16.0
22.382	9.0
22.397	12.0
22.412	9.0
22.427	18.0
22.442	12.0
22.457	15.0
22.472	19.0
22.487	12.0
22.502	14.0
22.516	18.0
22.531	16.0
22.546	13.0
22.561	15.0
22.576	15.0
22.591	17.0
22.606	4.0
22.621	12.0
22.636	9.0
22.651	11.0
22.666	11.0
22.681	9.0
22.696	10.0
22.711	8.0
22.726	8.0
22.741	17.0
22.756	21.0
22.771	9.0
22.786	13.0
22.801	10.0
22.816	9.0
22.831	11.0
22.846	10.0
22.861	9.0
22.876	15.0
22.891	9.0
22.906	13.0
22.92	11.0
22.935	11.0
22.95	10.0
22.965	22.0
22.98	8.0
22.995	12.0
23.01	12.0
23.025	13.0
23.04	9.0
23.055	15.0
23.07	15.0
23.085	4.0
23.1	8.0
23.115	6.0
23.13	8.0
23.145	4.0
23.16	9.0
23.175	14.0
23.19	14.0
23.205	12.0
23.22	11.0
23.235	12.0
23.25	8.0
23.265	7.0
23.28	8.0
23.295	6.0
23.31	6.0
23.325	13.0
23.34	15.0
23.355	10.0
23.37	4.0
23.384	12.0
23.399	7.0
23.414	15.0
23.429	11.0
23.444	16.0
23.459	11.0
23.474	15.0
23.489	9.0
23.504	11.0
23.519	12.0
23.534	14.0
23.549	8.0
23.564	16.0
23.579	12.0
23.594	10.0
23.609	21.0
23.624	11.0
23.639	11.0
23.654	13.0
23.668	10.0
23.683	20.0
23.698	11.0
23.713	14.0
23.728	16.0
23.743	13.0
23.758	14.0
23.773	9.0
23.788	13.0
23.803	14.0
23.818	7.0
23.833	15.0
23.848	18.0
23.862	19.0
23.877	19.0
23.892	17.0
23.907	16.0
23.922	26.0
23.937	19.0
23.952	23.0
23.967	29.0
23.982	44.0
23.997	31.0
24.011	49.0
24.026	48.0
24.041	42.0
24.056	43.0
24.071	51.0
24.086	50.0
24.101	40.0
24.116	46.0
24.131	43.0
24.145	56.0
24.16	43.0
24.175	49.0
24.19	42.0
24.205	31.0
24.22	35.0
24.235	33.0
24.249	26.0
24.264	32.0
24.279	22.0
24.294	19.0
24.309	17.0
24.324	22.0
24.338	18.0
24.353	13.0
24.368	14.0
24.383	9.0
24.398	11.0
24.413	14.0
24.428	12.0
24.442	13.0
24.457	12.0
24.472	23.0
24.487	4.0
24.502	7.0
24.516	12.0
24.531	12.0
24.546	8.0
24.561	15.0
24.576	13.0
24.591	11.0
24.605	10.0
24.62	14.0
24.635	13.0
24.65	11.0
24.665	11.0
24.679	10.0
24.694	17.0
24.709	11.0
24.724	8.0
24.739	13.0
24.753	9.0
24.768	5.0
24.783	11.0
24.798	17.0
24.813	7.0
24.827	11.0
24.842	14.0
24.857	8.0
24.872	10.0
24.886	9.0
24.901	8.0
24.916	7.0
24.931	15.0
24.946	6.0
24.96	11.0
24.975	8.0
24.99	10.0
25.005	12.0
25.019	7.0
25.034	17.0
25.049	9.0
25.064	15.0
25.078	9.0
25.093	10.0
25.108	10.0
25.123	10.0
25.138	11.0
25.152	5.0
25.167	9.0
25.182	9.0
25.197	6.0
25.211	10.0
25.226	10.0
25.241	8.0
25.256	11.0
25.27	8.0
25.285	11.0
25.3	12.0
25.315	6.0
25.329	5.0
25.344	6.0
25.359	9.0
25.374	9.0
25.388	12.0
25.403	16.0
25.418	9.0
25.433	5.0
25.447	12.0
25.462	15.0
25.477	10.0
25.492	11.0
25.506	12.0
25.521	11.0
25.536	13.0
25.55	14.0
25.565	11.0
25.58	14.0
25.595	9.0
25.609	17.0
25.624	10.0
25.639	18.0
25.654	10.0
25.668	9.0
25.683	6.0
25.698	15.0
25.713	6.0
25.727	11.0
25.742	7.0
25.757	13.0
25.772	10.0
25.786	9.0
25.801	8.0
25.816	8.0
25.83	22.0
25.845	8.0
25.86	18.0
25.875	8.0
25.889	11.0
25.904	12.0
25.919	4.0
25.934	6.0
25.948	10.0
25.963	10.0
25.978	17.0
25.992	11.0
26.007	8.0
26.022	5.0
26.037	15.0
26.051	13.0
26.066	3.0
26.081	13.0
26.096	7.0
26.11	12.0
26.125	11.0
26.14	6.0
26.155	10.0
26.169	7.0
26.184	5.0
26.199	10.0
26.213	10.0
26.228	17.0
26.243	6.0
26.258	8.0
26.272	5.0
26.287	9.0
26.302	5.0
26.317	11.0
26.331	12.0
26.346	13.0
26.361	7.0
26.376	7.0
26.39	4.0
26.405	8.0
26.42	12.0
26.434	9.0
26.449	7.0
26.464	5.0
26.479	10.0
26.493	14.0
26.508	8.0
26.523	14.0
26.538	7.0
26.552	12.0
26.567	9.0
26.582	11.0
26.597	10.0
26.611	14.0
26.626	18.0
26.641	6.0
26.656	10.0
26.67	7.0
26.685	13.0
26.7	13.0
26.715	9.0
26.729	8.0
26.744	11.0
26.759	12.0
26.773	13.0
26.788	15.0
26.803	5.0
26.818	5.0
26.832	17.0
26.847	10.0
26.862	11.0
26.877	9.0
26.891	13.0
26.906	7.0
26.921	4.0
26.936	6.0
26.95	6.0
26.965	8.0
26.98	14.0
26.995	13.0
27.01	7.0
27.024	10.0
27.039	8.0
27.054	12.0
27.069	13.0
27.083	20.0
27.098	13.0
27.113	14.0
27.128	8.0
27.142	6.0
27.157	9.0
27.172	9.0
27.187	9.0
27.201	13.0
27.216	17.0
27.231	8.0
27.246	6.0
27.261	9.0
27.275	3.0
27.29	11.0
27.305	15.0
27.32	11.0
27.334	11.0
27.349	17.0
27.364	8.0
27.379	8.0
27.394	5.0
27.408	10.0
27.423	16.0
27.438	6.0
27.453	9.0
27.467	8.0
27.482	9.0
27.497	10.0
27.512	11.0
27.527	12.0
27.541	12.0
27.556	8.0
27.571	7.0
27.586	8.0
27.601	10.0
27.615	16.0
27.63	12.0
27.645	13.0
27.66	9.0
27.675	12.0
27.689	18.0
27.704	21.0
27.719	15.0
27.734	14.0
27.749	18.0
27.763	19.0
27.778	11.0
27.793	25.0
27.808	13.0
27.823	24.0
27.838	19.0
27.852	20.0
27.867	31.0
27.882	20.0
27.897	22.0
27.912	20.0
27.926	22.0
27.941	28.0
27.956	26.0
27.971	16.0
27.986	17.0
28.001	15.0
28.015	14.0
28.03	20.0
28.045	21.0
28.06	13.0
28.075	17.0
28.09	20.0
28.105	10.0
28.119	14.0
28.134	15.0
28.149	16.0
28.164	19.0
28.179	5.0
28.194	6.0
28.208	7.0
28.223	10.0
28.238	8.0
28.253	17.0
28.268	7.0
28.283	11.0
28.298	10.0
28.312	9.0
28.327	9.0
28.342	17.0
28.357	10.0
28.372	10.0
28.387	8.0
28.402	12.0
28.417	10.0
28.431	12.0
28.446	16.0
28.461	16.0
28.476	11.0
28.491	11.0
28.506	8.0
28.521	16.0
28.536	11.0
28.55	9.0
28.565	10.0
28.58	11.0
28.595	9.0
28.61	11.0
28.625	11.0
28.64	16.0
28.655	5.0
28.669	7.0
28.684	12.0
28.699	9.0
28.714	10.0
28.729	12.0
28.744	12.0
28.759	13.0
28.774	6.0
28.788	10.0
28.803	7.0
28.818	7.0
28.833	10.0
28.848	10.0
28.863	12.0
28.878	12.0
28.893	20.0
28.908	13.0
28.922	16.0
28.937	10.0
28.952	16.0
28.967	8.0
28.982	14.0
28.997	9.0
29.012	11.0
29.027	9.0
29.041	11.0
29.056	7.0
29.071	14.0
29.086	10.0
29.101	13.0
29.116	13.0
29.131	6.0
29.146	11.0
29.16	8.0
29.175	17.0
29.19	13.0
29.205	10.0
29.22	11.0
29.235	17.0
29.25	8.0
29.265	12.0
29.279	10.0
29.294	10.0
29.309	4.0
29.324	14.0
29.339	19.0
29.354	13.0
29.369	13.0
29.384	21.0
29.398	16.0
29.413	17.0
29.428	20.0
29.443	11.0
29.458	23.0
29.473	36.0
29.488	24.0
29.502	24.0
29.517	40.0
29.532	37.0
29.547	49.0
29.562	42.0
29.577	52.0
29.592	57.0
29.606	39.0
29.621	64.0
29.636	53.0
29.651	47.0
29.666	43.0
29.681	59.0
29.695	43.0
29.71	41.0
29.725	37.0
29.74	29.0
29.755	35.0
29.77	29.0
29.784	27.0
29.799	28.0
29.814	25.0
29.829	29.0
29.844	23.0
29.859	16.0
29.873	21.0
29.888	17.0
29.903	22.0
29.918	20.0
29.933	16.0
29.947	13.0
29.962	17.0
29.977	12.0
29.992	11.0
30.007	9.0
30.021	10.0
30.036	9.0
30.051	12.0
30.066	7.0
30.081	15.0
30.095	11.0
30.11	17.0
30.125	9.0
30.14	18.0
30.155	9.0
30.169	12.0
30.184	12.0
30.199	13.0
30.214	11.0
30.228	9.0
30.243	11.0
30.258	19.0
30.273	15.0
30.288	13.0
30.302	11.0
30.317	15.0
30.332	9.0
30.347	11.0
30.361	9.0
30.376	14.0
30.391	11.0
30.406	6.0
30.42	13.0
30.435	10.0
30.45	22.0
30.465	13.0
30.479	8.0
30.494	13.0
30.509	18.0
30.524	10.0
30.538	13.0
30.553	11.0
30.568	11.0
30.583	14.0
30.597	11.0
30.612	12.0
30.627	14.0
30.641	14.0
30.656	13.0
30.671	10.0
30.686	5.0
30.7	11.0
30.715	10.0
30.73	12.0
30.745	6.0
30.759	13.0
30.774	5.0
30.789	15.0
30.803	14.0
30.818	7.0
30.833	8.0
30.848	5.0
30.862	15.0
30.877	14.0
30.892	10.0
30.906	9.0
30.921	13.0
30.936	9.0
30.951	5.0
30.965	12.0
30.98	10.0
30.995	12.0
31.009	12.0
31.024	13.0
31.039	13.0
31.053	11.0
31.068	11.0
31.083	19.0
31.098	12.0
31.112	16.0
31.127	15.0
31.142	21.0
31.156	18.0
31.171	24.0
31.186	30.0
31.2	41.0
31.215	31.0
31.23	45.0
31.245	41.0
31.259	38.0
31.274	41.0
31.289	42.0
31.303	39.0
31.318	42.0
31.333	41.0
31.347	32.0
31.362	26.0
31.377	29.0
31.392	22.0
31.406	27.0
31.421	24.0
31.436	31.0
31.45	29.0
31.465	24.0
31.48	36.0
31.494	19.0
31.509	22.0
31.524	14.0
31.538	15.0
31.553	15.0
31.568	21.0
31.583	11.0
31.597	11.0
31.612	15.0
31.627	11.0
31.641	12.0
31.656	10.0
31.671	2.0
31.685	12.0
31.7	15.0
31.715	11.0
31.729	11.0
31.744	10.0
31.759	19.0
31.774	17.0
31.788	10.0
31.803	16.0
31.818	7.0
31.832	12.0
31.847	7.0
31.862	9.0
31.876	5.0
31.891	13.0
31.906	8.0
31.92	9.0
31.935	12.0
31.95	9.0
31.965	10.0
31.979	12.0
31.994	9.0
32.009	14.0
32.023	15.0
32.038	10.0
32.053	12.0
32.067	10.0
32.082	10.0
32.097	11.0
32.112	6.0
32.126	10.0
32.141	9.0
32.156	7.0
32.17	10.0
32.185	11.0
32.2	9.0
32.214	8.0
32.229	9.0
32.244	10.0
32.259	15.0
32.273	7.0
32.288	10.0
32.303	13.0
32.317	7.0
32.332	14.0
32.347	10.0
32.362	10.0
32.376	15.0
32.391	14.0
32.406	17.0
32.42	10.0
32.435	14.0
32.45	8.0
32.465	10.0
32.479	10.0
32.494	14.0
32.509	9.0
32.523	15.0
32.538	10.0
32.553	8.0
32.568	6.0
32.582	12.0
32.597	9.0
32.612	8.0
32.627	11.0
32.641	6.0
32.656	10.0
32.671	18.0
32.685	13.0
32.7	24.0
32.715	23.0
32.73	16.0
32.744	20.0
32.759	23.0
32.774	20.0
32.788	30.0
32.803	27.0
32.818	25.0
32.833	23.0
32.847	19.0
32.862	19.0
32.877	20.0
32.892	21.0
32.906	26.0
32.921	19.0
32.936	15.0
32.951	21.0
32.965	12.0
32.98	30.0
32.995	14.0
33.009	19.0
33.024	20.0
33.039	14.0
33.054	25.0
33.068	10.0
33.083	12.0
33.098	13.0
33.113	8.0
33.127	9.0
33.142	7.0
33.157	19.0
33.172	8.0
33.186	5.0
33.201	10.0
33.216	7.0
33.231	14.0
33.245	11.0
33.26	9.0
33.275	10.0
33.29	9.0
33.304	4.0
33.319	4.0
33.334	11.0
33.349	10.0
33.363	15.0
33.378	8.0
33.393	10.0
33.408	19.0
33.422	9.0
33.437	13.0
33.452	10.0
33.467	5.0
33.481	12.0
33.496	8.0
33.511	12.0
33.526	9.0
33.54	7.0
33.555	15.0
33.57	8.0
33.585	12.0
33.599	12.0
33.614	15.0
33.629	12.0
33.644	10.0
33.658	5.0
33.673	11.0
33.688	11.0
33.703	9.0
33.718	3.0
33.732	14.0
33.747	13.0
33.762	8.0
33.777	9.0
33.791	13.0
33.806	9.0
33.821	14.0
33.836	10.0
33.85	10.0
33.865	12.0
33.88	15.0
33.895	7.0
33.91	10.0
33.924	6.0
33.939	11.0
33.954	11.0
33.969	10.0
33.983	10.0
33.998	15.0
34.013	15.0
34.028	8.0
34.042	6.0
34.057	7.0
34.072	13.0
34.087	12.0
34.102	17.0
34.116	16.0
34.131	13.0
34.146	9.0
34.161	8.0
34.175	12.0
34.19	15.0
34.205	10.0
34.22	8.0
34.235	12.0
34.249	16.0
34.264	15.0
34.279	16.0
34.294	15.0
34.309	16.0
34.323	13.0
34.338	19.0
34.353	15.0
34.368	8.0
34.382	17.0
34.397	16.0
34.412	11.0
34.427	11.0
34.442	12.0
34.456	12.0
34.471	8.0
34.486	12.0
34.501	11.0
34.516	16.0
34.53	13.0
34.545	5.0
34.56	13.0
34.575	15.0
34.59	6.0
34.604	5.0
34.619	10.0
34.634	12.0
34.649	8.0
34.664	7.0
34.678	5.0
34.693	7.0
34.708	17.0
34.723	5.0
34.738	11.0
34.752	10.0
34.767	10.0
34.782	5.0
34.797	10.0
34.812	8.0
34.826	11.0
34.841	11.0
34.856	13.0
34.871	10.0
34.886	9.0
34.9	9.0
34.915	11.0
34.93	11.0
34.945	12.0
34.96	4.0
34.974	10.0
34.989	5.0
35.004	7.0
35.019	11.0
35.034	4.0
35.048	11.0
35.063	12.0
35.078	9.0
35.093	4.0
35.108	10.0
35.122	10.0
35.137	6.0
35.152	13.0
35.167	8.0
35.182	11.0
35.196	7.0
35.211	9.0
35.226	12.0
35.241	12.0
35.256	16.0
35.27	15.0
35.285	6.0
35.3	9.0
35.315	10.0
35.33	9.0
35.344	3.0
35.359	4.0
35.374	5.0
35.389	12.0
35.404	3.0
35.418	9.0
35.433	9.0
35.448	12.0
35.463	9.0
35.478	6.0
35.493	5.0
35.507	8.0
35.522	8.0
35.537	13.0
35.552	10.0
35.567	12.0
35.581	16.0
35.596	5.0
35.611	8.0
35.626	16.0
35.641	10.0
35.655	11.0
35.67	12.0
35.685	18.0
35.7	16.0
35.715	22.0
35.729	22.0
35.744	12.0
35.759	24.0
35.774	26.0
35.789	21.0
35.804	13.0
35.818	19.0
35.833	17.0
35.848	16.0
35.863	17.0
35.878	21.0
35.892	16.0
35.907	15.0
35.922	14.0
35.937	12.0
35.952	12.0
35.966	13.0
35.981	8.0
35.996	18.0
36.011	10.0
36.026	10.0
36.04	16.0
36.055	11.0
36.07	12.0
36.085	6.0
36.1	11.0
36.114	12.0
36.129	13.0
36.144	11.0
36.159	8.0
36.174	12.0
36.189	8.0
36.203	10.0
36.218	10.0
36.233	13.0
36.248	9.0
36.263	5.0
36.277	11.0
36.292	6.0
36.307	6.0
36.322	11.0
36.337	7.0
36.351	4.0
36.366	7.0
36.381	6.0
36.396	7.0
36.411	14.0
36.426	19.0
36.44	8.0
36.455	8.0
36.47	8.0
36.485	7.0
36.5	4.0
36.514	9.0
36.529	4.0
36.544	14.0
36.559	9.0
36.574	12.0
36.589	6.0
36.603	10.0
36.618	9.0
36.633	6.0
36.648	8.0
36.663	6.0
36.677	10.0
36.692	6.0
36.707	7.0
36.722	5.0
36.737	8.0
36.752	7.0
36.766	12.0
36.781	12.0
36.796	4.0
36.811	13.0
36.826	12.0
36.841	12.0
36.855	6.0
36.87	5.0
36.885	4.0
36.9	13.0
36.915	9.0
36.93	12.0
36.944	5.0
36.959	9.0
36.974	11.0
36.989	9.0
37.004	13.0
37.019	11.0
37.033	9.0
37.048	9.0
37.063	12.0
37.078	23.0
37.093	11.0
37.108	24.0
37.123	16.0
37.137	23.0
37.152	25.0
37.167	30.0
37.182	35.0
37.197	23.0
37.212	26.0
37.226	22.0
37.241	25.0
37.256	17.0
37.271	18.0
37.286	20.0
37.301	24.0
37.316	15.0
37.331	17.0
37.345	13.0
37.36	17.0
37.375	18.0
37.39	18.0
37.405	24.0
37.42	12.0
37.435	19.0
37.45	19.0
37.464	18.0
37.479	17.0
37.494	11.0
37.509	9.0
37.524	8.0
37.539	6.0
37.554	9.0
37.569	2.0
37.583	10.0
37.598	5.0
37.613	12.0
37.628	9.0
37.643	9.0
37.658	3.0
37.673	10.0
37.688	8.0
37.703	5.0
37.718	7.0
37.733	9.0
37.747	4.0
37.762	5.0
37.777	11.0
37.792	8.0
37.807	7.0
37.822	7.0
37.837	8.0
37.852	8.0
37.867	4.0
37.882	7.0
37.897	12.0
37.912	12.0
37.927	7.0
37.941	7.0
37.956	9.0
37.971	6.0
37.986	6.0
38.001	9.0
38.016	2.0
38.031	10.0
38.046	6.0
38.061	5.0
38.076	8.0
38.091	11.0
38.106	6.0
38.121	3.0
38.136	7.0
38.151	5.0
38.166	10.0
38.181	7.0
38.196	7.0
38.211	5.0
38.226	7.0
38.241	9.0
38.256	5.0
38.271	4.0
38.285	9.0
38.3	4.0
38.315	7.0
38.33	8.0
38.345	4.0
38.36	4.0
38.375	5.0
38.39	7.0
38.405	7.0
38.42	7.0
38.435	8.0
38.45	8.0
38.465	6.0
38.48	7.0
38.495	3.0
38.51	7.0
38.525	11.0
38.54	15.0
38.555	9.0
38.57	4.0
38.585	8.0
38.6	11.0
38.615	9.0
38.63	4.0
38.645	4.0
38.66	5.0
38.675	11.0
38.69	7.0
38.705	4.0
38.72	8.0
38.735	3.0
38.75	8.0
38.765	7.0
38.78	6.0
38.795	9.0
38.81	7.0
38.825	7.0
38.84	6.0
38.855	10.0
38.87	4.0
38.885	5.0
38.9	8.0
38.915	8.0
38.93	3.0
38.945	6.0
38.96	8.0
38.975	7.0
38.99	4.0
39.005	5.0
39.02	7.0
39.035	11.0
39.05	11.0
39.065	7.0
39.08	6.0
39.095	5.0
39.11	6.0
39.125	6.0
39.14	3.0
39.155	6.0
39.17	4.0
39.185	6.0
39.2	6.0
39.215	4.0
39.23	4.0
39.245	4.0
39.26	7.0
39.275	10.0
39.29	5.0
39.305	8.0
39.32	7.0
39.335	9.0
39.35	6.0
39.365	7.0
39.38	4.0
39.395	3.0
39.409	9.0
39.424	4.0
39.439	7.0
39.454	10.0
39.469	11.0
39.484	13.0
39.499	13.0
39.514	5.0
39.529	10.0
39.544	4.0
39.559	7.0
39.574	8.0
39.589	7.0
39.604	6.0
39.619	4.0
39.634	4.0
39.649	5.0
39.664	8.0
39.678	10.0
39.693	6.0
39.708	4.0
39.723	3.0
39.738	6.0
39.753	7.0
39.768	9.0
39.783	10.0
39.798	4.0
39.813	13.0
39.827	13.0
39.842	10.0
39.857	7.0
39.872	8.0
39.887	9.0
39.902	6.0
39.917	6.0
39.932	6.0
39.947	6.0
39.961	3.0
39.976	7.0
39.991	2.0
40.006	10.0
40.021	5.0
40.036	9.0
40.051	7.0
40.065	4.0
40.08	9.0
40.095	5.0
40.11	10.0
40.125	9.0
40.14	9.0
40.154	6.0
40.169	6.0
40.184	6.0
40.199	11.0
40.214	10.0
40.228	8.0
40.243	2.0
40.258	11.0
40.273	5.0
40.288	7.0
40.302	11.0
40.317	6.0
40.332	5.0
40.347	9.0
40.362	8.0
40.376	1.0
40.391	4.0
40.406	11.0
40.421	6.0
40.436	6.0
40.45	7.0
40.465	2.0
40.48	5.0
40.495	6.0
40.509	2.0
40.524	4.0
40.539	3.0
40.554	9.0
40.568	2.0
40.583	5.0
40.598	3.0
40.613	8.0
40.627	4.0
40.642	11.0
40.657	9.0
40.672	3.0
40.686	4.0
40.701	5.0
40.716	5.0
40.731	7.0
40.745	6.0
40.76	5.0
40.775	4.0
40.79	5.0
40.804	3.0
40.819	4.0
40.834	1.0
40.849	8.0
40.863	3.0
40.878	8.0
40.893	5.0
40.907	3.0
40.922	8.0
40.937	12.0
40.952	5.0
40.966	6.0
40.981	6.0
40.996	6.0
41.011	13.0
41.025	11.0
41.04	14.0
41.055	14.0
41.069	22.0
41.084	15.0
41.099	10.0
41.114	23.0
41.128	13.0
41.143	16.0
41.158	17.0
41.173	17.0
41.187	17.0
41.202	17.0
41.217	14.0
41.231	22.0
41.246	7.0
41.261	7.0
41.276	11.0
41.29	14.0
41.305	9.0
41.32	14.0
41.335	8.0
41.349	10.0
41.364	9.0
41.379	15.0
41.393	17.0
41.408	9.0
41.423	15.0
41.438	17.0
41.452	10.0
41.467	10.0
41.482	7.0
41.497	4.0
41.511	9.0
41.526	4.0
41.541	10.0
41.556	8.0
41.57	4.0
41.585	7.0
41.6	5.0
41.615	5.0
41.629	6.0
41.644	9.0
41.659	4.0
41.674	6.0
41.688	8.0
41.703	4.0
41.718	4.0
41.733	9.0
41.747	6.0
41.762	3.0
41.777	2.0
41.792	4.0
41.806	12.0
41.821	7.0
41.836	5.0
41.851	2.0
41.866	6.0
41.88	8.0
41.895	2.0
41.91	8.0
41.925	1.0
41.939	8.0
41.954	6.0
41.969	11.0
41.984	4.0
41.999	8.0
42.013	2.0
42.028	7.0
42.043	4.0
42.058	3.0
42.073	10.0
42.088	8.0
42.102	7.0
42.117	8.0
42.132	5.0
42.147	3.0
42.162	8.0
42.176	7.0
42.191	5.0
42.206	5.0
42.221	8.0
42.236	7.0
42.251	7.0
42.266	7.0
42.28	9.0
42.295	13.0
42.31	13.0
42.325	10.0
42.34	12.0
42.355	16.0
42.369	14.0
42.384	13.0
42.399	20.0
42.414	25.0
42.429	23.0
42.444	15.0
42.459	11.0
42.474	11.0
42.488	15.0
42.503	18.0
42.518	6.0
42.533	17.0
42.548	11.0
42.563	12.0
42.578	8.0
42.593	12.0
42.608	15.0
42.622	15.0
42.637	10.0
42.652	10.0
42.667	8.0
42.682	10.0
42.697	12.0
42.712	11.0
42.727	4.0
42.742	13.0
42.757	8.0
42.772	5.0
42.786	9.0
42.801	8.0
42.816	3.0
42.831	6.0
42.846	7.0
42.861	5.0
42.876	0.0
42.891	8.0
42.906	4.0
42.921	8.0
42.936	6.0
42.951	5.0
42.966	8.0
42.981	2.0
42.996	4.0
43.011	7.0
43.025	4.0
43.04	2.0
43.055	6.0
43.07	3.0
43.085	4.0
43.1	4.0
43.115	4.0
43.13	6.0
43.145	2.0
43.16	7.0
43.175	5.0
43.19	5.0
43.205	8.0
43.22	7.0
43.235	4.0
43.25	4.0
43.265	7.0
43.28	4.0
43.295	9.0
43.31	5.0
43.325	4.0
43.34	6.0
43.355	5.0
43.37	10.0
43.385	8.0
43.4	5.0
43.415	9.0
43.43	4.0
43.445	6.0
43.46	8.0
43.475	9.0
43.49	7.0
43.505	8.0
43.52	8.0
43.535	3.0
43.55	8.0
43.565	4.0
43.58	11.0
43.595	10.0
43.61	12.0
43.625	6.0
43.64	11.0
43.655	11.0
43.67	9.0
43.685	10.0
43.7	8.0
43.715	4.0
43.73	6.0
43.745	6.0
43.76	3.0
43.775	6.0
43.79	10.0
43.805	12.0
43.82	4.0
43.835	6.0
43.85	5.0
43.865	12.0
43.88	7.0
43.895	14.0
43.91	12.0
43.925	4.0
43.94	6.0
43.955	7.0
43.97	2.0
43.985	9.0
44.0	7.0
44.015	4.0
44.03	6.0
44.045	7.0
44.061	6.0
44.076	3.0
44.091	6.0
44.106	5.0
44.121	5.0
44.136	3.0
44.151	7.0
44.166	4.0
44.181	6.0
44.196	8.0
44.211	8.0
44.226	6.0
44.241	10.0
44.256	7.0
44.271	3.0
44.286	1.0
44.301	5.0
44.316	2.0
44.331	4.0
44.346	3.0
44.361	6.0
44.377	5.0
44.392	7.0
44.407	7.0
44.422	3.0
44.437	5.0
44.452	0.0
44.467	5.0
44.482	1.0
44.497	2.0
44.512	4.0
44.527	5.0
44.542	2.0
44.557	6.0
44.572	6.0
44.587	6.0
44.602	4.0
44.617	3.0
44.632	8.0
44.647	4.0
44.663	7.0
44.678	8.0
44.693	8.0
44.708	11.0
44.723	5.0
44.738	12.0
44.753	12.0
44.768	11.0
44.783	5.0
44.798	10.0
44.813	8.0
44.828	10.0
44.843	12.0
44.858	9.0
44.873	6.0
44.888	6.0
44.903	10.0
44.918	5.0
44.933	12.0
44.948	7.0
44.964	5.0
44.979	9.0
44.994	6.0
45.009	7.0
45.024	9.0
45.039	11.0
45.054	9.0
45.069	8.0
45.084	8.0
45.099	5.0
45.114	10.0
45.129	8.0
45.144	12.0
45.159	13.0
45.174	10.0
45.189	8.0
45.204	3.0
45.219	4.0
45.234	6.0
45.249	4.0
45.264	7.0
45.279	2.0
45.294	7.0
45.309	7.0
45.324	5.0
45.339	11.0
45.354	6.0
45.369	7.0
45.384	6.0
45.399	13.0
45.414	7.0
45.429	2.0
45.444	6.0
45.459	4.0
45.474	3.0
45.489	8.0
45.504	5.0
45.519	5.0
45.534	8.0
45.549	4.0
45.564	3.0
45.579	3.0
45.594	4.0
45.609	5.0
45.624	6.0
45.639	8.0
45.654	3.0
45.669	3.0
45.684	6.0
45.699	6.0
45.714	6.0
45.729	9.0
45.744	2.0
45.759	8.0
45.774	8.0
45.789	7.0
45.804	7.0
45.819	7.0
45.834	10.0
45.849	5.0
45.864	7.0
45.879	13.0
45.894	14.0
45.909	8.0
45.924	12.0
45.939	20.0
45.954	17.0
45.969	21.0
45.984	13.0
45.998	14.0
46.013	14.0
46.028	22.0
46.043	14.0
46.058	10.0
46.073	15.0
46.088	7.0
46.103	10.0
46.118	9.0
46.133	7.0
46.148	7.0
46.163	3.0
46.178	5.0
46.192	5.0
46.207	10.0
46.222	9.0
46.237	14.0
46.252	12.0
46.267	14.0
46.282	15.0
46.297	7.0
46.312	12.0
46.327	8.0
46.341	9.0
46.356	5.0
46.371	6.0
46.386	9.0
46.401	4.0
46.416	6.0
46.431	4.0
46.446	3.0
46.46	7.0
46.475	5.0
46.49	6.0
46.505	4.0
46.52	2.0
46.535	5.0
46.55	4.0
46.564	4.0
46.579	4.0
46.594	7.0
46.609	6.0
46.624	8.0
46.639	7.0
46.654	1.0
46.668	5.0
46.683	5.0
46.698	2.0
46.713	5.0
46.728	4.0
46.743	2.0
46.758	5.0
46.772	6.0
46.787	5.0
46.802	4.0
46.817	1.0
46.832	4.0
46.847	5.0
46.861	5.0
46.876	6.0
46.891	4.0
46.906	5.0
46.921	4.0
46.936	2.0
46.95	8.0
46.965	5.0
46.98	4.0
46.995	5.0
47.01	6.0
47.025	3.0
47.039	8.0
47.054	10.0
47.069	13.0
47.084	7.0
47.099	9.0
47.113	6.0
47.128	14.0
47.143	10.0
47.158	12.0
47.173	6.0
47.188	10.0
47.202	10.0
47.217	9.0
47.232	3.0
47.247	7.0
47.262	5.0
47.277	6.0
47.291	3.0
47.306	10.0
47.321	4.0
47.336	3.0
47.351	3.0
47.365	13.0
47.38	9.0
47.395	6.0
47.41	6.0
47.425	15.0
47.44	8.0
47.454	9.0
47.469	8.0
47.484	9.0
47.499	5.0
47.514	4.0
47.528	5.0
47.543	5.0
47.558	6.0
47.573	8.0
47.588	2.0
47.603	2.0
47.617	5.0
47.632	4.0
47.647	5.0
47.662	1.0
47.677	3.0
47.691	4.0
47.706	9.0
47.721	5.0
47.736	1.0
47.751	3.0
47.766	2.0
47.78	6.0
47.795	3.0
47.81	1.0
47.825	7.0
47.84	8.0
47.855	2.0
47.869	4.0
47.884	2.0
47.899	3.0
47.914	7.0
47.929	6.0
47.944	4.0
47.958	3.0
47.973	6.0
47.988	2.0
48.003	3.0
48.018	4.0
48.033	10.0
48.047	4.0
48.062	0.0
48.077	3.0
48.092	6.0
48.107	4.0
48.122	4.0
48.137	5.0
48.151	5.0
48.166	10.0
48.181	5.0
48.196	2.0
48.211	5.0
48.226	3.0
48.241	6.0
48.255	2.0
48.27	4.0
48.285	3.0
48.3	10.0
48.315	1.0
48.33	6.0
48.345	4.0
48.359	4.0
48.374	3.0
48.389	3.0
48.404	4.0
48.419	5.0
48.434	2.0
48.449	2.0
48.464	9.0
48.478	7.0
48.493	3.0
48.508	6.0
48.523	3.0
48.538	5.0
48.553	7.0
48.568	1.0
48.583	7.0
48.597	6.0
48.612	7.0
48.627	10.0
48.642	5.0
48.657	2.0
48.672	4.0
48.687	4.0
48.702	4.0
48.717	5.0
48.731	2.0
48.746	4.0
48.761	6.0
48.776	6.0
48.791	3.0
48.806	7.0
48.821	14.0
48.836	5.0
48.851	4.0
48.866	3.0
48.88	7.0
48.895	3.0
48.91	10.0
48.925	5.0
48.94	2.0
48.955	7.0
48.97	6.0
48.985	5.0
49.0	3.0
49.015	3.0
49.03	6.0
49.044	3.0
49.059	2.0
49.074	5.0
49.089	1.0
49.104	5.0
49.119	8.0
49.134	3.0
49.149	6.0
49.164	4.0
49.179	6.0
49.194	2.0
49.209	4.0
49.224	6.0
49.238	4.0
49.253	3.0
49.268	3.0
49.283	6.0
49.298	6.0
49.313	6.0
49.328	7.0
49.343	5.0
49.358	9.0
49.373	9.0
49.388	9.0
49.403	8.0
49.418	12.0
49.433	8.0
49.448	7.0
49.463	5.0
49.478	5.0
49.492	7.0
49.507	6.0
49.522	6.0
49.537	4.0
49.552	2.0
49.567	7.0
49.582	6.0
49.597	5.0
49.612	5.0
49.627	8.0
49.642	11.0
49.657	11.0
49.672	10.0
49.687	5.0
49.702	5.0
49.717	7.0
49.732	5.0
49.747	6.0
49.762	5.0
49.777	6.0
49.792	7.0
49.807	5.0
49.822	7.0
49.837	6.0
49.852	10.0
49.867	4.0
49.882	1.0
49.897	7.0
49.912	7.0
49.927	8.0
49.942	6.0
49.957	6.0
49.971	6.0
49.986	7.0
50.001	2.0
50.016	4.0
50.031	4.0
50.046	7.0
50.061	4.0
50.076	5.0
50.091	6.0
50.106	6.0
50.121	7.0
50.136	7.0
50.151	2.0
50.166	5.0
50.181	4.0
50.196	6.0
50.211	3.0
50.226	4.0
50.241	2.0
50.256	5.0
50.271	8.0
50.286	6.0
50.302	3.0
50.317	4.0
50.332	4.0
50.347	5.0
50.362	5.0
50.377	8.0
50.392	4.0
50.407	8.0
50.422	6.0
50.437	8.0
50.452	8.0
50.467	12.0
50.482	7.0
50.497	4.0
50.512	8.0
50.527	9.0
50.542	10.0
50.557	8.0
50.572	5.0
50.587	6.0
50.602	8.0
50.617	7.0
50.632	6.0
50.647	1.0
50.662	4.0
50.677	8.0
50.692	8.0
50.707	14.0
50.722	9.0
50.737	10.0
50.752	4.0
50.767	10.0
50.782	8.0
50.797	11.0
50.812	6.0
50.828	4.0
50.843	7.0
50.858	2.0
50.873	6.0
50.888	2.0
50.903	3.0
50.918	4.0
50.933	5.0
50.948	11.0
50.963	4.0
50.978	9.0
50.993	6.0
51.008	1.0
51.023	4.0
51.038	6.0
51.053	6.0
51.068	5.0
51.083	6.0
51.098	12.0
51.114	6.0
51.129	8.0
51.144	6.0
51.159	5.0
51.174	1.0
51.189	4.0
51.204	8.0
51.219	2.0
51.234	4.0
51.249	5.0
51.264	8.0
51.279	4.0
51.294	5.0
51.309	3.0
51.324	0.0
51.34	7.0
51.355	1.0
51.37	5.0
51.385	8.0
51.4	3.0
51.415	8.0
51.43	8.0
51.445	12.0
51.46	12.0
51.475	14.0
51.49	23.0
51.505	12.0
51.52	19.0
51.535	16.0
51.551	14.0
51.566	7.0
51.581	10.0
51.596	12.0
51.611	9.0
51.626	12.0
51.641	7.0
51.656	8.0
51.671	12.0
51.686	7.0
51.701	11.0
51.716	11.0
51.732	9.0
51.747	5.0
51.762	10.0
51.777	7.0
51.792	5.0
51.807	10.0
51.822	11.0
51.837	8.0
51.852	5.0
51.867	4.0
51.882	9.0
51.898	13.0
51.913	9.0
51.928	11.0
51.943	4.0
51.958	2.0
51.973	6.0
51.988	10.0
52.003	13.0
52.018	7.0
52.033	5.0
52.048	8.0
52.064	8.0
52.079	5.0
52.094	6.0
52.109	5.0
52.124	3.0
52.139	5.0
52.154	5.0
52.169	3.0
52.184	5.0
52.199	9.0
52.215	3.0
52.23	3.0
52.245	6.0
52.26	7.0
52.275	3.0
52.29	1.0
52.305	5.0
52.32	8.0
52.335	6.0
52.35	2.0
52.366	5.0
52.381	4.0
52.396	6.0
52.411	3.0
52.426	8.0
52.441	7.0
52.456	3.0
52.471	5.0
52.486	6.0
52.502	14.0
52.517	9.0
52.532	8.0
52.547	10.0
52.562	12.0
52.577	13.0
52.592	9.0
52.607	12.0
52.622	8.0
52.637	13.0
52.653	6.0
52.668	11.0
52.683	6.0
52.698	7.0
52.713	5.0
52.728	6.0
52.743	5.0
52.758	5.0
52.774	2.0
52.789	9.0
52.804	5.0
52.819	3.0
52.834	7.0
52.849	8.0
52.864	13.0
52.879	9.0
52.894	8.0
52.91	9.0
52.925	4.0
52.94	7.0
52.955	8.0
52.97	4.0
52.985	11.0
53.0	3.0
53.015	8.0
53.031	6.0
53.046	4.0
53.061	7.0
53.076	6.0
53.091	6.0
53.106	2.0
53.121	7.0
53.136	3.0
53.152	2.0
53.167	3.0
53.182	5.0
53.197	7.0
53.212	4.0
53.227	9.0
53.242	1.0
53.257	4.0
53.273	5.0
53.288	3.0
53.303	4.0
53.318	6.0
53.333	5.0
53.348	5.0
53.363	4.0
53.379	4.0
53.394	4.0
53.409	5.0
53.424	4.0
53.439	5.0
53.454	6.0
53.469	9.0
53.484	3.0
53.5	8.0
53.515	4.0
53.53	3.0
53.545	3.0
53.56	6.0
53.575	6.0
53.59	7.0
53.606	4.0
53.621	5.0
53.636	4.0
53.651	4.0
53.666	9.0
53.681	3.0
53.696	6.0
53.712	3.0
53.727	3.0
53.742	7.0
53.757	4.0
53.772	2.0
53.787	6.0
53.802	6.0
53.818	1.0
53.833	8.0
53.848	2.0
53.863	4.0
53.878	6.0
53.893	3.0
53.909	3.0
53.924	3.0
53.939	6.0
53.954	4.0
53.969	4.0
53.984	4.0
53.999	6.0
54.015	0.0
54.03	3.0
54.045	6.0
54.06	10.0
54.075	6.0
54.09	7.0
54.106	2.0
54.121	0.0
54.136	1.0
54.151	5.0
54.166	6.0
54.181	11.0
54.197	4.0
54.212	4.0
54.227	3.0
54.242	6.0
54.257	6.0
54.272	0.0
54.288	6.0
54.303	4.0
54.318	4.0
54.333	0.0
54.348	6.0
54.363	12.0
54.379	2.0
54.394	5.0
54.409	9.0
54.424	2.0
54.439	10.0
54.454	4.0
54.47	4.0
54.485	6.0
54.5	2.0
54.515	8.0
54.53	2.0
54.545	5.0
54.561	8.0
54.576	11.0
54.591	10.0
54.606	7.0
54.621	9.0
54.636	11.0
54.652	19.0
54.667	14.0
54.682	9.0
54.697	16.0
54.712	14.0
54.727	9.0
54.743	9.0
54.758	4.0
54.773	6.0
54.788	7.0
54.803	4.0
54.819	4.0
54.834	3.0
54.849	6.0
54.864	6.0
54.879	7.0
54.894	8.0
54.91	4.0
54.925	8.0
54.94	10.0
54.955	11.0
54.97	11.0
54.985	8.0
55.001	9.0
55.016	11.0
55.031	4.0
55.046	8.0
55.061	8.0
55.077	9.0
55.092	6.0
55.107	3.0
55.122	5.0
55.137	6.0
55.152	7.0
55.168	5.0
55.183	3.0
55.198	7.0
55.213	9.0
55.228	6.0
55.243	4.0
55.259	3.0
55.274	7.0
55.289	8.0
55.304	3.0
55.319	9.0
55.335	2.0
55.35	3.0
55.365	5.0
55.38	4.0
55.395	2.0
55.41	4.0
55.426	4.0
55.441	1.0
55.456	5.0
55.471	5.0
55.486	5.0
55.501	8.0
55.517	4.0
55.532	4.0
55.547	4.0
55.562	7.0
55.577	4.0
55.592	9.0
55.608	1.0
55.623	5.0
55.638	11.0
55.653	8.0
55.668	7.0
55.683	8.0
55.699	11.0
55.714	6.0
55.729	6.0
55.744	8.0
55.759	8.0
55.774	9.0
55.79	5.0
55.805	4.0
55.82	2.0
55.835	2.0
55.85	3.0
55.865	3.0
55.881	3.0
55.896	7.0
55.911	9.0
55.926	9.0
55.941	7.0
55.956	7.0
55.972	7.0
55.987	5.0
56.002	5.0
56.017	9.0
56.032	2.0
56.047	4.0
56.063	5.0
56.078	5.0
56.093	4.0
56.108	4.0
56.123	4.0
56.138	6.0
56.154	6.0
56.169	2.0
56.184	2.0
56.199	7.0
56.214	8.0
56.229	5.0
56.244	4.0
56.26	2.0
56.275	2.0
56.29	3.0
56.305	7.0
56.32	8.0
56.335	4.0
56.351	3.0
56.366	4.0
56.381	2.0
56.396	3.0
56.411	3.0
56.426	4.0
56.441	4.0
56.457	4.0
56.472	1.0
56.487	4.0
56.502	6.0
56.517	6.0
56.532	4.0
56.547	6.0
56.563	1.0
56.578	5.0
56.593	7.0
56.608	5.0
56.623	6.0
56.638	4.0
56.653	1.0
56.668	3.0
56.684	4.0
56.699	10.0
56.714	10.0
56.729	5.0
56.744	6.0
56.759	3.0
56.774	6.0
56.79	3.0
56.805	3.0
56.82	8.0
56.835	5.0
56.85	3.0
56.865	3.0
56.88	4.0
56.895	4.0
56.911	5.0
56.926	7.0
56.941	7.0
56.956	3.0
56.971	0.0
56.986	3.0
57.001	4.0
57.016	5.0
57.031	4.0
57.047	4.0
57.062	4.0
57.077	5.0
57.092	4.0
57.107	13.0
57.122	7.0
57.137	6.0
57.152	5.0
57.167	5.0
57.183	4.0
57.198	8.0
57.213	2.0
57.228	6.0
57.243	4.0
57.258	7.0
57.273	5.0
57.288	5.0
57.303	3.0
57.318	1.0
57.334	3.0
57.349	5.0
57.364	3.0
57.379	6.0
57.394	3.0
57.409	6.0
57.424	1.0
57.439	3.0
57.454	9.0
57.469	2.0
57.484	4.0
57.5	6.0
57.515	7.0
57.53	6.0
57.545	6.0
57.56	3.0
57.575	6.0
57.59	4.0
57.605	2.0
57.62	2.0
57.635	3.0
57.65	4.0
57.665	6.0
57.68	6.0
57.696	5.0
57.711	7.0
57.726	6.0
57.741	7.0
57.756	4.0
57.771	2.0
57.786	6.0
57.801	7.0
57.816	3.0
57.831	5.0
57.846	6.0
57.861	4.0
57.876	4.0
57.891	2.0
57.906	5.0
57.921	4.0
57.937	4.0
57.952	5.0
57.967	3.0
57.982	6.0
57.997	3.0
58.012	2.0
58.027	4.0
58.042	3.0
58.057	1.0
58.072	3.0
58.087	10.0
58.102	11.0
58.117	7.0
58.132	4.0
58.147	2.0
58.162	5.0
58.177	3.0
58.192	3.0
58.207	5.0
58.222	6.0
58.237	6.0
58.252	7.0
58.267	3.0
58.282	8.0
58.297	1.0
58.312	3.0
58.327	1.0
58.342	5.0
58.357	4.0
58.372	4.0
58.387	3.0
58.402	7.0
58.418	7.0
58.433	6.0
58.448	3.0
58.463	6.0
58.478	3.0
58.493	2.0
58.508	6.0
58.523	6.0
58.538	7.0
58.553	7.0
58.568	6.0
58.583	11.0
58.598	9.0
58.613	6.0
58.628	7.0
58.643	8.0
58.658	7.0
58.673	16.0
58.688	6.0
58.703	9.0
58.718	10.0
58.733	4.0
58.748	4.0
58.763	1.0
58.778	5.0
58.793	2.0
58.808	5.0
58.823	7.0
58.838	4.0
58.853	5.0
58.868	4.0
58.883	0.0
58.898	6.0
58.913	9.0
58.928	3.0
58.942	4.0
58.957	4.0
58.972	6.0
58.987	3.0
59.002	8.0
59.017	5.0
59.032	5.0
59.047	7.0
59.062	13.0
59.077	5.0
59.092	3.0
59.107	2.0
59.122	8.0
59.137	5.0
59.152	8.0
59.167	3.0
59.182	6.0
59.197	3.0
59.212	4.0
59.227	2.0
59.242	2.0
59.257	3.0
59.272	5.0
59.287	5.0
59.302	4.0
59.317	4.0
59.332	4.0
59.347	8.0
59.362	0.0
59.377	5.0
59.392	5.0
59.407	7.0
59.422	4.0
59.437	1.0
59.452	4.0
59.467	3.0
59.482	0.0
59.497	4.0
59.512	5.0
59.527	8.0
59.542	5.0
59.557	7.0
59.572	6.0
59.587	6.0
59.602	4.0
59.617	10.0
59.632	8.0
59.647	2.0
59.661	12.0
59.676	4.0
59.691	5.0
59.706	8.0
59.721	5.0
59.736	4.0
59.751	3.0
59.766	2.0
59.781	4.0
59.796	0.0
59.811	4.0
59.826	3.0
59.841	5.0
59.856	2.0
59.871	10.0
59.886	7.0
59.901	7.0
59.916	5.0
59.931	7.0
59.946	5.0
59.961	6.0
59.976	12.0
59.991	8.0
60.006	5.0
60.021	12.0
60.036	3.0
60.051	6.0
60.066	4.0
60.081	5.0
60.096	5.0
60.111	4.0
60.126	1.0
60.141	3.0
60.156	4.0
60.171	3.0
60.186	4.0
60.201	4.0
60.216	6.0
60.231	4.0
60.246	4.0
60.261	4.0
60.276	3.0
60.291	5.0
60.306	5.0
60.321	5.0
60.336	5.0
60.35	5.0
60.365	8.0
60.38	2.0
60.395	6.0
60.41	4.0
60.425	1.0
60.44	3.0
60.455	1.0
60.47	8.0
60.485	6.0
60.5	9.0
60.515	5.0
60.53	9.0
60.545	12.0
60.56	9.0
60.575	5.0
60.59	6.0
60.605	6.0
60.62	12.0
60.635	5.0
60.65	6.0
60.665	9.0
60.68	3.0
60.695	6.0
60.71	5.0
60.725	2.0
60.74	6.0
60.755	7.0
60.77	7.0
60.785	2.0
60.8	4.0
60.815	2.0
60.83	3.0
60.845	2.0
60.86	4.0
60.875	6.0
60.89	8.0
60.905	4.0
60.92	3.0
60.935	2.0
60.95	5.0
60.965	9.0
60.98	2.0
60.995	4.0
61.01	9.0
61.025	6.0
61.04	3.0
61.055	3.0
61.07	4.0
61.085	5.0
61.1	4.0
61.115	4.0
61.13	3.0
61.145	2.0
61.16	3.0
61.175	2.0
61.191	2.0
61.206	7.0
61.221	10.0
61.236	6.0
61.251	2.0
61.266	3.0
61.281	2.0
61.296	6.0
61.311	6.0
61.326	5.0
61.341	1.0
61.356	1.0
61.371	4.0
61.386	5.0
61.401	3.0
61.416	3.0
61.431	6.0
61.446	2.0
61.461	7.0
61.476	8.0
61.491	5.0
61.506	5.0
61.521	5.0
61.536	6.0
61.551	6.0
61.566	7.0
61.581	3.0
61.596	9.0
61.611	8.0
61.626	2.0
61.641	12.0
61.656	3.0
61.672	4.0
61.687	5.0
61.702	2.0
61.717	1.0
61.732	3.0
61.747	4.0
61.762	5.0
61.777	7.0
61.792	4.0
61.807	8.0
61.822	2.0
61.837	3.0
61.852	6.0
61.867	4.0
61.882	1.0
61.897	3.0
61.912	5.0
61.927	5.0
61.943	9.0
61.958	4.0
61.973	3.0
61.988	2.0
62.003	4.0
62.018	4.0
62.033	5.0
62.048	4.0
62.063	2.0
62.078	2.0
62.093	3.0
62.108	2.0
62.123	7.0
62.138	2.0
62.153	3.0
62.169	3.0
62.184	5.0
62.199	2.0
62.214	3.0
62.229	4.0
62.244	0.0
62.259	2.0
62.274	2.0
62.289	3.0
62.304	2.0
62.319	7.0
62.335	3.0
62.35	3.0
62.365	4.0
62.38	6.0
62.395	5.0
62.41	3.0
62.425	4.0
62.44	6.0
62.455	4.0
62.47	4.0
62.485	5.0
62.501	4.0
62.516	8.0
62.531	6.0
62.546	4.0
62.561	9.0
62.576	4.0
62.591	4.0
62.606	6.0
62.621	12.0
62.636	3.0
62.652	2.0
62.667	5.0
62.682	4.0
62.697	4.0
62.712	5.0
62.727	5.0
62.742	10.0
62.757	3.0
62.772	5.0
62.787	3.0
62.803	6.0
62.818	2.0
62.833	6.0
62.848	3.0
62.863	6.0
62.878	5.0
62.893	4.0
62.908	2.0
62.923	7.0
62.939	3.0
62.954	4.0
62.969	6.0
62.984	5.0
62.999	2.0
63.014	6.0
63.029	3.0
63.044	4.0
63.059	3.0
63.074	3.0
63.09	6.0
63.105	4.0
63.12	4.0
63.135	5.0
63.15	2.0
63.165	3.0
63.18	3.0
63.195	4.0
63.21	4.0
63.226	3.0
63.241	5.0
63.256	11.0
63.271	3.0
63.286	3.0
63.301	4.0
63.316	8.0
63.331	5.0
63.346	5.0
63.362	8.0
63.377	5.0
63.392	6.0
63.407	3.0
63.422	5.0
63.437	6.0
63.452	8.0
63.467	6.0
63.482	5.0
63.497	6.0
63.513	2.0
63.528	5.0
63.543	1.0
63.558	3.0
63.573	6.0
63.588	4.0
63.603	2.0
63.618	7.0
63.633	4.0
63.648	3.0
63.664	6.0
63.679	7.0
63.694	5.0
63.709	5.0
63.724	5.0
63.739	3.0
63.754	5.0
63.769	5.0
63.784	9.0
63.799	6.0
63.814	11.0
63.83	9.0
63.845	8.0
63.86	5.0
63.875	4.0
63.89	6.0
63.905	8.0
63.92	4.0
63.935	3.0
63.95	2.0
63.965	2.0
63.98	2.0
63.996	3.0
64.011	5.0
64.026	2.0
64.041	3.0
64.056	2.0
64.071	4.0
64.086	2.0
64.101	5.0
64.116	6.0
64.131	1.0
64.146	3.0
64.161	5.0
64.176	13.0
64.191	4.0
64.207	5.0
64.222	3.0
64.237	5.0
64.252	3.0
64.267	3.0
64.282	2.0
64.297	4.0
64.312	4.0
64.327	1.0
64.342	4.0
64.357	2.0
64.372	2.0
64.387	3.0
64.402	5.0
64.417	4.0
64.433	4.0
64.448	2.0
64.463	4.0
64.478	3.0
64.493	7.0
64.508	3.0
64.523	4.0
64.538	3.0
64.553	0.0
64.568	3.0
64.583	3.0
64.598	5.0
64.613	1.0
64.628	7.0
64.643	4.0
64.658	10.0
64.673	2.0
64.688	3.0
64.703	4.0
64.718	3.0
64.734	5.0
64.749	3.0
64.764	3.0
64.779	3.0
64.794	4.0
64.809	3.0
64.824	4.0
64.839	2.0
64.854	9.0
64.869	4.0
64.884	5.0
64.899	5.0
64.914	5.0
64.929	3.0
64.944	7.0
64.959	4.0
64.974	4.0
64.989	3.0
65.004	5.0
65.019	4.0
65.034	1.0
65.049	4.0
65.064	6.0
65.079	5.0
65.094	5.0
65.109	5.0
65.125	2.0
65.14	3.0
65.155	4.0
65.17	2.0
65.185	3.0
65.2	3.0
65.215	4.0
65.23	7.0
65.245	6.0
65.26	6.0
65.275	6.0
65.29	9.0
65.305	6.0
65.32	4.0
65.335	6.0
65.35	5.0
65.365	6.0
65.38	4.0
65.395	3.0
65.41	2.0
65.425	4.0
65.44	5.0
65.455	4.0
65.47	3.0
65.485	4.0
65.5	1.0
65.515	3.0
65.53	3.0
65.545	7.0
65.56	9.0
65.575	1.0
65.59	4.0
65.605	4.0
65.62	2.0
65.635	4.0
65.65	2.0
65.666	3.0
65.681	5.0
65.696	7.0
65.711	5.0
65.726	7.0
65.741	1.0
65.756	4.0
65.771	6.0
65.786	6.0
65.801	3.0
65.816	2.0
65.831	4.0
65.846	2.0
65.861	3.0
65.876	1.0
65.891	5.0
65.906	6.0
65.921	4.0
65.936	9.0
65.951	3.0
65.966	2.0
65.981	6.0
65.996	5.0
66.011	2.0
66.026	4.0
66.041	1.0
66.056	6.0
66.071	5.0
66.086	1.0
66.101	5.0
66.116	9.0
66.131	4.0
66.146	6.0
66.161	4.0
66.176	5.0
66.191	9.0
66.206	9.0
66.221	6.0
66.236	4.0
66.251	4.0
66.266	2.0
66.281	5.0
66.296	7.0
66.311	4.0
66.327	3.0
66.342	3.0
66.357	1.0
66.372	2.0
66.387	9.0
66.402	1.0
66.417	4.0
66.432	2.0
66.447	4.0
66.462	5.0
66.477	7.0
66.492	5.0
66.507	1.0
66.522	6.0
66.537	5.0
66.552	6.0
66.567	7.0
66.582	1.0
66.597	8.0
66.612	8.0
66.627	5.0
66.642	6.0
66.657	5.0
66.672	7.0
66.687	6.0
66.702	7.0
66.717	5.0
66.732	2.0
66.747	3.0
66.762	3.0
66.777	6.0
66.792	2.0
66.807	5.0
66.822	5.0
66.837	0.0
66.853	5.0
66.868	5.0
66.883	5.0
66.898	3.0
66.913	6.0
66.928	4.0
66.943	3.0
66.958	2.0
66.973	3.0
66.988	6.0
67.003	6.0
67.018	2.0
67.033	5.0
67.048	6.0
67.063	0.0
67.078	5.0
67.093	7.0
67.108	7.0
67.123	5.0
67.138	7.0
67.153	6.0
67.168	9.0
67.183	2.0
67.198	4.0
67.214	3.0
67.229	3.0
67.244	3.0
67.259	4.0
67.274	2.0
67.289	7.0
67.304	3.0
67.319	0.0
67.334	3.0
67.349	1.0
67.364	2.0
67.379	4.0
67.394	2.0
67.409	5.0
67.424	5.0
67.439	4.0
67.454	1.0
67.469	6.0
67.484	4.0
67.5	2.0
67.515	5.0
67.53	8.0
67.545	7.0
67.56	5.0
67.575	5.0
67.59	7.0
67.605	3.0
67.62	6.0
67.635	4.0
67.65	2.0
67.665	3.0
67.68	1.0
67.695	1.0
67.71	4.0
67.726	3.0
67.741	5.0
67.756	3.0
67.771	2.0
67.786	2.0
67.801	3.0
67.816	2.0
67.831	4.0
67.846	4.0
67.861	4.0
67.876	4.0
67.891	3.0
67.906	5.0
67.922	1.0
67.937	4.0
67.952	5.0
67.967	3.0
67.982	6.0
67.997	5.0
68.012	3.0
68.027	5.0
68.042	2.0
68.057	6.0
68.072	4.0
68.087	5.0
68.103	7.0
68.118	5.0
68.133	3.0
68.148	3.0
68.163	6.0
68.178	3.0
68.193	4.0
68.208	9.0
68.223	3.0
68.238	7.0
68.254	3.0
68.269	3.0
68.284	6.0
68.299	6.0
68.314	6.0
68.329	4.0
68.344	1.0
68.359	8.0
68.374	5.0
68.389	3.0
68.405	1.0
68.42	6.0
68.435	7.0
68.45	6.0
68.465	3.0
68.48	4.0
68.495	2.0
68.51	1.0
68.525	3.0
68.54	3.0
68.556	5.0
68.571	3.0
68.586	3.0
68.601	2.0
68.616	3.0
68.631	8.0
68.646	4.0
68.661	3.0
68.676	4.0
68.691	4.0
68.707	4.0
68.722	3.0
68.737	4.0
68.752	3.0
68.767	2.0
68.782	3.0
68.797	3.0
68.812	7.0
68.827	3.0
68.842	4.0
68.857	2.0
68.873	5.0
68.888	5.0
68.903	4.0
68.918	2.0
68.933	6.0
68.948	3.0
68.963	5.0
68.978	6.0
68.993	0.0
69.008	1.0
69.023	4.0
69.038	1.0
69.054	4.0
69.069	3.0
69.084	2.0
69.099	1.0
69.114	3.0
69.129	3.0
69.144	7.0
69.159	6.0
69.174	3.0
69.189	1.0
69.204	1.0
69.219	3.0
69.234	3.0
69.249	1.0
69.264	5.0
69.279	5.0
69.295	3.0
69.31	1.0
69.325	1.0
69.34	3.0
69.355	3.0
69.37	6.0
69.385	2.0
69.4	4.0
69.415	2.0
69.43	5.0
69.445	4.0
69.46	2.0
69.475	5.0
69.49	1.0
69.505	3.0
69.52	3.0
69.535	4.0
69.55	2.0
69.565	6.0
69.58	3.0
69.595	4.0
69.61	7.0
69.625	0.0
69.64	4.0
69.655	3.0
69.67	4.0
69.685	4.0
69.7	3.0
69.715	5.0
69.73	5.0
69.745	8.0
69.76	5.0
69.775	3.0
69.79	5.0
69.805	7.0
69.82	6.0
69.835	5.0
69.85	5.0
69.865	9.0
69.88	5.0
69.895	3.0
69.909	5.0
69.924	3.0
69.939	7.0
69.954	5.0
69.969	7.0
69.984	5.0
69.999	3.0
70.014	5.0
70.029	7.0
70.044	1.0
70.059	4.0
70.074	2.0
70.088	3.0
70.103	4.0
70.118	1.0
70.133	4.0
70.148	7.0
70.163	3.0
70.178	2.0
70.193	6.0
70.208	6.0
70.222	8.0
70.237	4.0
70.252	6.0
70.267	6.0
70.282	7.0
70.297	5.0
70.312	6.0
70.327	5.0
70.341	3.0
70.356	5.0
70.371	3.0
70.386	2.0
70.401	0.0
70.416	3.0
70.43	1.0
70.445	2.0
70.46	4.0
70.475	4.0
70.49	6.0
70.505	5.0
70.519	3.0
70.534	2.0
70.549	6.0
70.564	2.0
70.579	4.0
70.594	2.0
70.608	4.0
70.623	7.0
70.638	7.0
70.653	8.0
70.668	5.0
70.683	5.0
70.697	5.0
70.712	3.0
70.727	8.0
70.742	6.0
70.757	4.0
70.771	2.0
70.786	4.0
70.801	3.0
70.816	1.0
70.831	3.0
70.845	5.0
70.86	4.0
70.875	4.0
70.89	2.0
70.905	2.0
70.92	2.0
70.934	5.0
70.949	6.0
70.964	2.0
70.979	3.0
70.994	2.0
71.008	1.0
71.023	5.0
71.038	3.0
71.053	5.0
71.068	4.0
71.082	3.0
71.097	3.0
71.112	4.0
71.127	4.0
71.142	5.0
71.156	1.0
71.171	2.0
71.186	10.0
71.201	2.0
71.216	2.0
71.231	7.0
71.245	4.0
71.26	6.0
71.275	5.0
71.29	4.0
71.305	5.0
71.319	2.0
71.334	3.0
71.349	1.0
71.364	2.0
71.379	2.0
71.394	5.0
71.408	4.0
71.423	5.0
71.438	5.0
71.453	2.0
71.468	4.0
71.483	3.0
71.497	6.0
71.512	1.0
71.527	6.0
71.542	6.0
71.557	2.0
71.572	1.0
71.586	4.0
71.601	2.0
71.616	3.0
71.631	4.0
71.646	2.0
71.661	4.0
71.676	1.0
71.69	2.0
71.705	3.0
71.72	6.0
71.735	1.0
71.75	5.0
71.765	5.0
71.78	4.0
71.795	2.0
71.81	4.0
71.824	1.0
71.839	6.0
71.854	4.0
71.869	2.0
71.884	6.0
71.899	3.0
71.914	4.0
71.929	7.0
71.944	3.0
71.959	4.0
71.974	2.0
71.988	3.0
72.003	3.0
72.018	5.0
72.033	1.0
72.048	3.0
72.063	5.0
72.078	2.0
72.093	7.0
72.108	2.0
72.123	3.0
72.138	5.0
72.153	1.0
72.168	3.0
72.183	2.0
72.198	3.0
72.213	2.0
72.228	6.0
72.243	3.0
72.258	8.0
72.273	4.0
72.288	7.0
72.303	3.0
72.318	4.0
72.333	3.0
72.348	4.0
72.363	5.0
72.378	1.0
72.393	7.0
72.408	4.0
72.423	5.0
72.438	3.0
72.453	1.0
72.468	4.0
72.483	6.0
72.498	9.0
72.513	2.0
72.528	2.0
72.543	3.0
72.558	4.0
72.573	7.0
72.588	5.0
72.603	1.0
72.618	8.0
72.633	2.0
72.649	3.0
72.664	6.0
72.679	2.0
72.694	3.0
72.709	3.0
72.724	4.0
72.739	2.0
72.754	4.0
72.769	4.0
72.784	3.0
72.799	2.0
72.814	0.0
72.829	3.0
72.845	9.0
72.86	2.0
72.875	1.0
72.89	3.0
72.905	7.0
72.92	5.0
72.935	2.0
72.95	3.0
72.965	4.0
72.98	4.0
72.996	3.0
73.011	3.0
73.026	3.0
73.041	4.0
73.056	3.0
73.071	2.0
73.086	3.0
73.101	3.0
73.117	3.0
73.132	5.0
73.147	2.0
73.162	6.0
73.177	4.0
73.192	5.0
73.207	3.0
73.222	4.0
73.238	7.0
73.253	3.0
73.268	2.0
73.283	5.0
73.298	2.0
73.313	4.0
73.328	4.0
73.343	2.0
73.359	3.0
73.374	4.0
73.389	4.0
73.404	1.0
73.419	4.0
73.434	2.0
73.449	5.0
73.465	3.0
73.48	6.0
73.495	2.0
73.51	1.0
73.525	3.0
73.54	1.0
73.556	1.0
73.571	1.0
73.586	3.0
73.601	5.0
73.616	7.0
73.631	1.0
73.646	4.0
73.662	5.0
73.677	2.0
73.692	3.0
73.707	3.0
73.722	3.0
73.737	7.0
73.752	5.0
73.768	3.0
73.783	7.0
73.798	3.0
73.813	8.0
73.828	6.0
73.843	6.0
73.859	1.0
73.874	3.0
73.889	4.0
73.904	5.0
73.919	6.0
73.934	5.0
73.949	2.0
73.965	6.0
73.98	6.0
73.995	2.0
74.01	1.0
74.025	3.0
74.04	3.0
74.056	1.0
74.071	3.0
74.086	3.0
74.101	3.0
74.116	3.0
74.131	7.0
74.146	4.0
74.162	5.0
74.177	7.0
74.192	7.0
74.207	9.0
74.222	7.0
74.237	6.0
74.252	3.0
74.268	9.0
74.283	8.0
74.298	3.0
74.313	4.0
74.328	2.0
74.343	3.0
74.358	2.0
74.374	2.0
74.389	3.0
74.404	3.0
74.419	4.0
74.434	6.0
74.449	2.0
74.464	6.0
74.48	2.0
74.495	3.0
74.51	1.0
74.525	3.0
74.54	6.0
74.555	7.0
74.57	2.0
74.586	5.0
74.601	3.0
74.616	4.0
74.631	6.0
74.646	3.0
74.661	3.0
74.676	6.0
74.691	5.0
74.707	0.0
74.722	4.0
74.737	4.0
74.752	4.0
74.767	0.0
74.782	6.0
74.797	2.0
74.813	1.0
74.828	7.0
74.843	1.0
74.858	4.0
74.873	5.0
74.888	3.0
74.903	3.0
74.918	1.0
74.934	3.0
74.949	6.0
74.964	6.0
74.979	5.0
74.994	5.0
75.009	6.0
75.024	4.0
75.04	4.0
75.055	1.0
75.07	6.0
75.085	4.0
75.1	3.0
75.115	1.0
75.13	2.0
75.145	4.0
75.161	4.0
75.176	2.0
75.191	4.0
75.206	3.0
75.221	2.0
75.236	2.0
75.251	2.0
75.266	6.0
75.282	2.0
75.297	5.0
75.312	3.0
75.327	2.0
75.342	6.0
75.357	7.0
75.372	5.0
75.387	2.0
75.403	4.0
75.418	3.0
75.433	2.0
75.448	2.0
75.463	3.0
75.478	3.0
75.493	2.0
75.509	7.0
75.524	3.0
75.539	4.0
75.554	3.0
75.569	4.0
75.584	5.0
75.599	4.0
75.614	4.0
75.63	4.0
75.645	0.0
75.66	5.0
75.675	5.0
75.69	4.0
75.705	6.0
75.72	8.0
75.735	2.0
75.751	3.0
75.766	3.0
75.781	1.0
75.796	2.0
75.811	2.0
75.826	9.0
75.841	3.0
75.856	2.0
75.872	3.0
75.887	5.0
75.902	4.0
75.917	8.0
75.932	2.0
75.947	6.0
75.962	3.0
75.977	9.0
75.993	3.0
76.008	3.0
76.023	0.0
76.038	2.0
76.053	7.0
76.068	0.0
76.083	1.0
76.098	3.0
76.114	3.0
76.129	7.0
76.144	5.0
76.159	4.0
76.174	3.0
76.189	3.0
76.204	3.0
76.22	1.0
76.235	5.0
76.25	3.0
76.265	6.0
76.28	2.0
76.295	1.0
76.31	5.0
76.325	2.0
76.341	5.0
76.356	4.0
76.371	4.0
76.386	6.0
76.401	4.0
76.416	3.0
76.431	4.0
76.446	5.0
76.462	2.0
76.477	1.0
76.492	8.0
76.507	4.0
76.522	3.0
76.537	3.0
76.552	8.0
76.567	3.0
76.583	1.0
76.598	1.0
76.613	2.0
76.628	5.0
76.643	3.0
76.658	6.0
76.673	2.0
76.688	3.0
76.704	3.0
76.719	2.0
76.734	5.0
76.749	7.0
76.764	8.0
76.779	2.0
76.794	8.0
76.809	1.0
76.824	4.0
76.84	2.0
76.855	6.0
76.87	4.0
76.885	3.0
76.9	4.0
76.915	0.0
76.93	5.0
76.945	2.0
76.96	2.0
76.976	3.0
76.991	2.0
77.006	2.0
77.021	2.0
77.036	5.0
77.051	3.0
77.066	2.0
77.081	1.0
77.096	3.0
77.112	2.0
77.127	7.0
77.142	3.0
77.157	1.0
77.172	0.0
77.187	7.0
77.202	1.0
77.217	3.0
77.232	3.0
77.247	4.0
77.263	6.0
77.278	3.0
77.293	0.0
77.308	7.0
77.323	4.0
77.338	2.0
77.353	4.0
77.368	4.0
77.383	3.0
77.398	4.0
77.413	5.0
77.428	1.0
77.444	4.0
77.459	2.0
77.474	3.0
77.489	6.0
77.504	6.0
77.519	3.0
77.534	2.0
77.549	1.0
77.564	5.0
77.579	1.0
77.594	5.0
77.609	4.0
77.624	8.0
77.64	6.0
77.655	7.0
77.67	6.0
77.685	7.0
77.7	2.0
77.715	1.0
77.73	3.0
77.745	4.0
77.76	5.0
77.775	1.0
77.79	2.0
77.805	3.0
77.82	3.0
77.835	3.0
77.85	2.0
77.865	6.0
77.88	3.0
77.895	4.0
77.91	4.0
77.926	2.0
77.941	5.0
77.956	0.0
77.971	5.0
77.986	5.0
78.001	4.0
78.016	4.0
78.031	5.0
78.046	5.0
78.061	3.0
78.076	3.0
78.091	3.0
78.106	1.0
78.121	4.0
78.136	5.0
78.151	3.0
78.166	7.0
78.181	8.0
78.196	2.0
78.211	1.0
78.226	9.0
78.241	5.0
78.256	2.0
78.271	1.0
78.286	3.0
78.301	3.0
78.316	6.0
78.331	1.0
78.346	1.0
78.361	1.0
78.376	4.0
78.391	1.0
78.406	3.0
78.421	5.0
78.436	1.0
78.451	7.0
78.466	1.0
78.481	2.0
78.496	4.0
78.511	3.0
78.526	2.0
78.541	4.0
78.556	7.0
78.571	6.0
78.586	5.0
78.601	3.0
78.616	3.0
78.631	2.0
78.646	3.0
78.661	1.0
78.676	3.0
78.691	0.0
78.706	4.0
78.721	4.0
78.736	2.0
78.751	0.0
78.766	1.0
78.781	2.0
78.796	4.0
78.811	4.0
78.826	3.0
78.841	6.0
78.856	1.0
78.871	1.0
78.885	1.0
78.9	3.0
78.915	2.0
78.93	3.0
78.945	5.0
78.96	4.0
78.975	2.0
78.99	6.0
79.005	2.0
79.02	6.0
79.035	3.0
79.05	8.0
79.065	4.0
79.08	2.0
79.095	6.0
79.11	2.0
79.125	1.0
79.14	2.0
79.155	4.0
79.17	5.0
79.185	4.0
79.2	2.0
79.215	4.0
79.23	2.0
79.245	3.0
79.26	1.0
79.275	4.0
79.29	7.0
79.304	8.0
79.319	3.0
79.334	5.0
79.349	3.0
79.364	5.0
79.379	3.0
79.394	2.0
79.409	5.0
79.424	3.0
79.439	3.0
79.454	7.0
79.469	3.0
79.484	0.0
79.499	2.0
79.514	4.0
79.529	4.0
79.544	2.0
79.559	3.0
79.574	1.0
79.589	4.0
79.604	4.0
79.619	2.0
79.634	3.0
79.649	5.0
79.664	0.0
79.679	2.0
79.693	3.0
79.708	0.0
79.723	3.0
79.738	2.0
79.753	4.0
79.768	4.0
79.783	4.0
79.798	3.0
79.813	3.0
79.828	6.0
79.843	8.0
79.858	6.0
79.873	6.0
79.888	3.0
79.903	3.0
79.918	3.0
79.933	5.0
79.948	7.0
79.963	2.0
79.978	2.0
79.993	2.0
80.008	5.0
80.023	2.0
80.038	4.0
80.053	6.0
80.068	2.0
80.083	4.0
80.098	3.0
80.113	5.0
80.128	4.0
80.143	5.0
80.158	5.0
80.173	3.0
80.188	1.0
80.202	3.0
80.217	7.0
80.232	4.0
80.247	1.0
80.262	3.0
80.277	4.0
80.292	4.0
80.307	1.0
80.322	4.0
80.337	4.0
80.352	2.0
80.367	4.0
80.382	0.0
80.397	3.0
80.412	2.0
80.427	5.0
80.442	2.0
80.457	5.0
80.472	2.0
80.487	3.0
80.502	3.0
80.517	4.0
80.532	5.0
80.547	5.0
80.562	1.0
80.577	3.0
80.592	0.0
80.607	2.0
80.622	1.0
80.637	5.0
80.652	2.0
80.667	4.0
80.682	5.0
80.697	4.0
80.712	4.0
80.727	2.0
80.742	3.0
80.757	4.0
80.772	7.0
80.787	4.0
80.802	4.0
80.817	2.0
80.832	3.0
80.847	5.0
80.862	4.0
80.877	5.0
80.892	5.0
80.907	5.0
80.922	3.0
80.937	1.0
80.952	0.0
80.967	1.0
80.982	3.0
80.997	5.0
81.012	3.0
81.027	5.0
81.042	3.0
81.057	2.0
81.072	3.0
81.087	4.0
81.101	5.0
81.116	4.0
81.131	3.0
81.146	3.0
81.161	2.0
81.176	2.0
81.191	1.0
81.206	5.0
81.221	4.0
81.236	2.0
81.251	3.0
81.266	4.0
81.281	3.0
81.296	2.0
81.311	3.0
81.326	5.0
81.341	6.0
81.356	3.0
81.371	4.0
81.386	1.0
81.401	5.0
81.416	1.0
81.431	2.0
81.446	0.0
81.461	3.0
81.476	5.0
81.491	3.0
81.506	4.0
81.521	3.0
81.536	3.0
81.55	4.0
81.565	4.0
81.58	2.0
81.595	5.0
81.61	5.0
81.625	1.0
81.64	5.0
81.655	2.0
81.67	5.0
81.685	3.0
81.7	7.0
81.715	4.0
81.73	5.0
81.745	4.0
81.76	6.0
81.775	6.0
81.79	2.0
81.805	5.0
81.819	3.0
81.834	3.0
81.849	0.0
81.864	3.0
81.879	2.0
81.894	0.0
81.909	3.0
81.924	3.0
81.939	2.0
81.954	7.0
81.969	3.0
81.984	1.0
81.999	3.0
82.013	2.0
82.028	4.0
82.043	2.0
82.058	1.0
82.073	3.0
82.088	1.0
82.103	3.0
82.118	2.0
82.133	0.0
82.148	4.0
82.163	7.0
82.177	2.0
82.192	3.0
82.207	3.0
82.222	3.0
82.237	1.0
82.252	2.0
82.267	4.0
82.282	2.0
82.297	0.0
82.312	2.0
82.326	2.0
82.341	3.0
82.356	1.0
82.371	4.0
82.386	2.0
82.401	1.0
82.416	3.0
82.431	4.0
82.445	2.0
82.46	4.0
82.475	2.0
82.49	4.0
82.505	1.0
82.52	3.0
82.535	2.0
82.55	6.0
82.565	1.0
82.579	3.0
82.594	4.0
82.609	4.0
82.624	1.0
82.639	3.0
82.654	6.0
82.669	3.0
82.684	3.0
82.698	3.0
82.713	1.0
82.728	5.0
82.743	4.0
82.758	3.0
82.773	6.0
82.788	1.0
82.803	3.0
82.817	5.0
82.832	4.0
82.847	3.0
82.862	1.0
82.877	1.0
82.892	2.0
82.907	3.0
82.922	5.0
82.937	0.0
82.951	0.0
82.966	3.0
82.981	2.0
82.996	0.0
83.011	1.0
83.026	3.0
83.041	3.0
83.056	1.0
83.07	1.0
83.085	4.0
83.1	4.0
83.115	1.0
83.13	2.0
83.145	5.0
83.16	2.0
83.175	4.0
83.19	4.0
83.204	0.0
83.219	3.0
83.234	1.0
83.249	1.0
83.264	4.0
83.279	2.0
83.294	6.0
83.309	2.0
83.324	5.0
83.339	3.0
83.353	4.0
83.368	3.0
83.383	2.0
83.398	4.0
83.413	3.0
83.428	6.0
83.443	3.0
83.458	8.0
83.473	1.0
83.488	2.0
83.503	3.0
83.517	4.0
83.532	4.0
83.547	2.0
83.562	7.0
83.577	6.0
83.592	4.0
83.607	3.0
83.622	6.0
83.637	0.0
83.652	4.0
83.667	2.0
83.682	3.0
83.697	4.0
83.712	2.0
83.727	4.0
83.741	1.0
83.756	4.0
83.771	3.0
83.786	2.0
83.801	8.0
83.816	1.0
83.831	1.0
83.846	4.0
83.861	5.0
83.876	2.0
83.891	5.0
83.906	4.0
83.921	6.0
83.936	4.0
83.951	3.0
83.966	5.0
83.981	4.0
83.996	5.0
84.011	2.0
84.026	7.0
84.041	5.0
84.056	3.0
84.071	3.0
84.086	2.0
84.101	2.0
84.116	6.0
84.131	8.0
84.146	5.0
84.161	1.0
84.176	2.0
84.191	1.0
84.206	4.0
84.221	6.0
84.236	2.0
84.251	4.0
84.266	3.0
84.281	6.0
84.296	5.0
84.311	4.0
84.326	1.0
84.341	7.0
84.356	5.0
84.371	4.0
84.386	5.0
84.401	3.0
84.416	2.0
84.431	4.0
84.446	4.0
84.461	3.0
84.476	2.0
84.492	1.0
84.507	2.0
84.522	2.0
84.537	2.0
84.552	2.0
84.567	5.0
84.582	2.0
84.597	3.0
84.612	0.0
84.627	2.0
84.642	2.0
84.657	5.0
84.672	2.0
84.687	2.0
84.702	2.0
84.717	3.0
84.733	2.0
84.748	1.0
84.763	7.0
84.778	3.0
84.793	5.0
84.808	3.0
84.823	6.0
84.838	7.0
84.853	3.0
84.868	4.0
84.883	2.0
84.898	2.0
84.913	2.0
84.929	5.0
84.944	5.0
84.959	3.0
84.974	3.0
84.989	3.0
85.004	4.0
85.019	2.0
85.034	1.0
85.049	3.0
85.064	2.0
85.079	4.0
85.094	1.0
85.11	0.0
85.125	1.0
85.14	3.0
85.155	3.0
85.17	4.0
85.185	3.0
85.2	2.0
85.215	4.0
85.23	3.0
85.245	5.0
85.26	3.0
85.276	3.0
85.291	5.0
85.306	6.0
85.321	4.0
85.336	9.0
85.351	2.0
85.366	3.0
85.381	3.0
85.396	1.0
85.411	5.0
85.426	6.0
85.441	0.0
85.457	4.0
85.472	5.0
85.487	3.0
85.502	2.0
85.517	6.0
85.532	5.0
85.547	1.0
85.562	2.0
85.577	7.0
85.592	2.0
85.607	4.0
85.622	4.0
85.637	4.0
85.653	3.0
85.668	1.0
85.683	3.0
85.698	5.0
85.713	2.0
85.728	2.0
85.743	1.0
85.758	3.0
85.773	4.0
85.788	1.0
85.803	2.0
85.818	3.0
85.833	6.0
85.848	2.0
85.863	3.0
85.879	0.0
85.894	3.0
85.909	2.0
85.924	4.0
85.939	3.0
85.954	3.0
85.969	5.0
85.984	0.0
85.999	5.0
86.014	5.0
86.029	4.0
86.044	6.0
86.059	6.0
86.074	3.0
86.089	4.0
86.104	1.0
86.119	1.0
86.134	2.0
86.149	4.0
86.164	1.0
86.179	4.0
86.194	4.0
86.209	3.0
86.224	6.0
86.239	2.0
86.254	2.0
86.269	4.0
86.284	2.0
86.299	4.0
86.314	2.0
86.33	5.0
86.345	3.0
86.36	2.0
86.375	1.0
86.39	5.0
86.405	1.0
86.42	1.0
86.435	6.0
86.45	3.0
86.465	4.0
86.48	5.0
86.495	7.0
86.51	2.0
86.525	3.0
86.54	2.0
86.555	2.0
86.57	2.0
86.585	3.0
86.6	1.0
86.615	2.0
86.63	6.0
86.645	3.0
86.659	3.0
86.674	4.0
86.689	1.0
86.704	2.0
86.719	2.0
86.734	5.0
86.749	3.0
86.764	1.0
86.779	3.0
86.794	4.0
86.809	0.0
86.824	5.0
86.839	5.0
86.854	3.0
86.869	6.0
86.884	1.0
86.899	5.0
86.914	3.0
86.929	5.0
86.944	5.0
86.959	3.0
86.974	5.0
86.989	2.0
87.004	4.0
87.019	1.0
87.034	3.0
87.049	2.0
87.064	4.0
87.079	3.0
87.094	4.0
87.109	4.0
87.124	2.0
87.139	2.0
87.154	2.0
87.169	3.0
87.184	2.0
87.199	5.0
87.214	3.0
87.229	4.0
87.244	1.0
87.259	2.0
87.274	1.0
87.289	2.0
87.304	3.0
87.319	3.0
87.334	2.0
87.349	2.0
87.364	1.0
87.379	1.0
87.394	2.0
87.409	8.0
87.424	2.0
87.438	7.0
87.453	3.0
87.468	6.0
87.483	2.0
87.498	3.0
87.513	4.0
87.528	2.0
87.543	4.0
87.558	5.0
87.573	8.0
87.588	3.0
87.603	4.0
87.618	7.0
87.633	1.0
87.648	7.0
87.663	2.0
87.678	5.0
87.693	8.0
87.708	4.0
87.723	7.0
87.738	3.0
87.753	1.0
87.768	8.0
87.783	2.0
87.798	2.0
87.813	4.0
87.828	4.0
87.843	5.0
87.858	3.0
87.873	4.0
87.888	2.0
87.903	5.0
87.918	4.0
87.933	3.0
87.948	2.0
87.963	6.0
87.978	2.0
87.993	1.0
88.008	5.0
88.023	2.0
88.038	3.0
88.053	0.0
88.068	4.0
88.083	1.0
88.098	3.0
88.113	1.0
88.128	4.0
88.143	4.0
88.158	1.0
88.174	1.0
88.189	1.0
88.204	7.0
88.219	6.0
88.234	5.0
88.249	2.0
88.264	2.0
88.279	4.0
88.294	3.0
88.309	4.0
88.324	0.0
88.339	5.0
88.354	2.0
88.369	3.0
88.384	5.0
88.399	3.0
88.414	1.0
88.429	4.0
88.444	3.0
88.459	2.0
88.474	7.0
88.489	4.0
88.504	5.0
88.519	1.0
88.534	2.0
88.549	4.0
88.564	3.0
88.58	3.0
88.595	4.0
88.61	4.0
88.625	6.0
88.64	6.0
88.655	4.0
88.67	3.0
88.685	6.0
88.7	1.0
88.715	2.0
88.73	2.0
88.745	2.0
88.76	2.0
88.775	0.0
88.79	0.0
88.805	3.0
88.82	3.0
88.835	3.0
88.85	2.0
88.865	4.0
88.88	3.0
88.895	2.0
88.911	4.0
88.926	2.0
88.941	3.0
88.956	2.0
88.971	4.0
88.986	3.0
89.001	2.0
89.016	4.0
89.031	4.0
89.046	2.0
89.061	7.0
89.076	3.0
89.091	0.0
89.106	6.0
89.121	2.0
89.136	4.0
89.151	3.0
89.166	5.0
89.181	4.0
89.196	3.0
89.211	3.0
89.227	5.0
89.242	6.0
89.257	3.0
89.272	4.0
89.287	2.0
89.302	8.0
89.317	2.0
89.332	5.0
89.347	6.0
89.362	4.0
89.377	2.0
89.392	5.0
89.407	4.0
89.422	5.0
89.437	1.0
89.452	2.0
89.467	2.0
89.482	3.0
89.497	2.0
89.512	7.0
89.527	5.0
89.542	0.0
89.557	2.0
89.572	6.0
89.587	1.0
89.602	3.0
89.617	5.0
89.632	3.0
89.647	1.0
89.662	3.0
89.677	0.0
89.693	2.0
89.708	3.0
89.723	4.0
89.738	3.0
89.753	3.0
89.768	2.0
89.783	3.0
89.798	2.0
89.813	1.0
89.828	2.0
89.843	4.0
89.858	0.0
89.873	3.0
89.888	2.0
89.903	5.0
89.918	2.0
89.933	2.0
89.948	1.0
89.963	5.0
89.978	5.0
89.993	7.0
90.008	2.0
90.023	3.0
90.038	3.0
90.053	1.0
90.068	2.0
90.083	4.0
90.097	2.0
90.112	3.0
90.127	5.0
90.142	8.0
90.157	5.0
90.172	5.0
90.187	4.0
90.202	3.0
90.217	3.0
90.232	2.0
90.247	7.0
90.262	4.0
90.277	9.0
90.292	2.0
90.307	7.0
90.322	6.0
90.337	2.0
90.352	2.0
90.367	4.0
90.382	3.0
90.397	5.0
90.412	1.0
90.427	5.0
90.442	4.0
90.457	4.0
90.472	1.0
90.487	4.0
90.501	5.0
90.516	0.0
90.531	4.0
90.546	0.0
90.561	4.0
90.576	5.0
90.591	3.0
90.606	4.0
90.621	3.0
90.636	5.0
90.651	2.0
90.666	2.0
90.681	6.0
90.696	4.0
90.711	4.0
90.726	2.0
90.741	7.0
90.755	3.0
90.77	2.0
90.785	6.0
90.8	3.0
90.815	3.0
90.83	4.0
90.845	3.0
90.86	3.0
90.875	5.0
90.89	5.0
90.905	1.0
90.92	4.0
90.935	7.0
90.95	8.0
90.965	5.0
90.979	6.0
90.994	1.0
91.009	1.0
91.024	8.0
91.039	3.0
91.054	4.0
91.069	6.0
91.084	3.0
91.099	1.0
91.114	5.0
91.129	2.0
91.144	4.0
91.159	5.0
91.174	5.0
91.188	4.0
91.203	1.0
91.218	4.0
91.233	4.0
91.248	3.0
91.263	4.0
91.278	4.0
91.293	2.0
91.308	0.0
91.323	3.0
91.338	2.0
91.353	1.0
91.368	5.0
91.383	7.0
91.398	6.0
91.412	5.0
91.427	8.0
91.442	1.0
91.457	3.0
91.472	4.0
91.487	2.0
91.502	2.0
91.517	3.0
91.532	3.0
91.547	1.0
91.562	3.0
91.577	2.0
91.592	3.0
91.607	3.0
91.622	3.0
91.637	5.0
91.652	4.0
91.666	10.0
91.681	7.0
91.696	2.0
91.711	3.0
91.726	3.0
91.741	4.0
91.756	4.0
91.771	1.0
91.786	5.0
91.801	7.0
91.816	9.0
91.831	5.0
91.846	5.0
91.861	0.0
91.876	4.0
91.891	1.0
91.906	4.0
91.921	5.0
91.936	5.0
91.951	1.0
91.966	1.0
91.981	2.0
91.995	3.0
92.01	7.0
92.025	5.0
92.04	3.0
92.055	3.0
92.07	2.0
92.085	3.0
92.1	1.0
92.115	1.0
92.13	5.0
92.145	2.0
92.16	5.0
92.175	0.0
92.19	5.0
92.205	2.0
92.22	2.0
92.235	3.0
92.25	2.0
92.265	3.0
92.28	3.0
92.295	3.0
92.31	6.0
92.325	3.0
92.34	4.0
92.355	5.0
92.37	5.0
92.385	2.0
92.4	4.0
92.415	3.0
92.43	2.0
92.445	1.0
92.46	1.0
92.475	2.0
92.49	1.0
92.505	2.0
92.52	4.0
92.535	5.0
92.55	3.0
92.565	3.0
92.58	4.0
92.595	0.0
92.61	2.0
92.625	0.0
92.64	0.0
92.655	3.0
92.67	1.0
92.685	1.0
92.7	6.0
92.715	4.0
92.73	4.0
92.745	3.0
92.76	5.0
92.775	2.0
92.79	1.0
92.805	2.0
92.82	2.0
92.835	3.0
92.85	5.0
92.865	3.0
92.88	4.0
92.895	4.0
92.91	6.0
92.925	1.0
92.94	4.0
92.955	3.0
92.97	4.0
92.985	2.0
93.0	6.0
93.015	1.0
93.03	2.0
93.045	1.0
93.06	3.0
93.075	1.0
93.09	3.0
93.105	2.0
93.12	2.0
93.135	3.0
93.15	3.0
93.165	2.0
93.18	3.0
93.195	3.0
93.21	5.0
93.225	4.0
93.24	2.0
93.255	5.0
93.27	1.0
93.285	1.0
93.3	3.0
93.315	3.0
93.33	0.0
93.345	2.0
93.36	4.0
93.375	2.0
93.39	2.0
93.405	6.0
93.42	1.0
93.435	1.0
93.45	2.0
93.465	7.0
93.48	3.0
93.495	5.0
93.51	0.0
93.525	2.0
93.54	2.0
93.555	4.0
93.57	1.0
93.585	3.0
93.6	3.0
93.615	1.0
93.63	5.0
93.645	4.0
93.66	3.0
93.675	1.0
93.69	2.0
93.705	2.0
93.72	3.0
93.735	3.0
93.75	5.0
93.765	3.0
93.78	1.0
93.795	5.0
93.81	5.0
93.824	6.0
93.839	5.0
93.854	3.0
93.869	1.0
93.884	2.0
93.899	5.0
93.914	4.0
93.929	7.0
93.944	3.0
93.959	3.0
93.974	5.0
93.989	2.0
94.004	1.0
94.019	4.0
94.034	4.0
94.049	0.0
94.064	5.0
94.079	0.0
94.094	4.0
94.108	2.0
94.123	2.0
94.138	4.0
94.153	2.0
94.168	4.0
94.183	3.0
94.198	5.0
94.213	3.0
94.228	1.0
94.243	1.0
94.258	1.0
94.273	2.0
94.288	5.0
94.302	4.0
94.317	3.0
94.332	5.0
94.347	4.0
94.362	5.0
94.377	9.0
94.392	3.0
94.407	4.0
94.422	9.0
94.437	3.0
94.452	6.0
94.466	3.0
94.481	9.0
94.496	4.0
94.511	3.0
94.526	4.0
94.541	2.0
94.556	3.0
94.571	3.0
94.586	4.0
94.601	3.0
94.615	2.0
94.63	2.0
94.645	1.0
94.66	2.0
94.675	4.0
94.69	2.0
94.705	7.0
94.72	3.0
94.735	2.0
94.749	2.0
94.764	1.0
94.779	1.0
94.794	0.0
94.809	4.0
94.824	3.0
94.839	4.0
94.854	6.0
94.868	4.0
94.883	2.0
94.898	4.0
94.913	1.0
94.928	1.0
94.943	8.0
94.958	4.0
94.973	2.0
94.987	0.0
95.002	2.0
95.017	3.0
95.032	7.0
95.047	4.0
95.062	5.0
95.077	3.0
95.092	4.0
95.106	3.0
95.121	3.0
95.136	1.0
95.151	6.0
95.166	6.0
95.181	2.0
95.196	5.0
95.211	8.0
95.226	8.0
95.24	10.0
95.255	2.0
95.27	2.0
95.285	2.0
95.3	4.0
95.315	3.0
95.33	4.0
95.345	4.0
95.359	7.0
95.374	5.0
95.389	6.0
95.404	2.0
95.419	3.0
95.434	3.0
95.449	3.0
95.464	4.0
95.478	4.0
95.493	1.0
95.508	4.0
95.523	5.0
95.538	2.0
95.553	4.0
95.568	5.0
95.583	4.0
95.597	4.0
95.612	3.0
95.627	5.0
95.642	3.0
95.657	3.0
95.672	1.0
95.687	3.0
95.702	4.0
95.717	2.0
95.731	2.0
95.746	3.0
95.761	3.0
95.776	4.0
95.791	2.0
95.806	2.0
95.821	3.0
95.836	4.0
95.851	3.0
95.866	2.0
95.88	3.0
95.895	0.0
95.91	3.0
95.925	4.0
95.94	5.0
95.955	2.0
95.97	4.0
95.985	3.0
96.0	7.0
96.015	1.0
96.029	3.0
96.044	3.0
96.059	4.0
96.074	3.0
96.089	4.0
96.104	1.0
96.119	2.0
96.134	2.0
96.149	2.0
96.164	2.0
96.179	2.0
96.194	3.0
96.208	6.0
96.223	3.0
96.238	1.0
96.253	0.0
96.268	0.0
96.283	5.0
96.298	2.0
96.313	4.0
96.328	5.0
96.343	4.0
96.358	2.0
96.373	1.0
96.388	7.0
96.403	5.0
96.417	1.0
96.432	2.0
96.447	3.0
96.462	3.0
96.477	1.0
96.492	2.0
96.507	2.0
96.522	1.0
96.537	3.0
96.552	2.0
96.567	8.0
96.582	1.0
96.597	4.0
96.612	4.0
96.627	2.0
96.642	4.0
96.656	3.0
96.671	6.0
96.686	5.0
96.701	3.0
96.716	2.0
96.731	5.0
96.746	3.0
96.761	1.0
96.776	2.0
96.791	7.0
96.806	5.0
96.821	4.0
96.836	2.0
96.851	1.0
96.866	7.0
96.881	1.0
96.896	6.0
96.911	3.0
96.926	3.0
96.94	0.0
96.955	5.0
96.97	2.0
96.985	6.0
97.0	3.0
97.015	3.0
97.03	4.0
97.045	9.0
97.06	4.0
97.075	3.0
97.09	3.0
97.105	1.0
97.12	3.0
97.135	3.0
97.15	3.0
97.165	2.0
97.18	2.0
97.195	0.0
97.21	4.0
97.225	3.0
97.239	3.0
97.254	5.0
97.269	2.0
97.284	4.0
97.299	10.0
97.314	5.0
97.329	2.0
97.344	3.0
97.359	3.0
97.374	3.0
97.389	3.0
97.404	1.0
97.419	2.0
97.434	5.0
97.449	1.0
97.464	2.0
97.479	4.0
97.494	2.0
97.509	4.0
97.524	1.0
97.538	4.0
97.553	6.0
97.568	5.0
97.583	5.0
97.598	1.0
97.613	1.0
97.628	5.0
97.643	3.0
97.658	3.0
97.673	4.0
97.688	2.0
97.703	3.0
97.718	2.0
97.733	5.0
97.748	2.0
97.763	4.0
97.778	9.0
97.792	3.0
97.807	4.0
97.822	6.0
97.837	2.0
97.852	3.0
97.867	3.0
97.882	3.0
97.897	3.0
97.912	3.0
97.927	3.0
97.942	5.0
97.957	7.0
97.972	0.0
97.987	4.0
98.001	1.0
98.016	3.0
98.031	5.0
98.046	3.0
98.061	4.0
98.076	0.0
98.091	4.0
98.106	5.0
98.121	5.0
98.136	2.0
98.151	4.0
98.166	3.0
98.181	2.0
98.195	2.0
98.21	0.0
98.225	1.0
98.24	6.0
98.255	2.0
98.27	1.0
98.285	1.0
98.3	2.0
98.315	2.0
98.33	4.0
98.345	1.0
98.359	3.0
98.374	1.0
98.389	4.0
98.404	4.0
98.419	2.0
98.434	2.0
98.449	2.0
98.464	0.0
98.479	3.0
98.494	3.0
98.508	5.0
98.523	2.0
98.538	2.0
98.553	0.0
98.568	3.0
98.583	3.0
98.598	4.0
98.613	4.0
98.628	3.0
98.642	2.0
98.657	2.0
98.672	6.0
98.687	3.0
98.702	6.0
98.717	4.0
98.732	5.0
98.747	6.0
98.762	5.0
98.776	3.0
98.791	2.0
98.806	1.0
98.821	0.0
98.836	1.0
98.851	1.0
98.866	3.0
98.881	4.0
98.896	5.0
98.91	2.0
98.925	4.0
98.94	0.0
98.955	5.0
98.97	4.0
98.985	5.0
99.0	3.0
99.015	1.0
99.029	3.0
99.044	4.0
99.059	1.0
99.074	5.0
99.089	1.0
99.104	7.0
99.119	0.0
99.133	7.0
99.148	3.0
99.163	2.0
99.178	3.0
99.193	3.0
99.208	6.0
99.223	2.0
99.238	5.0
99.252	0.0
99.267	1.0
99.282	6.0
99.297	3.0
99.312	3.0
99.327	2.0
99.342	6.0
99.356	1.0
99.371	3.0
99.386	5.0
99.401	5.0
99.416	2.0
99.431	4.0
99.446	1.0
99.461	4.0
99.475	2.0
99.49	2.0
99.505	3.0
99.52	2.0
99.535	1.0
99.55	4.0
99.565	4.0
99.579	3.0
99.594	0.0
99.609	8.0
99.624	3.0
99.639	6.0
99.654	2.0
99.669	2.0
99.683	1.0
99.698	2.0
99.713	2.0
99.728	7.0
99.743	2.0
99.758	2.0
99.772	4.0
99.787	5.0
99.802	4.0
99.817	3.0
99.832	2.0
99.847	3.0
99.862	5.0
99.876	2.0
99.891	3.0
99.906	2.0
99.921	2.0
99.936	1.0
99.951	4.0
99.966	2.0
99.98	4.0
99.995	1.0
100.01	5.0
100.025	4.0
100.04	5.0
100.055	5.0
100.069	2.0
100.084	0.0
100.099	1.0
100.114	3.0
100.129	2.0
100.144	3.0
100.159	5.0
100.173	3.0
100.188	4.0
100.203	4.0
100.218	4.0
100.233	5.0
100.248	3.0
100.262	1.0
100.277	4.0
100.292	0.0
100.307	5.0
100.322	4.0
100.337	3.0
100.351	6.0
100.366	2.0
100.381	1.0
100.396	8.0
100.411	3.0
100.426	0.0
100.441	4.0
100.455	3.0
100.47	4.0
100.485	1.0
100.5	3.0
100.515	4.0
100.53	1.0
100.544	6.0
100.559	1.0
100.574	2.0
100.589	1.0
100.604	4.0
100.619	3.0
100.633	2.0
100.648	1.0
100.663	2.0
100.678	4.0
100.693	6.0
100.708	7.0
100.722	2.0
100.737	2.0
100.752	4.0
100.767	7.0
100.782	4.0
100.796	3.0
100.811	0.0
100.826	2.0
100.841	5.0
100.856	2.0
100.871	2.0
100.885	1.0
100.9	2.0
100.915	2.0
100.93	2.0
100.945	2.0
100.96	5.0
100.974	4.0
100.989	5.0
101.004	4.0
101.019	4.0
101.034	5.0
101.048	3.0
101.063	2.0
101.078	2.0
101.093	2.0
101.108	2.0
101.123	2.0
101.137	3.0
101.152	4.0
101.167	3.0
101.182	3.0
101.197	4.0
101.211	4.0
101.226	3.0
101.241	3.0
101.256	6.0
101.271	3.0
101.285	3.0
101.3	6.0
101.315	3.0
101.33	2.0
101.345	1.0
101.359	3.0
101.374	2.0
101.389	4.0
101.404	4.0
101.419	4.0
101.433	1.0
101.448	6.0
101.463	3.0
101.478	3.0
101.493	2.0
101.507	4.0
101.522	8.0
101.537	2.0
101.552	1.0
101.567	2.0
101.581	4.0
101.596	2.0
101.611	4.0
101.626	3.0
101.64	0.0
101.655	6.0
101.67	0.0
101.685	1.0
101.7	2.0
101.714	1.0
101.729	3.0
101.744	1.0
101.759	2.0
101.773	4.0
101.788	4.0
101.803	1.0
101.818	4.0
101.833	1.0
101.847	2.0
101.862	2.0
101.877	6.0
101.892	2.0
101.906	3.0
101.921	6.0
101.936	1.0
101.951	4.0
101.965	4.0
101.98	4.0
101.995	2.0
102.01	2.0
102.025	2.0
102.039	3.0
102.054	3.0
102.069	2.0
102.084	2.0
102.098	5.0
102.113	6.0
102.128	1.0
102.143	3.0
102.157	5.0
102.172	2.0
102.187	4.0
102.202	2.0
102.216	3.0
102.231	2.0
102.246	5.0
102.261	0.0
102.275	0.0
102.29	8.0
102.305	3.0
102.32	4.0
102.334	4.0
102.349	3.0
102.364	7.0
102.378	4.0
102.393	3.0
102.408	3.0
102.423	2.0
102.437	4.0
102.452	4.0
102.467	1.0
102.482	3.0
102.496	5.0
102.511	4.0
102.526	2.0
102.541	2.0
102.555	2.0
102.57	4.0
102.585	6.0
102.6	3.0
102.614	3.0
102.629	5.0
102.644	3.0
102.659	3.0
102.673	1.0
102.688	0.0
102.703	2.0
102.717	2.0
102.732	6.0
102.747	4.0
102.762	1.0
102.776	3.0
102.791	2.0
102.806	6.0
102.821	4.0
102.835	4.0
102.85	2.0
102.865	2.0
102.88	3.0
102.894	8.0
102.909	3.0
102.924	3.0
102.938	5.0
102.953	2.0
102.968	1.0
102.983	3.0
102.997	4.0
103.012	3.0
103.027	4.0
103.042	5.0
103.056	4.0
103.071	4.0
103.086	6.0
103.101	5.0
103.115	2.0
103.13	4.0
103.145	3.0
103.16	4.0
103.174	1.0
103.189	2.0
103.204	8.0
103.219	3.0
103.233	2.0
103.248	4.0
103.263	2.0
103.278	2.0
103.292	4.0
103.307	4.0
103.322	6.0
103.337	4.0
103.351	0.0
103.366	1.0
103.381	3.0
103.396	2.0
103.41	2.0
103.425	3.0
103.44	4.0
103.455	5.0
103.469	2.0
103.484	4.0
103.499	4.0
103.514	1.0
103.529	1.0
103.543	1.0
103.558	3.0
103.573	2.0
103.588	2.0
103.602	1.0
103.617	5.0
103.632	2.0
103.647	0.0
103.661	6.0
103.676	2.0
103.691	8.0
103.706	5.0
103.721	6.0
103.735	2.0
103.75	7.0
103.765	5.0
103.78	5.0
103.795	7.0
103.809	3.0
103.824	2.0
103.839	5.0
103.854	5.0
103.869	4.0
103.883	1.0
103.898	4.0
103.913	4.0
103.928	4.0
103.943	3.0
103.957	2.0
103.972	3.0
103.987	4.0
104.002	2.0
104.017	3.0
104.031	3.0
104.046	1.0
104.061	5.0
104.076	3.0
104.091	1.0
104.106	2.0
104.12	4.0
104.135	2.0
104.15	4.0
104.165	6.0
104.18	4.0
104.195	3.0
104.209	2.0
104.224	2.0
104.239	4.0
104.254	6.0
104.269	5.0
104.284	2.0
104.299	5.0
104.313	1.0
104.328	5.0
104.343	4.0
104.358	4.0
104.373	2.0
104.388	0.0
104.403	6.0
104.417	6.0
104.432	1.0
104.447	6.0
104.462	5.0
104.477	6.0
104.492	1.0
104.507	4.0
104.522	5.0
104.536	2.0
104.551	4.0
104.566	4.0
104.581	7.0
104.596	3.0
104.611	5.0
104.626	7.0
104.641	3.0
104.656	2.0
104.67	0.0
104.685	5.0
104.7	5.0
104.715	7.0
104.73	6.0
104.745	2.0
104.76	0.0
104.775	2.0
104.79	4.0
104.804	3.0
104.819	3.0
104.834	4.0
104.849	5.0
104.864	3.0
104.879	7.0
104.894	4.0
104.909	2.0
104.924	1.0
104.939	8.0
104.954	5.0
104.968	5.0
104.983	2.0
104.998	2.0
105.013	2.0
105.028	3.0
105.043	5.0
105.058	8.0
105.073	4.0
105.088	0.0
105.103	4.0
105.118	5.0
105.133	5.0
105.147	2.0
105.162	4.0
105.177	1.0
105.192	0.0
105.207	1.0
105.222	6.0
105.237	2.0
105.252	4.0
105.267	0.0
105.282	3.0
105.297	1.0
105.312	6.0
105.327	6.0
105.342	3.0
105.356	2.0
105.371	5.0
105.386	8.0
105.401	5.0
105.416	0.0
105.431	5.0
105.446	4.0
105.461	4.0
105.476	4.0
105.491	4.0
105.506	5.0
105.521	2.0
105.536	2.0
105.551	2.0
105.566	3.0
105.581	7.0
105.595	1.0
105.61	2.0
105.625	3.0
105.64	1.0
105.655	3.0
105.67	5.0
105.685	3.0
105.7	4.0
105.715	4.0
105.73	6.0
105.745	4.0
105.76	3.0
105.775	4.0
105.79	5.0
105.805	2.0
105.82	1.0
105.835	2.0
105.85	4.0
105.864	5.0
105.879	1.0
105.894	2.0
105.909	5.0
105.924	5.0
105.939	2.0
105.954	2.0
105.969	2.0
105.984	3.0
105.999	1.0
106.014	2.0
106.029	4.0
106.044	3.0
106.059	3.0
106.074	7.0
106.089	1.0
106.104	2.0
106.119	3.0
106.134	8.0
106.148	1.0
106.163	6.0
106.178	8.0
106.193	3.0
106.208	8.0
106.223	2.0
106.238	3.0
106.253	3.0
106.268	2.0
106.283	1.0
106.298	4.0
106.313	2.0
106.328	2.0
106.343	5.0
106.358	4.0
106.373	3.0
106.388	4.0
106.403	7.0
106.418	5.0
106.432	3.0
106.447	4.0
106.462	3.0
106.477	3.0
106.492	2.0
106.507	8.0
106.522	4.0
106.537	7.0
106.552	3.0
106.567	1.0
106.582	2.0
106.597	2.0
106.612	4.0
106.627	4.0
106.642	3.0
106.657	4.0
106.672	1.0
106.687	2.0
106.701	0.0
106.716	4.0
106.731	5.0
106.746	6.0
106.761	5.0
106.776	5.0
106.791	2.0
106.806	5.0
106.821	1.0
106.836	5.0
106.851	5.0
106.866	9.0
106.881	4.0
106.896	1.0
106.911	2.0
106.926	3.0
106.941	5.0
106.955	3.0
106.97	3.0
106.985	2.0
107.0	3.0
107.015	1.0
107.03	4.0
107.045	3.0
107.06	3.0
107.075	3.0
107.09	3.0
107.105	0.0
107.12	4.0
107.135	4.0
107.15	3.0
107.165	2.0
107.18	4.0
107.194	4.0
107.209	5.0
107.224	2.0
107.239	7.0
107.254	6.0
107.269	4.0
107.284	7.0
107.299	3.0
107.314	6.0
107.329	3.0
107.344	5.0
107.359	3.0
107.374	3.0
107.389	3.0
107.404	5.0
107.418	3.0
107.433	3.0
107.448	2.0
107.463	3.0
107.478	3.0
107.493	4.0
107.508	3.0
107.523	5.0
107.538	1.0
107.553	1.0
107.568	4.0
107.583	0.0
107.598	3.0
107.613	5.0
107.627	2.0
107.642	5.0
107.657	1.0
107.672	4.0
107.687	3.0
107.702	4.0
107.717	3.0
107.732	5.0
107.747	4.0
107.762	1.0
107.777	2.0
107.792	2.0
107.807	5.0
107.821	4.0
107.836	4.0
107.851	1.0
107.866	4.0
107.881	1.0
107.896	3.0
107.911	4.0
107.926	2.0
107.941	5.0
107.956	6.0
107.971	6.0
107.986	7.0
108.0	3.0
108.015	2.0
108.03	6.0
108.045	7.0
108.06	4.0
108.075	7.0
108.09	4.0
108.105	5.0
108.12	5.0
108.135	4.0
108.15	3.0
108.164	5.0
108.179	7.0
108.194	7.0
108.209	4.0
108.224	0.0
108.239	7.0
108.254	3.0
108.269	2.0
108.284	3.0
108.299	4.0
108.313	4.0
108.328	1.0
108.343	3.0
108.358	2.0
108.373	0.0
108.388	5.0
108.403	7.0
108.418	0.0
108.433	3.0
108.448	4.0
108.462	3.0
108.477	1.0
108.492	6.0
108.507	2.0
108.522	1.0
108.537	5.0
108.552	4.0
108.567	3.0
108.582	4.0
108.597	1.0
108.611	1.0
108.626	2.0
108.641	2.0
108.656	2.0
108.671	3.0
108.686	1.0
108.701	6.0
108.716	4.0
108.731	1.0
108.745	6.0
108.76	5.0
108.775	3.0
108.79	3.0
108.805	3.0
108.82	5.0
108.835	4.0
108.85	5.0
108.865	5.0
108.879	4.0
108.894	5.0
108.909	4.0
108.924	10.0
108.939	4.0
108.954	4.0
108.969	4.0
108.984	4.0
108.999	4.0
109.013	6.0
109.028	3.0
109.043	4.0
109.058	3.0
109.073	5.0
109.088	4.0
109.103	2.0
109.118	1.0
109.133	2.0
109.147	5.0
109.162	3.0
109.177	5.0
109.192	6.0
109.207	1.0
109.222	1.0
109.237	3.0
109.252	6.0
109.267	4.0
109.281	4.0
109.296	1.0
109.311	1.0
109.326	3.0
109.341	2.0
109.356	1.0
109.371	1.0
109.386	5.0
109.4	4.0
109.415	1.0
109.43	4.0
109.445	2.0
109.46	3.0
109.475	4.0
109.49	4.0
109.505	5.0
109.52	2.0
109.534	4.0
109.549	1.0
109.564	4.0
109.579	3.0
109.594	2.0
109.609	2.0
109.624	1.0
109.639	2.0
109.653	2.0
109.668	3.0
109.683	5.0
109.698	3.0
109.713	4.0
109.728	5.0
109.743	2.0
109.758	3.0
109.773	3.0
109.787	7.0
109.802	2.0
109.817	5.0
109.832	2.0
109.847	4.0
109.862	4.0
109.877	1.0
109.892	4.0
109.907	4.0
109.921	2.0
109.936	4.0
109.951	0.0
109.966	5.0
109.981	4.0
109.996	4.0
110.011	2.0
110.026	4.0
110.04	1.0
110.055	3.0
110.07	1.0
110.085	3.0
110.1	2.0
110.115	3.0
110.13	3.0
110.145	4.0
110.16	5.0
110.174	3.0
110.189	2.0
110.204	5.0
110.219	3.0
110.234	2.0
110.249	1.0
110.264	2.0
110.279	1.0
110.294	3.0
110.308	5.0
110.323	2.0
110.338	1.0
110.353	0.0
110.368	3.0
110.383	1.0
110.398	2.0
110.413	4.0
110.428	4.0
110.442	1.0
110.457	5.0
110.472	2.0
110.487	3.0
110.502	2.0
110.517	2.0
110.532	2.0
110.547	3.0
110.561	6.0
110.576	4.0
110.591	2.0
110.606	2.0
110.621	5.0
110.636	4.0
110.651	1.0
110.666	3.0
110.681	6.0
110.695	5.0
110.71	3.0
110.725	6.0
110.74	2.0
110.755	2.0
110.77	5.0
110.785	2.0
110.8	3.0
110.815	4.0
110.829	2.0
110.844	6.0
110.859	3.0
110.874	2.0
110.889	6.0
110.904	4.0
110.919	2.0
110.934	1.0
110.948	3.0
110.963	5.0
110.978	1.0
110.993	5.0
111.008	4.0
111.023	3.0
111.038	5.0
111.053	2.0
111.067	5.0
111.082	5.0
111.097	0.0
111.112	3.0
111.127	7.0
111.142	3.0
111.157	1.0
111.172	3.0
111.186	9.0
111.201	3.0
111.216	5.0
111.231	4.0
111.246	1.0
111.261	2.0
111.276	4.0
111.291	1.0
111.305	6.0
111.32	5.0
111.335	2.0
111.35	0.0
111.365	4.0
111.38	0.0
111.395	2.0
111.41	3.0
111.424	1.0
111.439	3.0
111.454	1.0
111.469	2.0
111.484	4.0
111.499	2.0
111.514	3.0
111.528	3.0
111.543	4.0
111.558	3.0
111.573	4.0
111.588	8.0
111.603	3.0
111.618	5.0
111.633	2.0
111.647	3.0
111.662	6.0
111.677	4.0
111.692	9.0
111.707	4.0
111.722	7.0
111.737	7.0
111.751	6.0
111.766	3.0
111.781	0.0
111.796	1.0
111.811	4.0
111.826	0.0
111.84	4.0
111.855	6.0
111.87	3.0
111.885	4.0
111.9	2.0
111.915	1.0
111.93	4.0
111.944	2.0
111.959	2.0
111.974	4.0
111.989	1.0
112.004	4.0
112.019	3.0
112.033	4.0
112.048	1.0
112.063	2.0
112.078	6.0
112.093	5.0
112.108	4.0
112.123	2.0
112.137	4.0
112.152	3.0
112.167	5.0
112.182	7.0
112.197	5.0
112.212	1.0
112.226	1.0
112.241	1.0
112.256	3.0
112.271	5.0
112.286	2.0
112.301	3.0
112.315	2.0
112.33	5.0
112.345	3.0
112.36	2.0
112.375	3.0
112.389	4.0
112.404	5.0
112.419	1.0
112.434	3.0
112.449	5.0
112.464	6.0
112.478	6.0
112.493	5.0
112.508	7.0
112.523	2.0
112.538	6.0
112.553	2.0
112.567	4.0
112.582	2.0
112.597	2.0
112.612	1.0
112.627	2.0
112.642	3.0
112.656	3.0
112.671	0.0
112.686	3.0
112.701	2.0
112.716	2.0
112.73	3.0
112.745	1.0
112.76	5.0
112.775	2.0
112.79	4.0
112.805	4.0
112.819	5.0
112.834	3.0
112.849	2.0
112.864	3.0
112.879	0.0
112.894	5.0
112.908	3.0
112.923	4.0
112.938	6.0
112.953	5.0
112.968	2.0
112.983	4.0
112.997	4.0
113.012	5.0
113.027	3.0
113.042	5.0
113.057	3.0
113.072	2.0
113.086	2.0
113.101	1.0
113.116	2.0
113.131	9.0
113.146	3.0
113.161	3.0
113.175	4.0
113.19	1.0
113.205	5.0
113.22	5.0
113.235	2.0
113.25	5.0
113.265	1.0
113.279	5.0
113.294	4.0
113.309	5.0
113.324	3.0
113.339	5.0
113.354	3.0
113.368	9.0
113.383	5.0
113.398	5.0
113.413	3.0
113.428	3.0
113.443	5.0
113.458	3.0
113.472	7.0
113.487	2.0
113.502	5.0
113.517	4.0
113.532	2.0
113.547	3.0
113.562	1.0
113.576	1.0
113.591	5.0
113.606	5.0
113.621	1.0
113.636	2.0
113.651	1.0
113.666	4.0
113.681	0.0
113.695	1.0
113.71	7.0
113.725	3.0
113.74	1.0
113.755	1.0
113.77	7.0
113.785	5.0
113.8	5.0
113.814	4.0
113.829	2.0
113.844	5.0
113.859	3.0
113.874	1.0
113.889	4.0
113.904	2.0
113.919	5.0
113.934	4.0
113.949	2.0
113.963	1.0
113.978	3.0
113.993	4.0
114.008	5.0
114.023	3.0
114.038	4.0
114.053	4.0
114.068	6.0
114.083	6.0
114.098	9.0
114.113	2.0
114.127	3.0
114.142	2.0
114.157	8.0
114.172	4.0
114.187	3.0
114.202	4.0
114.217	10.0
114.232	2.0
114.247	4.0
114.262	5.0
114.277	3.0
114.292	9.0
114.307	4.0
114.322	1.0
114.337	3.0
114.351	0.0
114.366	2.0
114.381	4.0
114.396	3.0
114.411	3.0
114.426	1.0
114.441	4.0
114.456	3.0
114.471	3.0
114.486	5.0
114.501	3.0
114.516	4.0
114.531	4.0
114.546	2.0
114.561	8.0
114.576	1.0
114.591	5.0
114.606	4.0
114.621	5.0
114.636	4.0
114.65	3.0
114.665	2.0
114.68	7.0
114.695	2.0
114.71	2.0
114.725	0.0
114.74	2.0
114.755	4.0
114.77	0.0
114.785	3.0
114.8	3.0
114.815	6.0
114.83	0.0
114.845	2.0
114.86	5.0
114.875	2.0
114.89	3.0
114.905	2.0
114.92	3.0
114.935	5.0
114.95	4.0
114.965	4.0
114.98	1.0
114.995	2.0
115.009	1.0
115.024	3.0
115.039	1.0
115.054	5.0
115.069	0.0
115.084	1.0
115.099	4.0
115.114	4.0
115.129	5.0
115.144	2.0
115.159	3.0
115.174	5.0
115.189	2.0
115.204	0.0
115.219	0.0
115.234	5.0
115.249	9.0
115.264	6.0
115.279	2.0
115.294	2.0
115.309	4.0
115.323	4.0
115.338	6.0
115.353	5.0
115.368	5.0
115.383	5.0
115.398	6.0
115.413	2.0
115.428	5.0
115.443	5.0
115.458	3.0
115.473	2.0
115.488	3.0
115.503	2.0
115.518	5.0
115.533	5.0
115.548	2.0
115.562	5.0
115.577	7.0
115.592	4.0
115.607	3.0
115.622	2.0
115.637	4.0
115.652	3.0
115.667	5.0
115.682	5.0
115.697	3.0
115.712	2.0
115.727	6.0
115.741	3.0
115.756	3.0
115.771	2.0
115.786	3.0
115.801	4.0
115.816	4.0
115.831	3.0
115.846	2.0
115.861	2.0
115.875	1.0
115.89	1.0
115.905	4.0
115.92	7.0
115.935	5.0
115.95	5.0
115.965	6.0
115.98	4.0
115.995	4.0
116.009	3.0
116.024	3.0
116.039	1.0
116.054	4.0
116.069	5.0
116.084	2.0
116.099	2.0
116.113	5.0
116.128	5.0
116.143	2.0
116.158	3.0
116.173	3.0
116.188	8.0
116.202	5.0
116.217	7.0
116.232	2.0
116.247	4.0
116.262	2.0
116.277	7.0
116.291	7.0
116.306	6.0
116.321	7.0
116.336	1.0
116.351	9.0
116.366	6.0
116.38	6.0
116.395	5.0
116.41	2.0
116.425	5.0
116.44	1.0
116.454	6.0
116.469	3.0
116.484	4.0
116.499	2.0
116.514	8.0
116.528	3.0
116.543	5.0
116.558	2.0
116.573	1.0
116.588	4.0
116.602	3.0
116.617	4.0
116.632	3.0
116.647	6.0
116.662	5.0
116.676	3.0
116.691	4.0
116.706	3.0
116.721	10.0
116.735	4.0
116.75	2.0
116.765	5.0
116.78	3.0
116.795	6.0
116.809	5.0
116.824	5.0
116.839	2.0
116.854	3.0
116.868	5.0
116.883	3.0
116.898	0.0
116.913	2.0
116.927	3.0
116.942	2.0
116.957	1.0
116.972	4.0
116.986	7.0
117.001	8.0
117.016	0.0
117.031	3.0
117.045	2.0
117.06	5.0
117.075	3.0
117.09	4.0
117.104	4.0
117.119	2.0
117.134	5.0
117.149	3.0
117.163	1.0
117.178	2.0
117.193	2.0
117.208	7.0
117.222	9.0
117.237	5.0
117.252	3.0
117.267	4.0
117.281	2.0
117.296	5.0
117.311	8.0
117.325	9.0
117.34	3.0
117.355	5.0
117.37	8.0
117.384	3.0
117.399	4.0
117.414	1.0
117.429	1.0
117.443	1.0
117.458	4.0
117.473	1.0
117.487	4.0
117.502	2.0
117.517	2.0
117.532	1.0
117.546	3.0
117.561	1.0
117.576	5.0
117.59	3.0
117.605	4.0
117.62	3.0
117.635	3.0
117.649	7.0
117.664	4.0
117.679	8.0
117.693	5.0
117.708	10.0
117.723	3.0
117.738	5.0
117.752	5.0
117.767	4.0
117.782	6.0
117.796	3.0
117.811	5.0
117.826	6.0
117.841	1.0
117.855	2.0
117.87	3.0
117.885	4.0
117.899	3.0
117.914	4.0
117.929	2.0
117.944	2.0
117.958	3.0
117.973	3.0
117.988	2.0
118.002	6.0
118.017	1.0
118.032	5.0
118.047	3.0
118.062	4.0
118.077	4.0
118.092	3.0
118.107	6.0
118.121	5.0
118.136	6.0
118.151	3.0
118.166	3.0
118.181	5.0
118.196	0.0
118.211	0.0
118.225	5.0
118.24	2.0
118.255	5.0
118.27	1.0
118.285	3.0
118.3	3.0
118.315	4.0
118.33	4.0
118.344	2.0
118.359	1.0
118.374	3.0
118.389	6.0
118.404	5.0
118.419	3.0
118.434	0.0
118.449	2.0
118.463	5.0
118.478	4.0
118.493	4.0
118.508	5.0
118.523	0.0
118.538	5.0
118.553	7.0
118.567	5.0
118.582	5.0
118.597	4.0
118.612	2.0
118.627	6.0
118.642	2.0
118.657	3.0
118.672	3.0
118.686	4.0
118.701	0.0
118.716	1.0
118.731	3.0
118.746	5.0
118.761	3.0
118.776	3.0
118.791	5.0
118.805	4.0
118.82	8.0
118.835	5.0
118.85	3.0
118.865	2.0
118.88	6.0
118.895	6.0
118.909	6.0
118.924	1.0
118.939	5.0
118.954	3.0
118.969	4.0
118.984	1.0
118.999	4.0
119.014	5.0
119.028	5.0
119.043	4.0
119.058	8.0
119.073	1.0
119.088	5.0
119.103	1.0
119.118	11.0
119.133	2.0
119.147	4.0
119.162	10.0
119.177	7.0
119.192	3.0
119.207	2.0
119.222	2.0
119.237	7.0
119.251	6.0
119.266	3.0
119.281	5.0
119.296	3.0
119.311	7.0
119.326	2.0
119.341	4.0
119.356	2.0
119.37	4.0
119.385	6.0
119.4	3.0
119.415	4.0
119.43	2.0
119.445	1.0
119.46	4.0
119.475	5.0
119.489	4.0
119.504	4.0
119.519	0.0
119.534	7.0
119.549	2.0
119.564	3.0
119.579	5.0
119.593	4.0
119.608	6.0
119.623	1.0
119.638	4.0
119.653	1.0
119.668	3.0
119.683	5.0
119.698	5.0
119.712	2.0
119.727	3.0
119.742	1.0
119.757	4.0
119.772	1.0
119.787	5.0
119.802	3.0
119.817	5.0
119.831	2.0
119.846	3.0
119.861	7.0
119.876	2.0
119.891	4.0
119.906	4.0
119.921	3.0
119.935	3.0
119.95	2.0
119.965	2.0
119.98	3.0
119.995	1.0
120.01	1.0
120.025	6.0
120.04	1.0
120.054	2.0
120.069	2.0
120.084	1.0
120.099	1.0
120.114	2.0
120.129	1.0
120.144	1.0
120.159	4.0
120.173	1.0
120.188	1.0
120.203	0.0
120.218	1.0
120.233	0.0
120.248	1.0
120.263	0.0
120.277	0.0
120.292	0.0
120.307	1.0
120.322	1.0
120.337	0.0
120.352	0.0
120.367	0.0
120.382	0.0
120.396	0.0
120.411	0.0
120.426	0.0
120.441	0.0
120.456	1.0
120.471	0.0
120.486	0.0
120.501	0.0
120.515	1.0
120.53	1.0
120.545	1.0
120.56	0.0
120.575	0.0
120.59	0.0
120.605	0.0
120.619	0.0
120.634	0.0
120.649	0.0
120.664	2.0
120.679	0.0
120.694	0.0
120.709	0.0
120.724	0.0
120.738	0.0
120.753	0.0
120.768	0.0
120.783	0.0
120.798	0.0
120.813	0.0
120.828	0.0
120.843	0.0
120.857	0.0
120.872	0.0
120.887	0.0
120.902	0.0
120.917	0.0
120.932	0.0
120.947	0.0
120.961	0.0
120.976	0.0
