-1.217	0.0
-1.202	0.0
-1.187	0.0
-1.172	0.0
-1.157	0.0
-1.142	0.0
-1.128	0.0
-1.113	0.0
-1.098	0.0
-1.083	0.0
-1.068	0.0
-1.054	0.0
-1.039	0.0
-1.024	0.0
-1.009	0.0
-0.994	0.0
-0.979	0.0
-0.965	0.0
-0.95	0.0
-0.935	0.0
-0.92	1.0
-0.905	0.0
-0.891	0.0
-0.876	0.0
-0.861	0.0
-0.846	0.0
-0.831	0.0
-0.816	0.0
-0.802	0.0
-0.787	0.0
-0.772	0.0
-0.757	0.0
-0.742	0.0
-0.728	0.0
-0.713	0.0
-0.698	0.0
-0.683	0.0
-0.668	0.0
-0.653	0.0
-0.639	0.0
-0.624	0.0
-0.609	0.0
-0.594	0.0
-0.579	0.0
-0.565	0.0
-0.55	0.0
-0.535	0.0
-0.52	0.0
-0.505	0.0
-0.49	0.0
-0.476	0.0
-0.461	0.0
-0.446	0.0
-0.431	0.0
-0.416	0.0
-0.401	0.0
-0.387	0.0
-0.372	0.0
-0.357	0.0
-0.342	0.0
-0.327	1.0
-0.313	0.0
-0.298	0.0
-0.283	0.0
-0.268	0.0
-0.253	0.0
-0.238	0.0
-0.224	0.0
-0.209	0.0
-0.194	0.0
-0.179	0.0
-0.164	0.0
-0.15	0.0
-0.135	0.0
-0.12	0.0
-0.105	0.0
-0.09	0.0
-0.075	0.0
-0.061	0.0
-0.046	0.0
-0.031	0.0
-0.016	0.0
-0.001	0.0
0.013	0.0
0.028	0.0
0.043	0.0
0.058	1.0
0.073	0.0
0.088	0.0
0.102	0.0
0.117	0.0
0.132	0.0
0.147	0.0
0.162	0.0
0.176	1.0
0.191	0.0
0.206	0.0
0.221	0.0
0.236	0.0
0.251	0.0
0.265	0.0
0.28	0.0
0.295	0.0
0.31	0.0
0.325	0.0
0.339	0.0
0.354	0.0
0.369	0.0
0.384	1.0
0.399	0.0
0.414	0.0
0.428	0.0
0.443	0.0
0.458	0.0
0.473	0.0
0.488	0.0
0.502	0.0
0.517	0.0
0.532	0.0
0.547	0.0
0.562	1.0
0.577	0.0
0.591	0.0
0.606	0.0
0.621	0.0
0.636	0.0
0.651	0.0
0.665	0.0
0.68	0.0
0.695	0.0
0.71	0.0
0.725	0.0
0.74	0.0
0.754	0.0
0.769	0.0
0.784	0.0
0.799	0.0
0.814	0.0
0.828	0.0
0.843	0.0
0.858	0.0
0.873	1.0
0.888	0.0
0.903	0.0
0.917	0.0
0.932	0.0
0.947	0.0
0.962	1.0
0.977	0.0
0.991	0.0
1.006	0.0
1.021	0.0
1.036	0.0
1.051	0.0
1.065	0.0
1.08	0.0
1.095	0.0
1.11	0.0
1.125	0.0
1.14	0.0
1.154	0.0
1.169	0.0
1.184	0.0
1.199	0.0
1.214	0.0
1.228	1.0
1.243	0.0
1.258	0.0
1.273	0.0
1.288	0.0
1.302	0.0
1.317	0.0
1.332	0.0
1.347	0.0
1.362	0.0
1.376	0.0
1.391	0.0
1.406	0.0
1.421	0.0
1.436	0.0
1.45	0.0
1.465	0.0
1.48	0.0
1.495	0.0
1.51	0.0
1.524	0.0
1.539	0.0
1.554	0.0
1.569	0.0
1.584	0.0
1.598	0.0
1.613	0.0
1.628	0.0
1.643	0.0
1.658	0.0
1.672	0.0
1.687	0.0
1.702	0.0
1.717	0.0
1.732	0.0
1.746	0.0
1.761	0.0
1.776	0.0
1.791	0.0
1.806	0.0
1.82	1.0
1.835	0.0
1.85	0.0
1.865	0.0
1.88	0.0
1.894	0.0
1.909	1.0
1.924	1.0
1.939	0.0
1.954	0.0
1.968	0.0
1.983	0.0
1.998	0.0
2.013	1.0
2.028	0.0
2.042	0.0
2.057	0.0
2.072	0.0
2.087	0.0
2.101	0.0
2.116	1.0
2.131	0.0
2.146	0.0
2.161	0.0
2.175	0.0
2.19	0.0
2.205	0.0
2.22	0.0
2.235	0.0
2.249	1.0
2.264	0.0
2.279	0.0
2.294	1.0
2.308	0.0
2.323	1.0
2.338	0.0
2.353	2.0
2.368	2.0
2.382	0.0
2.397	1.0
2.412	1.0
2.427	1.0
2.442	1.0
2.456	2.0
2.471	1.0
2.486	2.0
2.501	3.0
2.515	4.0
2.53	3.0
2.545	1.0
2.56	1.0
2.575	3.0
2.589	0.0
2.604	0.0
2.619	1.0
2.634	3.0
2.649	2.0
2.663	2.0
2.678	4.0
2.693	1.0
2.708	3.0
2.722	5.0
2.737	5.0
2.752	0.0
2.767	4.0
2.782	5.0
2.796	4.0
2.811	3.0
2.826	1.0
2.841	5.0
2.856	2.0
2.87	3.0
2.885	4.0
2.9	3.0
2.915	2.0
2.93	2.0
2.944	8.0
2.959	7.0
2.974	1.0
2.989	2.0
3.004	2.0
3.018	6.0
3.033	4.0
3.048	6.0
3.063	4.0
3.078	4.0
3.092	6.0
3.107	0.0
3.122	5.0
3.137	2.0
3.152	3.0
3.166	10.0
3.181	1.0
3.196	5.0
3.211	4.0
3.226	7.0
3.24	2.0
3.255	6.0
3.27	6.0
3.285	4.0
3.3	5.0
3.315	4.0
3.329	8.0
3.344	3.0
3.359	4.0
3.374	4.0
3.389	7.0
3.403	4.0
3.418	11.0
3.433	5.0
3.448	4.0
3.463	4.0
3.478	4.0
3.492	4.0
3.507	4.0
3.522	3.0
3.537	3.0
3.552	10.0
3.567	3.0
3.581	2.0
3.596	9.0
3.611	6.0
3.626	5.0
3.641	3.0
3.656	6.0
3.671	3.0
3.685	7.0
3.7	5.0
3.715	4.0
3.73	6.0
3.745	7.0
3.76	4.0
3.775	5.0
3.789	9.0
3.804	2.0
3.819	4.0
3.834	6.0
3.849	6.0
3.864	3.0
3.879	2.0
3.894	4.0
3.908	5.0
3.923	9.0
3.938	7.0
3.953	5.0
3.968	5.0
3.983	7.0
3.998	3.0
4.013	6.0
4.027	7.0
4.042	11.0
4.057	8.0
4.072	4.0
4.087	7.0
4.102	5.0
4.117	5.0
4.132	4.0
4.147	5.0
4.162	12.0
4.176	8.0
4.191	5.0
4.206	6.0
4.221	8.0
4.236	2.0
4.251	4.0
4.266	9.0
4.281	10.0
4.296	8.0
4.311	7.0
4.326	9.0
4.341	7.0
4.356	6.0
4.37	8.0
4.385	8.0
4.4	8.0
4.415	9.0
4.43	5.0
4.445	7.0
4.46	12.0
4.475	6.0
4.49	7.0
4.505	3.0
4.52	7.0
4.535	9.0
4.55	7.0
4.565	7.0
4.58	9.0
4.595	7.0
4.61	11.0
4.625	12.0
4.639	7.0
4.654	5.0
4.669	7.0
4.684	8.0
4.699	14.0
4.714	4.0
4.729	1.0
4.744	5.0
4.759	5.0
4.774	6.0
4.789	7.0
4.804	10.0
4.819	6.0
4.834	7.0
4.849	4.0
4.864	8.0
4.879	9.0
4.894	4.0
4.909	12.0
4.924	7.0
4.939	4.0
4.954	11.0
4.969	7.0
4.984	4.0
4.999	7.0
5.014	8.0
5.029	6.0
5.044	2.0
5.059	6.0
5.074	8.0
5.089	11.0
5.104	12.0
5.119	5.0
5.134	8.0
5.149	5.0
5.164	4.0
5.179	11.0
5.194	8.0
5.209	8.0
5.224	11.0
5.239	4.0
5.254	9.0
5.269	10.0
5.284	8.0
5.299	7.0
5.314	8.0
5.329	6.0
5.344	7.0
5.359	9.0
5.374	7.0
5.389	12.0
5.404	6.0
5.419	12.0
5.434	8.0
5.449	5.0
5.464	9.0
5.479	11.0
5.494	12.0
5.509	9.0
5.524	7.0
5.539	9.0
5.554	14.0
5.569	8.0
5.584	4.0
5.599	10.0
5.614	10.0
5.629	10.0
5.644	8.0
5.659	5.0
5.674	10.0
5.689	9.0
5.704	10.0
5.719	11.0
5.734	5.0
5.749	5.0
5.764	12.0
5.779	6.0
5.794	13.0
5.809	5.0
5.824	7.0
5.839	11.0
5.854	5.0
5.869	6.0
5.884	6.0
5.899	8.0
5.914	7.0
5.929	13.0
5.944	3.0
5.959	8.0
5.974	9.0
5.989	8.0
6.004	7.0
6.019	10.0
6.034	16.0
6.049	4.0
6.064	5.0
6.079	3.0
6.094	7.0
6.109	6.0
6.124	12.0
6.139	10.0
6.154	10.0
6.169	8.0
6.184	15.0
6.199	6.0
6.214	11.0
6.229	8.0
6.244	5.0
6.259	9.0
6.274	8.0
6.289	8.0
6.304	6.0
6.319	13.0
6.334	5.0
6.349	12.0
6.364	7.0
6.379	11.0
6.394	9.0
6.409	9.0
6.424	9.0
6.439	9.0
6.454	8.0
6.469	16.0
6.484	8.0
6.499	6.0
6.514	6.0
6.529	9.0
6.544	13.0
6.559	8.0
6.574	4.0
6.589	7.0
6.604	10.0
6.619	11.0
6.634	10.0
6.649	12.0
6.664	5.0
6.679	3.0
6.694	9.0
6.709	9.0
6.724	10.0
6.739	9.0
6.754	12.0
6.769	8.0
6.784	14.0
6.799	9.0
6.814	9.0
6.829	6.0
6.844	11.0
6.859	7.0
6.873	7.0
6.888	5.0
6.903	6.0
6.918	13.0
6.933	9.0
6.948	4.0
6.963	10.0
6.978	8.0
6.993	7.0
7.008	11.0
7.023	7.0
7.038	7.0
7.053	10.0
7.068	11.0
7.083	9.0
7.098	9.0
7.113	10.0
7.128	8.0
7.143	11.0
7.157	10.0
7.172	11.0
7.187	7.0
7.202	10.0
7.217	6.0
7.232	2.0
7.247	6.0
7.262	9.0
7.277	7.0
7.292	7.0
7.307	6.0
7.322	8.0
7.336	6.0
7.351	11.0
7.366	7.0
7.381	7.0
7.396	10.0
7.411	13.0
7.426	7.0
7.441	7.0
7.456	13.0
7.471	15.0
7.485	8.0
7.5	11.0
7.515	12.0
7.53	9.0
7.545	9.0
7.56	10.0
7.575	12.0
7.59	9.0
7.604	9.0
7.619	3.0
7.634	15.0
7.649	11.0
7.664	6.0
7.679	10.0
7.693	9.0
7.708	12.0
7.723	12.0
7.738	9.0
7.753	8.0
7.768	6.0
7.783	10.0
7.797	9.0
7.812	5.0
7.827	16.0
7.842	11.0
7.857	5.0
7.871	9.0
7.886	12.0
7.901	7.0
7.916	16.0
7.931	11.0
7.945	12.0
7.96	5.0
7.975	5.0
7.99	11.0
8.005	8.0
8.019	7.0
8.034	12.0
8.049	12.0
8.064	8.0
8.078	11.0
8.093	10.0
8.108	5.0
8.123	7.0
8.137	14.0
8.152	10.0
8.167	6.0
8.182	11.0
8.196	6.0
8.211	11.0
8.226	8.0
8.241	4.0
8.255	11.0
8.27	4.0
8.285	7.0
8.3	11.0
8.314	5.0
8.329	9.0
8.344	11.0
8.358	9.0
8.373	8.0
8.388	11.0
8.403	10.0
8.417	11.0
8.432	8.0
8.447	10.0
8.461	6.0
8.476	7.0
8.491	8.0
8.505	7.0
8.52	13.0
8.535	7.0
8.55	9.0
8.564	9.0
8.579	3.0
8.594	6.0
8.608	10.0
8.623	9.0
8.638	4.0
8.652	6.0
8.667	9.0
8.682	9.0
8.696	9.0
8.711	3.0
8.726	9.0
8.74	17.0
8.755	6.0
8.77	9.0
8.784	6.0
8.799	7.0
8.814	10.0
8.828	8.0
8.843	9.0
8.858	8.0
8.872	13.0
8.887	10.0
8.902	7.0
8.916	5.0
8.931	7.0
8.946	7.0
8.96	7.0
8.975	10.0
8.99	11.0
9.004	9.0
9.019	7.0
9.034	11.0
9.048	8.0
9.063	11.0
9.077	11.0
9.092	8.0
9.107	6.0
9.121	12.0
9.136	8.0
9.151	10.0
9.165	4.0
9.18	8.0
9.195	7.0
9.209	13.0
9.224	4.0
9.239	8.0
9.253	13.0
9.268	16.0
9.283	10.0
9.297	7.0
9.312	9.0
9.327	9.0
9.341	13.0
9.356	11.0
9.371	4.0
9.385	7.0
9.4	9.0
9.415	7.0
9.429	9.0
9.444	9.0
9.458	2.0
9.473	5.0
9.488	9.0
9.502	6.0
9.517	5.0
9.532	8.0
9.546	5.0
9.561	12.0
9.576	7.0
9.59	9.0
9.605	9.0
9.62	10.0
9.635	6.0
9.649	6.0
9.664	12.0
9.679	7.0
9.693	6.0
9.708	7.0
9.723	11.0
9.737	12.0
9.752	7.0
9.767	8.0
9.781	7.0
9.796	11.0
9.811	7.0
9.825	11.0
9.84	10.0
9.855	9.0
9.87	5.0
9.884	11.0
9.899	13.0
9.914	7.0
9.928	6.0
9.943	8.0
9.958	12.0
9.973	6.0
9.987	7.0
10.002	13.0
10.017	4.0
10.031	12.0
10.046	12.0
10.061	9.0
10.076	7.0
10.09	5.0
10.105	2.0
10.12	5.0
10.135	6.0
10.149	8.0
10.164	10.0
10.179	9.0
10.194	10.0
10.208	6.0
10.223	15.0
10.238	9.0
10.253	6.0
10.267	13.0
10.282	11.0
10.297	15.0
10.312	7.0
10.326	10.0
10.341	7.0
10.356	8.0
10.371	6.0
10.386	10.0
10.4	7.0
10.415	6.0
10.43	7.0
10.445	8.0
10.46	8.0
10.474	11.0
10.489	13.0
10.504	12.0
10.519	8.0
10.533	6.0
10.548	6.0
10.563	14.0
10.578	8.0
10.593	7.0
10.608	11.0
10.622	8.0
10.637	11.0
10.652	3.0
10.667	11.0
10.682	8.0
10.696	6.0
10.711	6.0
10.726	6.0
10.741	8.0
10.756	5.0
10.771	9.0
10.785	12.0
10.8	7.0
10.815	2.0
10.83	8.0
10.845	15.0
10.86	7.0
10.874	8.0
10.889	11.0
10.904	10.0
10.919	8.0
10.934	10.0
10.949	9.0
10.963	7.0
10.978	12.0
10.993	7.0
11.008	10.0
11.023	9.0
11.038	5.0
11.053	10.0
11.067	13.0
11.082	10.0
11.097	9.0
11.112	10.0
11.127	6.0
11.142	10.0
11.157	5.0
11.172	5.0
11.186	7.0
11.201	10.0
11.216	4.0
11.231	9.0
11.246	16.0
11.261	8.0
11.276	7.0
11.291	11.0
11.305	4.0
11.32	5.0
11.335	4.0
11.35	5.0
11.365	14.0
11.38	3.0
11.395	11.0
11.41	8.0
11.424	7.0
11.439	8.0
11.454	6.0
11.469	7.0
11.484	7.0
11.499	9.0
11.514	8.0
11.529	13.0
11.544	7.0
11.558	15.0
11.573	9.0
11.588	5.0
11.603	8.0
11.618	3.0
11.633	10.0
11.648	12.0
11.663	3.0
11.678	11.0
11.693	2.0
11.707	14.0
11.722	8.0
11.737	6.0
11.752	10.0
11.767	10.0
11.782	5.0
11.797	7.0
11.812	9.0
11.827	15.0
11.842	8.0
11.856	6.0
11.871	7.0
11.886	11.0
11.901	5.0
11.916	16.0
11.931	4.0
11.946	13.0
11.961	11.0
11.976	5.0
11.991	11.0
12.006	9.0
12.02	8.0
12.035	8.0
12.05	8.0
12.065	6.0
12.08	5.0
12.095	8.0
12.11	3.0
12.125	11.0
12.14	8.0
12.155	8.0
12.17	9.0
12.184	2.0
12.199	10.0
12.214	9.0
12.229	12.0
12.244	7.0
12.259	10.0
12.274	17.0
12.289	9.0
12.304	12.0
12.319	10.0
12.334	12.0
12.348	12.0
12.363	12.0
12.378	13.0
12.393	11.0
12.408	10.0
12.423	15.0
12.438	15.0
12.453	6.0
12.468	6.0
12.483	12.0
12.498	9.0
12.513	17.0
12.527	15.0
12.542	14.0
12.557	9.0
12.572	15.0
12.587	17.0
12.602	18.0
12.617	10.0
12.632	17.0
12.647	16.0
12.662	16.0
12.677	14.0
12.692	8.0
12.707	11.0
12.721	16.0
12.736	13.0
12.751	12.0
12.766	14.0
12.781	21.0
12.796	13.0
12.811	11.0
12.826	14.0
12.841	19.0
12.856	13.0
12.871	18.0
12.886	23.0
12.9	22.0
12.915	15.0
12.93	17.0
12.945	18.0
12.96	23.0
12.975	15.0
12.99	14.0
13.005	15.0
13.02	8.0
13.035	15.0
13.05	16.0
13.065	16.0
13.08	15.0
13.094	17.0
13.109	18.0
13.124	16.0
13.139	20.0
13.154	8.0
13.169	18.0
13.184	27.0
13.199	20.0
13.214	22.0
13.229	11.0
13.244	18.0
13.259	18.0
13.274	18.0
13.288	20.0
13.303	17.0
13.318	22.0
13.333	15.0
13.348	23.0
13.363	22.0
13.378	27.0
13.393	29.0
13.408	27.0
13.423	25.0
13.438	25.0
13.453	39.0
13.468	33.0
13.482	31.0
13.497	47.0
13.512	37.0
13.527	34.0
13.542	41.0
13.557	39.0
13.572	61.0
13.587	55.0
13.602	71.0
13.617	58.0
13.632	62.0
13.647	68.0
13.662	74.0
13.677	81.0
13.691	79.0
13.706	88.0
13.721	112.0
13.736	98.0
13.751	109.0
13.766	126.0
13.781	129.0
13.796	122.0
13.811	131.0
13.826	127.0
13.841	128.0
13.856	127.0
13.871	115.0
13.885	103.0
13.9	110.0
13.915	88.0
13.93	83.0
13.945	61.0
13.96	47.0
13.975	39.0
13.99	41.0
14.005	40.0
14.02	30.0
14.035	27.0
14.05	22.0
14.065	28.0
14.08	24.0
14.094	19.0
14.109	26.0
14.124	33.0
14.139	22.0
14.154	18.0
14.169	30.0
14.184	23.0
14.199	22.0
14.214	11.0
14.229	16.0
14.244	31.0
14.259	24.0
14.274	11.0
14.288	20.0
14.303	26.0
14.318	22.0
14.333	23.0
14.348	17.0
14.363	14.0
14.378	18.0
14.393	18.0
14.408	11.0
14.423	19.0
14.438	17.0
14.453	23.0
14.468	24.0
14.482	17.0
14.497	22.0
14.512	12.0
14.527	20.0
14.542	10.0
14.557	13.0
14.572	21.0
14.587	18.0
14.602	16.0
14.617	22.0
14.632	6.0
14.647	16.0
14.661	12.0
14.676	13.0
14.691	20.0
14.706	14.0
14.721	20.0
14.736	12.0
14.751	23.0
14.766	17.0
14.781	12.0
14.796	22.0
14.811	15.0
14.826	13.0
14.84	15.0
14.855	14.0
14.87	12.0
14.885	18.0
14.9	13.0
14.915	18.0
14.93	17.0
14.945	19.0
14.96	8.0
14.975	16.0
14.989	10.0
15.004	13.0
15.019	15.0
15.034	18.0
15.049	13.0
15.064	15.0
15.079	18.0
15.094	10.0
15.109	13.0
15.124	10.0
15.138	12.0
15.153	16.0
15.168	14.0
15.183	13.0
15.198	11.0
15.213	9.0
15.228	19.0
15.243	17.0
15.258	18.0
15.272	13.0
15.287	17.0
15.302	9.0
15.317	12.0
15.332	16.0
15.347	18.0
15.362	12.0
15.377	13.0
15.391	9.0
15.406	16.0
15.421	14.0
15.436	10.0
15.451	12.0
15.466	8.0
15.481	14.0
15.496	21.0
15.51	17.0
15.525	13.0
15.54	16.0
15.555	14.0
15.57	15.0
15.585	14.0
15.6	10.0
15.614	18.0
15.629	13.0
15.644	15.0
15.659	14.0
15.674	17.0
15.689	11.0
15.704	13.0
15.718	19.0
15.733	13.0
15.748	9.0
15.763	15.0
15.778	19.0
15.793	15.0
15.808	12.0
15.822	17.0
15.837	9.0
15.852	12.0
15.867	17.0
15.882	18.0
15.897	15.0
15.911	21.0
15.926	12.0
15.941	10.0
15.956	12.0
15.971	17.0
15.986	13.0
16.0	13.0
16.015	20.0
16.03	19.0
16.045	17.0
16.06	20.0
16.074	13.0
16.089	18.0
16.104	13.0
16.119	11.0
16.134	11.0
16.149	9.0
16.163	15.0
16.178	16.0
16.193	9.0
16.208	13.0
16.223	12.0
16.237	18.0
16.252	12.0
16.267	16.0
16.282	14.0
16.297	17.0
16.311	10.0
16.326	12.0
16.341	9.0
16.356	13.0
16.37	12.0
16.385	12.0
16.4	13.0
16.415	10.0
16.43	12.0
16.444	13.0
16.459	17.0
16.474	11.0
16.489	17.0
16.504	20.0
16.518	22.0
16.533	16.0
16.548	12.0
16.563	11.0
16.577	14.0
16.592	15.0
16.607	24.0
16.622	14.0
16.637	25.0
16.651	24.0
16.666	26.0
16.681	23.0
16.696	29.0
16.71	29.0
16.725	32.0
16.74	18.0
16.755	45.0
16.77	33.0
16.784	44.0
16.799	45.0
16.814	40.0
16.829	43.0
16.843	64.0
16.858	49.0
16.873	62.0
16.888	73.0
16.902	74.0
16.917	70.0
16.932	72.0
16.947	72.0
16.961	77.0
16.976	64.0
16.991	70.0
17.006	56.0
17.021	67.0
17.035	45.0
17.05	57.0
17.065	41.0
17.08	46.0
17.094	35.0
17.109	26.0
17.124	20.0
17.139	20.0
17.153	21.0
17.168	23.0
17.183	16.0
17.198	19.0
17.212	13.0
17.227	14.0
17.242	21.0
17.257	16.0
17.271	16.0
17.286	16.0
17.301	20.0
17.316	20.0
17.33	14.0
17.345	23.0
17.36	13.0
17.375	10.0
17.39	11.0
17.404	17.0
17.419	20.0
17.434	24.0
17.449	15.0
17.463	15.0
17.478	18.0
17.493	16.0
17.508	12.0
17.522	14.0
17.537	9.0
17.552	24.0
17.567	15.0
17.581	11.0
17.596	11.0
17.611	15.0
17.626	9.0
17.641	19.0
17.655	17.0
17.67	13.0
17.685	10.0
17.7	15.0
17.714	4.0
17.729	5.0
17.744	20.0
17.759	9.0
17.773	7.0
17.788	14.0
17.803	10.0
17.818	8.0
17.833	17.0
17.847	12.0
17.862	17.0
17.877	11.0
17.892	13.0
17.906	6.0
17.921	21.0
17.936	10.0
17.951	13.0
17.966	11.0
17.98	10.0
17.995	21.0
18.01	7.0
18.025	15.0
18.04	10.0
18.054	8.0
18.069	11.0
18.084	12.0
18.099	10.0
18.114	13.0
18.128	10.0
18.143	10.0
18.158	14.0
18.173	8.0
18.188	14.0
18.202	10.0
18.217	7.0
18.232	6.0
18.247	12.0
18.262	9.0
18.276	12.0
18.291	14.0
18.306	11.0
18.321	11.0
18.336	7.0
18.35	9.0
18.365	10.0
18.38	11.0
18.395	17.0
18.41	10.0
18.424	10.0
18.439	9.0
18.454	12.0
18.469	17.0
18.484	13.0
18.498	15.0
18.513	16.0
18.528	17.0
18.543	14.0
18.558	16.0
18.573	11.0
18.587	6.0
18.602	15.0
18.617	12.0
18.632	15.0
18.647	11.0
18.661	8.0
18.676	12.0
18.691	12.0
18.706	14.0
18.721	10.0
18.736	14.0
18.75	6.0
18.765	11.0
18.78	13.0
18.795	7.0
18.81	13.0
18.825	8.0
18.839	9.0
18.854	11.0
18.869	7.0
18.884	8.0
18.899	6.0
18.913	12.0
18.928	16.0
18.943	18.0
18.958	6.0
18.973	14.0
18.988	13.0
19.002	11.0
19.017	10.0
19.032	9.0
19.047	15.0
19.062	8.0
19.077	9.0
19.091	9.0
19.106	14.0
19.121	13.0
19.136	13.0
19.151	18.0
19.165	6.0
19.18	16.0
19.195	8.0
19.21	12.0
19.225	16.0
19.24	16.0
19.254	4.0
19.269	15.0
19.284	14.0
19.299	16.0
19.314	8.0
19.329	16.0
19.343	18.0
19.358	13.0
19.373	19.0
19.388	18.0
19.403	14.0
19.417	24.0
19.432	22.0
19.447	24.0
19.462	20.0
19.477	25.0
19.492	27.0
19.506	42.0
19.521	30.0
19.536	43.0
19.551	43.0
19.566	43.0
19.58	53.0
19.595	50.0
19.61	31.0
19.625	31.0
19.64	45.0
19.655	35.0
19.669	33.0
19.684	37.0
19.699	32.0
19.714	23.0
19.729	18.0
19.743	22.0
19.758	29.0
19.773	14.0
19.788	12.0
19.803	14.0
19.817	22.0
19.832	13.0
19.847	16.0
19.862	16.0
19.877	16.0
19.891	7.0
19.906	13.0
19.921	11.0
19.936	9.0
19.951	10.0
19.965	10.0
19.98	9.0
19.995	7.0
20.01	15.0
20.025	13.0
20.039	13.0
20.054	12.0
20.069	14.0
20.084	8.0
20.099	11.0
20.113	11.0
20.128	12.0
20.143	9.0
20.158	9.0
20.173	10.0
20.187	13.0
20.202	12.0
20.217	20.0
20.232	12.0
20.246	13.0
20.261	19.0
20.276	10.0
20.291	13.0
20.306	19.0
20.32	13.0
20.335	7.0
20.35	5.0
20.365	10.0
20.38	13.0
20.394	7.0
20.409	14.0
20.424	11.0
20.439	9.0
20.453	14.0
20.468	13.0
20.483	11.0
20.498	14.0
20.513	14.0
20.527	10.0
20.542	10.0
20.557	3.0
20.572	12.0
20.586	10.0
20.601	8.0
20.616	11.0
20.631	14.0
20.646	13.0
20.66	8.0
20.675	9.0
20.69	10.0
20.705	7.0
20.719	18.0
20.734	7.0
20.749	14.0
20.764	8.0
20.779	10.0
20.793	5.0
20.808	11.0
20.823	18.0
20.838	8.0
20.853	11.0
20.867	8.0
20.882	9.0
20.897	6.0
20.912	16.0
20.926	16.0
20.941	15.0
20.956	7.0
20.971	14.0
20.986	11.0
21.0	7.0
21.015	15.0
21.03	9.0
21.045	10.0
21.06	10.0
21.074	13.0
21.089	9.0
21.104	9.0
21.119	11.0
21.134	15.0
21.148	7.0
21.163	17.0
21.178	5.0
21.193	14.0
21.208	4.0
21.222	9.0
21.237	10.0
21.252	17.0
21.267	12.0
21.282	15.0
21.296	8.0
21.311	11.0
21.326	10.0
21.341	12.0
21.356	15.0
21.37	9.0
21.385	12.0
21.4	6.0
21.415	11.0
21.43	24.0
21.444	8.0
21.459	14.0
21.474	11.0
21.489	15.0
21.504	8.0
21.519	16.0
21.533	13.0
21.548	14.0
21.563	11.0
21.578	17.0
21.593	15.0
21.608	10.0
21.622	20.0
21.637	21.0
21.652	28.0
21.667	19.0
21.682	16.0
21.697	10.0
21.712	22.0
21.726	15.0
21.741	32.0
21.756	23.0
21.771	31.0
21.786	33.0
21.801	46.0
21.816	36.0
21.83	46.0
21.845	62.0
21.86	56.0
21.875	71.0
21.89	72.0
21.905	63.0
21.92	59.0
21.935	82.0
21.949	79.0
21.964	100.0
21.979	68.0
21.994	69.0
22.009	67.0
22.024	56.0
22.039	52.0
22.054	59.0
22.069	59.0
22.083	58.0
22.098	48.0
22.113	42.0
22.128	40.0
22.143	28.0
22.158	27.0
22.173	23.0
22.188	21.0
22.203	11.0
22.218	13.0
22.233	17.0
22.248	12.0
22.262	16.0
22.277	12.0
22.292	14.0
22.307	8.0
22.322	15.0
22.337	16.0
22.352	13.0
22.367	15.0
22.382	9.0
22.397	6.0
22.412	9.0
22.427	11.0
22.442	15.0
22.457	10.0
22.472	11.0
22.487	15.0
22.502	14.0
22.516	19.0
22.531	15.0
22.546	14.0
22.561	9.0
22.576	11.0
22.591	5.0
22.606	12.0
22.621	15.0
22.636	14.0
22.651	15.0
22.666	14.0
22.681	11.0
22.696	15.0
22.711	8.0
22.726	9.0
22.741	10.0
22.756	8.0
22.771	14.0
22.786	15.0
22.801	14.0
22.816	14.0
22.831	11.0
22.846	11.0
22.861	12.0
22.876	12.0
22.891	12.0
22.906	11.0
22.92	9.0
22.935	10.0
22.95	8.0
22.965	12.0
22.98	12.0
22.995	6.0
23.01	14.0
23.025	10.0
23.04	8.0
23.055	8.0
23.07	7.0
23.085	10.0
23.1	3.0
23.115	6.0
23.13	5.0
23.145	8.0
23.16	10.0
23.175	11.0
23.19	8.0
23.205	13.0
23.22	6.0
23.235	10.0
23.25	9.0
23.265	8.0
23.28	10.0
23.295	11.0
23.31	6.0
23.325	10.0
23.34	8.0
23.355	13.0
23.37	7.0
23.384	6.0
23.399	7.0
23.414	13.0
23.429	6.0
23.444	13.0
23.459	5.0
23.474	8.0
23.489	10.0
23.504	12.0
23.519	8.0
23.534	9.0
23.549	11.0
23.564	13.0
23.579	8.0
23.594	12.0
23.609	15.0
23.624	11.0
23.639	17.0
23.654	16.0
23.668	12.0
23.683	10.0
23.698	9.0
23.713	9.0
23.728	5.0
23.743	11.0
23.758	12.0
23.773	16.0
23.788	13.0
23.803	12.0
23.818	10.0
23.833	23.0
23.848	14.0
23.862	15.0
23.877	15.0
23.892	17.0
23.907	23.0
23.922	22.0
23.937	27.0
23.952	28.0
23.967	23.0
23.982	26.0
23.997	42.0
24.011	41.0
24.026	43.0
24.041	52.0
24.056	50.0
24.071	49.0
24.086	41.0
24.101	56.0
24.116	54.0
24.131	43.0
24.145	47.0
24.16	54.0
24.175	26.0
24.19	39.0
24.205	38.0
24.22	32.0
24.235	36.0
24.249	30.0
24.264	25.0
24.279	19.0
24.294	20.0
24.309	21.0
24.324	13.0
24.338	14.0
24.353	13.0
24.368	11.0
24.383	17.0
24.398	13.0
24.413	9.0
24.428	12.0
24.442	11.0
24.457	15.0
24.472	15.0
24.487	14.0
24.502	10.0
24.516	11.0
24.531	12.0
24.546	9.0
24.561	10.0
24.576	10.0
24.591	15.0
24.605	9.0
24.62	10.0
24.635	12.0
24.65	13.0
24.665	13.0
24.679	14.0
24.694	14.0
24.709	14.0
24.724	11.0
24.739	9.0
24.753	18.0
24.768	12.0
24.783	8.0
24.798	12.0
24.813	12.0
24.827	14.0
24.842	12.0
24.857	9.0
24.872	8.0
24.886	14.0
24.901	9.0
24.916	17.0
24.931	17.0
24.946	10.0
24.96	11.0
24.975	8.0
24.99	7.0
25.005	8.0
25.019	11.0
25.034	11.0
25.049	19.0
25.064	12.0
25.078	13.0
25.093	14.0
25.108	12.0
25.123	9.0
25.138	14.0
25.152	11.0
25.167	4.0
25.182	5.0
25.197	9.0
25.211	11.0
25.226	10.0
25.241	8.0
25.256	16.0
25.27	9.0
25.285	13.0
25.3	11.0
25.315	7.0
25.329	11.0
25.344	6.0
25.359	9.0
25.374	12.0
25.388	6.0
25.403	8.0
25.418	8.0
25.433	4.0
25.447	15.0
25.462	3.0
25.477	12.0
25.492	7.0
25.506	3.0
25.521	10.0
25.536	8.0
25.55	8.0
25.565	7.0
25.58	12.0
25.595	7.0
25.609	11.0
25.624	6.0
25.639	8.0
25.654	3.0
25.668	13.0
25.683	10.0
25.698	13.0
25.713	3.0
25.727	10.0
25.742	8.0
25.757	8.0
25.772	11.0
25.786	4.0
25.801	13.0
25.816	12.0
25.83	11.0
25.845	12.0
25.86	12.0
25.875	5.0
25.889	8.0
25.904	10.0
25.919	10.0
25.934	13.0
25.948	14.0
25.963	3.0
25.978	6.0
25.992	6.0
26.007	17.0
26.022	11.0
26.037	7.0
26.051	8.0
26.066	12.0
26.081	9.0
26.096	7.0
26.11	14.0
26.125	4.0
26.14	16.0
26.155	9.0
26.169	11.0
26.184	12.0
26.199	8.0
26.213	9.0
26.228	9.0
26.243	8.0
26.258	11.0
26.272	14.0
26.287	8.0
26.302	5.0
26.317	6.0
26.331	9.0
26.346	8.0
26.361	12.0
26.376	12.0
26.39	10.0
26.405	15.0
26.42	9.0
26.434	3.0
26.449	7.0
26.464	11.0
26.479	9.0
26.493	11.0
26.508	8.0
26.523	12.0
26.538	17.0
26.552	9.0
26.567	7.0
26.582	13.0
26.597	9.0
26.611	5.0
26.626	7.0
26.641	20.0
26.656	14.0
26.67	5.0
26.685	8.0
26.7	11.0
26.715	10.0
26.729	9.0
26.744	8.0
26.759	13.0
26.773	10.0
26.788	18.0
26.803	12.0
26.818	12.0
26.832	7.0
26.847	10.0
26.862	9.0
26.877	10.0
26.891	10.0
26.906	12.0
26.921	5.0
26.936	12.0
26.95	6.0
26.965	9.0
26.98	17.0
26.995	10.0
27.01	10.0
27.024	10.0
27.039	9.0
27.054	8.0
27.069	12.0
27.083	15.0
27.098	19.0
27.113	12.0
27.128	14.0
27.142	14.0
27.157	14.0
27.172	7.0
27.187	13.0
27.201	21.0
27.216	10.0
27.231	7.0
27.246	13.0
27.261	11.0
27.275	11.0
27.29	7.0
27.305	10.0
27.32	12.0
27.334	11.0
27.349	14.0
27.364	8.0
27.379	8.0
27.394	7.0
27.408	9.0
27.423	8.0
27.438	15.0
27.453	8.0
27.467	9.0
27.482	13.0
27.497	7.0
27.512	8.0
27.527	6.0
27.541	4.0
27.556	9.0
27.571	8.0
27.586	8.0
27.601	10.0
27.615	7.0
27.63	4.0
27.645	10.0
27.66	13.0
27.675	13.0
27.689	22.0
27.704	13.0
27.719	15.0
27.734	10.0
27.749	16.0
27.763	11.0
27.778	15.0
27.793	18.0
27.808	22.0
27.823	22.0
27.838	25.0
27.852	16.0
27.867	25.0
27.882	26.0
27.897	21.0
27.912	26.0
27.926	17.0
27.941	33.0
27.956	26.0
27.971	21.0
27.986	17.0
28.001	21.0
28.015	19.0
28.03	23.0
28.045	19.0
28.06	17.0
28.075	17.0
28.09	13.0
28.105	11.0
28.119	14.0
28.134	19.0
28.149	9.0
28.164	11.0
28.179	13.0
28.194	10.0
28.208	5.0
28.223	11.0
28.238	13.0
28.253	8.0
28.268	7.0
28.283	12.0
28.298	6.0
28.312	9.0
28.327	7.0
28.342	6.0
28.357	11.0
28.372	12.0
28.387	15.0
28.402	7.0
28.417	18.0
28.431	7.0
28.446	13.0
28.461	10.0
28.476	12.0
28.491	13.0
28.506	12.0
28.521	11.0
28.536	12.0
28.55	11.0
28.565	12.0
28.58	7.0
28.595	9.0
28.61	10.0
28.625	12.0
28.64	9.0
28.655	17.0
28.669	8.0
28.684	7.0
28.699	17.0
28.714	8.0
28.729	11.0
28.744	9.0
28.759	9.0
28.774	14.0
28.788	9.0
28.803	7.0
28.818	12.0
28.833	11.0
28.848	12.0
28.863	7.0
28.878	10.0
28.893	8.0
28.908	11.0
28.922	8.0
28.937	11.0
28.952	9.0
28.967	17.0
28.982	10.0
28.997	11.0
29.012	13.0
29.027	11.0
29.041	13.0
29.056	16.0
29.071	11.0
29.086	3.0
29.101	13.0
29.116	15.0
29.131	16.0
29.146	11.0
29.16	15.0
29.175	15.0
29.19	8.0
29.205	9.0
29.22	15.0
29.235	17.0
29.25	18.0
29.265	11.0
29.279	12.0
29.294	16.0
29.309	13.0
29.324	8.0
29.339	13.0
29.354	7.0
29.369	13.0
29.384	15.0
29.398	21.0
29.413	13.0
29.428	23.0
29.443	29.0
29.458	16.0
29.473	27.0
29.488	19.0
29.502	23.0
29.517	37.0
29.532	35.0
29.547	41.0
29.562	53.0
29.577	55.0
29.592	59.0
29.606	48.0
29.621	70.0
29.636	57.0
29.651	49.0
29.666	47.0
29.681	52.0
29.695	33.0
29.71	40.0
29.725	30.0
29.74	41.0
29.755	20.0
29.77	41.0
29.784	41.0
29.799	30.0
29.814	29.0
29.829	24.0
29.844	18.0
29.859	15.0
29.873	14.0
29.888	26.0
29.903	16.0
29.918	15.0
29.933	11.0
29.947	12.0
29.962	11.0
29.977	11.0
29.992	8.0
30.007	11.0
30.021	14.0
30.036	14.0
30.051	8.0
30.066	8.0
30.081	8.0
30.095	6.0
30.11	8.0
30.125	10.0
30.14	14.0
30.155	12.0
30.169	12.0
30.184	13.0
30.199	9.0
30.214	20.0
30.228	10.0
30.243	5.0
30.258	8.0
30.273	11.0
30.288	23.0
30.302	6.0
30.317	11.0
30.332	12.0
30.347	12.0
30.361	5.0
30.376	9.0
30.391	14.0
30.406	14.0
30.42	8.0
30.435	6.0
30.45	9.0
30.465	11.0
30.479	9.0
30.494	11.0
30.509	12.0
30.524	12.0
30.538	10.0
30.553	12.0
30.568	19.0
30.583	9.0
30.597	13.0
30.612	17.0
30.627	8.0
30.641	11.0
30.656	11.0
30.671	15.0
30.686	12.0
30.7	19.0
30.715	11.0
30.73	5.0
30.745	12.0
30.759	13.0
30.774	8.0
30.789	19.0
30.803	11.0
30.818	10.0
30.833	10.0
30.848	5.0
30.862	12.0
30.877	12.0
30.892	9.0
30.906	11.0
30.921	12.0
30.936	15.0
30.951	14.0
30.965	8.0
30.98	11.0
30.995	15.0
31.009	12.0
31.024	11.0
31.039	14.0
31.053	13.0
31.068	11.0
31.083	10.0
31.098	17.0
31.112	13.0
31.127	16.0
31.142	25.0
31.156	24.0
31.171	23.0
31.186	17.0
31.2	25.0
31.215	39.0
31.23	51.0
31.245	31.0
31.259	48.0
31.274	48.0
31.289	33.0
31.303	30.0
31.318	32.0
31.333	48.0
31.347	24.0
31.362	27.0
31.377	16.0
31.392	34.0
31.406	25.0
31.421	26.0
31.436	22.0
31.45	23.0
31.465	27.0
31.48	17.0
31.494	19.0
31.509	26.0
31.524	16.0
31.538	9.0
31.553	6.0
31.568	13.0
31.583	7.0
31.597	10.0
31.612	13.0
31.627	15.0
31.641	17.0
31.656	14.0
31.671	11.0
31.685	13.0
31.7	7.0
31.715	7.0
31.729	16.0
31.744	17.0
31.759	12.0
31.774	8.0
31.788	14.0
31.803	12.0
31.818	6.0
31.832	13.0
31.847	15.0
31.862	4.0
31.876	7.0
31.891	8.0
31.906	11.0
31.92	7.0
31.935	17.0
31.95	11.0
31.965	13.0
31.979	7.0
31.994	12.0
32.009	6.0
32.023	8.0
32.038	9.0
32.053	11.0
32.067	19.0
32.082	8.0
32.097	17.0
32.112	14.0
32.126	14.0
32.141	9.0
32.156	11.0
32.17	11.0
32.185	12.0
32.2	12.0
32.214	9.0
32.229	13.0
32.244	12.0
32.259	13.0
32.273	10.0
32.288	17.0
32.303	12.0
32.317	10.0
32.332	10.0
32.347	12.0
32.362	9.0
32.376	13.0
32.391	10.0
32.406	6.0
32.42	12.0
32.435	8.0
32.45	6.0
32.465	9.0
32.479	10.0
32.494	7.0
32.509	7.0
32.523	12.0
32.538	10.0
32.553	11.0
32.568	16.0
32.582	12.0
32.597	10.0
32.612	12.0
32.627	11.0
32.641	13.0
32.656	13.0
32.671	25.0
32.685	13.0
32.7	10.0
32.715	20.0
32.73	20.0
32.744	14.0
32.759	27.0
32.774	24.0
32.788	33.0
32.803	38.0
32.818	29.0
32.833	26.0
32.847	18.0
32.862	27.0
32.877	19.0
32.892	21.0
32.906	18.0
32.921	26.0
32.936	23.0
32.951	18.0
32.965	13.0
32.98	20.0
32.995	23.0
33.009	23.0
33.024	21.0
33.039	19.0
33.054	19.0
33.068	22.0
33.083	16.0
33.098	17.0
33.113	7.0
33.127	19.0
33.142	18.0
33.157	12.0
33.172	12.0
33.186	10.0
33.201	9.0
33.216	8.0
33.231	14.0
33.245	13.0
33.26	10.0
33.275	11.0
33.29	13.0
33.304	3.0
33.319	7.0
33.334	10.0
33.349	9.0
33.363	8.0
33.378	13.0
33.393	10.0
33.408	7.0
33.422	8.0
33.437	14.0
33.452	5.0
33.467	12.0
33.481	12.0
33.496	12.0
33.511	10.0
33.526	7.0
33.54	13.0
33.555	7.0
33.57	8.0
33.585	10.0
33.599	11.0
33.614	9.0
33.629	13.0
33.644	12.0
33.658	14.0
33.673	3.0
33.688	15.0
33.703	13.0
33.718	7.0
33.732	6.0
33.747	11.0
33.762	12.0
33.777	8.0
33.791	8.0
33.806	12.0
33.821	4.0
33.836	5.0
33.85	3.0
33.865	13.0
33.88	8.0
33.895	9.0
33.91	5.0
33.924	10.0
33.939	9.0
33.954	6.0
33.969	13.0
33.983	11.0
33.998	5.0
34.013	6.0
34.028	9.0
34.042	15.0
34.057	12.0
34.072	9.0
34.087	8.0
34.102	9.0
34.116	9.0
34.131	11.0
34.146	12.0
34.161	8.0
34.175	8.0
34.19	11.0
34.205	9.0
34.22	11.0
34.235	11.0
34.249	10.0
34.264	19.0
34.279	13.0
34.294	18.0
34.309	14.0
34.323	10.0
34.338	12.0
34.353	12.0
34.368	16.0
34.382	12.0
34.397	18.0
34.412	16.0
34.427	14.0
34.442	16.0
34.456	8.0
34.471	15.0
34.486	13.0
34.501	8.0
34.516	9.0
34.53	7.0
34.545	8.0
34.56	10.0
34.575	15.0
34.59	10.0
34.604	9.0
34.619	13.0
34.634	14.0
34.649	10.0
34.664	12.0
34.678	4.0
34.693	11.0
34.708	12.0
34.723	9.0
34.738	12.0
34.752	10.0
34.767	16.0
34.782	6.0
34.797	9.0
34.812	13.0
34.826	8.0
34.841	9.0
34.856	5.0
34.871	9.0
34.886	13.0
34.9	12.0
34.915	10.0
34.93	12.0
34.945	12.0
34.96	10.0
34.974	9.0
34.989	6.0
35.004	7.0
35.019	5.0
35.034	12.0
35.048	4.0
35.063	9.0
35.078	8.0
35.093	4.0
35.108	9.0
35.122	5.0
35.137	8.0
35.152	8.0
35.167	13.0
35.182	11.0
35.196	3.0
35.211	5.0
35.226	11.0
35.241	12.0
35.256	4.0
35.27	8.0
35.285	11.0
35.3	8.0
35.315	7.0
35.33	13.0
35.344	8.0
35.359	10.0
35.374	10.0
35.389	7.0
35.404	8.0
35.418	14.0
35.433	11.0
35.448	4.0
35.463	5.0
35.478	9.0
35.493	10.0
35.507	14.0
35.522	13.0
35.537	9.0
35.552	7.0
35.567	8.0
35.581	15.0
35.596	10.0
35.611	8.0
35.626	8.0
35.641	9.0
35.655	10.0
35.67	19.0
35.685	14.0
35.7	18.0
35.715	7.0
35.729	17.0
35.744	22.0
35.759	16.0
35.774	22.0
35.789	20.0
35.804	16.0
35.818	18.0
35.833	13.0
35.848	20.0
35.863	19.0
35.878	17.0
35.892	23.0
35.907	13.0
35.922	20.0
35.937	15.0
35.952	17.0
35.966	14.0
35.981	17.0
35.996	18.0
36.011	14.0
36.026	13.0
36.04	13.0
36.055	15.0
36.07	15.0
36.085	11.0
36.1	10.0
36.114	19.0
36.129	13.0
36.144	9.0
36.159	8.0
36.174	9.0
36.189	7.0
36.203	9.0
36.218	9.0
36.233	12.0
36.248	6.0
36.263	7.0
36.277	11.0
36.292	7.0
36.307	6.0
36.322	12.0
36.337	4.0
36.351	5.0
36.366	10.0
36.381	14.0
36.396	11.0
36.411	7.0
36.426	11.0
36.44	12.0
36.455	9.0
36.47	8.0
36.485	6.0
36.5	8.0
36.514	12.0
36.529	4.0
36.544	6.0
36.559	8.0
36.574	8.0
36.589	10.0
36.603	9.0
36.618	4.0
36.633	8.0
36.648	9.0
36.663	10.0
36.677	12.0
36.692	11.0
36.707	9.0
36.722	5.0
36.737	13.0
36.752	7.0
36.766	5.0
36.781	10.0
36.796	16.0
36.811	9.0
36.826	8.0
36.841	5.0
36.855	8.0
36.87	10.0
36.885	11.0
36.9	8.0
36.915	16.0
36.93	7.0
36.944	13.0
36.959	9.0
36.974	6.0
36.989	14.0
37.004	12.0
37.019	9.0
37.033	14.0
37.048	6.0
37.063	13.0
37.078	18.0
37.093	16.0
37.108	22.0
37.123	26.0
37.137	21.0
37.152	26.0
37.167	23.0
37.182	33.0
37.197	27.0
37.212	23.0
37.226	26.0
37.241	32.0
37.256	21.0
37.271	30.0
37.286	23.0
37.301	19.0
37.316	18.0
37.331	19.0
37.345	14.0
37.36	24.0
37.375	18.0
37.39	13.0
37.405	17.0
37.42	16.0
37.435	15.0
37.45	24.0
37.464	17.0
37.479	12.0
37.494	13.0
37.509	14.0
37.524	9.0
37.539	14.0
37.554	6.0
37.569	10.0
37.583	14.0
37.598	13.0
37.613	10.0
37.628	6.0
37.643	7.0
37.658	6.0
37.673	7.0
37.688	6.0
37.703	10.0
37.718	8.0
37.733	3.0
37.747	7.0
37.762	5.0
37.777	4.0
37.792	7.0
37.807	6.0
37.822	8.0
37.837	8.0
37.852	5.0
37.867	9.0
37.882	6.0
37.897	4.0
37.912	5.0
37.927	4.0
37.941	7.0
37.956	10.0
37.971	9.0
37.986	2.0
38.001	6.0
38.016	13.0
38.031	8.0
38.046	7.0
38.061	10.0
38.076	11.0
38.091	12.0
38.106	5.0
38.121	5.0
38.136	5.0
38.151	7.0
38.166	7.0
38.181	7.0
38.196	3.0
38.211	10.0
38.226	6.0
38.241	6.0
38.256	7.0
38.271	6.0
38.285	11.0
38.3	5.0
38.315	11.0
38.33	3.0
38.345	4.0
38.36	4.0
38.375	6.0
38.39	6.0
38.405	5.0
38.42	10.0
38.435	5.0
38.45	4.0
38.465	3.0
38.48	4.0
38.495	4.0
38.51	7.0
38.525	6.0
38.54	11.0
38.555	4.0
38.57	11.0
38.585	7.0
38.6	2.0
38.615	7.0
38.63	7.0
38.645	7.0
38.66	9.0
38.675	11.0
38.69	6.0
38.705	1.0
38.72	8.0
38.735	8.0
38.75	6.0
38.765	11.0
38.78	8.0
38.795	3.0
38.81	7.0
38.825	6.0
38.84	6.0
38.855	9.0
38.87	5.0
38.885	7.0
38.9	4.0
38.915	10.0
38.93	6.0
38.945	10.0
38.96	6.0
38.975	8.0
38.99	3.0
39.005	4.0
39.02	2.0
39.035	4.0
39.05	1.0
39.065	5.0
39.08	8.0
39.095	6.0
39.11	2.0
39.125	6.0
39.14	7.0
39.155	10.0
39.17	3.0
39.185	4.0
39.2	5.0
39.215	7.0
39.23	4.0
39.245	6.0
39.26	6.0
39.275	4.0
39.29	8.0
39.305	3.0
39.32	4.0
39.335	11.0
39.35	7.0
39.365	1.0
39.38	4.0
39.395	4.0
39.409	2.0
39.424	5.0
39.439	5.0
39.454	12.0
39.469	5.0
39.484	11.0
39.499	7.0
39.514	3.0
39.529	7.0
39.544	5.0
39.559	0.0
39.574	1.0
39.589	9.0
39.604	9.0
39.619	5.0
39.634	5.0
39.649	7.0
39.664	10.0
39.678	3.0
39.693	9.0
39.708	7.0
39.723	4.0
39.738	9.0
39.753	6.0
39.768	8.0
39.783	9.0
39.798	7.0
39.813	12.0
39.827	11.0
39.842	11.0
39.857	4.0
39.872	7.0
39.887	10.0
39.902	9.0
39.917	5.0
39.932	5.0
39.947	7.0
39.961	5.0
39.976	6.0
39.991	5.0
40.006	6.0
40.021	7.0
40.036	7.0
40.051	6.0
40.065	8.0
40.08	4.0
40.095	5.0
40.11	9.0
40.125	9.0
40.14	6.0
40.154	7.0
40.169	8.0
40.184	11.0
40.199	11.0
40.214	11.0
40.228	8.0
40.243	5.0
40.258	6.0
40.273	2.0
40.288	3.0
40.302	8.0
40.317	7.0
40.332	9.0
40.347	6.0
40.362	4.0
40.376	9.0
40.391	8.0
40.406	3.0
40.421	5.0
40.436	9.0
40.45	3.0
40.465	2.0
40.48	4.0
40.495	5.0
40.509	5.0
40.524	6.0
40.539	3.0
40.554	3.0
40.568	6.0
40.583	12.0
40.598	5.0
40.613	2.0
40.627	8.0
40.642	2.0
40.657	9.0
40.672	4.0
40.686	3.0
40.701	7.0
40.716	5.0
40.731	6.0
40.745	9.0
40.76	6.0
40.775	11.0
40.79	5.0
40.804	9.0
40.819	4.0
40.834	4.0
40.849	6.0
40.863	7.0
40.878	7.0
40.893	6.0
40.907	4.0
40.922	7.0
40.937	9.0
40.952	6.0
40.966	8.0
40.981	7.0
40.996	10.0
41.011	12.0
41.025	13.0
41.04	18.0
41.055	14.0
41.069	20.0
41.084	11.0
41.099	18.0
41.114	16.0
41.128	14.0
41.143	17.0
41.158	22.0
41.173	12.0
41.187	21.0
41.202	10.0
41.217	11.0
41.231	17.0
41.246	12.0
41.261	10.0
41.276	13.0
41.29	11.0
41.305	11.0
41.32	6.0
41.335	14.0
41.349	15.0
41.364	9.0
41.379	12.0
41.393	16.0
41.408	18.0
41.423	13.0
41.438	10.0
41.452	13.0
41.467	13.0
41.482	8.0
41.497	4.0
41.511	7.0
41.526	8.0
41.541	6.0
41.556	3.0
41.57	4.0
41.585	7.0
41.6	4.0
41.615	6.0
41.629	3.0
41.644	5.0
41.659	4.0
41.674	5.0
41.688	4.0
41.703	2.0
41.718	4.0
41.733	5.0
41.747	7.0
41.762	8.0
41.777	6.0
41.792	5.0
41.806	5.0
41.821	4.0
41.836	8.0
41.851	5.0
41.866	5.0
41.88	7.0
41.895	2.0
41.91	6.0
41.925	6.0
41.939	9.0
41.954	7.0
41.969	6.0
41.984	6.0
41.999	5.0
42.013	6.0
42.028	8.0
42.043	6.0
42.058	6.0
42.073	2.0
42.088	10.0
42.102	5.0
42.117	8.0
42.132	4.0
42.147	2.0
42.162	10.0
42.176	3.0
42.191	4.0
42.206	4.0
42.221	8.0
42.236	7.0
42.251	4.0
42.266	5.0
42.28	9.0
42.295	11.0
42.31	10.0
42.325	13.0
42.34	14.0
42.355	7.0
42.369	17.0
42.384	25.0
42.399	13.0
42.414	12.0
42.429	14.0
42.444	13.0
42.459	11.0
42.474	22.0
42.488	11.0
42.503	7.0
42.518	5.0
42.533	10.0
42.548	13.0
42.563	10.0
42.578	16.0
42.593	9.0
42.608	12.0
42.622	14.0
42.637	11.0
42.652	11.0
42.667	18.0
42.682	11.0
42.697	9.0
42.712	9.0
42.727	14.0
42.742	10.0
42.757	7.0
42.772	9.0
42.786	9.0
42.801	2.0
42.816	10.0
42.831	7.0
42.846	5.0
42.861	8.0
42.876	5.0
42.891	8.0
42.906	6.0
42.921	4.0
42.936	8.0
42.951	2.0
42.966	5.0
42.981	4.0
42.996	4.0
43.011	1.0
43.025	4.0
43.04	3.0
43.055	4.0
43.07	6.0
43.085	6.0
43.1	3.0
43.115	4.0
43.13	5.0
43.145	6.0
43.16	8.0
43.175	5.0
43.19	7.0
43.205	3.0
43.22	5.0
43.235	9.0
43.25	10.0
43.265	5.0
43.28	11.0
43.295	2.0
43.31	11.0
43.325	3.0
43.34	5.0
43.355	7.0
43.37	6.0
43.385	3.0
43.4	6.0
43.415	5.0
43.43	4.0
43.445	3.0
43.46	5.0
43.475	3.0
43.49	7.0
43.505	7.0
43.52	12.0
43.535	7.0
43.55	11.0
43.565	11.0
43.58	13.0
43.595	10.0
43.61	12.0
43.625	7.0
43.64	11.0
43.655	3.0
43.67	8.0
43.685	9.0
43.7	4.0
43.715	3.0
43.73	8.0
43.745	9.0
43.76	5.0
43.775	5.0
43.79	7.0
43.805	5.0
43.82	6.0
43.835	9.0
43.85	7.0
43.865	5.0
43.88	7.0
43.895	11.0
43.91	3.0
43.925	4.0
43.94	7.0
43.955	4.0
43.97	3.0
43.985	3.0
44.0	6.0
44.015	3.0
44.03	2.0
44.045	5.0
44.061	6.0
44.076	9.0
44.091	7.0
44.106	5.0
44.121	7.0
44.136	7.0
44.151	8.0
44.166	8.0
44.181	1.0
44.196	4.0
44.211	5.0
44.226	3.0
44.241	4.0
44.256	7.0
44.271	10.0
44.286	3.0
44.301	6.0
44.316	6.0
44.331	6.0
44.346	4.0
44.361	5.0
44.377	5.0
44.392	5.0
44.407	6.0
44.422	3.0
44.437	7.0
44.452	8.0
44.467	8.0
44.482	6.0
44.497	6.0
44.512	2.0
44.527	4.0
44.542	5.0
44.557	5.0
44.572	4.0
44.587	6.0
44.602	5.0
44.617	5.0
44.632	6.0
44.647	6.0
44.663	12.0
44.678	1.0
44.693	3.0
44.708	5.0
44.723	8.0
44.738	9.0
44.753	9.0
44.768	13.0
44.783	2.0
44.798	8.0
44.813	11.0
44.828	11.0
44.843	9.0
44.858	15.0
44.873	13.0
44.888	7.0
44.903	16.0
44.918	7.0
44.933	6.0
44.948	7.0
44.964	11.0
44.979	9.0
44.994	7.0
45.009	8.0
45.024	6.0
45.039	12.0
45.054	12.0
45.069	5.0
45.084	13.0
45.099	9.0
45.114	12.0
45.129	8.0
45.144	3.0
45.159	7.0
45.174	4.0
45.189	2.0
45.204	7.0
45.219	6.0
45.234	4.0
45.249	11.0
45.264	8.0
45.279	8.0
45.294	3.0
45.309	4.0
45.324	4.0
45.339	6.0
45.354	3.0
45.369	4.0
45.384	4.0
45.399	2.0
45.414	5.0
45.429	6.0
45.444	3.0
45.459	9.0
45.474	3.0
45.489	6.0
45.504	7.0
45.519	6.0
45.534	3.0
45.549	3.0
45.564	8.0
45.579	10.0
45.594	3.0
45.609	7.0
45.624	4.0
45.639	5.0
45.654	8.0
45.669	4.0
45.684	6.0
45.699	0.0
45.714	8.0
45.729	5.0
45.744	8.0
45.759	4.0
45.774	7.0
45.789	6.0
45.804	3.0
45.819	9.0
45.834	5.0
45.849	9.0
45.864	7.0
45.879	10.0
45.894	15.0
45.909	10.0
45.924	11.0
45.939	13.0
45.954	26.0
45.969	20.0
45.984	17.0
45.998	21.0
46.013	21.0
46.028	12.0
46.043	9.0
46.058	17.0
46.073	13.0
46.088	7.0
46.103	7.0
46.118	6.0
46.133	5.0
46.148	7.0
46.163	10.0
46.178	3.0
46.192	8.0
46.207	13.0
46.222	11.0
46.237	9.0
46.252	11.0
46.267	12.0
46.282	9.0
46.297	13.0
46.312	10.0
46.327	8.0
46.341	9.0
46.356	11.0
46.371	5.0
46.386	9.0
46.401	6.0
46.416	5.0
46.431	7.0
46.446	5.0
46.46	2.0
46.475	11.0
46.49	7.0
46.505	8.0
46.52	3.0
46.535	3.0
46.55	7.0
46.564	3.0
46.579	5.0
46.594	3.0
46.609	8.0
46.624	6.0
46.639	2.0
46.654	9.0
46.668	4.0
46.683	6.0
46.698	13.0
46.713	3.0
46.728	3.0
46.743	8.0
46.758	8.0
46.772	5.0
46.787	2.0
46.802	2.0
46.817	5.0
46.832	2.0
46.847	6.0
46.861	4.0
46.876	6.0
46.891	4.0
46.906	5.0
46.921	4.0
46.936	5.0
46.95	7.0
46.965	9.0
46.98	6.0
46.995	1.0
47.01	3.0
47.025	10.0
47.039	7.0
47.054	9.0
47.069	7.0
47.084	6.0
47.099	8.0
47.113	8.0
47.128	11.0
47.143	10.0
47.158	9.0
47.173	10.0
47.188	13.0
47.202	16.0
47.217	5.0
47.232	9.0
47.247	4.0
47.262	1.0
47.277	8.0
47.291	2.0
47.306	3.0
47.321	10.0
47.336	5.0
47.351	2.0
47.365	5.0
47.38	11.0
47.395	6.0
47.41	2.0
47.425	11.0
47.44	14.0
47.454	5.0
47.469	7.0
47.484	6.0
47.499	3.0
47.514	7.0
47.528	7.0
47.543	5.0
47.558	6.0
47.573	2.0
47.588	8.0
47.603	5.0
47.617	5.0
47.632	6.0
47.647	6.0
47.662	7.0
47.677	1.0
47.691	4.0
47.706	2.0
47.721	9.0
47.736	6.0
47.751	7.0
47.766	9.0
47.78	3.0
47.795	1.0
47.81	4.0
47.825	3.0
47.84	1.0
47.855	10.0
47.869	6.0
47.884	6.0
47.899	5.0
47.914	6.0
47.929	5.0
47.944	6.0
47.958	5.0
47.973	9.0
47.988	6.0
48.003	5.0
48.018	2.0
48.033	6.0
48.047	4.0
48.062	4.0
48.077	6.0
48.092	3.0
48.107	3.0
48.122	6.0
48.137	4.0
48.151	13.0
48.166	3.0
48.181	5.0
48.196	4.0
48.211	2.0
48.226	1.0
48.241	3.0
48.255	4.0
48.27	4.0
48.285	6.0
48.3	3.0
48.315	3.0
48.33	7.0
48.345	6.0
48.359	4.0
48.374	4.0
48.389	5.0
48.404	5.0
48.419	9.0
48.434	3.0
48.449	3.0
48.464	9.0
48.478	10.0
48.493	3.0
48.508	5.0
48.523	7.0
48.538	10.0
48.553	1.0
48.568	8.0
48.583	6.0
48.597	4.0
48.612	6.0
48.627	5.0
48.642	7.0
48.657	3.0
48.672	6.0
48.687	1.0
48.702	6.0
48.717	2.0
48.731	3.0
48.746	5.0
48.761	2.0
48.776	6.0
48.791	10.0
48.806	0.0
48.821	2.0
48.836	4.0
48.851	6.0
48.866	3.0
48.88	6.0
48.895	0.0
48.91	5.0
48.925	5.0
48.94	3.0
48.955	3.0
48.97	5.0
48.985	10.0
49.0	4.0
49.015	7.0
49.03	1.0
49.044	1.0
49.059	6.0
49.074	7.0
49.089	4.0
49.104	4.0
49.119	3.0
49.134	9.0
49.149	5.0
49.164	2.0
49.179	5.0
49.194	1.0
49.209	9.0
49.224	0.0
49.238	6.0
49.253	6.0
49.268	8.0
49.283	14.0
49.298	6.0
49.313	12.0
49.328	4.0
49.343	10.0
49.358	9.0
49.373	5.0
49.388	9.0
49.403	4.0
49.418	8.0
49.433	13.0
49.448	8.0
49.463	10.0
49.478	2.0
49.492	3.0
49.507	7.0
49.522	5.0
49.537	6.0
49.552	8.0
49.567	3.0
49.582	10.0
49.597	4.0
49.612	8.0
49.627	10.0
49.642	7.0
49.657	6.0
49.672	10.0
49.687	5.0
49.702	4.0
49.717	6.0
49.732	4.0
49.747	7.0
49.762	9.0
49.777	6.0
49.792	8.0
49.807	3.0
49.822	4.0
49.837	2.0
49.852	2.0
49.867	4.0
49.882	5.0
49.897	4.0
49.912	4.0
49.927	5.0
49.942	3.0
49.957	6.0
49.971	7.0
49.986	2.0
50.001	5.0
50.016	5.0
50.031	7.0
50.046	5.0
50.061	4.0
50.076	5.0
50.091	2.0
50.106	3.0
50.121	5.0
50.136	6.0
50.151	7.0
50.166	0.0
50.181	2.0
50.196	3.0
50.211	4.0
50.226	8.0
50.241	5.0
50.256	8.0
50.271	6.0
50.286	10.0
50.302	2.0
50.317	7.0
50.332	7.0
50.347	4.0
50.362	2.0
50.377	4.0
50.392	6.0
50.407	10.0
50.422	8.0
50.437	8.0
50.452	10.0
50.467	7.0
50.482	2.0
50.497	6.0
50.512	2.0
50.527	6.0
50.542	8.0
50.557	3.0
50.572	2.0
50.587	3.0
50.602	9.0
50.617	4.0
50.632	7.0
50.647	5.0
50.662	6.0
50.677	8.0
50.692	6.0
50.707	7.0
50.722	7.0
50.737	6.0
50.752	12.0
50.767	5.0
50.782	3.0
50.797	6.0
50.812	2.0
50.828	5.0
50.843	7.0
50.858	1.0
50.873	9.0
50.888	7.0
50.903	10.0
50.918	6.0
50.933	6.0
50.948	6.0
50.963	4.0
50.978	2.0
50.993	5.0
51.008	2.0
51.023	3.0
51.038	7.0
51.053	7.0
51.068	4.0
51.083	4.0
51.098	4.0
51.114	3.0
51.129	7.0
51.144	10.0
51.159	5.0
51.174	2.0
51.189	4.0
51.204	6.0
51.219	2.0
51.234	2.0
51.249	5.0
51.264	5.0
51.279	7.0
51.294	6.0
51.309	2.0
51.324	3.0
51.34	9.0
51.355	3.0
51.37	3.0
51.385	5.0
51.4	4.0
51.415	4.0
51.43	9.0
51.445	14.0
51.46	14.0
51.475	14.0
51.49	18.0
51.505	10.0
51.52	13.0
51.535	15.0
51.551	19.0
51.566	17.0
51.581	17.0
51.596	12.0
51.611	6.0
51.626	9.0
51.641	6.0
51.656	8.0
51.671	4.0
51.686	7.0
51.701	3.0
51.716	10.0
51.732	6.0
51.747	7.0
51.762	6.0
51.777	4.0
51.792	10.0
51.807	11.0
51.822	11.0
51.837	10.0
51.852	12.0
51.867	2.0
51.882	8.0
51.898	10.0
51.913	8.0
51.928	3.0
51.943	8.0
51.958	1.0
51.973	6.0
51.988	4.0
52.003	5.0
52.018	8.0
52.033	4.0
52.048	2.0
52.064	4.0
52.079	9.0
52.094	2.0
52.109	3.0
52.124	4.0
52.139	4.0
52.154	6.0
52.169	3.0
52.184	5.0
52.199	4.0
52.215	3.0
52.23	4.0
52.245	7.0
52.26	7.0
52.275	7.0
52.29	8.0
52.305	5.0
52.32	3.0
52.335	3.0
52.35	5.0
52.366	5.0
52.381	7.0
52.396	7.0
52.411	9.0
52.426	6.0
52.441	6.0
52.456	2.0
52.471	2.0
52.486	8.0
52.502	2.0
52.517	13.0
52.532	14.0
52.547	6.0
52.562	11.0
52.577	13.0
52.592	6.0
52.607	7.0
52.622	7.0
52.637	9.0
52.653	11.0
52.668	6.0
52.683	5.0
52.698	9.0
52.713	1.0
52.728	8.0
52.743	1.0
52.758	5.0
52.774	8.0
52.789	2.0
52.804	3.0
52.819	4.0
52.834	4.0
52.849	9.0
52.864	6.0
52.879	8.0
52.894	4.0
52.91	6.0
52.925	12.0
52.94	6.0
52.955	6.0
52.97	4.0
52.985	7.0
53.0	5.0
53.015	4.0
53.031	3.0
53.046	6.0
53.061	8.0
53.076	3.0
53.091	9.0
53.106	8.0
53.121	4.0
53.136	8.0
53.152	6.0
53.167	10.0
53.182	7.0
53.197	5.0
53.212	4.0
53.227	3.0
53.242	11.0
53.257	10.0
53.273	5.0
53.288	4.0
53.303	6.0
53.318	6.0
53.333	7.0
53.348	7.0
53.363	3.0
53.379	6.0
53.394	6.0
53.409	6.0
53.424	4.0
53.439	4.0
53.454	3.0
53.469	7.0
53.484	3.0
53.5	7.0
53.515	4.0
53.53	4.0
53.545	0.0
53.56	11.0
53.575	2.0
53.59	6.0
53.606	5.0
53.621	5.0
53.636	3.0
53.651	2.0
53.666	3.0
53.681	6.0
53.696	3.0
53.712	6.0
53.727	4.0
53.742	7.0
53.757	5.0
53.772	2.0
53.787	7.0
53.802	2.0
53.818	6.0
53.833	2.0
53.848	2.0
53.863	6.0
53.878	5.0
53.893	3.0
53.909	3.0
53.924	7.0
53.939	4.0
53.954	2.0
53.969	2.0
53.984	5.0
53.999	1.0
54.015	6.0
54.03	4.0
54.045	4.0
54.06	5.0
54.075	5.0
54.09	6.0
54.106	5.0
54.121	3.0
54.136	7.0
54.151	6.0
54.166	5.0
54.181	9.0
54.197	5.0
54.212	4.0
54.227	2.0
54.242	8.0
54.257	6.0
54.272	7.0
54.288	4.0
54.303	3.0
54.318	5.0
54.333	8.0
54.348	9.0
54.363	4.0
54.379	8.0
54.394	7.0
54.409	4.0
54.424	7.0
54.439	6.0
54.454	3.0
54.47	6.0
54.485	4.0
54.5	5.0
54.515	5.0
54.53	10.0
54.545	10.0
54.561	3.0
54.576	7.0
54.591	3.0
54.606	11.0
54.621	11.0
54.636	7.0
54.652	10.0
54.667	8.0
54.682	5.0
54.697	15.0
54.712	15.0
54.727	12.0
54.743	5.0
54.758	11.0
54.773	10.0
54.788	8.0
54.803	5.0
54.819	3.0
54.834	3.0
54.849	3.0
54.864	7.0
54.879	8.0
54.894	2.0
54.91	8.0
54.925	7.0
54.94	9.0
54.955	9.0
54.97	9.0
54.985	12.0
55.001	16.0
55.016	9.0
55.031	14.0
55.046	12.0
55.061	6.0
55.077	6.0
55.092	7.0
55.107	10.0
55.122	9.0
55.137	5.0
55.152	6.0
55.168	8.0
55.183	7.0
55.198	2.0
55.213	4.0
55.228	5.0
55.243	9.0
55.259	4.0
55.274	4.0
55.289	2.0
55.304	4.0
55.319	5.0
55.335	7.0
55.35	6.0
55.365	5.0
55.38	7.0
55.395	7.0
55.41	5.0
55.426	4.0
55.441	7.0
55.456	5.0
55.471	2.0
55.486	4.0
55.501	6.0
55.517	5.0
55.532	0.0
55.547	8.0
55.562	8.0
55.577	7.0
55.592	6.0
55.608	8.0
55.623	4.0
55.638	6.0
55.653	8.0
55.668	4.0
55.683	11.0
55.699	7.0
55.714	4.0
55.729	8.0
55.744	5.0
55.759	6.0
55.774	7.0
55.79	5.0
55.805	5.0
55.82	4.0
55.835	5.0
55.85	1.0
55.865	3.0
55.881	2.0
55.896	2.0
55.911	2.0
55.926	5.0
55.941	7.0
55.956	5.0
55.972	5.0
55.987	4.0
56.002	3.0
56.017	4.0
56.032	6.0
56.047	2.0
56.063	2.0
56.078	9.0
56.093	3.0
56.108	3.0
56.123	7.0
56.138	6.0
56.154	4.0
56.169	3.0
56.184	14.0
56.199	1.0
56.214	2.0
56.229	7.0
56.244	4.0
56.26	5.0
56.275	2.0
56.29	6.0
56.305	4.0
56.32	6.0
56.335	3.0
56.351	5.0
56.366	4.0
56.381	5.0
56.396	6.0
56.411	7.0
56.426	3.0
56.441	6.0
56.457	2.0
56.472	8.0
56.487	2.0
56.502	5.0
56.517	2.0
56.532	4.0
56.547	5.0
56.563	3.0
56.578	5.0
56.593	6.0
56.608	6.0
56.623	3.0
56.638	7.0
56.653	7.0
56.668	3.0
56.684	3.0
56.699	4.0
56.714	7.0
56.729	4.0
56.744	6.0
56.759	3.0
56.774	5.0
56.79	7.0
56.805	6.0
56.82	2.0
56.835	3.0
56.85	2.0
56.865	3.0
56.88	1.0
56.895	2.0
56.911	4.0
56.926	3.0
56.941	4.0
56.956	2.0
56.971	4.0
56.986	3.0
57.001	1.0
57.016	5.0
57.031	6.0
57.047	1.0
57.062	4.0
57.077	6.0
57.092	6.0
57.107	7.0
57.122	6.0
57.137	8.0
57.152	6.0
57.167	8.0
57.183	6.0
57.198	1.0
57.213	7.0
57.228	4.0
57.243	4.0
57.258	3.0
57.273	6.0
57.288	1.0
57.303	6.0
57.318	4.0
57.334	3.0
57.349	7.0
57.364	2.0
57.379	5.0
57.394	2.0
57.409	3.0
57.424	5.0
57.439	4.0
57.454	6.0
57.469	6.0
57.484	4.0
57.5	5.0
57.515	4.0
57.53	9.0
57.545	5.0
57.56	5.0
57.575	3.0
57.59	5.0
57.605	4.0
57.62	4.0
57.635	6.0
57.65	3.0
57.665	9.0
57.68	6.0
57.696	6.0
57.711	3.0
57.726	5.0
57.741	3.0
57.756	6.0
57.771	5.0
57.786	4.0
57.801	0.0
57.816	7.0
57.831	2.0
57.846	1.0
57.861	2.0
57.876	5.0
57.891	4.0
57.906	3.0
57.921	6.0
57.937	7.0
57.952	5.0
57.967	0.0
57.982	6.0
57.997	4.0
58.012	6.0
58.027	2.0
58.042	6.0
58.057	8.0
58.072	5.0
58.087	3.0
58.102	7.0
58.117	7.0
58.132	7.0
58.147	2.0
58.162	6.0
58.177	4.0
58.192	3.0
58.207	7.0
58.222	2.0
58.237	6.0
58.252	8.0
58.267	5.0
58.282	5.0
58.297	9.0
58.312	2.0
58.327	3.0
58.342	4.0
58.357	6.0
58.372	9.0
58.387	3.0
58.402	8.0
58.418	3.0
58.433	4.0
58.448	4.0
58.463	7.0
58.478	6.0
58.493	8.0
58.508	3.0
58.523	5.0
58.538	5.0
58.553	7.0
58.568	7.0
58.583	6.0
58.598	7.0
58.613	7.0
58.628	8.0
58.643	6.0
58.658	8.0
58.673	1.0
58.688	13.0
58.703	11.0
58.718	5.0
58.733	12.0
58.748	4.0
58.763	6.0
58.778	4.0
58.793	3.0
58.808	1.0
58.823	6.0
58.838	4.0
58.853	7.0
58.868	7.0
58.883	5.0
58.898	3.0
58.913	8.0
58.928	7.0
58.942	4.0
58.957	9.0
58.972	8.0
58.987	7.0
59.002	4.0
59.017	6.0
59.032	6.0
59.047	5.0
59.062	5.0
59.077	8.0
59.092	7.0
59.107	5.0
59.122	6.0
59.137	7.0
59.152	3.0
59.167	7.0
59.182	5.0
59.197	4.0
59.212	2.0
59.227	3.0
59.242	2.0
59.257	4.0
59.272	1.0
59.287	7.0
59.302	5.0
59.317	3.0
59.332	5.0
59.347	3.0
59.362	6.0
59.377	4.0
59.392	5.0
59.407	5.0
59.422	2.0
59.437	3.0
59.452	6.0
59.467	5.0
59.482	4.0
59.497	6.0
59.512	4.0
59.527	7.0
59.542	5.0
59.557	6.0
59.572	9.0
59.587	7.0
59.602	14.0
59.617	7.0
59.632	9.0
59.647	9.0
59.661	10.0
59.676	5.0
59.691	3.0
59.706	5.0
59.721	4.0
59.736	2.0
59.751	9.0
59.766	5.0
59.781	7.0
59.796	8.0
59.811	5.0
59.826	2.0
59.841	5.0
59.856	4.0
59.871	6.0
59.886	2.0
59.901	5.0
59.916	3.0
59.931	5.0
59.946	6.0
59.961	5.0
59.976	8.0
59.991	5.0
60.006	6.0
60.021	10.0
60.036	5.0
60.051	7.0
60.066	8.0
60.081	6.0
60.096	2.0
60.111	4.0
60.126	3.0
60.141	6.0
60.156	4.0
60.171	6.0
60.186	9.0
60.201	6.0
60.216	6.0
60.231	1.0
60.246	3.0
60.261	5.0
60.276	6.0
60.291	6.0
60.306	4.0
60.321	6.0
60.336	6.0
60.35	11.0
60.365	7.0
60.38	6.0
60.395	2.0
60.41	2.0
60.425	3.0
60.44	4.0
60.455	7.0
60.47	6.0
60.485	9.0
60.5	4.0
60.515	5.0
60.53	7.0
60.545	7.0
60.56	3.0
60.575	6.0
60.59	5.0
60.605	8.0
60.62	8.0
60.635	5.0
60.65	3.0
60.665	0.0
60.68	4.0
60.695	2.0
60.71	4.0
60.725	6.0
60.74	8.0
60.755	4.0
60.77	5.0
60.785	5.0
60.8	4.0
60.815	3.0
60.83	5.0
60.845	5.0
60.86	7.0
60.875	11.0
60.89	6.0
60.905	3.0
60.92	4.0
60.935	6.0
60.95	3.0
60.965	6.0
60.98	6.0
60.995	5.0
61.01	4.0
61.025	8.0
61.04	4.0
61.055	4.0
61.07	4.0
61.085	3.0
61.1	8.0
61.115	5.0
61.13	5.0
61.145	7.0
61.16	3.0
61.175	2.0
61.191	3.0
61.206	8.0
61.221	5.0
61.236	4.0
61.251	1.0
61.266	3.0
61.281	2.0
61.296	5.0
61.311	2.0
61.326	1.0
61.341	2.0
61.356	6.0
61.371	3.0
61.386	3.0
61.401	2.0
61.416	1.0
61.431	4.0
61.446	2.0
61.461	1.0
61.476	5.0
61.491	7.0
61.506	4.0
61.521	6.0
61.536	5.0
61.551	4.0
61.566	4.0
61.581	6.0
61.596	7.0
61.611	9.0
61.626	5.0
61.641	4.0
61.656	2.0
61.672	4.0
61.687	4.0
61.702	9.0
61.717	6.0
61.732	4.0
61.747	2.0
61.762	6.0
61.777	3.0
61.792	3.0
61.807	3.0
61.822	3.0
61.837	4.0
61.852	7.0
61.867	5.0
61.882	4.0
61.897	6.0
61.912	6.0
61.927	4.0
61.943	5.0
61.958	6.0
61.973	4.0
61.988	7.0
62.003	5.0
62.018	3.0
62.033	5.0
62.048	1.0
62.063	6.0
62.078	4.0
62.093	4.0
62.108	3.0
62.123	5.0
62.138	6.0
62.153	7.0
62.169	1.0
62.184	2.0
62.199	3.0
62.214	4.0
62.229	2.0
62.244	5.0
62.259	6.0
62.274	2.0
62.289	6.0
62.304	1.0
62.319	7.0
62.335	4.0
62.35	7.0
62.365	2.0
62.38	5.0
62.395	6.0
62.41	3.0
62.425	7.0
62.44	5.0
62.455	0.0
62.47	4.0
62.485	5.0
62.501	4.0
62.516	6.0
62.531	7.0
62.546	5.0
62.561	3.0
62.576	0.0
62.591	4.0
62.606	5.0
62.621	4.0
62.636	2.0
62.652	5.0
62.667	1.0
62.682	2.0
62.697	2.0
62.712	2.0
62.727	6.0
62.742	1.0
62.757	6.0
62.772	3.0
62.787	7.0
62.803	3.0
62.818	2.0
62.833	3.0
62.848	4.0
62.863	3.0
62.878	4.0
62.893	4.0
62.908	6.0
62.923	6.0
62.939	2.0
62.954	3.0
62.969	5.0
62.984	2.0
62.999	5.0
63.014	1.0
63.029	2.0
63.044	5.0
63.059	1.0
63.074	2.0
63.09	3.0
63.105	3.0
63.12	3.0
63.135	3.0
63.15	7.0
63.165	3.0
63.18	5.0
63.195	4.0
63.21	3.0
63.226	7.0
63.241	3.0
63.256	5.0
63.271	2.0
63.286	0.0
63.301	8.0
63.316	5.0
63.331	9.0
63.346	6.0
63.362	4.0
63.377	7.0
63.392	6.0
63.407	7.0
63.422	6.0
63.437	8.0
63.452	6.0
63.467	7.0
63.482	8.0
63.497	3.0
63.513	3.0
63.528	1.0
63.543	5.0
63.558	6.0
63.573	5.0
63.588	4.0
63.603	4.0
63.618	5.0
63.633	2.0
63.648	2.0
63.664	3.0
63.679	3.0
63.694	7.0
63.709	3.0
63.724	3.0
63.739	4.0
63.754	3.0
63.769	7.0
63.784	6.0
63.799	9.0
63.814	11.0
63.83	5.0
63.845	10.0
63.86	11.0
63.875	5.0
63.89	7.0
63.905	1.0
63.92	4.0
63.935	3.0
63.95	1.0
63.965	4.0
63.98	0.0
63.996	3.0
64.011	5.0
64.026	1.0
64.041	2.0
64.056	3.0
64.071	2.0
64.086	7.0
64.101	5.0
64.116	4.0
64.131	4.0
64.146	2.0
64.161	2.0
64.176	5.0
64.191	0.0
64.207	0.0
64.222	4.0
64.237	4.0
64.252	3.0
64.267	4.0
64.282	5.0
64.297	6.0
64.312	2.0
64.327	5.0
64.342	3.0
64.357	4.0
64.372	5.0
64.387	5.0
64.402	3.0
64.417	5.0
64.433	3.0
64.448	1.0
64.463	5.0
64.478	5.0
64.493	5.0
64.508	2.0
64.523	2.0
64.538	4.0
64.553	7.0
64.568	1.0
64.583	3.0
64.598	3.0
64.613	2.0
64.628	3.0
64.643	3.0
64.658	4.0
64.673	6.0
64.688	2.0
64.703	4.0
64.718	3.0
64.734	0.0
64.749	4.0
64.764	1.0
64.779	4.0
64.794	4.0
64.809	3.0
64.824	2.0
64.839	4.0
64.854	5.0
64.869	3.0
64.884	4.0
64.899	3.0
64.914	5.0
64.929	3.0
64.944	9.0
64.959	5.0
64.974	4.0
64.989	9.0
65.004	4.0
65.019	8.0
65.034	5.0
65.049	1.0
65.064	3.0
65.079	4.0
65.094	8.0
65.109	4.0
65.125	1.0
65.14	7.0
65.155	3.0
65.17	7.0
65.185	6.0
65.2	4.0
65.215	6.0
65.23	6.0
65.245	7.0
65.26	6.0
65.275	7.0
65.29	6.0
65.305	3.0
65.32	4.0
65.335	4.0
65.35	5.0
65.365	2.0
65.38	5.0
65.395	3.0
65.41	2.0
65.425	2.0
65.44	5.0
65.455	8.0
65.47	1.0
65.485	2.0
65.5	6.0
65.515	3.0
65.53	1.0
65.545	4.0
65.56	6.0
65.575	3.0
65.59	2.0
65.605	4.0
65.62	2.0
65.635	2.0
65.65	5.0
65.666	6.0
65.681	5.0
65.696	2.0
65.711	4.0
65.726	5.0
65.741	4.0
65.756	8.0
65.771	4.0
65.786	3.0
65.801	3.0
65.816	1.0
65.831	3.0
65.846	3.0
65.861	5.0
65.876	4.0
65.891	8.0
65.906	4.0
65.921	4.0
65.936	5.0
65.951	6.0
65.966	1.0
65.981	4.0
65.996	3.0
66.011	4.0
66.026	4.0
66.041	6.0
66.056	7.0
66.071	6.0
66.086	8.0
66.101	7.0
66.116	2.0
66.131	2.0
66.146	5.0
66.161	12.0
66.176	5.0
66.191	9.0
66.206	2.0
66.221	4.0
66.236	7.0
66.251	7.0
66.266	4.0
66.281	5.0
66.296	5.0
66.311	3.0
66.327	4.0
66.342	8.0
66.357	3.0
66.372	5.0
66.387	4.0
66.402	5.0
66.417	7.0
66.432	3.0
66.447	5.0
66.462	5.0
66.477	5.0
66.492	2.0
66.507	0.0
66.522	2.0
66.537	5.0
66.552	0.0
66.567	4.0
66.582	7.0
66.597	5.0
66.612	6.0
66.627	4.0
66.642	4.0
66.657	4.0
66.672	6.0
66.687	5.0
66.702	3.0
66.717	1.0
66.732	5.0
66.747	3.0
66.762	2.0
66.777	1.0
66.792	0.0
66.807	7.0
66.822	2.0
66.837	3.0
66.853	6.0
66.868	0.0
66.883	3.0
66.898	5.0
66.913	4.0
66.928	1.0
66.943	1.0
66.958	0.0
66.973	5.0
66.988	3.0
67.003	2.0
67.018	8.0
67.033	6.0
67.048	5.0
67.063	7.0
67.078	8.0
67.093	3.0
67.108	1.0
67.123	6.0
67.138	8.0
67.153	4.0
67.168	4.0
67.183	5.0
67.198	2.0
67.214	3.0
67.229	5.0
67.244	4.0
67.259	3.0
67.274	4.0
67.289	2.0
67.304	5.0
67.319	4.0
67.334	2.0
67.349	6.0
67.364	2.0
67.379	3.0
67.394	3.0
67.409	8.0
67.424	1.0
67.439	4.0
67.454	4.0
67.469	3.0
67.484	5.0
67.5	3.0
67.515	4.0
67.53	6.0
67.545	6.0
67.56	5.0
67.575	4.0
67.59	4.0
67.605	6.0
67.62	2.0
67.635	9.0
67.65	6.0
67.665	4.0
67.68	3.0
67.695	4.0
67.71	1.0
67.726	4.0
67.741	5.0
67.756	8.0
67.771	2.0
67.786	3.0
67.801	5.0
67.816	2.0
67.831	7.0
67.846	4.0
67.861	3.0
67.876	2.0
67.891	2.0
67.906	10.0
67.922	4.0
67.937	3.0
67.952	4.0
67.967	8.0
67.982	2.0
67.997	10.0
68.012	5.0
68.027	3.0
68.042	4.0
68.057	2.0
68.072	3.0
68.087	2.0
68.103	3.0
68.118	3.0
68.133	1.0
68.148	4.0
68.163	3.0
68.178	1.0
68.193	4.0
68.208	4.0
68.223	4.0
68.238	5.0
68.254	5.0
68.269	4.0
68.284	4.0
68.299	0.0
68.314	5.0
68.329	1.0
68.344	2.0
68.359	5.0
68.374	4.0
68.389	5.0
68.405	5.0
68.42	3.0
68.435	1.0
68.45	3.0
68.465	3.0
68.48	9.0
68.495	4.0
68.51	4.0
68.525	9.0
68.54	3.0
68.556	1.0
68.571	2.0
68.586	1.0
68.601	1.0
68.616	2.0
68.631	1.0
68.646	2.0
68.661	4.0
68.676	3.0
68.691	1.0
68.707	8.0
68.722	2.0
68.737	2.0
68.752	2.0
68.767	6.0
68.782	1.0
68.797	7.0
68.812	6.0
68.827	4.0
68.842	3.0
68.857	4.0
68.873	4.0
68.888	6.0
68.903	5.0
68.918	3.0
68.933	3.0
68.948	3.0
68.963	5.0
68.978	6.0
68.993	4.0
69.008	4.0
69.023	6.0
69.038	3.0
69.054	6.0
69.069	2.0
69.084	2.0
69.099	3.0
69.114	5.0
69.129	3.0
69.144	1.0
69.159	11.0
69.174	4.0
69.189	8.0
69.204	2.0
69.219	2.0
69.234	2.0
69.249	4.0
69.264	4.0
69.279	3.0
69.295	7.0
69.31	2.0
69.325	0.0
69.34	8.0
69.355	7.0
69.37	4.0
69.385	1.0
69.4	5.0
69.415	4.0
69.43	6.0
69.445	4.0
69.46	5.0
69.475	5.0
69.49	4.0
69.505	6.0
69.52	2.0
69.535	8.0
69.55	3.0
69.565	3.0
69.58	4.0
69.595	4.0
69.61	2.0
69.625	2.0
69.64	6.0
69.655	3.0
69.67	8.0
69.685	4.0
69.7	5.0
69.715	4.0
69.73	6.0
69.745	4.0
69.76	3.0
69.775	5.0
69.79	6.0
69.805	5.0
69.82	6.0
69.835	8.0
69.85	6.0
69.865	5.0
69.88	4.0
69.895	2.0
69.909	1.0
69.924	3.0
69.939	4.0
69.954	2.0
69.969	4.0
69.984	1.0
69.999	4.0
70.014	3.0
70.029	1.0
70.044	4.0
70.059	2.0
70.074	3.0
70.088	7.0
70.103	4.0
70.118	2.0
70.133	1.0
70.148	4.0
70.163	6.0
70.178	5.0
70.193	3.0
70.208	1.0
70.222	2.0
70.237	4.0
70.252	8.0
70.267	3.0
70.282	5.0
70.297	8.0
70.312	6.0
70.327	4.0
70.341	3.0
70.356	6.0
70.371	5.0
70.386	4.0
70.401	2.0
70.416	3.0
70.43	5.0
70.445	2.0
70.46	7.0
70.475	6.0
70.49	0.0
70.505	0.0
70.519	3.0
70.534	1.0
70.549	4.0
70.564	4.0
70.579	6.0
70.594	8.0
70.608	4.0
70.623	7.0
70.638	4.0
70.653	3.0
70.668	8.0
70.683	3.0
70.697	5.0
70.712	4.0
70.727	2.0
70.742	6.0
70.757	3.0
70.771	5.0
70.786	2.0
70.801	8.0
70.816	10.0
70.831	2.0
70.845	4.0
70.86	4.0
70.875	3.0
70.89	4.0
70.905	1.0
70.92	6.0
70.934	1.0
70.949	2.0
70.964	5.0
70.979	4.0
70.994	6.0
71.008	1.0
71.023	5.0
71.038	2.0
71.053	3.0
71.068	2.0
71.082	5.0
71.097	4.0
71.112	7.0
71.127	4.0
71.142	5.0
71.156	2.0
71.171	4.0
71.186	6.0
71.201	6.0
71.216	3.0
71.231	3.0
71.245	3.0
71.26	3.0
71.275	5.0
71.29	4.0
71.305	4.0
71.319	0.0
71.334	0.0
71.349	4.0
71.364	5.0
71.379	2.0
71.394	3.0
71.408	1.0
71.423	2.0
71.438	5.0
71.453	8.0
71.468	3.0
71.483	4.0
71.497	5.0
71.512	1.0
71.527	4.0
71.542	5.0
71.557	5.0
71.572	5.0
71.586	3.0
71.601	4.0
71.616	3.0
71.631	4.0
71.646	7.0
71.661	8.0
71.676	6.0
71.69	2.0
71.705	1.0
71.72	4.0
71.735	7.0
71.75	3.0
71.765	1.0
71.78	2.0
71.795	7.0
71.81	5.0
71.824	6.0
71.839	5.0
71.854	2.0
71.869	6.0
71.884	7.0
71.899	1.0
71.914	7.0
71.929	7.0
71.944	7.0
71.959	6.0
71.974	2.0
71.988	4.0
72.003	3.0
72.018	3.0
72.033	3.0
72.048	1.0
72.063	5.0
72.078	3.0
72.093	0.0
72.108	3.0
72.123	3.0
72.138	0.0
72.153	3.0
72.168	1.0
72.183	3.0
72.198	4.0
72.213	6.0
72.228	1.0
72.243	6.0
72.258	2.0
72.273	3.0
72.288	3.0
72.303	3.0
72.318	5.0
72.333	2.0
72.348	3.0
72.363	2.0
72.378	3.0
72.393	2.0
72.408	2.0
72.423	4.0
72.438	5.0
72.453	4.0
72.468	4.0
72.483	2.0
72.498	2.0
72.513	2.0
72.528	3.0
72.543	1.0
72.558	2.0
72.573	5.0
72.588	2.0
72.603	5.0
72.618	1.0
72.633	2.0
72.649	2.0
72.664	2.0
72.679	4.0
72.694	2.0
72.709	3.0
72.724	7.0
72.739	0.0
72.754	1.0
72.769	2.0
72.784	2.0
72.799	3.0
72.814	3.0
72.829	4.0
72.845	3.0
72.86	3.0
72.875	5.0
72.89	5.0
72.905	3.0
72.92	2.0
72.935	7.0
72.95	2.0
72.965	4.0
72.98	6.0
72.996	0.0
73.011	4.0
73.026	3.0
73.041	5.0
73.056	10.0
73.071	4.0
73.086	5.0
73.101	2.0
73.117	0.0
73.132	4.0
73.147	2.0
73.162	2.0
73.177	4.0
73.192	2.0
73.207	5.0
73.222	3.0
73.238	3.0
73.253	2.0
73.268	3.0
73.283	5.0
73.298	6.0
73.313	2.0
73.328	2.0
73.343	2.0
73.359	6.0
73.374	7.0
73.389	2.0
73.404	6.0
73.419	2.0
73.434	3.0
73.449	3.0
73.465	5.0
73.48	3.0
73.495	3.0
73.51	2.0
73.525	4.0
73.54	3.0
73.556	1.0
73.571	2.0
73.586	7.0
73.601	4.0
73.616	2.0
73.631	3.0
73.646	1.0
73.662	0.0
73.677	2.0
73.692	2.0
73.707	5.0
73.722	3.0
73.737	1.0
73.752	0.0
73.768	1.0
73.783	4.0
73.798	9.0
73.813	5.0
73.828	6.0
73.843	9.0
73.859	7.0
73.874	3.0
73.889	2.0
73.904	1.0
73.919	3.0
73.934	5.0
73.949	1.0
73.965	2.0
73.98	4.0
73.995	2.0
74.01	2.0
74.025	4.0
74.04	2.0
74.056	3.0
74.071	5.0
74.086	5.0
74.101	4.0
74.116	5.0
74.131	6.0
74.146	4.0
74.162	6.0
74.177	5.0
74.192	9.0
74.207	3.0
74.222	4.0
74.237	3.0
74.252	1.0
74.268	7.0
74.283	1.0
74.298	4.0
74.313	3.0
74.328	1.0
74.343	6.0
74.358	8.0
74.374	1.0
74.389	6.0
74.404	2.0
74.419	2.0
74.434	5.0
74.449	5.0
74.464	1.0
74.48	3.0
74.495	5.0
74.51	3.0
74.525	1.0
74.54	3.0
74.555	3.0
74.57	3.0
74.586	3.0
74.601	5.0
74.616	1.0
74.631	6.0
74.646	2.0
74.661	6.0
74.676	5.0
74.691	3.0
74.707	3.0
74.722	1.0
74.737	2.0
74.752	2.0
74.767	4.0
74.782	6.0
74.797	4.0
74.813	6.0
74.828	4.0
74.843	1.0
74.858	4.0
74.873	3.0
74.888	4.0
74.903	3.0
74.918	2.0
74.934	3.0
74.949	4.0
74.964	1.0
74.979	3.0
74.994	3.0
75.009	4.0
75.024	5.0
75.04	3.0
75.055	2.0
75.07	4.0
75.085	8.0
75.1	5.0
75.115	8.0
75.13	2.0
75.145	2.0
75.161	3.0
75.176	6.0
75.191	5.0
75.206	2.0
75.221	2.0
75.236	7.0
75.251	4.0
75.266	3.0
75.282	4.0
75.297	2.0
75.312	1.0
75.327	5.0
75.342	4.0
75.357	4.0
75.372	2.0
75.387	1.0
75.403	1.0
75.418	3.0
75.433	0.0
75.448	2.0
75.463	2.0
75.478	4.0
75.493	3.0
75.509	4.0
75.524	5.0
75.539	6.0
75.554	3.0
75.569	3.0
75.584	3.0
75.599	3.0
75.614	7.0
75.63	4.0
75.645	4.0
75.66	4.0
75.675	4.0
75.69	1.0
75.705	1.0
75.72	1.0
75.735	3.0
75.751	4.0
75.766	3.0
75.781	0.0
75.796	3.0
75.811	4.0
75.826	4.0
75.841	8.0
75.856	3.0
75.872	5.0
75.887	3.0
75.902	5.0
75.917	3.0
75.932	2.0
75.947	3.0
75.962	6.0
75.977	3.0
75.993	2.0
76.008	7.0
76.023	4.0
76.038	1.0
76.053	0.0
76.068	3.0
76.083	3.0
76.098	4.0
76.114	1.0
76.129	1.0
76.144	4.0
76.159	2.0
76.174	1.0
76.189	3.0
76.204	6.0
76.22	5.0
76.235	6.0
76.25	3.0
76.265	3.0
76.28	7.0
76.295	2.0
76.31	5.0
76.325	0.0
76.341	2.0
76.356	3.0
76.371	1.0
76.386	0.0
76.401	3.0
76.416	4.0
76.431	3.0
76.446	5.0
76.462	3.0
76.477	8.0
76.492	0.0
76.507	3.0
76.522	3.0
76.537	3.0
76.552	3.0
76.567	4.0
76.583	4.0
76.598	4.0
76.613	6.0
76.628	5.0
76.643	1.0
76.658	4.0
76.673	4.0
76.688	5.0
76.704	7.0
76.719	6.0
76.734	2.0
76.749	7.0
76.764	6.0
76.779	2.0
76.794	6.0
76.809	2.0
76.824	6.0
76.84	7.0
76.855	2.0
76.87	4.0
76.885	3.0
76.9	1.0
76.915	2.0
76.93	3.0
76.945	1.0
76.96	5.0
76.976	3.0
76.991	1.0
77.006	1.0
77.021	3.0
77.036	1.0
77.051	1.0
77.066	5.0
77.081	4.0
77.096	2.0
77.112	4.0
77.127	0.0
77.142	2.0
77.157	6.0
77.172	0.0
77.187	2.0
77.202	4.0
77.217	2.0
77.232	6.0
77.247	3.0
77.263	1.0
77.278	10.0
77.293	3.0
77.308	6.0
77.323	4.0
77.338	3.0
77.353	7.0
77.368	5.0
77.383	4.0
77.398	1.0
77.413	7.0
77.428	3.0
77.444	2.0
77.459	4.0
77.474	7.0
77.489	9.0
77.504	2.0
77.519	0.0
77.534	3.0
77.549	2.0
77.564	4.0
77.579	8.0
77.594	5.0
77.609	10.0
77.624	10.0
77.64	3.0
77.655	3.0
77.67	5.0
77.685	3.0
77.7	0.0
77.715	4.0
77.73	3.0
77.745	5.0
77.76	4.0
77.775	2.0
77.79	2.0
77.805	2.0
77.82	2.0
77.835	4.0
77.85	0.0
77.865	2.0
77.88	3.0
77.895	2.0
77.91	5.0
77.926	4.0
77.941	4.0
77.956	4.0
77.971	1.0
77.986	0.0
78.001	2.0
78.016	4.0
78.031	4.0
78.046	6.0
78.061	4.0
78.076	0.0
78.091	4.0
78.106	4.0
78.121	4.0
78.136	6.0
78.151	1.0
78.166	4.0
78.181	3.0
78.196	1.0
78.211	5.0
78.226	1.0
78.241	1.0
78.256	2.0
78.271	4.0
78.286	0.0
78.301	2.0
78.316	2.0
78.331	4.0
78.346	2.0
78.361	2.0
78.376	3.0
78.391	3.0
78.406	5.0
78.421	4.0
78.436	3.0
78.451	5.0
78.466	2.0
78.481	4.0
78.496	3.0
78.511	6.0
78.526	1.0
78.541	1.0
78.556	3.0
78.571	3.0
78.586	3.0
78.601	2.0
78.616	4.0
78.631	2.0
78.646	4.0
78.661	2.0
78.676	1.0
78.691	2.0
78.706	3.0
78.721	2.0
78.736	6.0
78.751	2.0
78.766	2.0
78.781	4.0
78.796	3.0
78.811	1.0
78.826	2.0
78.841	5.0
78.856	4.0
78.871	4.0
78.885	3.0
78.9	3.0
78.915	6.0
78.93	1.0
78.945	0.0
78.96	5.0
78.975	1.0
78.99	5.0
79.005	2.0
79.02	2.0
79.035	3.0
79.05	4.0
79.065	3.0
79.08	5.0
79.095	3.0
79.11	6.0
79.125	5.0
79.14	2.0
79.155	2.0
79.17	3.0
79.185	3.0
79.2	2.0
79.215	1.0
79.23	4.0
79.245	2.0
79.26	1.0
79.275	5.0
79.29	4.0
79.304	4.0
79.319	4.0
79.334	4.0
79.349	2.0
79.364	6.0
79.379	3.0
79.394	5.0
79.409	3.0
79.424	2.0
79.439	6.0
79.454	2.0
79.469	6.0
79.484	0.0
79.499	5.0
79.514	2.0
79.529	2.0
79.544	5.0
79.559	8.0
79.574	1.0
79.589	4.0
79.604	4.0
79.619	1.0
79.634	0.0
79.649	0.0
79.664	1.0
79.679	2.0
79.693	2.0
79.708	1.0
79.723	2.0
79.738	2.0
79.753	1.0
79.768	3.0
79.783	0.0
79.798	5.0
79.813	5.0
79.828	4.0
79.843	3.0
79.858	2.0
79.873	4.0
79.888	5.0
79.903	2.0
79.918	1.0
79.933	4.0
79.948	5.0
79.963	4.0
79.978	2.0
79.993	5.0
80.008	1.0
80.023	1.0
80.038	6.0
80.053	3.0
80.068	1.0
80.083	7.0
80.098	4.0
80.113	5.0
80.128	3.0
80.143	7.0
80.158	5.0
80.173	4.0
80.188	10.0
80.202	1.0
80.217	1.0
80.232	9.0
80.247	4.0
80.262	2.0
80.277	4.0
80.292	2.0
80.307	2.0
80.322	3.0
80.337	7.0
80.352	2.0
80.367	5.0
80.382	1.0
80.397	6.0
80.412	2.0
80.427	3.0
80.442	1.0
80.457	3.0
80.472	4.0
80.487	4.0
80.502	2.0
80.517	2.0
80.532	5.0
80.547	4.0
80.562	0.0
80.577	4.0
80.592	4.0
80.607	4.0
80.622	6.0
80.637	4.0
80.652	3.0
80.667	5.0
80.682	4.0
80.697	2.0
80.712	5.0
80.727	3.0
80.742	1.0
80.757	5.0
80.772	4.0
80.787	4.0
80.802	5.0
80.817	6.0
80.832	3.0
80.847	1.0
80.862	3.0
80.877	7.0
80.892	4.0
80.907	3.0
80.922	5.0
80.937	5.0
80.952	1.0
80.967	4.0
80.982	1.0
80.997	3.0
81.012	5.0
81.027	3.0
81.042	1.0
81.057	3.0
81.072	1.0
81.087	2.0
81.101	2.0
81.116	6.0
81.131	5.0
81.146	1.0
81.161	4.0
81.176	3.0
81.191	3.0
81.206	2.0
81.221	5.0
81.236	2.0
81.251	2.0
81.266	5.0
81.281	1.0
81.296	2.0
81.311	4.0
81.326	1.0
81.341	1.0
81.356	4.0
81.371	2.0
81.386	2.0
81.401	2.0
81.416	1.0
81.431	1.0
81.446	2.0
81.461	2.0
81.476	3.0
81.491	2.0
81.506	0.0
81.521	2.0
81.536	4.0
81.55	5.0
81.565	2.0
81.58	5.0
81.595	1.0
81.61	6.0
81.625	5.0
81.64	2.0
81.655	4.0
81.67	3.0
81.685	2.0
81.7	3.0
81.715	5.0
81.73	4.0
81.745	8.0
81.76	3.0
81.775	2.0
81.79	3.0
81.805	3.0
81.819	5.0
81.834	3.0
81.849	1.0
81.864	5.0
81.879	4.0
81.894	7.0
81.909	1.0
81.924	3.0
81.939	3.0
81.954	1.0
81.969	5.0
81.984	3.0
81.999	2.0
82.013	0.0
82.028	4.0
82.043	3.0
82.058	1.0
82.073	0.0
82.088	5.0
82.103	3.0
82.118	2.0
82.133	4.0
82.148	3.0
82.163	1.0
82.177	4.0
82.192	3.0
82.207	0.0
82.222	1.0
82.237	3.0
82.252	3.0
82.267	2.0
82.282	2.0
82.297	2.0
82.312	3.0
82.326	2.0
82.341	1.0
82.356	3.0
82.371	1.0
82.386	1.0
82.401	6.0
82.416	2.0
82.431	1.0
82.445	7.0
82.46	2.0
82.475	6.0
82.49	3.0
82.505	3.0
82.52	5.0
82.535	1.0
82.55	4.0
82.565	3.0
82.579	1.0
82.594	2.0
82.609	1.0
82.624	2.0
82.639	6.0
82.654	3.0
82.669	3.0
82.684	3.0
82.698	1.0
82.713	1.0
82.728	3.0
82.743	2.0
82.758	1.0
82.773	4.0
82.788	7.0
82.803	2.0
82.817	2.0
82.832	2.0
82.847	1.0
82.862	2.0
82.877	6.0
82.892	2.0
82.907	3.0
82.922	6.0
82.937	3.0
82.951	4.0
82.966	3.0
82.981	2.0
82.996	1.0
83.011	3.0
83.026	1.0
83.041	6.0
83.056	1.0
83.07	2.0
83.085	2.0
83.1	4.0
83.115	1.0
83.13	3.0
83.145	4.0
83.16	4.0
83.175	2.0
83.19	5.0
83.204	1.0
83.219	2.0
83.234	0.0
83.249	2.0
83.264	2.0
83.279	2.0
83.294	5.0
83.309	4.0
83.324	2.0
83.339	2.0
83.353	3.0
83.368	2.0
83.383	5.0
83.398	3.0
83.413	3.0
83.428	3.0
83.443	7.0
83.458	1.0
83.473	3.0
83.488	1.0
83.503	2.0
83.517	5.0
83.532	1.0
83.547	3.0
83.562	5.0
83.577	9.0
83.592	2.0
83.607	3.0
83.622	2.0
83.637	2.0
83.652	5.0
83.667	3.0
83.682	5.0
83.697	0.0
83.712	6.0
83.727	2.0
83.741	4.0
83.756	3.0
83.771	1.0
83.786	1.0
83.801	0.0
83.816	3.0
83.831	4.0
83.846	3.0
83.861	2.0
83.876	2.0
83.891	3.0
83.906	3.0
83.921	2.0
83.936	4.0
83.951	6.0
83.966	3.0
83.981	4.0
83.996	4.0
84.011	2.0
84.026	6.0
84.041	4.0
84.056	1.0
84.071	5.0
84.086	4.0
84.101	3.0
84.116	4.0
84.131	3.0
84.146	3.0
84.161	5.0
84.176	1.0
84.191	3.0
84.206	2.0
84.221	6.0
84.236	2.0
84.251	5.0
84.266	4.0
84.281	4.0
84.296	7.0
84.311	2.0
84.326	3.0
84.341	3.0
84.356	5.0
84.371	3.0
84.386	3.0
84.401	4.0
84.416	6.0
84.431	1.0
84.446	2.0
84.461	5.0
84.476	3.0
84.492	7.0
84.507	5.0
84.522	3.0
84.537	7.0
84.552	2.0
84.567	9.0
84.582	2.0
84.597	1.0
84.612	3.0
84.627	7.0
84.642	4.0
84.657	2.0
84.672	2.0
84.687	3.0
84.702	6.0
84.717	3.0
84.733	4.0
84.748	0.0
84.763	5.0
84.778	2.0
84.793	2.0
84.808	3.0
84.823	4.0
84.838	4.0
84.853	4.0
84.868	4.0
84.883	2.0
84.898	5.0
84.913	2.0
84.929	5.0
84.944	0.0
84.959	2.0
84.974	4.0
84.989	2.0
85.004	2.0
85.019	2.0
85.034	3.0
85.049	6.0
85.064	4.0
85.079	5.0
85.094	6.0
85.11	7.0
85.125	4.0
85.14	2.0
85.155	2.0
85.17	2.0
85.185	2.0
85.2	5.0
85.215	2.0
85.23	2.0
85.245	1.0
85.26	3.0
85.276	0.0
85.291	1.0
85.306	3.0
85.321	3.0
85.336	2.0
85.351	5.0
85.366	8.0
85.381	3.0
85.396	3.0
85.411	5.0
85.426	0.0
85.441	4.0
85.457	1.0
85.472	2.0
85.487	0.0
85.502	2.0
85.517	1.0
85.532	4.0
85.547	3.0
85.562	2.0
85.577	5.0
85.592	3.0
85.607	1.0
85.622	2.0
85.637	2.0
85.653	2.0
85.668	3.0
85.683	2.0
85.698	2.0
85.713	0.0
85.728	3.0
85.743	3.0
85.758	2.0
85.773	8.0
85.788	3.0
85.803	2.0
85.818	4.0
85.833	2.0
85.848	2.0
85.863	0.0
85.879	2.0
85.894	2.0
85.909	2.0
85.924	5.0
85.939	1.0
85.954	2.0
85.969	1.0
85.984	4.0
85.999	6.0
86.014	5.0
86.029	2.0
86.044	2.0
86.059	1.0
86.074	2.0
86.089	2.0
86.104	1.0
86.119	1.0
86.134	3.0
86.149	0.0
86.164	1.0
86.179	3.0
86.194	3.0
86.209	4.0
86.224	5.0
86.239	5.0
86.254	1.0
86.269	2.0
86.284	3.0
86.299	3.0
86.314	4.0
86.33	3.0
86.345	1.0
86.36	2.0
86.375	3.0
86.39	4.0
86.405	4.0
86.42	1.0
86.435	3.0
86.45	1.0
86.465	4.0
86.48	3.0
86.495	4.0
86.51	4.0
86.525	2.0
86.54	2.0
86.555	4.0
86.57	1.0
86.585	6.0
86.6	1.0
86.615	3.0
86.63	3.0
86.645	1.0
86.659	2.0
86.674	4.0
86.689	6.0
86.704	1.0
86.719	1.0
86.734	2.0
86.749	6.0
86.764	5.0
86.779	4.0
86.794	1.0
86.809	5.0
86.824	5.0
86.839	3.0
86.854	4.0
86.869	5.0
86.884	2.0
86.899	2.0
86.914	6.0
86.929	2.0
86.944	5.0
86.959	8.0
86.974	0.0
86.989	4.0
87.004	3.0
87.019	3.0
87.034	2.0
87.049	4.0
87.064	2.0
87.079	2.0
87.094	1.0
87.109	2.0
87.124	0.0
87.139	2.0
87.154	4.0
87.169	9.0
87.184	1.0
87.199	2.0
87.214	4.0
87.229	3.0
87.244	4.0
87.259	1.0
87.274	4.0
87.289	3.0
87.304	1.0
87.319	2.0
87.334	3.0
87.349	3.0
87.364	2.0
87.379	1.0
87.394	3.0
87.409	3.0
87.424	2.0
87.438	2.0
87.453	5.0
87.468	2.0
87.483	6.0
87.498	4.0
87.513	3.0
87.528	6.0
87.543	6.0
87.558	1.0
87.573	5.0
87.588	2.0
87.603	4.0
87.618	3.0
87.633	9.0
87.648	4.0
87.663	3.0
87.678	4.0
87.693	3.0
87.708	3.0
87.723	2.0
87.738	3.0
87.753	8.0
87.768	5.0
87.783	2.0
87.798	5.0
87.813	2.0
87.828	2.0
87.843	3.0
87.858	4.0
87.873	2.0
87.888	4.0
87.903	0.0
87.918	2.0
87.933	2.0
87.948	2.0
87.963	3.0
87.978	2.0
87.993	3.0
88.008	4.0
88.023	3.0
88.038	1.0
88.053	2.0
88.068	4.0
88.083	5.0
88.098	4.0
88.113	1.0
88.128	2.0
88.143	5.0
88.158	4.0
88.174	4.0
88.189	2.0
88.204	2.0
88.219	2.0
88.234	6.0
88.249	4.0
88.264	2.0
88.279	1.0
88.294	5.0
88.309	2.0
88.324	1.0
88.339	3.0
88.354	6.0
88.369	2.0
88.384	5.0
88.399	3.0
88.414	4.0
88.429	4.0
88.444	3.0
88.459	4.0
88.474	5.0
88.489	1.0
88.504	2.0
88.519	3.0
88.534	6.0
88.549	5.0
88.564	4.0
88.58	1.0
88.595	1.0
88.61	1.0
88.625	3.0
88.64	3.0
88.655	3.0
88.67	2.0
88.685	2.0
88.7	2.0
88.715	2.0
88.73	2.0
88.745	2.0
88.76	8.0
88.775	2.0
88.79	0.0
88.805	5.0
88.82	3.0
88.835	1.0
88.85	2.0
88.865	1.0
88.88	1.0
88.895	3.0
88.911	5.0
88.926	0.0
88.941	4.0
88.956	4.0
88.971	3.0
88.986	4.0
89.001	4.0
89.016	4.0
89.031	4.0
89.046	3.0
89.061	2.0
89.076	2.0
89.091	4.0
89.106	2.0
89.121	2.0
89.136	2.0
89.151	0.0
89.166	4.0
89.181	2.0
89.196	3.0
89.211	5.0
89.227	2.0
89.242	0.0
89.257	2.0
89.272	6.0
89.287	4.0
89.302	2.0
89.317	3.0
89.332	3.0
89.347	4.0
89.362	2.0
89.377	5.0
89.392	2.0
89.407	2.0
89.422	5.0
89.437	4.0
89.452	4.0
89.467	3.0
89.482	3.0
89.497	3.0
89.512	5.0
89.527	5.0
89.542	1.0
89.557	5.0
89.572	3.0
89.587	4.0
89.602	2.0
89.617	4.0
89.632	2.0
89.647	3.0
89.662	3.0
89.677	3.0
89.693	4.0
89.708	0.0
89.723	4.0
89.738	3.0
89.753	2.0
89.768	3.0
89.783	5.0
89.798	4.0
89.813	2.0
89.828	1.0
89.843	2.0
89.858	3.0
89.873	5.0
89.888	8.0
89.903	1.0
89.918	7.0
89.933	1.0
89.948	2.0
89.963	4.0
89.978	3.0
89.993	0.0
90.008	4.0
90.023	2.0
90.038	1.0
90.053	4.0
90.068	2.0
90.083	1.0
90.097	2.0
90.112	7.0
90.127	3.0
90.142	5.0
90.157	4.0
90.172	1.0
90.187	3.0
90.202	4.0
90.217	5.0
90.232	6.0
90.247	7.0
90.262	6.0
90.277	5.0
90.292	4.0
90.307	3.0
90.322	3.0
90.337	7.0
90.352	3.0
90.367	0.0
90.382	0.0
90.397	4.0
90.412	3.0
90.427	0.0
90.442	4.0
90.457	0.0
90.472	4.0
90.487	2.0
90.501	1.0
90.516	2.0
90.531	3.0
90.546	1.0
90.561	4.0
90.576	1.0
90.591	3.0
90.606	6.0
90.621	3.0
90.636	4.0
90.651	2.0
90.666	2.0
90.681	4.0
90.696	1.0
90.711	5.0
90.726	2.0
90.741	1.0
90.755	1.0
90.77	1.0
90.785	7.0
90.8	4.0
90.815	2.0
90.83	4.0
90.845	4.0
90.86	2.0
90.875	6.0
90.89	5.0
90.905	6.0
90.92	3.0
90.935	5.0
90.95	1.0
90.965	2.0
90.979	3.0
90.994	3.0
91.009	2.0
91.024	3.0
91.039	0.0
91.054	4.0
91.069	3.0
91.084	6.0
91.099	8.0
91.114	2.0
91.129	3.0
91.144	3.0
91.159	4.0
91.174	2.0
91.188	2.0
91.203	3.0
91.218	2.0
91.233	2.0
91.248	6.0
91.263	3.0
91.278	1.0
91.293	0.0
91.308	7.0
91.323	5.0
91.338	4.0
91.353	3.0
91.368	5.0
91.383	2.0
91.398	7.0
91.412	3.0
91.427	2.0
91.442	3.0
91.457	4.0
91.472	5.0
91.487	3.0
91.502	4.0
91.517	3.0
91.532	2.0
91.547	3.0
91.562	8.0
91.577	2.0
91.592	1.0
91.607	1.0
91.622	0.0
91.637	3.0
91.652	2.0
91.666	0.0
91.681	5.0
91.696	3.0
91.711	1.0
91.726	4.0
91.741	4.0
91.756	5.0
91.771	2.0
91.786	9.0
91.801	3.0
91.816	1.0
91.831	2.0
91.846	5.0
91.861	4.0
91.876	2.0
91.891	2.0
91.906	4.0
91.921	2.0
91.936	3.0
91.951	3.0
91.966	1.0
91.981	3.0
91.995	2.0
92.01	5.0
92.025	4.0
92.04	3.0
92.055	3.0
92.07	4.0
92.085	0.0
92.1	2.0
92.115	2.0
92.13	3.0
92.145	3.0
92.16	2.0
92.175	4.0
92.19	4.0
92.205	0.0
92.22	5.0
92.235	2.0
92.25	0.0
92.265	2.0
92.28	3.0
92.295	3.0
92.31	2.0
92.325	3.0
92.34	4.0
92.355	1.0
92.37	2.0
92.385	3.0
92.4	2.0
92.415	2.0
92.43	1.0
92.445	6.0
92.46	2.0
92.475	2.0
92.49	2.0
92.505	2.0
92.52	0.0
92.535	3.0
92.55	2.0
92.565	7.0
92.58	6.0
92.595	1.0
92.61	2.0
92.625	1.0
92.64	2.0
92.655	2.0
92.67	1.0
92.685	2.0
92.7	0.0
92.715	3.0
92.73	5.0
92.745	2.0
92.76	2.0
92.775	3.0
92.79	4.0
92.805	4.0
92.82	10.0
92.835	3.0
92.85	0.0
92.865	2.0
92.88	5.0
92.895	3.0
92.91	3.0
92.925	4.0
92.94	1.0
92.955	5.0
92.97	5.0
92.985	7.0
93.0	2.0
93.015	3.0
93.03	1.0
93.045	4.0
93.06	3.0
93.075	0.0
93.09	1.0
93.105	3.0
93.12	6.0
93.135	4.0
93.15	4.0
93.165	1.0
93.18	9.0
93.195	4.0
93.21	2.0
93.225	2.0
93.24	1.0
93.255	2.0
93.27	0.0
93.285	5.0
93.3	6.0
93.315	2.0
93.33	0.0
93.345	4.0
93.36	2.0
93.375	4.0
93.39	2.0
93.405	5.0
93.42	1.0
93.435	8.0
93.45	2.0
93.465	4.0
93.48	4.0
93.495	4.0
93.51	1.0
93.525	5.0
93.54	4.0
93.555	2.0
93.57	1.0
93.585	1.0
93.6	3.0
93.615	0.0
93.63	8.0
93.645	4.0
93.66	4.0
93.675	4.0
93.69	5.0
93.705	5.0
93.72	4.0
93.735	1.0
93.75	7.0
93.765	6.0
93.78	2.0
93.795	4.0
93.81	1.0
93.824	1.0
93.839	4.0
93.854	2.0
93.869	6.0
93.884	5.0
93.899	0.0
93.914	5.0
93.929	2.0
93.944	3.0
93.959	3.0
93.974	4.0
93.989	2.0
94.004	4.0
94.019	1.0
94.034	4.0
94.049	3.0
94.064	4.0
94.079	1.0
94.094	0.0
94.108	3.0
94.123	1.0
94.138	4.0
94.153	3.0
94.168	3.0
94.183	4.0
94.198	2.0
94.213	3.0
94.228	2.0
94.243	1.0
94.258	2.0
94.273	3.0
94.288	3.0
94.302	6.0
94.317	7.0
94.332	5.0
94.347	6.0
94.362	5.0
94.377	7.0
94.392	4.0
94.407	3.0
94.422	5.0
94.437	7.0
94.452	6.0
94.466	5.0
94.481	7.0
94.496	5.0
94.511	5.0
94.526	4.0
94.541	1.0
94.556	3.0
94.571	1.0
94.586	4.0
94.601	3.0
94.615	6.0
94.63	4.0
94.645	6.0
94.66	2.0
94.675	5.0
94.69	4.0
94.705	1.0
94.72	1.0
94.735	4.0
94.749	2.0
94.764	1.0
94.779	4.0
94.794	2.0
94.809	4.0
94.824	2.0
94.839	2.0
94.854	3.0
94.868	4.0
94.883	5.0
94.898	7.0
94.913	7.0
94.928	1.0
94.943	3.0
94.958	3.0
94.973	3.0
94.987	1.0
95.002	4.0
95.017	6.0
95.032	6.0
95.047	4.0
95.062	1.0
95.077	8.0
95.092	2.0
95.106	1.0
95.121	6.0
95.136	0.0
95.151	5.0
95.166	5.0
95.181	6.0
95.196	1.0
95.211	4.0
95.226	6.0
95.24	5.0
95.255	4.0
95.27	1.0
95.285	7.0
95.3	1.0
95.315	5.0
95.33	5.0
95.345	5.0
95.359	3.0
95.374	1.0
95.389	3.0
95.404	3.0
95.419	3.0
95.434	4.0
95.449	3.0
95.464	3.0
95.478	4.0
95.493	7.0
95.508	4.0
95.523	0.0
95.538	2.0
95.553	3.0
95.568	3.0
95.583	2.0
95.597	7.0
95.612	0.0
95.627	4.0
95.642	1.0
95.657	3.0
95.672	4.0
95.687	4.0
95.702	1.0
95.717	3.0
95.731	2.0
95.746	0.0
95.761	3.0
95.776	2.0
95.791	5.0
95.806	2.0
95.821	2.0
95.836	10.0
95.851	3.0
95.866	7.0
95.88	4.0
95.895	2.0
95.91	3.0
95.925	5.0
95.94	6.0
95.955	2.0
95.97	2.0
95.985	7.0
96.0	6.0
96.015	5.0
96.029	7.0
96.044	4.0
96.059	7.0
96.074	4.0
96.089	7.0
96.104	2.0
96.119	4.0
96.134	3.0
96.149	0.0
96.164	3.0
96.179	2.0
96.194	0.0
96.208	5.0
96.223	2.0
96.238	6.0
96.253	3.0
96.268	5.0
96.283	5.0
96.298	4.0
96.313	6.0
96.328	2.0
96.343	2.0
96.358	2.0
96.373	5.0
96.388	7.0
96.403	0.0
96.417	3.0
96.432	4.0
96.447	3.0
96.462	3.0
96.477	1.0
96.492	2.0
96.507	4.0
96.522	4.0
96.537	4.0
96.552	4.0
96.567	5.0
96.582	3.0
96.597	3.0
96.612	2.0
96.627	3.0
96.642	0.0
96.656	4.0
96.671	2.0
96.686	1.0
96.701	3.0
96.716	1.0
96.731	3.0
96.746	2.0
96.761	4.0
96.776	1.0
96.791	4.0
96.806	0.0
96.821	1.0
96.836	3.0
96.851	5.0
96.866	2.0
96.881	4.0
96.896	4.0
96.911	4.0
96.926	5.0
96.94	4.0
96.955	5.0
96.97	1.0
96.985	1.0
97.0	2.0
97.015	2.0
97.03	3.0
97.045	3.0
97.06	1.0
97.075	2.0
97.09	6.0
97.105	7.0
97.12	3.0
97.135	4.0
97.15	1.0
97.165	4.0
97.18	1.0
97.195	3.0
97.21	8.0
97.225	4.0
97.239	5.0
97.254	1.0
97.269	1.0
97.284	2.0
97.299	6.0
97.314	6.0
97.329	4.0
97.344	7.0
97.359	7.0
97.374	3.0
97.389	2.0
97.404	2.0
97.419	4.0
97.434	4.0
97.449	3.0
97.464	5.0
97.479	4.0
97.494	4.0
97.509	3.0
97.524	3.0
97.538	5.0
97.553	2.0
97.568	1.0
97.583	2.0
97.598	1.0
97.613	2.0
97.628	3.0
97.643	0.0
97.658	1.0
97.673	2.0
97.688	3.0
97.703	1.0
97.718	5.0
97.733	3.0
97.748	4.0
97.763	2.0
97.778	1.0
97.792	7.0
97.807	2.0
97.822	4.0
97.837	8.0
97.852	8.0
97.867	2.0
97.882	1.0
97.897	6.0
97.912	3.0
97.927	2.0
97.942	3.0
97.957	3.0
97.972	2.0
97.987	0.0
98.001	3.0
98.016	3.0
98.031	2.0
98.046	2.0
98.061	1.0
98.076	2.0
98.091	2.0
98.106	4.0
98.121	2.0
98.136	3.0
98.151	7.0
98.166	0.0
98.181	4.0
98.195	3.0
98.21	4.0
98.225	2.0
98.24	2.0
98.255	5.0
98.27	1.0
98.285	2.0
98.3	5.0
98.315	5.0
98.33	2.0
98.345	9.0
98.359	1.0
98.374	5.0
98.389	3.0
98.404	2.0
98.419	4.0
98.434	4.0
98.449	3.0
98.464	1.0
98.479	1.0
98.494	1.0
98.508	3.0
98.523	2.0
98.538	1.0
98.553	6.0
98.568	3.0
98.583	6.0
98.598	5.0
98.613	1.0
98.628	2.0
98.642	1.0
98.657	2.0
98.672	2.0
98.687	1.0
98.702	1.0
98.717	4.0
98.732	3.0
98.747	2.0
98.762	6.0
98.776	5.0
98.791	5.0
98.806	3.0
98.821	4.0
98.836	2.0
98.851	1.0
98.866	3.0
98.881	0.0
98.896	4.0
98.91	3.0
98.925	1.0
98.94	2.0
98.955	1.0
98.97	1.0
98.985	2.0
99.0	5.0
99.015	1.0
99.029	2.0
99.044	9.0
99.059	1.0
99.074	8.0
99.089	4.0
99.104	0.0
99.119	2.0
99.133	1.0
99.148	3.0
99.163	2.0
99.178	3.0
99.193	6.0
99.208	4.0
99.223	2.0
99.238	1.0
99.252	2.0
99.267	3.0
99.282	3.0
99.297	3.0
99.312	3.0
99.327	4.0
99.342	4.0
99.356	4.0
99.371	7.0
99.386	2.0
99.401	5.0
99.416	4.0
99.431	4.0
99.446	4.0
99.461	3.0
99.475	4.0
99.49	4.0
99.505	7.0
99.52	8.0
99.535	1.0
99.55	2.0
99.565	4.0
99.579	3.0
99.594	5.0
99.609	4.0
99.624	5.0
99.639	3.0
99.654	5.0
99.669	4.0
99.683	4.0
99.698	3.0
99.713	6.0
99.728	4.0
99.743	6.0
99.758	1.0
99.772	1.0
99.787	4.0
99.802	1.0
99.817	4.0
99.832	3.0
99.847	3.0
99.862	2.0
99.876	2.0
99.891	4.0
99.906	4.0
99.921	2.0
99.936	0.0
99.951	2.0
99.966	6.0
99.98	4.0
99.995	3.0
100.01	0.0
100.025	2.0
100.04	3.0
100.055	4.0
100.069	4.0
100.084	5.0
100.099	2.0
100.114	4.0
100.129	7.0
100.144	3.0
100.159	4.0
100.173	0.0
100.188	3.0
100.203	2.0
100.218	2.0
100.233	6.0
100.248	7.0
100.262	1.0
100.277	1.0
100.292	2.0
100.307	6.0
100.322	3.0
100.337	2.0
100.351	5.0
100.366	4.0
100.381	2.0
100.396	7.0
100.411	4.0
100.426	0.0
100.441	5.0
100.455	3.0
100.47	5.0
100.485	2.0
100.5	2.0
100.515	1.0
100.53	2.0
100.544	2.0
100.559	2.0
100.574	2.0
100.589	2.0
100.604	3.0
100.619	1.0
100.633	8.0
100.648	5.0
100.663	3.0
100.678	2.0
100.693	2.0
100.708	1.0
100.722	3.0
100.737	5.0
100.752	2.0
100.767	3.0
100.782	1.0
100.796	4.0
100.811	2.0
100.826	0.0
100.841	4.0
100.856	0.0
100.871	3.0
100.885	4.0
100.9	4.0
100.915	4.0
100.93	2.0
100.945	1.0
100.96	4.0
100.974	6.0
100.989	3.0
101.004	1.0
101.019	3.0
101.034	5.0
101.048	4.0
101.063	4.0
101.078	2.0
101.093	6.0
101.108	2.0
101.123	1.0
101.137	0.0
101.152	3.0
101.167	6.0
101.182	1.0
101.197	5.0
101.211	6.0
101.226	4.0
101.241	4.0
101.256	2.0
101.271	6.0
101.285	5.0
101.3	3.0
101.315	1.0
101.33	5.0
101.345	3.0
101.359	5.0
101.374	0.0
101.389	2.0
101.404	4.0
101.419	2.0
101.433	6.0
101.448	2.0
101.463	7.0
101.478	5.0
101.493	5.0
101.507	6.0
101.522	3.0
101.537	1.0
101.552	1.0
101.567	3.0
101.581	2.0
101.596	1.0
101.611	2.0
101.626	4.0
101.64	4.0
101.655	4.0
101.67	1.0
101.685	4.0
101.7	2.0
101.714	4.0
101.729	4.0
101.744	4.0
101.759	2.0
101.773	1.0
101.788	3.0
101.803	4.0
101.818	4.0
101.833	6.0
101.847	3.0
101.862	2.0
101.877	6.0
101.892	2.0
101.906	4.0
101.921	4.0
101.936	1.0
101.951	3.0
101.965	2.0
101.98	2.0
101.995	3.0
102.01	1.0
102.025	4.0
102.039	2.0
102.054	6.0
102.069	4.0
102.084	4.0
102.098	4.0
102.113	5.0
102.128	4.0
102.143	2.0
102.157	2.0
102.172	6.0
102.187	2.0
102.202	6.0
102.216	1.0
102.231	0.0
102.246	2.0
102.261	5.0
102.275	4.0
102.29	4.0
102.305	4.0
102.32	5.0
102.334	4.0
102.349	2.0
102.364	7.0
102.378	5.0
102.393	3.0
102.408	1.0
102.423	5.0
102.437	4.0
102.452	2.0
102.467	0.0
102.482	5.0
102.496	2.0
102.511	1.0
102.526	3.0
102.541	4.0
102.555	1.0
102.57	5.0
102.585	2.0
102.6	3.0
102.614	2.0
102.629	2.0
102.644	3.0
102.659	6.0
102.673	1.0
102.688	4.0
102.703	8.0
102.717	0.0
102.732	7.0
102.747	5.0
102.762	3.0
102.776	5.0
102.791	2.0
102.806	0.0
102.821	3.0
102.835	2.0
102.85	3.0
102.865	7.0
102.88	5.0
102.894	7.0
102.909	4.0
102.924	5.0
102.938	4.0
102.953	4.0
102.968	5.0
102.983	3.0
102.997	3.0
103.012	6.0
103.027	2.0
103.042	3.0
103.056	5.0
103.071	6.0
103.086	2.0
103.101	3.0
103.115	0.0
103.13	1.0
103.145	0.0
103.16	4.0
103.174	3.0
103.189	5.0
103.204	5.0
103.219	3.0
103.233	5.0
103.248	1.0
103.263	4.0
103.278	3.0
103.292	4.0
103.307	4.0
103.322	1.0
103.337	2.0
103.351	4.0
103.366	2.0
103.381	3.0
103.396	2.0
103.41	2.0
103.425	3.0
103.44	1.0
103.455	3.0
103.469	0.0
103.484	2.0
103.499	4.0
103.514	2.0
103.529	2.0
103.543	2.0
103.558	2.0
103.573	3.0
103.588	2.0
103.602	1.0
103.617	2.0
103.632	7.0
103.647	3.0
103.661	4.0
103.676	5.0
103.691	0.0
103.706	2.0
103.721	2.0
103.735	3.0
103.75	1.0
103.765	6.0
103.78	4.0
103.795	5.0
103.809	4.0
103.824	2.0
103.839	5.0
103.854	4.0
103.869	1.0
103.883	4.0
103.898	2.0
103.913	6.0
103.928	4.0
103.943	6.0
103.957	2.0
103.972	1.0
103.987	3.0
104.002	1.0
104.017	2.0
104.031	0.0
104.046	0.0
104.061	4.0
104.076	1.0
104.091	3.0
104.106	1.0
104.12	2.0
104.135	0.0
104.15	1.0
104.165	3.0
104.18	4.0
104.195	4.0
104.209	4.0
104.224	1.0
104.239	1.0
104.254	1.0
104.269	3.0
104.284	1.0
104.299	4.0
104.313	0.0
104.328	6.0
104.343	2.0
104.358	2.0
104.373	10.0
104.388	1.0
104.403	3.0
104.417	4.0
104.432	3.0
104.447	2.0
104.462	0.0
104.477	3.0
104.492	3.0
104.507	2.0
104.522	1.0
104.536	3.0
104.551	6.0
104.566	3.0
104.581	5.0
104.596	5.0
104.611	5.0
104.626	0.0
104.641	6.0
104.656	10.0
104.67	6.0
104.685	3.0
104.7	9.0
104.715	3.0
104.73	5.0
104.745	3.0
104.76	1.0
104.775	3.0
104.79	4.0
104.804	2.0
104.819	7.0
104.834	2.0
104.849	4.0
104.864	4.0
104.879	6.0
104.894	1.0
104.909	4.0
104.924	3.0
104.939	6.0
104.954	4.0
104.968	2.0
104.983	1.0
104.998	2.0
105.013	3.0
105.028	1.0
105.043	1.0
105.058	1.0
105.073	2.0
105.088	1.0
105.103	0.0
105.118	3.0
105.133	1.0
105.147	7.0
105.162	3.0
105.177	4.0
105.192	3.0
105.207	5.0
105.222	0.0
105.237	2.0
105.252	3.0
105.267	2.0
105.282	5.0
105.297	3.0
105.312	2.0
105.327	3.0
105.342	5.0
105.356	4.0
105.371	5.0
105.386	2.0
105.401	1.0
105.416	3.0
105.431	3.0
105.446	4.0
105.461	3.0
105.476	4.0
105.491	2.0
105.506	4.0
105.521	3.0
105.536	3.0
105.551	2.0
105.566	3.0
105.581	4.0
105.595	2.0
105.61	1.0
105.625	3.0
105.64	4.0
105.655	3.0
105.67	3.0
105.685	5.0
105.7	10.0
105.715	5.0
105.73	2.0
105.745	0.0
105.76	3.0
105.775	2.0
105.79	4.0
105.805	3.0
105.82	5.0
105.835	5.0
105.85	2.0
105.864	5.0
105.879	3.0
105.894	5.0
105.909	2.0
105.924	4.0
105.939	2.0
105.954	3.0
105.969	3.0
105.984	2.0
105.999	2.0
106.014	6.0
106.029	2.0
106.044	3.0
106.059	3.0
106.074	2.0
106.089	4.0
106.104	2.0
106.119	3.0
106.134	2.0
106.148	4.0
106.163	1.0
106.178	0.0
106.193	2.0
106.208	4.0
106.223	5.0
106.238	0.0
106.253	2.0
106.268	1.0
106.283	1.0
106.298	3.0
106.313	1.0
106.328	6.0
106.343	4.0
106.358	3.0
106.373	1.0
106.388	4.0
106.403	9.0
106.418	5.0
106.432	3.0
106.447	2.0
106.462	3.0
106.477	2.0
106.492	3.0
106.507	1.0
106.522	3.0
106.537	2.0
106.552	3.0
106.567	1.0
106.582	1.0
106.597	3.0
106.612	1.0
106.627	1.0
106.642	2.0
106.657	2.0
106.672	0.0
106.687	2.0
106.701	4.0
106.716	3.0
106.731	6.0
106.746	3.0
106.761	3.0
106.776	0.0
106.791	3.0
106.806	2.0
106.821	3.0
106.836	1.0
106.851	3.0
106.866	5.0
106.881	1.0
106.896	2.0
106.911	4.0
106.926	2.0
106.941	2.0
106.955	5.0
106.97	4.0
106.985	3.0
107.0	3.0
107.015	2.0
107.03	4.0
107.045	3.0
107.06	1.0
107.075	3.0
107.09	3.0
107.105	3.0
107.12	9.0
107.135	4.0
107.15	3.0
107.165	8.0
107.18	5.0
107.194	8.0
107.209	7.0
107.224	3.0
107.239	4.0
107.254	6.0
107.269	3.0
107.284	4.0
107.299	4.0
107.314	3.0
107.329	3.0
107.344	9.0
107.359	3.0
107.374	3.0
107.389	4.0
107.404	2.0
107.418	1.0
107.433	3.0
107.448	3.0
107.463	4.0
107.478	1.0
107.493	3.0
107.508	5.0
107.523	4.0
107.538	2.0
107.553	5.0
107.568	3.0
107.583	3.0
107.598	4.0
107.613	6.0
107.627	3.0
107.642	3.0
107.657	1.0
107.672	2.0
107.687	2.0
107.702	4.0
107.717	6.0
107.732	5.0
107.747	3.0
107.762	2.0
107.777	7.0
107.792	3.0
107.807	2.0
107.821	2.0
107.836	2.0
107.851	1.0
107.866	5.0
107.881	5.0
107.896	3.0
107.911	3.0
107.926	7.0
107.941	4.0
107.956	2.0
107.971	5.0
107.986	4.0
108.0	5.0
108.015	5.0
108.03	2.0
108.045	5.0
108.06	8.0
108.075	6.0
108.09	3.0
108.105	6.0
108.12	4.0
108.135	1.0
108.15	6.0
108.164	7.0
108.179	9.0
108.194	5.0
108.209	6.0
108.224	3.0
108.239	3.0
108.254	2.0
108.269	4.0
108.284	1.0
108.299	2.0
108.313	3.0
108.328	3.0
108.343	3.0
108.358	5.0
108.373	3.0
108.388	2.0
108.403	2.0
108.418	2.0
108.433	3.0
108.448	4.0
108.462	1.0
108.477	1.0
108.492	3.0
108.507	2.0
108.522	6.0
108.537	4.0
108.552	2.0
108.567	4.0
108.582	2.0
108.597	2.0
108.611	1.0
108.626	4.0
108.641	2.0
108.656	1.0
108.671	7.0
108.686	3.0
108.701	1.0
108.716	2.0
108.731	5.0
108.745	4.0
108.76	6.0
108.775	2.0
108.79	2.0
108.805	2.0
108.82	2.0
108.835	3.0
108.85	3.0
108.865	7.0
108.879	6.0
108.894	1.0
108.909	3.0
108.924	2.0
108.939	3.0
108.954	4.0
108.969	6.0
108.984	3.0
108.999	5.0
109.013	4.0
109.028	6.0
109.043	9.0
109.058	3.0
109.073	4.0
109.088	4.0
109.103	2.0
109.118	7.0
109.133	4.0
109.147	0.0
109.162	3.0
109.177	0.0
109.192	4.0
109.207	3.0
109.222	2.0
109.237	5.0
109.252	4.0
109.267	3.0
109.281	5.0
109.296	1.0
109.311	3.0
109.326	2.0
109.341	0.0
109.356	2.0
109.371	2.0
109.386	3.0
109.4	2.0
109.415	3.0
109.43	3.0
109.445	3.0
109.46	2.0
109.475	2.0
109.49	4.0
109.505	4.0
109.52	1.0
109.534	4.0
109.549	2.0
109.564	4.0
109.579	1.0
109.594	7.0
109.609	5.0
109.624	4.0
109.639	2.0
109.653	1.0
109.668	1.0
109.683	3.0
109.698	3.0
109.713	2.0
109.728	1.0
109.743	3.0
109.758	3.0
109.773	2.0
109.787	5.0
109.802	5.0
109.817	6.0
109.832	2.0
109.847	0.0
109.862	4.0
109.877	1.0
109.892	5.0
109.907	0.0
109.921	4.0
109.936	2.0
109.951	4.0
109.966	3.0
109.981	3.0
109.996	3.0
110.011	3.0
110.026	3.0
110.04	4.0
110.055	6.0
110.07	3.0
110.085	4.0
110.1	2.0
110.115	6.0
110.13	6.0
110.145	4.0
110.16	3.0
110.174	4.0
110.189	1.0
110.204	1.0
110.219	1.0
110.234	1.0
110.249	7.0
110.264	4.0
110.279	3.0
110.294	5.0
110.308	4.0
110.323	2.0
110.338	5.0
110.353	6.0
110.368	5.0
110.383	3.0
110.398	5.0
110.413	6.0
110.428	2.0
110.442	2.0
110.457	2.0
110.472	4.0
110.487	4.0
110.502	4.0
110.517	6.0
110.532	4.0
110.547	4.0
110.561	8.0
110.576	2.0
110.591	2.0
110.606	0.0
110.621	4.0
110.636	2.0
110.651	3.0
110.666	7.0
110.681	7.0
110.695	4.0
110.71	0.0
110.725	4.0
110.74	1.0
110.755	2.0
110.77	7.0
110.785	3.0
110.8	2.0
110.815	2.0
110.829	2.0
110.844	3.0
110.859	4.0
110.874	2.0
110.889	2.0
110.904	1.0
110.919	4.0
110.934	5.0
110.948	0.0
110.963	3.0
110.978	4.0
110.993	4.0
111.008	3.0
111.023	2.0
111.038	3.0
111.053	3.0
111.067	2.0
111.082	3.0
111.097	4.0
111.112	5.0
111.127	3.0
111.142	2.0
111.157	4.0
111.172	3.0
111.186	4.0
111.201	4.0
111.216	4.0
111.231	2.0
111.246	3.0
111.261	4.0
111.276	5.0
111.291	4.0
111.305	4.0
111.32	3.0
111.335	3.0
111.35	2.0
111.365	3.0
111.38	2.0
111.395	4.0
111.41	3.0
111.424	4.0
111.439	1.0
111.454	2.0
111.469	4.0
111.484	2.0
111.499	5.0
111.514	7.0
111.528	3.0
111.543	3.0
111.558	9.0
111.573	5.0
111.588	5.0
111.603	5.0
111.618	8.0
111.633	7.0
111.647	4.0
111.662	6.0
111.677	2.0
111.692	4.0
111.707	6.0
111.722	2.0
111.737	4.0
111.751	5.0
111.766	1.0
111.781	1.0
111.796	5.0
111.811	5.0
111.826	4.0
111.84	3.0
111.855	0.0
111.87	2.0
111.885	2.0
111.9	4.0
111.915	5.0
111.93	1.0
111.944	1.0
111.959	5.0
111.974	2.0
111.989	4.0
112.004	2.0
112.019	5.0
112.033	2.0
112.048	1.0
112.063	7.0
112.078	4.0
112.093	3.0
112.108	4.0
112.123	5.0
112.137	2.0
112.152	1.0
112.167	1.0
112.182	2.0
112.197	4.0
112.212	2.0
112.226	3.0
112.241	1.0
112.256	0.0
112.271	2.0
112.286	5.0
112.301	2.0
112.315	1.0
112.33	4.0
112.345	4.0
112.36	1.0
112.375	5.0
112.389	2.0
112.404	3.0
112.419	4.0
112.434	4.0
112.449	2.0
112.464	1.0
112.478	1.0
112.493	2.0
112.508	5.0
112.523	4.0
112.538	4.0
112.553	2.0
112.567	1.0
112.582	0.0
112.597	2.0
112.612	3.0
112.627	4.0
112.642	5.0
112.656	4.0
112.671	1.0
112.686	3.0
112.701	3.0
112.716	6.0
112.73	0.0
112.745	5.0
112.76	2.0
112.775	6.0
112.79	5.0
112.805	2.0
112.819	2.0
112.834	3.0
112.849	3.0
112.864	2.0
112.879	4.0
112.894	4.0
112.908	1.0
112.923	4.0
112.938	8.0
112.953	5.0
112.968	4.0
112.983	3.0
112.997	1.0
113.012	4.0
113.027	4.0
113.042	2.0
113.057	3.0
113.072	3.0
113.086	4.0
113.101	6.0
113.116	2.0
113.131	6.0
113.146	1.0
113.161	1.0
113.175	6.0
113.19	3.0
113.205	3.0
113.22	2.0
113.235	0.0
113.25	4.0
113.265	2.0
113.279	3.0
113.294	4.0
113.309	2.0
113.324	4.0
113.339	3.0
113.354	3.0
113.368	4.0
113.383	3.0
113.398	2.0
113.413	1.0
113.428	3.0
113.443	1.0
113.458	2.0
113.472	4.0
113.487	6.0
113.502	5.0
113.517	3.0
113.532	5.0
113.547	2.0
113.562	3.0
113.576	6.0
113.591	4.0
113.606	3.0
113.621	2.0
113.636	2.0
113.651	2.0
113.666	6.0
113.681	5.0
113.695	6.0
113.71	3.0
113.725	4.0
113.74	2.0
113.755	3.0
113.77	2.0
113.785	1.0
113.8	9.0
113.814	5.0
113.829	2.0
113.844	3.0
113.859	2.0
113.874	8.0
113.889	3.0
113.904	3.0
113.919	2.0
113.934	3.0
113.949	2.0
113.963	3.0
113.978	3.0
113.993	1.0
114.008	3.0
114.023	7.0
114.038	3.0
114.053	2.0
114.068	4.0
114.083	1.0
114.098	2.0
114.113	2.0
114.127	2.0
114.142	5.0
114.157	1.0
114.172	3.0
114.187	3.0
114.202	5.0
114.217	5.0
114.232	2.0
114.247	2.0
114.262	5.0
114.277	3.0
114.292	4.0
114.307	2.0
114.322	5.0
114.337	3.0
114.351	5.0
114.366	2.0
114.381	4.0
114.396	2.0
114.411	1.0
114.426	3.0
114.441	7.0
114.456	7.0
114.471	2.0
114.486	6.0
114.501	3.0
114.516	7.0
114.531	2.0
114.546	4.0
114.561	2.0
114.576	6.0
114.591	2.0
114.606	2.0
114.621	2.0
114.636	1.0
114.65	4.0
114.665	5.0
114.68	4.0
114.695	5.0
114.71	2.0
114.725	9.0
114.74	1.0
114.755	4.0
114.77	6.0
114.785	3.0
114.8	4.0
114.815	5.0
114.83	3.0
114.845	1.0
114.86	0.0
114.875	0.0
114.89	5.0
114.905	2.0
114.92	3.0
114.935	3.0
114.95	8.0
114.965	5.0
114.98	3.0
114.995	1.0
115.009	1.0
115.024	3.0
115.039	3.0
115.054	3.0
115.069	1.0
115.084	2.0
115.099	3.0
115.114	5.0
115.129	4.0
115.144	3.0
115.159	3.0
115.174	7.0
115.189	3.0
115.204	5.0
115.219	3.0
115.234	4.0
115.249	4.0
115.264	5.0
115.279	0.0
115.294	3.0
115.309	7.0
115.323	2.0
115.338	5.0
115.353	6.0
115.368	4.0
115.383	3.0
115.398	1.0
115.413	1.0
115.428	4.0
115.443	2.0
115.458	3.0
115.473	1.0
115.488	4.0
115.503	3.0
115.518	5.0
115.533	7.0
115.548	4.0
115.562	5.0
115.577	8.0
115.592	1.0
115.607	2.0
115.622	3.0
115.637	2.0
115.652	3.0
115.667	6.0
115.682	1.0
115.697	2.0
115.712	2.0
115.727	2.0
115.741	7.0
115.756	5.0
115.771	1.0
115.786	7.0
115.801	3.0
115.816	3.0
115.831	2.0
115.846	3.0
115.861	1.0
115.875	1.0
115.89	3.0
115.905	2.0
115.92	3.0
115.935	3.0
115.95	4.0
115.965	6.0
115.98	1.0
115.995	5.0
116.009	2.0
116.024	2.0
116.039	4.0
116.054	9.0
116.069	5.0
116.084	0.0
116.099	2.0
116.113	3.0
116.128	5.0
116.143	2.0
116.158	4.0
116.173	3.0
116.188	6.0
116.202	1.0
116.217	3.0
116.232	2.0
116.247	5.0
116.262	6.0
116.277	4.0
116.291	1.0
116.306	4.0
116.321	3.0
116.336	2.0
116.351	1.0
116.366	7.0
116.38	2.0
116.395	4.0
116.41	6.0
116.425	2.0
116.44	2.0
116.454	2.0
116.469	5.0
116.484	4.0
116.499	2.0
116.514	5.0
116.528	2.0
116.543	6.0
116.558	4.0
116.573	3.0
116.588	5.0
116.602	3.0
116.617	1.0
116.632	5.0
116.647	5.0
116.662	5.0
116.676	2.0
116.691	0.0
116.706	2.0
116.721	3.0
116.735	1.0
116.75	5.0
116.765	6.0
116.78	5.0
116.795	4.0
116.809	1.0
116.824	1.0
116.839	2.0
116.854	2.0
116.868	5.0
116.883	4.0
116.898	2.0
116.913	2.0
116.927	2.0
116.942	2.0
116.957	5.0
116.972	4.0
116.986	4.0
117.001	4.0
117.016	3.0
117.031	3.0
117.045	3.0
117.06	4.0
117.075	3.0
117.09	1.0
117.104	4.0
117.119	3.0
117.134	3.0
117.149	2.0
117.163	0.0
117.178	3.0
117.193	4.0
117.208	3.0
117.222	4.0
117.237	8.0
117.252	3.0
117.267	4.0
117.281	7.0
117.296	3.0
117.311	5.0
117.325	4.0
117.34	3.0
117.355	3.0
117.37	4.0
117.384	5.0
117.399	6.0
117.414	4.0
117.429	3.0
117.443	3.0
117.458	2.0
117.473	4.0
117.487	2.0
117.502	1.0
117.517	2.0
117.532	3.0
117.546	6.0
117.561	4.0
117.576	3.0
117.59	3.0
117.605	2.0
117.62	5.0
117.635	4.0
117.649	4.0
117.664	8.0
117.679	4.0
117.693	4.0
117.708	2.0
117.723	3.0
117.738	4.0
117.752	3.0
117.767	5.0
117.782	0.0
117.796	1.0
117.811	3.0
117.826	3.0
117.841	6.0
117.855	3.0
117.87	3.0
117.885	1.0
117.899	5.0
117.914	2.0
117.929	4.0
117.944	2.0
117.958	3.0
117.973	3.0
117.988	4.0
118.002	4.0
118.017	6.0
118.032	5.0
118.047	5.0
118.062	6.0
118.077	4.0
118.092	4.0
118.107	4.0
118.121	8.0
118.136	3.0
118.151	2.0
118.166	2.0
118.181	3.0
118.196	4.0
118.211	2.0
118.225	4.0
118.24	2.0
118.255	4.0
118.27	5.0
118.285	4.0
118.3	5.0
118.315	6.0
118.33	4.0
118.344	4.0
118.359	2.0
118.374	4.0
118.389	6.0
118.404	5.0
118.419	5.0
118.434	6.0
118.449	2.0
118.463	1.0
118.478	6.0
118.493	4.0
118.508	3.0
118.523	6.0
118.538	2.0
118.553	0.0
118.567	7.0
118.582	5.0
118.597	0.0
118.612	4.0
118.627	4.0
118.642	1.0
118.657	3.0
118.672	6.0
118.686	3.0
118.701	7.0
118.716	1.0
118.731	3.0
118.746	1.0
118.761	4.0
118.776	3.0
118.791	3.0
118.805	3.0
118.82	4.0
118.835	3.0
118.85	2.0
118.865	2.0
118.88	4.0
118.895	3.0
118.909	4.0
118.924	6.0
118.939	5.0
118.954	5.0
118.969	5.0
118.984	4.0
118.999	1.0
119.014	3.0
119.028	3.0
119.043	2.0
119.058	7.0
119.073	6.0
119.088	4.0
119.103	4.0
119.118	1.0
119.133	3.0
119.147	4.0
119.162	2.0
119.177	1.0
119.192	3.0
119.207	4.0
119.222	6.0
119.237	5.0
119.251	6.0
119.266	2.0
119.281	3.0
119.296	1.0
119.311	4.0
119.326	2.0
119.341	3.0
119.356	1.0
119.37	3.0
119.385	3.0
119.4	2.0
119.415	0.0
119.43	5.0
119.445	3.0
119.46	2.0
119.475	2.0
119.489	6.0
119.504	3.0
119.519	6.0
119.534	2.0
119.549	4.0
119.564	4.0
119.579	4.0
119.593	3.0
119.608	2.0
119.623	1.0
119.638	0.0
119.653	2.0
119.668	1.0
119.683	0.0
119.698	2.0
119.712	4.0
119.727	1.0
119.742	2.0
119.757	2.0
119.772	3.0
119.787	2.0
119.802	4.0
119.817	5.0
119.831	2.0
119.846	3.0
119.861	4.0
119.876	6.0
119.891	1.0
119.906	4.0
119.921	2.0
119.935	4.0
119.95	3.0
119.965	3.0
119.98	6.0
119.995	6.0
120.01	1.0
120.025	3.0
120.04	1.0
120.054	5.0
120.069	1.0
120.084	2.0
120.099	2.0
120.114	3.0
120.129	4.0
120.144	2.0
120.159	3.0
120.173	2.0
120.188	1.0
120.203	2.0
120.218	0.0
120.233	0.0
120.248	1.0
120.263	0.0
120.277	2.0
120.292	0.0
120.307	1.0
120.322	0.0
120.337	0.0
120.352	0.0
120.367	1.0
120.382	0.0
120.396	0.0
120.411	1.0
120.426	0.0
120.441	0.0
120.456	0.0
120.471	0.0
120.486	1.0
120.501	0.0
120.515	0.0
120.53	0.0
120.545	0.0
120.56	0.0
120.575	0.0
120.59	0.0
120.605	0.0
120.619	0.0
120.634	0.0
120.649	1.0
120.664	0.0
120.679	0.0
120.694	0.0
120.709	0.0
120.724	0.0
120.738	0.0
120.753	0.0
120.768	0.0
120.783	0.0
120.798	0.0
120.813	0.0
120.828	0.0
120.843	0.0
120.857	0.0
120.872	0.0
120.887	1.0
120.902	0.0
120.917	0.0
120.932	1.0
120.947	1.0
120.961	0.0
120.976	0.0
