-1.217	0.0
-1.202	0.0
-1.187	1.0
-1.172	0.0
-1.157	0.0
-1.142	0.0
-1.128	0.0
-1.113	0.0
-1.098	0.0
-1.083	0.0
-1.068	0.0
-1.054	0.0
-1.039	0.0
-1.024	0.0
-1.009	0.0
-0.994	0.0
-0.979	0.0
-0.965	0.0
-0.95	0.0
-0.935	0.0
-0.92	0.0
-0.905	0.0
-0.891	0.0
-0.876	0.0
-0.861	0.0
-0.846	0.0
-0.831	0.0
-0.816	0.0
-0.802	0.0
-0.787	0.0
-0.772	0.0
-0.757	0.0
-0.742	0.0
-0.728	0.0
-0.713	0.0
-0.698	0.0
-0.683	0.0
-0.668	0.0
-0.653	0.0
-0.639	0.0
-0.624	0.0
-0.609	0.0
-0.594	0.0
-0.579	0.0
-0.565	0.0
-0.55	0.0
-0.535	0.0
-0.52	0.0
-0.505	0.0
-0.49	0.0
-0.476	0.0
-0.461	0.0
-0.446	0.0
-0.431	0.0
-0.416	0.0
-0.401	0.0
-0.387	0.0
-0.372	0.0
-0.357	0.0
-0.342	0.0
-0.327	0.0
-0.313	0.0
-0.298	0.0
-0.283	0.0
-0.268	0.0
-0.253	0.0
-0.238	0.0
-0.224	0.0
-0.209	0.0
-0.194	0.0
-0.179	0.0
-0.164	0.0
-0.15	0.0
-0.135	0.0
-0.12	0.0
-0.105	0.0
-0.09	0.0
-0.075	0.0
-0.061	0.0
-0.046	0.0
-0.031	0.0
-0.016	0.0
-0.001	1.0
0.013	0.0
0.028	0.0
0.043	0.0
0.058	0.0
0.073	0.0
0.088	0.0
0.102	0.0
0.117	0.0
0.132	0.0
0.147	0.0
0.162	0.0
0.176	0.0
0.191	0.0
0.206	0.0
0.221	0.0
0.236	0.0
0.251	0.0
0.265	0.0
0.28	0.0
0.295	0.0
0.31	0.0
0.325	0.0
0.339	0.0
0.354	0.0
0.369	0.0
0.384	0.0
0.399	0.0
0.414	0.0
0.428	0.0
0.443	0.0
0.458	1.0
0.473	0.0
0.488	0.0
0.502	0.0
0.517	0.0
0.532	0.0
0.547	0.0
0.562	0.0
0.577	0.0
0.591	0.0
0.606	0.0
0.621	0.0
0.636	0.0
0.651	0.0
0.665	0.0
0.68	0.0
0.695	0.0
0.71	0.0
0.725	0.0
0.74	0.0
0.754	0.0
0.769	0.0
0.784	0.0
0.799	0.0
0.814	0.0
0.828	0.0
0.843	0.0
0.858	0.0
0.873	0.0
0.888	0.0
0.903	0.0
0.917	0.0
0.932	0.0
0.947	0.0
0.962	0.0
0.977	0.0
0.991	0.0
1.006	0.0
1.021	0.0
1.036	0.0
1.051	0.0
1.065	0.0
1.08	0.0
1.095	0.0
1.11	0.0
1.125	0.0
1.14	0.0
1.154	1.0
1.169	0.0
1.184	0.0
1.199	0.0
1.214	0.0
1.228	0.0
1.243	0.0
1.258	0.0
1.273	1.0
1.288	0.0
1.302	0.0
1.317	1.0
1.332	0.0
1.347	0.0
1.362	1.0
1.376	0.0
1.391	0.0
1.406	0.0
1.421	0.0
1.436	0.0
1.45	0.0
1.465	0.0
1.48	0.0
1.495	0.0
1.51	0.0
1.524	0.0
1.539	1.0
1.554	0.0
1.569	0.0
1.584	1.0
1.598	0.0
1.613	0.0
1.628	0.0
1.643	0.0
1.658	0.0
1.672	0.0
1.687	0.0
1.702	0.0
1.717	0.0
1.732	0.0
1.746	0.0
1.761	0.0
1.776	0.0
1.791	1.0
1.806	0.0
1.82	0.0
1.835	0.0
1.85	0.0
1.865	0.0
1.88	0.0
1.894	0.0
1.909	0.0
1.924	0.0
1.939	1.0
1.954	0.0
1.968	0.0
1.983	0.0
1.998	0.0
2.013	1.0
2.028	0.0
2.042	0.0
2.057	0.0
2.072	1.0
2.087	0.0
2.101	1.0
2.116	0.0
2.131	3.0
2.146	1.0
2.161	0.0
2.175	1.0
2.19	1.0
2.205	0.0
2.22	0.0
2.235	0.0
2.249	1.0
2.264	0.0
2.279	0.0
2.294	1.0
2.308	1.0
2.323	2.0
2.338	0.0
2.353	2.0
2.368	0.0
2.382	0.0
2.397	2.0
2.412	1.0
2.427	1.0
2.442	1.0
2.456	5.0
2.471	0.0
2.486	3.0
2.501	2.0
2.515	1.0
2.53	2.0
2.545	1.0
2.56	2.0
2.575	3.0
2.589	4.0
2.604	3.0
2.619	5.0
2.634	5.0
2.649	4.0
2.663	3.0
2.678	3.0
2.693	3.0
2.708	0.0
2.722	6.0
2.737	1.0
2.752	3.0
2.767	6.0
2.782	5.0
2.796	7.0
2.811	5.0
2.826	3.0
2.841	1.0
2.856	1.0
2.87	3.0
2.885	4.0
2.9	2.0
2.915	3.0
2.93	0.0
2.944	5.0
2.959	3.0
2.974	3.0
2.989	4.0
3.004	1.0
3.018	5.0
3.033	4.0
3.048	4.0
3.063	7.0
3.078	4.0
3.092	3.0
3.107	3.0
3.122	7.0
3.137	5.0
3.152	5.0
3.166	3.0
3.181	7.0
3.196	6.0
3.211	7.0
3.226	3.0
3.24	6.0
3.255	6.0
3.27	3.0
3.285	2.0
3.3	5.0
3.315	1.0
3.329	5.0
3.344	1.0
3.359	6.0
3.374	7.0
3.389	6.0
3.403	6.0
3.418	2.0
3.433	3.0
3.448	3.0
3.463	6.0
3.478	5.0
3.492	7.0
3.507	7.0
3.522	1.0
3.537	4.0
3.552	7.0
3.567	1.0
3.581	6.0
3.596	3.0
3.611	4.0
3.626	8.0
3.641	6.0
3.656	5.0
3.671	8.0
3.685	9.0
3.7	4.0
3.715	5.0
3.73	10.0
3.745	6.0
3.76	9.0
3.775	2.0
3.789	7.0
3.804	6.0
3.819	5.0
3.834	7.0
3.849	7.0
3.864	6.0
3.879	2.0
3.894	10.0
3.908	5.0
3.923	5.0
3.938	3.0
3.953	8.0
3.968	8.0
3.983	3.0
3.998	7.0
4.013	6.0
4.027	9.0
4.042	5.0
4.057	7.0
4.072	10.0
4.087	4.0
4.102	7.0
4.117	10.0
4.132	9.0
4.147	3.0
4.162	6.0
4.176	3.0
4.191	10.0
4.206	8.0
4.221	9.0
4.236	7.0
4.251	8.0
4.266	8.0
4.281	10.0
4.296	8.0
4.311	3.0
4.326	10.0
4.341	9.0
4.356	7.0
4.37	8.0
4.385	4.0
4.4	11.0
4.415	9.0
4.43	7.0
4.445	3.0
4.46	7.0
4.475	7.0
4.49	8.0
4.505	9.0
4.52	7.0
4.535	5.0
4.55	8.0
4.565	5.0
4.58	10.0
4.595	6.0
4.61	8.0
4.625	9.0
4.639	10.0
4.654	8.0
4.669	11.0
4.684	10.0
4.699	9.0
4.714	9.0
4.729	6.0
4.744	6.0
4.759	10.0
4.774	10.0
4.789	9.0
4.804	5.0
4.819	11.0
4.834	10.0
4.849	10.0
4.864	5.0
4.879	4.0
4.894	7.0
4.909	9.0
4.924	10.0
4.939	4.0
4.954	7.0
4.969	7.0
4.984	6.0
4.999	6.0
5.014	5.0
5.029	5.0
5.044	13.0
5.059	12.0
5.074	2.0
5.089	7.0
5.104	4.0
5.119	10.0
5.134	4.0
5.149	7.0
5.164	5.0
5.179	10.0
5.194	7.0
5.209	4.0
5.224	8.0
5.239	7.0
5.254	7.0
5.269	3.0
5.284	7.0
5.299	8.0
5.314	8.0
5.329	7.0
5.344	8.0
5.359	6.0
5.374	5.0
5.389	8.0
5.404	10.0
5.419	6.0
5.434	10.0
5.449	11.0
5.464	12.0
5.479	13.0
5.494	5.0
5.509	12.0
5.524	8.0
5.539	4.0
5.554	5.0
5.569	8.0
5.584	12.0
5.599	11.0
5.614	8.0
5.629	7.0
5.644	11.0
5.659	11.0
5.674	7.0
5.689	9.0
5.704	6.0
5.719	7.0
5.734	9.0
5.749	11.0
5.764	11.0
5.779	10.0
5.794	7.0
5.809	9.0
5.824	6.0
5.839	9.0
5.854	9.0
5.869	4.0
5.884	12.0
5.899	10.0
5.914	5.0
5.929	8.0
5.944	8.0
5.959	10.0
5.974	7.0
5.989	11.0
6.004	7.0
6.019	14.0
6.034	7.0
6.049	10.0
6.064	11.0
6.079	10.0
6.094	7.0
6.109	9.0
6.124	5.0
6.139	5.0
6.154	10.0
6.169	11.0
6.184	10.0
6.199	6.0
6.214	9.0
6.229	9.0
6.244	6.0
6.259	7.0
6.274	9.0
6.289	11.0
6.304	15.0
6.319	7.0
6.334	7.0
6.349	11.0
6.364	7.0
6.379	13.0
6.394	8.0
6.409	9.0
6.424	9.0
6.439	7.0
6.454	5.0
6.469	9.0
6.484	8.0
6.499	7.0
6.514	14.0
6.529	6.0
6.544	7.0
6.559	9.0
6.574	10.0
6.589	9.0
6.604	9.0
6.619	7.0
6.634	7.0
6.649	7.0
6.664	12.0
6.679	11.0
6.694	7.0
6.709	8.0
6.724	8.0
6.739	5.0
6.754	10.0
6.769	11.0
6.784	11.0
6.799	10.0
6.814	9.0
6.829	13.0
6.844	11.0
6.859	7.0
6.873	9.0
6.888	8.0
6.903	9.0
6.918	9.0
6.933	6.0
6.948	11.0
6.963	4.0
6.978	9.0
6.993	8.0
7.008	8.0
7.023	12.0
7.038	4.0
7.053	8.0
7.068	6.0
7.083	11.0
7.098	12.0
7.113	11.0
7.128	7.0
7.143	4.0
7.157	8.0
7.172	14.0
7.187	7.0
7.202	5.0
7.217	4.0
7.232	8.0
7.247	16.0
7.262	8.0
7.277	15.0
7.292	12.0
7.307	9.0
7.322	7.0
7.336	4.0
7.351	8.0
7.366	12.0
7.381	5.0
7.396	8.0
7.411	9.0
7.426	7.0
7.441	8.0
7.456	10.0
7.471	9.0
7.485	6.0
7.5	11.0
7.515	9.0
7.53	10.0
7.545	7.0
7.56	8.0
7.575	6.0
7.59	9.0
7.604	11.0
7.619	15.0
7.634	10.0
7.649	11.0
7.664	7.0
7.679	6.0
7.693	5.0
7.708	9.0
7.723	9.0
7.738	8.0
7.753	3.0
7.768	6.0
7.783	11.0
7.797	8.0
7.812	5.0
7.827	7.0
7.842	7.0
7.857	9.0
7.871	16.0
7.886	5.0
7.901	8.0
7.916	9.0
7.931	9.0
7.945	9.0
7.96	4.0
7.975	10.0
7.99	8.0
8.005	12.0
8.019	13.0
8.034	5.0
8.049	7.0
8.064	3.0
8.078	5.0
8.093	10.0
8.108	8.0
8.123	5.0
8.137	5.0
8.152	4.0
8.167	10.0
8.182	8.0
8.196	11.0
8.211	9.0
8.226	8.0
8.241	12.0
8.255	4.0
8.27	10.0
8.285	10.0
8.3	11.0
8.314	10.0
8.329	12.0
8.344	12.0
8.358	11.0
8.373	10.0
8.388	5.0
8.403	6.0
8.417	12.0
8.432	10.0
8.447	7.0
8.461	5.0
8.476	5.0
8.491	7.0
8.505	6.0
8.52	14.0
8.535	8.0
8.55	8.0
8.564	8.0
8.579	8.0
8.594	7.0
8.608	9.0
8.623	7.0
8.638	9.0
8.652	4.0
8.667	10.0
8.682	8.0
8.696	10.0
8.711	11.0
8.726	16.0
8.74	3.0
8.755	10.0
8.77	6.0
8.784	7.0
8.799	7.0
8.814	10.0
8.828	9.0
8.843	9.0
8.858	9.0
8.872	7.0
8.887	10.0
8.902	10.0
8.916	13.0
8.931	11.0
8.946	6.0
8.96	3.0
8.975	7.0
8.99	3.0
9.004	7.0
9.019	6.0
9.034	8.0
9.048	7.0
9.063	11.0
9.077	12.0
9.092	2.0
9.107	9.0
9.121	8.0
9.136	11.0
9.151	8.0
9.165	7.0
9.18	12.0
9.195	11.0
9.209	11.0
9.224	10.0
9.239	6.0
9.253	12.0
9.268	12.0
9.283	8.0
9.297	10.0
9.312	4.0
9.327	9.0
9.341	7.0
9.356	8.0
9.371	6.0
9.385	10.0
9.4	11.0
9.415	5.0
9.429	8.0
9.444	6.0
9.458	11.0
9.473	5.0
9.488	9.0
9.502	6.0
9.517	8.0
9.532	3.0
9.546	8.0
9.561	6.0
9.576	3.0
9.59	5.0
9.605	8.0
9.62	12.0
9.635	7.0
9.649	10.0
9.664	6.0
9.679	4.0
9.693	2.0
9.708	5.0
9.723	8.0
9.737	10.0
9.752	10.0
9.767	12.0
9.781	9.0
9.796	6.0
9.811	7.0
9.825	7.0
9.84	6.0
9.855	6.0
9.87	15.0
9.884	8.0
9.899	10.0
9.914	8.0
9.928	6.0
9.943	11.0
9.958	7.0
9.973	7.0
9.987	11.0
10.002	4.0
10.017	8.0
10.031	13.0
10.046	11.0
10.061	8.0
10.076	4.0
10.09	8.0
10.105	10.0
10.12	6.0
10.135	13.0
10.149	11.0
10.164	6.0
10.179	5.0
10.194	13.0
10.208	10.0
10.223	10.0
10.238	11.0
10.253	6.0
10.267	9.0
10.282	7.0
10.297	4.0
10.312	8.0
10.326	9.0
10.341	9.0
10.356	6.0
10.371	8.0
10.386	10.0
10.4	8.0
10.415	7.0
10.43	6.0
10.445	10.0
10.46	12.0
10.474	5.0
10.489	5.0
10.504	7.0
10.519	5.0
10.533	12.0
10.548	8.0
10.563	10.0
10.578	5.0
10.593	6.0
10.608	8.0
10.622	6.0
10.637	4.0
10.652	7.0
10.667	8.0
10.682	7.0
10.696	7.0
10.711	11.0
10.726	6.0
10.741	5.0
10.756	7.0
10.771	6.0
10.785	12.0
10.8	11.0
10.815	5.0
10.83	7.0
10.845	7.0
10.86	9.0
10.874	4.0
10.889	6.0
10.904	6.0
10.919	11.0
10.934	7.0
10.949	5.0
10.963	11.0
10.978	5.0
10.993	9.0
11.008	11.0
11.023	14.0
11.038	6.0
11.053	6.0
11.067	6.0
11.082	6.0
11.097	5.0
11.112	6.0
11.127	16.0
11.142	8.0
11.157	5.0
11.172	9.0
11.186	10.0
11.201	8.0
11.216	8.0
11.231	7.0
11.246	8.0
11.261	13.0
11.276	2.0
11.291	10.0
11.305	7.0
11.32	4.0
11.335	5.0
11.35	9.0
11.365	12.0
11.38	13.0
11.395	8.0
11.41	12.0
11.424	8.0
11.439	6.0
11.454	6.0
11.469	4.0
11.484	8.0
11.499	6.0
11.514	12.0
11.529	8.0
11.544	10.0
11.558	12.0
11.573	6.0
11.588	8.0
11.603	7.0
11.618	4.0
11.633	9.0
11.648	10.0
11.663	5.0
11.678	10.0
11.693	8.0
11.707	9.0
11.722	5.0
11.737	4.0
11.752	9.0
11.767	10.0
11.782	8.0
11.797	8.0
11.812	7.0
11.827	5.0
11.842	8.0
11.856	6.0
11.871	5.0
11.886	6.0
11.901	9.0
11.916	8.0
11.931	14.0
11.946	11.0
11.961	11.0
11.976	9.0
11.991	9.0
12.006	6.0
12.02	6.0
12.035	9.0
12.05	9.0
12.065	8.0
12.08	9.0
12.095	11.0
12.11	15.0
12.125	14.0
12.14	9.0
12.155	9.0
12.17	5.0
12.184	6.0
12.199	12.0
12.214	11.0
12.229	6.0
12.244	9.0
12.259	7.0
12.274	10.0
12.289	4.0
12.304	7.0
12.319	6.0
12.334	13.0
12.348	13.0
12.363	6.0
12.378	12.0
12.393	7.0
12.408	8.0
12.423	12.0
12.438	9.0
12.453	12.0
12.468	8.0
12.483	6.0
12.498	14.0
12.513	10.0
12.527	16.0
12.542	11.0
12.557	16.0
12.572	15.0
12.587	19.0
12.602	12.0
12.617	12.0
12.632	10.0
12.647	6.0
12.662	11.0
12.677	17.0
12.692	10.0
12.707	9.0
12.721	10.0
12.736	15.0
12.751	10.0
12.766	13.0
12.781	14.0
12.796	12.0
12.811	19.0
12.826	17.0
12.841	10.0
12.856	16.0
12.871	15.0
12.886	16.0
12.9	15.0
12.915	12.0
12.93	17.0
12.945	16.0
12.96	18.0
12.975	18.0
12.99	14.0
13.005	14.0
13.02	11.0
13.035	15.0
13.05	22.0
13.065	21.0
13.08	15.0
13.094	13.0
13.109	16.0
13.124	19.0
13.139	20.0
13.154	21.0
13.169	20.0
13.184	16.0
13.199	12.0
13.214	17.0
13.229	22.0
13.244	21.0
13.259	27.0
13.274	25.0
13.288	17.0
13.303	18.0
13.318	23.0
13.333	23.0
13.348	29.0
13.363	22.0
13.378	31.0
13.393	35.0
13.408	21.0
13.423	26.0
13.438	36.0
13.453	32.0
13.468	34.0
13.482	32.0
13.497	37.0
13.512	45.0
13.527	54.0
13.542	51.0
13.557	53.0
13.572	46.0
13.587	55.0
13.602	62.0
13.617	71.0
13.632	69.0
13.647	68.0
13.662	78.0
13.677	78.0
13.691	80.0
13.706	98.0
13.721	84.0
13.736	97.0
13.751	95.0
13.766	92.0
13.781	114.0
13.796	132.0
13.811	119.0
13.826	120.0
13.841	131.0
13.856	108.0
13.871	110.0
13.885	91.0
13.9	88.0
13.915	75.0
13.93	80.0
13.945	67.0
13.96	56.0
13.975	52.0
13.99	40.0
14.005	32.0
14.02	33.0
14.035	35.0
14.05	23.0
14.065	30.0
14.08	26.0
14.094	22.0
14.109	18.0
14.124	27.0
14.139	28.0
14.154	23.0
14.169	16.0
14.184	27.0
14.199	18.0
14.214	23.0
14.229	24.0
14.244	22.0
14.259	27.0
14.274	25.0
14.288	23.0
14.303	16.0
14.318	23.0
14.333	24.0
14.348	21.0
14.363	19.0
14.378	25.0
14.393	21.0
14.408	17.0
14.423	18.0
14.438	14.0
14.453	20.0
14.468	18.0
14.482	20.0
14.497	15.0
14.512	15.0
14.527	15.0
14.542	23.0
14.557	18.0
14.572	14.0
14.587	14.0
14.602	23.0
14.617	15.0
14.632	18.0
14.647	17.0
14.661	22.0
14.676	10.0
14.691	24.0
14.706	21.0
14.721	12.0
14.736	17.0
14.751	10.0
14.766	17.0
14.781	16.0
14.796	15.0
14.811	15.0
14.826	14.0
14.84	10.0
14.855	12.0
14.87	16.0
14.885	21.0
14.9	17.0
14.915	14.0
14.93	12.0
14.945	20.0
14.96	13.0
14.975	12.0
14.989	14.0
15.004	15.0
15.019	19.0
15.034	16.0
15.049	17.0
15.064	17.0
15.079	21.0
15.094	15.0
15.109	18.0
15.124	13.0
15.138	14.0
15.153	8.0
15.168	17.0
15.183	12.0
15.198	9.0
15.213	14.0
15.228	6.0
15.243	17.0
15.258	14.0
15.272	8.0
15.287	13.0
15.302	12.0
15.317	15.0
15.332	11.0
15.347	10.0
15.362	17.0
15.377	13.0
15.391	17.0
15.406	16.0
15.421	10.0
15.436	11.0
15.451	19.0
15.466	8.0
15.481	14.0
15.496	15.0
15.51	13.0
15.525	15.0
15.54	18.0
15.555	16.0
15.57	19.0
15.585	21.0
15.6	14.0
15.614	17.0
15.629	16.0
15.644	15.0
15.659	14.0
15.674	12.0
15.689	24.0
15.704	15.0
15.718	17.0
15.733	16.0
15.748	13.0
15.763	18.0
15.778	13.0
15.793	8.0
15.808	10.0
15.822	9.0
15.837	7.0
15.852	14.0
15.867	12.0
15.882	10.0
15.897	17.0
15.911	16.0
15.926	11.0
15.941	16.0
15.956	16.0
15.971	15.0
15.986	17.0
16.0	17.0
16.015	13.0
16.03	9.0
16.045	13.0
16.06	10.0
16.074	21.0
16.089	13.0
16.104	8.0
16.119	7.0
16.134	13.0
16.149	13.0
16.163	9.0
16.178	16.0
16.193	11.0
16.208	15.0
16.223	25.0
16.237	15.0
16.252	11.0
16.267	14.0
16.282	15.0
16.297	18.0
16.311	14.0
16.326	15.0
16.341	15.0
16.356	17.0
16.37	17.0
16.385	10.0
16.4	16.0
16.415	12.0
16.43	10.0
16.444	11.0
16.459	17.0
16.474	12.0
16.489	13.0
16.504	21.0
16.518	13.0
16.533	18.0
16.548	19.0
16.563	9.0
16.577	20.0
16.592	21.0
16.607	11.0
16.622	19.0
16.637	18.0
16.651	20.0
16.666	14.0
16.681	20.0
16.696	17.0
16.71	24.0
16.725	22.0
16.74	29.0
16.755	28.0
16.77	37.0
16.784	37.0
16.799	34.0
16.814	43.0
16.829	54.0
16.843	53.0
16.858	47.0
16.873	62.0
16.888	47.0
16.902	64.0
16.917	63.0
16.932	67.0
16.947	74.0
16.961	60.0
16.976	84.0
16.991	74.0
17.006	58.0
17.021	60.0
17.035	47.0
17.05	50.0
17.065	46.0
17.08	38.0
17.094	35.0
17.109	32.0
17.124	36.0
17.139	29.0
17.153	19.0
17.168	18.0
17.183	15.0
17.198	12.0
17.212	20.0
17.227	15.0
17.242	18.0
17.257	17.0
17.271	17.0
17.286	13.0
17.301	15.0
17.316	13.0
17.33	16.0
17.345	18.0
17.36	11.0
17.375	11.0
17.39	22.0
17.404	8.0
17.419	15.0
17.434	6.0
17.449	17.0
17.463	17.0
17.478	21.0
17.493	16.0
17.508	20.0
17.522	10.0
17.537	18.0
17.552	9.0
17.567	14.0
17.581	15.0
17.596	12.0
17.611	14.0
17.626	10.0
17.641	12.0
17.655	18.0
17.67	8.0
17.685	12.0
17.7	12.0
17.714	15.0
17.729	8.0
17.744	9.0
17.759	10.0
17.773	12.0
17.788	9.0
17.803	11.0
17.818	11.0
17.833	14.0
17.847	14.0
17.862	11.0
17.877	11.0
17.892	10.0
17.906	16.0
17.921	9.0
17.936	17.0
17.951	6.0
17.966	10.0
17.98	15.0
17.995	10.0
18.01	9.0
18.025	17.0
18.04	11.0
18.054	9.0
18.069	20.0
18.084	7.0
18.099	9.0
18.114	8.0
18.128	11.0
18.143	21.0
18.158	11.0
18.173	9.0
18.188	17.0
18.202	10.0
18.217	8.0
18.232	10.0
18.247	15.0
18.262	12.0
18.276	7.0
18.291	15.0
18.306	12.0
18.321	18.0
18.336	13.0
18.35	11.0
18.365	13.0
18.38	14.0
18.395	20.0
18.41	13.0
18.424	9.0
18.439	6.0
18.454	7.0
18.469	8.0
18.484	11.0
18.498	14.0
18.513	18.0
18.528	13.0
18.543	7.0
18.558	13.0
18.573	15.0
18.587	12.0
18.602	14.0
18.617	11.0
18.632	7.0
18.647	10.0
18.661	11.0
18.676	10.0
18.691	7.0
18.706	16.0
18.721	11.0
18.736	14.0
18.75	6.0
18.765	11.0
18.78	19.0
18.795	11.0
18.81	6.0
18.825	8.0
18.839	14.0
18.854	14.0
18.869	10.0
18.884	6.0
18.899	10.0
18.913	11.0
18.928	18.0
18.943	13.0
18.958	6.0
18.973	12.0
18.988	14.0
19.002	8.0
19.017	12.0
19.032	13.0
19.047	13.0
19.062	12.0
19.077	8.0
19.091	11.0
19.106	12.0
19.121	10.0
19.136	8.0
19.151	11.0
19.165	15.0
19.18	12.0
19.195	17.0
19.21	12.0
19.225	10.0
19.24	19.0
19.254	4.0
19.269	11.0
19.284	14.0
19.299	11.0
19.314	11.0
19.329	24.0
19.343	11.0
19.358	17.0
19.373	10.0
19.388	17.0
19.403	24.0
19.417	17.0
19.432	16.0
19.447	21.0
19.462	23.0
19.477	33.0
19.492	28.0
19.506	22.0
19.521	23.0
19.536	23.0
19.551	28.0
19.566	37.0
19.58	43.0
19.595	35.0
19.61	46.0
19.625	26.0
19.64	38.0
19.655	38.0
19.669	36.0
19.684	41.0
19.699	39.0
19.714	30.0
19.729	33.0
19.743	21.0
19.758	24.0
19.773	16.0
19.788	17.0
19.803	17.0
19.817	10.0
19.832	15.0
19.847	11.0
19.862	21.0
19.877	13.0
19.891	15.0
19.906	14.0
19.921	12.0
19.936	10.0
19.951	12.0
19.965	8.0
19.98	19.0
19.995	7.0
20.01	13.0
20.025	9.0
20.039	10.0
20.054	8.0
20.069	13.0
20.084	19.0
20.099	10.0
20.113	9.0
20.128	10.0
20.143	7.0
20.158	14.0
20.173	12.0
20.187	8.0
20.202	8.0
20.217	16.0
20.232	5.0
20.246	13.0
20.261	7.0
20.276	19.0
20.291	12.0
20.306	13.0
20.32	9.0
20.335	18.0
20.35	11.0
20.365	12.0
20.38	12.0
20.394	15.0
20.409	12.0
20.424	9.0
20.439	9.0
20.453	10.0
20.468	10.0
20.483	11.0
20.498	14.0
20.513	11.0
20.527	11.0
20.542	8.0
20.557	11.0
20.572	10.0
20.586	5.0
20.601	15.0
20.616	9.0
20.631	11.0
20.646	8.0
20.66	7.0
20.675	14.0
20.69	13.0
20.705	12.0
20.719	6.0
20.734	8.0
20.749	16.0
20.764	7.0
20.779	13.0
20.793	8.0
20.808	14.0
20.823	9.0
20.838	15.0
20.853	9.0
20.867	11.0
20.882	13.0
20.897	11.0
20.912	12.0
20.926	12.0
20.941	20.0
20.956	13.0
20.971	9.0
20.986	10.0
21.0	12.0
21.015	12.0
21.03	14.0
21.045	16.0
21.06	12.0
21.074	10.0
21.089	13.0
21.104	12.0
21.119	12.0
21.134	12.0
21.148	11.0
21.163	8.0
21.178	11.0
21.193	14.0
21.208	8.0
21.222	9.0
21.237	18.0
21.252	16.0
21.267	16.0
21.282	8.0
21.296	21.0
21.311	15.0
21.326	6.0
21.341	12.0
21.356	14.0
21.37	11.0
21.385	15.0
21.4	7.0
21.415	10.0
21.43	6.0
21.444	9.0
21.459	9.0
21.474	5.0
21.489	11.0
21.504	13.0
21.519	14.0
21.533	11.0
21.548	6.0
21.563	16.0
21.578	11.0
21.593	11.0
21.608	11.0
21.622	21.0
21.637	13.0
21.652	19.0
21.667	14.0
21.682	23.0
21.697	21.0
21.712	22.0
21.726	23.0
21.741	12.0
21.756	25.0
21.771	27.0
21.786	26.0
21.801	32.0
21.816	46.0
21.83	38.0
21.845	50.0
21.86	64.0
21.875	69.0
21.89	72.0
21.905	65.0
21.92	81.0
21.935	78.0
21.949	72.0
21.964	74.0
21.979	79.0
21.994	72.0
22.009	66.0
22.024	49.0
22.039	57.0
22.054	58.0
22.069	67.0
22.083	48.0
22.098	41.0
22.113	35.0
22.128	39.0
22.143	22.0
22.158	24.0
22.173	24.0
22.188	18.0
22.203	15.0
22.218	12.0
22.233	14.0
22.248	13.0
22.262	10.0
22.277	13.0
22.292	20.0
22.307	16.0
22.322	14.0
22.337	6.0
22.352	10.0
22.367	14.0
22.382	11.0
22.397	20.0
22.412	16.0
22.427	7.0
22.442	15.0
22.457	14.0
22.472	9.0
22.487	13.0
22.502	11.0
22.516	17.0
22.531	8.0
22.546	14.0
22.561	19.0
22.576	9.0
22.591	19.0
22.606	10.0
22.621	10.0
22.636	10.0
22.651	8.0
22.666	9.0
22.681	16.0
22.696	10.0
22.711	16.0
22.726	14.0
22.741	6.0
22.756	11.0
22.771	17.0
22.786	6.0
22.801	8.0
22.816	11.0
22.831	9.0
22.846	12.0
22.861	8.0
22.876	8.0
22.891	13.0
22.906	14.0
22.92	10.0
22.935	11.0
22.95	10.0
22.965	13.0
22.98	7.0
22.995	12.0
23.01	11.0
23.025	11.0
23.04	15.0
23.055	9.0
23.07	11.0
23.085	8.0
23.1	7.0
23.115	11.0
23.13	6.0
23.145	9.0
23.16	10.0
23.175	10.0
23.19	9.0
23.205	12.0
23.22	8.0
23.235	9.0
23.25	11.0
23.265	10.0
23.28	17.0
23.295	12.0
23.31	12.0
23.325	6.0
23.34	11.0
23.355	11.0
23.37	13.0
23.384	14.0
23.399	13.0
23.414	8.0
23.429	7.0
23.444	8.0
23.459	18.0
23.474	10.0
23.489	9.0
23.504	8.0
23.519	12.0
23.534	6.0
23.549	10.0
23.564	16.0
23.579	7.0
23.594	12.0
23.609	9.0
23.624	6.0
23.639	22.0
23.654	12.0
23.668	9.0
23.683	11.0
23.698	8.0
23.713	17.0
23.728	20.0
23.743	11.0
23.758	13.0
23.773	8.0
23.788	16.0
23.803	14.0
23.818	17.0
23.833	10.0
23.848	10.0
23.862	18.0
23.877	21.0
23.892	20.0
23.907	15.0
23.922	18.0
23.937	18.0
23.952	25.0
23.967	31.0
23.982	34.0
23.997	38.0
24.011	32.0
24.026	38.0
24.041	41.0
24.056	47.0
24.071	52.0
24.086	54.0
24.101	65.0
24.116	44.0
24.131	39.0
24.145	38.0
24.16	50.0
24.175	40.0
24.19	30.0
24.205	35.0
24.22	30.0
24.235	36.0
24.249	40.0
24.264	17.0
24.279	22.0
24.294	22.0
24.309	19.0
24.324	20.0
24.338	15.0
24.353	22.0
24.368	16.0
24.383	17.0
24.398	14.0
24.413	14.0
24.428	11.0
24.442	9.0
24.457	19.0
24.472	13.0
24.487	14.0
24.502	16.0
24.516	10.0
24.531	7.0
24.546	11.0
24.561	8.0
24.576	7.0
24.591	12.0
24.605	14.0
24.62	8.0
24.635	7.0
24.65	10.0
24.665	11.0
24.679	15.0
24.694	12.0
24.709	14.0
24.724	11.0
24.739	15.0
24.753	11.0
24.768	14.0
24.783	6.0
24.798	11.0
24.813	17.0
24.827	14.0
24.842	15.0
24.857	8.0
24.872	17.0
24.886	9.0
24.901	5.0
24.916	12.0
24.931	10.0
24.946	14.0
24.96	14.0
24.975	11.0
24.99	8.0
25.005	8.0
25.019	8.0
25.034	9.0
25.049	10.0
25.064	9.0
25.078	11.0
25.093	9.0
25.108	14.0
25.123	10.0
25.138	12.0
25.152	6.0
25.167	16.0
25.182	10.0
25.197	12.0
25.211	8.0
25.226	11.0
25.241	8.0
25.256	8.0
25.27	11.0
25.285	10.0
25.3	8.0
25.315	15.0
25.329	11.0
25.344	14.0
25.359	4.0
25.374	11.0
25.388	7.0
25.403	6.0
25.418	12.0
25.433	6.0
25.447	7.0
25.462	5.0
25.477	9.0
25.492	10.0
25.506	10.0
25.521	6.0
25.536	15.0
25.55	10.0
25.565	13.0
25.58	9.0
25.595	9.0
25.609	10.0
25.624	8.0
25.639	6.0
25.654	5.0
25.668	11.0
25.683	7.0
25.698	10.0
25.713	9.0
25.727	9.0
25.742	8.0
25.757	7.0
25.772	10.0
25.786	9.0
25.801	7.0
25.816	7.0
25.83	11.0
25.845	9.0
25.86	9.0
25.875	11.0
25.889	10.0
25.904	13.0
25.919	12.0
25.934	11.0
25.948	11.0
25.963	6.0
25.978	7.0
25.992	8.0
26.007	13.0
26.022	5.0
26.037	15.0
26.051	12.0
26.066	8.0
26.081	3.0
26.096	15.0
26.11	8.0
26.125	12.0
26.14	10.0
26.155	14.0
26.169	9.0
26.184	10.0
26.199	8.0
26.213	7.0
26.228	16.0
26.243	9.0
26.258	10.0
26.272	14.0
26.287	11.0
26.302	9.0
26.317	12.0
26.331	5.0
26.346	6.0
26.361	8.0
26.376	11.0
26.39	6.0
26.405	6.0
26.42	10.0
26.434	9.0
26.449	11.0
26.464	10.0
26.479	14.0
26.493	7.0
26.508	6.0
26.523	12.0
26.538	8.0
26.552	14.0
26.567	10.0
26.582	12.0
26.597	8.0
26.611	10.0
26.626	7.0
26.641	13.0
26.656	5.0
26.67	8.0
26.685	10.0
26.7	8.0
26.715	4.0
26.729	12.0
26.744	8.0
26.759	10.0
26.773	4.0
26.788	5.0
26.803	7.0
26.818	15.0
26.832	12.0
26.847	13.0
26.862	10.0
26.877	4.0
26.891	10.0
26.906	10.0
26.921	3.0
26.936	13.0
26.95	10.0
26.965	10.0
26.98	5.0
26.995	9.0
27.01	9.0
27.024	9.0
27.039	10.0
27.054	16.0
27.069	11.0
27.083	7.0
27.098	6.0
27.113	9.0
27.128	9.0
27.142	9.0
27.157	12.0
27.172	5.0
27.187	6.0
27.201	7.0
27.216	14.0
27.231	9.0
27.246	4.0
27.261	11.0
27.275	5.0
27.29	13.0
27.305	5.0
27.32	17.0
27.334	10.0
27.349	13.0
27.364	5.0
27.379	11.0
27.394	11.0
27.408	10.0
27.423	8.0
27.438	8.0
27.453	11.0
27.467	8.0
27.482	10.0
27.497	8.0
27.512	7.0
27.527	13.0
27.541	11.0
27.556	8.0
27.571	11.0
27.586	15.0
27.601	7.0
27.615	7.0
27.63	15.0
27.645	9.0
27.66	11.0
27.675	7.0
27.689	22.0
27.704	18.0
27.719	16.0
27.734	24.0
27.749	15.0
27.763	16.0
27.778	16.0
27.793	22.0
27.808	14.0
27.823	26.0
27.838	21.0
27.852	25.0
27.867	27.0
27.882	24.0
27.897	19.0
27.912	20.0
27.926	25.0
27.941	18.0
27.956	21.0
27.971	20.0
27.986	23.0
28.001	19.0
28.015	17.0
28.03	15.0
28.045	19.0
28.06	29.0
28.075	9.0
28.09	18.0
28.105	14.0
28.119	15.0
28.134	15.0
28.149	11.0
28.164	12.0
28.179	13.0
28.194	8.0
28.208	6.0
28.223	6.0
28.238	7.0
28.253	7.0
28.268	9.0
28.283	10.0
28.298	16.0
28.312	7.0
28.327	13.0
28.342	13.0
28.357	14.0
28.372	14.0
28.387	11.0
28.402	8.0
28.417	14.0
28.431	9.0
28.446	12.0
28.461	10.0
28.476	20.0
28.491	7.0
28.506	5.0
28.521	16.0
28.536	7.0
28.55	10.0
28.565	9.0
28.58	10.0
28.595	8.0
28.61	10.0
28.625	14.0
28.64	12.0
28.655	13.0
28.669	10.0
28.684	10.0
28.699	8.0
28.714	10.0
28.729	10.0
28.744	14.0
28.759	11.0
28.774	10.0
28.788	8.0
28.803	6.0
28.818	12.0
28.833	14.0
28.848	16.0
28.863	17.0
28.878	7.0
28.893	8.0
28.908	14.0
28.922	10.0
28.937	6.0
28.952	8.0
28.967	14.0
28.982	8.0
28.997	14.0
29.012	4.0
29.027	10.0
29.041	11.0
29.056	12.0
29.071	8.0
29.086	9.0
29.101	10.0
29.116	9.0
29.131	8.0
29.146	11.0
29.16	11.0
29.175	14.0
29.19	16.0
29.205	8.0
29.22	10.0
29.235	11.0
29.25	13.0
29.265	12.0
29.279	6.0
29.294	7.0
29.309	11.0
29.324	11.0
29.339	9.0
29.354	14.0
29.369	15.0
29.384	15.0
29.398	21.0
29.413	22.0
29.428	13.0
29.443	19.0
29.458	18.0
29.473	31.0
29.488	22.0
29.502	45.0
29.517	25.0
29.532	32.0
29.547	38.0
29.562	44.0
29.577	36.0
29.592	46.0
29.606	53.0
29.621	49.0
29.636	53.0
29.651	56.0
29.666	38.0
29.681	45.0
29.695	42.0
29.71	37.0
29.725	41.0
29.74	39.0
29.755	32.0
29.77	34.0
29.784	30.0
29.799	23.0
29.814	37.0
29.829	25.0
29.844	23.0
29.859	16.0
29.873	27.0
29.888	16.0
29.903	15.0
29.918	6.0
29.933	15.0
29.947	13.0
29.962	18.0
29.977	10.0
29.992	14.0
30.007	17.0
30.021	17.0
30.036	19.0
30.051	11.0
30.066	5.0
30.081	10.0
30.095	14.0
30.11	11.0
30.125	8.0
30.14	9.0
30.155	16.0
30.169	8.0
30.184	15.0
30.199	9.0
30.214	9.0
30.228	9.0
30.243	12.0
30.258	8.0
30.273	10.0
30.288	13.0
30.302	8.0
30.317	14.0
30.332	12.0
30.347	8.0
30.361	10.0
30.376	9.0
30.391	6.0
30.406	6.0
30.42	9.0
30.435	15.0
30.45	5.0
30.465	14.0
30.479	10.0
30.494	10.0
30.509	11.0
30.524	19.0
30.538	17.0
30.553	18.0
30.568	5.0
30.583	15.0
30.597	8.0
30.612	6.0
30.627	9.0
30.641	16.0
30.656	11.0
30.671	11.0
30.686	11.0
30.7	10.0
30.715	7.0
30.73	14.0
30.745	9.0
30.759	10.0
30.774	10.0
30.789	12.0
30.803	8.0
30.818	18.0
30.833	14.0
30.848	8.0
30.862	12.0
30.877	10.0
30.892	6.0
30.906	13.0
30.921	11.0
30.936	12.0
30.951	7.0
30.965	8.0
30.98	10.0
30.995	13.0
31.009	10.0
31.024	11.0
31.039	18.0
31.053	11.0
31.068	10.0
31.083	13.0
31.098	17.0
31.112	16.0
31.127	15.0
31.142	17.0
31.156	23.0
31.171	30.0
31.186	24.0
31.2	30.0
31.215	28.0
31.23	35.0
31.245	34.0
31.259	28.0
31.274	34.0
31.289	44.0
31.303	32.0
31.318	41.0
31.333	40.0
31.347	23.0
31.362	33.0
31.377	26.0
31.392	32.0
31.406	23.0
31.421	26.0
31.436	33.0
31.45	28.0
31.465	23.0
31.48	23.0
31.494	17.0
31.509	23.0
31.524	11.0
31.538	21.0
31.553	18.0
31.568	10.0
31.583	15.0
31.597	13.0
31.612	11.0
31.627	12.0
31.641	12.0
31.656	8.0
31.671	14.0
31.685	14.0
31.7	7.0
31.715	9.0
31.729	20.0
31.744	18.0
31.759	11.0
31.774	12.0
31.788	12.0
31.803	9.0
31.818	13.0
31.832	14.0
31.847	10.0
31.862	12.0
31.876	11.0
31.891	13.0
31.906	12.0
31.92	8.0
31.935	11.0
31.95	9.0
31.965	11.0
31.979	7.0
31.994	8.0
32.009	6.0
32.023	4.0
32.038	12.0
32.053	13.0
32.067	11.0
32.082	16.0
32.097	12.0
32.112	12.0
32.126	9.0
32.141	11.0
32.156	8.0
32.17	8.0
32.185	11.0
32.2	11.0
32.214	21.0
32.229	9.0
32.244	17.0
32.259	10.0
32.273	9.0
32.288	13.0
32.303	9.0
32.317	13.0
32.332	12.0
32.347	9.0
32.362	9.0
32.376	10.0
32.391	10.0
32.406	4.0
32.42	8.0
32.435	13.0
32.45	8.0
32.465	11.0
32.479	9.0
32.494	12.0
32.509	7.0
32.523	18.0
32.538	8.0
32.553	10.0
32.568	6.0
32.582	12.0
32.597	11.0
32.612	14.0
32.627	7.0
32.641	20.0
32.656	14.0
32.671	14.0
32.685	20.0
32.7	16.0
32.715	17.0
32.73	17.0
32.744	20.0
32.759	22.0
32.774	28.0
32.788	30.0
32.803	23.0
32.818	28.0
32.833	20.0
32.847	36.0
32.862	28.0
32.877	19.0
32.892	18.0
32.906	21.0
32.921	20.0
32.936	19.0
32.951	17.0
32.965	19.0
32.98	17.0
32.995	21.0
33.009	15.0
33.024	17.0
33.039	23.0
33.054	16.0
33.068	18.0
33.083	28.0
33.098	16.0
33.113	17.0
33.127	9.0
33.142	22.0
33.157	8.0
33.172	15.0
33.186	8.0
33.201	8.0
33.216	7.0
33.231	9.0
33.245	14.0
33.26	11.0
33.275	6.0
33.29	10.0
33.304	6.0
33.319	12.0
33.334	7.0
33.349	9.0
33.363	6.0
33.378	11.0
33.393	11.0
33.408	10.0
33.422	11.0
33.437	9.0
33.452	2.0
33.467	10.0
33.481	11.0
33.496	9.0
33.511	5.0
33.526	14.0
33.54	7.0
33.555	9.0
33.57	11.0
33.585	10.0
33.599	7.0
33.614	11.0
33.629	11.0
33.644	10.0
33.658	6.0
33.673	10.0
33.688	12.0
33.703	7.0
33.718	10.0
33.732	7.0
33.747	6.0
33.762	11.0
33.777	10.0
33.791	14.0
33.806	6.0
33.821	12.0
33.836	8.0
33.85	8.0
33.865	11.0
33.88	15.0
33.895	8.0
33.91	9.0
33.924	10.0
33.939	5.0
33.954	9.0
33.969	11.0
33.983	9.0
33.998	11.0
34.013	7.0
34.028	7.0
34.042	12.0
34.057	6.0
34.072	12.0
34.087	16.0
34.102	8.0
34.116	8.0
34.131	10.0
34.146	9.0
34.161	9.0
34.175	19.0
34.19	9.0
34.205	15.0
34.22	15.0
34.235	12.0
34.249	9.0
34.264	16.0
34.279	10.0
34.294	11.0
34.309	13.0
34.323	18.0
34.338	17.0
34.353	16.0
34.368	8.0
34.382	11.0
34.397	10.0
34.412	20.0
34.427	7.0
34.442	17.0
34.456	9.0
34.471	9.0
34.486	14.0
34.501	10.0
34.516	5.0
34.53	10.0
34.545	14.0
34.56	13.0
34.575	9.0
34.59	10.0
34.604	9.0
34.619	17.0
34.634	8.0
34.649	15.0
34.664	11.0
34.678	10.0
34.693	10.0
34.708	11.0
34.723	13.0
34.738	5.0
34.752	9.0
34.767	7.0
34.782	7.0
34.797	2.0
34.812	6.0
34.826	7.0
34.841	13.0
34.856	6.0
34.871	5.0
34.886	10.0
34.9	13.0
34.915	10.0
34.93	4.0
34.945	12.0
34.96	8.0
34.974	16.0
34.989	11.0
35.004	12.0
35.019	8.0
35.034	7.0
35.048	10.0
35.063	8.0
35.078	15.0
35.093	9.0
35.108	7.0
35.122	5.0
35.137	10.0
35.152	9.0
35.167	10.0
35.182	8.0
35.196	7.0
35.211	3.0
35.226	12.0
35.241	5.0
35.256	8.0
35.27	8.0
35.285	5.0
35.3	8.0
35.315	11.0
35.33	8.0
35.344	4.0
35.359	8.0
35.374	5.0
35.389	10.0
35.404	9.0
35.418	9.0
35.433	7.0
35.448	13.0
35.463	7.0
35.478	4.0
35.493	9.0
35.507	7.0
35.522	11.0
35.537	6.0
35.552	8.0
35.567	5.0
35.581	13.0
35.596	12.0
35.611	16.0
35.626	10.0
35.641	14.0
35.655	11.0
35.67	10.0
35.685	12.0
35.7	27.0
35.715	17.0
35.729	20.0
35.744	18.0
35.759	16.0
35.774	13.0
35.789	16.0
35.804	16.0
35.818	21.0
35.833	13.0
35.848	15.0
35.863	13.0
35.878	14.0
35.892	7.0
35.907	16.0
35.922	7.0
35.937	20.0
35.952	20.0
35.966	12.0
35.981	13.0
35.996	18.0
36.011	15.0
36.026	17.0
36.04	13.0
36.055	12.0
36.07	13.0
36.085	12.0
36.1	6.0
36.114	10.0
36.129	15.0
36.144	2.0
36.159	11.0
36.174	6.0
36.189	6.0
36.203	4.0
36.218	4.0
36.233	4.0
36.248	7.0
36.263	8.0
36.277	5.0
36.292	7.0
36.307	12.0
36.322	12.0
36.337	4.0
36.351	6.0
36.366	8.0
36.381	3.0
36.396	12.0
36.411	11.0
36.426	7.0
36.44	3.0
36.455	15.0
36.47	7.0
36.485	7.0
36.5	10.0
36.514	10.0
36.529	8.0
36.544	11.0
36.559	12.0
36.574	3.0
36.589	8.0
36.603	8.0
36.618	8.0
36.633	7.0
36.648	8.0
36.663	10.0
36.677	8.0
36.692	6.0
36.707	10.0
36.722	4.0
36.737	8.0
36.752	7.0
36.766	10.0
36.781	5.0
36.796	9.0
36.811	6.0
36.826	9.0
36.841	4.0
36.855	11.0
36.87	10.0
36.885	9.0
36.9	10.0
36.915	5.0
36.93	8.0
36.944	6.0
36.959	9.0
36.974	10.0
36.989	10.0
37.004	11.0
37.019	10.0
37.033	12.0
37.048	13.0
37.063	11.0
37.078	20.0
37.093	20.0
37.108	21.0
37.123	20.0
37.137	25.0
37.152	27.0
37.167	31.0
37.182	28.0
37.197	30.0
37.212	23.0
37.226	22.0
37.241	25.0
37.256	24.0
37.271	19.0
37.286	24.0
37.301	15.0
37.316	19.0
37.331	16.0
37.345	23.0
37.36	14.0
37.375	15.0
37.39	20.0
37.405	22.0
37.42	15.0
37.435	22.0
37.45	18.0
37.464	15.0
37.479	15.0
37.494	10.0
37.509	5.0
37.524	14.0
37.539	10.0
37.554	8.0
37.569	9.0
37.583	8.0
37.598	9.0
37.613	8.0
37.628	8.0
37.643	12.0
37.658	12.0
37.673	10.0
37.688	6.0
37.703	10.0
37.718	8.0
37.733	4.0
37.747	6.0
37.762	4.0
37.777	8.0
37.792	7.0
37.807	5.0
37.822	12.0
37.837	6.0
37.852	9.0
37.867	3.0
37.882	6.0
37.897	8.0
37.912	3.0
37.927	8.0
37.941	6.0
37.956	4.0
37.971	7.0
37.986	9.0
38.001	7.0
38.016	9.0
38.031	10.0
38.046	12.0
38.061	8.0
38.076	4.0
38.091	7.0
38.106	5.0
38.121	7.0
38.136	6.0
38.151	2.0
38.166	7.0
38.181	7.0
38.196	10.0
38.211	4.0
38.226	6.0
38.241	5.0
38.256	8.0
38.271	5.0
38.285	4.0
38.3	5.0
38.315	2.0
38.33	10.0
38.345	6.0
38.36	4.0
38.375	9.0
38.39	2.0
38.405	2.0
38.42	9.0
38.435	8.0
38.45	6.0
38.465	9.0
38.48	6.0
38.495	7.0
38.51	12.0
38.525	6.0
38.54	2.0
38.555	6.0
38.57	5.0
38.585	7.0
38.6	7.0
38.615	5.0
38.63	5.0
38.645	2.0
38.66	4.0
38.675	3.0
38.69	3.0
38.705	6.0
38.72	5.0
38.735	5.0
38.75	4.0
38.765	10.0
38.78	3.0
38.795	10.0
38.81	8.0
38.825	5.0
38.84	4.0
38.855	5.0
38.87	6.0
38.885	5.0
38.9	5.0
38.915	3.0
38.93	1.0
38.945	0.0
38.96	8.0
38.975	5.0
38.99	7.0
39.005	2.0
39.02	9.0
39.035	7.0
39.05	10.0
39.065	5.0
39.08	12.0
39.095	3.0
39.11	7.0
39.125	5.0
39.14	6.0
39.155	8.0
39.17	3.0
39.185	7.0
39.2	6.0
39.215	4.0
39.23	5.0
39.245	9.0
39.26	4.0
39.275	7.0
39.29	10.0
39.305	2.0
39.32	4.0
39.335	7.0
39.35	5.0
39.365	8.0
39.38	7.0
39.395	7.0
39.409	9.0
39.424	6.0
39.439	8.0
39.454	8.0
39.469	6.0
39.484	3.0
39.499	7.0
39.514	9.0
39.529	7.0
39.544	4.0
39.559	2.0
39.574	8.0
39.589	6.0
39.604	3.0
39.619	6.0
39.634	6.0
39.649	12.0
39.664	4.0
39.678	11.0
39.693	6.0
39.708	7.0
39.723	7.0
39.738	5.0
39.753	8.0
39.768	7.0
39.783	10.0
39.798	4.0
39.813	11.0
39.827	10.0
39.842	9.0
39.857	14.0
39.872	7.0
39.887	8.0
39.902	7.0
39.917	10.0
39.932	6.0
39.947	10.0
39.961	9.0
39.976	9.0
39.991	11.0
40.006	5.0
40.021	5.0
40.036	4.0
40.051	10.0
40.065	6.0
40.08	8.0
40.095	3.0
40.11	10.0
40.125	7.0
40.14	7.0
40.154	7.0
40.169	10.0
40.184	7.0
40.199	5.0
40.214	5.0
40.228	6.0
40.243	7.0
40.258	6.0
40.273	10.0
40.288	9.0
40.302	6.0
40.317	5.0
40.332	7.0
40.347	5.0
40.362	4.0
40.376	5.0
40.391	5.0
40.406	9.0
40.421	7.0
40.436	2.0
40.45	3.0
40.465	4.0
40.48	15.0
40.495	4.0
40.509	5.0
40.524	6.0
40.539	3.0
40.554	5.0
40.568	7.0
40.583	8.0
40.598	11.0
40.613	5.0
40.627	5.0
40.642	4.0
40.657	8.0
40.672	3.0
40.686	3.0
40.701	6.0
40.716	5.0
40.731	7.0
40.745	9.0
40.76	7.0
40.775	6.0
40.79	8.0
40.804	3.0
40.819	8.0
40.834	4.0
40.849	8.0
40.863	3.0
40.878	5.0
40.893	5.0
40.907	9.0
40.922	8.0
40.937	5.0
40.952	5.0
40.966	7.0
40.981	5.0
40.996	6.0
41.011	11.0
41.025	16.0
41.04	10.0
41.055	19.0
41.069	15.0
41.084	23.0
41.099	18.0
41.114	24.0
41.128	19.0
41.143	12.0
41.158	24.0
41.173	17.0
41.187	25.0
41.202	9.0
41.217	18.0
41.231	4.0
41.246	15.0
41.261	13.0
41.276	11.0
41.29	7.0
41.305	11.0
41.32	15.0
41.335	10.0
41.349	11.0
41.364	16.0
41.379	17.0
41.393	14.0
41.408	14.0
41.423	6.0
41.438	9.0
41.452	16.0
41.467	6.0
41.482	6.0
41.497	7.0
41.511	8.0
41.526	3.0
41.541	5.0
41.556	7.0
41.57	3.0
41.585	6.0
41.6	6.0
41.615	4.0
41.629	10.0
41.644	11.0
41.659	10.0
41.674	3.0
41.688	2.0
41.703	6.0
41.718	8.0
41.733	4.0
41.747	8.0
41.762	5.0
41.777	1.0
41.792	6.0
41.806	9.0
41.821	9.0
41.836	5.0
41.851	6.0
41.866	4.0
41.88	5.0
41.895	2.0
41.91	5.0
41.925	9.0
41.939	6.0
41.954	11.0
41.969	2.0
41.984	7.0
41.999	6.0
42.013	6.0
42.028	7.0
42.043	6.0
42.058	5.0
42.073	2.0
42.088	7.0
42.102	7.0
42.117	7.0
42.132	4.0
42.147	3.0
42.162	3.0
42.176	5.0
42.191	4.0
42.206	5.0
42.221	7.0
42.236	7.0
42.251	9.0
42.266	13.0
42.28	6.0
42.295	11.0
42.31	14.0
42.325	5.0
42.34	13.0
42.355	17.0
42.369	12.0
42.384	18.0
42.399	10.0
42.414	14.0
42.429	13.0
42.444	10.0
42.459	9.0
42.474	15.0
42.488	8.0
42.503	4.0
42.518	6.0
42.533	8.0
42.548	10.0
42.563	9.0
42.578	10.0
42.593	9.0
42.608	13.0
42.622	13.0
42.637	12.0
42.652	7.0
42.667	13.0
42.682	13.0
42.697	12.0
42.712	9.0
42.727	6.0
42.742	11.0
42.757	6.0
42.772	5.0
42.786	7.0
42.801	3.0
42.816	10.0
42.831	7.0
42.846	4.0
42.861	5.0
42.876	5.0
42.891	5.0
42.906	6.0
42.921	12.0
42.936	5.0
42.951	12.0
42.966	4.0
42.981	12.0
42.996	4.0
43.011	3.0
43.025	3.0
43.04	4.0
43.055	7.0
43.07	8.0
43.085	4.0
43.1	6.0
43.115	2.0
43.13	4.0
43.145	4.0
43.16	5.0
43.175	1.0
43.19	5.0
43.205	6.0
43.22	2.0
43.235	5.0
43.25	6.0
43.265	6.0
43.28	6.0
43.295	5.0
43.31	3.0
43.325	7.0
43.34	2.0
43.355	5.0
43.37	5.0
43.385	9.0
43.4	10.0
43.415	5.0
43.43	6.0
43.445	14.0
43.46	6.0
43.475	6.0
43.49	10.0
43.505	6.0
43.52	7.0
43.535	6.0
43.55	7.0
43.565	8.0
43.58	7.0
43.595	13.0
43.61	14.0
43.625	6.0
43.64	11.0
43.655	8.0
43.67	9.0
43.685	10.0
43.7	7.0
43.715	8.0
43.73	6.0
43.745	11.0
43.76	3.0
43.775	8.0
43.79	7.0
43.805	7.0
43.82	11.0
43.835	6.0
43.85	6.0
43.865	14.0
43.88	7.0
43.895	6.0
43.91	6.0
43.925	8.0
43.94	7.0
43.955	3.0
43.97	7.0
43.985	5.0
44.0	4.0
44.015	9.0
44.03	3.0
44.045	3.0
44.061	3.0
44.076	3.0
44.091	2.0
44.106	9.0
44.121	4.0
44.136	7.0
44.151	4.0
44.166	6.0
44.181	4.0
44.196	7.0
44.211	4.0
44.226	8.0
44.241	5.0
44.256	3.0
44.271	7.0
44.286	7.0
44.301	10.0
44.316	2.0
44.331	2.0
44.346	3.0
44.361	4.0
44.377	4.0
44.392	6.0
44.407	8.0
44.422	3.0
44.437	3.0
44.452	4.0
44.467	3.0
44.482	4.0
44.497	4.0
44.512	4.0
44.527	8.0
44.542	3.0
44.557	3.0
44.572	9.0
44.587	7.0
44.602	8.0
44.617	7.0
44.632	8.0
44.647	2.0
44.663	8.0
44.678	3.0
44.693	4.0
44.708	7.0
44.723	11.0
44.738	10.0
44.753	13.0
44.768	8.0
44.783	9.0
44.798	7.0
44.813	10.0
44.828	10.0
44.843	10.0
44.858	14.0
44.873	8.0
44.888	10.0
44.903	9.0
44.918	7.0
44.933	8.0
44.948	9.0
44.964	7.0
44.979	5.0
44.994	9.0
45.009	8.0
45.024	11.0
45.039	5.0
45.054	9.0
45.069	7.0
45.084	12.0
45.099	5.0
45.114	8.0
45.129	8.0
45.144	8.0
45.159	12.0
45.174	7.0
45.189	8.0
45.204	7.0
45.219	5.0
45.234	10.0
45.249	4.0
45.264	3.0
45.279	5.0
45.294	4.0
45.309	1.0
45.324	7.0
45.339	2.0
45.354	6.0
45.369	5.0
45.384	3.0
45.399	3.0
45.414	3.0
45.429	5.0
45.444	4.0
45.459	5.0
45.474	3.0
45.489	5.0
45.504	3.0
45.519	5.0
45.534	8.0
45.549	5.0
45.564	0.0
45.579	8.0
45.594	4.0
45.609	8.0
45.624	2.0
45.639	4.0
45.654	4.0
45.669	4.0
45.684	4.0
45.699	4.0
45.714	5.0
45.729	4.0
45.744	4.0
45.759	4.0
45.774	2.0
45.789	9.0
45.804	6.0
45.819	8.0
45.834	6.0
45.849	8.0
45.864	10.0
45.879	9.0
45.894	14.0
45.909	9.0
45.924	15.0
45.939	13.0
45.954	17.0
45.969	15.0
45.984	19.0
45.998	17.0
46.013	13.0
46.028	17.0
46.043	14.0
46.058	14.0
46.073	15.0
46.088	4.0
46.103	9.0
46.118	10.0
46.133	6.0
46.148	6.0
46.163	9.0
46.178	13.0
46.192	10.0
46.207	7.0
46.222	9.0
46.237	11.0
46.252	10.0
46.267	11.0
46.282	4.0
46.297	8.0
46.312	15.0
46.327	9.0
46.341	16.0
46.356	8.0
46.371	8.0
46.386	5.0
46.401	9.0
46.416	3.0
46.431	7.0
46.446	8.0
46.46	9.0
46.475	4.0
46.49	4.0
46.505	8.0
46.52	11.0
46.535	3.0
46.55	1.0
46.564	5.0
46.579	6.0
46.594	3.0
46.609	8.0
46.624	4.0
46.639	5.0
46.654	1.0
46.668	3.0
46.683	2.0
46.698	3.0
46.713	2.0
46.728	9.0
46.743	5.0
46.758	3.0
46.772	7.0
46.787	4.0
46.802	3.0
46.817	5.0
46.832	7.0
46.847	3.0
46.861	7.0
46.876	2.0
46.891	6.0
46.906	2.0
46.921	3.0
46.936	4.0
46.95	4.0
46.965	4.0
46.98	6.0
46.995	6.0
47.01	7.0
47.025	7.0
47.039	10.0
47.054	7.0
47.069	11.0
47.084	14.0
47.099	13.0
47.113	10.0
47.128	11.0
47.143	8.0
47.158	12.0
47.173	6.0
47.188	12.0
47.202	10.0
47.217	12.0
47.232	4.0
47.247	9.0
47.262	4.0
47.277	8.0
47.291	8.0
47.306	3.0
47.321	7.0
47.336	4.0
47.351	10.0
47.365	8.0
47.38	9.0
47.395	8.0
47.41	5.0
47.425	4.0
47.44	10.0
47.454	8.0
47.469	11.0
47.484	11.0
47.499	7.0
47.514	3.0
47.528	4.0
47.543	6.0
47.558	10.0
47.573	10.0
47.588	3.0
47.603	4.0
47.617	8.0
47.632	5.0
47.647	4.0
47.662	3.0
47.677	8.0
47.691	4.0
47.706	3.0
47.721	3.0
47.736	1.0
47.751	6.0
47.766	3.0
47.78	8.0
47.795	4.0
47.81	6.0
47.825	2.0
47.84	2.0
47.855	6.0
47.869	4.0
47.884	10.0
47.899	8.0
47.914	12.0
47.929	5.0
47.944	4.0
47.958	4.0
47.973	2.0
47.988	2.0
48.003	4.0
48.018	5.0
48.033	3.0
48.047	7.0
48.062	4.0
48.077	4.0
48.092	3.0
48.107	2.0
48.122	2.0
48.137	7.0
48.151	2.0
48.166	5.0
48.181	3.0
48.196	3.0
48.211	5.0
48.226	6.0
48.241	4.0
48.255	7.0
48.27	6.0
48.285	5.0
48.3	9.0
48.315	4.0
48.33	3.0
48.345	4.0
48.359	4.0
48.374	7.0
48.389	3.0
48.404	1.0
48.419	8.0
48.434	2.0
48.449	4.0
48.464	3.0
48.478	5.0
48.493	2.0
48.508	0.0
48.523	4.0
48.538	1.0
48.553	2.0
48.568	9.0
48.583	7.0
48.597	4.0
48.612	4.0
48.627	4.0
48.642	4.0
48.657	2.0
48.672	3.0
48.687	7.0
48.702	3.0
48.717	6.0
48.731	2.0
48.746	3.0
48.761	7.0
48.776	4.0
48.791	8.0
48.806	4.0
48.821	4.0
48.836	7.0
48.851	1.0
48.866	5.0
48.88	2.0
48.895	3.0
48.91	1.0
48.925	1.0
48.94	3.0
48.955	5.0
48.97	4.0
48.985	4.0
49.0	4.0
49.015	5.0
49.03	1.0
49.044	8.0
49.059	3.0
49.074	7.0
49.089	4.0
49.104	8.0
49.119	3.0
49.134	7.0
49.149	4.0
49.164	6.0
49.179	4.0
49.194	3.0
49.209	6.0
49.224	3.0
49.238	5.0
49.253	0.0
49.268	7.0
49.283	5.0
49.298	6.0
49.313	9.0
49.328	5.0
49.343	9.0
49.358	9.0
49.373	2.0
49.388	8.0
49.403	7.0
49.418	10.0
49.433	7.0
49.448	8.0
49.463	11.0
49.478	6.0
49.492	8.0
49.507	4.0
49.522	6.0
49.537	8.0
49.552	10.0
49.567	4.0
49.582	8.0
49.597	7.0
49.612	5.0
49.627	4.0
49.642	5.0
49.657	7.0
49.672	4.0
49.687	8.0
49.702	10.0
49.717	11.0
49.732	7.0
49.747	7.0
49.762	6.0
49.777	9.0
49.792	7.0
49.807	5.0
49.822	4.0
49.837	3.0
49.852	8.0
49.867	6.0
49.882	4.0
49.897	3.0
49.912	6.0
49.927	3.0
49.942	3.0
49.957	7.0
49.971	2.0
49.986	6.0
50.001	3.0
50.016	8.0
50.031	5.0
50.046	3.0
50.061	5.0
50.076	5.0
50.091	6.0
50.106	5.0
50.121	2.0
50.136	2.0
50.151	6.0
50.166	8.0
50.181	5.0
50.196	4.0
50.211	6.0
50.226	3.0
50.241	3.0
50.256	4.0
50.271	5.0
50.286	4.0
50.302	6.0
50.317	8.0
50.332	6.0
50.347	7.0
50.362	4.0
50.377	6.0
50.392	12.0
50.407	7.0
50.422	6.0
50.437	5.0
50.452	10.0
50.467	9.0
50.482	10.0
50.497	7.0
50.512	13.0
50.527	6.0
50.542	4.0
50.557	5.0
50.572	2.0
50.587	8.0
50.602	3.0
50.617	3.0
50.632	7.0
50.647	4.0
50.662	5.0
50.677	6.0
50.692	6.0
50.707	9.0
50.722	5.0
50.737	6.0
50.752	10.0
50.767	3.0
50.782	4.0
50.797	5.0
50.812	3.0
50.828	8.0
50.843	9.0
50.858	5.0
50.873	7.0
50.888	5.0
50.903	9.0
50.918	1.0
50.933	7.0
50.948	6.0
50.963	4.0
50.978	1.0
50.993	6.0
51.008	3.0
51.023	6.0
51.038	2.0
51.053	5.0
51.068	8.0
51.083	4.0
51.098	6.0
51.114	4.0
51.129	6.0
51.144	9.0
51.159	2.0
51.174	7.0
51.189	4.0
51.204	5.0
51.219	3.0
51.234	1.0
51.249	4.0
51.264	5.0
51.279	4.0
51.294	6.0
51.309	5.0
51.324	6.0
51.34	6.0
51.355	6.0
51.37	4.0
51.385	4.0
51.4	9.0
51.415	6.0
51.43	14.0
51.445	10.0
51.46	4.0
51.475	19.0
51.49	14.0
51.505	11.0
51.52	14.0
51.535	13.0
51.551	17.0
51.566	7.0
51.581	14.0
51.596	15.0
51.611	17.0
51.626	8.0
51.641	12.0
51.656	8.0
51.671	3.0
51.686	3.0
51.701	7.0
51.716	7.0
51.732	6.0
51.747	9.0
51.762	5.0
51.777	5.0
51.792	5.0
51.807	12.0
51.822	10.0
51.837	9.0
51.852	9.0
51.867	8.0
51.882	10.0
51.898	7.0
51.913	15.0
51.928	8.0
51.943	7.0
51.958	4.0
51.973	8.0
51.988	9.0
52.003	8.0
52.018	4.0
52.033	6.0
52.048	7.0
52.064	6.0
52.079	6.0
52.094	5.0
52.109	9.0
52.124	7.0
52.139	4.0
52.154	2.0
52.169	6.0
52.184	3.0
52.199	6.0
52.215	3.0
52.23	4.0
52.245	5.0
52.26	4.0
52.275	9.0
52.29	3.0
52.305	3.0
52.32	4.0
52.335	7.0
52.35	4.0
52.366	6.0
52.381	5.0
52.396	5.0
52.411	9.0
52.426	2.0
52.441	4.0
52.456	9.0
52.471	3.0
52.486	5.0
52.502	8.0
52.517	6.0
52.532	10.0
52.547	4.0
52.562	10.0
52.577	5.0
52.592	12.0
52.607	6.0
52.622	7.0
52.637	3.0
52.653	14.0
52.668	7.0
52.683	8.0
52.698	3.0
52.713	4.0
52.728	3.0
52.743	3.0
52.758	3.0
52.774	5.0
52.789	3.0
52.804	6.0
52.819	5.0
52.834	6.0
52.849	3.0
52.864	11.0
52.879	10.0
52.894	5.0
52.91	7.0
52.925	9.0
52.94	10.0
52.955	6.0
52.97	5.0
52.985	4.0
53.0	2.0
53.015	3.0
53.031	5.0
53.046	1.0
53.061	7.0
53.076	8.0
53.091	9.0
53.106	5.0
53.121	4.0
53.136	8.0
53.152	2.0
53.167	2.0
53.182	5.0
53.197	2.0
53.212	0.0
53.227	9.0
53.242	4.0
53.257	3.0
53.273	1.0
53.288	1.0
53.303	3.0
53.318	7.0
53.333	5.0
53.348	6.0
53.363	5.0
53.379	4.0
53.394	3.0
53.409	6.0
53.424	4.0
53.439	1.0
53.454	9.0
53.469	6.0
53.484	7.0
53.5	6.0
53.515	4.0
53.53	8.0
53.545	5.0
53.56	4.0
53.575	4.0
53.59	8.0
53.606	4.0
53.621	3.0
53.636	9.0
53.651	4.0
53.666	3.0
53.681	6.0
53.696	2.0
53.712	4.0
53.727	6.0
53.742	4.0
53.757	5.0
53.772	5.0
53.787	8.0
53.802	5.0
53.818	6.0
53.833	6.0
53.848	7.0
53.863	7.0
53.878	2.0
53.893	3.0
53.909	5.0
53.924	5.0
53.939	4.0
53.954	2.0
53.969	4.0
53.984	6.0
53.999	5.0
54.015	4.0
54.03	6.0
54.045	3.0
54.06	3.0
54.075	4.0
54.09	9.0
54.106	0.0
54.121	7.0
54.136	6.0
54.151	6.0
54.166	6.0
54.181	9.0
54.197	3.0
54.212	8.0
54.227	4.0
54.242	7.0
54.257	7.0
54.272	4.0
54.288	2.0
54.303	1.0
54.318	3.0
54.333	4.0
54.348	6.0
54.363	7.0
54.379	4.0
54.394	5.0
54.409	5.0
54.424	3.0
54.439	4.0
54.454	4.0
54.47	4.0
54.485	2.0
54.5	4.0
54.515	6.0
54.53	4.0
54.545	14.0
54.561	7.0
54.576	7.0
54.591	9.0
54.606	11.0
54.621	14.0
54.636	7.0
54.652	12.0
54.667	19.0
54.682	8.0
54.697	11.0
54.712	5.0
54.727	3.0
54.743	8.0
54.758	9.0
54.773	7.0
54.788	5.0
54.803	7.0
54.819	6.0
54.834	5.0
54.849	5.0
54.864	4.0
54.879	5.0
54.894	4.0
54.91	8.0
54.925	14.0
54.94	4.0
54.955	6.0
54.97	11.0
54.985	10.0
55.001	7.0
55.016	8.0
55.031	9.0
55.046	9.0
55.061	8.0
55.077	10.0
55.092	3.0
55.107	6.0
55.122	3.0
55.137	5.0
55.152	4.0
55.168	5.0
55.183	7.0
55.198	6.0
55.213	4.0
55.228	8.0
55.243	5.0
55.259	6.0
55.274	4.0
55.289	5.0
55.304	3.0
55.319	6.0
55.335	5.0
55.35	5.0
55.365	7.0
55.38	10.0
55.395	4.0
55.41	3.0
55.426	3.0
55.441	7.0
55.456	5.0
55.471	3.0
55.486	4.0
55.501	11.0
55.517	3.0
55.532	4.0
55.547	3.0
55.562	9.0
55.577	4.0
55.592	14.0
55.608	7.0
55.623	6.0
55.638	8.0
55.653	6.0
55.668	7.0
55.683	7.0
55.699	7.0
55.714	11.0
55.729	7.0
55.744	8.0
55.759	5.0
55.774	5.0
55.79	4.0
55.805	9.0
55.82	5.0
55.835	6.0
55.85	6.0
55.865	2.0
55.881	5.0
55.896	4.0
55.911	6.0
55.926	2.0
55.941	3.0
55.956	4.0
55.972	7.0
55.987	7.0
56.002	6.0
56.017	8.0
56.032	7.0
56.047	9.0
56.063	5.0
56.078	4.0
56.093	5.0
56.108	12.0
56.123	6.0
56.138	5.0
56.154	3.0
56.169	2.0
56.184	3.0
56.199	4.0
56.214	4.0
56.229	1.0
56.244	7.0
56.26	6.0
56.275	4.0
56.29	6.0
56.305	4.0
56.32	4.0
56.335	6.0
56.351	3.0
56.366	4.0
56.381	3.0
56.396	6.0
56.411	12.0
56.426	4.0
56.441	1.0
56.457	3.0
56.472	7.0
56.487	3.0
56.502	4.0
56.517	2.0
56.532	2.0
56.547	4.0
56.563	3.0
56.578	6.0
56.593	4.0
56.608	4.0
56.623	1.0
56.638	7.0
56.653	2.0
56.668	6.0
56.684	1.0
56.699	7.0
56.714	5.0
56.729	6.0
56.744	6.0
56.759	4.0
56.774	3.0
56.79	4.0
56.805	2.0
56.82	3.0
56.835	0.0
56.85	3.0
56.865	3.0
56.88	3.0
56.895	3.0
56.911	3.0
56.926	4.0
56.941	3.0
56.956	9.0
56.971	5.0
56.986	3.0
57.001	4.0
57.016	2.0
57.031	3.0
57.047	2.0
57.062	2.0
57.077	1.0
57.092	3.0
57.107	5.0
57.122	3.0
57.137	7.0
57.152	5.0
57.167	3.0
57.183	2.0
57.198	2.0
57.213	4.0
57.228	4.0
57.243	5.0
57.258	4.0
57.273	2.0
57.288	2.0
57.303	3.0
57.318	5.0
57.334	4.0
57.349	3.0
57.364	0.0
57.379	5.0
57.394	4.0
57.409	2.0
57.424	4.0
57.439	5.0
57.454	6.0
57.469	5.0
57.484	4.0
57.5	4.0
57.515	4.0
57.53	5.0
57.545	6.0
57.56	2.0
57.575	6.0
57.59	7.0
57.605	5.0
57.62	5.0
57.635	6.0
57.65	7.0
57.665	7.0
57.68	9.0
57.696	5.0
57.711	8.0
57.726	8.0
57.741	3.0
57.756	7.0
57.771	3.0
57.786	5.0
57.801	2.0
57.816	3.0
57.831	5.0
57.846	8.0
57.861	6.0
57.876	3.0
57.891	5.0
57.906	7.0
57.921	2.0
57.937	9.0
57.952	6.0
57.967	3.0
57.982	4.0
57.997	4.0
58.012	3.0
58.027	2.0
58.042	6.0
58.057	6.0
58.072	2.0
58.087	7.0
58.102	6.0
58.117	2.0
58.132	6.0
58.147	5.0
58.162	4.0
58.177	1.0
58.192	2.0
58.207	6.0
58.222	5.0
58.237	2.0
58.252	10.0
58.267	6.0
58.282	3.0
58.297	3.0
58.312	7.0
58.327	4.0
58.342	5.0
58.357	5.0
58.372	1.0
58.387	4.0
58.402	3.0
58.418	5.0
58.433	6.0
58.448	1.0
58.463	5.0
58.478	3.0
58.493	3.0
58.508	5.0
58.523	8.0
58.538	9.0
58.553	9.0
58.568	8.0
58.583	4.0
58.598	10.0
58.613	9.0
58.628	8.0
58.643	8.0
58.658	8.0
58.673	10.0
58.688	6.0
58.703	1.0
58.718	5.0
58.733	12.0
58.748	4.0
58.763	6.0
58.778	6.0
58.793	8.0
58.808	8.0
58.823	3.0
58.838	2.0
58.853	1.0
58.868	5.0
58.883	2.0
58.898	4.0
58.913	3.0
58.928	3.0
58.942	3.0
58.957	8.0
58.972	2.0
58.987	5.0
59.002	4.0
59.017	5.0
59.032	7.0
59.047	8.0
59.062	3.0
59.077	4.0
59.092	10.0
59.107	8.0
59.122	6.0
59.137	4.0
59.152	4.0
59.167	3.0
59.182	6.0
59.197	6.0
59.212	5.0
59.227	3.0
59.242	7.0
59.257	4.0
59.272	4.0
59.287	5.0
59.302	1.0
59.317	4.0
59.332	5.0
59.347	4.0
59.362	1.0
59.377	1.0
59.392	5.0
59.407	4.0
59.422	4.0
59.437	3.0
59.452	5.0
59.467	5.0
59.482	4.0
59.497	6.0
59.512	3.0
59.527	4.0
59.542	9.0
59.557	5.0
59.572	6.0
59.587	11.0
59.602	14.0
59.617	10.0
59.632	15.0
59.647	6.0
59.661	5.0
59.676	4.0
59.691	8.0
59.706	4.0
59.721	9.0
59.736	9.0
59.751	5.0
59.766	3.0
59.781	2.0
59.796	4.0
59.811	4.0
59.826	3.0
59.841	2.0
59.856	7.0
59.871	4.0
59.886	5.0
59.901	4.0
59.916	3.0
59.931	4.0
59.946	3.0
59.961	6.0
59.976	5.0
59.991	7.0
60.006	7.0
60.021	3.0
60.036	6.0
60.051	8.0
60.066	5.0
60.081	6.0
60.096	4.0
60.111	5.0
60.126	7.0
60.141	3.0
60.156	3.0
60.171	5.0
60.186	1.0
60.201	6.0
60.216	8.0
60.231	6.0
60.246	6.0
60.261	3.0
60.276	4.0
60.291	2.0
60.306	5.0
60.321	7.0
60.336	5.0
60.35	4.0
60.365	1.0
60.38	3.0
60.395	5.0
60.41	2.0
60.425	4.0
60.44	5.0
60.455	3.0
60.47	4.0
60.485	4.0
60.5	9.0
60.515	7.0
60.53	4.0
60.545	6.0
60.56	5.0
60.575	7.0
60.59	6.0
60.605	10.0
60.62	5.0
60.635	10.0
60.65	4.0
60.665	3.0
60.68	4.0
60.695	8.0
60.71	5.0
60.725	2.0
60.74	3.0
60.755	4.0
60.77	3.0
60.785	9.0
60.8	1.0
60.815	5.0
60.83	4.0
60.845	5.0
60.86	3.0
60.875	2.0
60.89	2.0
60.905	7.0
60.92	10.0
60.935	1.0
60.95	6.0
60.965	5.0
60.98	6.0
60.995	4.0
61.01	5.0
61.025	6.0
61.04	3.0
61.055	5.0
61.07	5.0
61.085	4.0
61.1	3.0
61.115	5.0
61.13	3.0
61.145	5.0
61.16	3.0
61.175	3.0
61.191	4.0
61.206	1.0
61.221	5.0
61.236	3.0
61.251	4.0
61.266	9.0
61.281	2.0
61.296	0.0
61.311	2.0
61.326	2.0
61.341	3.0
61.356	5.0
61.371	6.0
61.386	6.0
61.401	6.0
61.416	7.0
61.431	10.0
61.446	1.0
61.461	5.0
61.476	3.0
61.491	7.0
61.506	6.0
61.521	0.0
61.536	5.0
61.551	3.0
61.566	4.0
61.581	7.0
61.596	5.0
61.611	4.0
61.626	3.0
61.641	4.0
61.656	6.0
61.672	4.0
61.687	5.0
61.702	3.0
61.717	6.0
61.732	3.0
61.747	4.0
61.762	3.0
61.777	3.0
61.792	3.0
61.807	5.0
61.822	5.0
61.837	4.0
61.852	2.0
61.867	2.0
61.882	7.0
61.897	1.0
61.912	3.0
61.927	0.0
61.943	4.0
61.958	5.0
61.973	2.0
61.988	4.0
62.003	2.0
62.018	0.0
62.033	3.0
62.048	3.0
62.063	4.0
62.078	10.0
62.093	4.0
62.108	1.0
62.123	4.0
62.138	4.0
62.153	4.0
62.169	3.0
62.184	4.0
62.199	3.0
62.214	1.0
62.229	3.0
62.244	3.0
62.259	3.0
62.274	3.0
62.289	1.0
62.304	5.0
62.319	3.0
62.335	1.0
62.35	4.0
62.365	4.0
62.38	2.0
62.395	1.0
62.41	5.0
62.425	5.0
62.44	5.0
62.455	4.0
62.47	4.0
62.485	9.0
62.501	3.0
62.516	4.0
62.531	3.0
62.546	3.0
62.561	5.0
62.576	6.0
62.591	5.0
62.606	2.0
62.621	5.0
62.636	3.0
62.652	2.0
62.667	3.0
62.682	5.0
62.697	5.0
62.712	3.0
62.727	3.0
62.742	3.0
62.757	4.0
62.772	1.0
62.787	3.0
62.803	4.0
62.818	3.0
62.833	5.0
62.848	6.0
62.863	6.0
62.878	7.0
62.893	1.0
62.908	3.0
62.923	6.0
62.939	6.0
62.954	5.0
62.969	3.0
62.984	3.0
62.999	6.0
63.014	5.0
63.029	3.0
63.044	5.0
63.059	6.0
63.074	3.0
63.09	2.0
63.105	6.0
63.12	2.0
63.135	4.0
63.15	3.0
63.165	5.0
63.18	5.0
63.195	3.0
63.21	2.0
63.226	3.0
63.241	3.0
63.256	4.0
63.271	1.0
63.286	5.0
63.301	7.0
63.316	11.0
63.331	3.0
63.346	9.0
63.362	3.0
63.377	5.0
63.392	6.0
63.407	8.0
63.422	9.0
63.437	2.0
63.452	7.0
63.467	4.0
63.482	5.0
63.497	4.0
63.513	8.0
63.528	4.0
63.543	6.0
63.558	4.0
63.573	3.0
63.588	4.0
63.603	3.0
63.618	4.0
63.633	4.0
63.648	5.0
63.664	2.0
63.679	3.0
63.694	3.0
63.709	6.0
63.724	4.0
63.739	4.0
63.754	5.0
63.769	6.0
63.784	6.0
63.799	3.0
63.814	1.0
63.83	2.0
63.845	7.0
63.86	5.0
63.875	4.0
63.89	2.0
63.905	5.0
63.92	6.0
63.935	5.0
63.95	3.0
63.965	2.0
63.98	4.0
63.996	4.0
64.011	6.0
64.026	3.0
64.041	7.0
64.056	3.0
64.071	5.0
64.086	3.0
64.101	6.0
64.116	7.0
64.131	1.0
64.146	4.0
64.161	1.0
64.176	1.0
64.191	4.0
64.207	3.0
64.222	3.0
64.237	1.0
64.252	2.0
64.267	4.0
64.282	7.0
64.297	4.0
64.312	4.0
64.327	1.0
64.342	8.0
64.357	4.0
64.372	3.0
64.387	0.0
64.402	4.0
64.417	8.0
64.433	2.0
64.448	2.0
64.463	3.0
64.478	7.0
64.493	3.0
64.508	2.0
64.523	2.0
64.538	4.0
64.553	2.0
64.568	3.0
64.583	5.0
64.598	1.0
64.613	2.0
64.628	2.0
64.643	4.0
64.658	3.0
64.673	2.0
64.688	6.0
64.703	3.0
64.718	7.0
64.734	3.0
64.749	4.0
64.764	5.0
64.779	6.0
64.794	3.0
64.809	2.0
64.824	2.0
64.839	2.0
64.854	4.0
64.869	2.0
64.884	1.0
64.899	7.0
64.914	3.0
64.929	2.0
64.944	4.0
64.959	2.0
64.974	3.0
64.989	3.0
65.004	4.0
65.019	3.0
65.034	2.0
65.049	7.0
65.064	4.0
65.079	5.0
65.094	3.0
65.109	1.0
65.125	5.0
65.14	2.0
65.155	5.0
65.17	2.0
65.185	2.0
65.2	4.0
65.215	4.0
65.23	3.0
65.245	4.0
65.26	8.0
65.275	4.0
65.29	4.0
65.305	4.0
65.32	8.0
65.335	4.0
65.35	3.0
65.365	2.0
65.38	6.0
65.395	4.0
65.41	4.0
65.425	1.0
65.44	4.0
65.455	1.0
65.47	3.0
65.485	9.0
65.5	2.0
65.515	3.0
65.53	4.0
65.545	1.0
65.56	1.0
65.575	3.0
65.59	4.0
65.605	5.0
65.62	3.0
65.635	0.0
65.65	5.0
65.666	6.0
65.681	4.0
65.696	3.0
65.711	5.0
65.726	5.0
65.741	8.0
65.756	3.0
65.771	2.0
65.786	4.0
65.801	6.0
65.816	1.0
65.831	3.0
65.846	2.0
65.861	4.0
65.876	3.0
65.891	1.0
65.906	9.0
65.921	0.0
65.936	5.0
65.951	2.0
65.966	3.0
65.981	2.0
65.996	6.0
66.011	2.0
66.026	3.0
66.041	5.0
66.056	4.0
66.071	4.0
66.086	4.0
66.101	3.0
66.116	11.0
66.131	4.0
66.146	8.0
66.161	10.0
66.176	5.0
66.191	9.0
66.206	8.0
66.221	7.0
66.236	8.0
66.251	11.0
66.266	5.0
66.281	4.0
66.296	1.0
66.311	6.0
66.327	7.0
66.342	3.0
66.357	3.0
66.372	2.0
66.387	4.0
66.402	4.0
66.417	6.0
66.432	4.0
66.447	3.0
66.462	2.0
66.477	1.0
66.492	3.0
66.507	0.0
66.522	8.0
66.537	8.0
66.552	4.0
66.567	3.0
66.582	2.0
66.597	6.0
66.612	7.0
66.627	5.0
66.642	8.0
66.657	4.0
66.672	6.0
66.687	5.0
66.702	3.0
66.717	3.0
66.732	4.0
66.747	5.0
66.762	8.0
66.777	7.0
66.792	5.0
66.807	3.0
66.822	3.0
66.837	4.0
66.853	5.0
66.868	3.0
66.883	5.0
66.898	4.0
66.913	2.0
66.928	1.0
66.943	2.0
66.958	5.0
66.973	5.0
66.988	4.0
67.003	7.0
67.018	6.0
67.033	5.0
67.048	5.0
67.063	2.0
67.078	2.0
67.093	6.0
67.108	2.0
67.123	5.0
67.138	4.0
67.153	2.0
67.168	3.0
67.183	3.0
67.198	6.0
67.214	4.0
67.229	3.0
67.244	6.0
67.259	4.0
67.274	6.0
67.289	3.0
67.304	2.0
67.319	0.0
67.334	4.0
67.349	4.0
67.364	1.0
67.379	0.0
67.394	8.0
67.409	3.0
67.424	4.0
67.439	1.0
67.454	4.0
67.469	8.0
67.484	7.0
67.5	1.0
67.515	4.0
67.53	4.0
67.545	10.0
67.56	6.0
67.575	4.0
67.59	4.0
67.605	6.0
67.62	7.0
67.635	2.0
67.65	3.0
67.665	3.0
67.68	6.0
67.695	1.0
67.71	1.0
67.726	4.0
67.741	4.0
67.756	6.0
67.771	1.0
67.786	5.0
67.801	6.0
67.816	2.0
67.831	5.0
67.846	6.0
67.861	5.0
67.876	2.0
67.891	3.0
67.906	0.0
67.922	5.0
67.937	4.0
67.952	6.0
67.967	3.0
67.982	7.0
67.997	7.0
68.012	3.0
68.027	3.0
68.042	5.0
68.057	5.0
68.072	5.0
68.087	2.0
68.103	4.0
68.118	2.0
68.133	1.0
68.148	3.0
68.163	3.0
68.178	0.0
68.193	6.0
68.208	5.0
68.223	3.0
68.238	4.0
68.254	2.0
68.269	3.0
68.284	5.0
68.299	2.0
68.314	4.0
68.329	3.0
68.344	3.0
68.359	6.0
68.374	6.0
68.389	5.0
68.405	1.0
68.42	4.0
68.435	2.0
68.45	6.0
68.465	6.0
68.48	5.0
68.495	3.0
68.51	2.0
68.525	3.0
68.54	6.0
68.556	2.0
68.571	6.0
68.586	2.0
68.601	3.0
68.616	7.0
68.631	1.0
68.646	3.0
68.661	4.0
68.676	3.0
68.691	5.0
68.707	4.0
68.722	7.0
68.737	2.0
68.752	4.0
68.767	1.0
68.782	5.0
68.797	0.0
68.812	7.0
68.827	5.0
68.842	3.0
68.857	3.0
68.873	3.0
68.888	5.0
68.903	2.0
68.918	6.0
68.933	4.0
68.948	8.0
68.963	7.0
68.978	3.0
68.993	1.0
69.008	6.0
69.023	5.0
69.038	5.0
69.054	2.0
69.069	0.0
69.084	6.0
69.099	5.0
69.114	3.0
69.129	1.0
69.144	5.0
69.159	6.0
69.174	3.0
69.189	3.0
69.204	4.0
69.219	1.0
69.234	5.0
69.249	2.0
69.264	3.0
69.279	3.0
69.295	1.0
69.31	0.0
69.325	5.0
69.34	1.0
69.355	1.0
69.37	4.0
69.385	3.0
69.4	11.0
69.415	3.0
69.43	5.0
69.445	4.0
69.46	3.0
69.475	3.0
69.49	3.0
69.505	1.0
69.52	7.0
69.535	3.0
69.55	5.0
69.565	4.0
69.58	3.0
69.595	7.0
69.61	7.0
69.625	2.0
69.64	4.0
69.655	4.0
69.67	7.0
69.685	4.0
69.7	1.0
69.715	4.0
69.73	6.0
69.745	9.0
69.76	5.0
69.775	7.0
69.79	7.0
69.805	10.0
69.82	9.0
69.835	6.0
69.85	4.0
69.865	5.0
69.88	2.0
69.895	4.0
69.909	6.0
69.924	7.0
69.939	0.0
69.954	6.0
69.969	6.0
69.984	6.0
69.999	7.0
70.014	3.0
70.029	4.0
70.044	2.0
70.059	4.0
70.074	3.0
70.088	2.0
70.103	2.0
70.118	3.0
70.133	1.0
70.148	1.0
70.163	5.0
70.178	4.0
70.193	4.0
70.208	3.0
70.222	3.0
70.237	5.0
70.252	5.0
70.267	3.0
70.282	6.0
70.297	4.0
70.312	6.0
70.327	2.0
70.341	1.0
70.356	2.0
70.371	9.0
70.386	3.0
70.401	7.0
70.416	2.0
70.43	3.0
70.445	9.0
70.46	1.0
70.475	5.0
70.49	3.0
70.505	3.0
70.519	2.0
70.534	4.0
70.549	1.0
70.564	3.0
70.579	8.0
70.594	2.0
70.608	2.0
70.623	6.0
70.638	3.0
70.653	5.0
70.668	5.0
70.683	5.0
70.697	5.0
70.712	8.0
70.727	12.0
70.742	6.0
70.757	6.0
70.771	3.0
70.786	9.0
70.801	3.0
70.816	4.0
70.831	2.0
70.845	5.0
70.86	4.0
70.875	3.0
70.89	4.0
70.905	5.0
70.92	4.0
70.934	4.0
70.949	5.0
70.964	2.0
70.979	3.0
70.994	6.0
71.008	5.0
71.023	2.0
71.038	2.0
71.053	2.0
71.068	2.0
71.082	4.0
71.097	5.0
71.112	6.0
71.127	7.0
71.142	4.0
71.156	6.0
71.171	4.0
71.186	6.0
71.201	6.0
71.216	7.0
71.231	3.0
71.245	2.0
71.26	5.0
71.275	3.0
71.29	2.0
71.305	1.0
71.319	1.0
71.334	1.0
71.349	4.0
71.364	2.0
71.379	6.0
71.394	1.0
71.408	4.0
71.423	1.0
71.438	2.0
71.453	2.0
71.468	8.0
71.483	4.0
71.497	3.0
71.512	7.0
71.527	2.0
71.542	2.0
71.557	2.0
71.572	3.0
71.586	3.0
71.601	0.0
71.616	4.0
71.631	5.0
71.646	4.0
71.661	2.0
71.676	5.0
71.69	2.0
71.705	2.0
71.72	1.0
71.735	4.0
71.75	1.0
71.765	2.0
71.78	3.0
71.795	0.0
71.81	2.0
71.824	3.0
71.839	3.0
71.854	4.0
71.869	4.0
71.884	4.0
71.899	1.0
71.914	3.0
71.929	2.0
71.944	5.0
71.959	3.0
71.974	4.0
71.988	4.0
72.003	5.0
72.018	1.0
72.033	3.0
72.048	2.0
72.063	4.0
72.078	4.0
72.093	3.0
72.108	2.0
72.123	4.0
72.138	3.0
72.153	4.0
72.168	2.0
72.183	4.0
72.198	2.0
72.213	5.0
72.228	5.0
72.243	3.0
72.258	5.0
72.273	3.0
72.288	0.0
72.303	6.0
72.318	3.0
72.333	1.0
72.348	6.0
72.363	5.0
72.378	6.0
72.393	1.0
72.408	5.0
72.423	1.0
72.438	3.0
72.453	2.0
72.468	5.0
72.483	3.0
72.498	3.0
72.513	1.0
72.528	4.0
72.543	8.0
72.558	3.0
72.573	4.0
72.588	3.0
72.603	3.0
72.618	3.0
72.633	7.0
72.649	3.0
72.664	2.0
72.679	6.0
72.694	5.0
72.709	0.0
72.724	6.0
72.739	6.0
72.754	1.0
72.769	1.0
72.784	5.0
72.799	3.0
72.814	4.0
72.829	3.0
72.845	1.0
72.86	0.0
72.875	2.0
72.89	4.0
72.905	2.0
72.92	4.0
72.935	4.0
72.95	2.0
72.965	5.0
72.98	3.0
72.996	2.0
73.011	3.0
73.026	5.0
73.041	3.0
73.056	3.0
73.071	4.0
73.086	1.0
73.101	7.0
73.117	5.0
73.132	2.0
73.147	5.0
73.162	6.0
73.177	1.0
73.192	1.0
73.207	3.0
73.222	1.0
73.238	5.0
73.253	9.0
73.268	8.0
73.283	3.0
73.298	5.0
73.313	1.0
73.328	7.0
73.343	2.0
73.359	5.0
73.374	4.0
73.389	5.0
73.404	4.0
73.419	7.0
73.434	3.0
73.449	0.0
73.465	2.0
73.48	4.0
73.495	3.0
73.51	7.0
73.525	3.0
73.54	2.0
73.556	2.0
73.571	1.0
73.586	2.0
73.601	1.0
73.616	2.0
73.631	3.0
73.646	4.0
73.662	3.0
73.677	4.0
73.692	2.0
73.707	5.0
73.722	3.0
73.737	3.0
73.752	2.0
73.768	4.0
73.783	1.0
73.798	5.0
73.813	4.0
73.828	4.0
73.843	3.0
73.859	7.0
73.874	6.0
73.889	2.0
73.904	3.0
73.919	2.0
73.934	3.0
73.949	4.0
73.965	5.0
73.98	3.0
73.995	3.0
74.01	3.0
74.025	3.0
74.04	4.0
74.056	4.0
74.071	8.0
74.086	2.0
74.101	4.0
74.116	5.0
74.131	3.0
74.146	7.0
74.162	5.0
74.177	7.0
74.192	9.0
74.207	6.0
74.222	7.0
74.237	3.0
74.252	3.0
74.268	6.0
74.283	6.0
74.298	1.0
74.313	3.0
74.328	2.0
74.343	3.0
74.358	5.0
74.374	2.0
74.389	4.0
74.404	4.0
74.419	5.0
74.434	3.0
74.449	3.0
74.464	2.0
74.48	3.0
74.495	8.0
74.51	1.0
74.525	3.0
74.54	4.0
74.555	1.0
74.57	5.0
74.586	2.0
74.601	5.0
74.616	4.0
74.631	6.0
74.646	2.0
74.661	3.0
74.676	3.0
74.691	3.0
74.707	6.0
74.722	1.0
74.737	6.0
74.752	2.0
74.767	6.0
74.782	4.0
74.797	6.0
74.813	4.0
74.828	2.0
74.843	4.0
74.858	4.0
74.873	4.0
74.888	6.0
74.903	2.0
74.918	3.0
74.934	2.0
74.949	7.0
74.964	5.0
74.979	5.0
74.994	9.0
75.009	4.0
75.024	3.0
75.04	7.0
75.055	3.0
75.07	8.0
75.085	3.0
75.1	5.0
75.115	4.0
75.13	2.0
75.145	1.0
75.161	4.0
75.176	4.0
75.191	2.0
75.206	1.0
75.221	4.0
75.236	2.0
75.251	3.0
75.266	2.0
75.282	5.0
75.297	0.0
75.312	6.0
75.327	3.0
75.342	8.0
75.357	4.0
75.372	5.0
75.387	3.0
75.403	1.0
75.418	3.0
75.433	3.0
75.448	3.0
75.463	5.0
75.478	4.0
75.493	1.0
75.509	3.0
75.524	4.0
75.539	2.0
75.554	8.0
75.569	4.0
75.584	3.0
75.599	7.0
75.614	3.0
75.63	4.0
75.645	5.0
75.66	4.0
75.675	2.0
75.69	5.0
75.705	4.0
75.72	4.0
75.735	5.0
75.751	7.0
75.766	4.0
75.781	2.0
75.796	1.0
75.811	1.0
75.826	3.0
75.841	4.0
75.856	5.0
75.872	3.0
75.887	6.0
75.902	4.0
75.917	2.0
75.932	2.0
75.947	3.0
75.962	2.0
75.977	2.0
75.993	3.0
76.008	4.0
76.023	3.0
76.038	5.0
76.053	3.0
76.068	6.0
76.083	3.0
76.098	1.0
76.114	4.0
76.129	2.0
76.144	2.0
76.159	2.0
76.174	6.0
76.189	2.0
76.204	4.0
76.22	2.0
76.235	6.0
76.25	4.0
76.265	2.0
76.28	5.0
76.295	3.0
76.31	7.0
76.325	2.0
76.341	1.0
76.356	3.0
76.371	3.0
76.386	5.0
76.401	6.0
76.416	7.0
76.431	4.0
76.446	3.0
76.462	4.0
76.477	4.0
76.492	3.0
76.507	6.0
76.522	3.0
76.537	0.0
76.552	4.0
76.567	3.0
76.583	7.0
76.598	2.0
76.613	3.0
76.628	3.0
76.643	3.0
76.658	4.0
76.673	3.0
76.688	0.0
76.704	5.0
76.719	3.0
76.734	7.0
76.749	7.0
76.764	4.0
76.779	5.0
76.794	2.0
76.809	2.0
76.824	7.0
76.84	1.0
76.855	8.0
76.87	5.0
76.885	2.0
76.9	2.0
76.915	5.0
76.93	4.0
76.945	3.0
76.96	4.0
76.976	1.0
76.991	5.0
77.006	4.0
77.021	2.0
77.036	5.0
77.051	6.0
77.066	5.0
77.081	1.0
77.096	3.0
77.112	1.0
77.127	3.0
77.142	1.0
77.157	3.0
77.172	1.0
77.187	5.0
77.202	3.0
77.217	2.0
77.232	3.0
77.247	9.0
77.263	5.0
77.278	4.0
77.293	5.0
77.308	5.0
77.323	3.0
77.338	7.0
77.353	2.0
77.368	4.0
77.383	7.0
77.398	4.0
77.413	2.0
77.428	7.0
77.444	0.0
77.459	4.0
77.474	4.0
77.489	3.0
77.504	1.0
77.519	4.0
77.534	6.0
77.549	8.0
77.564	12.0
77.579	7.0
77.594	5.0
77.609	5.0
77.624	2.0
77.64	6.0
77.655	8.0
77.67	3.0
77.685	4.0
77.7	5.0
77.715	6.0
77.73	0.0
77.745	2.0
77.76	2.0
77.775	6.0
77.79	6.0
77.805	4.0
77.82	2.0
77.835	2.0
77.85	2.0
77.865	4.0
77.88	2.0
77.895	5.0
77.91	4.0
77.926	5.0
77.941	5.0
77.956	6.0
77.971	4.0
77.986	2.0
78.001	1.0
78.016	2.0
78.031	7.0
78.046	1.0
78.061	2.0
78.076	1.0
78.091	3.0
78.106	3.0
78.121	3.0
78.136	1.0
78.151	4.0
78.166	2.0
78.181	4.0
78.196	6.0
78.211	4.0
78.226	4.0
78.241	5.0
78.256	1.0
78.271	10.0
78.286	3.0
78.301	5.0
78.316	2.0
78.331	1.0
78.346	3.0
78.361	2.0
78.376	0.0
78.391	3.0
78.406	2.0
78.421	2.0
78.436	6.0
78.451	3.0
78.466	5.0
78.481	1.0
78.496	3.0
78.511	6.0
78.526	2.0
78.541	3.0
78.556	2.0
78.571	4.0
78.586	1.0
78.601	0.0
78.616	6.0
78.631	6.0
78.646	3.0
78.661	6.0
78.676	1.0
78.691	3.0
78.706	2.0
78.721	2.0
78.736	6.0
78.751	3.0
78.766	2.0
78.781	5.0
78.796	3.0
78.811	0.0
78.826	5.0
78.841	5.0
78.856	3.0
78.871	4.0
78.885	1.0
78.9	6.0
78.915	5.0
78.93	5.0
78.945	1.0
78.96	0.0
78.975	3.0
78.99	6.0
79.005	1.0
79.02	1.0
79.035	5.0
79.05	1.0
79.065	2.0
79.08	4.0
79.095	6.0
79.11	3.0
79.125	3.0
79.14	3.0
79.155	1.0
79.17	3.0
79.185	2.0
79.2	6.0
79.215	4.0
79.23	4.0
79.245	1.0
79.26	3.0
79.275	3.0
79.29	3.0
79.304	3.0
79.319	3.0
79.334	3.0
79.349	4.0
79.364	2.0
79.379	8.0
79.394	6.0
79.409	4.0
79.424	8.0
79.439	2.0
79.454	5.0
79.469	2.0
79.484	3.0
79.499	2.0
79.514	2.0
79.529	0.0
79.544	2.0
79.559	0.0
79.574	2.0
79.589	5.0
79.604	4.0
79.619	4.0
79.634	3.0
79.649	2.0
79.664	5.0
79.679	2.0
79.693	4.0
79.708	4.0
79.723	5.0
79.738	2.0
79.753	4.0
79.768	1.0
79.783	3.0
79.798	3.0
79.813	1.0
79.828	3.0
79.843	0.0
79.858	6.0
79.873	2.0
79.888	3.0
79.903	5.0
79.918	0.0
79.933	2.0
79.948	2.0
79.963	1.0
79.978	4.0
79.993	3.0
80.008	3.0
80.023	1.0
80.038	2.0
80.053	3.0
80.068	2.0
80.083	3.0
80.098	2.0
80.113	3.0
80.128	3.0
80.143	3.0
80.158	3.0
80.173	2.0
80.188	4.0
80.202	1.0
80.217	6.0
80.232	2.0
80.247	3.0
80.262	2.0
80.277	2.0
80.292	3.0
80.307	3.0
80.322	9.0
80.337	5.0
80.352	3.0
80.367	2.0
80.382	2.0
80.397	3.0
80.412	5.0
80.427	7.0
80.442	4.0
80.457	2.0
80.472	3.0
80.487	2.0
80.502	5.0
80.517	3.0
80.532	3.0
80.547	1.0
80.562	2.0
80.577	2.0
80.592	2.0
80.607	5.0
80.622	3.0
80.637	2.0
80.652	4.0
80.667	3.0
80.682	4.0
80.697	2.0
80.712	4.0
80.727	4.0
80.742	6.0
80.757	3.0
80.772	1.0
80.787	1.0
80.802	3.0
80.817	1.0
80.832	5.0
80.847	4.0
80.862	2.0
80.877	1.0
80.892	3.0
80.907	4.0
80.922	2.0
80.937	5.0
80.952	3.0
80.967	6.0
80.982	5.0
80.997	5.0
81.012	7.0
81.027	2.0
81.042	3.0
81.057	6.0
81.072	7.0
81.087	5.0
81.101	0.0
81.116	4.0
81.131	6.0
81.146	1.0
81.161	4.0
81.176	2.0
81.191	8.0
81.206	2.0
81.221	1.0
81.236	2.0
81.251	1.0
81.266	4.0
81.281	5.0
81.296	2.0
81.311	3.0
81.326	3.0
81.341	1.0
81.356	3.0
81.371	6.0
81.386	4.0
81.401	1.0
81.416	2.0
81.431	6.0
81.446	0.0
81.461	3.0
81.476	2.0
81.491	3.0
81.506	3.0
81.521	1.0
81.536	3.0
81.55	2.0
81.565	3.0
81.58	2.0
81.595	4.0
81.61	6.0
81.625	4.0
81.64	2.0
81.655	3.0
81.67	4.0
81.685	5.0
81.7	2.0
81.715	2.0
81.73	2.0
81.745	2.0
81.76	3.0
81.775	5.0
81.79	3.0
81.805	3.0
81.819	4.0
81.834	6.0
81.849	4.0
81.864	5.0
81.879	10.0
81.894	4.0
81.909	3.0
81.924	1.0
81.939	7.0
81.954	5.0
81.969	0.0
81.984	2.0
81.999	3.0
82.013	4.0
82.028	0.0
82.043	2.0
82.058	5.0
82.073	2.0
82.088	5.0
82.103	3.0
82.118	6.0
82.133	2.0
82.148	4.0
82.163	8.0
82.177	2.0
82.192	1.0
82.207	2.0
82.222	3.0
82.237	4.0
82.252	3.0
82.267	4.0
82.282	2.0
82.297	6.0
82.312	2.0
82.326	1.0
82.341	2.0
82.356	1.0
82.371	3.0
82.386	3.0
82.401	3.0
82.416	2.0
82.431	4.0
82.445	2.0
82.46	0.0
82.475	7.0
82.49	3.0
82.505	4.0
82.52	1.0
82.535	3.0
82.55	3.0
82.565	0.0
82.579	2.0
82.594	4.0
82.609	2.0
82.624	2.0
82.639	3.0
82.654	4.0
82.669	2.0
82.684	4.0
82.698	1.0
82.713	2.0
82.728	7.0
82.743	5.0
82.758	3.0
82.773	3.0
82.788	3.0
82.803	6.0
82.817	3.0
82.832	4.0
82.847	2.0
82.862	3.0
82.877	2.0
82.892	2.0
82.907	2.0
82.922	3.0
82.937	2.0
82.951	1.0
82.966	5.0
82.981	3.0
82.996	6.0
83.011	3.0
83.026	6.0
83.041	1.0
83.056	1.0
83.07	4.0
83.085	2.0
83.1	4.0
83.115	4.0
83.13	4.0
83.145	2.0
83.16	1.0
83.175	3.0
83.19	3.0
83.204	0.0
83.219	2.0
83.234	4.0
83.249	1.0
83.264	2.0
83.279	4.0
83.294	4.0
83.309	0.0
83.324	1.0
83.339	2.0
83.353	3.0
83.368	3.0
83.383	3.0
83.398	3.0
83.413	1.0
83.428	7.0
83.443	4.0
83.458	2.0
83.473	5.0
83.488	5.0
83.503	7.0
83.517	6.0
83.532	1.0
83.547	5.0
83.562	8.0
83.577	7.0
83.592	4.0
83.607	1.0
83.622	5.0
83.637	4.0
83.652	3.0
83.667	4.0
83.682	3.0
83.697	4.0
83.712	1.0
83.727	3.0
83.741	2.0
83.756	3.0
83.771	4.0
83.786	3.0
83.801	3.0
83.816	2.0
83.831	3.0
83.846	3.0
83.861	4.0
83.876	4.0
83.891	5.0
83.906	2.0
83.921	0.0
83.936	6.0
83.951	4.0
83.966	1.0
83.981	4.0
83.996	3.0
84.011	3.0
84.026	5.0
84.041	5.0
84.056	10.0
84.071	7.0
84.086	4.0
84.101	0.0
84.116	0.0
84.131	3.0
84.146	4.0
84.161	3.0
84.176	4.0
84.191	5.0
84.206	3.0
84.221	3.0
84.236	2.0
84.251	7.0
84.266	4.0
84.281	3.0
84.296	6.0
84.311	3.0
84.326	3.0
84.341	7.0
84.356	5.0
84.371	6.0
84.386	8.0
84.401	4.0
84.416	7.0
84.431	9.0
84.446	2.0
84.461	4.0
84.476	5.0
84.492	1.0
84.507	7.0
84.522	3.0
84.537	0.0
84.552	3.0
84.567	2.0
84.582	4.0
84.597	3.0
84.612	1.0
84.627	2.0
84.642	7.0
84.657	0.0
84.672	4.0
84.687	2.0
84.702	4.0
84.717	3.0
84.733	4.0
84.748	2.0
84.763	4.0
84.778	3.0
84.793	4.0
84.808	4.0
84.823	1.0
84.838	2.0
84.853	3.0
84.868	4.0
84.883	6.0
84.898	4.0
84.913	2.0
84.929	3.0
84.944	5.0
84.959	4.0
84.974	5.0
84.989	1.0
85.004	4.0
85.019	3.0
85.034	2.0
85.049	6.0
85.064	3.0
85.079	1.0
85.094	5.0
85.11	6.0
85.125	4.0
85.14	2.0
85.155	2.0
85.17	4.0
85.185	3.0
85.2	4.0
85.215	0.0
85.23	1.0
85.245	2.0
85.26	5.0
85.276	1.0
85.291	2.0
85.306	4.0
85.321	0.0
85.336	7.0
85.351	3.0
85.366	3.0
85.381	1.0
85.396	2.0
85.411	5.0
85.426	3.0
85.441	4.0
85.457	4.0
85.472	5.0
85.487	8.0
85.502	1.0
85.517	1.0
85.532	4.0
85.547	3.0
85.562	5.0
85.577	1.0
85.592	2.0
85.607	5.0
85.622	1.0
85.637	1.0
85.653	4.0
85.668	0.0
85.683	4.0
85.698	2.0
85.713	3.0
85.728	1.0
85.743	0.0
85.758	5.0
85.773	3.0
85.788	2.0
85.803	5.0
85.818	2.0
85.833	2.0
85.848	3.0
85.863	4.0
85.879	2.0
85.894	5.0
85.909	4.0
85.924	5.0
85.939	5.0
85.954	1.0
85.969	1.0
85.984	4.0
85.999	3.0
86.014	5.0
86.029	1.0
86.044	3.0
86.059	2.0
86.074	1.0
86.089	4.0
86.104	0.0
86.119	0.0
86.134	2.0
86.149	1.0
86.164	2.0
86.179	2.0
86.194	4.0
86.209	2.0
86.224	5.0
86.239	2.0
86.254	3.0
86.269	2.0
86.284	0.0
86.299	6.0
86.314	0.0
86.33	3.0
86.345	3.0
86.36	3.0
86.375	1.0
86.39	4.0
86.405	6.0
86.42	2.0
86.435	3.0
86.45	1.0
86.465	3.0
86.48	6.0
86.495	4.0
86.51	2.0
86.525	3.0
86.54	5.0
86.555	1.0
86.57	6.0
86.585	2.0
86.6	5.0
86.615	3.0
86.63	3.0
86.645	0.0
86.659	4.0
86.674	5.0
86.689	4.0
86.704	0.0
86.719	5.0
86.734	3.0
86.749	6.0
86.764	2.0
86.779	7.0
86.794	3.0
86.809	5.0
86.824	2.0
86.839	4.0
86.854	2.0
86.869	5.0
86.884	4.0
86.899	4.0
86.914	4.0
86.929	5.0
86.944	4.0
86.959	4.0
86.974	3.0
86.989	9.0
87.004	2.0
87.019	1.0
87.034	4.0
87.049	5.0
87.064	7.0
87.079	1.0
87.094	4.0
87.109	6.0
87.124	3.0
87.139	4.0
87.154	0.0
87.169	2.0
87.184	4.0
87.199	1.0
87.214	1.0
87.229	2.0
87.244	4.0
87.259	5.0
87.274	1.0
87.289	2.0
87.304	0.0
87.319	4.0
87.334	0.0
87.349	4.0
87.364	4.0
87.379	4.0
87.394	1.0
87.409	2.0
87.424	6.0
87.438	0.0
87.453	4.0
87.468	3.0
87.483	6.0
87.498	6.0
87.513	6.0
87.528	5.0
87.543	5.0
87.558	1.0
87.573	4.0
87.588	7.0
87.603	5.0
87.618	2.0
87.633	2.0
87.648	6.0
87.663	7.0
87.678	4.0
87.693	1.0
87.708	6.0
87.723	2.0
87.738	8.0
87.753	2.0
87.768	7.0
87.783	5.0
87.798	3.0
87.813	3.0
87.828	5.0
87.843	5.0
87.858	3.0
87.873	1.0
87.888	3.0
87.903	2.0
87.918	3.0
87.933	4.0
87.948	1.0
87.963	6.0
87.978	1.0
87.993	5.0
88.008	3.0
88.023	3.0
88.038	4.0
88.053	5.0
88.068	3.0
88.083	5.0
88.098	1.0
88.113	6.0
88.128	0.0
88.143	1.0
88.158	6.0
88.174	1.0
88.189	6.0
88.204	3.0
88.219	2.0
88.234	4.0
88.249	3.0
88.264	3.0
88.279	1.0
88.294	7.0
88.309	4.0
88.324	7.0
88.339	7.0
88.354	4.0
88.369	7.0
88.384	3.0
88.399	3.0
88.414	2.0
88.429	2.0
88.444	2.0
88.459	6.0
88.474	2.0
88.489	2.0
88.504	5.0
88.519	2.0
88.534	5.0
88.549	3.0
88.564	3.0
88.58	0.0
88.595	2.0
88.61	2.0
88.625	2.0
88.64	4.0
88.655	3.0
88.67	2.0
88.685	6.0
88.7	1.0
88.715	2.0
88.73	0.0
88.745	3.0
88.76	3.0
88.775	3.0
88.79	2.0
88.805	2.0
88.82	2.0
88.835	4.0
88.85	5.0
88.865	1.0
88.88	3.0
88.895	5.0
88.911	2.0
88.926	2.0
88.941	1.0
88.956	2.0
88.971	3.0
88.986	4.0
89.001	1.0
89.016	3.0
89.031	5.0
89.046	2.0
89.061	4.0
89.076	3.0
89.091	2.0
89.106	5.0
89.121	1.0
89.136	1.0
89.151	5.0
89.166	1.0
89.181	2.0
89.196	3.0
89.211	2.0
89.227	3.0
89.242	6.0
89.257	3.0
89.272	2.0
89.287	0.0
89.302	0.0
89.317	6.0
89.332	6.0
89.347	6.0
89.362	2.0
89.377	3.0
89.392	4.0
89.407	5.0
89.422	2.0
89.437	6.0
89.452	2.0
89.467	3.0
89.482	5.0
89.497	2.0
89.512	2.0
89.527	4.0
89.542	1.0
89.557	5.0
89.572	4.0
89.587	4.0
89.602	2.0
89.617	7.0
89.632	4.0
89.647	4.0
89.662	3.0
89.677	4.0
89.693	2.0
89.708	1.0
89.723	2.0
89.738	1.0
89.753	2.0
89.768	5.0
89.783	3.0
89.798	1.0
89.813	3.0
89.828	4.0
89.843	4.0
89.858	4.0
89.873	5.0
89.888	4.0
89.903	4.0
89.918	3.0
89.933	3.0
89.948	2.0
89.963	3.0
89.978	5.0
89.993	3.0
90.008	0.0
90.023	4.0
90.038	5.0
90.053	3.0
90.068	4.0
90.083	7.0
90.097	1.0
90.112	2.0
90.127	3.0
90.142	5.0
90.157	4.0
90.172	0.0
90.187	4.0
90.202	3.0
90.217	1.0
90.232	4.0
90.247	5.0
90.262	1.0
90.277	3.0
90.292	1.0
90.307	5.0
90.322	5.0
90.337	4.0
90.352	7.0
90.367	5.0
90.382	2.0
90.397	3.0
90.412	2.0
90.427	4.0
90.442	1.0
90.457	2.0
90.472	3.0
90.487	2.0
90.501	1.0
90.516	2.0
90.531	1.0
90.546	3.0
90.561	3.0
90.576	5.0
90.591	5.0
90.606	1.0
90.621	5.0
90.636	2.0
90.651	4.0
90.666	5.0
90.681	1.0
90.696	3.0
90.711	2.0
90.726	4.0
90.741	2.0
90.755	2.0
90.77	7.0
90.785	1.0
90.8	1.0
90.815	1.0
90.83	4.0
90.845	3.0
90.86	4.0
90.875	1.0
90.89	5.0
90.905	2.0
90.92	2.0
90.935	2.0
90.95	0.0
90.965	6.0
90.979	6.0
90.994	2.0
91.009	6.0
91.024	5.0
91.039	2.0
91.054	4.0
91.069	2.0
91.084	5.0
91.099	4.0
91.114	7.0
91.129	6.0
91.144	2.0
91.159	6.0
91.174	2.0
91.188	5.0
91.203	5.0
91.218	2.0
91.233	3.0
91.248	7.0
91.263	0.0
91.278	8.0
91.293	2.0
91.308	2.0
91.323	1.0
91.338	2.0
91.353	4.0
91.368	2.0
91.383	6.0
91.398	3.0
91.412	2.0
91.427	1.0
91.442	6.0
91.457	4.0
91.472	4.0
91.487	6.0
91.502	10.0
91.517	3.0
91.532	3.0
91.547	3.0
91.562	4.0
91.577	3.0
91.592	7.0
91.607	0.0
91.622	1.0
91.637	1.0
91.652	2.0
91.666	2.0
91.681	5.0
91.696	0.0
91.711	2.0
91.726	1.0
91.741	3.0
91.756	4.0
91.771	1.0
91.786	5.0
91.801	5.0
91.816	5.0
91.831	3.0
91.846	3.0
91.861	4.0
91.876	1.0
91.891	6.0
91.906	2.0
91.921	4.0
91.936	3.0
91.951	7.0
91.966	3.0
91.981	3.0
91.995	6.0
92.01	3.0
92.025	3.0
92.04	1.0
92.055	2.0
92.07	3.0
92.085	5.0
92.1	4.0
92.115	2.0
92.13	2.0
92.145	1.0
92.16	8.0
92.175	3.0
92.19	2.0
92.205	3.0
92.22	0.0
92.235	3.0
92.25	1.0
92.265	4.0
92.28	4.0
92.295	3.0
92.31	5.0
92.325	1.0
92.34	2.0
92.355	2.0
92.37	5.0
92.385	4.0
92.4	7.0
92.415	3.0
92.43	1.0
92.445	3.0
92.46	5.0
92.475	4.0
92.49	4.0
92.505	1.0
92.52	3.0
92.535	3.0
92.55	7.0
92.565	7.0
92.58	4.0
92.595	1.0
92.61	6.0
92.625	4.0
92.64	4.0
92.655	4.0
92.67	2.0
92.685	1.0
92.7	4.0
92.715	5.0
92.73	1.0
92.745	7.0
92.76	4.0
92.775	2.0
92.79	2.0
92.805	5.0
92.82	4.0
92.835	5.0
92.85	4.0
92.865	0.0
92.88	2.0
92.895	1.0
92.91	5.0
92.925	2.0
92.94	4.0
92.955	1.0
92.97	2.0
92.985	2.0
93.0	5.0
93.015	1.0
93.03	2.0
93.045	2.0
93.06	4.0
93.075	4.0
93.09	2.0
93.105	6.0
93.12	3.0
93.135	4.0
93.15	0.0
93.165	2.0
93.18	3.0
93.195	3.0
93.21	2.0
93.225	2.0
93.24	7.0
93.255	2.0
93.27	0.0
93.285	3.0
93.3	6.0
93.315	2.0
93.33	3.0
93.345	5.0
93.36	2.0
93.375	3.0
93.39	3.0
93.405	4.0
93.42	6.0
93.435	5.0
93.45	2.0
93.465	2.0
93.48	5.0
93.495	4.0
93.51	3.0
93.525	2.0
93.54	2.0
93.555	4.0
93.57	3.0
93.585	6.0
93.6	1.0
93.615	6.0
93.63	7.0
93.645	4.0
93.66	2.0
93.675	3.0
93.69	1.0
93.705	1.0
93.72	3.0
93.735	3.0
93.75	3.0
93.765	3.0
93.78	6.0
93.795	2.0
93.81	2.0
93.824	1.0
93.839	5.0
93.854	1.0
93.869	3.0
93.884	5.0
93.899	5.0
93.914	4.0
93.929	2.0
93.944	4.0
93.959	4.0
93.974	2.0
93.989	5.0
94.004	1.0
94.019	3.0
94.034	4.0
94.049	4.0
94.064	1.0
94.079	2.0
94.094	4.0
94.108	4.0
94.123	4.0
94.138	3.0
94.153	1.0
94.168	3.0
94.183	2.0
94.198	6.0
94.213	3.0
94.228	0.0
94.243	4.0
94.258	4.0
94.273	6.0
94.288	2.0
94.302	3.0
94.317	3.0
94.332	8.0
94.347	4.0
94.362	1.0
94.377	4.0
94.392	4.0
94.407	2.0
94.422	7.0
94.437	10.0
94.452	4.0
94.466	4.0
94.481	3.0
94.496	3.0
94.511	3.0
94.526	2.0
94.541	3.0
94.556	4.0
94.571	1.0
94.586	5.0
94.601	4.0
94.615	6.0
94.63	6.0
94.645	3.0
94.66	2.0
94.675	0.0
94.69	4.0
94.705	4.0
94.72	4.0
94.735	5.0
94.749	5.0
94.764	3.0
94.779	3.0
94.794	4.0
94.809	3.0
94.824	3.0
94.839	2.0
94.854	3.0
94.868	1.0
94.883	1.0
94.898	3.0
94.913	3.0
94.928	2.0
94.943	4.0
94.958	5.0
94.973	2.0
94.987	4.0
95.002	2.0
95.017	6.0
95.032	1.0
95.047	1.0
95.062	5.0
95.077	3.0
95.092	4.0
95.106	4.0
95.121	3.0
95.136	3.0
95.151	2.0
95.166	3.0
95.181	7.0
95.196	4.0
95.211	1.0
95.226	2.0
95.24	2.0
95.255	4.0
95.27	2.0
95.285	3.0
95.3	4.0
95.315	2.0
95.33	3.0
95.345	1.0
95.359	5.0
95.374	3.0
95.389	1.0
95.404	2.0
95.419	1.0
95.434	3.0
95.449	3.0
95.464	4.0
95.478	2.0
95.493	3.0
95.508	2.0
95.523	2.0
95.538	2.0
95.553	1.0
95.568	2.0
95.583	5.0
95.597	5.0
95.612	5.0
95.627	2.0
95.642	3.0
95.657	2.0
95.672	3.0
95.687	4.0
95.702	3.0
95.717	4.0
95.731	1.0
95.746	6.0
95.761	0.0
95.776	2.0
95.791	4.0
95.806	2.0
95.821	5.0
95.836	3.0
95.851	1.0
95.866	3.0
95.88	3.0
95.895	3.0
95.91	5.0
95.925	5.0
95.94	1.0
95.955	6.0
95.97	2.0
95.985	3.0
96.0	6.0
96.015	2.0
96.029	4.0
96.044	4.0
96.059	4.0
96.074	4.0
96.089	0.0
96.104	3.0
96.119	6.0
96.134	6.0
96.149	3.0
96.164	3.0
96.179	4.0
96.194	4.0
96.208	2.0
96.223	2.0
96.238	6.0
96.253	1.0
96.268	7.0
96.283	4.0
96.298	4.0
96.313	1.0
96.328	6.0
96.343	1.0
96.358	3.0
96.373	3.0
96.388	7.0
96.403	0.0
96.417	3.0
96.432	2.0
96.447	4.0
96.462	3.0
96.477	2.0
96.492	9.0
96.507	3.0
96.522	2.0
96.537	6.0
96.552	3.0
96.567	5.0
96.582	4.0
96.597	4.0
96.612	4.0
96.627	4.0
96.642	4.0
96.656	5.0
96.671	0.0
96.686	2.0
96.701	2.0
96.716	3.0
96.731	2.0
96.746	0.0
96.761	1.0
96.776	2.0
96.791	3.0
96.806	5.0
96.821	2.0
96.836	2.0
96.851	7.0
96.866	2.0
96.881	2.0
96.896	3.0
96.911	3.0
96.926	3.0
96.94	3.0
96.955	8.0
96.97	5.0
96.985	4.0
97.0	3.0
97.015	5.0
97.03	5.0
97.045	3.0
97.06	4.0
97.075	3.0
97.09	6.0
97.105	2.0
97.12	1.0
97.135	3.0
97.15	1.0
97.165	5.0
97.18	3.0
97.195	3.0
97.21	4.0
97.225	3.0
97.239	3.0
97.254	5.0
97.269	1.0
97.284	1.0
97.299	3.0
97.314	2.0
97.329	6.0
97.344	1.0
97.359	4.0
97.374	2.0
97.389	1.0
97.404	0.0
97.419	2.0
97.434	0.0
97.449	2.0
97.464	2.0
97.479	1.0
97.494	1.0
97.509	3.0
97.524	2.0
97.538	6.0
97.553	2.0
97.568	1.0
97.583	4.0
97.598	3.0
97.613	2.0
97.628	5.0
97.643	3.0
97.658	1.0
97.673	3.0
97.688	5.0
97.703	4.0
97.718	3.0
97.733	5.0
97.748	4.0
97.763	3.0
97.778	1.0
97.792	2.0
97.807	4.0
97.822	3.0
97.837	4.0
97.852	4.0
97.867	1.0
97.882	4.0
97.897	2.0
97.912	4.0
97.927	5.0
97.942	2.0
97.957	5.0
97.972	4.0
97.987	5.0
98.001	0.0
98.016	5.0
98.031	2.0
98.046	6.0
98.061	5.0
98.076	2.0
98.091	1.0
98.106	2.0
98.121	5.0
98.136	3.0
98.151	3.0
98.166	3.0
98.181	5.0
98.195	3.0
98.21	2.0
98.225	2.0
98.24	4.0
98.255	2.0
98.27	6.0
98.285	5.0
98.3	1.0
98.315	0.0
98.33	3.0
98.345	2.0
98.359	2.0
98.374	4.0
98.389	3.0
98.404	2.0
98.419	2.0
98.434	1.0
98.449	6.0
98.464	4.0
98.479	5.0
98.494	4.0
98.508	3.0
98.523	3.0
98.538	3.0
98.553	2.0
98.568	4.0
98.583	2.0
98.598	3.0
98.613	3.0
98.628	1.0
98.642	1.0
98.657	3.0
98.672	5.0
98.687	5.0
98.702	4.0
98.717	3.0
98.732	6.0
98.747	4.0
98.762	2.0
98.776	3.0
98.791	5.0
98.806	3.0
98.821	0.0
98.836	3.0
98.851	3.0
98.866	2.0
98.881	4.0
98.896	1.0
98.91	5.0
98.925	6.0
98.94	1.0
98.955	2.0
98.97	4.0
98.985	4.0
99.0	2.0
99.015	4.0
99.029	2.0
99.044	2.0
99.059	3.0
99.074	3.0
99.089	4.0
99.104	2.0
99.119	3.0
99.133	4.0
99.148	4.0
99.163	3.0
99.178	3.0
99.193	5.0
99.208	2.0
99.223	1.0
99.238	7.0
99.252	9.0
99.267	0.0
99.282	2.0
99.297	6.0
99.312	3.0
99.327	3.0
99.342	6.0
99.356	3.0
99.371	4.0
99.386	2.0
99.401	4.0
99.416	2.0
99.431	2.0
99.446	1.0
99.461	5.0
99.475	2.0
99.49	3.0
99.505	2.0
99.52	3.0
99.535	3.0
99.55	3.0
99.565	4.0
99.579	5.0
99.594	2.0
99.609	3.0
99.624	5.0
99.639	5.0
99.654	4.0
99.669	2.0
99.683	5.0
99.698	2.0
99.713	1.0
99.728	1.0
99.743	7.0
99.758	4.0
99.772	0.0
99.787	4.0
99.802	3.0
99.817	5.0
99.832	5.0
99.847	1.0
99.862	3.0
99.876	4.0
99.891	4.0
99.906	0.0
99.921	1.0
99.936	6.0
99.951	6.0
99.966	3.0
99.98	2.0
99.995	2.0
100.01	4.0
100.025	2.0
100.04	3.0
100.055	2.0
100.069	3.0
100.084	2.0
100.099	3.0
100.114	2.0
100.129	1.0
100.144	5.0
100.159	3.0
100.173	1.0
100.188	2.0
100.203	5.0
100.218	2.0
100.233	4.0
100.248	4.0
100.262	5.0
100.277	6.0
100.292	2.0
100.307	2.0
100.322	6.0
100.337	5.0
100.351	5.0
100.366	8.0
100.381	5.0
100.396	5.0
100.411	3.0
100.426	1.0
100.441	4.0
100.455	0.0
100.47	1.0
100.485	1.0
100.5	3.0
100.515	2.0
100.53	5.0
100.544	2.0
100.559	1.0
100.574	3.0
100.589	1.0
100.604	1.0
100.619	2.0
100.633	5.0
100.648	2.0
100.663	1.0
100.678	3.0
100.693	4.0
100.708	1.0
100.722	3.0
100.737	7.0
100.752	5.0
100.767	0.0
100.782	3.0
100.796	6.0
100.811	5.0
100.826	3.0
100.841	3.0
100.856	3.0
100.871	3.0
100.885	2.0
100.9	0.0
100.915	5.0
100.93	2.0
100.945	2.0
100.96	3.0
100.974	4.0
100.989	3.0
101.004	4.0
101.019	2.0
101.034	1.0
101.048	2.0
101.063	3.0
101.078	4.0
101.093	6.0
101.108	4.0
101.123	5.0
101.137	2.0
101.152	4.0
101.167	1.0
101.182	4.0
101.197	4.0
101.211	3.0
101.226	4.0
101.241	3.0
101.256	3.0
101.271	4.0
101.285	3.0
101.3	4.0
101.315	2.0
101.33	4.0
101.345	4.0
101.359	4.0
101.374	3.0
101.389	9.0
101.404	3.0
101.419	4.0
101.433	0.0
101.448	3.0
101.463	1.0
101.478	2.0
101.493	3.0
101.507	0.0
101.522	3.0
101.537	4.0
101.552	2.0
101.567	2.0
101.581	2.0
101.596	2.0
101.611	3.0
101.626	2.0
101.64	2.0
101.655	5.0
101.67	2.0
101.685	1.0
101.7	1.0
101.714	4.0
101.729	1.0
101.744	4.0
101.759	3.0
101.773	0.0
101.788	1.0
101.803	3.0
101.818	3.0
101.833	1.0
101.847	4.0
101.862	2.0
101.877	3.0
101.892	4.0
101.906	1.0
101.921	2.0
101.936	3.0
101.951	1.0
101.965	3.0
101.98	3.0
101.995	1.0
102.01	5.0
102.025	1.0
102.039	6.0
102.054	5.0
102.069	2.0
102.084	4.0
102.098	7.0
102.113	2.0
102.128	7.0
102.143	5.0
102.157	6.0
102.172	5.0
102.187	1.0
102.202	8.0
102.216	4.0
102.231	2.0
102.246	3.0
102.261	3.0
102.275	3.0
102.29	1.0
102.305	5.0
102.32	7.0
102.334	2.0
102.349	2.0
102.364	3.0
102.378	1.0
102.393	1.0
102.408	2.0
102.423	2.0
102.437	2.0
102.452	2.0
102.467	2.0
102.482	2.0
102.496	4.0
102.511	5.0
102.526	2.0
102.541	2.0
102.555	2.0
102.57	1.0
102.585	2.0
102.6	2.0
102.614	1.0
102.629	1.0
102.644	1.0
102.659	2.0
102.673	1.0
102.688	3.0
102.703	4.0
102.717	6.0
102.732	5.0
102.747	0.0
102.762	3.0
102.776	2.0
102.791	3.0
102.806	1.0
102.821	5.0
102.835	5.0
102.85	1.0
102.865	1.0
102.88	3.0
102.894	6.0
102.909	1.0
102.924	2.0
102.938	7.0
102.953	2.0
102.968	4.0
102.983	3.0
102.997	5.0
103.012	2.0
103.027	6.0
103.042	1.0
103.056	3.0
103.071	4.0
103.086	2.0
103.101	4.0
103.115	2.0
103.13	4.0
103.145	2.0
103.16	5.0
103.174	6.0
103.189	2.0
103.204	2.0
103.219	7.0
103.233	3.0
103.248	5.0
103.263	2.0
103.278	3.0
103.292	4.0
103.307	3.0
103.322	6.0
103.337	2.0
103.351	4.0
103.366	1.0
103.381	3.0
103.396	5.0
103.41	6.0
103.425	1.0
103.44	3.0
103.455	0.0
103.469	4.0
103.484	4.0
103.499	3.0
103.514	1.0
103.529	4.0
103.543	4.0
103.558	2.0
103.573	5.0
103.588	2.0
103.602	2.0
103.617	4.0
103.632	0.0
103.647	2.0
103.661	3.0
103.676	4.0
103.691	4.0
103.706	4.0
103.721	7.0
103.735	7.0
103.75	6.0
103.765	4.0
103.78	3.0
103.795	3.0
103.809	2.0
103.824	1.0
103.839	5.0
103.854	3.0
103.869	3.0
103.883	4.0
103.898	3.0
103.913	2.0
103.928	3.0
103.943	4.0
103.957	3.0
103.972	3.0
103.987	4.0
104.002	3.0
104.017	3.0
104.031	5.0
104.046	2.0
104.061	2.0
104.076	5.0
104.091	7.0
104.106	3.0
104.12	1.0
104.135	5.0
104.15	2.0
104.165	3.0
104.18	1.0
104.195	7.0
104.209	1.0
104.224	6.0
104.239	3.0
104.254	5.0
104.269	0.0
104.284	2.0
104.299	3.0
104.313	2.0
104.328	6.0
104.343	7.0
104.358	4.0
104.373	4.0
104.388	3.0
104.403	2.0
104.417	4.0
104.432	2.0
104.447	5.0
104.462	2.0
104.477	2.0
104.492	2.0
104.507	4.0
104.522	6.0
104.536	2.0
104.551	3.0
104.566	5.0
104.581	4.0
104.596	2.0
104.611	5.0
104.626	3.0
104.641	4.0
104.656	3.0
104.67	8.0
104.685	3.0
104.7	4.0
104.715	4.0
104.73	3.0
104.745	3.0
104.76	5.0
104.775	4.0
104.79	5.0
104.804	0.0
104.819	4.0
104.834	1.0
104.849	3.0
104.864	2.0
104.879	5.0
104.894	2.0
104.909	2.0
104.924	2.0
104.939	7.0
104.954	2.0
104.968	1.0
104.983	3.0
104.998	2.0
105.013	2.0
105.028	0.0
105.043	2.0
105.058	2.0
105.073	6.0
105.088	4.0
105.103	4.0
105.118	5.0
105.133	2.0
105.147	3.0
105.162	3.0
105.177	3.0
105.192	2.0
105.207	3.0
105.222	1.0
105.237	1.0
105.252	7.0
105.267	3.0
105.282	0.0
105.297	2.0
105.312	4.0
105.327	6.0
105.342	6.0
105.356	5.0
105.371	3.0
105.386	2.0
105.401	2.0
105.416	3.0
105.431	0.0
105.446	4.0
105.461	3.0
105.476	6.0
105.491	3.0
105.506	1.0
105.521	2.0
105.536	3.0
105.551	3.0
105.566	3.0
105.581	4.0
105.595	2.0
105.61	3.0
105.625	1.0
105.64	4.0
105.655	1.0
105.67	2.0
105.685	3.0
105.7	4.0
105.715	3.0
105.73	3.0
105.745	6.0
105.76	1.0
105.775	6.0
105.79	6.0
105.805	3.0
105.82	2.0
105.835	2.0
105.85	3.0
105.864	3.0
105.879	3.0
105.894	1.0
105.909	4.0
105.924	3.0
105.939	1.0
105.954	0.0
105.969	2.0
105.984	0.0
105.999	5.0
106.014	5.0
106.029	2.0
106.044	2.0
106.059	3.0
106.074	6.0
106.089	3.0
106.104	1.0
106.119	3.0
106.134	4.0
106.148	2.0
106.163	6.0
106.178	3.0
106.193	4.0
106.208	3.0
106.223	8.0
106.238	6.0
106.253	5.0
106.268	2.0
106.283	5.0
106.298	4.0
106.313	3.0
106.328	0.0
106.343	2.0
106.358	1.0
106.373	3.0
106.388	4.0
106.403	5.0
106.418	2.0
106.432	5.0
106.447	6.0
106.462	6.0
106.477	0.0
106.492	4.0
106.507	2.0
106.522	7.0
106.537	4.0
106.552	3.0
106.567	2.0
106.582	4.0
106.597	1.0
106.612	3.0
106.627	3.0
106.642	1.0
106.657	3.0
106.672	0.0
106.687	4.0
106.701	5.0
106.716	2.0
106.731	4.0
106.746	1.0
106.761	4.0
106.776	2.0
106.791	2.0
106.806	3.0
106.821	3.0
106.836	1.0
106.851	3.0
106.866	7.0
106.881	1.0
106.896	2.0
106.911	3.0
106.926	3.0
106.941	2.0
106.955	2.0
106.97	1.0
106.985	3.0
107.0	4.0
107.015	0.0
107.03	0.0
107.045	4.0
107.06	3.0
107.075	3.0
107.09	3.0
107.105	5.0
107.12	3.0
107.135	4.0
107.15	4.0
107.165	7.0
107.18	3.0
107.194	5.0
107.209	3.0
107.224	3.0
107.239	6.0
107.254	4.0
107.269	0.0
107.284	7.0
107.299	4.0
107.314	4.0
107.329	4.0
107.344	8.0
107.359	1.0
107.374	4.0
107.389	2.0
107.404	1.0
107.418	2.0
107.433	2.0
107.448	1.0
107.463	5.0
107.478	4.0
107.493	5.0
107.508	3.0
107.523	6.0
107.538	4.0
107.553	2.0
107.568	5.0
107.583	4.0
107.598	6.0
107.613	0.0
107.627	5.0
107.642	3.0
107.657	3.0
107.672	3.0
107.687	1.0
107.702	5.0
107.717	5.0
107.732	2.0
107.747	2.0
107.762	2.0
107.777	2.0
107.792	7.0
107.807	4.0
107.821	0.0
107.836	5.0
107.851	1.0
107.866	4.0
107.881	6.0
107.896	3.0
107.911	2.0
107.926	3.0
107.941	0.0
107.956	1.0
107.971	5.0
107.986	5.0
108.0	4.0
108.015	3.0
108.03	3.0
108.045	2.0
108.06	2.0
108.075	5.0
108.09	5.0
108.105	8.0
108.12	4.0
108.135	1.0
108.15	5.0
108.164	2.0
108.179	4.0
108.194	8.0
108.209	8.0
108.224	6.0
108.239	3.0
108.254	8.0
108.269	2.0
108.284	2.0
108.299	1.0
108.313	3.0
108.328	7.0
108.343	2.0
108.358	5.0
108.373	2.0
108.388	4.0
108.403	5.0
108.418	5.0
108.433	1.0
108.448	0.0
108.462	4.0
108.477	1.0
108.492	6.0
108.507	9.0
108.522	4.0
108.537	8.0
108.552	6.0
108.567	3.0
108.582	5.0
108.597	3.0
108.611	6.0
108.626	3.0
108.641	4.0
108.656	2.0
108.671	4.0
108.686	3.0
108.701	1.0
108.716	4.0
108.731	2.0
108.745	1.0
108.76	5.0
108.775	3.0
108.79	3.0
108.805	2.0
108.82	4.0
108.835	5.0
108.85	2.0
108.865	5.0
108.879	3.0
108.894	3.0
108.909	1.0
108.924	4.0
108.939	7.0
108.954	2.0
108.969	3.0
108.984	5.0
108.999	6.0
109.013	6.0
109.028	1.0
109.043	5.0
109.058	0.0
109.073	3.0
109.088	6.0
109.103	4.0
109.118	3.0
109.133	6.0
109.147	6.0
109.162	1.0
109.177	5.0
109.192	6.0
109.207	0.0
109.222	3.0
109.237	6.0
109.252	3.0
109.267	3.0
109.281	2.0
109.296	4.0
109.311	4.0
109.326	1.0
109.341	2.0
109.356	5.0
109.371	6.0
109.386	2.0
109.4	2.0
109.415	5.0
109.43	3.0
109.445	4.0
109.46	3.0
109.475	7.0
109.49	3.0
109.505	4.0
109.52	3.0
109.534	3.0
109.549	4.0
109.564	5.0
109.579	0.0
109.594	2.0
109.609	0.0
109.624	4.0
109.639	3.0
109.653	4.0
109.668	3.0
109.683	2.0
109.698	3.0
109.713	3.0
109.728	3.0
109.743	4.0
109.758	7.0
109.773	3.0
109.787	2.0
109.802	2.0
109.817	4.0
109.832	6.0
109.847	2.0
109.862	1.0
109.877	4.0
109.892	4.0
109.907	2.0
109.921	0.0
109.936	2.0
109.951	6.0
109.966	4.0
109.981	2.0
109.996	2.0
110.011	3.0
110.026	3.0
110.04	1.0
110.055	3.0
110.07	3.0
110.085	1.0
110.1	4.0
110.115	3.0
110.13	2.0
110.145	2.0
110.16	4.0
110.174	5.0
110.189	4.0
110.204	3.0
110.219	6.0
110.234	3.0
110.249	2.0
110.264	4.0
110.279	3.0
110.294	1.0
110.308	5.0
110.323	4.0
110.338	1.0
110.353	3.0
110.368	1.0
110.383	4.0
110.398	1.0
110.413	3.0
110.428	4.0
110.442	3.0
110.457	4.0
110.472	3.0
110.487	2.0
110.502	4.0
110.517	3.0
110.532	0.0
110.547	5.0
110.561	2.0
110.576	3.0
110.591	0.0
110.606	3.0
110.621	4.0
110.636	3.0
110.651	1.0
110.666	2.0
110.681	0.0
110.695	5.0
110.71	4.0
110.725	6.0
110.74	3.0
110.755	3.0
110.77	5.0
110.785	5.0
110.8	2.0
110.815	5.0
110.829	6.0
110.844	3.0
110.859	4.0
110.874	3.0
110.889	3.0
110.904	10.0
110.919	3.0
110.934	3.0
110.948	8.0
110.963	3.0
110.978	1.0
110.993	3.0
111.008	4.0
111.023	1.0
111.038	3.0
111.053	1.0
111.067	3.0
111.082	4.0
111.097	5.0
111.112	1.0
111.127	3.0
111.142	1.0
111.157	3.0
111.172	1.0
111.186	6.0
111.201	1.0
111.216	3.0
111.231	1.0
111.246	4.0
111.261	1.0
111.276	2.0
111.291	3.0
111.305	3.0
111.32	5.0
111.335	3.0
111.35	6.0
111.365	1.0
111.38	2.0
111.395	4.0
111.41	3.0
111.424	2.0
111.439	1.0
111.454	5.0
111.469	1.0
111.484	4.0
111.499	3.0
111.514	2.0
111.528	3.0
111.543	1.0
111.558	0.0
111.573	3.0
111.588	4.0
111.603	3.0
111.618	4.0
111.633	5.0
111.647	2.0
111.662	7.0
111.677	1.0
111.692	3.0
111.707	5.0
111.722	6.0
111.737	3.0
111.751	3.0
111.766	4.0
111.781	0.0
111.796	4.0
111.811	3.0
111.826	5.0
111.84	3.0
111.855	2.0
111.87	3.0
111.885	5.0
111.9	4.0
111.915	8.0
111.93	1.0
111.944	4.0
111.959	4.0
111.974	1.0
111.989	2.0
112.004	2.0
112.019	4.0
112.033	6.0
112.048	2.0
112.063	2.0
112.078	6.0
112.093	3.0
112.108	3.0
112.123	5.0
112.137	5.0
112.152	1.0
112.167	1.0
112.182	3.0
112.197	6.0
112.212	2.0
112.226	6.0
112.241	2.0
112.256	1.0
112.271	5.0
112.286	2.0
112.301	5.0
112.315	2.0
112.33	2.0
112.345	6.0
112.36	5.0
112.375	2.0
112.389	3.0
112.404	2.0
112.419	5.0
112.434	5.0
112.449	4.0
112.464	7.0
112.478	1.0
112.493	3.0
112.508	4.0
112.523	4.0
112.538	3.0
112.553	5.0
112.567	6.0
112.582	4.0
112.597	2.0
112.612	5.0
112.627	7.0
112.642	5.0
112.656	7.0
112.671	3.0
112.686	2.0
112.701	4.0
112.716	4.0
112.73	3.0
112.745	8.0
112.76	6.0
112.775	2.0
112.79	3.0
112.805	4.0
112.819	5.0
112.834	5.0
112.849	4.0
112.864	3.0
112.879	4.0
112.894	1.0
112.908	2.0
112.923	3.0
112.938	4.0
112.953	1.0
112.968	2.0
112.983	3.0
112.997	2.0
113.012	4.0
113.027	4.0
113.042	4.0
113.057	1.0
113.072	1.0
113.086	3.0
113.101	3.0
113.116	3.0
113.131	2.0
113.146	3.0
113.161	1.0
113.175	6.0
113.19	1.0
113.205	7.0
113.22	7.0
113.235	1.0
113.25	2.0
113.265	3.0
113.279	6.0
113.294	1.0
113.309	5.0
113.324	4.0
113.339	3.0
113.354	3.0
113.368	3.0
113.383	5.0
113.398	4.0
113.413	3.0
113.428	2.0
113.443	7.0
113.458	4.0
113.472	5.0
113.487	2.0
113.502	5.0
113.517	7.0
113.532	2.0
113.547	5.0
113.562	5.0
113.576	4.0
113.591	2.0
113.606	3.0
113.621	3.0
113.636	2.0
113.651	1.0
113.666	3.0
113.681	3.0
113.695	7.0
113.71	3.0
113.725	2.0
113.74	5.0
113.755	3.0
113.77	3.0
113.785	2.0
113.8	5.0
113.814	6.0
113.829	3.0
113.844	3.0
113.859	3.0
113.874	5.0
113.889	2.0
113.904	4.0
113.919	7.0
113.934	6.0
113.949	4.0
113.963	3.0
113.978	6.0
113.993	4.0
114.008	2.0
114.023	2.0
114.038	3.0
114.053	4.0
114.068	2.0
114.083	6.0
114.098	1.0
114.113	3.0
114.127	4.0
114.142	6.0
114.157	2.0
114.172	3.0
114.187	3.0
114.202	1.0
114.217	3.0
114.232	2.0
114.247	3.0
114.262	5.0
114.277	5.0
114.292	4.0
114.307	1.0
114.322	4.0
114.337	8.0
114.351	3.0
114.366	2.0
114.381	4.0
114.396	3.0
114.411	3.0
114.426	2.0
114.441	1.0
114.456	7.0
114.471	5.0
114.486	2.0
114.501	5.0
114.516	2.0
114.531	6.0
114.546	6.0
114.561	4.0
114.576	2.0
114.591	1.0
114.606	3.0
114.621	0.0
114.636	4.0
114.65	7.0
114.665	5.0
114.68	0.0
114.695	2.0
114.71	7.0
114.725	3.0
114.74	4.0
114.755	2.0
114.77	3.0
114.785	3.0
114.8	3.0
114.815	3.0
114.83	3.0
114.845	5.0
114.86	3.0
114.875	3.0
114.89	4.0
114.905	5.0
114.92	6.0
114.935	3.0
114.95	2.0
114.965	9.0
114.98	4.0
114.995	3.0
115.009	2.0
115.024	2.0
115.039	3.0
115.054	6.0
115.069	2.0
115.084	8.0
115.099	7.0
115.114	3.0
115.129	4.0
115.144	4.0
115.159	1.0
115.174	0.0
115.189	2.0
115.204	3.0
115.219	2.0
115.234	8.0
115.249	3.0
115.264	4.0
115.279	6.0
115.294	4.0
115.309	4.0
115.323	4.0
115.338	3.0
115.353	7.0
115.368	5.0
115.383	1.0
115.398	4.0
115.413	2.0
115.428	2.0
115.443	6.0
115.458	5.0
115.473	4.0
115.488	7.0
115.503	2.0
115.518	6.0
115.533	1.0
115.548	5.0
115.562	2.0
115.577	3.0
115.592	2.0
115.607	1.0
115.622	2.0
115.637	3.0
115.652	1.0
115.667	3.0
115.682	1.0
115.697	3.0
115.712	8.0
115.727	2.0
115.741	3.0
115.756	4.0
115.771	6.0
115.786	3.0
115.801	2.0
115.816	4.0
115.831	5.0
115.846	7.0
115.861	4.0
115.875	5.0
115.89	0.0
115.905	5.0
115.92	1.0
115.935	4.0
115.95	6.0
115.965	3.0
115.98	7.0
115.995	2.0
116.009	4.0
116.024	6.0
116.039	2.0
116.054	3.0
116.069	6.0
116.084	4.0
116.099	3.0
116.113	1.0
116.128	3.0
116.143	3.0
116.158	2.0
116.173	3.0
116.188	3.0
116.202	1.0
116.217	4.0
116.232	5.0
116.247	1.0
116.262	1.0
116.277	4.0
116.291	3.0
116.306	1.0
116.321	6.0
116.336	6.0
116.351	2.0
116.366	5.0
116.38	1.0
116.395	2.0
116.41	4.0
116.425	7.0
116.44	3.0
116.454	2.0
116.469	3.0
116.484	2.0
116.499	2.0
116.514	5.0
116.528	3.0
116.543	3.0
116.558	2.0
116.573	3.0
116.588	1.0
116.602	4.0
116.617	1.0
116.632	0.0
116.647	3.0
116.662	4.0
116.676	3.0
116.691	7.0
116.706	3.0
116.721	3.0
116.735	5.0
116.75	3.0
116.765	6.0
116.78	8.0
116.795	3.0
116.809	0.0
116.824	4.0
116.839	2.0
116.854	2.0
116.868	2.0
116.883	3.0
116.898	4.0
116.913	3.0
116.927	5.0
116.942	2.0
116.957	1.0
116.972	5.0
116.986	4.0
117.001	1.0
117.016	1.0
117.031	3.0
117.045	5.0
117.06	1.0
117.075	2.0
117.09	3.0
117.104	4.0
117.119	7.0
117.134	3.0
117.149	5.0
117.163	6.0
117.178	2.0
117.193	5.0
117.208	2.0
117.222	5.0
117.237	3.0
117.252	5.0
117.267	5.0
117.281	3.0
117.296	2.0
117.311	9.0
117.325	2.0
117.34	2.0
117.355	1.0
117.37	4.0
117.384	2.0
117.399	4.0
117.414	3.0
117.429	4.0
117.443	1.0
117.458	3.0
117.473	3.0
117.487	1.0
117.502	3.0
117.517	5.0
117.532	1.0
117.546	2.0
117.561	4.0
117.576	1.0
117.59	4.0
117.605	5.0
117.62	1.0
117.635	7.0
117.649	1.0
117.664	2.0
117.679	4.0
117.693	4.0
117.708	1.0
117.723	3.0
117.738	6.0
117.752	5.0
117.767	1.0
117.782	3.0
117.796	5.0
117.811	9.0
117.826	2.0
117.841	2.0
117.855	4.0
117.87	5.0
117.885	5.0
117.899	8.0
117.914	4.0
117.929	4.0
117.944	3.0
117.958	2.0
117.973	3.0
117.988	6.0
118.002	3.0
118.017	3.0
118.032	4.0
118.047	5.0
118.062	5.0
118.077	3.0
118.092	2.0
118.107	2.0
118.121	8.0
118.136	7.0
118.151	4.0
118.166	4.0
118.181	10.0
118.196	6.0
118.211	6.0
118.225	2.0
118.24	3.0
118.255	1.0
118.27	9.0
118.285	4.0
118.3	2.0
118.315	4.0
118.33	5.0
118.344	3.0
118.359	2.0
118.374	4.0
118.389	3.0
118.404	6.0
118.419	1.0
118.434	1.0
118.449	4.0
118.463	3.0
118.478	5.0
118.493	3.0
118.508	2.0
118.523	5.0
118.538	6.0
118.553	5.0
118.567	2.0
118.582	2.0
118.597	1.0
118.612	4.0
118.627	1.0
118.642	1.0
118.657	1.0
118.672	3.0
118.686	3.0
118.701	2.0
118.716	4.0
118.731	2.0
118.746	7.0
118.761	6.0
118.776	2.0
118.791	4.0
118.805	4.0
118.82	1.0
118.835	2.0
118.85	4.0
118.865	1.0
118.88	3.0
118.895	2.0
118.909	4.0
118.924	3.0
118.939	2.0
118.954	4.0
118.969	4.0
118.984	3.0
118.999	7.0
119.014	2.0
119.028	0.0
119.043	5.0
119.058	3.0
119.073	3.0
119.088	4.0
119.103	3.0
119.118	5.0
119.133	3.0
119.147	2.0
119.162	1.0
119.177	1.0
119.192	5.0
119.207	1.0
119.222	4.0
119.237	7.0
119.251	4.0
119.266	3.0
119.281	5.0
119.296	7.0
119.311	3.0
119.326	3.0
119.341	3.0
119.356	2.0
119.37	0.0
119.385	4.0
119.4	3.0
119.415	2.0
119.43	8.0
119.445	3.0
119.46	1.0
119.475	1.0
119.489	4.0
119.504	2.0
119.519	3.0
119.534	1.0
119.549	8.0
119.564	5.0
119.579	2.0
119.593	6.0
119.608	4.0
119.623	1.0
119.638	7.0
119.653	2.0
119.668	4.0
119.683	1.0
119.698	2.0
119.712	5.0
119.727	5.0
119.742	3.0
119.757	0.0
119.772	4.0
119.787	4.0
119.802	6.0
119.817	1.0
119.831	2.0
119.846	5.0
119.861	0.0
119.876	1.0
119.891	2.0
119.906	5.0
119.921	3.0
119.935	0.0
119.95	2.0
119.965	3.0
119.98	4.0
119.995	4.0
120.01	4.0
120.025	4.0
120.04	2.0
120.054	1.0
120.069	3.0
120.084	2.0
120.099	1.0
120.114	3.0
120.129	2.0
120.144	3.0
120.159	3.0
120.173	1.0
120.188	0.0
120.203	0.0
120.218	2.0
120.233	0.0
120.248	0.0
120.263	0.0
120.277	0.0
120.292	1.0
120.307	0.0
120.322	0.0
120.337	3.0
120.352	0.0
120.367	1.0
120.382	0.0
120.396	0.0
120.411	0.0
120.426	0.0
120.441	0.0
120.456	0.0
120.471	2.0
120.486	0.0
120.501	0.0
120.515	1.0
120.53	0.0
120.545	0.0
120.56	0.0
120.575	0.0
120.59	0.0
120.605	0.0
120.619	0.0
120.634	0.0
120.649	0.0
120.664	1.0
120.679	0.0
120.694	0.0
120.709	0.0
120.724	0.0
120.738	0.0
120.753	0.0
120.768	0.0
120.783	0.0
120.798	0.0
120.813	0.0
120.828	0.0
120.843	0.0
120.857	0.0
120.872	0.0
120.887	0.0
120.902	0.0
120.917	0.0
120.932	0.0
120.947	0.0
120.961	0.0
120.976	0.0
