-1.217	0.0
-1.202	0.0
-1.187	0.0
-1.172	0.0
-1.157	0.0
-1.142	0.0
-1.128	0.0
-1.113	0.0
-1.098	0.0
-1.083	0.0
-1.068	0.0
-1.054	0.0
-1.039	0.0
-1.024	1.0
-1.009	0.0
-0.994	0.0
-0.979	0.0
-0.965	0.0
-0.95	0.0
-0.935	0.0
-0.92	0.0
-0.905	0.0
-0.891	0.0
-0.876	0.0
-0.861	0.0
-0.846	0.0
-0.831	0.0
-0.816	0.0
-0.802	0.0
-0.787	0.0
-0.772	0.0
-0.757	0.0
-0.742	1.0
-0.728	0.0
-0.713	0.0
-0.698	0.0
-0.683	0.0
-0.668	0.0
-0.653	0.0
-0.639	0.0
-0.624	0.0
-0.609	0.0
-0.594	0.0
-0.579	0.0
-0.565	0.0
-0.55	0.0
-0.535	0.0
-0.52	0.0
-0.505	0.0
-0.49	0.0
-0.476	0.0
-0.461	0.0
-0.446	0.0
-0.431	0.0
-0.416	0.0
-0.401	1.0
-0.387	0.0
-0.372	0.0
-0.357	0.0
-0.342	0.0
-0.327	0.0
-0.313	0.0
-0.298	0.0
-0.283	0.0
-0.268	0.0
-0.253	0.0
-0.238	0.0
-0.224	0.0
-0.209	0.0
-0.194	0.0
-0.179	0.0
-0.164	0.0
-0.15	0.0
-0.135	0.0
-0.12	0.0
-0.105	0.0
-0.09	0.0
-0.075	0.0
-0.061	0.0
-0.046	0.0
-0.031	0.0
-0.016	0.0
-0.001	0.0
0.013	0.0
0.028	0.0
0.043	0.0
0.058	0.0
0.073	0.0
0.088	0.0
0.102	0.0
0.117	0.0
0.132	0.0
0.147	0.0
0.162	0.0
0.176	0.0
0.191	0.0
0.206	0.0
0.221	0.0
0.236	0.0
0.251	0.0
0.265	0.0
0.28	0.0
0.295	0.0
0.31	0.0
0.325	0.0
0.339	0.0
0.354	0.0
0.369	0.0
0.384	1.0
0.399	0.0
0.414	0.0
0.428	0.0
0.443	0.0
0.458	0.0
0.473	0.0
0.488	0.0
0.502	0.0
0.517	0.0
0.532	0.0
0.547	0.0
0.562	0.0
0.577	0.0
0.591	0.0
0.606	1.0
0.621	0.0
0.636	0.0
0.651	0.0
0.665	0.0
0.68	0.0
0.695	0.0
0.71	0.0
0.725	0.0
0.74	0.0
0.754	0.0
0.769	0.0
0.784	0.0
0.799	0.0
0.814	0.0
0.828	0.0
0.843	0.0
0.858	0.0
0.873	0.0
0.888	0.0
0.903	0.0
0.917	0.0
0.932	0.0
0.947	0.0
0.962	0.0
0.977	0.0
0.991	0.0
1.006	0.0
1.021	1.0
1.036	0.0
1.051	0.0
1.065	0.0
1.08	0.0
1.095	0.0
1.11	0.0
1.125	0.0
1.14	0.0
1.154	0.0
1.169	0.0
1.184	0.0
1.199	0.0
1.214	0.0
1.228	0.0
1.243	0.0
1.258	0.0
1.273	0.0
1.288	0.0
1.302	0.0
1.317	0.0
1.332	0.0
1.347	0.0
1.362	0.0
1.376	0.0
1.391	0.0
1.406	0.0
1.421	0.0
1.436	0.0
1.45	0.0
1.465	0.0
1.48	0.0
1.495	0.0
1.51	0.0
1.524	0.0
1.539	0.0
1.554	0.0
1.569	0.0
1.584	0.0
1.598	0.0
1.613	0.0
1.628	0.0
1.643	1.0
1.658	0.0
1.672	0.0
1.687	0.0
1.702	0.0
1.717	0.0
1.732	2.0
1.746	0.0
1.761	0.0
1.776	1.0
1.791	0.0
1.806	0.0
1.82	0.0
1.835	0.0
1.85	0.0
1.865	0.0
1.88	0.0
1.894	0.0
1.909	0.0
1.924	0.0
1.939	0.0
1.954	0.0
1.968	0.0
1.983	0.0
1.998	1.0
2.013	0.0
2.028	0.0
2.042	1.0
2.057	0.0
2.072	0.0
2.087	0.0
2.101	0.0
2.116	0.0
2.131	1.0
2.146	0.0
2.161	0.0
2.175	1.0
2.19	1.0
2.205	0.0
2.22	1.0
2.235	0.0
2.249	0.0
2.264	0.0
2.279	0.0
2.294	1.0
2.308	1.0
2.323	2.0
2.338	1.0
2.353	1.0
2.368	0.0
2.382	4.0
2.397	1.0
2.412	1.0
2.427	1.0
2.442	3.0
2.456	1.0
2.471	4.0
2.486	1.0
2.501	2.0
2.515	0.0
2.53	1.0
2.545	5.0
2.56	2.0
2.575	1.0
2.589	3.0
2.604	1.0
2.619	4.0
2.634	2.0
2.649	4.0
2.663	7.0
2.678	3.0
2.693	3.0
2.708	1.0
2.722	1.0
2.737	3.0
2.752	4.0
2.767	2.0
2.782	1.0
2.796	1.0
2.811	1.0
2.826	6.0
2.841	4.0
2.856	3.0
2.87	3.0
2.885	8.0
2.9	5.0
2.915	6.0
2.93	1.0
2.944	0.0
2.959	5.0
2.974	3.0
2.989	1.0
3.004	7.0
3.018	5.0
3.033	2.0
3.048	6.0
3.063	4.0
3.078	5.0
3.092	6.0
3.107	2.0
3.122	6.0
3.137	5.0
3.152	6.0
3.166	7.0
3.181	4.0
3.196	4.0
3.211	1.0
3.226	3.0
3.24	0.0
3.255	5.0
3.27	6.0
3.285	2.0
3.3	3.0
3.315	6.0
3.329	3.0
3.344	2.0
3.359	3.0
3.374	3.0
3.389	2.0
3.403	5.0
3.418	6.0
3.433	6.0
3.448	4.0
3.463	6.0
3.478	5.0
3.492	1.0
3.507	12.0
3.522	7.0
3.537	3.0
3.552	7.0
3.567	3.0
3.581	7.0
3.596	4.0
3.611	4.0
3.626	5.0
3.641	9.0
3.656	4.0
3.671	8.0
3.685	6.0
3.7	5.0
3.715	5.0
3.73	7.0
3.745	6.0
3.76	9.0
3.775	4.0
3.789	9.0
3.804	3.0
3.819	4.0
3.834	7.0
3.849	7.0
3.864	3.0
3.879	4.0
3.894	5.0
3.908	5.0
3.923	7.0
3.938	9.0
3.953	6.0
3.968	5.0
3.983	8.0
3.998	8.0
4.013	8.0
4.027	4.0
4.042	7.0
4.057	6.0
4.072	7.0
4.087	8.0
4.102	6.0
4.117	2.0
4.132	5.0
4.147	6.0
4.162	9.0
4.176	7.0
4.191	7.0
4.206	5.0
4.221	5.0
4.236	8.0
4.251	5.0
4.266	7.0
4.281	10.0
4.296	8.0
4.311	2.0
4.326	8.0
4.341	10.0
4.356	6.0
4.37	8.0
4.385	13.0
4.4	6.0
4.415	5.0
4.43	4.0
4.445	5.0
4.46	6.0
4.475	6.0
4.49	6.0
4.505	10.0
4.52	7.0
4.535	8.0
4.55	8.0
4.565	4.0
4.58	6.0
4.595	5.0
4.61	6.0
4.625	7.0
4.639	5.0
4.654	15.0
4.669	3.0
4.684	10.0
4.699	4.0
4.714	7.0
4.729	4.0
4.744	4.0
4.759	7.0
4.774	9.0
4.789	8.0
4.804	3.0
4.819	7.0
4.834	9.0
4.849	9.0
4.864	2.0
4.879	9.0
4.894	4.0
4.909	6.0
4.924	5.0
4.939	8.0
4.954	8.0
4.969	7.0
4.984	9.0
4.999	8.0
5.014	6.0
5.029	6.0
5.044	11.0
5.059	10.0
5.074	7.0
5.089	9.0
5.104	8.0
5.119	8.0
5.134	8.0
5.149	7.0
5.164	10.0
5.179	10.0
5.194	11.0
5.209	4.0
5.224	7.0
5.239	4.0
5.254	10.0
5.269	8.0
5.284	9.0
5.299	7.0
5.314	8.0
5.329	6.0
5.344	7.0
5.359	7.0
5.374	6.0
5.389	5.0
5.404	4.0
5.419	11.0
5.434	12.0
5.449	4.0
5.464	6.0
5.479	5.0
5.494	9.0
5.509	10.0
5.524	13.0
5.539	9.0
5.554	9.0
5.569	11.0
5.584	7.0
5.599	12.0
5.614	5.0
5.629	6.0
5.644	7.0
5.659	4.0
5.674	9.0
5.689	3.0
5.704	9.0
5.719	11.0
5.734	10.0
5.749	6.0
5.764	9.0
5.779	15.0
5.794	11.0
5.809	9.0
5.824	7.0
5.839	10.0
5.854	6.0
5.869	4.0
5.884	10.0
5.899	7.0
5.914	8.0
5.929	10.0
5.944	5.0
5.959	18.0
5.974	11.0
5.989	4.0
6.004	7.0
6.019	11.0
6.034	10.0
6.049	7.0
6.064	4.0
6.079	9.0
6.094	15.0
6.109	14.0
6.124	10.0
6.139	11.0
6.154	17.0
6.169	10.0
6.184	9.0
6.199	8.0
6.214	5.0
6.229	11.0
6.244	10.0
6.259	7.0
6.274	9.0
6.289	9.0
6.304	6.0
6.319	10.0
6.334	12.0
6.349	2.0
6.364	9.0
6.379	14.0
6.394	10.0
6.409	7.0
6.424	1.0
6.439	7.0
6.454	10.0
6.469	7.0
6.484	11.0
6.499	8.0
6.514	15.0
6.529	8.0
6.544	8.0
6.559	14.0
6.574	10.0
6.589	6.0
6.604	10.0
6.619	7.0
6.634	9.0
6.649	5.0
6.664	18.0
6.679	10.0
6.694	12.0
6.709	11.0
6.724	8.0
6.739	8.0
6.754	4.0
6.769	12.0
6.784	14.0
6.799	12.0
6.814	10.0
6.829	7.0
6.844	14.0
6.859	14.0
6.873	5.0
6.888	9.0
6.903	8.0
6.918	9.0
6.933	9.0
6.948	8.0
6.963	11.0
6.978	11.0
6.993	11.0
7.008	12.0
7.023	9.0
7.038	7.0
7.053	11.0
7.068	11.0
7.083	10.0
7.098	8.0
7.113	7.0
7.128	8.0
7.143	7.0
7.157	4.0
7.172	12.0
7.187	7.0
7.202	10.0
7.217	5.0
7.232	4.0
7.247	10.0
7.262	9.0
7.277	10.0
7.292	10.0
7.307	14.0
7.322	10.0
7.336	9.0
7.351	8.0
7.366	12.0
7.381	7.0
7.396	13.0
7.411	8.0
7.426	5.0
7.441	14.0
7.456	13.0
7.471	8.0
7.485	8.0
7.5	9.0
7.515	8.0
7.53	9.0
7.545	10.0
7.56	9.0
7.575	7.0
7.59	3.0
7.604	7.0
7.619	13.0
7.634	11.0
7.649	12.0
7.664	10.0
7.679	9.0
7.693	11.0
7.708	7.0
7.723	9.0
7.738	6.0
7.753	11.0
7.768	6.0
7.783	5.0
7.797	8.0
7.812	8.0
7.827	8.0
7.842	7.0
7.857	7.0
7.871	12.0
7.886	4.0
7.901	9.0
7.916	10.0
7.931	6.0
7.945	8.0
7.96	9.0
7.975	9.0
7.99	13.0
8.005	10.0
8.019	8.0
8.034	9.0
8.049	11.0
8.064	7.0
8.078	11.0
8.093	7.0
8.108	13.0
8.123	5.0
8.137	7.0
8.152	6.0
8.167	5.0
8.182	4.0
8.196	9.0
8.211	9.0
8.226	9.0
8.241	9.0
8.255	11.0
8.27	10.0
8.285	8.0
8.3	11.0
8.314	8.0
8.329	6.0
8.344	6.0
8.358	11.0
8.373	9.0
8.388	10.0
8.403	16.0
8.417	5.0
8.432	10.0
8.447	8.0
8.461	5.0
8.476	11.0
8.491	9.0
8.505	9.0
8.52	13.0
8.535	7.0
8.55	5.0
8.564	17.0
8.579	8.0
8.594	5.0
8.608	10.0
8.623	5.0
8.638	7.0
8.652	12.0
8.667	9.0
8.682	10.0
8.696	10.0
8.711	14.0
8.726	5.0
8.74	11.0
8.755	8.0
8.77	13.0
8.784	13.0
8.799	8.0
8.814	4.0
8.828	9.0
8.843	16.0
8.858	8.0
8.872	11.0
8.887	10.0
8.902	13.0
8.916	11.0
8.931	10.0
8.946	11.0
8.96	6.0
8.975	6.0
8.99	12.0
9.004	8.0
9.019	8.0
9.034	3.0
9.048	12.0
9.063	8.0
9.077	11.0
9.092	10.0
9.107	9.0
9.121	9.0
9.136	12.0
9.151	8.0
9.165	9.0
9.18	7.0
9.195	9.0
9.209	5.0
9.224	4.0
9.239	13.0
9.253	12.0
9.268	11.0
9.283	6.0
9.297	8.0
9.312	5.0
9.327	4.0
9.341	6.0
9.356	10.0
9.371	5.0
9.385	6.0
9.4	14.0
9.415	8.0
9.429	8.0
9.444	11.0
9.458	13.0
9.473	6.0
9.488	6.0
9.502	4.0
9.517	7.0
9.532	9.0
9.546	12.0
9.561	7.0
9.576	3.0
9.59	7.0
9.605	12.0
9.62	7.0
9.635	10.0
9.649	10.0
9.664	5.0
9.679	10.0
9.693	9.0
9.708	5.0
9.723	9.0
9.737	9.0
9.752	5.0
9.767	9.0
9.781	6.0
9.796	7.0
9.811	8.0
9.825	10.0
9.84	13.0
9.855	9.0
9.87	10.0
9.884	12.0
9.899	9.0
9.914	11.0
9.928	15.0
9.943	3.0
9.958	7.0
9.973	7.0
9.987	14.0
10.002	6.0
10.017	16.0
10.031	1.0
10.046	11.0
10.061	7.0
10.076	8.0
10.09	10.0
10.105	9.0
10.12	5.0
10.135	13.0
10.149	8.0
10.164	16.0
10.179	15.0
10.194	7.0
10.208	17.0
10.223	11.0
10.238	9.0
10.253	6.0
10.267	7.0
10.282	8.0
10.297	7.0
10.312	2.0
10.326	8.0
10.341	7.0
10.356	9.0
10.371	9.0
10.386	8.0
10.4	9.0
10.415	11.0
10.43	8.0
10.445	12.0
10.46	10.0
10.474	7.0
10.489	8.0
10.504	3.0
10.519	9.0
10.533	6.0
10.548	10.0
10.563	5.0
10.578	8.0
10.593	6.0
10.608	9.0
10.622	6.0
10.637	4.0
10.652	6.0
10.667	10.0
10.682	9.0
10.696	8.0
10.711	8.0
10.726	8.0
10.741	8.0
10.756	7.0
10.771	5.0
10.785	8.0
10.8	10.0
10.815	5.0
10.83	11.0
10.845	6.0
10.86	6.0
10.874	9.0
10.889	5.0
10.904	11.0
10.919	14.0
10.934	8.0
10.949	3.0
10.963	8.0
10.978	9.0
10.993	6.0
11.008	6.0
11.023	6.0
11.038	9.0
11.053	6.0
11.067	6.0
11.082	3.0
11.097	10.0
11.112	8.0
11.127	8.0
11.142	7.0
11.157	5.0
11.172	7.0
11.186	4.0
11.201	6.0
11.216	6.0
11.231	5.0
11.246	8.0
11.261	7.0
11.276	6.0
11.291	8.0
11.305	9.0
11.32	8.0
11.335	8.0
11.35	6.0
11.365	9.0
11.38	5.0
11.395	12.0
11.41	4.0
11.424	5.0
11.439	8.0
11.454	7.0
11.469	11.0
11.484	9.0
11.499	9.0
11.514	6.0
11.529	6.0
11.544	11.0
11.558	10.0
11.573	7.0
11.588	8.0
11.603	13.0
11.618	8.0
11.633	5.0
11.648	10.0
11.663	3.0
11.678	8.0
11.693	7.0
11.707	10.0
11.722	8.0
11.737	12.0
11.752	8.0
11.767	9.0
11.782	6.0
11.797	10.0
11.812	3.0
11.827	15.0
11.842	7.0
11.856	15.0
11.871	12.0
11.886	8.0
11.901	11.0
11.916	14.0
11.931	6.0
11.946	8.0
11.961	9.0
11.976	10.0
11.991	9.0
12.006	11.0
12.02	11.0
12.035	6.0
12.05	4.0
12.065	8.0
12.08	10.0
12.095	11.0
12.11	8.0
12.125	12.0
12.14	7.0
12.155	8.0
12.17	10.0
12.184	10.0
12.199	6.0
12.214	11.0
12.229	6.0
12.244	16.0
12.259	14.0
12.274	12.0
12.289	10.0
12.304	9.0
12.319	11.0
12.334	13.0
12.348	15.0
12.363	10.0
12.378	9.0
12.393	9.0
12.408	9.0
12.423	9.0
12.438	10.0
12.453	11.0
12.468	11.0
12.483	12.0
12.498	9.0
12.513	11.0
12.527	12.0
12.542	11.0
12.557	13.0
12.572	8.0
12.587	21.0
12.602	12.0
12.617	11.0
12.632	14.0
12.647	16.0
12.662	15.0
12.677	9.0
12.692	10.0
12.707	17.0
12.721	13.0
12.736	12.0
12.751	14.0
12.766	12.0
12.781	9.0
12.796	19.0
12.811	11.0
12.826	15.0
12.841	18.0
12.856	8.0
12.871	10.0
12.886	18.0
12.9	23.0
12.915	12.0
12.93	15.0
12.945	11.0
12.96	12.0
12.975	17.0
12.99	16.0
13.005	16.0
13.02	14.0
13.035	15.0
13.05	12.0
13.065	20.0
13.08	18.0
13.094	26.0
13.109	14.0
13.124	17.0
13.139	18.0
13.154	18.0
13.169	21.0
13.184	23.0
13.199	21.0
13.214	18.0
13.229	14.0
13.244	15.0
13.259	24.0
13.274	21.0
13.288	22.0
13.303	15.0
13.318	17.0
13.333	28.0
13.348	16.0
13.363	20.0
13.378	30.0
13.393	18.0
13.408	28.0
13.423	22.0
13.438	38.0
13.453	18.0
13.468	29.0
13.482	40.0
13.497	36.0
13.512	48.0
13.527	47.0
13.542	50.0
13.557	46.0
13.572	53.0
13.587	47.0
13.602	48.0
13.617	51.0
13.632	78.0
13.647	71.0
13.662	73.0
13.677	85.0
13.691	74.0
13.706	91.0
13.721	91.0
13.736	89.0
13.751	95.0
13.766	116.0
13.781	131.0
13.796	125.0
13.811	145.0
13.826	142.0
13.841	106.0
13.856	126.0
13.871	107.0
13.885	119.0
13.9	110.0
13.915	86.0
13.93	85.0
13.945	52.0
13.96	41.0
13.975	40.0
13.99	40.0
14.005	41.0
14.02	29.0
14.035	27.0
14.05	30.0
14.065	24.0
14.08	39.0
14.094	15.0
14.109	25.0
14.124	24.0
14.139	22.0
14.154	26.0
14.169	24.0
14.184	31.0
14.199	24.0
14.214	30.0
14.229	24.0
14.244	19.0
14.259	20.0
14.274	15.0
14.288	20.0
14.303	20.0
14.318	19.0
14.333	13.0
14.348	14.0
14.363	19.0
14.378	17.0
14.393	19.0
14.408	16.0
14.423	18.0
14.438	20.0
14.453	15.0
14.468	14.0
14.482	18.0
14.497	15.0
14.512	28.0
14.527	15.0
14.542	16.0
14.557	18.0
14.572	17.0
14.587	14.0
14.602	22.0
14.617	11.0
14.632	19.0
14.647	13.0
14.661	12.0
14.676	18.0
14.691	11.0
14.706	12.0
14.721	15.0
14.736	16.0
14.751	18.0
14.766	22.0
14.781	13.0
14.796	13.0
14.811	12.0
14.826	16.0
14.84	21.0
14.855	19.0
14.87	23.0
14.885	16.0
14.9	18.0
14.915	21.0
14.93	17.0
14.945	20.0
14.96	13.0
14.975	16.0
14.989	23.0
15.004	16.0
15.019	19.0
15.034	11.0
15.049	21.0
15.064	20.0
15.079	16.0
15.094	17.0
15.109	14.0
15.124	12.0
15.138	16.0
15.153	21.0
15.168	12.0
15.183	9.0
15.198	15.0
15.213	22.0
15.228	10.0
15.243	17.0
15.258	15.0
15.272	16.0
15.287	14.0
15.302	16.0
15.317	16.0
15.332	18.0
15.347	17.0
15.362	17.0
15.377	14.0
15.391	14.0
15.406	10.0
15.421	22.0
15.436	17.0
15.451	19.0
15.466	13.0
15.481	3.0
15.496	16.0
15.51	15.0
15.525	16.0
15.54	15.0
15.555	15.0
15.57	10.0
15.585	14.0
15.6	12.0
15.614	18.0
15.629	20.0
15.644	15.0
15.659	24.0
15.674	17.0
15.689	13.0
15.704	20.0
15.718	13.0
15.733	10.0
15.748	10.0
15.763	16.0
15.778	7.0
15.793	11.0
15.808	12.0
15.822	14.0
15.837	14.0
15.852	14.0
15.867	16.0
15.882	10.0
15.897	6.0
15.911	19.0
15.926	17.0
15.941	19.0
15.956	13.0
15.971	13.0
15.986	20.0
16.0	12.0
16.015	10.0
16.03	18.0
16.045	8.0
16.06	20.0
16.074	16.0
16.089	22.0
16.104	20.0
16.119	21.0
16.134	26.0
16.149	17.0
16.163	19.0
16.178	9.0
16.193	15.0
16.208	19.0
16.223	19.0
16.237	12.0
16.252	15.0
16.267	11.0
16.282	13.0
16.297	17.0
16.311	11.0
16.326	13.0
16.341	8.0
16.356	15.0
16.37	17.0
16.385	13.0
16.4	18.0
16.415	15.0
16.43	14.0
16.444	13.0
16.459	12.0
16.474	7.0
16.489	20.0
16.504	19.0
16.518	20.0
16.533	12.0
16.548	20.0
16.563	15.0
16.577	17.0
16.592	19.0
16.607	22.0
16.622	16.0
16.637	17.0
16.651	11.0
16.666	19.0
16.681	27.0
16.696	27.0
16.71	28.0
16.725	29.0
16.74	34.0
16.755	38.0
16.77	42.0
16.784	37.0
16.799	35.0
16.814	49.0
16.829	36.0
16.843	52.0
16.858	54.0
16.873	49.0
16.888	52.0
16.902	61.0
16.917	68.0
16.932	66.0
16.947	83.0
16.961	89.0
16.976	67.0
16.991	68.0
17.006	63.0
17.021	75.0
17.035	57.0
17.05	44.0
17.065	48.0
17.08	42.0
17.094	43.0
17.109	41.0
17.124	17.0
17.139	18.0
17.153	19.0
17.168	17.0
17.183	16.0
17.198	13.0
17.212	16.0
17.227	15.0
17.242	13.0
17.257	17.0
17.271	13.0
17.286	16.0
17.301	20.0
17.316	13.0
17.33	17.0
17.345	13.0
17.36	21.0
17.375	6.0
17.39	14.0
17.404	7.0
17.419	13.0
17.434	10.0
17.449	15.0
17.463	17.0
17.478	12.0
17.493	12.0
17.508	16.0
17.522	13.0
17.537	10.0
17.552	14.0
17.567	15.0
17.581	19.0
17.596	12.0
17.611	10.0
17.626	17.0
17.641	12.0
17.655	11.0
17.67	19.0
17.685	10.0
17.7	15.0
17.714	10.0
17.729	18.0
17.744	13.0
17.759	11.0
17.773	13.0
17.788	15.0
17.803	14.0
17.818	13.0
17.833	21.0
17.847	13.0
17.862	11.0
17.877	13.0
17.892	11.0
17.906	13.0
17.921	17.0
17.936	14.0
17.951	11.0
17.966	11.0
17.98	11.0
17.995	13.0
18.01	14.0
18.025	14.0
18.04	12.0
18.054	11.0
18.069	13.0
18.084	8.0
18.099	5.0
18.114	13.0
18.128	9.0
18.143	11.0
18.158	13.0
18.173	16.0
18.188	13.0
18.202	11.0
18.217	16.0
18.232	10.0
18.247	15.0
18.262	6.0
18.276	10.0
18.291	9.0
18.306	4.0
18.321	16.0
18.336	12.0
18.35	10.0
18.365	12.0
18.38	7.0
18.395	11.0
18.41	13.0
18.424	12.0
18.439	19.0
18.454	13.0
18.469	12.0
18.484	10.0
18.498	8.0
18.513	15.0
18.528	9.0
18.543	8.0
18.558	12.0
18.573	10.0
18.587	12.0
18.602	13.0
18.617	8.0
18.632	13.0
18.647	17.0
18.661	8.0
18.676	13.0
18.691	7.0
18.706	14.0
18.721	10.0
18.736	14.0
18.75	9.0
18.765	11.0
18.78	12.0
18.795	10.0
18.81	13.0
18.825	11.0
18.839	17.0
18.854	16.0
18.869	13.0
18.884	18.0
18.899	9.0
18.913	11.0
18.928	14.0
18.943	9.0
18.958	9.0
18.973	16.0
18.988	16.0
19.002	7.0
19.017	7.0
19.032	7.0
19.047	14.0
19.062	10.0
19.077	11.0
19.091	6.0
19.106	10.0
19.121	5.0
19.136	13.0
19.151	17.0
19.165	11.0
19.18	13.0
19.195	12.0
19.21	20.0
19.225	14.0
19.24	12.0
19.254	14.0
19.269	14.0
19.284	10.0
19.299	14.0
19.314	19.0
19.329	12.0
19.343	15.0
19.358	14.0
19.373	16.0
19.388	11.0
19.403	22.0
19.417	15.0
19.432	22.0
19.447	17.0
19.462	26.0
19.477	32.0
19.492	37.0
19.506	26.0
19.521	43.0
19.536	37.0
19.551	44.0
19.566	42.0
19.58	41.0
19.595	43.0
19.61	45.0
19.625	32.0
19.64	39.0
19.655	37.0
19.669	41.0
19.684	29.0
19.699	29.0
19.714	25.0
19.729	29.0
19.743	20.0
19.758	21.0
19.773	29.0
19.788	17.0
19.803	15.0
19.817	12.0
19.832	14.0
19.847	12.0
19.862	11.0
19.877	19.0
19.891	7.0
19.906	11.0
19.921	17.0
19.936	13.0
19.951	19.0
19.965	12.0
19.98	11.0
19.995	12.0
20.01	13.0
20.025	9.0
20.039	8.0
20.054	7.0
20.069	13.0
20.084	7.0
20.099	16.0
20.113	10.0
20.128	8.0
20.143	13.0
20.158	11.0
20.173	9.0
20.187	10.0
20.202	14.0
20.217	6.0
20.232	17.0
20.246	8.0
20.261	15.0
20.276	11.0
20.291	11.0
20.306	10.0
20.32	10.0
20.335	13.0
20.35	9.0
20.365	12.0
20.38	11.0
20.394	16.0
20.409	4.0
20.424	12.0
20.439	10.0
20.453	8.0
20.468	8.0
20.483	11.0
20.498	10.0
20.513	10.0
20.527	17.0
20.542	8.0
20.557	8.0
20.572	14.0
20.586	15.0
20.601	17.0
20.616	14.0
20.631	13.0
20.646	16.0
20.66	12.0
20.675	5.0
20.69	17.0
20.705	14.0
20.719	11.0
20.734	12.0
20.749	13.0
20.764	9.0
20.779	9.0
20.793	9.0
20.808	11.0
20.823	11.0
20.838	8.0
20.853	9.0
20.867	14.0
20.882	8.0
20.897	11.0
20.912	10.0
20.926	16.0
20.941	10.0
20.956	7.0
20.971	12.0
20.986	13.0
21.0	7.0
21.015	9.0
21.03	14.0
21.045	9.0
21.06	13.0
21.074	13.0
21.089	5.0
21.104	12.0
21.119	18.0
21.134	10.0
21.148	8.0
21.163	8.0
21.178	9.0
21.193	12.0
21.208	15.0
21.222	10.0
21.237	14.0
21.252	10.0
21.267	15.0
21.282	15.0
21.296	7.0
21.311	11.0
21.326	8.0
21.341	9.0
21.356	12.0
21.37	12.0
21.385	13.0
21.4	7.0
21.415	11.0
21.43	17.0
21.444	13.0
21.459	11.0
21.474	15.0
21.489	12.0
21.504	12.0
21.519	11.0
21.533	18.0
21.548	15.0
21.563	5.0
21.578	12.0
21.593	22.0
21.608	13.0
21.622	11.0
21.637	18.0
21.652	15.0
21.667	11.0
21.682	17.0
21.697	20.0
21.712	10.0
21.726	25.0
21.741	26.0
21.756	25.0
21.771	24.0
21.786	25.0
21.801	42.0
21.816	44.0
21.83	47.0
21.845	53.0
21.86	57.0
21.875	53.0
21.89	59.0
21.905	58.0
21.92	54.0
21.935	78.0
21.949	95.0
21.964	96.0
21.979	83.0
21.994	73.0
22.009	71.0
22.024	62.0
22.039	66.0
22.054	71.0
22.069	62.0
22.083	46.0
22.098	42.0
22.113	42.0
22.128	36.0
22.143	31.0
22.158	27.0
22.173	19.0
22.188	21.0
22.203	20.0
22.218	17.0
22.233	13.0
22.248	15.0
22.262	12.0
22.277	15.0
22.292	11.0
22.307	14.0
22.322	15.0
22.337	10.0
22.352	13.0
22.367	11.0
22.382	13.0
22.397	4.0
22.412	16.0
22.427	12.0
22.442	20.0
22.457	18.0
22.472	16.0
22.487	9.0
22.502	15.0
22.516	12.0
22.531	14.0
22.546	10.0
22.561	7.0
22.576	10.0
22.591	9.0
22.606	15.0
22.621	9.0
22.636	12.0
22.651	9.0
22.666	15.0
22.681	10.0
22.696	7.0
22.711	9.0
22.726	12.0
22.741	5.0
22.756	9.0
22.771	12.0
22.786	10.0
22.801	9.0
22.816	6.0
22.831	10.0
22.846	17.0
22.861	5.0
22.876	14.0
22.891	13.0
22.906	7.0
22.92	11.0
22.935	19.0
22.95	5.0
22.965	11.0
22.98	13.0
22.995	20.0
23.01	12.0
23.025	10.0
23.04	12.0
23.055	11.0
23.07	3.0
23.085	11.0
23.1	10.0
23.115	11.0
23.13	6.0
23.145	9.0
23.16	14.0
23.175	7.0
23.19	7.0
23.205	6.0
23.22	12.0
23.235	15.0
23.25	9.0
23.265	6.0
23.28	11.0
23.295	9.0
23.31	10.0
23.325	14.0
23.34	17.0
23.355	11.0
23.37	11.0
23.384	9.0
23.399	8.0
23.414	11.0
23.429	15.0
23.444	11.0
23.459	4.0
23.474	10.0
23.489	12.0
23.504	9.0
23.519	9.0
23.534	5.0
23.549	15.0
23.564	17.0
23.579	13.0
23.594	15.0
23.609	13.0
23.624	10.0
23.639	4.0
23.654	14.0
23.668	16.0
23.683	14.0
23.698	10.0
23.713	13.0
23.728	15.0
23.743	11.0
23.758	5.0
23.773	13.0
23.788	11.0
23.803	10.0
23.818	13.0
23.833	12.0
23.848	13.0
23.862	13.0
23.877	24.0
23.892	18.0
23.907	21.0
23.922	23.0
23.937	23.0
23.952	18.0
23.967	34.0
23.982	43.0
23.997	39.0
24.011	44.0
24.026	47.0
24.041	48.0
24.056	49.0
24.071	56.0
24.086	62.0
24.101	42.0
24.116	47.0
24.131	40.0
24.145	43.0
24.16	44.0
24.175	47.0
24.19	42.0
24.205	51.0
24.22	27.0
24.235	36.0
24.249	32.0
24.264	27.0
24.279	33.0
24.294	19.0
24.309	26.0
24.324	19.0
24.338	10.0
24.353	16.0
24.368	17.0
24.383	19.0
24.398	10.0
24.413	12.0
24.428	13.0
24.442	14.0
24.457	6.0
24.472	21.0
24.487	16.0
24.502	13.0
24.516	8.0
24.531	17.0
24.546	11.0
24.561	9.0
24.576	16.0
24.591	15.0
24.605	6.0
24.62	6.0
24.635	19.0
24.65	15.0
24.665	7.0
24.679	7.0
24.694	13.0
24.709	11.0
24.724	8.0
24.739	11.0
24.753	12.0
24.768	9.0
24.783	8.0
24.798	13.0
24.813	9.0
24.827	19.0
24.842	13.0
24.857	9.0
24.872	8.0
24.886	15.0
24.901	11.0
24.916	12.0
24.931	16.0
24.946	9.0
24.96	10.0
24.975	12.0
24.99	13.0
25.005	19.0
25.019	6.0
25.034	16.0
25.049	9.0
25.064	10.0
25.078	9.0
25.093	15.0
25.108	3.0
25.123	5.0
25.138	12.0
25.152	10.0
25.167	9.0
25.182	6.0
25.197	9.0
25.211	13.0
25.226	11.0
25.241	6.0
25.256	7.0
25.27	8.0
25.285	8.0
25.3	9.0
25.315	9.0
25.329	7.0
25.344	5.0
25.359	11.0
25.374	11.0
25.388	13.0
25.403	13.0
25.418	5.0
25.433	8.0
25.447	10.0
25.462	12.0
25.477	10.0
25.492	12.0
25.506	7.0
25.521	10.0
25.536	13.0
25.55	12.0
25.565	7.0
25.58	8.0
25.595	14.0
25.609	9.0
25.624	10.0
25.639	7.0
25.654	5.0
25.668	4.0
25.683	8.0
25.698	6.0
25.713	9.0
25.727	12.0
25.742	11.0
25.757	10.0
25.772	10.0
25.786	8.0
25.801	14.0
25.816	9.0
25.83	7.0
25.845	7.0
25.86	6.0
25.875	14.0
25.889	9.0
25.904	14.0
25.919	14.0
25.934	8.0
25.948	8.0
25.963	17.0
25.978	13.0
25.992	6.0
26.007	14.0
26.022	17.0
26.037	7.0
26.051	10.0
26.066	11.0
26.081	4.0
26.096	12.0
26.11	9.0
26.125	9.0
26.14	14.0
26.155	15.0
26.169	10.0
26.184	10.0
26.199	11.0
26.213	16.0
26.228	9.0
26.243	6.0
26.258	11.0
26.272	9.0
26.287	11.0
26.302	11.0
26.317	12.0
26.331	14.0
26.346	8.0
26.361	15.0
26.376	7.0
26.39	11.0
26.405	9.0
26.42	8.0
26.434	11.0
26.449	12.0
26.464	12.0
26.479	11.0
26.493	11.0
26.508	6.0
26.523	15.0
26.538	5.0
26.552	10.0
26.567	8.0
26.582	11.0
26.597	6.0
26.611	8.0
26.626	8.0
26.641	8.0
26.656	10.0
26.67	10.0
26.685	16.0
26.7	12.0
26.715	16.0
26.729	11.0
26.744	6.0
26.759	11.0
26.773	10.0
26.788	10.0
26.803	15.0
26.818	6.0
26.832	5.0
26.847	8.0
26.862	11.0
26.877	6.0
26.891	8.0
26.906	10.0
26.921	11.0
26.936	8.0
26.95	5.0
26.965	8.0
26.98	12.0
26.995	10.0
27.01	12.0
27.024	8.0
27.039	8.0
27.054	7.0
27.069	16.0
27.083	9.0
27.098	18.0
27.113	7.0
27.128	8.0
27.142	12.0
27.157	10.0
27.172	14.0
27.187	6.0
27.201	9.0
27.216	9.0
27.231	10.0
27.246	10.0
27.261	12.0
27.275	13.0
27.29	8.0
27.305	11.0
27.32	10.0
27.334	10.0
27.349	13.0
27.364	7.0
27.379	7.0
27.394	6.0
27.408	13.0
27.423	4.0
27.438	8.0
27.453	9.0
27.467	11.0
27.482	12.0
27.497	12.0
27.512	10.0
27.527	9.0
27.541	13.0
27.556	9.0
27.571	7.0
27.586	8.0
27.601	11.0
27.615	18.0
27.63	16.0
27.645	17.0
27.66	12.0
27.675	9.0
27.689	12.0
27.704	12.0
27.719	12.0
27.734	11.0
27.749	20.0
27.763	15.0
27.778	22.0
27.793	22.0
27.808	24.0
27.823	25.0
27.838	21.0
27.852	19.0
27.867	19.0
27.882	30.0
27.897	18.0
27.912	26.0
27.926	22.0
27.941	17.0
27.956	18.0
27.971	28.0
27.986	17.0
28.001	22.0
28.015	15.0
28.03	19.0
28.045	9.0
28.06	17.0
28.075	17.0
28.09	11.0
28.105	24.0
28.119	14.0
28.134	14.0
28.149	15.0
28.164	16.0
28.179	8.0
28.194	10.0
28.208	10.0
28.223	17.0
28.238	9.0
28.253	15.0
28.268	8.0
28.283	8.0
28.298	11.0
28.312	7.0
28.327	10.0
28.342	9.0
28.357	8.0
28.372	11.0
28.387	11.0
28.402	6.0
28.417	6.0
28.431	12.0
28.446	11.0
28.461	11.0
28.476	9.0
28.491	11.0
28.506	10.0
28.521	8.0
28.536	11.0
28.55	10.0
28.565	6.0
28.58	8.0
28.595	7.0
28.61	12.0
28.625	18.0
28.64	15.0
28.655	12.0
28.669	11.0
28.684	7.0
28.699	11.0
28.714	13.0
28.729	18.0
28.744	12.0
28.759	7.0
28.774	8.0
28.788	8.0
28.803	9.0
28.818	14.0
28.833	7.0
28.848	17.0
28.863	8.0
28.878	10.0
28.893	17.0
28.908	16.0
28.922	13.0
28.937	18.0
28.952	11.0
28.967	13.0
28.982	9.0
28.997	11.0
29.012	10.0
29.027	10.0
29.041	12.0
29.056	8.0
29.071	13.0
29.086	12.0
29.101	12.0
29.116	12.0
29.131	14.0
29.146	16.0
29.16	13.0
29.175	11.0
29.19	14.0
29.205	9.0
29.22	13.0
29.235	10.0
29.25	11.0
29.265	10.0
29.279	14.0
29.294	16.0
29.309	11.0
29.324	16.0
29.339	17.0
29.354	14.0
29.369	12.0
29.384	12.0
29.398	18.0
29.413	14.0
29.428	16.0
29.443	20.0
29.458	17.0
29.473	16.0
29.488	23.0
29.502	36.0
29.517	44.0
29.532	37.0
29.547	37.0
29.562	53.0
29.577	58.0
29.592	51.0
29.606	55.0
29.621	69.0
29.636	46.0
29.651	36.0
29.666	46.0
29.681	34.0
29.695	28.0
29.71	32.0
29.725	33.0
29.74	25.0
29.755	33.0
29.77	41.0
29.784	28.0
29.799	36.0
29.814	31.0
29.829	20.0
29.844	22.0
29.859	20.0
29.873	13.0
29.888	15.0
29.903	17.0
29.918	22.0
29.933	13.0
29.947	11.0
29.962	15.0
29.977	8.0
29.992	12.0
30.007	15.0
30.021	14.0
30.036	11.0
30.051	7.0
30.066	15.0
30.081	9.0
30.095	4.0
30.11	11.0
30.125	10.0
30.14	15.0
30.155	14.0
30.169	11.0
30.184	9.0
30.199	8.0
30.214	14.0
30.228	9.0
30.243	7.0
30.258	11.0
30.273	12.0
30.288	7.0
30.302	11.0
30.317	5.0
30.332	12.0
30.347	10.0
30.361	12.0
30.376	10.0
30.391	8.0
30.406	18.0
30.42	10.0
30.435	15.0
30.45	12.0
30.465	10.0
30.479	8.0
30.494	10.0
30.509	21.0
30.524	12.0
30.538	14.0
30.553	11.0
30.568	14.0
30.583	14.0
30.597	10.0
30.612	11.0
30.627	7.0
30.641	9.0
30.656	8.0
30.671	18.0
30.686	15.0
30.7	7.0
30.715	8.0
30.73	11.0
30.745	11.0
30.759	10.0
30.774	12.0
30.789	9.0
30.803	22.0
30.818	8.0
30.833	9.0
30.848	12.0
30.862	12.0
30.877	11.0
30.892	9.0
30.906	11.0
30.921	10.0
30.936	11.0
30.951	14.0
30.965	10.0
30.98	11.0
30.995	10.0
31.009	16.0
31.024	9.0
31.039	13.0
31.053	11.0
31.068	20.0
31.083	9.0
31.098	17.0
31.112	19.0
31.127	22.0
31.142	18.0
31.156	22.0
31.171	25.0
31.186	25.0
31.2	33.0
31.215	42.0
31.23	45.0
31.245	31.0
31.259	39.0
31.274	27.0
31.289	40.0
31.303	39.0
31.318	30.0
31.333	24.0
31.347	28.0
31.362	27.0
31.377	22.0
31.392	35.0
31.406	27.0
31.421	30.0
31.436	26.0
31.45	26.0
31.465	28.0
31.48	20.0
31.494	25.0
31.509	30.0
31.524	28.0
31.538	24.0
31.553	18.0
31.568	12.0
31.583	10.0
31.597	7.0
31.612	15.0
31.627	12.0
31.641	14.0
31.656	16.0
31.671	12.0
31.685	14.0
31.7	16.0
31.715	11.0
31.729	15.0
31.744	19.0
31.759	10.0
31.774	12.0
31.788	9.0
31.803	7.0
31.818	10.0
31.832	7.0
31.847	9.0
31.862	9.0
31.876	16.0
31.891	9.0
31.906	6.0
31.92	10.0
31.935	13.0
31.95	8.0
31.965	9.0
31.979	6.0
31.994	6.0
32.009	10.0
32.023	8.0
32.038	12.0
32.053	12.0
32.067	6.0
32.082	11.0
32.097	6.0
32.112	5.0
32.126	8.0
32.141	9.0
32.156	7.0
32.17	11.0
32.185	9.0
32.2	8.0
32.214	11.0
32.229	9.0
32.244	7.0
32.259	12.0
32.273	10.0
32.288	10.0
32.303	7.0
32.317	12.0
32.332	10.0
32.347	11.0
32.362	17.0
32.376	10.0
32.391	15.0
32.406	11.0
32.42	8.0
32.435	15.0
32.45	12.0
32.465	13.0
32.479	12.0
32.494	6.0
32.509	12.0
32.523	13.0
32.538	12.0
32.553	7.0
32.568	10.0
32.582	17.0
32.597	10.0
32.612	17.0
32.627	8.0
32.641	8.0
32.656	16.0
32.671	11.0
32.685	19.0
32.7	12.0
32.715	12.0
32.73	13.0
32.744	21.0
32.759	17.0
32.774	20.0
32.788	20.0
32.803	25.0
32.818	17.0
32.833	22.0
32.847	23.0
32.862	26.0
32.877	21.0
32.892	17.0
32.906	19.0
32.921	16.0
32.936	19.0
32.951	18.0
32.965	9.0
32.98	23.0
32.995	15.0
33.009	23.0
33.024	17.0
33.039	18.0
33.054	19.0
33.068	23.0
33.083	13.0
33.098	24.0
33.113	18.0
33.127	10.0
33.142	6.0
33.157	11.0
33.172	5.0
33.186	11.0
33.201	8.0
33.216	10.0
33.231	11.0
33.245	20.0
33.26	11.0
33.275	5.0
33.29	10.0
33.304	4.0
33.319	6.0
33.334	13.0
33.349	5.0
33.363	10.0
33.378	8.0
33.393	13.0
33.408	10.0
33.422	8.0
33.437	10.0
33.452	13.0
33.467	13.0
33.481	10.0
33.496	6.0
33.511	6.0
33.526	10.0
33.54	14.0
33.555	13.0
33.57	15.0
33.585	8.0
33.599	10.0
33.614	11.0
33.629	5.0
33.644	9.0
33.658	11.0
33.673	9.0
33.688	9.0
33.703	7.0
33.718	13.0
33.732	6.0
33.747	8.0
33.762	8.0
33.777	8.0
33.791	7.0
33.806	5.0
33.821	12.0
33.836	3.0
33.85	9.0
33.865	9.0
33.88	3.0
33.895	8.0
33.91	8.0
33.924	12.0
33.939	5.0
33.954	9.0
33.969	12.0
33.983	15.0
33.998	10.0
34.013	6.0
34.028	10.0
34.042	11.0
34.057	16.0
34.072	11.0
34.087	11.0
34.102	6.0
34.116	10.0
34.131	10.0
34.146	13.0
34.161	6.0
34.175	11.0
34.19	14.0
34.205	15.0
34.22	11.0
34.235	18.0
34.249	9.0
34.264	17.0
34.279	22.0
34.294	10.0
34.309	19.0
34.323	18.0
34.338	13.0
34.353	13.0
34.368	16.0
34.382	12.0
34.397	12.0
34.412	8.0
34.427	17.0
34.442	14.0
34.456	15.0
34.471	12.0
34.486	10.0
34.501	10.0
34.516	16.0
34.53	3.0
34.545	12.0
34.56	13.0
34.575	5.0
34.59	14.0
34.604	11.0
34.619	8.0
34.634	17.0
34.649	12.0
34.664	9.0
34.678	5.0
34.693	5.0
34.708	10.0
34.723	10.0
34.738	13.0
34.752	8.0
34.767	12.0
34.782	7.0
34.797	10.0
34.812	7.0
34.826	6.0
34.841	5.0
34.856	11.0
34.871	6.0
34.886	10.0
34.9	13.0
34.915	8.0
34.93	7.0
34.945	13.0
34.96	9.0
34.974	13.0
34.989	8.0
35.004	10.0
35.019	18.0
35.034	13.0
35.048	8.0
35.063	10.0
35.078	13.0
35.093	15.0
35.108	4.0
35.122	15.0
35.137	5.0
35.152	13.0
35.167	17.0
35.182	7.0
35.196	7.0
35.211	11.0
35.226	4.0
35.241	6.0
35.256	12.0
35.27	9.0
35.285	17.0
35.3	7.0
35.315	5.0
35.33	7.0
35.344	4.0
35.359	12.0
35.374	10.0
35.389	15.0
35.404	10.0
35.418	8.0
35.433	4.0
35.448	10.0
35.463	11.0
35.478	9.0
35.493	8.0
35.507	9.0
35.522	8.0
35.537	8.0
35.552	10.0
35.567	6.0
35.581	12.0
35.596	13.0
35.611	12.0
35.626	11.0
35.641	7.0
35.655	13.0
35.67	11.0
35.685	12.0
35.7	17.0
35.715	11.0
35.729	11.0
35.744	18.0
35.759	18.0
35.774	25.0
35.789	26.0
35.804	24.0
35.818	16.0
35.833	15.0
35.848	13.0
35.863	16.0
35.878	15.0
35.892	14.0
35.907	10.0
35.922	18.0
35.937	12.0
35.952	15.0
35.966	14.0
35.981	16.0
35.996	21.0
36.011	15.0
36.026	16.0
36.04	6.0
36.055	13.0
36.07	12.0
36.085	15.0
36.1	15.0
36.114	14.0
36.129	6.0
36.144	7.0
36.159	9.0
36.174	7.0
36.189	9.0
36.203	8.0
36.218	6.0
36.233	9.0
36.248	6.0
36.263	9.0
36.277	7.0
36.292	6.0
36.307	5.0
36.322	8.0
36.337	7.0
36.351	9.0
36.366	10.0
36.381	5.0
36.396	12.0
36.411	11.0
36.426	7.0
36.44	10.0
36.455	12.0
36.47	9.0
36.485	10.0
36.5	5.0
36.514	9.0
36.529	11.0
36.544	9.0
36.559	5.0
36.574	9.0
36.589	10.0
36.603	9.0
36.618	10.0
36.633	8.0
36.648	7.0
36.663	13.0
36.677	4.0
36.692	5.0
36.707	10.0
36.722	12.0
36.737	10.0
36.752	9.0
36.766	11.0
36.781	7.0
36.796	7.0
36.811	6.0
36.826	6.0
36.841	7.0
36.855	7.0
36.87	9.0
36.885	7.0
36.9	7.0
36.915	6.0
36.93	10.0
36.944	13.0
36.959	10.0
36.974	9.0
36.989	13.0
37.004	8.0
37.019	18.0
37.033	14.0
37.048	14.0
37.063	20.0
37.078	20.0
37.093	20.0
37.108	23.0
37.123	37.0
37.137	38.0
37.152	20.0
37.167	28.0
37.182	29.0
37.197	29.0
37.212	33.0
37.226	23.0
37.241	23.0
37.256	23.0
37.271	15.0
37.286	18.0
37.301	17.0
37.316	19.0
37.331	19.0
37.345	23.0
37.36	16.0
37.375	17.0
37.39	18.0
37.405	24.0
37.42	16.0
37.435	15.0
37.45	26.0
37.464	15.0
37.479	14.0
37.494	7.0
37.509	9.0
37.524	9.0
37.539	16.0
37.554	9.0
37.569	4.0
37.583	5.0
37.598	14.0
37.613	9.0
37.628	7.0
37.643	5.0
37.658	8.0
37.673	4.0
37.688	8.0
37.703	4.0
37.718	4.0
37.733	6.0
37.747	3.0
37.762	4.0
37.777	9.0
37.792	7.0
37.807	6.0
37.822	5.0
37.837	11.0
37.852	2.0
37.867	6.0
37.882	5.0
37.897	7.0
37.912	3.0
37.927	4.0
37.941	5.0
37.956	10.0
37.971	7.0
37.986	10.0
38.001	9.0
38.016	5.0
38.031	8.0
38.046	7.0
38.061	6.0
38.076	10.0
38.091	8.0
38.106	12.0
38.121	4.0
38.136	7.0
38.151	4.0
38.166	3.0
38.181	7.0
38.196	3.0
38.211	5.0
38.226	8.0
38.241	9.0
38.256	8.0
38.271	0.0
38.285	9.0
38.3	8.0
38.315	8.0
38.33	6.0
38.345	6.0
38.36	5.0
38.375	3.0
38.39	3.0
38.405	11.0
38.42	7.0
38.435	6.0
38.45	5.0
38.465	6.0
38.48	6.0
38.495	7.0
38.51	5.0
38.525	10.0
38.54	6.0
38.555	10.0
38.57	6.0
38.585	9.0
38.6	4.0
38.615	6.0
38.63	7.0
38.645	10.0
38.66	4.0
38.675	7.0
38.69	15.0
38.705	9.0
38.72	4.0
38.735	6.0
38.75	4.0
38.765	6.0
38.78	3.0
38.795	9.0
38.81	13.0
38.825	6.0
38.84	9.0
38.855	5.0
38.87	5.0
38.885	8.0
38.9	9.0
38.915	4.0
38.93	6.0
38.945	2.0
38.96	6.0
38.975	4.0
38.99	4.0
39.005	9.0
39.02	8.0
39.035	7.0
39.05	8.0
39.065	6.0
39.08	2.0
39.095	6.0
39.11	10.0
39.125	4.0
39.14	5.0
39.155	4.0
39.17	11.0
39.185	4.0
39.2	11.0
39.215	7.0
39.23	8.0
39.245	6.0
39.26	5.0
39.275	8.0
39.29	3.0
39.305	5.0
39.32	6.0
39.335	10.0
39.35	9.0
39.365	8.0
39.38	6.0
39.395	6.0
39.409	4.0
39.424	10.0
39.439	4.0
39.454	6.0
39.469	6.0
39.484	8.0
39.499	3.0
39.514	4.0
39.529	4.0
39.544	8.0
39.559	6.0
39.574	10.0
39.589	2.0
39.604	4.0
39.619	5.0
39.634	7.0
39.649	11.0
39.664	7.0
39.678	4.0
39.693	7.0
39.708	9.0
39.723	6.0
39.738	11.0
39.753	4.0
39.768	5.0
39.783	3.0
39.798	10.0
39.813	6.0
39.827	4.0
39.842	8.0
39.857	6.0
39.872	11.0
39.887	8.0
39.902	15.0
39.917	11.0
39.932	7.0
39.947	4.0
39.961	2.0
39.976	5.0
39.991	10.0
40.006	14.0
40.021	8.0
40.036	7.0
40.051	5.0
40.065	5.0
40.08	8.0
40.095	6.0
40.11	11.0
40.125	12.0
40.14	6.0
40.154	10.0
40.169	5.0
40.184	4.0
40.199	8.0
40.214	8.0
40.228	9.0
40.243	5.0
40.258	5.0
40.273	4.0
40.288	6.0
40.302	6.0
40.317	7.0
40.332	8.0
40.347	8.0
40.362	6.0
40.376	6.0
40.391	5.0
40.406	3.0
40.421	6.0
40.436	4.0
40.45	8.0
40.465	6.0
40.48	3.0
40.495	5.0
40.509	6.0
40.524	10.0
40.539	5.0
40.554	9.0
40.568	11.0
40.583	6.0
40.598	5.0
40.613	4.0
40.627	3.0
40.642	4.0
40.657	3.0
40.672	5.0
40.686	6.0
40.701	4.0
40.716	9.0
40.731	11.0
40.745	3.0
40.76	4.0
40.775	7.0
40.79	9.0
40.804	4.0
40.819	10.0
40.834	11.0
40.849	4.0
40.863	6.0
40.878	10.0
40.893	10.0
40.907	2.0
40.922	8.0
40.937	4.0
40.952	5.0
40.966	7.0
40.981	11.0
40.996	11.0
41.011	7.0
41.025	16.0
41.04	9.0
41.055	16.0
41.069	24.0
41.084	15.0
41.099	18.0
41.114	19.0
41.128	21.0
41.143	22.0
41.158	14.0
41.173	18.0
41.187	18.0
41.202	16.0
41.217	18.0
41.231	15.0
41.246	7.0
41.261	7.0
41.276	11.0
41.29	7.0
41.305	17.0
41.32	8.0
41.335	17.0
41.349	12.0
41.364	19.0
41.379	15.0
41.393	22.0
41.408	9.0
41.423	11.0
41.438	15.0
41.452	12.0
41.467	9.0
41.482	6.0
41.497	8.0
41.511	7.0
41.526	8.0
41.541	8.0
41.556	8.0
41.57	7.0
41.585	5.0
41.6	4.0
41.615	7.0
41.629	12.0
41.644	3.0
41.659	2.0
41.674	5.0
41.688	9.0
41.703	5.0
41.718	5.0
41.733	8.0
41.747	13.0
41.762	7.0
41.777	4.0
41.792	4.0
41.806	7.0
41.821	3.0
41.836	9.0
41.851	5.0
41.866	4.0
41.88	5.0
41.895	4.0
41.91	7.0
41.925	4.0
41.939	7.0
41.954	10.0
41.969	7.0
41.984	5.0
41.999	5.0
42.013	6.0
42.028	4.0
42.043	6.0
42.058	4.0
42.073	6.0
42.088	7.0
42.102	5.0
42.117	5.0
42.132	3.0
42.147	3.0
42.162	5.0
42.176	6.0
42.191	13.0
42.206	8.0
42.221	3.0
42.236	5.0
42.251	11.0
42.266	3.0
42.28	5.0
42.295	12.0
42.31	11.0
42.325	14.0
42.34	16.0
42.355	9.0
42.369	15.0
42.384	19.0
42.399	14.0
42.414	19.0
42.429	8.0
42.444	12.0
42.459	11.0
42.474	11.0
42.488	8.0
42.503	13.0
42.518	5.0
42.533	11.0
42.548	10.0
42.563	9.0
42.578	8.0
42.593	7.0
42.608	10.0
42.622	13.0
42.637	9.0
42.652	7.0
42.667	10.0
42.682	13.0
42.697	4.0
42.712	6.0
42.727	13.0
42.742	10.0
42.757	6.0
42.772	6.0
42.786	7.0
42.801	8.0
42.816	5.0
42.831	12.0
42.846	5.0
42.861	4.0
42.876	9.0
42.891	4.0
42.906	6.0
42.921	3.0
42.936	7.0
42.951	5.0
42.966	6.0
42.981	2.0
42.996	2.0
43.011	5.0
43.025	9.0
43.04	7.0
43.055	5.0
43.07	3.0
43.085	9.0
43.1	7.0
43.115	5.0
43.13	10.0
43.145	8.0
43.16	10.0
43.175	6.0
43.19	1.0
43.205	6.0
43.22	3.0
43.235	5.0
43.25	6.0
43.265	4.0
43.28	3.0
43.295	5.0
43.31	5.0
43.325	5.0
43.34	4.0
43.355	5.0
43.37	3.0
43.385	4.0
43.4	5.0
43.415	4.0
43.43	4.0
43.445	5.0
43.46	10.0
43.475	9.0
43.49	7.0
43.505	2.0
43.52	13.0
43.535	8.0
43.55	8.0
43.565	5.0
43.58	10.0
43.595	6.0
43.61	6.0
43.625	8.0
43.64	6.0
43.655	7.0
43.67	16.0
43.685	5.0
43.7	13.0
43.715	5.0
43.73	10.0
43.745	13.0
43.76	5.0
43.775	7.0
43.79	3.0
43.805	11.0
43.82	9.0
43.835	9.0
43.85	5.0
43.865	12.0
43.88	5.0
43.895	9.0
43.91	4.0
43.925	9.0
43.94	7.0
43.955	9.0
43.97	7.0
43.985	6.0
44.0	7.0
44.015	7.0
44.03	10.0
44.045	5.0
44.061	3.0
44.076	2.0
44.091	9.0
44.106	6.0
44.121	3.0
44.136	8.0
44.151	1.0
44.166	9.0
44.181	6.0
44.196	3.0
44.211	4.0
44.226	7.0
44.241	2.0
44.256	6.0
44.271	6.0
44.286	5.0
44.301	5.0
44.316	3.0
44.331	5.0
44.346	7.0
44.361	5.0
44.377	6.0
44.392	3.0
44.407	5.0
44.422	3.0
44.437	2.0
44.452	6.0
44.467	5.0
44.482	8.0
44.497	10.0
44.512	6.0
44.527	4.0
44.542	5.0
44.557	6.0
44.572	3.0
44.587	6.0
44.602	3.0
44.617	5.0
44.632	4.0
44.647	6.0
44.663	5.0
44.678	10.0
44.693	3.0
44.708	6.0
44.723	5.0
44.738	9.0
44.753	7.0
44.768	11.0
44.783	11.0
44.798	10.0
44.813	12.0
44.828	11.0
44.843	8.0
44.858	17.0
44.873	12.0
44.888	5.0
44.903	7.0
44.918	5.0
44.933	8.0
44.948	11.0
44.964	5.0
44.979	11.0
44.994	6.0
45.009	6.0
45.024	4.0
45.039	17.0
45.054	11.0
45.069	7.0
45.084	8.0
45.099	3.0
45.114	9.0
45.129	6.0
45.144	8.0
45.159	6.0
45.174	6.0
45.189	6.0
45.204	4.0
45.219	6.0
45.234	7.0
45.249	7.0
45.264	1.0
45.279	12.0
45.294	9.0
45.309	5.0
45.324	3.0
45.339	3.0
45.354	7.0
45.369	6.0
45.384	5.0
45.399	8.0
45.414	5.0
45.429	2.0
45.444	2.0
45.459	6.0
45.474	6.0
45.489	6.0
45.504	4.0
45.519	4.0
45.534	7.0
45.549	2.0
45.564	4.0
45.579	3.0
45.594	5.0
45.609	6.0
45.624	3.0
45.639	6.0
45.654	2.0
45.669	3.0
45.684	5.0
45.699	4.0
45.714	2.0
45.729	10.0
45.744	5.0
45.759	7.0
45.774	8.0
45.789	7.0
45.804	7.0
45.819	6.0
45.834	10.0
45.849	10.0
45.864	9.0
45.879	14.0
45.894	9.0
45.909	10.0
45.924	12.0
45.939	10.0
45.954	19.0
45.969	17.0
45.984	13.0
45.998	16.0
46.013	12.0
46.028	13.0
46.043	23.0
46.058	6.0
46.073	7.0
46.088	5.0
46.103	5.0
46.118	5.0
46.133	8.0
46.148	7.0
46.163	14.0
46.178	6.0
46.192	6.0
46.207	8.0
46.222	12.0
46.237	16.0
46.252	11.0
46.267	17.0
46.282	9.0
46.297	5.0
46.312	6.0
46.327	5.0
46.341	10.0
46.356	10.0
46.371	11.0
46.386	9.0
46.401	6.0
46.416	4.0
46.431	7.0
46.446	4.0
46.46	4.0
46.475	3.0
46.49	2.0
46.505	5.0
46.52	5.0
46.535	4.0
46.55	8.0
46.564	5.0
46.579	5.0
46.594	5.0
46.609	5.0
46.624	10.0
46.639	3.0
46.654	2.0
46.668	1.0
46.683	5.0
46.698	4.0
46.713	3.0
46.728	6.0
46.743	4.0
46.758	1.0
46.772	5.0
46.787	3.0
46.802	7.0
46.817	4.0
46.832	9.0
46.847	8.0
46.861	2.0
46.876	3.0
46.891	8.0
46.906	5.0
46.921	6.0
46.936	4.0
46.95	8.0
46.965	5.0
46.98	4.0
46.995	8.0
47.01	6.0
47.025	3.0
47.039	6.0
47.054	7.0
47.069	8.0
47.084	6.0
47.099	12.0
47.113	9.0
47.128	11.0
47.143	8.0
47.158	10.0
47.173	14.0
47.188	9.0
47.202	7.0
47.217	8.0
47.232	6.0
47.247	2.0
47.262	9.0
47.277	7.0
47.291	7.0
47.306	1.0
47.321	3.0
47.336	4.0
47.351	12.0
47.365	5.0
47.38	10.0
47.395	5.0
47.41	4.0
47.425	8.0
47.44	10.0
47.454	4.0
47.469	9.0
47.484	8.0
47.499	8.0
47.514	5.0
47.528	10.0
47.543	6.0
47.558	7.0
47.573	4.0
47.588	4.0
47.603	1.0
47.617	5.0
47.632	4.0
47.647	4.0
47.662	3.0
47.677	6.0
47.691	3.0
47.706	8.0
47.721	7.0
47.736	4.0
47.751	2.0
47.766	7.0
47.78	5.0
47.795	4.0
47.81	5.0
47.825	7.0
47.84	10.0
47.855	4.0
47.869	3.0
47.884	0.0
47.899	0.0
47.914	6.0
47.929	5.0
47.944	8.0
47.958	5.0
47.973	3.0
47.988	4.0
48.003	3.0
48.018	8.0
48.033	4.0
48.047	2.0
48.062	12.0
48.077	1.0
48.092	3.0
48.107	3.0
48.122	3.0
48.137	0.0
48.151	6.0
48.166	4.0
48.181	2.0
48.196	5.0
48.211	6.0
48.226	9.0
48.241	4.0
48.255	7.0
48.27	4.0
48.285	3.0
48.3	3.0
48.315	3.0
48.33	3.0
48.345	2.0
48.359	9.0
48.374	4.0
48.389	1.0
48.404	4.0
48.419	5.0
48.434	2.0
48.449	3.0
48.464	6.0
48.478	4.0
48.493	4.0
48.508	6.0
48.523	3.0
48.538	1.0
48.553	9.0
48.568	2.0
48.583	5.0
48.597	4.0
48.612	3.0
48.627	9.0
48.642	9.0
48.657	4.0
48.672	2.0
48.687	2.0
48.702	3.0
48.717	4.0
48.731	5.0
48.746	5.0
48.761	3.0
48.776	8.0
48.791	4.0
48.806	3.0
48.821	3.0
48.836	6.0
48.851	4.0
48.866	5.0
48.88	3.0
48.895	3.0
48.91	4.0
48.925	4.0
48.94	4.0
48.955	3.0
48.97	4.0
48.985	3.0
49.0	4.0
49.015	6.0
49.03	6.0
49.044	8.0
49.059	5.0
49.074	5.0
49.089	3.0
49.104	8.0
49.119	9.0
49.134	6.0
49.149	5.0
49.164	7.0
49.179	9.0
49.194	5.0
49.209	3.0
49.224	5.0
49.238	7.0
49.253	6.0
49.268	5.0
49.283	9.0
49.298	7.0
49.313	4.0
49.328	12.0
49.343	4.0
49.358	6.0
49.373	9.0
49.388	8.0
49.403	10.0
49.418	10.0
49.433	9.0
49.448	6.0
49.463	9.0
49.478	4.0
49.492	3.0
49.507	6.0
49.522	7.0
49.537	3.0
49.552	2.0
49.567	7.0
49.582	10.0
49.597	8.0
49.612	5.0
49.627	6.0
49.642	5.0
49.657	10.0
49.672	10.0
49.687	8.0
49.702	5.0
49.717	7.0
49.732	4.0
49.747	5.0
49.762	6.0
49.777	8.0
49.792	3.0
49.807	8.0
49.822	7.0
49.837	4.0
49.852	4.0
49.867	5.0
49.882	3.0
49.897	3.0
49.912	9.0
49.927	6.0
49.942	4.0
49.957	10.0
49.971	9.0
49.986	5.0
50.001	6.0
50.016	8.0
50.031	6.0
50.046	7.0
50.061	3.0
50.076	6.0
50.091	4.0
50.106	6.0
50.121	9.0
50.136	3.0
50.151	13.0
50.166	8.0
50.181	3.0
50.196	6.0
50.211	6.0
50.226	6.0
50.241	7.0
50.256	5.0
50.271	4.0
50.286	2.0
50.302	3.0
50.317	7.0
50.332	4.0
50.347	6.0
50.362	2.0
50.377	9.0
50.392	6.0
50.407	6.0
50.422	10.0
50.437	6.0
50.452	7.0
50.467	10.0
50.482	4.0
50.497	5.0
50.512	5.0
50.527	12.0
50.542	3.0
50.557	9.0
50.572	1.0
50.587	4.0
50.602	3.0
50.617	2.0
50.632	10.0
50.647	4.0
50.662	4.0
50.677	7.0
50.692	8.0
50.707	1.0
50.722	8.0
50.737	6.0
50.752	4.0
50.767	9.0
50.782	7.0
50.797	8.0
50.812	2.0
50.828	11.0
50.843	4.0
50.858	1.0
50.873	3.0
50.888	5.0
50.903	3.0
50.918	6.0
50.933	3.0
50.948	7.0
50.963	5.0
50.978	1.0
50.993	4.0
51.008	4.0
51.023	6.0
51.038	4.0
51.053	5.0
51.068	6.0
51.083	9.0
51.098	2.0
51.114	0.0
51.129	8.0
51.144	4.0
51.159	4.0
51.174	4.0
51.189	3.0
51.204	7.0
51.219	4.0
51.234	9.0
51.249	3.0
51.264	3.0
51.279	4.0
51.294	6.0
51.309	6.0
51.324	8.0
51.34	5.0
51.355	3.0
51.37	3.0
51.385	5.0
51.4	4.0
51.415	9.0
51.43	7.0
51.445	13.0
51.46	7.0
51.475	14.0
51.49	20.0
51.505	24.0
51.52	16.0
51.535	9.0
51.551	12.0
51.566	11.0
51.581	9.0
51.596	14.0
51.611	14.0
51.626	3.0
51.641	12.0
51.656	5.0
51.671	9.0
51.686	5.0
51.701	4.0
51.716	5.0
51.732	3.0
51.747	7.0
51.762	9.0
51.777	9.0
51.792	4.0
51.807	3.0
51.822	15.0
51.837	10.0
51.852	12.0
51.867	5.0
51.882	10.0
51.898	12.0
51.913	8.0
51.928	10.0
51.943	5.0
51.958	7.0
51.973	6.0
51.988	4.0
52.003	5.0
52.018	5.0
52.033	6.0
52.048	3.0
52.064	12.0
52.079	5.0
52.094	5.0
52.109	6.0
52.124	3.0
52.139	5.0
52.154	5.0
52.169	6.0
52.184	13.0
52.199	3.0
52.215	4.0
52.23	3.0
52.245	8.0
52.26	5.0
52.275	3.0
52.29	7.0
52.305	5.0
52.32	2.0
52.335	7.0
52.35	2.0
52.366	9.0
52.381	8.0
52.396	7.0
52.411	6.0
52.426	6.0
52.441	6.0
52.456	12.0
52.471	5.0
52.486	11.0
52.502	8.0
52.517	5.0
52.532	15.0
52.547	12.0
52.562	14.0
52.577	12.0
52.592	5.0
52.607	6.0
52.622	8.0
52.637	9.0
52.653	3.0
52.668	4.0
52.683	7.0
52.698	7.0
52.713	2.0
52.728	6.0
52.743	1.0
52.758	3.0
52.774	2.0
52.789	7.0
52.804	7.0
52.819	9.0
52.834	7.0
52.849	10.0
52.864	4.0
52.879	6.0
52.894	5.0
52.91	8.0
52.925	5.0
52.94	2.0
52.955	12.0
52.97	10.0
52.985	7.0
53.0	10.0
53.015	2.0
53.031	3.0
53.046	6.0
53.061	4.0
53.076	4.0
53.091	5.0
53.106	3.0
53.121	6.0
53.136	7.0
53.152	7.0
53.167	4.0
53.182	5.0
53.197	6.0
53.212	1.0
53.227	2.0
53.242	5.0
53.257	10.0
53.273	7.0
53.288	4.0
53.303	1.0
53.318	4.0
53.333	5.0
53.348	6.0
53.363	3.0
53.379	4.0
53.394	11.0
53.409	2.0
53.424	2.0
53.439	5.0
53.454	12.0
53.469	6.0
53.484	6.0
53.5	2.0
53.515	7.0
53.53	8.0
53.545	3.0
53.56	1.0
53.575	4.0
53.59	5.0
53.606	7.0
53.621	3.0
53.636	8.0
53.651	6.0
53.666	4.0
53.681	8.0
53.696	6.0
53.712	5.0
53.727	5.0
53.742	8.0
53.757	1.0
53.772	3.0
53.787	3.0
53.802	8.0
53.818	6.0
53.833	4.0
53.848	3.0
53.863	4.0
53.878	8.0
53.893	5.0
53.909	10.0
53.924	8.0
53.939	6.0
53.954	2.0
53.969	7.0
53.984	3.0
53.999	4.0
54.015	3.0
54.03	3.0
54.045	3.0
54.06	5.0
54.075	5.0
54.09	3.0
54.106	3.0
54.121	4.0
54.136	3.0
54.151	4.0
54.166	3.0
54.181	4.0
54.197	4.0
54.212	7.0
54.227	5.0
54.242	5.0
54.257	6.0
54.272	3.0
54.288	3.0
54.303	6.0
54.318	2.0
54.333	4.0
54.348	5.0
54.363	6.0
54.379	1.0
54.394	6.0
54.409	3.0
54.424	3.0
54.439	7.0
54.454	5.0
54.47	6.0
54.485	3.0
54.5	2.0
54.515	4.0
54.53	4.0
54.545	7.0
54.561	3.0
54.576	9.0
54.591	5.0
54.606	10.0
54.621	17.0
54.636	11.0
54.652	11.0
54.667	12.0
54.682	13.0
54.697	14.0
54.712	16.0
54.727	7.0
54.743	15.0
54.758	9.0
54.773	8.0
54.788	5.0
54.803	8.0
54.819	2.0
54.834	6.0
54.849	7.0
54.864	6.0
54.879	4.0
54.894	9.0
54.91	9.0
54.925	11.0
54.94	7.0
54.955	13.0
54.97	10.0
54.985	12.0
55.001	10.0
55.016	15.0
55.031	10.0
55.046	6.0
55.061	7.0
55.077	6.0
55.092	5.0
55.107	8.0
55.122	10.0
55.137	8.0
55.152	3.0
55.168	6.0
55.183	6.0
55.198	6.0
55.213	3.0
55.228	2.0
55.243	7.0
55.259	6.0
55.274	3.0
55.289	4.0
55.304	5.0
55.319	5.0
55.335	5.0
55.35	8.0
55.365	7.0
55.38	1.0
55.395	3.0
55.41	6.0
55.426	9.0
55.441	7.0
55.456	4.0
55.471	3.0
55.486	6.0
55.501	2.0
55.517	7.0
55.532	4.0
55.547	9.0
55.562	2.0
55.577	2.0
55.592	4.0
55.608	7.0
55.623	8.0
55.638	7.0
55.653	7.0
55.668	6.0
55.683	2.0
55.699	8.0
55.714	9.0
55.729	4.0
55.744	6.0
55.759	8.0
55.774	4.0
55.79	4.0
55.805	10.0
55.82	6.0
55.835	2.0
55.85	5.0
55.865	5.0
55.881	5.0
55.896	2.0
55.911	6.0
55.926	2.0
55.941	7.0
55.956	7.0
55.972	1.0
55.987	5.0
56.002	3.0
56.017	9.0
56.032	4.0
56.047	7.0
56.063	7.0
56.078	3.0
56.093	6.0
56.108	6.0
56.123	6.0
56.138	7.0
56.154	4.0
56.169	9.0
56.184	5.0
56.199	5.0
56.214	8.0
56.229	8.0
56.244	10.0
56.26	5.0
56.275	2.0
56.29	9.0
56.305	5.0
56.32	5.0
56.335	7.0
56.351	3.0
56.366	4.0
56.381	4.0
56.396	3.0
56.411	1.0
56.426	4.0
56.441	6.0
56.457	5.0
56.472	4.0
56.487	4.0
56.502	5.0
56.517	3.0
56.532	5.0
56.547	3.0
56.563	6.0
56.578	6.0
56.593	4.0
56.608	3.0
56.623	5.0
56.638	3.0
56.653	2.0
56.668	4.0
56.684	2.0
56.699	9.0
56.714	6.0
56.729	3.0
56.744	3.0
56.759	1.0
56.774	2.0
56.79	3.0
56.805	4.0
56.82	2.0
56.835	7.0
56.85	8.0
56.865	2.0
56.88	6.0
56.895	5.0
56.911	6.0
56.926	5.0
56.941	3.0
56.956	3.0
56.971	6.0
56.986	8.0
57.001	3.0
57.016	5.0
57.031	2.0
57.047	3.0
57.062	4.0
57.077	3.0
57.092	9.0
57.107	4.0
57.122	8.0
57.137	3.0
57.152	3.0
57.167	2.0
57.183	4.0
57.198	3.0
57.213	4.0
57.228	2.0
57.243	2.0
57.258	5.0
57.273	5.0
57.288	3.0
57.303	1.0
57.318	4.0
57.334	5.0
57.349	6.0
57.364	4.0
57.379	5.0
57.394	6.0
57.409	5.0
57.424	6.0
57.439	3.0
57.454	4.0
57.469	5.0
57.484	3.0
57.5	3.0
57.515	4.0
57.53	5.0
57.545	3.0
57.56	4.0
57.575	3.0
57.59	3.0
57.605	6.0
57.62	3.0
57.635	5.0
57.65	4.0
57.665	5.0
57.68	11.0
57.696	7.0
57.711	1.0
57.726	2.0
57.741	7.0
57.756	3.0
57.771	5.0
57.786	8.0
57.801	3.0
57.816	7.0
57.831	5.0
57.846	1.0
57.861	5.0
57.876	4.0
57.891	2.0
57.906	8.0
57.921	2.0
57.937	5.0
57.952	4.0
57.967	3.0
57.982	4.0
57.997	7.0
58.012	9.0
58.027	3.0
58.042	7.0
58.057	6.0
58.072	6.0
58.087	5.0
58.102	5.0
58.117	5.0
58.132	4.0
58.147	4.0
58.162	6.0
58.177	4.0
58.192	3.0
58.207	5.0
58.222	6.0
58.237	4.0
58.252	5.0
58.267	4.0
58.282	8.0
58.297	2.0
58.312	3.0
58.327	3.0
58.342	5.0
58.357	3.0
58.372	4.0
58.387	1.0
58.402	4.0
58.418	6.0
58.433	4.0
58.448	1.0
58.463	3.0
58.478	3.0
58.493	3.0
58.508	3.0
58.523	11.0
58.538	5.0
58.553	8.0
58.568	9.0
58.583	9.0
58.598	3.0
58.613	9.0
58.628	7.0
58.643	8.0
58.658	10.0
58.673	7.0
58.688	9.0
58.703	11.0
58.718	6.0
58.733	8.0
58.748	8.0
58.763	9.0
58.778	5.0
58.793	5.0
58.808	6.0
58.823	2.0
58.838	7.0
58.853	10.0
58.868	4.0
58.883	7.0
58.898	5.0
58.913	7.0
58.928	7.0
58.942	2.0
58.957	4.0
58.972	10.0
58.987	9.0
59.002	4.0
59.017	7.0
59.032	3.0
59.047	8.0
59.062	6.0
59.077	11.0
59.092	5.0
59.107	4.0
59.122	4.0
59.137	3.0
59.152	2.0
59.167	9.0
59.182	6.0
59.197	4.0
59.212	3.0
59.227	5.0
59.242	5.0
59.257	0.0
59.272	7.0
59.287	4.0
59.302	1.0
59.317	5.0
59.332	2.0
59.347	6.0
59.362	8.0
59.377	2.0
59.392	5.0
59.407	6.0
59.422	7.0
59.437	6.0
59.452	2.0
59.467	4.0
59.482	3.0
59.497	2.0
59.512	4.0
59.527	4.0
59.542	3.0
59.557	10.0
59.572	6.0
59.587	6.0
59.602	8.0
59.617	9.0
59.632	14.0
59.647	9.0
59.661	7.0
59.676	10.0
59.691	5.0
59.706	6.0
59.721	3.0
59.736	3.0
59.751	5.0
59.766	6.0
59.781	8.0
59.796	3.0
59.811	8.0
59.826	9.0
59.841	4.0
59.856	3.0
59.871	10.0
59.886	3.0
59.901	6.0
59.916	3.0
59.931	5.0
59.946	5.0
59.961	8.0
59.976	7.0
59.991	10.0
60.006	8.0
60.021	8.0
60.036	14.0
60.051	6.0
60.066	5.0
60.081	5.0
60.096	10.0
60.111	6.0
60.126	3.0
60.141	7.0
60.156	8.0
60.171	1.0
60.186	1.0
60.201	10.0
60.216	6.0
60.231	5.0
60.246	4.0
60.261	9.0
60.276	1.0
60.291	3.0
60.306	4.0
60.321	5.0
60.336	3.0
60.35	3.0
60.365	8.0
60.38	5.0
60.395	1.0
60.41	5.0
60.425	4.0
60.44	6.0
60.455	5.0
60.47	7.0
60.485	3.0
60.5	7.0
60.515	4.0
60.53	8.0
60.545	6.0
60.56	7.0
60.575	8.0
60.59	6.0
60.605	8.0
60.62	7.0
60.635	5.0
60.65	5.0
60.665	5.0
60.68	4.0
60.695	5.0
60.71	1.0
60.725	6.0
60.74	5.0
60.755	3.0
60.77	5.0
60.785	4.0
60.8	2.0
60.815	4.0
60.83	2.0
60.845	6.0
60.86	3.0
60.875	7.0
60.89	5.0
60.905	9.0
60.92	2.0
60.935	6.0
60.95	6.0
60.965	4.0
60.98	2.0
60.995	6.0
61.01	5.0
61.025	11.0
61.04	6.0
61.055	4.0
61.07	3.0
61.085	10.0
61.1	3.0
61.115	5.0
61.13	4.0
61.145	9.0
61.16	3.0
61.175	7.0
61.191	4.0
61.206	2.0
61.221	5.0
61.236	6.0
61.251	3.0
61.266	3.0
61.281	1.0
61.296	5.0
61.311	4.0
61.326	7.0
61.341	4.0
61.356	4.0
61.371	2.0
61.386	1.0
61.401	4.0
61.416	6.0
61.431	6.0
61.446	4.0
61.461	5.0
61.476	5.0
61.491	7.0
61.506	8.0
61.521	4.0
61.536	6.0
61.551	6.0
61.566	1.0
61.581	8.0
61.596	4.0
61.611	2.0
61.626	3.0
61.641	4.0
61.656	5.0
61.672	4.0
61.687	9.0
61.702	3.0
61.717	2.0
61.732	8.0
61.747	5.0
61.762	5.0
61.777	4.0
61.792	10.0
61.807	1.0
61.822	4.0
61.837	5.0
61.852	3.0
61.867	8.0
61.882	3.0
61.897	8.0
61.912	11.0
61.927	2.0
61.943	9.0
61.958	7.0
61.973	2.0
61.988	5.0
62.003	3.0
62.018	10.0
62.033	6.0
62.048	8.0
62.063	1.0
62.078	6.0
62.093	4.0
62.108	8.0
62.123	1.0
62.138	3.0
62.153	2.0
62.169	2.0
62.184	3.0
62.199	3.0
62.214	1.0
62.229	5.0
62.244	2.0
62.259	3.0
62.274	4.0
62.289	3.0
62.304	4.0
62.319	6.0
62.335	5.0
62.35	4.0
62.365	3.0
62.38	2.0
62.395	5.0
62.41	2.0
62.425	4.0
62.44	7.0
62.455	5.0
62.47	3.0
62.485	6.0
62.501	5.0
62.516	6.0
62.531	6.0
62.546	4.0
62.561	1.0
62.576	4.0
62.591	2.0
62.606	2.0
62.621	5.0
62.636	5.0
62.652	6.0
62.667	9.0
62.682	4.0
62.697	4.0
62.712	7.0
62.727	7.0
62.742	3.0
62.757	0.0
62.772	3.0
62.787	5.0
62.803	4.0
62.818	7.0
62.833	4.0
62.848	6.0
62.863	5.0
62.878	3.0
62.893	5.0
62.908	7.0
62.923	1.0
62.939	4.0
62.954	7.0
62.969	2.0
62.984	7.0
62.999	2.0
63.014	5.0
63.029	5.0
63.044	2.0
63.059	5.0
63.074	6.0
63.09	4.0
63.105	2.0
63.12	7.0
63.135	3.0
63.15	5.0
63.165	4.0
63.18	3.0
63.195	3.0
63.21	4.0
63.226	4.0
63.241	4.0
63.256	2.0
63.271	4.0
63.286	4.0
63.301	4.0
63.316	2.0
63.331	7.0
63.346	7.0
63.362	11.0
63.377	6.0
63.392	9.0
63.407	4.0
63.422	7.0
63.437	4.0
63.452	9.0
63.467	10.0
63.482	6.0
63.497	7.0
63.513	9.0
63.528	6.0
63.543	4.0
63.558	8.0
63.573	3.0
63.588	2.0
63.603	5.0
63.618	5.0
63.633	4.0
63.648	4.0
63.664	8.0
63.679	5.0
63.694	5.0
63.709	6.0
63.724	4.0
63.739	3.0
63.754	2.0
63.769	4.0
63.784	6.0
63.799	9.0
63.814	3.0
63.83	8.0
63.845	5.0
63.86	8.0
63.875	5.0
63.89	8.0
63.905	8.0
63.92	3.0
63.935	3.0
63.95	8.0
63.965	5.0
63.98	7.0
63.996	4.0
64.011	4.0
64.026	4.0
64.041	4.0
64.056	1.0
64.071	4.0
64.086	2.0
64.101	3.0
64.116	6.0
64.131	2.0
64.146	5.0
64.161	6.0
64.176	3.0
64.191	3.0
64.207	7.0
64.222	2.0
64.237	1.0
64.252	4.0
64.267	5.0
64.282	1.0
64.297	5.0
64.312	2.0
64.327	4.0
64.342	8.0
64.357	3.0
64.372	2.0
64.387	8.0
64.402	7.0
64.417	4.0
64.433	3.0
64.448	5.0
64.463	3.0
64.478	5.0
64.493	1.0
64.508	3.0
64.523	5.0
64.538	1.0
64.553	5.0
64.568	6.0
64.583	1.0
64.598	4.0
64.613	4.0
64.628	6.0
64.643	2.0
64.658	4.0
64.673	4.0
64.688	5.0
64.703	4.0
64.718	3.0
64.734	6.0
64.749	4.0
64.764	0.0
64.779	2.0
64.794	1.0
64.809	4.0
64.824	6.0
64.839	4.0
64.854	7.0
64.869	2.0
64.884	2.0
64.899	4.0
64.914	3.0
64.929	4.0
64.944	4.0
64.959	3.0
64.974	4.0
64.989	5.0
65.004	4.0
65.019	3.0
65.034	3.0
65.049	3.0
65.064	6.0
65.079	8.0
65.094	3.0
65.109	1.0
65.125	5.0
65.14	6.0
65.155	3.0
65.17	1.0
65.185	6.0
65.2	7.0
65.215	5.0
65.23	3.0
65.245	7.0
65.26	2.0
65.275	4.0
65.29	6.0
65.305	5.0
65.32	4.0
65.335	3.0
65.35	3.0
65.365	5.0
65.38	3.0
65.395	3.0
65.41	1.0
65.425	7.0
65.44	4.0
65.455	6.0
65.47	2.0
65.485	3.0
65.5	6.0
65.515	2.0
65.53	3.0
65.545	4.0
65.56	4.0
65.575	3.0
65.59	1.0
65.605	1.0
65.62	3.0
65.635	4.0
65.65	5.0
65.666	2.0
65.681	4.0
65.696	8.0
65.711	1.0
65.726	3.0
65.741	4.0
65.756	4.0
65.771	5.0
65.786	9.0
65.801	4.0
65.816	2.0
65.831	2.0
65.846	7.0
65.861	6.0
65.876	3.0
65.891	6.0
65.906	2.0
65.921	5.0
65.936	0.0
65.951	5.0
65.966	2.0
65.981	2.0
65.996	4.0
66.011	5.0
66.026	6.0
66.041	3.0
66.056	5.0
66.071	8.0
66.086	6.0
66.101	4.0
66.116	8.0
66.131	4.0
66.146	7.0
66.161	9.0
66.176	13.0
66.191	5.0
66.206	8.0
66.221	12.0
66.236	4.0
66.251	5.0
66.266	9.0
66.281	10.0
66.296	8.0
66.311	2.0
66.327	5.0
66.342	2.0
66.357	3.0
66.372	4.0
66.387	7.0
66.402	8.0
66.417	4.0
66.432	1.0
66.447	6.0
66.462	4.0
66.477	3.0
66.492	3.0
66.507	4.0
66.522	5.0
66.537	5.0
66.552	4.0
66.567	6.0
66.582	6.0
66.597	7.0
66.612	10.0
66.627	5.0
66.642	4.0
66.657	5.0
66.672	5.0
66.687	6.0
66.702	4.0
66.717	8.0
66.732	5.0
66.747	3.0
66.762	3.0
66.777	4.0
66.792	6.0
66.807	5.0
66.822	3.0
66.837	5.0
66.853	4.0
66.868	2.0
66.883	4.0
66.898	3.0
66.913	3.0
66.928	5.0
66.943	3.0
66.958	5.0
66.973	5.0
66.988	3.0
67.003	5.0
67.018	6.0
67.033	3.0
67.048	3.0
67.063	3.0
67.078	4.0
67.093	3.0
67.108	8.0
67.123	5.0
67.138	6.0
67.153	9.0
67.168	6.0
67.183	9.0
67.198	2.0
67.214	5.0
67.229	8.0
67.244	2.0
67.259	3.0
67.274	3.0
67.289	5.0
67.304	6.0
67.319	3.0
67.334	1.0
67.349	1.0
67.364	1.0
67.379	7.0
67.394	6.0
67.409	5.0
67.424	0.0
67.439	6.0
67.454	3.0
67.469	4.0
67.484	2.0
67.5	7.0
67.515	6.0
67.53	5.0
67.545	6.0
67.56	7.0
67.575	8.0
67.59	5.0
67.605	4.0
67.62	5.0
67.635	2.0
67.65	5.0
67.665	9.0
67.68	3.0
67.695	4.0
67.71	3.0
67.726	7.0
67.741	3.0
67.756	5.0
67.771	3.0
67.786	4.0
67.801	4.0
67.816	1.0
67.831	2.0
67.846	3.0
67.861	3.0
67.876	5.0
67.891	2.0
67.906	3.0
67.922	4.0
67.937	3.0
67.952	5.0
67.967	3.0
67.982	6.0
67.997	6.0
68.012	5.0
68.027	6.0
68.042	5.0
68.057	3.0
68.072	4.0
68.087	2.0
68.103	5.0
68.118	6.0
68.133	2.0
68.148	7.0
68.163	6.0
68.178	0.0
68.193	6.0
68.208	3.0
68.223	4.0
68.238	5.0
68.254	6.0
68.269	3.0
68.284	2.0
68.299	4.0
68.314	6.0
68.329	6.0
68.344	2.0
68.359	4.0
68.374	9.0
68.389	4.0
68.405	1.0
68.42	1.0
68.435	2.0
68.45	2.0
68.465	4.0
68.48	3.0
68.495	4.0
68.51	4.0
68.525	4.0
68.54	2.0
68.556	7.0
68.571	7.0
68.586	0.0
68.601	5.0
68.616	5.0
68.631	2.0
68.646	4.0
68.661	1.0
68.676	2.0
68.691	7.0
68.707	4.0
68.722	1.0
68.737	2.0
68.752	3.0
68.767	0.0
68.782	9.0
68.797	4.0
68.812	3.0
68.827	3.0
68.842	7.0
68.857	4.0
68.873	4.0
68.888	7.0
68.903	5.0
68.918	1.0
68.933	2.0
68.948	6.0
68.963	4.0
68.978	4.0
68.993	5.0
69.008	1.0
69.023	0.0
69.038	3.0
69.054	3.0
69.069	3.0
69.084	3.0
69.099	5.0
69.114	3.0
69.129	4.0
69.144	1.0
69.159	1.0
69.174	3.0
69.189	6.0
69.204	3.0
69.219	2.0
69.234	4.0
69.249	6.0
69.264	5.0
69.279	5.0
69.295	5.0
69.31	3.0
69.325	1.0
69.34	4.0
69.355	3.0
69.37	6.0
69.385	5.0
69.4	3.0
69.415	5.0
69.43	3.0
69.445	5.0
69.46	2.0
69.475	4.0
69.49	5.0
69.505	3.0
69.52	2.0
69.535	5.0
69.55	4.0
69.565	4.0
69.58	4.0
69.595	4.0
69.61	5.0
69.625	4.0
69.64	2.0
69.655	5.0
69.67	5.0
69.685	9.0
69.7	6.0
69.715	6.0
69.73	7.0
69.745	3.0
69.76	7.0
69.775	4.0
69.79	10.0
69.805	9.0
69.82	5.0
69.835	6.0
69.85	1.0
69.865	4.0
69.88	2.0
69.895	3.0
69.909	4.0
69.924	2.0
69.939	3.0
69.954	3.0
69.969	2.0
69.984	5.0
69.999	4.0
70.014	2.0
70.029	1.0
70.044	5.0
70.059	3.0
70.074	6.0
70.088	1.0
70.103	3.0
70.118	4.0
70.133	6.0
70.148	2.0
70.163	3.0
70.178	2.0
70.193	6.0
70.208	6.0
70.222	4.0
70.237	6.0
70.252	3.0
70.267	5.0
70.282	6.0
70.297	6.0
70.312	6.0
70.327	8.0
70.341	6.0
70.356	3.0
70.371	2.0
70.386	1.0
70.401	2.0
70.416	0.0
70.43	7.0
70.445	3.0
70.46	2.0
70.475	6.0
70.49	8.0
70.505	2.0
70.519	3.0
70.534	5.0
70.549	0.0
70.564	6.0
70.579	4.0
70.594	7.0
70.608	5.0
70.623	7.0
70.638	5.0
70.653	3.0
70.668	8.0
70.683	4.0
70.697	7.0
70.712	7.0
70.727	2.0
70.742	7.0
70.757	6.0
70.771	6.0
70.786	3.0
70.801	2.0
70.816	0.0
70.831	2.0
70.845	5.0
70.86	4.0
70.875	5.0
70.89	3.0
70.905	3.0
70.92	3.0
70.934	2.0
70.949	2.0
70.964	6.0
70.979	5.0
70.994	4.0
71.008	5.0
71.023	1.0
71.038	3.0
71.053	6.0
71.068	6.0
71.082	3.0
71.097	4.0
71.112	2.0
71.127	3.0
71.142	5.0
71.156	5.0
71.171	6.0
71.186	7.0
71.201	7.0
71.216	7.0
71.231	3.0
71.245	7.0
71.26	3.0
71.275	5.0
71.29	4.0
71.305	7.0
71.319	4.0
71.334	2.0
71.349	2.0
71.364	1.0
71.379	2.0
71.394	3.0
71.408	2.0
71.423	7.0
71.438	4.0
71.453	5.0
71.468	6.0
71.483	6.0
71.497	9.0
71.512	3.0
71.527	1.0
71.542	4.0
71.557	3.0
71.572	3.0
71.586	2.0
71.601	2.0
71.616	4.0
71.631	1.0
71.646	3.0
71.661	1.0
71.676	6.0
71.69	4.0
71.705	2.0
71.72	3.0
71.735	2.0
71.75	4.0
71.765	5.0
71.78	6.0
71.795	1.0
71.81	2.0
71.824	3.0
71.839	8.0
71.854	2.0
71.869	3.0
71.884	2.0
71.899	4.0
71.914	7.0
71.929	1.0
71.944	1.0
71.959	3.0
71.974	6.0
71.988	4.0
72.003	3.0
72.018	2.0
72.033	2.0
72.048	4.0
72.063	5.0
72.078	5.0
72.093	4.0
72.108	5.0
72.123	2.0
72.138	7.0
72.153	1.0
72.168	2.0
72.183	3.0
72.198	2.0
72.213	5.0
72.228	3.0
72.243	5.0
72.258	7.0
72.273	1.0
72.288	2.0
72.303	3.0
72.318	4.0
72.333	2.0
72.348	5.0
72.363	1.0
72.378	0.0
72.393	8.0
72.408	2.0
72.423	3.0
72.438	1.0
72.453	5.0
72.468	3.0
72.483	6.0
72.498	3.0
72.513	2.0
72.528	4.0
72.543	9.0
72.558	3.0
72.573	5.0
72.588	3.0
72.603	2.0
72.618	2.0
72.633	6.0
72.649	6.0
72.664	3.0
72.679	2.0
72.694	2.0
72.709	4.0
72.724	4.0
72.739	3.0
72.754	4.0
72.769	3.0
72.784	8.0
72.799	1.0
72.814	4.0
72.829	2.0
72.845	2.0
72.86	0.0
72.875	3.0
72.89	5.0
72.905	3.0
72.92	2.0
72.935	3.0
72.95	5.0
72.965	1.0
72.98	4.0
72.996	5.0
73.011	2.0
73.026	5.0
73.041	2.0
73.056	0.0
73.071	4.0
73.086	3.0
73.101	2.0
73.117	4.0
73.132	6.0
73.147	3.0
73.162	4.0
73.177	4.0
73.192	5.0
73.207	7.0
73.222	3.0
73.238	5.0
73.253	0.0
73.268	7.0
73.283	4.0
73.298	1.0
73.313	3.0
73.328	6.0
73.343	4.0
73.359	4.0
73.374	2.0
73.389	6.0
73.404	3.0
73.419	5.0
73.434	3.0
73.449	2.0
73.465	1.0
73.48	3.0
73.495	1.0
73.51	3.0
73.525	2.0
73.54	1.0
73.556	6.0
73.571	2.0
73.586	0.0
73.601	5.0
73.616	4.0
73.631	3.0
73.646	5.0
73.662	4.0
73.677	0.0
73.692	3.0
73.707	5.0
73.722	2.0
73.737	3.0
73.752	4.0
73.768	3.0
73.783	8.0
73.798	3.0
73.813	3.0
73.828	6.0
73.843	3.0
73.859	4.0
73.874	4.0
73.889	6.0
73.904	1.0
73.919	3.0
73.934	4.0
73.949	5.0
73.965	3.0
73.98	3.0
73.995	3.0
74.01	4.0
74.025	4.0
74.04	7.0
74.056	6.0
74.071	2.0
74.086	7.0
74.101	2.0
74.116	5.0
74.131	8.0
74.146	3.0
74.162	9.0
74.177	7.0
74.192	7.0
74.207	6.0
74.222	7.0
74.237	4.0
74.252	10.0
74.268	7.0
74.283	6.0
74.298	3.0
74.313	4.0
74.328	3.0
74.343	1.0
74.358	3.0
74.374	3.0
74.389	4.0
74.404	3.0
74.419	1.0
74.434	2.0
74.449	2.0
74.464	0.0
74.48	2.0
74.495	5.0
74.51	3.0
74.525	2.0
74.54	1.0
74.555	4.0
74.57	1.0
74.586	2.0
74.601	1.0
74.616	4.0
74.631	4.0
74.646	2.0
74.661	3.0
74.676	7.0
74.691	5.0
74.707	3.0
74.722	3.0
74.737	2.0
74.752	1.0
74.767	5.0
74.782	2.0
74.797	3.0
74.813	4.0
74.828	3.0
74.843	3.0
74.858	5.0
74.873	4.0
74.888	4.0
74.903	1.0
74.918	5.0
74.934	7.0
74.949	5.0
74.964	9.0
74.979	2.0
74.994	4.0
75.009	10.0
75.024	2.0
75.04	7.0
75.055	5.0
75.07	2.0
75.085	7.0
75.1	3.0
75.115	3.0
75.13	3.0
75.145	1.0
75.161	4.0
75.176	4.0
75.191	4.0
75.206	2.0
75.221	4.0
75.236	2.0
75.251	0.0
75.266	5.0
75.282	4.0
75.297	3.0
75.312	4.0
75.327	1.0
75.342	3.0
75.357	4.0
75.372	6.0
75.387	0.0
75.403	1.0
75.418	3.0
75.433	8.0
75.448	2.0
75.463	4.0
75.478	1.0
75.493	5.0
75.509	3.0
75.524	4.0
75.539	4.0
75.554	1.0
75.569	3.0
75.584	7.0
75.599	5.0
75.614	4.0
75.63	6.0
75.645	3.0
75.66	2.0
75.675	3.0
75.69	0.0
75.705	4.0
75.72	3.0
75.735	3.0
75.751	3.0
75.766	3.0
75.781	4.0
75.796	5.0
75.811	7.0
75.826	4.0
75.841	3.0
75.856	8.0
75.872	2.0
75.887	4.0
75.902	3.0
75.917	2.0
75.932	4.0
75.947	1.0
75.962	5.0
75.977	6.0
75.993	3.0
76.008	2.0
76.023	2.0
76.038	3.0
76.053	4.0
76.068	5.0
76.083	1.0
76.098	1.0
76.114	2.0
76.129	5.0
76.144	2.0
76.159	7.0
76.174	5.0
76.189	5.0
76.204	7.0
76.22	2.0
76.235	5.0
76.25	4.0
76.265	4.0
76.28	6.0
76.295	5.0
76.31	0.0
76.325	3.0
76.341	3.0
76.356	2.0
76.371	2.0
76.386	3.0
76.401	6.0
76.416	3.0
76.431	2.0
76.446	5.0
76.462	0.0
76.477	3.0
76.492	3.0
76.507	3.0
76.522	4.0
76.537	6.0
76.552	3.0
76.567	2.0
76.583	0.0
76.598	1.0
76.613	2.0
76.628	7.0
76.643	4.0
76.658	1.0
76.673	3.0
76.688	4.0
76.704	3.0
76.719	2.0
76.734	6.0
76.749	3.0
76.764	6.0
76.779	4.0
76.794	4.0
76.809	3.0
76.824	2.0
76.84	2.0
76.855	2.0
76.87	5.0
76.885	1.0
76.9	4.0
76.915	5.0
76.93	3.0
76.945	2.0
76.96	1.0
76.976	3.0
76.991	4.0
77.006	3.0
77.021	2.0
77.036	6.0
77.051	3.0
77.066	5.0
77.081	3.0
77.096	5.0
77.112	7.0
77.127	6.0
77.142	5.0
77.157	5.0
77.172	2.0
77.187	3.0
77.202	2.0
77.217	1.0
77.232	1.0
77.247	3.0
77.263	3.0
77.278	4.0
77.293	4.0
77.308	1.0
77.323	7.0
77.338	5.0
77.353	4.0
77.368	3.0
77.383	0.0
77.398	2.0
77.413	4.0
77.428	5.0
77.444	6.0
77.459	2.0
77.474	2.0
77.489	1.0
77.504	3.0
77.519	4.0
77.534	8.0
77.549	4.0
77.564	4.0
77.579	8.0
77.594	5.0
77.609	7.0
77.624	5.0
77.64	8.0
77.655	4.0
77.67	1.0
77.685	5.0
77.7	6.0
77.715	5.0
77.73	4.0
77.745	2.0
77.76	2.0
77.775	3.0
77.79	3.0
77.805	4.0
77.82	2.0
77.835	6.0
77.85	3.0
77.865	3.0
77.88	4.0
77.895	5.0
77.91	3.0
77.926	2.0
77.941	7.0
77.956	5.0
77.971	2.0
77.986	4.0
78.001	4.0
78.016	1.0
78.031	3.0
78.046	4.0
78.061	2.0
78.076	5.0
78.091	4.0
78.106	3.0
78.121	3.0
78.136	3.0
78.151	4.0
78.166	4.0
78.181	3.0
78.196	4.0
78.211	3.0
78.226	5.0
78.241	1.0
78.256	4.0
78.271	5.0
78.286	0.0
78.301	4.0
78.316	1.0
78.331	3.0
78.346	3.0
78.361	3.0
78.376	3.0
78.391	5.0
78.406	3.0
78.421	5.0
78.436	4.0
78.451	1.0
78.466	2.0
78.481	4.0
78.496	1.0
78.511	4.0
78.526	5.0
78.541	4.0
78.556	5.0
78.571	2.0
78.586	5.0
78.601	3.0
78.616	3.0
78.631	1.0
78.646	3.0
78.661	4.0
78.676	1.0
78.691	3.0
78.706	3.0
78.721	2.0
78.736	5.0
78.751	2.0
78.766	2.0
78.781	3.0
78.796	1.0
78.811	2.0
78.826	2.0
78.841	2.0
78.856	2.0
78.871	3.0
78.885	5.0
78.9	2.0
78.915	2.0
78.93	3.0
78.945	2.0
78.96	1.0
78.975	5.0
78.99	2.0
79.005	2.0
79.02	3.0
79.035	0.0
79.05	2.0
79.065	1.0
79.08	3.0
79.095	2.0
79.11	2.0
79.125	3.0
79.14	1.0
79.155	3.0
79.17	1.0
79.185	4.0
79.2	5.0
79.215	4.0
79.23	3.0
79.245	4.0
79.26	5.0
79.275	5.0
79.29	4.0
79.304	4.0
79.319	4.0
79.334	6.0
79.349	4.0
79.364	3.0
79.379	4.0
79.394	3.0
79.409	4.0
79.424	6.0
79.439	4.0
79.454	6.0
79.469	5.0
79.484	2.0
79.499	6.0
79.514	4.0
79.529	4.0
79.544	3.0
79.559	1.0
79.574	3.0
79.589	3.0
79.604	3.0
79.619	3.0
79.634	4.0
79.649	3.0
79.664	3.0
79.679	3.0
79.693	2.0
79.708	3.0
79.723	3.0
79.738	0.0
79.753	4.0
79.768	3.0
79.783	3.0
79.798	3.0
79.813	3.0
79.828	2.0
79.843	4.0
79.858	1.0
79.873	2.0
79.888	0.0
79.903	4.0
79.918	1.0
79.933	2.0
79.948	4.0
79.963	3.0
79.978	2.0
79.993	1.0
80.008	2.0
80.023	3.0
80.038	4.0
80.053	2.0
80.068	2.0
80.083	5.0
80.098	1.0
80.113	4.0
80.128	6.0
80.143	5.0
80.158	3.0
80.173	11.0
80.188	2.0
80.202	7.0
80.217	7.0
80.232	3.0
80.247	5.0
80.262	4.0
80.277	7.0
80.292	1.0
80.307	1.0
80.322	5.0
80.337	3.0
80.352	6.0
80.367	4.0
80.382	3.0
80.397	0.0
80.412	3.0
80.427	3.0
80.442	3.0
80.457	5.0
80.472	6.0
80.487	2.0
80.502	1.0
80.517	4.0
80.532	3.0
80.547	1.0
80.562	4.0
80.577	2.0
80.592	1.0
80.607	5.0
80.622	2.0
80.637	2.0
80.652	0.0
80.667	4.0
80.682	3.0
80.697	4.0
80.712	1.0
80.727	4.0
80.742	8.0
80.757	1.0
80.772	3.0
80.787	3.0
80.802	5.0
80.817	3.0
80.832	4.0
80.847	1.0
80.862	2.0
80.877	4.0
80.892	1.0
80.907	5.0
80.922	2.0
80.937	3.0
80.952	3.0
80.967	1.0
80.982	5.0
80.997	2.0
81.012	8.0
81.027	2.0
81.042	3.0
81.057	3.0
81.072	2.0
81.087	5.0
81.101	3.0
81.116	2.0
81.131	0.0
81.146	5.0
81.161	0.0
81.176	0.0
81.191	4.0
81.206	1.0
81.221	2.0
81.236	1.0
81.251	2.0
81.266	0.0
81.281	4.0
81.296	4.0
81.311	4.0
81.326	0.0
81.341	3.0
81.356	1.0
81.371	6.0
81.386	4.0
81.401	1.0
81.416	3.0
81.431	2.0
81.446	0.0
81.461	2.0
81.476	3.0
81.491	5.0
81.506	5.0
81.521	3.0
81.536	3.0
81.55	2.0
81.565	3.0
81.58	1.0
81.595	3.0
81.61	3.0
81.625	1.0
81.64	2.0
81.655	0.0
81.67	2.0
81.685	4.0
81.7	2.0
81.715	2.0
81.73	0.0
81.745	8.0
81.76	1.0
81.775	1.0
81.79	4.0
81.805	5.0
81.819	5.0
81.834	2.0
81.849	2.0
81.864	6.0
81.879	2.0
81.894	5.0
81.909	5.0
81.924	6.0
81.939	1.0
81.954	3.0
81.969	3.0
81.984	4.0
81.999	2.0
82.013	3.0
82.028	2.0
82.043	1.0
82.058	4.0
82.073	3.0
82.088	6.0
82.103	2.0
82.118	0.0
82.133	1.0
82.148	3.0
82.163	4.0
82.177	5.0
82.192	2.0
82.207	4.0
82.222	2.0
82.237	6.0
82.252	3.0
82.267	2.0
82.282	7.0
82.297	0.0
82.312	4.0
82.326	5.0
82.341	4.0
82.356	9.0
82.371	2.0
82.386	2.0
82.401	3.0
82.416	3.0
82.431	5.0
82.445	4.0
82.46	1.0
82.475	2.0
82.49	3.0
82.505	7.0
82.52	4.0
82.535	1.0
82.55	3.0
82.565	4.0
82.579	5.0
82.594	4.0
82.609	3.0
82.624	1.0
82.639	4.0
82.654	2.0
82.669	3.0
82.684	3.0
82.698	3.0
82.713	1.0
82.728	6.0
82.743	1.0
82.758	4.0
82.773	1.0
82.788	2.0
82.803	2.0
82.817	4.0
82.832	2.0
82.847	4.0
82.862	3.0
82.877	5.0
82.892	3.0
82.907	4.0
82.922	1.0
82.937	1.0
82.951	1.0
82.966	3.0
82.981	1.0
82.996	2.0
83.011	2.0
83.026	2.0
83.041	3.0
83.056	3.0
83.07	0.0
83.085	1.0
83.1	5.0
83.115	0.0
83.13	1.0
83.145	7.0
83.16	1.0
83.175	3.0
83.19	4.0
83.204	2.0
83.219	3.0
83.234	4.0
83.249	6.0
83.264	4.0
83.279	4.0
83.294	5.0
83.309	7.0
83.324	1.0
83.339	2.0
83.353	1.0
83.368	4.0
83.383	4.0
83.398	1.0
83.413	2.0
83.428	3.0
83.443	1.0
83.458	2.0
83.473	3.0
83.488	7.0
83.503	3.0
83.517	4.0
83.532	4.0
83.547	4.0
83.562	5.0
83.577	3.0
83.592	7.0
83.607	2.0
83.622	3.0
83.637	2.0
83.652	6.0
83.667	4.0
83.682	0.0
83.697	5.0
83.712	1.0
83.727	4.0
83.741	2.0
83.756	1.0
83.771	4.0
83.786	3.0
83.801	4.0
83.816	3.0
83.831	1.0
83.846	4.0
83.861	1.0
83.876	1.0
83.891	2.0
83.906	6.0
83.921	2.0
83.936	6.0
83.951	6.0
83.966	3.0
83.981	1.0
83.996	3.0
84.011	3.0
84.026	2.0
84.041	5.0
84.056	4.0
84.071	4.0
84.086	4.0
84.101	5.0
84.116	7.0
84.131	3.0
84.146	3.0
84.161	3.0
84.176	6.0
84.191	2.0
84.206	2.0
84.221	1.0
84.236	1.0
84.251	1.0
84.266	3.0
84.281	6.0
84.296	3.0
84.311	4.0
84.326	6.0
84.341	4.0
84.356	3.0
84.371	7.0
84.386	5.0
84.401	8.0
84.416	2.0
84.431	4.0
84.446	1.0
84.461	2.0
84.476	5.0
84.492	3.0
84.507	6.0
84.522	3.0
84.537	1.0
84.552	3.0
84.567	4.0
84.582	8.0
84.597	4.0
84.612	2.0
84.627	2.0
84.642	5.0
84.657	5.0
84.672	4.0
84.687	1.0
84.702	5.0
84.717	5.0
84.733	4.0
84.748	7.0
84.763	4.0
84.778	3.0
84.793	4.0
84.808	3.0
84.823	3.0
84.838	1.0
84.853	1.0
84.868	2.0
84.883	4.0
84.898	2.0
84.913	3.0
84.929	3.0
84.944	2.0
84.959	4.0
84.974	8.0
84.989	3.0
85.004	3.0
85.019	4.0
85.034	3.0
85.049	2.0
85.064	5.0
85.079	3.0
85.094	6.0
85.11	2.0
85.125	1.0
85.14	8.0
85.155	5.0
85.17	6.0
85.185	2.0
85.2	3.0
85.215	3.0
85.23	5.0
85.245	1.0
85.26	2.0
85.276	3.0
85.291	5.0
85.306	4.0
85.321	1.0
85.336	5.0
85.351	6.0
85.366	3.0
85.381	2.0
85.396	2.0
85.411	3.0
85.426	5.0
85.441	4.0
85.457	2.0
85.472	4.0
85.487	2.0
85.502	5.0
85.517	1.0
85.532	5.0
85.547	2.0
85.562	1.0
85.577	6.0
85.592	4.0
85.607	4.0
85.622	4.0
85.637	5.0
85.653	2.0
85.668	1.0
85.683	5.0
85.698	1.0
85.713	6.0
85.728	1.0
85.743	2.0
85.758	3.0
85.773	1.0
85.788	2.0
85.803	5.0
85.818	2.0
85.833	8.0
85.848	5.0
85.863	3.0
85.879	2.0
85.894	4.0
85.909	3.0
85.924	3.0
85.939	2.0
85.954	2.0
85.969	0.0
85.984	5.0
85.999	1.0
86.014	0.0
86.029	1.0
86.044	4.0
86.059	3.0
86.074	4.0
86.089	7.0
86.104	5.0
86.119	5.0
86.134	4.0
86.149	3.0
86.164	4.0
86.179	1.0
86.194	2.0
86.209	2.0
86.224	2.0
86.239	4.0
86.254	3.0
86.269	2.0
86.284	5.0
86.299	1.0
86.314	0.0
86.33	2.0
86.345	2.0
86.36	3.0
86.375	6.0
86.39	5.0
86.405	8.0
86.42	4.0
86.435	6.0
86.45	5.0
86.465	4.0
86.48	4.0
86.495	4.0
86.51	5.0
86.525	2.0
86.54	6.0
86.555	3.0
86.57	2.0
86.585	0.0
86.6	4.0
86.615	3.0
86.63	1.0
86.645	4.0
86.659	2.0
86.674	2.0
86.689	3.0
86.704	1.0
86.719	1.0
86.734	0.0
86.749	5.0
86.764	5.0
86.779	3.0
86.794	5.0
86.809	4.0
86.824	3.0
86.839	11.0
86.854	6.0
86.869	5.0
86.884	7.0
86.899	2.0
86.914	1.0
86.929	3.0
86.944	2.0
86.959	1.0
86.974	5.0
86.989	2.0
87.004	1.0
87.019	7.0
87.034	2.0
87.049	4.0
87.064	3.0
87.079	0.0
87.094	1.0
87.109	3.0
87.124	0.0
87.139	4.0
87.154	4.0
87.169	3.0
87.184	4.0
87.199	4.0
87.214	5.0
87.229	3.0
87.244	4.0
87.259	5.0
87.274	2.0
87.289	5.0
87.304	3.0
87.319	6.0
87.334	2.0
87.349	3.0
87.364	3.0
87.379	5.0
87.394	4.0
87.409	5.0
87.424	2.0
87.438	4.0
87.453	5.0
87.468	5.0
87.483	2.0
87.498	2.0
87.513	4.0
87.528	5.0
87.543	1.0
87.558	5.0
87.573	1.0
87.588	3.0
87.603	0.0
87.618	2.0
87.633	7.0
87.648	4.0
87.663	3.0
87.678	3.0
87.693	8.0
87.708	2.0
87.723	3.0
87.738	8.0
87.753	8.0
87.768	5.0
87.783	3.0
87.798	3.0
87.813	5.0
87.828	3.0
87.843	4.0
87.858	2.0
87.873	3.0
87.888	6.0
87.903	3.0
87.918	4.0
87.933	2.0
87.948	3.0
87.963	2.0
87.978	2.0
87.993	3.0
88.008	2.0
88.023	3.0
88.038	4.0
88.053	1.0
88.068	4.0
88.083	5.0
88.098	6.0
88.113	1.0
88.128	3.0
88.143	8.0
88.158	2.0
88.174	1.0
88.189	1.0
88.204	4.0
88.219	3.0
88.234	4.0
88.249	5.0
88.264	4.0
88.279	4.0
88.294	2.0
88.309	3.0
88.324	0.0
88.339	1.0
88.354	3.0
88.369	1.0
88.384	5.0
88.399	4.0
88.414	4.0
88.429	3.0
88.444	4.0
88.459	3.0
88.474	8.0
88.489	4.0
88.504	8.0
88.519	1.0
88.534	1.0
88.549	1.0
88.564	2.0
88.58	3.0
88.595	4.0
88.61	1.0
88.625	1.0
88.64	4.0
88.655	4.0
88.67	2.0
88.685	4.0
88.7	2.0
88.715	2.0
88.73	2.0
88.745	3.0
88.76	3.0
88.775	3.0
88.79	7.0
88.805	2.0
88.82	3.0
88.835	1.0
88.85	3.0
88.865	3.0
88.88	1.0
88.895	3.0
88.911	3.0
88.926	1.0
88.941	2.0
88.956	2.0
88.971	2.0
88.986	3.0
89.001	2.0
89.016	0.0
89.031	3.0
89.046	3.0
89.061	3.0
89.076	3.0
89.091	3.0
89.106	2.0
89.121	1.0
89.136	3.0
89.151	1.0
89.166	3.0
89.181	2.0
89.196	2.0
89.211	2.0
89.227	3.0
89.242	2.0
89.257	2.0
89.272	4.0
89.287	1.0
89.302	4.0
89.317	5.0
89.332	5.0
89.347	1.0
89.362	4.0
89.377	1.0
89.392	4.0
89.407	2.0
89.422	6.0
89.437	2.0
89.452	4.0
89.467	5.0
89.482	8.0
89.497	4.0
89.512	2.0
89.527	2.0
89.542	5.0
89.557	4.0
89.572	5.0
89.587	2.0
89.602	1.0
89.617	1.0
89.632	2.0
89.647	1.0
89.662	2.0
89.677	0.0
89.693	3.0
89.708	2.0
89.723	4.0
89.738	6.0
89.753	5.0
89.768	6.0
89.783	5.0
89.798	2.0
89.813	3.0
89.828	2.0
89.843	5.0
89.858	4.0
89.873	3.0
89.888	2.0
89.903	2.0
89.918	2.0
89.933	2.0
89.948	2.0
89.963	3.0
89.978	2.0
89.993	1.0
90.008	4.0
90.023	2.0
90.038	2.0
90.053	4.0
90.068	5.0
90.083	3.0
90.097	4.0
90.112	1.0
90.127	1.0
90.142	4.0
90.157	3.0
90.172	4.0
90.187	2.0
90.202	5.0
90.217	4.0
90.232	3.0
90.247	6.0
90.262	4.0
90.277	4.0
90.292	4.0
90.307	4.0
90.322	4.0
90.337	4.0
90.352	3.0
90.367	3.0
90.382	6.0
90.397	2.0
90.412	3.0
90.427	2.0
90.442	1.0
90.457	0.0
90.472	7.0
90.487	4.0
90.501	0.0
90.516	1.0
90.531	4.0
90.546	2.0
90.561	7.0
90.576	4.0
90.591	4.0
90.606	2.0
90.621	2.0
90.636	1.0
90.651	1.0
90.666	1.0
90.681	1.0
90.696	1.0
90.711	3.0
90.726	2.0
90.741	5.0
90.755	2.0
90.77	3.0
90.785	3.0
90.8	3.0
90.815	2.0
90.83	2.0
90.845	3.0
90.86	3.0
90.875	6.0
90.89	3.0
90.905	3.0
90.92	3.0
90.935	4.0
90.95	5.0
90.965	1.0
90.979	6.0
90.994	6.0
91.009	2.0
91.024	2.0
91.039	2.0
91.054	2.0
91.069	1.0
91.084	4.0
91.099	5.0
91.114	1.0
91.129	3.0
91.144	3.0
91.159	5.0
91.174	3.0
91.188	4.0
91.203	2.0
91.218	3.0
91.233	0.0
91.248	4.0
91.263	2.0
91.278	4.0
91.293	7.0
91.308	1.0
91.323	8.0
91.338	3.0
91.353	4.0
91.368	2.0
91.383	2.0
91.398	3.0
91.412	5.0
91.427	1.0
91.442	3.0
91.457	5.0
91.472	1.0
91.487	5.0
91.502	3.0
91.517	4.0
91.532	4.0
91.547	1.0
91.562	3.0
91.577	3.0
91.592	2.0
91.607	7.0
91.622	5.0
91.637	2.0
91.652	2.0
91.666	5.0
91.681	2.0
91.696	3.0
91.711	2.0
91.726	3.0
91.741	4.0
91.756	3.0
91.771	5.0
91.786	5.0
91.801	4.0
91.816	4.0
91.831	0.0
91.846	4.0
91.861	4.0
91.876	2.0
91.891	6.0
91.906	5.0
91.921	1.0
91.936	5.0
91.951	1.0
91.966	3.0
91.981	1.0
91.995	6.0
92.01	4.0
92.025	7.0
92.04	2.0
92.055	2.0
92.07	4.0
92.085	0.0
92.1	1.0
92.115	4.0
92.13	4.0
92.145	1.0
92.16	2.0
92.175	3.0
92.19	4.0
92.205	5.0
92.22	1.0
92.235	3.0
92.25	3.0
92.265	2.0
92.28	0.0
92.295	2.0
92.31	5.0
92.325	2.0
92.34	3.0
92.355	4.0
92.37	2.0
92.385	3.0
92.4	2.0
92.415	3.0
92.43	3.0
92.445	2.0
92.46	5.0
92.475	2.0
92.49	2.0
92.505	3.0
92.52	5.0
92.535	1.0
92.55	2.0
92.565	2.0
92.58	5.0
92.595	3.0
92.61	4.0
92.625	5.0
92.64	3.0
92.655	3.0
92.67	1.0
92.685	2.0
92.7	2.0
92.715	2.0
92.73	3.0
92.745	1.0
92.76	1.0
92.775	1.0
92.79	6.0
92.805	6.0
92.82	6.0
92.835	4.0
92.85	2.0
92.865	1.0
92.88	4.0
92.895	3.0
92.91	1.0
92.925	6.0
92.94	2.0
92.955	5.0
92.97	0.0
92.985	3.0
93.0	4.0
93.015	2.0
93.03	2.0
93.045	5.0
93.06	2.0
93.075	4.0
93.09	3.0
93.105	5.0
93.12	2.0
93.135	2.0
93.15	4.0
93.165	1.0
93.18	3.0
93.195	4.0
93.21	1.0
93.225	4.0
93.24	2.0
93.255	1.0
93.27	5.0
93.285	4.0
93.3	3.0
93.315	7.0
93.33	5.0
93.345	2.0
93.36	3.0
93.375	2.0
93.39	1.0
93.405	3.0
93.42	1.0
93.435	1.0
93.45	6.0
93.465	1.0
93.48	6.0
93.495	4.0
93.51	0.0
93.525	5.0
93.54	6.0
93.555	2.0
93.57	2.0
93.585	5.0
93.6	2.0
93.615	2.0
93.63	5.0
93.645	3.0
93.66	4.0
93.675	8.0
93.69	1.0
93.705	2.0
93.72	1.0
93.735	3.0
93.75	0.0
93.765	4.0
93.78	4.0
93.795	2.0
93.81	4.0
93.824	2.0
93.839	4.0
93.854	3.0
93.869	3.0
93.884	1.0
93.899	3.0
93.914	3.0
93.929	2.0
93.944	1.0
93.959	2.0
93.974	4.0
93.989	1.0
94.004	3.0
94.019	5.0
94.034	0.0
94.049	1.0
94.064	2.0
94.079	4.0
94.094	5.0
94.108	4.0
94.123	3.0
94.138	5.0
94.153	6.0
94.168	5.0
94.183	5.0
94.198	4.0
94.213	2.0
94.228	3.0
94.243	6.0
94.258	2.0
94.273	4.0
94.288	4.0
94.302	2.0
94.317	5.0
94.332	4.0
94.347	7.0
94.362	5.0
94.377	6.0
94.392	7.0
94.407	7.0
94.422	4.0
94.437	4.0
94.452	6.0
94.466	10.0
94.481	7.0
94.496	2.0
94.511	3.0
94.526	3.0
94.541	1.0
94.556	3.0
94.571	1.0
94.586	4.0
94.601	2.0
94.615	1.0
94.63	5.0
94.645	2.0
94.66	6.0
94.675	3.0
94.69	4.0
94.705	2.0
94.72	0.0
94.735	1.0
94.749	5.0
94.764	4.0
94.779	1.0
94.794	6.0
94.809	3.0
94.824	5.0
94.839	2.0
94.854	7.0
94.868	3.0
94.883	4.0
94.898	2.0
94.913	4.0
94.928	2.0
94.943	5.0
94.958	3.0
94.973	5.0
94.987	2.0
95.002	3.0
95.017	3.0
95.032	2.0
95.047	5.0
95.062	6.0
95.077	3.0
95.092	2.0
95.106	6.0
95.121	3.0
95.136	1.0
95.151	6.0
95.166	5.0
95.181	4.0
95.196	4.0
95.211	5.0
95.226	3.0
95.24	7.0
95.255	7.0
95.27	4.0
95.285	4.0
95.3	2.0
95.315	5.0
95.33	0.0
95.345	0.0
95.359	2.0
95.374	1.0
95.389	2.0
95.404	7.0
95.419	4.0
95.434	5.0
95.449	2.0
95.464	5.0
95.478	4.0
95.493	1.0
95.508	1.0
95.523	1.0
95.538	6.0
95.553	3.0
95.568	2.0
95.583	4.0
95.597	1.0
95.612	2.0
95.627	0.0
95.642	3.0
95.657	4.0
95.672	1.0
95.687	4.0
95.702	5.0
95.717	2.0
95.731	5.0
95.746	2.0
95.761	2.0
95.776	3.0
95.791	2.0
95.806	6.0
95.821	2.0
95.836	5.0
95.851	4.0
95.866	2.0
95.88	4.0
95.895	4.0
95.91	4.0
95.925	6.0
95.94	5.0
95.955	3.0
95.97	2.0
95.985	5.0
96.0	5.0
96.015	3.0
96.029	4.0
96.044	6.0
96.059	5.0
96.074	3.0
96.089	6.0
96.104	8.0
96.119	1.0
96.134	3.0
96.149	1.0
96.164	1.0
96.179	3.0
96.194	5.0
96.208	7.0
96.223	1.0
96.238	0.0
96.253	1.0
96.268	2.0
96.283	3.0
96.298	5.0
96.313	8.0
96.328	2.0
96.343	4.0
96.358	4.0
96.373	3.0
96.388	4.0
96.403	2.0
96.417	1.0
96.432	1.0
96.447	1.0
96.462	6.0
96.477	5.0
96.492	3.0
96.507	5.0
96.522	5.0
96.537	3.0
96.552	3.0
96.567	3.0
96.582	6.0
96.597	2.0
96.612	4.0
96.627	3.0
96.642	4.0
96.656	4.0
96.671	4.0
96.686	2.0
96.701	3.0
96.716	6.0
96.731	4.0
96.746	7.0
96.761	3.0
96.776	5.0
96.791	6.0
96.806	1.0
96.821	6.0
96.836	2.0
96.851	2.0
96.866	2.0
96.881	4.0
96.896	4.0
96.911	4.0
96.926	6.0
96.94	3.0
96.955	5.0
96.97	5.0
96.985	6.0
97.0	3.0
97.015	4.0
97.03	4.0
97.045	3.0
97.06	2.0
97.075	3.0
97.09	3.0
97.105	2.0
97.12	6.0
97.135	1.0
97.15	4.0
97.165	2.0
97.18	5.0
97.195	3.0
97.21	5.0
97.225	2.0
97.239	2.0
97.254	2.0
97.269	5.0
97.284	4.0
97.299	4.0
97.314	6.0
97.329	4.0
97.344	3.0
97.359	5.0
97.374	3.0
97.389	1.0
97.404	5.0
97.419	4.0
97.434	3.0
97.449	8.0
97.464	2.0
97.479	0.0
97.494	4.0
97.509	0.0
97.524	3.0
97.538	5.0
97.553	3.0
97.568	2.0
97.583	3.0
97.598	2.0
97.613	2.0
97.628	2.0
97.643	6.0
97.658	7.0
97.673	4.0
97.688	6.0
97.703	3.0
97.718	5.0
97.733	4.0
97.748	2.0
97.763	3.0
97.778	4.0
97.792	2.0
97.807	3.0
97.822	4.0
97.837	6.0
97.852	3.0
97.867	3.0
97.882	6.0
97.897	1.0
97.912	8.0
97.927	1.0
97.942	5.0
97.957	4.0
97.972	5.0
97.987	2.0
98.001	5.0
98.016	2.0
98.031	2.0
98.046	6.0
98.061	3.0
98.076	3.0
98.091	4.0
98.106	2.0
98.121	0.0
98.136	6.0
98.151	5.0
98.166	2.0
98.181	3.0
98.195	6.0
98.21	3.0
98.225	5.0
98.24	1.0
98.255	4.0
98.27	4.0
98.285	3.0
98.3	3.0
98.315	4.0
98.33	4.0
98.345	7.0
98.359	4.0
98.374	4.0
98.389	2.0
98.404	2.0
98.419	2.0
98.434	3.0
98.449	2.0
98.464	4.0
98.479	7.0
98.494	1.0
98.508	0.0
98.523	2.0
98.538	0.0
98.553	2.0
98.568	3.0
98.583	3.0
98.598	5.0
98.613	2.0
98.628	2.0
98.642	2.0
98.657	4.0
98.672	3.0
98.687	3.0
98.702	5.0
98.717	3.0
98.732	2.0
98.747	0.0
98.762	8.0
98.776	1.0
98.791	2.0
98.806	2.0
98.821	1.0
98.836	3.0
98.851	3.0
98.866	2.0
98.881	3.0
98.896	5.0
98.91	6.0
98.925	2.0
98.94	3.0
98.955	3.0
98.97	3.0
98.985	3.0
99.0	2.0
99.015	3.0
99.029	4.0
99.044	4.0
99.059	3.0
99.074	3.0
99.089	4.0
99.104	4.0
99.119	4.0
99.133	1.0
99.148	4.0
99.163	2.0
99.178	4.0
99.193	5.0
99.208	1.0
99.223	2.0
99.238	3.0
99.252	2.0
99.267	5.0
99.282	4.0
99.297	4.0
99.312	3.0
99.327	3.0
99.342	3.0
99.356	1.0
99.371	6.0
99.386	4.0
99.401	5.0
99.416	1.0
99.431	4.0
99.446	2.0
99.461	2.0
99.475	6.0
99.49	4.0
99.505	3.0
99.52	4.0
99.535	1.0
99.55	3.0
99.565	5.0
99.579	5.0
99.594	1.0
99.609	3.0
99.624	3.0
99.639	0.0
99.654	3.0
99.669	2.0
99.683	5.0
99.698	2.0
99.713	4.0
99.728	1.0
99.743	5.0
99.758	4.0
99.772	3.0
99.787	6.0
99.802	2.0
99.817	3.0
99.832	3.0
99.847	4.0
99.862	0.0
99.876	3.0
99.891	3.0
99.906	6.0
99.921	0.0
99.936	6.0
99.951	5.0
99.966	2.0
99.98	1.0
99.995	5.0
100.01	2.0
100.025	2.0
100.04	4.0
100.055	6.0
100.069	2.0
100.084	3.0
100.099	0.0
100.114	3.0
100.129	1.0
100.144	0.0
100.159	2.0
100.173	5.0
100.188	2.0
100.203	1.0
100.218	3.0
100.233	4.0
100.248	3.0
100.262	3.0
100.277	3.0
100.292	5.0
100.307	2.0
100.322	5.0
100.337	5.0
100.351	3.0
100.366	6.0
100.381	4.0
100.396	8.0
100.411	2.0
100.426	5.0
100.441	6.0
100.455	3.0
100.47	2.0
100.485	4.0
100.5	2.0
100.515	1.0
100.53	1.0
100.544	4.0
100.559	4.0
100.574	4.0
100.589	1.0
100.604	10.0
100.619	1.0
100.633	4.0
100.648	3.0
100.663	5.0
100.678	3.0
100.693	0.0
100.708	2.0
100.722	2.0
100.737	2.0
100.752	2.0
100.767	2.0
100.782	3.0
100.796	7.0
100.811	1.0
100.826	0.0
100.841	2.0
100.856	5.0
100.871	3.0
100.885	4.0
100.9	4.0
100.915	8.0
100.93	1.0
100.945	4.0
100.96	2.0
100.974	0.0
100.989	4.0
101.004	2.0
101.019	4.0
101.034	3.0
101.048	0.0
101.063	7.0
101.078	1.0
101.093	2.0
101.108	4.0
101.123	2.0
101.137	2.0
101.152	2.0
101.167	3.0
101.182	3.0
101.197	7.0
101.211	2.0
101.226	3.0
101.241	2.0
101.256	2.0
101.271	7.0
101.285	0.0
101.3	6.0
101.315	1.0
101.33	2.0
101.345	0.0
101.359	1.0
101.374	2.0
101.389	6.0
101.404	3.0
101.419	5.0
101.433	3.0
101.448	2.0
101.463	1.0
101.478	0.0
101.493	5.0
101.507	2.0
101.522	2.0
101.537	3.0
101.552	4.0
101.567	1.0
101.581	1.0
101.596	5.0
101.611	1.0
101.626	5.0
101.64	2.0
101.655	3.0
101.67	3.0
101.685	4.0
101.7	8.0
101.714	3.0
101.729	2.0
101.744	2.0
101.759	5.0
101.773	4.0
101.788	4.0
101.803	0.0
101.818	4.0
101.833	3.0
101.847	1.0
101.862	1.0
101.877	5.0
101.892	1.0
101.906	10.0
101.921	7.0
101.936	4.0
101.951	4.0
101.965	3.0
101.98	4.0
101.995	8.0
102.01	5.0
102.025	6.0
102.039	8.0
102.054	1.0
102.069	5.0
102.084	1.0
102.098	2.0
102.113	4.0
102.128	1.0
102.143	6.0
102.157	3.0
102.172	3.0
102.187	2.0
102.202	5.0
102.216	3.0
102.231	1.0
102.246	2.0
102.261	3.0
102.275	2.0
102.29	2.0
102.305	4.0
102.32	4.0
102.334	5.0
102.349	3.0
102.364	3.0
102.378	1.0
102.393	5.0
102.408	3.0
102.423	3.0
102.437	3.0
102.452	3.0
102.467	5.0
102.482	4.0
102.496	1.0
102.511	5.0
102.526	2.0
102.541	2.0
102.555	1.0
102.57	5.0
102.585	1.0
102.6	2.0
102.614	3.0
102.629	1.0
102.644	3.0
102.659	5.0
102.673	2.0
102.688	2.0
102.703	7.0
102.717	1.0
102.732	2.0
102.747	1.0
102.762	3.0
102.776	2.0
102.791	5.0
102.806	4.0
102.821	4.0
102.835	1.0
102.85	3.0
102.865	4.0
102.88	1.0
102.894	3.0
102.909	2.0
102.924	2.0
102.938	4.0
102.953	3.0
102.968	3.0
102.983	2.0
102.997	5.0
103.012	4.0
103.027	7.0
103.042	4.0
103.056	2.0
103.071	3.0
103.086	1.0
103.101	0.0
103.115	5.0
103.13	0.0
103.145	5.0
103.16	7.0
103.174	2.0
103.189	1.0
103.204	1.0
103.219	4.0
103.233	2.0
103.248	7.0
103.263	4.0
103.278	3.0
103.292	4.0
103.307	2.0
103.322	2.0
103.337	2.0
103.351	4.0
103.366	3.0
103.381	5.0
103.396	3.0
103.41	3.0
103.425	3.0
103.44	3.0
103.455	6.0
103.469	4.0
103.484	3.0
103.499	4.0
103.514	3.0
103.529	3.0
103.543	1.0
103.558	4.0
103.573	1.0
103.588	4.0
103.602	4.0
103.617	1.0
103.632	6.0
103.647	3.0
103.661	9.0
103.676	7.0
103.691	0.0
103.706	1.0
103.721	4.0
103.735	0.0
103.75	12.0
103.765	3.0
103.78	4.0
103.795	4.0
103.809	3.0
103.824	5.0
103.839	1.0
103.854	2.0
103.869	5.0
103.883	3.0
103.898	2.0
103.913	2.0
103.928	0.0
103.943	0.0
103.957	2.0
103.972	4.0
103.987	4.0
104.002	3.0
104.017	4.0
104.031	3.0
104.046	7.0
104.061	3.0
104.076	3.0
104.091	4.0
104.106	1.0
104.12	2.0
104.135	3.0
104.15	4.0
104.165	2.0
104.18	2.0
104.195	6.0
104.209	5.0
104.224	8.0
104.239	1.0
104.254	5.0
104.269	3.0
104.284	5.0
104.299	3.0
104.313	2.0
104.328	3.0
104.343	2.0
104.358	2.0
104.373	2.0
104.388	6.0
104.403	3.0
104.417	2.0
104.432	2.0
104.447	2.0
104.462	3.0
104.477	1.0
104.492	3.0
104.507	3.0
104.522	8.0
104.536	5.0
104.551	4.0
104.566	7.0
104.581	6.0
104.596	2.0
104.611	4.0
104.626	4.0
104.641	2.0
104.656	2.0
104.67	4.0
104.685	3.0
104.7	6.0
104.715	3.0
104.73	6.0
104.745	4.0
104.76	5.0
104.775	2.0
104.79	3.0
104.804	0.0
104.819	4.0
104.834	3.0
104.849	5.0
104.864	7.0
104.879	2.0
104.894	0.0
104.909	3.0
104.924	2.0
104.939	2.0
104.954	5.0
104.968	3.0
104.983	0.0
104.998	2.0
105.013	4.0
105.028	2.0
105.043	5.0
105.058	2.0
105.073	3.0
105.088	1.0
105.103	6.0
105.118	4.0
105.133	7.0
105.147	3.0
105.162	3.0
105.177	6.0
105.192	3.0
105.207	5.0
105.222	1.0
105.237	4.0
105.252	3.0
105.267	3.0
105.282	2.0
105.297	5.0
105.312	6.0
105.327	4.0
105.342	6.0
105.356	1.0
105.371	8.0
105.386	2.0
105.401	5.0
105.416	3.0
105.431	3.0
105.446	3.0
105.461	4.0
105.476	2.0
105.491	4.0
105.506	5.0
105.521	2.0
105.536	2.0
105.551	5.0
105.566	1.0
105.581	1.0
105.595	3.0
105.61	7.0
105.625	4.0
105.64	3.0
105.655	2.0
105.67	3.0
105.685	2.0
105.7	3.0
105.715	2.0
105.73	3.0
105.745	0.0
105.76	5.0
105.775	3.0
105.79	3.0
105.805	4.0
105.82	0.0
105.835	5.0
105.85	3.0
105.864	5.0
105.879	3.0
105.894	4.0
105.909	1.0
105.924	4.0
105.939	3.0
105.954	4.0
105.969	3.0
105.984	3.0
105.999	5.0
106.014	4.0
106.029	4.0
106.044	2.0
106.059	3.0
106.074	1.0
106.089	3.0
106.104	2.0
106.119	4.0
106.134	1.0
106.148	6.0
106.163	2.0
106.178	5.0
106.193	1.0
106.208	2.0
106.223	6.0
106.238	4.0
106.253	3.0
106.268	3.0
106.283	5.0
106.298	4.0
106.313	1.0
106.328	0.0
106.343	4.0
106.358	0.0
106.373	5.0
106.388	2.0
106.403	2.0
106.418	2.0
106.432	4.0
106.447	2.0
106.462	2.0
106.477	2.0
106.492	5.0
106.507	5.0
106.522	2.0
106.537	5.0
106.552	1.0
106.567	4.0
106.582	2.0
106.597	3.0
106.612	1.0
106.627	3.0
106.642	2.0
106.657	2.0
106.672	2.0
106.687	6.0
106.701	3.0
106.716	1.0
106.731	5.0
106.746	3.0
106.761	2.0
106.776	2.0
106.791	4.0
106.806	5.0
106.821	2.0
106.836	1.0
106.851	3.0
106.866	3.0
106.881	1.0
106.896	2.0
106.911	2.0
106.926	1.0
106.941	1.0
106.955	3.0
106.97	6.0
106.985	7.0
107.0	1.0
107.015	3.0
107.03	1.0
107.045	3.0
107.06	4.0
107.075	3.0
107.09	5.0
107.105	8.0
107.12	2.0
107.135	3.0
107.15	2.0
107.165	2.0
107.18	4.0
107.194	2.0
107.209	7.0
107.224	5.0
107.239	4.0
107.254	7.0
107.269	4.0
107.284	8.0
107.299	9.0
107.314	3.0
107.329	3.0
107.344	6.0
107.359	3.0
107.374	5.0
107.389	3.0
107.404	4.0
107.418	5.0
107.433	4.0
107.448	3.0
107.463	1.0
107.478	1.0
107.493	6.0
107.508	5.0
107.523	2.0
107.538	3.0
107.553	2.0
107.568	4.0
107.583	7.0
107.598	3.0
107.613	5.0
107.627	6.0
107.642	5.0
107.657	7.0
107.672	5.0
107.687	2.0
107.702	2.0
107.717	5.0
107.732	2.0
107.747	2.0
107.762	4.0
107.777	3.0
107.792	3.0
107.807	3.0
107.821	3.0
107.836	2.0
107.851	2.0
107.866	3.0
107.881	4.0
107.896	0.0
107.911	3.0
107.926	4.0
107.941	0.0
107.956	0.0
107.971	1.0
107.986	4.0
108.0	2.0
108.015	6.0
108.03	1.0
108.045	7.0
108.06	2.0
108.075	3.0
108.09	3.0
108.105	5.0
108.12	6.0
108.135	3.0
108.15	4.0
108.164	3.0
108.179	5.0
108.194	2.0
108.209	5.0
108.224	3.0
108.239	4.0
108.254	4.0
108.269	3.0
108.284	3.0
108.299	7.0
108.313	3.0
108.328	7.0
108.343	3.0
108.358	4.0
108.373	5.0
108.388	3.0
108.403	1.0
108.418	4.0
108.433	3.0
108.448	4.0
108.462	4.0
108.477	3.0
108.492	4.0
108.507	2.0
108.522	1.0
108.537	5.0
108.552	4.0
108.567	2.0
108.582	5.0
108.597	0.0
108.611	4.0
108.626	3.0
108.641	1.0
108.656	2.0
108.671	2.0
108.686	5.0
108.701	0.0
108.716	2.0
108.731	4.0
108.745	4.0
108.76	2.0
108.775	2.0
108.79	2.0
108.805	6.0
108.82	3.0
108.835	1.0
108.85	4.0
108.865	4.0
108.879	4.0
108.894	4.0
108.909	4.0
108.924	4.0
108.939	2.0
108.954	4.0
108.969	9.0
108.984	2.0
108.999	4.0
109.013	2.0
109.028	7.0
109.043	1.0
109.058	1.0
109.073	4.0
109.088	4.0
109.103	5.0
109.118	3.0
109.133	3.0
109.147	5.0
109.162	1.0
109.177	1.0
109.192	2.0
109.207	1.0
109.222	6.0
109.237	4.0
109.252	3.0
109.267	5.0
109.281	3.0
109.296	3.0
109.311	2.0
109.326	1.0
109.341	2.0
109.356	1.0
109.371	2.0
109.386	1.0
109.4	3.0
109.415	3.0
109.43	0.0
109.445	1.0
109.46	5.0
109.475	1.0
109.49	2.0
109.505	5.0
109.52	2.0
109.534	1.0
109.549	7.0
109.564	4.0
109.579	6.0
109.594	8.0
109.609	1.0
109.624	2.0
109.639	4.0
109.653	1.0
109.668	3.0
109.683	1.0
109.698	2.0
109.713	5.0
109.728	4.0
109.743	3.0
109.758	2.0
109.773	1.0
109.787	6.0
109.802	1.0
109.817	5.0
109.832	0.0
109.847	6.0
109.862	1.0
109.877	2.0
109.892	6.0
109.907	6.0
109.921	2.0
109.936	1.0
109.951	1.0
109.966	3.0
109.981	5.0
109.996	2.0
110.011	2.0
110.026	0.0
110.04	4.0
110.055	5.0
110.07	0.0
110.085	2.0
110.1	4.0
110.115	2.0
110.13	1.0
110.145	4.0
110.16	4.0
110.174	4.0
110.189	0.0
110.204	4.0
110.219	4.0
110.234	4.0
110.249	1.0
110.264	4.0
110.279	3.0
110.294	1.0
110.308	1.0
110.323	1.0
110.338	0.0
110.353	6.0
110.368	3.0
110.383	3.0
110.398	2.0
110.413	9.0
110.428	2.0
110.442	5.0
110.457	3.0
110.472	3.0
110.487	3.0
110.502	1.0
110.517	1.0
110.532	3.0
110.547	5.0
110.561	5.0
110.576	0.0
110.591	5.0
110.606	3.0
110.621	4.0
110.636	1.0
110.651	3.0
110.666	6.0
110.681	1.0
110.695	4.0
110.71	4.0
110.725	4.0
110.74	7.0
110.755	2.0
110.77	4.0
110.785	3.0
110.8	5.0
110.815	3.0
110.829	5.0
110.844	3.0
110.859	4.0
110.874	0.0
110.889	3.0
110.904	5.0
110.919	0.0
110.934	2.0
110.948	3.0
110.963	2.0
110.978	2.0
110.993	3.0
111.008	5.0
111.023	2.0
111.038	4.0
111.053	5.0
111.067	0.0
111.082	1.0
111.097	4.0
111.112	3.0
111.127	8.0
111.142	3.0
111.157	6.0
111.172	2.0
111.186	1.0
111.201	3.0
111.216	8.0
111.231	2.0
111.246	4.0
111.261	3.0
111.276	4.0
111.291	2.0
111.305	4.0
111.32	4.0
111.335	3.0
111.35	3.0
111.365	2.0
111.38	3.0
111.395	5.0
111.41	6.0
111.424	2.0
111.439	4.0
111.454	6.0
111.469	5.0
111.484	4.0
111.499	5.0
111.514	3.0
111.528	2.0
111.543	5.0
111.558	4.0
111.573	3.0
111.588	5.0
111.603	1.0
111.618	4.0
111.633	5.0
111.647	2.0
111.662	3.0
111.677	5.0
111.692	4.0
111.707	3.0
111.722	5.0
111.737	5.0
111.751	9.0
111.766	4.0
111.781	8.0
111.796	5.0
111.811	0.0
111.826	2.0
111.84	3.0
111.855	8.0
111.87	2.0
111.885	4.0
111.9	1.0
111.915	3.0
111.93	1.0
111.944	4.0
111.959	5.0
111.974	1.0
111.989	3.0
112.004	3.0
112.019	5.0
112.033	3.0
112.048	4.0
112.063	2.0
112.078	6.0
112.093	2.0
112.108	1.0
112.123	0.0
112.137	6.0
112.152	3.0
112.167	2.0
112.182	1.0
112.197	3.0
112.212	3.0
112.226	4.0
112.241	5.0
112.256	1.0
112.271	4.0
112.286	5.0
112.301	2.0
112.315	4.0
112.33	1.0
112.345	3.0
112.36	2.0
112.375	8.0
112.389	2.0
112.404	2.0
112.419	1.0
112.434	4.0
112.449	3.0
112.464	2.0
112.478	0.0
112.493	4.0
112.508	2.0
112.523	3.0
112.538	3.0
112.553	4.0
112.567	5.0
112.582	2.0
112.597	5.0
112.612	5.0
112.627	3.0
112.642	7.0
112.656	3.0
112.671	7.0
112.686	2.0
112.701	11.0
112.716	4.0
112.73	5.0
112.745	2.0
112.76	3.0
112.775	3.0
112.79	1.0
112.805	5.0
112.819	5.0
112.834	4.0
112.849	5.0
112.864	5.0
112.879	5.0
112.894	0.0
112.908	1.0
112.923	3.0
112.938	1.0
112.953	1.0
112.968	9.0
112.983	5.0
112.997	4.0
113.012	3.0
113.027	4.0
113.042	1.0
113.057	2.0
113.072	5.0
113.086	2.0
113.101	2.0
113.116	3.0
113.131	3.0
113.146	2.0
113.161	2.0
113.175	7.0
113.19	6.0
113.205	5.0
113.22	2.0
113.235	6.0
113.25	3.0
113.265	2.0
113.279	6.0
113.294	4.0
113.309	4.0
113.324	2.0
113.339	1.0
113.354	4.0
113.368	4.0
113.383	1.0
113.398	3.0
113.413	4.0
113.428	1.0
113.443	5.0
113.458	7.0
113.472	4.0
113.487	4.0
113.502	5.0
113.517	5.0
113.532	4.0
113.547	2.0
113.562	2.0
113.576	2.0
113.591	6.0
113.606	6.0
113.621	2.0
113.636	6.0
113.651	7.0
113.666	5.0
113.681	2.0
113.695	2.0
113.71	2.0
113.725	7.0
113.74	4.0
113.755	5.0
113.77	5.0
113.785	1.0
113.8	3.0
113.814	1.0
113.829	1.0
113.844	6.0
113.859	4.0
113.874	1.0
113.889	5.0
113.904	5.0
113.919	1.0
113.934	1.0
113.949	3.0
113.963	3.0
113.978	5.0
113.993	3.0
114.008	2.0
114.023	5.0
114.038	7.0
114.053	4.0
114.068	3.0
114.083	3.0
114.098	0.0
114.113	1.0
114.127	2.0
114.142	3.0
114.157	2.0
114.172	4.0
114.187	4.0
114.202	1.0
114.217	1.0
114.232	5.0
114.247	1.0
114.262	4.0
114.277	4.0
114.292	6.0
114.307	2.0
114.322	5.0
114.337	3.0
114.351	2.0
114.366	4.0
114.381	6.0
114.396	3.0
114.411	1.0
114.426	3.0
114.441	3.0
114.456	7.0
114.471	5.0
114.486	8.0
114.501	4.0
114.516	2.0
114.531	4.0
114.546	3.0
114.561	5.0
114.576	3.0
114.591	2.0
114.606	1.0
114.621	3.0
114.636	2.0
114.65	2.0
114.665	3.0
114.68	3.0
114.695	4.0
114.71	1.0
114.725	3.0
114.74	2.0
114.755	2.0
114.77	2.0
114.785	2.0
114.8	8.0
114.815	5.0
114.83	4.0
114.845	6.0
114.86	2.0
114.875	2.0
114.89	9.0
114.905	2.0
114.92	5.0
114.935	1.0
114.95	4.0
114.965	4.0
114.98	4.0
114.995	4.0
115.009	3.0
115.024	4.0
115.039	6.0
115.054	2.0
115.069	4.0
115.084	3.0
115.099	2.0
115.114	6.0
115.129	2.0
115.144	1.0
115.159	2.0
115.174	2.0
115.189	4.0
115.204	4.0
115.219	5.0
115.234	4.0
115.249	7.0
115.264	2.0
115.279	2.0
115.294	7.0
115.309	7.0
115.323	5.0
115.338	4.0
115.353	5.0
115.368	6.0
115.383	2.0
115.398	1.0
115.413	5.0
115.428	8.0
115.443	4.0
115.458	6.0
115.473	4.0
115.488	4.0
115.503	3.0
115.518	6.0
115.533	5.0
115.548	2.0
115.562	3.0
115.577	4.0
115.592	5.0
115.607	6.0
115.622	2.0
115.637	2.0
115.652	4.0
115.667	1.0
115.682	5.0
115.697	4.0
115.712	7.0
115.727	1.0
115.741	2.0
115.756	4.0
115.771	5.0
115.786	4.0
115.801	5.0
115.816	6.0
115.831	3.0
115.846	2.0
115.861	2.0
115.875	2.0
115.89	3.0
115.905	4.0
115.92	4.0
115.935	3.0
115.95	2.0
115.965	3.0
115.98	2.0
115.995	5.0
116.009	3.0
116.024	3.0
116.039	1.0
116.054	1.0
116.069	2.0
116.084	3.0
116.099	4.0
116.113	3.0
116.128	4.0
116.143	5.0
116.158	8.0
116.173	2.0
116.188	3.0
116.202	5.0
116.217	7.0
116.232	2.0
116.247	5.0
116.262	2.0
116.277	3.0
116.291	7.0
116.306	6.0
116.321	5.0
116.336	6.0
116.351	6.0
116.366	3.0
116.38	4.0
116.395	2.0
116.41	3.0
116.425	3.0
116.44	0.0
116.454	4.0
116.469	2.0
116.484	4.0
116.499	4.0
116.514	5.0
116.528	9.0
116.543	2.0
116.558	2.0
116.573	3.0
116.588	3.0
116.602	2.0
116.617	3.0
116.632	6.0
116.647	4.0
116.662	2.0
116.676	2.0
116.691	7.0
116.706	4.0
116.721	1.0
116.735	2.0
116.75	2.0
116.765	4.0
116.78	2.0
116.795	8.0
116.809	4.0
116.824	3.0
116.839	6.0
116.854	3.0
116.868	3.0
116.883	0.0
116.898	2.0
116.913	2.0
116.927	2.0
116.942	3.0
116.957	4.0
116.972	1.0
116.986	1.0
117.001	5.0
117.016	0.0
117.031	3.0
117.045	2.0
117.06	3.0
117.075	2.0
117.09	5.0
117.104	2.0
117.119	1.0
117.134	2.0
117.149	0.0
117.163	4.0
117.178	4.0
117.193	3.0
117.208	2.0
117.222	6.0
117.237	6.0
117.252	1.0
117.267	4.0
117.281	5.0
117.296	4.0
117.311	2.0
117.325	5.0
117.34	7.0
117.355	7.0
117.37	3.0
117.384	5.0
117.399	5.0
117.414	6.0
117.429	5.0
117.443	3.0
117.458	5.0
117.473	3.0
117.487	3.0
117.502	2.0
117.517	4.0
117.532	3.0
117.546	4.0
117.561	2.0
117.576	1.0
117.59	4.0
117.605	2.0
117.62	8.0
117.635	3.0
117.649	1.0
117.664	3.0
117.679	2.0
117.693	3.0
117.708	4.0
117.723	3.0
117.738	4.0
117.752	2.0
117.767	1.0
117.782	2.0
117.796	6.0
117.811	2.0
117.826	3.0
117.841	7.0
117.855	3.0
117.87	3.0
117.885	5.0
117.899	5.0
117.914	4.0
117.929	5.0
117.944	2.0
117.958	2.0
117.973	8.0
117.988	5.0
118.002	5.0
118.017	5.0
118.032	4.0
118.047	6.0
118.062	4.0
118.077	1.0
118.092	4.0
118.107	2.0
118.121	7.0
118.136	4.0
118.151	1.0
118.166	6.0
118.181	3.0
118.196	10.0
118.211	2.0
118.225	5.0
118.24	3.0
118.255	4.0
118.27	7.0
118.285	6.0
118.3	4.0
118.315	1.0
118.33	5.0
118.344	3.0
118.359	6.0
118.374	3.0
118.389	4.0
118.404	5.0
118.419	4.0
118.434	7.0
118.449	7.0
118.463	3.0
118.478	2.0
118.493	6.0
118.508	2.0
118.523	1.0
118.538	2.0
118.553	3.0
118.567	1.0
118.582	2.0
118.597	0.0
118.612	6.0
118.627	4.0
118.642	2.0
118.657	5.0
118.672	3.0
118.686	4.0
118.701	3.0
118.716	1.0
118.731	2.0
118.746	6.0
118.761	5.0
118.776	4.0
118.791	2.0
118.805	1.0
118.82	2.0
118.835	2.0
118.85	6.0
118.865	2.0
118.88	3.0
118.895	1.0
118.909	3.0
118.924	4.0
118.939	2.0
118.954	3.0
118.969	0.0
118.984	3.0
118.999	3.0
119.014	4.0
119.028	6.0
119.043	4.0
119.058	4.0
119.073	8.0
119.088	3.0
119.103	4.0
119.118	4.0
119.133	2.0
119.147	8.0
119.162	5.0
119.177	4.0
119.192	3.0
119.207	5.0
119.222	6.0
119.237	1.0
119.251	5.0
119.266	1.0
119.281	5.0
119.296	0.0
119.311	2.0
119.326	1.0
119.341	3.0
119.356	2.0
119.37	4.0
119.385	2.0
119.4	3.0
119.415	4.0
119.43	2.0
119.445	3.0
119.46	0.0
119.475	5.0
119.489	6.0
119.504	5.0
119.519	5.0
119.534	2.0
119.549	4.0
119.564	1.0
119.579	7.0
119.593	6.0
119.608	0.0
119.623	2.0
119.638	3.0
119.653	3.0
119.668	4.0
119.683	3.0
119.698	2.0
119.712	3.0
119.727	3.0
119.742	3.0
119.757	3.0
119.772	5.0
119.787	4.0
119.802	6.0
119.817	5.0
119.831	3.0
119.846	5.0
119.861	1.0
119.876	7.0
119.891	3.0
119.906	4.0
119.921	3.0
119.935	2.0
119.95	4.0
119.965	3.0
119.98	0.0
119.995	4.0
120.01	5.0
120.025	4.0
120.04	1.0
120.054	2.0
120.069	1.0
120.084	3.0
120.099	2.0
120.114	1.0
120.129	2.0
120.144	3.0
120.159	1.0
120.173	1.0
120.188	1.0
120.203	2.0
120.218	2.0
120.233	1.0
120.248	1.0
120.263	1.0
120.277	0.0
120.292	0.0
120.307	1.0
120.322	0.0
120.337	2.0
120.352	0.0
120.367	0.0
120.382	0.0
120.396	0.0
120.411	1.0
120.426	0.0
120.441	1.0
120.456	0.0
120.471	0.0
120.486	0.0
120.501	0.0
120.515	0.0
120.53	0.0
120.545	0.0
120.56	1.0
120.575	1.0
120.59	0.0
120.605	0.0
120.619	0.0
120.634	0.0
120.649	0.0
120.664	0.0
120.679	0.0
120.694	0.0
120.709	0.0
120.724	0.0
120.738	0.0
120.753	0.0
120.768	1.0
120.783	0.0
120.798	0.0
120.813	0.0
120.828	0.0
120.843	1.0
120.857	0.0
120.872	1.0
120.887	0.0
120.902	0.0
120.917	0.0
120.932	0.0
120.947	0.0
120.961	0.0
120.976	0.0
