-1.217	0.0
-1.202	0.0
-1.187	0.0
-1.172	0.0
-1.157	0.0
-1.142	0.0
-1.128	0.0
-1.113	0.0
-1.098	0.0
-1.083	0.0
-1.068	0.0
-1.054	0.0
-1.039	0.0
-1.024	0.0
-1.009	0.0
-0.994	0.0
-0.979	0.0
-0.965	0.0
-0.95	0.0
-0.935	0.0
-0.92	0.0
-0.905	0.0
-0.891	0.0
-0.876	0.0
-0.861	0.0
-0.846	0.0
-0.831	0.0
-0.816	0.0
-0.802	0.0
-0.787	0.0
-0.772	0.0
-0.757	0.0
-0.742	0.0
-0.728	0.0
-0.713	0.0
-0.698	0.0
-0.683	0.0
-0.668	0.0
-0.653	0.0
-0.639	0.0
-0.624	0.0
-0.609	0.0
-0.594	0.0
-0.579	0.0
-0.565	0.0
-0.55	0.0
-0.535	0.0
-0.52	0.0
-0.505	0.0
-0.49	0.0
-0.476	0.0
-0.461	0.0
-0.446	0.0
-0.431	0.0
-0.416	0.0
-0.401	0.0
-0.387	0.0
-0.372	0.0
-0.357	0.0
-0.342	0.0
-0.327	0.0
-0.313	0.0
-0.298	0.0
-0.283	0.0
-0.268	0.0
-0.253	0.0
-0.238	0.0
-0.224	0.0
-0.209	0.0
-0.194	0.0
-0.179	0.0
-0.164	0.0
-0.15	0.0
-0.135	0.0
-0.12	0.0
-0.105	0.0
-0.09	0.0
-0.075	0.0
-0.061	0.0
-0.046	1.0
-0.031	0.0
-0.016	0.0
-0.001	0.0
0.013	0.0
0.028	0.0
0.043	0.0
0.058	0.0
0.073	0.0
0.088	0.0
0.102	0.0
0.117	0.0
0.132	0.0
0.147	0.0
0.162	0.0
0.176	0.0
0.191	0.0
0.206	0.0
0.221	0.0
0.236	1.0
0.251	0.0
0.265	0.0
0.28	0.0
0.295	0.0
0.31	0.0
0.325	0.0
0.339	0.0
0.354	0.0
0.369	0.0
0.384	0.0
0.399	0.0
0.414	0.0
0.428	0.0
0.443	0.0
0.458	0.0
0.473	0.0
0.488	0.0
0.502	0.0
0.517	0.0
0.532	0.0
0.547	0.0
0.562	0.0
0.577	0.0
0.591	0.0
0.606	0.0
0.621	0.0
0.636	0.0
0.651	0.0
0.665	0.0
0.68	0.0
0.695	0.0
0.71	0.0
0.725	0.0
0.74	0.0
0.754	0.0
0.769	0.0
0.784	0.0
0.799	0.0
0.814	0.0
0.828	0.0
0.843	0.0
0.858	0.0
0.873	0.0
0.888	0.0
0.903	0.0
0.917	0.0
0.932	0.0
0.947	0.0
0.962	0.0
0.977	0.0
0.991	0.0
1.006	0.0
1.021	0.0
1.036	0.0
1.051	0.0
1.065	0.0
1.08	0.0
1.095	0.0
1.11	0.0
1.125	0.0
1.14	1.0
1.154	0.0
1.169	0.0
1.184	0.0
1.199	0.0
1.214	0.0
1.228	0.0
1.243	0.0
1.258	0.0
1.273	0.0
1.288	0.0
1.302	0.0
1.317	0.0
1.332	0.0
1.347	0.0
1.362	0.0
1.376	0.0
1.391	0.0
1.406	1.0
1.421	0.0
1.436	1.0
1.45	0.0
1.465	0.0
1.48	0.0
1.495	0.0
1.51	0.0
1.524	0.0
1.539	0.0
1.554	0.0
1.569	0.0
1.584	0.0
1.598	0.0
1.613	0.0
1.628	0.0
1.643	0.0
1.658	1.0
1.672	0.0
1.687	0.0
1.702	0.0
1.717	0.0
1.732	1.0
1.746	0.0
1.761	0.0
1.776	0.0
1.791	0.0
1.806	0.0
1.82	0.0
1.835	0.0
1.85	0.0
1.865	1.0
1.88	0.0
1.894	0.0
1.909	0.0
1.924	0.0
1.939	1.0
1.954	1.0
1.968	0.0
1.983	1.0
1.998	1.0
2.013	0.0
2.028	0.0
2.042	0.0
2.057	0.0
2.072	0.0
2.087	0.0
2.101	0.0
2.116	0.0
2.131	0.0
2.146	0.0
2.161	0.0
2.175	0.0
2.19	0.0
2.205	0.0
2.22	0.0
2.235	0.0
2.249	0.0
2.264	1.0
2.279	0.0
2.294	0.0
2.308	1.0
2.323	3.0
2.338	2.0
2.353	0.0
2.368	1.0
2.382	0.0
2.397	1.0
2.412	2.0
2.427	2.0
2.442	0.0
2.456	3.0
2.471	1.0
2.486	2.0
2.501	4.0
2.515	3.0
2.53	1.0
2.545	2.0
2.56	2.0
2.575	0.0
2.589	2.0
2.604	3.0
2.619	2.0
2.634	3.0
2.649	2.0
2.663	2.0
2.678	2.0
2.693	3.0
2.708	1.0
2.722	5.0
2.737	3.0
2.752	7.0
2.767	3.0
2.782	3.0
2.796	4.0
2.811	7.0
2.826	2.0
2.841	3.0
2.856	4.0
2.87	3.0
2.885	5.0
2.9	1.0
2.915	4.0
2.93	3.0
2.944	8.0
2.959	5.0
2.974	2.0
2.989	1.0
3.004	3.0
3.018	4.0
3.033	4.0
3.048	2.0
3.063	4.0
3.078	1.0
3.092	5.0
3.107	4.0
3.122	5.0
3.137	7.0
3.152	5.0
3.166	5.0
3.181	2.0
3.196	6.0
3.211	3.0
3.226	5.0
3.24	7.0
3.255	2.0
3.27	1.0
3.285	4.0
3.3	2.0
3.315	2.0
3.329	2.0
3.344	4.0
3.359	6.0
3.374	4.0
3.389	5.0
3.403	4.0
3.418	7.0
3.433	5.0
3.448	2.0
3.463	5.0
3.478	5.0
3.492	6.0
3.507	5.0
3.522	2.0
3.537	11.0
3.552	10.0
3.567	4.0
3.581	1.0
3.596	7.0
3.611	5.0
3.626	6.0
3.641	4.0
3.656	8.0
3.671	7.0
3.685	9.0
3.7	5.0
3.715	3.0
3.73	5.0
3.745	5.0
3.76	6.0
3.775	4.0
3.789	8.0
3.804	9.0
3.819	6.0
3.834	6.0
3.849	10.0
3.864	8.0
3.879	4.0
3.894	9.0
3.908	5.0
3.923	9.0
3.938	8.0
3.953	8.0
3.968	7.0
3.983	4.0
3.998	6.0
4.013	3.0
4.027	6.0
4.042	3.0
4.057	5.0
4.072	7.0
4.087	8.0
4.102	5.0
4.117	10.0
4.132	3.0
4.147	7.0
4.162	6.0
4.176	8.0
4.191	7.0
4.206	7.0
4.221	3.0
4.236	8.0
4.251	11.0
4.266	11.0
4.281	12.0
4.296	4.0
4.311	7.0
4.326	5.0
4.341	7.0
4.356	10.0
4.37	5.0
4.385	9.0
4.4	5.0
4.415	4.0
4.43	6.0
4.445	6.0
4.46	11.0
4.475	6.0
4.49	3.0
4.505	7.0
4.52	6.0
4.535	2.0
4.55	9.0
4.565	4.0
4.58	6.0
4.595	4.0
4.61	0.0
4.625	7.0
4.639	11.0
4.654	7.0
4.669	4.0
4.684	3.0
4.699	4.0
4.714	11.0
4.729	13.0
4.744	7.0
4.759	3.0
4.774	6.0
4.789	7.0
4.804	12.0
4.819	6.0
4.834	7.0
4.849	3.0
4.864	6.0
4.879	11.0
4.894	7.0
4.909	5.0
4.924	9.0
4.939	7.0
4.954	6.0
4.969	6.0
4.984	7.0
4.999	4.0
5.014	6.0
5.029	8.0
5.044	8.0
5.059	7.0
5.074	17.0
5.089	10.0
5.104	6.0
5.119	14.0
5.134	11.0
5.149	13.0
5.164	4.0
5.179	10.0
5.194	5.0
5.209	7.0
5.224	3.0
5.239	6.0
5.254	3.0
5.269	9.0
5.284	6.0
5.299	11.0
5.314	8.0
5.329	10.0
5.344	6.0
5.359	12.0
5.374	10.0
5.389	7.0
5.404	6.0
5.419	5.0
5.434	9.0
5.449	7.0
5.464	7.0
5.479	7.0
5.494	2.0
5.509	8.0
5.524	8.0
5.539	9.0
5.554	5.0
5.569	7.0
5.584	6.0
5.599	7.0
5.614	6.0
5.629	10.0
5.644	7.0
5.659	10.0
5.674	11.0
5.689	11.0
5.704	10.0
5.719	6.0
5.734	13.0
5.749	5.0
5.764	8.0
5.779	11.0
5.794	11.0
5.809	10.0
5.824	12.0
5.839	10.0
5.854	12.0
5.869	7.0
5.884	8.0
5.899	12.0
5.914	6.0
5.929	10.0
5.944	8.0
5.959	10.0
5.974	8.0
5.989	8.0
6.004	9.0
6.019	6.0
6.034	8.0
6.049	9.0
6.064	11.0
6.079	14.0
6.094	5.0
6.109	13.0
6.124	6.0
6.139	7.0
6.154	7.0
6.169	6.0
6.184	4.0
6.199	9.0
6.214	7.0
6.229	9.0
6.244	6.0
6.259	8.0
6.274	11.0
6.289	9.0
6.304	7.0
6.319	3.0
6.334	11.0
6.349	9.0
6.364	7.0
6.379	10.0
6.394	9.0
6.409	11.0
6.424	10.0
6.439	9.0
6.454	7.0
6.469	10.0
6.484	19.0
6.499	5.0
6.514	12.0
6.529	16.0
6.544	5.0
6.559	9.0
6.574	8.0
6.589	5.0
6.604	11.0
6.619	6.0
6.634	7.0
6.649	10.0
6.664	5.0
6.679	5.0
6.694	15.0
6.709	8.0
6.724	8.0
6.739	8.0
6.754	11.0
6.769	6.0
6.784	5.0
6.799	6.0
6.814	10.0
6.829	11.0
6.844	11.0
6.859	5.0
6.873	9.0
6.888	5.0
6.903	10.0
6.918	6.0
6.933	4.0
6.948	11.0
6.963	11.0
6.978	11.0
6.993	5.0
7.008	7.0
7.023	7.0
7.038	11.0
7.053	7.0
7.068	8.0
7.083	9.0
7.098	9.0
7.113	9.0
7.128	5.0
7.143	2.0
7.157	7.0
7.172	12.0
7.187	4.0
7.202	10.0
7.217	17.0
7.232	10.0
7.247	7.0
7.262	7.0
7.277	8.0
7.292	12.0
7.307	4.0
7.322	9.0
7.336	7.0
7.351	6.0
7.366	4.0
7.381	8.0
7.396	16.0
7.411	12.0
7.426	9.0
7.441	7.0
7.456	14.0
7.471	15.0
7.485	10.0
7.5	10.0
7.515	11.0
7.53	8.0
7.545	9.0
7.56	10.0
7.575	8.0
7.59	8.0
7.604	6.0
7.619	8.0
7.634	5.0
7.649	7.0
7.664	8.0
7.679	5.0
7.693	8.0
7.708	7.0
7.723	13.0
7.738	5.0
7.753	9.0
7.768	11.0
7.783	7.0
7.797	4.0
7.812	3.0
7.827	7.0
7.842	10.0
7.857	7.0
7.871	10.0
7.886	8.0
7.901	10.0
7.916	7.0
7.931	7.0
7.945	14.0
7.96	11.0
7.975	8.0
7.99	8.0
8.005	6.0
8.019	5.0
8.034	8.0
8.049	9.0
8.064	10.0
8.078	6.0
8.093	8.0
8.108	4.0
8.123	5.0
8.137	8.0
8.152	10.0
8.167	11.0
8.182	10.0
8.196	7.0
8.211	7.0
8.226	7.0
8.241	13.0
8.255	10.0
8.27	8.0
8.285	7.0
8.3	8.0
8.314	14.0
8.329	4.0
8.344	7.0
8.358	6.0
8.373	5.0
8.388	9.0
8.403	11.0
8.417	7.0
8.432	9.0
8.447	9.0
8.461	6.0
8.476	4.0
8.491	2.0
8.505	11.0
8.52	12.0
8.535	13.0
8.55	6.0
8.564	6.0
8.579	6.0
8.594	13.0
8.608	5.0
8.623	12.0
8.638	13.0
8.652	5.0
8.667	4.0
8.682	6.0
8.696	8.0
8.711	9.0
8.726	10.0
8.74	10.0
8.755	7.0
8.77	16.0
8.784	9.0
8.799	5.0
8.814	3.0
8.828	7.0
8.843	15.0
8.858	13.0
8.872	3.0
8.887	7.0
8.902	6.0
8.916	8.0
8.931	13.0
8.946	10.0
8.96	7.0
8.975	8.0
8.99	7.0
9.004	9.0
9.019	7.0
9.034	5.0
9.048	9.0
9.063	7.0
9.077	5.0
9.092	7.0
9.107	6.0
9.121	10.0
9.136	13.0
9.151	12.0
9.165	13.0
9.18	12.0
9.195	5.0
9.209	12.0
9.224	9.0
9.239	4.0
9.253	6.0
9.268	9.0
9.283	8.0
9.297	7.0
9.312	5.0
9.327	10.0
9.341	7.0
9.356	7.0
9.371	6.0
9.385	9.0
9.4	6.0
9.415	12.0
9.429	8.0
9.444	15.0
9.458	8.0
9.473	8.0
9.488	8.0
9.502	5.0
9.517	5.0
9.532	9.0
9.546	5.0
9.561	6.0
9.576	6.0
9.59	2.0
9.605	11.0
9.62	6.0
9.635	5.0
9.649	6.0
9.664	11.0
9.679	9.0
9.693	10.0
9.708	10.0
9.723	6.0
9.737	17.0
9.752	9.0
9.767	14.0
9.781	6.0
9.796	10.0
9.811	9.0
9.825	6.0
9.84	8.0
9.855	9.0
9.87	7.0
9.884	12.0
9.899	6.0
9.914	4.0
9.928	5.0
9.943	10.0
9.958	11.0
9.973	8.0
9.987	7.0
10.002	8.0
10.017	7.0
10.031	8.0
10.046	11.0
10.061	9.0
10.076	9.0
10.09	4.0
10.105	9.0
10.12	10.0
10.135	10.0
10.149	5.0
10.164	11.0
10.179	7.0
10.194	6.0
10.208	8.0
10.223	8.0
10.238	8.0
10.253	9.0
10.267	5.0
10.282	8.0
10.297	5.0
10.312	6.0
10.326	9.0
10.341	4.0
10.356	8.0
10.371	9.0
10.386	6.0
10.4	4.0
10.415	6.0
10.43	8.0
10.445	13.0
10.46	7.0
10.474	7.0
10.489	8.0
10.504	7.0
10.519	8.0
10.533	6.0
10.548	8.0
10.563	5.0
10.578	7.0
10.593	12.0
10.608	8.0
10.622	8.0
10.637	10.0
10.652	12.0
10.667	3.0
10.682	9.0
10.696	4.0
10.711	1.0
10.726	13.0
10.741	9.0
10.756	9.0
10.771	10.0
10.785	4.0
10.8	6.0
10.815	3.0
10.83	10.0
10.845	5.0
10.86	9.0
10.874	10.0
10.889	7.0
10.904	3.0
10.919	7.0
10.934	8.0
10.949	2.0
10.963	11.0
10.978	8.0
10.993	10.0
11.008	7.0
11.023	4.0
11.038	5.0
11.053	9.0
11.067	10.0
11.082	8.0
11.097	11.0
11.112	7.0
11.127	7.0
11.142	9.0
11.157	12.0
11.172	14.0
11.186	10.0
11.201	7.0
11.216	5.0
11.231	1.0
11.246	7.0
11.261	7.0
11.276	12.0
11.291	5.0
11.305	9.0
11.32	4.0
11.335	6.0
11.35	5.0
11.365	10.0
11.38	6.0
11.395	6.0
11.41	9.0
11.424	10.0
11.439	7.0
11.454	7.0
11.469	8.0
11.484	7.0
11.499	6.0
11.514	6.0
11.529	5.0
11.544	8.0
11.558	10.0
11.573	7.0
11.588	14.0
11.603	13.0
11.618	5.0
11.633	6.0
11.648	10.0
11.663	8.0
11.678	7.0
11.693	5.0
11.707	10.0
11.722	6.0
11.737	8.0
11.752	4.0
11.767	6.0
11.782	9.0
11.797	7.0
11.812	12.0
11.827	14.0
11.842	5.0
11.856	8.0
11.871	10.0
11.886	11.0
11.901	9.0
11.916	13.0
11.931	7.0
11.946	8.0
11.961	10.0
11.976	12.0
11.991	6.0
12.006	12.0
12.02	14.0
12.035	9.0
12.05	11.0
12.065	4.0
12.08	10.0
12.095	5.0
12.11	19.0
12.125	7.0
12.14	11.0
12.155	11.0
12.17	7.0
12.184	15.0
12.199	12.0
12.214	6.0
12.229	10.0
12.244	9.0
12.259	13.0
12.274	12.0
12.289	21.0
12.304	12.0
12.319	13.0
12.334	10.0
12.348	16.0
12.363	15.0
12.378	11.0
12.393	12.0
12.408	8.0
12.423	9.0
12.438	11.0
12.453	8.0
12.468	8.0
12.483	11.0
12.498	12.0
12.513	12.0
12.527	8.0
12.542	16.0
12.557	10.0
12.572	9.0
12.587	13.0
12.602	10.0
12.617	12.0
12.632	13.0
12.647	15.0
12.662	11.0
12.677	19.0
12.692	17.0
12.707	12.0
12.721	10.0
12.736	8.0
12.751	14.0
12.766	10.0
12.781	22.0
12.796	18.0
12.811	8.0
12.826	20.0
12.841	15.0
12.856	8.0
12.871	17.0
12.886	20.0
12.9	13.0
12.915	19.0
12.93	11.0
12.945	21.0
12.96	21.0
12.975	21.0
12.99	16.0
13.005	16.0
13.02	11.0
13.035	15.0
13.05	16.0
13.065	15.0
13.08	17.0
13.094	21.0
13.109	11.0
13.124	14.0
13.139	12.0
13.154	13.0
13.169	21.0
13.184	24.0
13.199	15.0
13.214	19.0
13.229	25.0
13.244	17.0
13.259	20.0
13.274	20.0
13.288	16.0
13.303	15.0
13.318	25.0
13.333	20.0
13.348	17.0
13.363	16.0
13.378	27.0
13.393	20.0
13.408	22.0
13.423	27.0
13.438	26.0
13.453	27.0
13.468	46.0
13.482	36.0
13.497	37.0
13.512	31.0
13.527	46.0
13.542	41.0
13.557	56.0
13.572	55.0
13.587	51.0
13.602	56.0
13.617	46.0
13.632	72.0
13.647	61.0
13.662	69.0
13.677	96.0
13.691	81.0
13.706	91.0
13.721	93.0
13.736	91.0
13.751	97.0
13.766	115.0
13.781	122.0
13.796	124.0
13.811	148.0
13.826	145.0
13.841	104.0
13.856	118.0
13.871	113.0
13.885	97.0
13.9	87.0
13.915	73.0
13.93	59.0
13.945	53.0
13.96	52.0
13.975	42.0
13.99	36.0
14.005	20.0
14.02	30.0
14.035	23.0
14.05	27.0
14.065	26.0
14.08	29.0
14.094	13.0
14.109	19.0
14.124	26.0
14.139	27.0
14.154	25.0
14.169	18.0
14.184	25.0
14.199	17.0
14.214	23.0
14.229	11.0
14.244	20.0
14.259	27.0
14.274	18.0
14.288	20.0
14.303	18.0
14.318	14.0
14.333	18.0
14.348	17.0
14.363	16.0
14.378	19.0
14.393	20.0
14.408	15.0
14.423	21.0
14.438	12.0
14.453	17.0
14.468	22.0
14.482	8.0
14.497	16.0
14.512	18.0
14.527	18.0
14.542	10.0
14.557	18.0
14.572	9.0
14.587	16.0
14.602	20.0
14.617	22.0
14.632	16.0
14.647	15.0
14.661	16.0
14.676	9.0
14.691	15.0
14.706	17.0
14.721	18.0
14.736	21.0
14.751	18.0
14.766	9.0
14.781	14.0
14.796	19.0
14.811	15.0
14.826	11.0
14.84	19.0
14.855	16.0
14.87	12.0
14.885	16.0
14.9	11.0
14.915	12.0
14.93	11.0
14.945	16.0
14.96	16.0
14.975	10.0
14.989	13.0
15.004	12.0
15.019	13.0
15.034	13.0
15.049	14.0
15.064	10.0
15.079	15.0
15.094	15.0
15.109	16.0
15.124	10.0
15.138	17.0
15.153	17.0
15.168	16.0
15.183	17.0
15.198	14.0
15.213	15.0
15.228	13.0
15.243	15.0
15.258	16.0
15.272	16.0
15.287	18.0
15.302	8.0
15.317	18.0
15.332	16.0
15.347	14.0
15.362	15.0
15.377	12.0
15.391	15.0
15.406	12.0
15.421	13.0
15.436	14.0
15.451	16.0
15.466	16.0
15.481	17.0
15.496	18.0
15.51	15.0
15.525	12.0
15.54	13.0
15.555	14.0
15.57	14.0
15.585	12.0
15.6	17.0
15.614	15.0
15.629	11.0
15.644	11.0
15.659	15.0
15.674	12.0
15.689	15.0
15.704	17.0
15.718	10.0
15.733	14.0
15.748	5.0
15.763	16.0
15.778	11.0
15.793	10.0
15.808	19.0
15.822	18.0
15.837	10.0
15.852	13.0
15.867	12.0
15.882	10.0
15.897	14.0
15.911	10.0
15.926	15.0
15.941	8.0
15.956	17.0
15.971	15.0
15.986	11.0
16.0	9.0
16.015	16.0
16.03	14.0
16.045	17.0
16.06	14.0
16.074	11.0
16.089	17.0
16.104	15.0
16.119	10.0
16.134	10.0
16.149	14.0
16.163	12.0
16.178	9.0
16.193	10.0
16.208	14.0
16.223	10.0
16.237	7.0
16.252	13.0
16.267	14.0
16.282	12.0
16.297	13.0
16.311	14.0
16.326	12.0
16.341	12.0
16.356	19.0
16.37	10.0
16.385	14.0
16.4	18.0
16.415	15.0
16.43	20.0
16.444	10.0
16.459	20.0
16.474	12.0
16.489	11.0
16.504	20.0
16.518	15.0
16.533	11.0
16.548	24.0
16.563	19.0
16.577	22.0
16.592	17.0
16.607	19.0
16.622	17.0
16.637	19.0
16.651	24.0
16.666	11.0
16.681	18.0
16.696	28.0
16.71	28.0
16.725	33.0
16.74	29.0
16.755	19.0
16.77	33.0
16.784	39.0
16.799	55.0
16.814	36.0
16.829	41.0
16.843	48.0
16.858	45.0
16.873	65.0
16.888	63.0
16.902	65.0
16.917	57.0
16.932	67.0
16.947	81.0
16.961	76.0
16.976	69.0
16.991	68.0
17.006	73.0
17.021	57.0
17.035	52.0
17.05	43.0
17.065	51.0
17.08	39.0
17.094	38.0
17.109	34.0
17.124	23.0
17.139	23.0
17.153	36.0
17.168	18.0
17.183	13.0
17.198	18.0
17.212	18.0
17.227	17.0
17.242	21.0
17.257	20.0
17.271	14.0
17.286	16.0
17.301	22.0
17.316	15.0
17.33	11.0
17.345	16.0
17.36	14.0
17.375	9.0
17.39	10.0
17.404	10.0
17.419	9.0
17.434	12.0
17.449	8.0
17.463	14.0
17.478	9.0
17.493	10.0
17.508	8.0
17.522	18.0
17.537	16.0
17.552	9.0
17.567	21.0
17.581	9.0
17.596	14.0
17.611	14.0
17.626	14.0
17.641	13.0
17.655	14.0
17.67	10.0
17.685	10.0
17.7	13.0
17.714	10.0
17.729	19.0
17.744	10.0
17.759	21.0
17.773	13.0
17.788	19.0
17.803	10.0
17.818	16.0
17.833	13.0
17.847	8.0
17.862	9.0
17.877	9.0
17.892	9.0
17.906	8.0
17.921	9.0
17.936	12.0
17.951	9.0
17.966	19.0
17.98	4.0
17.995	7.0
18.01	18.0
18.025	8.0
18.04	5.0
18.054	10.0
18.069	17.0
18.084	16.0
18.099	11.0
18.114	7.0
18.128	15.0
18.143	20.0
18.158	12.0
18.173	10.0
18.188	13.0
18.202	12.0
18.217	10.0
18.232	18.0
18.247	10.0
18.262	9.0
18.276	16.0
18.291	10.0
18.306	13.0
18.321	9.0
18.336	13.0
18.35	10.0
18.365	14.0
18.38	10.0
18.395	12.0
18.41	15.0
18.424	9.0
18.439	8.0
18.454	14.0
18.469	4.0
18.484	16.0
18.498	11.0
18.513	15.0
18.528	12.0
18.543	10.0
18.558	7.0
18.573	13.0
18.587	13.0
18.602	7.0
18.617	9.0
18.632	11.0
18.647	7.0
18.661	8.0
18.676	8.0
18.691	10.0
18.706	10.0
18.721	17.0
18.736	15.0
18.75	15.0
18.765	19.0
18.78	17.0
18.795	17.0
18.81	8.0
18.825	17.0
18.839	8.0
18.854	5.0
18.869	13.0
18.884	12.0
18.899	10.0
18.913	10.0
18.928	11.0
18.943	11.0
18.958	9.0
18.973	11.0
18.988	15.0
19.002	7.0
19.017	9.0
19.032	17.0
19.047	11.0
19.062	7.0
19.077	5.0
19.091	8.0
19.106	15.0
19.121	11.0
19.136	12.0
19.151	9.0
19.165	16.0
19.18	12.0
19.195	13.0
19.21	12.0
19.225	11.0
19.24	5.0
19.254	11.0
19.269	8.0
19.284	16.0
19.299	7.0
19.314	9.0
19.329	16.0
19.343	15.0
19.358	22.0
19.373	17.0
19.388	15.0
19.403	16.0
19.417	10.0
19.432	22.0
19.447	21.0
19.462	16.0
19.477	27.0
19.492	20.0
19.506	30.0
19.521	25.0
19.536	28.0
19.551	33.0
19.566	42.0
19.58	39.0
19.595	37.0
19.61	40.0
19.625	37.0
19.64	31.0
19.655	37.0
19.669	40.0
19.684	38.0
19.699	32.0
19.714	27.0
19.729	21.0
19.743	30.0
19.758	23.0
19.773	22.0
19.788	18.0
19.803	19.0
19.817	11.0
19.832	17.0
19.847	13.0
19.862	15.0
19.877	15.0
19.891	12.0
19.906	19.0
19.921	17.0
19.936	13.0
19.951	14.0
19.965	16.0
19.98	14.0
19.995	12.0
20.01	14.0
20.025	12.0
20.039	16.0
20.054	10.0
20.069	10.0
20.084	15.0
20.099	14.0
20.113	11.0
20.128	9.0
20.143	9.0
20.158	9.0
20.173	11.0
20.187	8.0
20.202	12.0
20.217	4.0
20.232	11.0
20.246	11.0
20.261	10.0
20.276	11.0
20.291	10.0
20.306	12.0
20.32	10.0
20.335	10.0
20.35	6.0
20.365	12.0
20.38	12.0
20.394	13.0
20.409	16.0
20.424	10.0
20.439	10.0
20.453	8.0
20.468	12.0
20.483	6.0
20.498	12.0
20.513	11.0
20.527	11.0
20.542	8.0
20.557	12.0
20.572	6.0
20.586	13.0
20.601	9.0
20.616	7.0
20.631	9.0
20.646	9.0
20.66	12.0
20.675	9.0
20.69	7.0
20.705	10.0
20.719	10.0
20.734	17.0
20.749	6.0
20.764	11.0
20.779	6.0
20.793	12.0
20.808	12.0
20.823	11.0
20.838	7.0
20.853	10.0
20.867	12.0
20.882	10.0
20.897	12.0
20.912	12.0
20.926	12.0
20.941	13.0
20.956	10.0
20.971	12.0
20.986	12.0
21.0	12.0
21.015	9.0
21.03	13.0
21.045	8.0
21.06	4.0
21.074	7.0
21.089	4.0
21.104	13.0
21.119	12.0
21.134	8.0
21.148	17.0
21.163	11.0
21.178	21.0
21.193	13.0
21.208	9.0
21.222	12.0
21.237	10.0
21.252	10.0
21.267	12.0
21.282	14.0
21.296	11.0
21.311	8.0
21.326	10.0
21.341	14.0
21.356	16.0
21.37	10.0
21.385	6.0
21.4	11.0
21.415	9.0
21.43	18.0
21.444	12.0
21.459	6.0
21.474	8.0
21.489	19.0
21.504	10.0
21.519	13.0
21.533	11.0
21.548	17.0
21.563	12.0
21.578	12.0
21.593	17.0
21.608	20.0
21.622	16.0
21.637	12.0
21.652	15.0
21.667	14.0
21.682	19.0
21.697	18.0
21.712	21.0
21.726	21.0
21.741	21.0
21.756	33.0
21.771	30.0
21.786	34.0
21.801	34.0
21.816	40.0
21.83	43.0
21.845	37.0
21.86	58.0
21.875	54.0
21.89	68.0
21.905	55.0
21.92	74.0
21.935	71.0
21.949	77.0
21.964	65.0
21.979	78.0
21.994	58.0
22.009	65.0
22.024	56.0
22.039	48.0
22.054	52.0
22.069	53.0
22.083	43.0
22.098	50.0
22.113	29.0
22.128	24.0
22.143	28.0
22.158	16.0
22.173	21.0
22.188	25.0
22.203	24.0
22.218	15.0
22.233	10.0
22.248	15.0
22.262	14.0
22.277	16.0
22.292	9.0
22.307	8.0
22.322	15.0
22.337	10.0
22.352	15.0
22.367	10.0
22.382	10.0
22.397	15.0
22.412	13.0
22.427	12.0
22.442	10.0
22.457	12.0
22.472	7.0
22.487	11.0
22.502	13.0
22.516	6.0
22.531	13.0
22.546	7.0
22.561	19.0
22.576	13.0
22.591	17.0
22.606	10.0
22.621	7.0
22.636	8.0
22.651	13.0
22.666	10.0
22.681	12.0
22.696	18.0
22.711	12.0
22.726	11.0
22.741	18.0
22.756	11.0
22.771	7.0
22.786	18.0
22.801	15.0
22.816	13.0
22.831	12.0
22.846	12.0
22.861	11.0
22.876	13.0
22.891	13.0
22.906	8.0
22.92	4.0
22.935	9.0
22.95	9.0
22.965	5.0
22.98	9.0
22.995	10.0
23.01	13.0
23.025	20.0
23.04	14.0
23.055	11.0
23.07	11.0
23.085	9.0
23.1	10.0
23.115	5.0
23.13	9.0
23.145	3.0
23.16	8.0
23.175	10.0
23.19	7.0
23.205	10.0
23.22	2.0
23.235	11.0
23.25	5.0
23.265	8.0
23.28	9.0
23.295	13.0
23.31	9.0
23.325	8.0
23.34	7.0
23.355	11.0
23.37	11.0
23.384	11.0
23.399	15.0
23.414	18.0
23.429	13.0
23.444	8.0
23.459	14.0
23.474	12.0
23.489	6.0
23.504	11.0
23.519	8.0
23.534	14.0
23.549	13.0
23.564	8.0
23.579	13.0
23.594	12.0
23.609	8.0
23.624	7.0
23.639	12.0
23.654	7.0
23.668	10.0
23.683	12.0
23.698	10.0
23.713	14.0
23.728	9.0
23.743	9.0
23.758	12.0
23.773	11.0
23.788	15.0
23.803	12.0
23.818	13.0
23.833	11.0
23.848	10.0
23.862	18.0
23.877	19.0
23.892	18.0
23.907	19.0
23.922	18.0
23.937	22.0
23.952	24.0
23.967	24.0
23.982	37.0
23.997	22.0
24.011	44.0
24.026	46.0
24.041	46.0
24.056	51.0
24.071	46.0
24.086	49.0
24.101	52.0
24.116	56.0
24.131	50.0
24.145	42.0
24.16	24.0
24.175	33.0
24.19	32.0
24.205	34.0
24.22	38.0
24.235	27.0
24.249	27.0
24.264	24.0
24.279	25.0
24.294	20.0
24.309	26.0
24.324	23.0
24.338	24.0
24.353	9.0
24.368	16.0
24.383	17.0
24.398	15.0
24.413	14.0
24.428	13.0
24.442	13.0
24.457	12.0
24.472	15.0
24.487	12.0
24.502	10.0
24.516	5.0
24.531	11.0
24.546	8.0
24.561	14.0
24.576	7.0
24.591	14.0
24.605	12.0
24.62	12.0
24.635	11.0
24.65	14.0
24.665	14.0
24.679	10.0
24.694	10.0
24.709	11.0
24.724	7.0
24.739	11.0
24.753	9.0
24.768	11.0
24.783	10.0
24.798	14.0
24.813	7.0
24.827	12.0
24.842	8.0
24.857	5.0
24.872	6.0
24.886	15.0
24.901	5.0
24.916	14.0
24.931	11.0
24.946	16.0
24.96	10.0
24.975	4.0
24.99	20.0
25.005	14.0
25.019	17.0
25.034	9.0
25.049	14.0
25.064	16.0
25.078	6.0
25.093	9.0
25.108	17.0
25.123	9.0
25.138	11.0
25.152	13.0
25.167	8.0
25.182	4.0
25.197	5.0
25.211	7.0
25.226	12.0
25.241	13.0
25.256	9.0
25.27	11.0
25.285	7.0
25.3	10.0
25.315	9.0
25.329	9.0
25.344	9.0
25.359	10.0
25.374	7.0
25.388	9.0
25.403	13.0
25.418	11.0
25.433	13.0
25.447	16.0
25.462	13.0
25.477	10.0
25.492	7.0
25.506	14.0
25.521	11.0
25.536	8.0
25.55	7.0
25.565	12.0
25.58	6.0
25.595	6.0
25.609	15.0
25.624	6.0
25.639	10.0
25.654	7.0
25.668	9.0
25.683	4.0
25.698	8.0
25.713	10.0
25.727	10.0
25.742	8.0
25.757	8.0
25.772	8.0
25.786	4.0
25.801	15.0
25.816	18.0
25.83	10.0
25.845	7.0
25.86	6.0
25.875	15.0
25.889	6.0
25.904	9.0
25.919	11.0
25.934	6.0
25.948	10.0
25.963	10.0
25.978	10.0
25.992	10.0
26.007	9.0
26.022	5.0
26.037	8.0
26.051	8.0
26.066	6.0
26.081	11.0
26.096	3.0
26.11	3.0
26.125	4.0
26.14	17.0
26.155	10.0
26.169	7.0
26.184	11.0
26.199	6.0
26.213	8.0
26.228	5.0
26.243	10.0
26.258	10.0
26.272	13.0
26.287	18.0
26.302	7.0
26.317	9.0
26.331	8.0
26.346	10.0
26.361	9.0
26.376	10.0
26.39	9.0
26.405	6.0
26.42	5.0
26.434	9.0
26.449	9.0
26.464	6.0
26.479	10.0
26.493	9.0
26.508	8.0
26.523	9.0
26.538	8.0
26.552	10.0
26.567	11.0
26.582	7.0
26.597	7.0
26.611	8.0
26.626	17.0
26.641	11.0
26.656	10.0
26.67	6.0
26.685	10.0
26.7	5.0
26.715	11.0
26.729	8.0
26.744	9.0
26.759	8.0
26.773	4.0
26.788	3.0
26.803	7.0
26.818	11.0
26.832	17.0
26.847	5.0
26.862	7.0
26.877	7.0
26.891	12.0
26.906	8.0
26.921	15.0
26.936	13.0
26.95	8.0
26.965	9.0
26.98	15.0
26.995	7.0
27.01	8.0
27.024	7.0
27.039	6.0
27.054	4.0
27.069	5.0
27.083	7.0
27.098	12.0
27.113	11.0
27.128	10.0
27.142	5.0
27.157	14.0
27.172	6.0
27.187	8.0
27.201	10.0
27.216	10.0
27.231	7.0
27.246	8.0
27.261	12.0
27.275	11.0
27.29	4.0
27.305	8.0
27.32	15.0
27.334	8.0
27.349	9.0
27.364	14.0
27.379	6.0
27.394	14.0
27.408	8.0
27.423	8.0
27.438	9.0
27.453	12.0
27.467	15.0
27.482	4.0
27.497	7.0
27.512	12.0
27.527	14.0
27.541	14.0
27.556	4.0
27.571	6.0
27.586	16.0
27.601	14.0
27.615	7.0
27.63	11.0
27.645	11.0
27.66	15.0
27.675	8.0
27.689	12.0
27.704	18.0
27.719	14.0
27.734	7.0
27.749	16.0
27.763	24.0
27.778	21.0
27.793	23.0
27.808	18.0
27.823	20.0
27.838	22.0
27.852	15.0
27.867	22.0
27.882	18.0
27.897	17.0
27.912	24.0
27.926	17.0
27.941	16.0
27.956	18.0
27.971	21.0
27.986	11.0
28.001	21.0
28.015	20.0
28.03	21.0
28.045	21.0
28.06	19.0
28.075	13.0
28.09	15.0
28.105	11.0
28.119	16.0
28.134	10.0
28.149	16.0
28.164	8.0
28.179	11.0
28.194	13.0
28.208	12.0
28.223	9.0
28.238	8.0
28.253	10.0
28.268	9.0
28.283	7.0
28.298	11.0
28.312	8.0
28.327	13.0
28.342	12.0
28.357	11.0
28.372	13.0
28.387	15.0
28.402	13.0
28.417	4.0
28.431	12.0
28.446	14.0
28.461	16.0
28.476	8.0
28.491	8.0
28.506	10.0
28.521	4.0
28.536	6.0
28.55	11.0
28.565	10.0
28.58	7.0
28.595	14.0
28.61	15.0
28.625	12.0
28.64	9.0
28.655	8.0
28.669	12.0
28.684	7.0
28.699	10.0
28.714	9.0
28.729	11.0
28.744	8.0
28.759	10.0
28.774	10.0
28.788	10.0
28.803	10.0
28.818	10.0
28.833	9.0
28.848	13.0
28.863	6.0
28.878	10.0
28.893	6.0
28.908	8.0
28.922	13.0
28.937	11.0
28.952	8.0
28.967	9.0
28.982	13.0
28.997	10.0
29.012	10.0
29.027	10.0
29.041	8.0
29.056	9.0
29.071	5.0
29.086	12.0
29.101	10.0
29.116	7.0
29.131	8.0
29.146	5.0
29.16	12.0
29.175	7.0
29.19	10.0
29.205	9.0
29.22	12.0
29.235	9.0
29.25	10.0
29.265	9.0
29.279	11.0
29.294	14.0
29.309	12.0
29.324	16.0
29.339	10.0
29.354	16.0
29.369	8.0
29.384	11.0
29.398	17.0
29.413	9.0
29.428	14.0
29.443	16.0
29.458	16.0
29.473	18.0
29.488	26.0
29.502	36.0
29.517	35.0
29.532	38.0
29.547	39.0
29.562	48.0
29.577	40.0
29.592	49.0
29.606	46.0
29.621	44.0
29.636	54.0
29.651	63.0
29.666	35.0
29.681	47.0
29.695	38.0
29.71	43.0
29.725	32.0
29.74	36.0
29.755	41.0
29.77	35.0
29.784	27.0
29.799	30.0
29.814	23.0
29.829	31.0
29.844	15.0
29.859	18.0
29.873	11.0
29.888	14.0
29.903	12.0
29.918	11.0
29.933	24.0
29.947	8.0
29.962	10.0
29.977	13.0
29.992	8.0
30.007	15.0
30.021	14.0
30.036	10.0
30.051	12.0
30.066	13.0
30.081	14.0
30.095	15.0
30.11	10.0
30.125	9.0
30.14	11.0
30.155	8.0
30.169	16.0
30.184	9.0
30.199	11.0
30.214	14.0
30.228	8.0
30.243	5.0
30.258	10.0
30.273	8.0
30.288	13.0
30.302	12.0
30.317	10.0
30.332	8.0
30.347	22.0
30.361	11.0
30.376	10.0
30.391	12.0
30.406	11.0
30.42	12.0
30.435	7.0
30.45	15.0
30.465	9.0
30.479	11.0
30.494	9.0
30.509	10.0
30.524	14.0
30.538	7.0
30.553	4.0
30.568	8.0
30.583	8.0
30.597	7.0
30.612	7.0
30.627	14.0
30.641	15.0
30.656	17.0
30.671	8.0
30.686	15.0
30.7	11.0
30.715	15.0
30.73	10.0
30.745	8.0
30.759	12.0
30.774	19.0
30.789	12.0
30.803	10.0
30.818	11.0
30.833	7.0
30.848	18.0
30.862	9.0
30.877	13.0
30.892	12.0
30.906	8.0
30.921	6.0
30.936	7.0
30.951	11.0
30.965	10.0
30.98	11.0
30.995	13.0
31.009	12.0
31.024	10.0
31.039	11.0
31.053	10.0
31.068	18.0
31.083	13.0
31.098	18.0
31.112	13.0
31.127	18.0
31.142	23.0
31.156	20.0
31.171	24.0
31.186	28.0
31.2	34.0
31.215	36.0
31.23	34.0
31.245	25.0
31.259	32.0
31.274	39.0
31.289	36.0
31.303	34.0
31.318	35.0
31.333	23.0
31.347	28.0
31.362	34.0
31.377	21.0
31.392	25.0
31.406	18.0
31.421	17.0
31.436	27.0
31.45	22.0
31.465	36.0
31.48	20.0
31.494	25.0
31.509	16.0
31.524	15.0
31.538	14.0
31.553	13.0
31.568	16.0
31.583	13.0
31.597	12.0
31.612	15.0
31.627	13.0
31.641	13.0
31.656	12.0
31.671	10.0
31.685	8.0
31.7	10.0
31.715	9.0
31.729	11.0
31.744	8.0
31.759	10.0
31.774	12.0
31.788	15.0
31.803	8.0
31.818	10.0
31.832	13.0
31.847	11.0
31.862	11.0
31.876	8.0
31.891	9.0
31.906	10.0
31.92	12.0
31.935	9.0
31.95	6.0
31.965	11.0
31.979	6.0
31.994	11.0
32.009	9.0
32.023	10.0
32.038	8.0
32.053	10.0
32.067	12.0
32.082	7.0
32.097	12.0
32.112	12.0
32.126	8.0
32.141	11.0
32.156	11.0
32.17	6.0
32.185	13.0
32.2	8.0
32.214	10.0
32.229	7.0
32.244	9.0
32.259	7.0
32.273	10.0
32.288	10.0
32.303	11.0
32.317	9.0
32.332	14.0
32.347	9.0
32.362	7.0
32.376	5.0
32.391	9.0
32.406	7.0
32.42	13.0
32.435	12.0
32.45	6.0
32.465	12.0
32.479	10.0
32.494	9.0
32.509	13.0
32.523	16.0
32.538	13.0
32.553	10.0
32.568	8.0
32.582	11.0
32.597	9.0
32.612	7.0
32.627	15.0
32.641	13.0
32.656	12.0
32.671	13.0
32.685	14.0
32.7	12.0
32.715	20.0
32.73	23.0
32.744	17.0
32.759	26.0
32.774	28.0
32.788	28.0
32.803	26.0
32.818	31.0
32.833	23.0
32.847	32.0
32.862	22.0
32.877	34.0
32.892	29.0
32.906	29.0
32.921	15.0
32.936	21.0
32.951	16.0
32.965	13.0
32.98	22.0
32.995	23.0
33.009	19.0
33.024	21.0
33.039	16.0
33.054	23.0
33.068	19.0
33.083	21.0
33.098	4.0
33.113	14.0
33.127	7.0
33.142	13.0
33.157	8.0
33.172	11.0
33.186	4.0
33.201	7.0
33.216	9.0
33.231	10.0
33.245	8.0
33.26	10.0
33.275	11.0
33.29	13.0
33.304	11.0
33.319	18.0
33.334	6.0
33.349	7.0
33.363	7.0
33.378	9.0
33.393	11.0
33.408	9.0
33.422	11.0
33.437	9.0
33.452	6.0
33.467	8.0
33.481	12.0
33.496	12.0
33.511	9.0
33.526	6.0
33.54	7.0
33.555	6.0
33.57	6.0
33.585	9.0
33.599	7.0
33.614	16.0
33.629	11.0
33.644	4.0
33.658	8.0
33.673	5.0
33.688	5.0
33.703	8.0
33.718	12.0
33.732	8.0
33.747	10.0
33.762	6.0
33.777	7.0
33.791	10.0
33.806	7.0
33.821	10.0
33.836	8.0
33.85	7.0
33.865	4.0
33.88	7.0
33.895	8.0
33.91	6.0
33.924	6.0
33.939	9.0
33.954	7.0
33.969	8.0
33.983	10.0
33.998	9.0
34.013	5.0
34.028	11.0
34.042	9.0
34.057	9.0
34.072	6.0
34.087	13.0
34.102	8.0
34.116	12.0
34.131	11.0
34.146	17.0
34.161	8.0
34.175	14.0
34.19	9.0
34.205	15.0
34.22	22.0
34.235	9.0
34.249	13.0
34.264	13.0
34.279	16.0
34.294	16.0
34.309	7.0
34.323	12.0
34.338	10.0
34.353	12.0
34.368	13.0
34.382	7.0
34.397	10.0
34.412	13.0
34.427	15.0
34.442	14.0
34.456	16.0
34.471	12.0
34.486	15.0
34.501	10.0
34.516	11.0
34.53	16.0
34.545	11.0
34.56	12.0
34.575	9.0
34.59	8.0
34.604	11.0
34.619	13.0
34.634	6.0
34.649	5.0
34.664	8.0
34.678	9.0
34.693	7.0
34.708	7.0
34.723	6.0
34.738	11.0
34.752	7.0
34.767	9.0
34.782	9.0
34.797	8.0
34.812	11.0
34.826	14.0
34.841	12.0
34.856	10.0
34.871	6.0
34.886	12.0
34.9	7.0
34.915	9.0
34.93	6.0
34.945	10.0
34.96	4.0
34.974	4.0
34.989	10.0
35.004	7.0
35.019	7.0
35.034	4.0
35.048	6.0
35.063	10.0
35.078	9.0
35.093	12.0
35.108	13.0
35.122	5.0
35.137	9.0
35.152	7.0
35.167	6.0
35.182	10.0
35.196	10.0
35.211	5.0
35.226	8.0
35.241	12.0
35.256	10.0
35.27	4.0
35.285	8.0
35.3	10.0
35.315	7.0
35.33	4.0
35.344	12.0
35.359	9.0
35.374	6.0
35.389	7.0
35.404	10.0
35.418	11.0
35.433	6.0
35.448	9.0
35.463	11.0
35.478	11.0
35.493	7.0
35.507	15.0
35.522	12.0
35.537	8.0
35.552	11.0
35.567	10.0
35.581	14.0
35.596	9.0
35.611	10.0
35.626	10.0
35.641	6.0
35.655	15.0
35.67	12.0
35.685	13.0
35.7	14.0
35.715	14.0
35.729	10.0
35.744	16.0
35.759	17.0
35.774	15.0
35.789	22.0
35.804	15.0
35.818	19.0
35.833	16.0
35.848	18.0
35.863	23.0
35.878	14.0
35.892	18.0
35.907	10.0
35.922	22.0
35.937	12.0
35.952	13.0
35.966	17.0
35.981	10.0
35.996	5.0
36.011	8.0
36.026	9.0
36.04	11.0
36.055	11.0
36.07	11.0
36.085	14.0
36.1	13.0
36.114	12.0
36.129	9.0
36.144	11.0
36.159	9.0
36.174	8.0
36.189	13.0
36.203	8.0
36.218	6.0
36.233	10.0
36.248	2.0
36.263	12.0
36.277	7.0
36.292	6.0
36.307	6.0
36.322	4.0
36.337	6.0
36.351	9.0
36.366	7.0
36.381	14.0
36.396	10.0
36.411	4.0
36.426	7.0
36.44	6.0
36.455	4.0
36.47	10.0
36.485	10.0
36.5	5.0
36.514	8.0
36.529	6.0
36.544	13.0
36.559	3.0
36.574	13.0
36.589	5.0
36.603	10.0
36.618	8.0
36.633	6.0
36.648	10.0
36.663	8.0
36.677	7.0
36.692	5.0
36.707	9.0
36.722	10.0
36.737	9.0
36.752	4.0
36.766	6.0
36.781	7.0
36.796	10.0
36.811	13.0
36.826	7.0
36.841	6.0
36.855	10.0
36.87	5.0
36.885	8.0
36.9	9.0
36.915	10.0
36.93	11.0
36.944	5.0
36.959	8.0
36.974	6.0
36.989	8.0
37.004	8.0
37.019	11.0
37.033	13.0
37.048	17.0
37.063	10.0
37.078	13.0
37.093	24.0
37.108	19.0
37.123	32.0
37.137	22.0
37.152	29.0
37.167	25.0
37.182	19.0
37.197	31.0
37.212	23.0
37.226	28.0
37.241	32.0
37.256	17.0
37.271	22.0
37.286	22.0
37.301	20.0
37.316	20.0
37.331	15.0
37.345	15.0
37.36	17.0
37.375	17.0
37.39	19.0
37.405	20.0
37.42	26.0
37.435	27.0
37.45	11.0
37.464	16.0
37.479	12.0
37.494	14.0
37.509	10.0
37.524	10.0
37.539	10.0
37.554	10.0
37.569	7.0
37.583	6.0
37.598	8.0
37.613	8.0
37.628	7.0
37.643	7.0
37.658	6.0
37.673	6.0
37.688	7.0
37.703	11.0
37.718	3.0
37.733	6.0
37.747	7.0
37.762	6.0
37.777	5.0
37.792	5.0
37.807	15.0
37.822	12.0
37.837	8.0
37.852	8.0
37.867	9.0
37.882	9.0
37.897	4.0
37.912	5.0
37.927	12.0
37.941	8.0
37.956	6.0
37.971	6.0
37.986	4.0
38.001	8.0
38.016	11.0
38.031	5.0
38.046	6.0
38.061	12.0
38.076	6.0
38.091	6.0
38.106	9.0
38.121	10.0
38.136	8.0
38.151	4.0
38.166	8.0
38.181	8.0
38.196	9.0
38.211	5.0
38.226	4.0
38.241	4.0
38.256	4.0
38.271	5.0
38.285	5.0
38.3	7.0
38.315	4.0
38.33	7.0
38.345	4.0
38.36	7.0
38.375	6.0
38.39	10.0
38.405	7.0
38.42	6.0
38.435	8.0
38.45	9.0
38.465	2.0
38.48	5.0
38.495	3.0
38.51	8.0
38.525	8.0
38.54	8.0
38.555	6.0
38.57	3.0
38.585	2.0
38.6	6.0
38.615	6.0
38.63	5.0
38.645	11.0
38.66	11.0
38.675	10.0
38.69	7.0
38.705	5.0
38.72	8.0
38.735	9.0
38.75	7.0
38.765	7.0
38.78	3.0
38.795	10.0
38.81	4.0
38.825	7.0
38.84	3.0
38.855	8.0
38.87	6.0
38.885	3.0
38.9	9.0
38.915	5.0
38.93	1.0
38.945	7.0
38.96	5.0
38.975	11.0
38.99	5.0
39.005	3.0
39.02	3.0
39.035	5.0
39.05	2.0
39.065	9.0
39.08	10.0
39.095	6.0
39.11	3.0
39.125	8.0
39.14	5.0
39.155	4.0
39.17	8.0
39.185	5.0
39.2	7.0
39.215	5.0
39.23	11.0
39.245	7.0
39.26	5.0
39.275	9.0
39.29	4.0
39.305	4.0
39.32	9.0
39.335	8.0
39.35	3.0
39.365	8.0
39.38	4.0
39.395	8.0
39.409	9.0
39.424	5.0
39.439	5.0
39.454	8.0
39.469	4.0
39.484	5.0
39.499	7.0
39.514	4.0
39.529	4.0
39.544	3.0
39.559	9.0
39.574	6.0
39.589	5.0
39.604	5.0
39.619	4.0
39.634	4.0
39.649	3.0
39.664	3.0
39.678	7.0
39.693	7.0
39.708	7.0
39.723	3.0
39.738	5.0
39.753	4.0
39.768	5.0
39.783	9.0
39.798	5.0
39.813	6.0
39.827	10.0
39.842	9.0
39.857	12.0
39.872	6.0
39.887	7.0
39.902	13.0
39.917	15.0
39.932	11.0
39.947	4.0
39.961	14.0
39.976	4.0
39.991	7.0
40.006	9.0
40.021	2.0
40.036	7.0
40.051	4.0
40.065	9.0
40.08	7.0
40.095	7.0
40.11	7.0
40.125	8.0
40.14	5.0
40.154	5.0
40.169	5.0
40.184	4.0
40.199	5.0
40.214	4.0
40.228	11.0
40.243	6.0
40.258	4.0
40.273	6.0
40.288	8.0
40.302	7.0
40.317	5.0
40.332	8.0
40.347	8.0
40.362	4.0
40.376	6.0
40.391	11.0
40.406	3.0
40.421	4.0
40.436	9.0
40.45	5.0
40.465	5.0
40.48	4.0
40.495	2.0
40.509	3.0
40.524	4.0
40.539	5.0
40.554	5.0
40.568	3.0
40.583	7.0
40.598	6.0
40.613	9.0
40.627	8.0
40.642	9.0
40.657	5.0
40.672	2.0
40.686	6.0
40.701	5.0
40.716	3.0
40.731	6.0
40.745	8.0
40.76	9.0
40.775	7.0
40.79	5.0
40.804	6.0
40.819	6.0
40.834	2.0
40.849	3.0
40.863	6.0
40.878	8.0
40.893	5.0
40.907	5.0
40.922	1.0
40.937	8.0
40.952	8.0
40.966	9.0
40.981	9.0
40.996	12.0
41.011	9.0
41.025	10.0
41.04	11.0
41.055	18.0
41.069	17.0
41.084	15.0
41.099	22.0
41.114	12.0
41.128	23.0
41.143	16.0
41.158	15.0
41.173	19.0
41.187	18.0
41.202	14.0
41.217	21.0
41.231	12.0
41.246	13.0
41.261	9.0
41.276	5.0
41.29	12.0
41.305	7.0
41.32	9.0
41.335	10.0
41.349	10.0
41.364	12.0
41.379	13.0
41.393	17.0
41.408	9.0
41.423	14.0
41.438	7.0
41.452	11.0
41.467	11.0
41.482	9.0
41.497	5.0
41.511	5.0
41.526	9.0
41.541	9.0
41.556	9.0
41.57	10.0
41.585	8.0
41.6	2.0
41.615	9.0
41.629	6.0
41.644	3.0
41.659	7.0
41.674	4.0
41.688	9.0
41.703	7.0
41.718	6.0
41.733	10.0
41.747	6.0
41.762	4.0
41.777	6.0
41.792	3.0
41.806	7.0
41.821	6.0
41.836	7.0
41.851	7.0
41.866	8.0
41.88	4.0
41.895	2.0
41.91	5.0
41.925	8.0
41.939	2.0
41.954	6.0
41.969	10.0
41.984	5.0
41.999	9.0
42.013	7.0
42.028	1.0
42.043	4.0
42.058	12.0
42.073	4.0
42.088	5.0
42.102	5.0
42.117	5.0
42.132	8.0
42.147	1.0
42.162	10.0
42.176	6.0
42.191	7.0
42.206	10.0
42.221	11.0
42.236	10.0
42.251	5.0
42.266	4.0
42.28	6.0
42.295	17.0
42.31	11.0
42.325	10.0
42.34	14.0
42.355	16.0
42.369	10.0
42.384	19.0
42.399	14.0
42.414	19.0
42.429	11.0
42.444	20.0
42.459	13.0
42.474	14.0
42.488	15.0
42.503	11.0
42.518	9.0
42.533	6.0
42.548	10.0
42.563	6.0
42.578	8.0
42.593	11.0
42.608	8.0
42.622	15.0
42.637	13.0
42.652	12.0
42.667	16.0
42.682	9.0
42.697	10.0
42.712	5.0
42.727	11.0
42.742	10.0
42.757	10.0
42.772	10.0
42.786	6.0
42.801	10.0
42.816	8.0
42.831	11.0
42.846	8.0
42.861	5.0
42.876	5.0
42.891	2.0
42.906	8.0
42.921	5.0
42.936	7.0
42.951	6.0
42.966	7.0
42.981	4.0
42.996	7.0
43.011	3.0
43.025	2.0
43.04	4.0
43.055	7.0
43.07	4.0
43.085	4.0
43.1	1.0
43.115	4.0
43.13	8.0
43.145	2.0
43.16	6.0
43.175	3.0
43.19	2.0
43.205	15.0
43.22	1.0
43.235	9.0
43.25	3.0
43.265	5.0
43.28	7.0
43.295	4.0
43.31	6.0
43.325	3.0
43.34	3.0
43.355	4.0
43.37	4.0
43.385	9.0
43.4	2.0
43.415	6.0
43.43	8.0
43.445	7.0
43.46	5.0
43.475	8.0
43.49	8.0
43.505	5.0
43.52	4.0
43.535	11.0
43.55	7.0
43.565	6.0
43.58	4.0
43.595	8.0
43.61	8.0
43.625	7.0
43.64	10.0
43.655	5.0
43.67	12.0
43.685	8.0
43.7	8.0
43.715	9.0
43.73	5.0
43.745	14.0
43.76	7.0
43.775	11.0
43.79	8.0
43.805	13.0
43.82	8.0
43.835	9.0
43.85	7.0
43.865	3.0
43.88	8.0
43.895	8.0
43.91	4.0
43.925	5.0
43.94	4.0
43.955	9.0
43.97	7.0
43.985	5.0
44.0	3.0
44.015	5.0
44.03	10.0
44.045	4.0
44.061	8.0
44.076	5.0
44.091	7.0
44.106	5.0
44.121	5.0
44.136	3.0
44.151	5.0
44.166	3.0
44.181	6.0
44.196	2.0
44.211	4.0
44.226	7.0
44.241	8.0
44.256	3.0
44.271	8.0
44.286	4.0
44.301	3.0
44.316	9.0
44.331	5.0
44.346	1.0
44.361	3.0
44.377	2.0
44.392	2.0
44.407	4.0
44.422	3.0
44.437	2.0
44.452	7.0
44.467	6.0
44.482	3.0
44.497	9.0
44.512	6.0
44.527	1.0
44.542	2.0
44.557	3.0
44.572	11.0
44.587	4.0
44.602	3.0
44.617	6.0
44.632	4.0
44.647	5.0
44.663	8.0
44.678	5.0
44.693	3.0
44.708	7.0
44.723	4.0
44.738	12.0
44.753	7.0
44.768	5.0
44.783	10.0
44.798	14.0
44.813	17.0
44.828	10.0
44.843	13.0
44.858	7.0
44.873	9.0
44.888	6.0
44.903	14.0
44.918	7.0
44.933	5.0
44.948	3.0
44.964	4.0
44.979	5.0
44.994	11.0
45.009	6.0
45.024	11.0
45.039	8.0
45.054	8.0
45.069	9.0
45.084	11.0
45.099	11.0
45.114	6.0
45.129	6.0
45.144	5.0
45.159	9.0
45.174	6.0
45.189	7.0
45.204	5.0
45.219	9.0
45.234	4.0
45.249	7.0
45.264	2.0
45.279	6.0
45.294	4.0
45.309	4.0
45.324	7.0
45.339	7.0
45.354	6.0
45.369	3.0
45.384	4.0
45.399	3.0
45.414	4.0
45.429	3.0
45.444	6.0
45.459	4.0
45.474	5.0
45.489	3.0
45.504	2.0
45.519	8.0
45.534	8.0
45.549	8.0
45.564	3.0
45.579	5.0
45.594	5.0
45.609	8.0
45.624	7.0
45.639	3.0
45.654	5.0
45.669	1.0
45.684	4.0
45.699	5.0
45.714	6.0
45.729	6.0
45.744	7.0
45.759	2.0
45.774	2.0
45.789	8.0
45.804	5.0
45.819	4.0
45.834	10.0
45.849	10.0
45.864	5.0
45.879	9.0
45.894	7.0
45.909	10.0
45.924	14.0
45.939	14.0
45.954	21.0
45.969	20.0
45.984	22.0
45.998	7.0
46.013	14.0
46.028	13.0
46.043	11.0
46.058	13.0
46.073	10.0
46.088	5.0
46.103	10.0
46.118	17.0
46.133	9.0
46.148	9.0
46.163	5.0
46.178	6.0
46.192	10.0
46.207	8.0
46.222	10.0
46.237	9.0
46.252	13.0
46.267	5.0
46.282	13.0
46.297	6.0
46.312	12.0
46.327	9.0
46.341	6.0
46.356	4.0
46.371	7.0
46.386	5.0
46.401	5.0
46.416	3.0
46.431	3.0
46.446	4.0
46.46	11.0
46.475	2.0
46.49	6.0
46.505	7.0
46.52	7.0
46.535	6.0
46.55	7.0
46.564	4.0
46.579	7.0
46.594	6.0
46.609	5.0
46.624	5.0
46.639	7.0
46.654	6.0
46.668	3.0
46.683	7.0
46.698	3.0
46.713	8.0
46.728	2.0
46.743	7.0
46.758	4.0
46.772	2.0
46.787	4.0
46.802	6.0
46.817	5.0
46.832	4.0
46.847	5.0
46.861	5.0
46.876	6.0
46.891	4.0
46.906	8.0
46.921	8.0
46.936	5.0
46.95	2.0
46.965	5.0
46.98	9.0
46.995	2.0
47.01	4.0
47.025	2.0
47.039	4.0
47.054	8.0
47.069	8.0
47.084	9.0
47.099	11.0
47.113	9.0
47.128	15.0
47.143	8.0
47.158	7.0
47.173	16.0
47.188	4.0
47.202	4.0
47.217	5.0
47.232	6.0
47.247	4.0
47.262	2.0
47.277	5.0
47.291	7.0
47.306	10.0
47.321	5.0
47.336	6.0
47.351	6.0
47.365	5.0
47.38	10.0
47.395	3.0
47.41	7.0
47.425	8.0
47.44	8.0
47.454	4.0
47.469	2.0
47.484	2.0
47.499	4.0
47.514	3.0
47.528	7.0
47.543	11.0
47.558	4.0
47.573	7.0
47.588	2.0
47.603	2.0
47.617	4.0
47.632	5.0
47.647	3.0
47.662	5.0
47.677	4.0
47.691	5.0
47.706	8.0
47.721	2.0
47.736	2.0
47.751	4.0
47.766	1.0
47.78	5.0
47.795	2.0
47.81	2.0
47.825	7.0
47.84	6.0
47.855	9.0
47.869	5.0
47.884	2.0
47.899	3.0
47.914	4.0
47.929	7.0
47.944	7.0
47.958	3.0
47.973	2.0
47.988	6.0
48.003	8.0
48.018	3.0
48.033	4.0
48.047	6.0
48.062	8.0
48.077	7.0
48.092	2.0
48.107	0.0
48.122	9.0
48.137	5.0
48.151	2.0
48.166	3.0
48.181	3.0
48.196	2.0
48.211	1.0
48.226	2.0
48.241	5.0
48.255	3.0
48.27	2.0
48.285	7.0
48.3	7.0
48.315	7.0
48.33	6.0
48.345	4.0
48.359	4.0
48.374	9.0
48.389	5.0
48.404	6.0
48.419	5.0
48.434	4.0
48.449	5.0
48.464	5.0
48.478	4.0
48.493	6.0
48.508	7.0
48.523	2.0
48.538	4.0
48.553	7.0
48.568	6.0
48.583	4.0
48.597	6.0
48.612	6.0
48.627	4.0
48.642	1.0
48.657	9.0
48.672	3.0
48.687	10.0
48.702	5.0
48.717	3.0
48.731	2.0
48.746	4.0
48.761	3.0
48.776	5.0
48.791	4.0
48.806	3.0
48.821	6.0
48.836	4.0
48.851	2.0
48.866	5.0
48.88	6.0
48.895	6.0
48.91	2.0
48.925	4.0
48.94	6.0
48.955	4.0
48.97	1.0
48.985	2.0
49.0	7.0
49.015	4.0
49.03	3.0
49.044	3.0
49.059	7.0
49.074	4.0
49.089	1.0
49.104	2.0
49.119	6.0
49.134	6.0
49.149	4.0
49.164	5.0
49.179	2.0
49.194	2.0
49.209	3.0
49.224	2.0
49.238	2.0
49.253	7.0
49.268	3.0
49.283	7.0
49.298	7.0
49.313	4.0
49.328	6.0
49.343	3.0
49.358	15.0
49.373	5.0
49.388	4.0
49.403	5.0
49.418	5.0
49.433	11.0
49.448	3.0
49.463	2.0
49.478	7.0
49.492	3.0
49.507	8.0
49.522	6.0
49.537	3.0
49.552	4.0
49.567	1.0
49.582	7.0
49.597	3.0
49.612	7.0
49.627	7.0
49.642	4.0
49.657	6.0
49.672	7.0
49.687	4.0
49.702	10.0
49.717	7.0
49.732	11.0
49.747	5.0
49.762	4.0
49.777	9.0
49.792	6.0
49.807	4.0
49.822	5.0
49.837	5.0
49.852	4.0
49.867	8.0
49.882	4.0
49.897	8.0
49.912	7.0
49.927	4.0
49.942	5.0
49.957	4.0
49.971	6.0
49.986	3.0
50.001	6.0
50.016	4.0
50.031	3.0
50.046	5.0
50.061	4.0
50.076	3.0
50.091	6.0
50.106	2.0
50.121	6.0
50.136	6.0
50.151	5.0
50.166	6.0
50.181	2.0
50.196	5.0
50.211	2.0
50.226	1.0
50.241	8.0
50.256	11.0
50.271	5.0
50.286	5.0
50.302	3.0
50.317	3.0
50.332	5.0
50.347	6.0
50.362	3.0
50.377	8.0
50.392	8.0
50.407	7.0
50.422	7.0
50.437	5.0
50.452	10.0
50.467	4.0
50.482	13.0
50.497	5.0
50.512	5.0
50.527	10.0
50.542	7.0
50.557	5.0
50.572	1.0
50.587	7.0
50.602	5.0
50.617	5.0
50.632	8.0
50.647	3.0
50.662	3.0
50.677	5.0
50.692	3.0
50.707	5.0
50.722	6.0
50.737	5.0
50.752	5.0
50.767	5.0
50.782	9.0
50.797	8.0
50.812	4.0
50.828	6.0
50.843	2.0
50.858	4.0
50.873	9.0
50.888	4.0
50.903	6.0
50.918	3.0
50.933	3.0
50.948	2.0
50.963	7.0
50.978	1.0
50.993	5.0
51.008	4.0
51.023	8.0
51.038	10.0
51.053	8.0
51.068	1.0
51.083	4.0
51.098	0.0
51.114	3.0
51.129	4.0
51.144	5.0
51.159	4.0
51.174	6.0
51.189	6.0
51.204	7.0
51.219	5.0
51.234	4.0
51.249	4.0
51.264	2.0
51.279	3.0
51.294	8.0
51.309	5.0
51.324	1.0
51.34	9.0
51.355	2.0
51.37	6.0
51.385	9.0
51.4	3.0
51.415	5.0
51.43	10.0
51.445	9.0
51.46	11.0
51.475	8.0
51.49	15.0
51.505	12.0
51.52	14.0
51.535	17.0
51.551	12.0
51.566	16.0
51.581	18.0
51.596	6.0
51.611	4.0
51.626	10.0
51.641	7.0
51.656	6.0
51.671	7.0
51.686	6.0
51.701	9.0
51.716	10.0
51.732	7.0
51.747	6.0
51.762	12.0
51.777	10.0
51.792	10.0
51.807	13.0
51.822	5.0
51.837	10.0
51.852	7.0
51.867	5.0
51.882	15.0
51.898	9.0
51.913	14.0
51.928	7.0
51.943	6.0
51.958	5.0
51.973	2.0
51.988	6.0
52.003	6.0
52.018	2.0
52.033	7.0
52.048	5.0
52.064	5.0
52.079	3.0
52.094	2.0
52.109	5.0
52.124	7.0
52.139	1.0
52.154	6.0
52.169	3.0
52.184	7.0
52.199	2.0
52.215	5.0
52.23	8.0
52.245	6.0
52.26	3.0
52.275	6.0
52.29	5.0
52.305	3.0
52.32	5.0
52.335	5.0
52.35	4.0
52.366	5.0
52.381	2.0
52.396	3.0
52.411	7.0
52.426	4.0
52.441	4.0
52.456	5.0
52.471	5.0
52.486	6.0
52.502	9.0
52.517	3.0
52.532	4.0
52.547	6.0
52.562	4.0
52.577	7.0
52.592	11.0
52.607	14.0
52.622	16.0
52.637	5.0
52.653	11.0
52.668	2.0
52.683	5.0
52.698	5.0
52.713	5.0
52.728	6.0
52.743	10.0
52.758	3.0
52.774	4.0
52.789	6.0
52.804	7.0
52.819	3.0
52.834	5.0
52.849	10.0
52.864	9.0
52.879	8.0
52.894	8.0
52.91	1.0
52.925	7.0
52.94	10.0
52.955	5.0
52.97	7.0
52.985	4.0
53.0	5.0
53.015	2.0
53.031	3.0
53.046	5.0
53.061	3.0
53.076	3.0
53.091	3.0
53.106	9.0
53.121	4.0
53.136	3.0
53.152	4.0
53.167	2.0
53.182	2.0
53.197	5.0
53.212	2.0
53.227	5.0
53.242	8.0
53.257	5.0
53.273	5.0
53.288	4.0
53.303	8.0
53.318	5.0
53.333	3.0
53.348	4.0
53.363	4.0
53.379	10.0
53.394	5.0
53.409	3.0
53.424	4.0
53.439	7.0
53.454	9.0
53.469	8.0
53.484	3.0
53.5	5.0
53.515	3.0
53.53	10.0
53.545	5.0
53.56	3.0
53.575	3.0
53.59	3.0
53.606	8.0
53.621	1.0
53.636	1.0
53.651	6.0
53.666	8.0
53.681	6.0
53.696	5.0
53.712	6.0
53.727	6.0
53.742	6.0
53.757	6.0
53.772	2.0
53.787	4.0
53.802	2.0
53.818	4.0
53.833	2.0
53.848	5.0
53.863	0.0
53.878	10.0
53.893	6.0
53.909	6.0
53.924	6.0
53.939	3.0
53.954	6.0
53.969	5.0
53.984	3.0
53.999	1.0
54.015	3.0
54.03	2.0
54.045	6.0
54.06	7.0
54.075	2.0
54.09	6.0
54.106	1.0
54.121	6.0
54.136	9.0
54.151	6.0
54.166	4.0
54.181	5.0
54.197	5.0
54.212	6.0
54.227	1.0
54.242	4.0
54.257	5.0
54.272	3.0
54.288	8.0
54.303	2.0
54.318	2.0
54.333	7.0
54.348	5.0
54.363	2.0
54.379	5.0
54.394	3.0
54.409	4.0
54.424	2.0
54.439	4.0
54.454	5.0
54.47	9.0
54.485	4.0
54.5	4.0
54.515	7.0
54.53	12.0
54.545	8.0
54.561	8.0
54.576	13.0
54.591	12.0
54.606	9.0
54.621	10.0
54.636	7.0
54.652	7.0
54.667	7.0
54.682	12.0
54.697	17.0
54.712	6.0
54.727	5.0
54.743	6.0
54.758	9.0
54.773	4.0
54.788	4.0
54.803	4.0
54.819	3.0
54.834	5.0
54.849	7.0
54.864	5.0
54.879	5.0
54.894	2.0
54.91	5.0
54.925	8.0
54.94	5.0
54.955	7.0
54.97	5.0
54.985	11.0
55.001	10.0
55.016	6.0
55.031	10.0
55.046	10.0
55.061	8.0
55.077	10.0
55.092	8.0
55.107	7.0
55.122	8.0
55.137	5.0
55.152	2.0
55.168	6.0
55.183	4.0
55.198	9.0
55.213	3.0
55.228	4.0
55.243	3.0
55.259	4.0
55.274	9.0
55.289	4.0
55.304	4.0
55.319	5.0
55.335	6.0
55.35	5.0
55.365	5.0
55.38	6.0
55.395	5.0
55.41	6.0
55.426	4.0
55.441	2.0
55.456	3.0
55.471	2.0
55.486	8.0
55.501	6.0
55.517	4.0
55.532	1.0
55.547	8.0
55.562	4.0
55.577	8.0
55.592	8.0
55.608	6.0
55.623	6.0
55.638	8.0
55.653	8.0
55.668	12.0
55.683	5.0
55.699	3.0
55.714	5.0
55.729	6.0
55.744	6.0
55.759	5.0
55.774	6.0
55.79	6.0
55.805	0.0
55.82	5.0
55.835	7.0
55.85	3.0
55.865	2.0
55.881	6.0
55.896	7.0
55.911	2.0
55.926	1.0
55.941	5.0
55.956	6.0
55.972	8.0
55.987	0.0
56.002	5.0
56.017	2.0
56.032	4.0
56.047	1.0
56.063	9.0
56.078	7.0
56.093	7.0
56.108	5.0
56.123	4.0
56.138	7.0
56.154	3.0
56.169	8.0
56.184	2.0
56.199	6.0
56.214	4.0
56.229	3.0
56.244	1.0
56.26	3.0
56.275	4.0
56.29	3.0
56.305	8.0
56.32	7.0
56.335	2.0
56.351	4.0
56.366	7.0
56.381	2.0
56.396	8.0
56.411	5.0
56.426	5.0
56.441	1.0
56.457	3.0
56.472	5.0
56.487	4.0
56.502	6.0
56.517	6.0
56.532	6.0
56.547	2.0
56.563	4.0
56.578	3.0
56.593	6.0
56.608	1.0
56.623	2.0
56.638	4.0
56.653	5.0
56.668	2.0
56.684	1.0
56.699	6.0
56.714	3.0
56.729	5.0
56.744	6.0
56.759	4.0
56.774	4.0
56.79	3.0
56.805	3.0
56.82	3.0
56.835	4.0
56.85	3.0
56.865	3.0
56.88	3.0
56.895	3.0
56.911	8.0
56.926	1.0
56.941	6.0
56.956	2.0
56.971	4.0
56.986	4.0
57.001	2.0
57.016	1.0
57.031	4.0
57.047	4.0
57.062	6.0
57.077	5.0
57.092	3.0
57.107	6.0
57.122	5.0
57.137	4.0
57.152	4.0
57.167	6.0
57.183	6.0
57.198	4.0
57.213	9.0
57.228	6.0
57.243	3.0
57.258	4.0
57.273	3.0
57.288	1.0
57.303	4.0
57.318	4.0
57.334	6.0
57.349	4.0
57.364	4.0
57.379	6.0
57.394	7.0
57.409	7.0
57.424	5.0
57.439	3.0
57.454	5.0
57.469	3.0
57.484	3.0
57.5	4.0
57.515	8.0
57.53	2.0
57.545	5.0
57.56	3.0
57.575	3.0
57.59	3.0
57.605	5.0
57.62	3.0
57.635	4.0
57.65	5.0
57.665	5.0
57.68	5.0
57.696	6.0
57.711	5.0
57.726	5.0
57.741	5.0
57.756	6.0
57.771	5.0
57.786	6.0
57.801	5.0
57.816	2.0
57.831	5.0
57.846	5.0
57.861	4.0
57.876	5.0
57.891	3.0
57.906	4.0
57.921	4.0
57.937	1.0
57.952	7.0
57.967	3.0
57.982	3.0
57.997	2.0
58.012	8.0
58.027	5.0
58.042	9.0
58.057	5.0
58.072	3.0
58.087	4.0
58.102	4.0
58.117	1.0
58.132	6.0
58.147	7.0
58.162	3.0
58.177	4.0
58.192	3.0
58.207	4.0
58.222	4.0
58.237	3.0
58.252	3.0
58.267	2.0
58.282	5.0
58.297	5.0
58.312	5.0
58.327	3.0
58.342	5.0
58.357	6.0
58.372	3.0
58.387	2.0
58.402	4.0
58.418	5.0
58.433	3.0
58.448	11.0
58.463	1.0
58.478	6.0
58.493	5.0
58.508	10.0
58.523	6.0
58.538	6.0
58.553	4.0
58.568	5.0
58.583	9.0
58.598	6.0
58.613	8.0
58.628	3.0
58.643	5.0
58.658	9.0
58.673	8.0
58.688	5.0
58.703	12.0
58.718	8.0
58.733	3.0
58.748	5.0
58.763	8.0
58.778	6.0
58.793	5.0
58.808	6.0
58.823	6.0
58.838	2.0
58.853	3.0
58.868	4.0
58.883	3.0
58.898	7.0
58.913	6.0
58.928	3.0
58.942	4.0
58.957	7.0
58.972	6.0
58.987	11.0
59.002	7.0
59.017	9.0
59.032	4.0
59.047	10.0
59.062	4.0
59.077	6.0
59.092	6.0
59.107	4.0
59.122	3.0
59.137	6.0
59.152	3.0
59.167	2.0
59.182	5.0
59.197	4.0
59.212	3.0
59.227	4.0
59.242	5.0
59.257	4.0
59.272	1.0
59.287	7.0
59.302	1.0
59.317	2.0
59.332	4.0
59.347	8.0
59.362	1.0
59.377	3.0
59.392	2.0
59.407	5.0
59.422	4.0
59.437	5.0
59.452	5.0
59.467	7.0
59.482	10.0
59.497	5.0
59.512	8.0
59.527	3.0
59.542	3.0
59.557	4.0
59.572	10.0
59.587	9.0
59.602	8.0
59.617	10.0
59.632	8.0
59.647	6.0
59.661	10.0
59.676	8.0
59.691	7.0
59.706	2.0
59.721	11.0
59.736	10.0
59.751	5.0
59.766	8.0
59.781	7.0
59.796	7.0
59.811	0.0
59.826	9.0
59.841	3.0
59.856	6.0
59.871	4.0
59.886	6.0
59.901	5.0
59.916	3.0
59.931	4.0
59.946	8.0
59.961	2.0
59.976	7.0
59.991	10.0
60.006	5.0
60.021	4.0
60.036	4.0
60.051	14.0
60.066	8.0
60.081	5.0
60.096	5.0
60.111	8.0
60.126	4.0
60.141	1.0
60.156	4.0
60.171	4.0
60.186	5.0
60.201	5.0
60.216	3.0
60.231	4.0
60.246	2.0
60.261	3.0
60.276	2.0
60.291	7.0
60.306	1.0
60.321	4.0
60.336	4.0
60.35	0.0
60.365	5.0
60.38	5.0
60.395	7.0
60.41	4.0
60.425	1.0
60.44	1.0
60.455	4.0
60.47	5.0
60.485	5.0
60.5	7.0
60.515	6.0
60.53	4.0
60.545	3.0
60.56	6.0
60.575	9.0
60.59	3.0
60.605	6.0
60.62	10.0
60.635	7.0
60.65	9.0
60.665	5.0
60.68	3.0
60.695	7.0
60.71	5.0
60.725	3.0
60.74	4.0
60.755	6.0
60.77	7.0
60.785	8.0
60.8	5.0
60.815	5.0
60.83	1.0
60.845	7.0
60.86	4.0
60.875	6.0
60.89	3.0
60.905	5.0
60.92	6.0
60.935	4.0
60.95	7.0
60.965	5.0
60.98	6.0
60.995	3.0
61.01	7.0
61.025	6.0
61.04	6.0
61.055	6.0
61.07	4.0
61.085	3.0
61.1	3.0
61.115	2.0
61.13	5.0
61.145	1.0
61.16	2.0
61.175	4.0
61.191	3.0
61.206	3.0
61.221	8.0
61.236	4.0
61.251	2.0
61.266	4.0
61.281	8.0
61.296	4.0
61.311	6.0
61.326	3.0
61.341	5.0
61.356	5.0
61.371	2.0
61.386	2.0
61.401	5.0
61.416	6.0
61.431	3.0
61.446	4.0
61.461	3.0
61.476	6.0
61.491	2.0
61.506	7.0
61.521	12.0
61.536	9.0
61.551	11.0
61.566	8.0
61.581	7.0
61.596	3.0
61.611	7.0
61.626	6.0
61.641	3.0
61.656	5.0
61.672	1.0
61.687	2.0
61.702	5.0
61.717	3.0
61.732	4.0
61.747	3.0
61.762	1.0
61.777	6.0
61.792	8.0
61.807	2.0
61.822	3.0
61.837	8.0
61.852	5.0
61.867	3.0
61.882	2.0
61.897	3.0
61.912	2.0
61.927	2.0
61.943	2.0
61.958	7.0
61.973	8.0
61.988	7.0
62.003	3.0
62.018	4.0
62.033	3.0
62.048	5.0
62.063	7.0
62.078	2.0
62.093	5.0
62.108	1.0
62.123	0.0
62.138	2.0
62.153	5.0
62.169	4.0
62.184	3.0
62.199	6.0
62.214	3.0
62.229	3.0
62.244	5.0
62.259	4.0
62.274	6.0
62.289	3.0
62.304	1.0
62.319	2.0
62.335	1.0
62.35	6.0
62.365	5.0
62.38	5.0
62.395	6.0
62.41	4.0
62.425	4.0
62.44	3.0
62.455	4.0
62.47	7.0
62.485	3.0
62.501	5.0
62.516	3.0
62.531	7.0
62.546	6.0
62.561	3.0
62.576	5.0
62.591	1.0
62.606	3.0
62.621	6.0
62.636	3.0
62.652	3.0
62.667	6.0
62.682	3.0
62.697	5.0
62.712	1.0
62.727	1.0
62.742	3.0
62.757	4.0
62.772	2.0
62.787	6.0
62.803	4.0
62.818	2.0
62.833	4.0
62.848	6.0
62.863	3.0
62.878	2.0
62.893	2.0
62.908	3.0
62.923	4.0
62.939	4.0
62.954	6.0
62.969	4.0
62.984	4.0
62.999	2.0
63.014	1.0
63.029	3.0
63.044	4.0
63.059	7.0
63.074	5.0
63.09	5.0
63.105	4.0
63.12	6.0
63.135	6.0
63.15	5.0
63.165	4.0
63.18	6.0
63.195	3.0
63.21	3.0
63.226	2.0
63.241	1.0
63.256	4.0
63.271	5.0
63.286	8.0
63.301	6.0
63.316	7.0
63.331	3.0
63.346	5.0
63.362	10.0
63.377	5.0
63.392	5.0
63.407	2.0
63.422	9.0
63.437	11.0
63.452	7.0
63.467	3.0
63.482	3.0
63.497	4.0
63.513	5.0
63.528	1.0
63.543	3.0
63.558	4.0
63.573	1.0
63.588	4.0
63.603	3.0
63.618	4.0
63.633	3.0
63.648	5.0
63.664	7.0
63.679	5.0
63.694	8.0
63.709	6.0
63.724	4.0
63.739	5.0
63.754	2.0
63.769	5.0
63.784	7.0
63.799	5.0
63.814	4.0
63.83	2.0
63.845	7.0
63.86	8.0
63.875	7.0
63.89	3.0
63.905	6.0
63.92	5.0
63.935	2.0
63.95	7.0
63.965	3.0
63.98	2.0
63.996	4.0
64.011	5.0
64.026	5.0
64.041	6.0
64.056	4.0
64.071	5.0
64.086	2.0
64.101	5.0
64.116	6.0
64.131	2.0
64.146	2.0
64.161	2.0
64.176	3.0
64.191	3.0
64.207	5.0
64.222	8.0
64.237	5.0
64.252	6.0
64.267	5.0
64.282	2.0
64.297	2.0
64.312	0.0
64.327	1.0
64.342	5.0
64.357	8.0
64.372	1.0
64.387	4.0
64.402	5.0
64.417	2.0
64.433	5.0
64.448	2.0
64.463	1.0
64.478	5.0
64.493	2.0
64.508	6.0
64.523	3.0
64.538	2.0
64.553	3.0
64.568	2.0
64.583	2.0
64.598	5.0
64.613	3.0
64.628	4.0
64.643	3.0
64.658	1.0
64.673	1.0
64.688	3.0
64.703	5.0
64.718	3.0
64.734	5.0
64.749	2.0
64.764	2.0
64.779	5.0
64.794	2.0
64.809	2.0
64.824	5.0
64.839	3.0
64.854	2.0
64.869	2.0
64.884	2.0
64.899	1.0
64.914	2.0
64.929	2.0
64.944	4.0
64.959	7.0
64.974	9.0
64.989	3.0
65.004	4.0
65.019	1.0
65.034	7.0
65.049	4.0
65.064	4.0
65.079	4.0
65.094	4.0
65.109	4.0
65.125	4.0
65.14	3.0
65.155	3.0
65.17	4.0
65.185	8.0
65.2	2.0
65.215	5.0
65.23	4.0
65.245	6.0
65.26	4.0
65.275	4.0
65.29	10.0
65.305	5.0
65.32	1.0
65.335	6.0
65.35	2.0
65.365	4.0
65.38	6.0
65.395	6.0
65.41	4.0
65.425	1.0
65.44	9.0
65.455	1.0
65.47	5.0
65.485	3.0
65.5	3.0
65.515	6.0
65.53	5.0
65.545	4.0
65.56	4.0
65.575	2.0
65.59	2.0
65.605	6.0
65.62	3.0
65.635	3.0
65.65	8.0
65.666	6.0
65.681	2.0
65.696	3.0
65.711	4.0
65.726	2.0
65.741	2.0
65.756	2.0
65.771	4.0
65.786	7.0
65.801	3.0
65.816	2.0
65.831	5.0
65.846	0.0
65.861	7.0
65.876	3.0
65.891	3.0
65.906	1.0
65.921	4.0
65.936	5.0
65.951	4.0
65.966	4.0
65.981	5.0
65.996	3.0
66.011	3.0
66.026	3.0
66.041	2.0
66.056	6.0
66.071	5.0
66.086	5.0
66.101	3.0
66.116	5.0
66.131	7.0
66.146	8.0
66.161	8.0
66.176	11.0
66.191	3.0
66.206	11.0
66.221	20.0
66.236	5.0
66.251	9.0
66.266	8.0
66.281	6.0
66.296	5.0
66.311	4.0
66.327	7.0
66.342	3.0
66.357	3.0
66.372	0.0
66.387	2.0
66.402	6.0
66.417	4.0
66.432	3.0
66.447	2.0
66.462	4.0
66.477	4.0
66.492	4.0
66.507	4.0
66.522	4.0
66.537	2.0
66.552	5.0
66.567	2.0
66.582	1.0
66.597	4.0
66.612	12.0
66.627	8.0
66.642	6.0
66.657	8.0
66.672	3.0
66.687	9.0
66.702	4.0
66.717	9.0
66.732	4.0
66.747	3.0
66.762	5.0
66.777	3.0
66.792	3.0
66.807	3.0
66.822	4.0
66.837	6.0
66.853	6.0
66.868	5.0
66.883	3.0
66.898	2.0
66.913	1.0
66.928	1.0
66.943	1.0
66.958	4.0
66.973	4.0
66.988	7.0
67.003	4.0
67.018	0.0
67.033	1.0
67.048	4.0
67.063	5.0
67.078	1.0
67.093	5.0
67.108	4.0
67.123	5.0
67.138	7.0
67.153	2.0
67.168	5.0
67.183	4.0
67.198	2.0
67.214	1.0
67.229	3.0
67.244	2.0
67.259	3.0
67.274	5.0
67.289	2.0
67.304	1.0
67.319	1.0
67.334	5.0
67.349	4.0
67.364	4.0
67.379	5.0
67.394	4.0
67.409	4.0
67.424	1.0
67.439	3.0
67.454	3.0
67.469	7.0
67.484	5.0
67.5	0.0
67.515	8.0
67.53	3.0
67.545	6.0
67.56	4.0
67.575	5.0
67.59	3.0
67.605	3.0
67.62	5.0
67.635	6.0
67.65	2.0
67.665	1.0
67.68	3.0
67.695	2.0
67.71	6.0
67.726	3.0
67.741	3.0
67.756	4.0
67.771	6.0
67.786	3.0
67.801	1.0
67.816	2.0
67.831	4.0
67.846	1.0
67.861	3.0
67.876	1.0
67.891	6.0
67.906	4.0
67.922	5.0
67.937	5.0
67.952	1.0
67.967	2.0
67.982	4.0
67.997	4.0
68.012	8.0
68.027	4.0
68.042	5.0
68.057	3.0
68.072	6.0
68.087	6.0
68.103	4.0
68.118	6.0
68.133	1.0
68.148	3.0
68.163	2.0
68.178	1.0
68.193	4.0
68.208	2.0
68.223	2.0
68.238	0.0
68.254	3.0
68.269	6.0
68.284	8.0
68.299	3.0
68.314	0.0
68.329	3.0
68.344	4.0
68.359	1.0
68.374	4.0
68.389	4.0
68.405	6.0
68.42	5.0
68.435	1.0
68.45	3.0
68.465	3.0
68.48	3.0
68.495	3.0
68.51	2.0
68.525	2.0
68.54	4.0
68.556	3.0
68.571	0.0
68.586	3.0
68.601	5.0
68.616	2.0
68.631	1.0
68.646	3.0
68.661	2.0
68.676	3.0
68.691	2.0
68.707	4.0
68.722	4.0
68.737	4.0
68.752	3.0
68.767	9.0
68.782	2.0
68.797	6.0
68.812	2.0
68.827	2.0
68.842	6.0
68.857	3.0
68.873	4.0
68.888	7.0
68.903	2.0
68.918	3.0
68.933	4.0
68.948	2.0
68.963	4.0
68.978	2.0
68.993	3.0
69.008	6.0
69.023	0.0
69.038	7.0
69.054	2.0
69.069	4.0
69.084	2.0
69.099	5.0
69.114	6.0
69.129	2.0
69.144	4.0
69.159	3.0
69.174	8.0
69.189	2.0
69.204	5.0
69.219	2.0
69.234	4.0
69.249	6.0
69.264	4.0
69.279	1.0
69.295	3.0
69.31	5.0
69.325	1.0
69.34	5.0
69.355	7.0
69.37	1.0
69.385	3.0
69.4	1.0
69.415	6.0
69.43	2.0
69.445	4.0
69.46	6.0
69.475	1.0
69.49	4.0
69.505	1.0
69.52	2.0
69.535	3.0
69.55	2.0
69.565	7.0
69.58	6.0
69.595	3.0
69.61	8.0
69.625	3.0
69.64	2.0
69.655	7.0
69.67	1.0
69.685	5.0
69.7	2.0
69.715	6.0
69.73	6.0
69.745	4.0
69.76	7.0
69.775	6.0
69.79	8.0
69.805	4.0
69.82	0.0
69.835	4.0
69.85	4.0
69.865	5.0
69.88	4.0
69.895	7.0
69.909	4.0
69.924	3.0
69.939	4.0
69.954	4.0
69.969	3.0
69.984	4.0
69.999	4.0
70.014	2.0
70.029	3.0
70.044	4.0
70.059	1.0
70.074	4.0
70.088	2.0
70.103	5.0
70.118	5.0
70.133	5.0
70.148	4.0
70.163	4.0
70.178	2.0
70.193	3.0
70.208	5.0
70.222	5.0
70.237	4.0
70.252	5.0
70.267	6.0
70.282	3.0
70.297	4.0
70.312	7.0
70.327	4.0
70.341	5.0
70.356	3.0
70.371	3.0
70.386	2.0
70.401	5.0
70.416	3.0
70.43	6.0
70.445	4.0
70.46	1.0
70.475	2.0
70.49	3.0
70.505	6.0
70.519	4.0
70.534	4.0
70.549	3.0
70.564	10.0
70.579	4.0
70.594	5.0
70.608	8.0
70.623	4.0
70.638	3.0
70.653	4.0
70.668	7.0
70.683	6.0
70.697	5.0
70.712	4.0
70.727	2.0
70.742	3.0
70.757	4.0
70.771	6.0
70.786	7.0
70.801	2.0
70.816	5.0
70.831	3.0
70.845	2.0
70.86	2.0
70.875	3.0
70.89	1.0
70.905	4.0
70.92	3.0
70.934	1.0
70.949	3.0
70.964	0.0
70.979	6.0
70.994	2.0
71.008	3.0
71.023	0.0
71.038	4.0
71.053	1.0
71.068	5.0
71.082	6.0
71.097	6.0
71.112	6.0
71.127	2.0
71.142	3.0
71.156	3.0
71.171	3.0
71.186	1.0
71.201	4.0
71.216	6.0
71.231	4.0
71.245	3.0
71.26	6.0
71.275	3.0
71.29	2.0
71.305	1.0
71.319	2.0
71.334	2.0
71.349	4.0
71.364	4.0
71.379	3.0
71.394	1.0
71.408	1.0
71.423	6.0
71.438	5.0
71.453	2.0
71.468	2.0
71.483	4.0
71.497	5.0
71.512	1.0
71.527	1.0
71.542	5.0
71.557	4.0
71.572	3.0
71.586	4.0
71.601	4.0
71.616	3.0
71.631	5.0
71.646	5.0
71.661	8.0
71.676	3.0
71.69	5.0
71.705	9.0
71.72	2.0
71.735	4.0
71.75	5.0
71.765	0.0
71.78	0.0
71.795	2.0
71.81	5.0
71.824	1.0
71.839	2.0
71.854	4.0
71.869	5.0
71.884	3.0
71.899	0.0
71.914	3.0
71.929	3.0
71.944	6.0
71.959	1.0
71.974	4.0
71.988	5.0
72.003	2.0
72.018	5.0
72.033	3.0
72.048	1.0
72.063	3.0
72.078	2.0
72.093	2.0
72.108	1.0
72.123	2.0
72.138	3.0
72.153	6.0
72.168	4.0
72.183	6.0
72.198	3.0
72.213	2.0
72.228	7.0
72.243	2.0
72.258	4.0
72.273	4.0
72.288	5.0
72.303	2.0
72.318	2.0
72.333	7.0
72.348	3.0
72.363	3.0
72.378	6.0
72.393	3.0
72.408	3.0
72.423	7.0
72.438	3.0
72.453	4.0
72.468	3.0
72.483	3.0
72.498	6.0
72.513	6.0
72.528	6.0
72.543	2.0
72.558	1.0
72.573	4.0
72.588	1.0
72.603	4.0
72.618	2.0
72.633	2.0
72.649	2.0
72.664	3.0
72.679	3.0
72.694	3.0
72.709	1.0
72.724	1.0
72.739	4.0
72.754	5.0
72.769	2.0
72.784	2.0
72.799	6.0
72.814	3.0
72.829	1.0
72.845	3.0
72.86	4.0
72.875	7.0
72.89	2.0
72.905	1.0
72.92	4.0
72.935	2.0
72.95	5.0
72.965	2.0
72.98	5.0
72.996	4.0
73.011	3.0
73.026	5.0
73.041	4.0
73.056	1.0
73.071	4.0
73.086	2.0
73.101	4.0
73.117	1.0
73.132	2.0
73.147	3.0
73.162	2.0
73.177	3.0
73.192	3.0
73.207	3.0
73.222	6.0
73.238	5.0
73.253	5.0
73.268	2.0
73.283	5.0
73.298	5.0
73.313	1.0
73.328	2.0
73.343	7.0
73.359	2.0
73.374	3.0
73.389	4.0
73.404	4.0
73.419	4.0
73.434	0.0
73.449	6.0
73.465	2.0
73.48	1.0
73.495	6.0
73.51	5.0
73.525	3.0
73.54	3.0
73.556	2.0
73.571	2.0
73.586	3.0
73.601	5.0
73.616	4.0
73.631	6.0
73.646	5.0
73.662	5.0
73.677	1.0
73.692	1.0
73.707	6.0
73.722	8.0
73.737	6.0
73.752	5.0
73.768	2.0
73.783	2.0
73.798	2.0
73.813	4.0
73.828	4.0
73.843	3.0
73.859	3.0
73.874	2.0
73.889	6.0
73.904	2.0
73.919	1.0
73.934	3.0
73.949	3.0
73.965	1.0
73.98	7.0
73.995	1.0
74.01	3.0
74.025	2.0
74.04	5.0
74.056	4.0
74.071	4.0
74.086	5.0
74.101	3.0
74.116	7.0
74.131	6.0
74.146	6.0
74.162	2.0
74.177	3.0
74.192	4.0
74.207	5.0
74.222	5.0
74.237	8.0
74.252	6.0
74.268	2.0
74.283	6.0
74.298	2.0
74.313	7.0
74.328	4.0
74.343	3.0
74.358	2.0
74.374	5.0
74.389	4.0
74.404	2.0
74.419	1.0
74.434	1.0
74.449	3.0
74.464	6.0
74.48	4.0
74.495	1.0
74.51	1.0
74.525	5.0
74.54	2.0
74.555	3.0
74.57	1.0
74.586	2.0
74.601	3.0
74.616	5.0
74.631	4.0
74.646	6.0
74.661	6.0
74.676	3.0
74.691	3.0
74.707	4.0
74.722	1.0
74.737	4.0
74.752	4.0
74.767	2.0
74.782	1.0
74.797	6.0
74.813	3.0
74.828	5.0
74.843	4.0
74.858	4.0
74.873	6.0
74.888	6.0
74.903	2.0
74.918	5.0
74.934	6.0
74.949	6.0
74.964	7.0
74.979	4.0
74.994	3.0
75.009	6.0
75.024	5.0
75.04	6.0
75.055	2.0
75.07	3.0
75.085	4.0
75.1	6.0
75.115	7.0
75.13	7.0
75.145	4.0
75.161	2.0
75.176	5.0
75.191	3.0
75.206	6.0
75.221	4.0
75.236	3.0
75.251	5.0
75.266	3.0
75.282	1.0
75.297	3.0
75.312	1.0
75.327	3.0
75.342	2.0
75.357	4.0
75.372	0.0
75.387	1.0
75.403	1.0
75.418	4.0
75.433	4.0
75.448	2.0
75.463	0.0
75.478	5.0
75.493	3.0
75.509	1.0
75.524	2.0
75.539	6.0
75.554	2.0
75.569	7.0
75.584	4.0
75.599	7.0
75.614	2.0
75.63	2.0
75.645	7.0
75.66	4.0
75.675	6.0
75.69	4.0
75.705	5.0
75.72	3.0
75.735	3.0
75.751	4.0
75.766	3.0
75.781	3.0
75.796	4.0
75.811	2.0
75.826	2.0
75.841	2.0
75.856	3.0
75.872	6.0
75.887	1.0
75.902	9.0
75.917	4.0
75.932	5.0
75.947	7.0
75.962	4.0
75.977	4.0
75.993	3.0
76.008	2.0
76.023	3.0
76.038	5.0
76.053	3.0
76.068	3.0
76.083	6.0
76.098	1.0
76.114	2.0
76.129	4.0
76.144	3.0
76.159	3.0
76.174	4.0
76.189	2.0
76.204	5.0
76.22	2.0
76.235	2.0
76.25	4.0
76.265	8.0
76.28	4.0
76.295	2.0
76.31	1.0
76.325	7.0
76.341	6.0
76.356	4.0
76.371	2.0
76.386	1.0
76.401	2.0
76.416	8.0
76.431	1.0
76.446	2.0
76.462	3.0
76.477	1.0
76.492	6.0
76.507	1.0
76.522	0.0
76.537	3.0
76.552	4.0
76.567	4.0
76.583	1.0
76.598	2.0
76.613	2.0
76.628	0.0
76.643	2.0
76.658	2.0
76.673	3.0
76.688	5.0
76.704	5.0
76.719	5.0
76.734	1.0
76.749	5.0
76.764	3.0
76.779	4.0
76.794	6.0
76.809	4.0
76.824	3.0
76.84	9.0
76.855	4.0
76.87	5.0
76.885	3.0
76.9	3.0
76.915	0.0
76.93	3.0
76.945	4.0
76.96	4.0
76.976	4.0
76.991	4.0
77.006	2.0
77.021	2.0
77.036	2.0
77.051	5.0
77.066	3.0
77.081	5.0
77.096	5.0
77.112	1.0
77.127	3.0
77.142	3.0
77.157	2.0
77.172	4.0
77.187	3.0
77.202	2.0
77.217	2.0
77.232	3.0
77.247	4.0
77.263	1.0
77.278	4.0
77.293	2.0
77.308	6.0
77.323	6.0
77.338	5.0
77.353	3.0
77.368	7.0
77.383	2.0
77.398	3.0
77.413	2.0
77.428	1.0
77.444	2.0
77.459	4.0
77.474	4.0
77.489	1.0
77.504	4.0
77.519	3.0
77.534	1.0
77.549	2.0
77.564	3.0
77.579	2.0
77.594	3.0
77.609	9.0
77.624	3.0
77.64	9.0
77.655	6.0
77.67	4.0
77.685	4.0
77.7	2.0
77.715	7.0
77.73	7.0
77.745	3.0
77.76	5.0
77.775	6.0
77.79	3.0
77.805	1.0
77.82	5.0
77.835	4.0
77.85	4.0
77.865	1.0
77.88	6.0
77.895	3.0
77.91	2.0
77.926	1.0
77.941	2.0
77.956	2.0
77.971	2.0
77.986	4.0
78.001	3.0
78.016	4.0
78.031	2.0
78.046	2.0
78.061	4.0
78.076	2.0
78.091	3.0
78.106	5.0
78.121	3.0
78.136	6.0
78.151	2.0
78.166	0.0
78.181	4.0
78.196	8.0
78.211	3.0
78.226	3.0
78.241	1.0
78.256	4.0
78.271	3.0
78.286	2.0
78.301	3.0
78.316	1.0
78.331	9.0
78.346	3.0
78.361	1.0
78.376	2.0
78.391	4.0
78.406	4.0
78.421	2.0
78.436	4.0
78.451	3.0
78.466	2.0
78.481	3.0
78.496	1.0
78.511	2.0
78.526	4.0
78.541	3.0
78.556	6.0
78.571	2.0
78.586	2.0
78.601	2.0
78.616	4.0
78.631	2.0
78.646	4.0
78.661	2.0
78.676	3.0
78.691	3.0
78.706	4.0
78.721	2.0
78.736	1.0
78.751	3.0
78.766	5.0
78.781	2.0
78.796	2.0
78.811	0.0
78.826	2.0
78.841	2.0
78.856	2.0
78.871	1.0
78.885	3.0
78.9	3.0
78.915	1.0
78.93	3.0
78.945	1.0
78.96	2.0
78.975	3.0
78.99	1.0
79.005	1.0
79.02	3.0
79.035	1.0
79.05	2.0
79.065	4.0
79.08	2.0
79.095	6.0
79.11	2.0
79.125	1.0
79.14	3.0
79.155	5.0
79.17	2.0
79.185	4.0
79.2	2.0
79.215	3.0
79.23	3.0
79.245	4.0
79.26	1.0
79.275	3.0
79.29	5.0
79.304	6.0
79.319	5.0
79.334	0.0
79.349	5.0
79.364	4.0
79.379	3.0
79.394	3.0
79.409	2.0
79.424	3.0
79.439	2.0
79.454	4.0
79.469	2.0
79.484	5.0
79.499	1.0
79.514	5.0
79.529	6.0
79.544	8.0
79.559	2.0
79.574	1.0
79.589	4.0
79.604	2.0
79.619	1.0
79.634	2.0
79.649	4.0
79.664	1.0
79.679	2.0
79.693	4.0
79.708	2.0
79.723	2.0
79.738	0.0
79.753	2.0
79.768	4.0
79.783	4.0
79.798	3.0
79.813	2.0
79.828	2.0
79.843	4.0
79.858	6.0
79.873	2.0
79.888	5.0
79.903	3.0
79.918	2.0
79.933	4.0
79.948	1.0
79.963	3.0
79.978	4.0
79.993	7.0
80.008	4.0
80.023	3.0
80.038	5.0
80.053	2.0
80.068	4.0
80.083	1.0
80.098	4.0
80.113	2.0
80.128	6.0
80.143	3.0
80.158	5.0
80.173	5.0
80.188	7.0
80.202	5.0
80.217	7.0
80.232	2.0
80.247	1.0
80.262	2.0
80.277	3.0
80.292	5.0
80.307	4.0
80.322	0.0
80.337	1.0
80.352	2.0
80.367	0.0
80.382	4.0
80.397	2.0
80.412	0.0
80.427	0.0
80.442	4.0
80.457	1.0
80.472	3.0
80.487	4.0
80.502	0.0
80.517	1.0
80.532	2.0
80.547	3.0
80.562	3.0
80.577	1.0
80.592	2.0
80.607	1.0
80.622	4.0
80.637	2.0
80.652	6.0
80.667	1.0
80.682	1.0
80.697	3.0
80.712	2.0
80.727	9.0
80.742	4.0
80.757	3.0
80.772	3.0
80.787	2.0
80.802	2.0
80.817	3.0
80.832	4.0
80.847	3.0
80.862	2.0
80.877	6.0
80.892	1.0
80.907	1.0
80.922	2.0
80.937	5.0
80.952	1.0
80.967	3.0
80.982	3.0
80.997	6.0
81.012	1.0
81.027	3.0
81.042	1.0
81.057	3.0
81.072	3.0
81.087	2.0
81.101	3.0
81.116	4.0
81.131	1.0
81.146	2.0
81.161	2.0
81.176	1.0
81.191	2.0
81.206	5.0
81.221	3.0
81.236	1.0
81.251	2.0
81.266	5.0
81.281	4.0
81.296	1.0
81.311	3.0
81.326	1.0
81.341	0.0
81.356	2.0
81.371	4.0
81.386	0.0
81.401	4.0
81.416	2.0
81.431	3.0
81.446	1.0
81.461	2.0
81.476	1.0
81.491	3.0
81.506	6.0
81.521	3.0
81.536	3.0
81.55	3.0
81.565	2.0
81.58	6.0
81.595	2.0
81.61	1.0
81.625	2.0
81.64	5.0
81.655	2.0
81.67	4.0
81.685	4.0
81.7	2.0
81.715	7.0
81.73	1.0
81.745	2.0
81.76	3.0
81.775	2.0
81.79	4.0
81.805	3.0
81.819	3.0
81.834	9.0
81.849	4.0
81.864	3.0
81.879	3.0
81.894	5.0
81.909	3.0
81.924	4.0
81.939	4.0
81.954	6.0
81.969	2.0
81.984	1.0
81.999	2.0
82.013	5.0
82.028	3.0
82.043	3.0
82.058	2.0
82.073	6.0
82.088	0.0
82.103	1.0
82.118	2.0
82.133	2.0
82.148	2.0
82.163	3.0
82.177	5.0
82.192	5.0
82.207	2.0
82.222	3.0
82.237	6.0
82.252	2.0
82.267	2.0
82.282	1.0
82.297	3.0
82.312	3.0
82.326	2.0
82.341	4.0
82.356	3.0
82.371	1.0
82.386	5.0
82.401	3.0
82.416	6.0
82.431	5.0
82.445	3.0
82.46	3.0
82.475	3.0
82.49	4.0
82.505	4.0
82.52	1.0
82.535	1.0
82.55	3.0
82.565	4.0
82.579	4.0
82.594	3.0
82.609	3.0
82.624	3.0
82.639	3.0
82.654	3.0
82.669	9.0
82.684	3.0
82.698	3.0
82.713	2.0
82.728	3.0
82.743	0.0
82.758	0.0
82.773	3.0
82.788	7.0
82.803	3.0
82.817	1.0
82.832	2.0
82.847	1.0
82.862	3.0
82.877	6.0
82.892	4.0
82.907	3.0
82.922	2.0
82.937	3.0
82.951	2.0
82.966	6.0
82.981	2.0
82.996	1.0
83.011	3.0
83.026	5.0
83.041	1.0
83.056	2.0
83.07	6.0
83.085	4.0
83.1	2.0
83.115	8.0
83.13	1.0
83.145	4.0
83.16	2.0
83.175	0.0
83.19	3.0
83.204	4.0
83.219	1.0
83.234	0.0
83.249	4.0
83.264	1.0
83.279	3.0
83.294	2.0
83.309	4.0
83.324	6.0
83.339	1.0
83.353	2.0
83.368	3.0
83.383	2.0
83.398	3.0
83.413	3.0
83.428	4.0
83.443	6.0
83.458	3.0
83.473	2.0
83.488	2.0
83.503	3.0
83.517	4.0
83.532	2.0
83.547	1.0
83.562	3.0
83.577	3.0
83.592	3.0
83.607	6.0
83.622	5.0
83.637	1.0
83.652	4.0
83.667	5.0
83.682	4.0
83.697	3.0
83.712	3.0
83.727	2.0
83.741	0.0
83.756	1.0
83.771	0.0
83.786	3.0
83.801	2.0
83.816	2.0
83.831	2.0
83.846	2.0
83.861	1.0
83.876	4.0
83.891	4.0
83.906	2.0
83.921	3.0
83.936	2.0
83.951	4.0
83.966	4.0
83.981	1.0
83.996	2.0
84.011	2.0
84.026	2.0
84.041	1.0
84.056	2.0
84.071	4.0
84.086	1.0
84.101	8.0
84.116	4.0
84.131	3.0
84.146	2.0
84.161	2.0
84.176	3.0
84.191	7.0
84.206	3.0
84.221	7.0
84.236	4.0
84.251	1.0
84.266	4.0
84.281	5.0
84.296	9.0
84.311	2.0
84.326	1.0
84.341	5.0
84.356	4.0
84.371	5.0
84.386	1.0
84.401	3.0
84.416	9.0
84.431	4.0
84.446	4.0
84.461	4.0
84.476	5.0
84.492	3.0
84.507	1.0
84.522	5.0
84.537	3.0
84.552	1.0
84.567	5.0
84.582	5.0
84.597	3.0
84.612	1.0
84.627	2.0
84.642	1.0
84.657	5.0
84.672	1.0
84.687	1.0
84.702	3.0
84.717	4.0
84.733	4.0
84.748	4.0
84.763	1.0
84.778	2.0
84.793	4.0
84.808	6.0
84.823	5.0
84.838	5.0
84.853	3.0
84.868	4.0
84.883	2.0
84.898	3.0
84.913	1.0
84.929	2.0
84.944	2.0
84.959	6.0
84.974	3.0
84.989	2.0
85.004	2.0
85.019	7.0
85.034	2.0
85.049	4.0
85.064	2.0
85.079	2.0
85.094	5.0
85.11	3.0
85.125	3.0
85.14	5.0
85.155	2.0
85.17	3.0
85.185	2.0
85.2	5.0
85.215	3.0
85.23	3.0
85.245	1.0
85.26	1.0
85.276	4.0
85.291	5.0
85.306	3.0
85.321	6.0
85.336	5.0
85.351	2.0
85.366	4.0
85.381	1.0
85.396	2.0
85.411	2.0
85.426	3.0
85.441	3.0
85.457	2.0
85.472	2.0
85.487	5.0
85.502	4.0
85.517	3.0
85.532	3.0
85.547	2.0
85.562	1.0
85.577	1.0
85.592	3.0
85.607	1.0
85.622	6.0
85.637	2.0
85.653	5.0
85.668	2.0
85.683	5.0
85.698	5.0
85.713	4.0
85.728	2.0
85.743	4.0
85.758	3.0
85.773	3.0
85.788	1.0
85.803	5.0
85.818	2.0
85.833	2.0
85.848	4.0
85.863	4.0
85.879	3.0
85.894	5.0
85.909	4.0
85.924	5.0
85.939	4.0
85.954	4.0
85.969	1.0
85.984	5.0
85.999	4.0
86.014	4.0
86.029	2.0
86.044	0.0
86.059	2.0
86.074	4.0
86.089	2.0
86.104	3.0
86.119	3.0
86.134	2.0
86.149	2.0
86.164	4.0
86.179	3.0
86.194	1.0
86.209	4.0
86.224	3.0
86.239	2.0
86.254	4.0
86.269	4.0
86.284	4.0
86.299	2.0
86.314	6.0
86.33	3.0
86.345	4.0
86.36	3.0
86.375	2.0
86.39	2.0
86.405	3.0
86.42	3.0
86.435	1.0
86.45	2.0
86.465	3.0
86.48	7.0
86.495	4.0
86.51	1.0
86.525	1.0
86.54	5.0
86.555	2.0
86.57	0.0
86.585	3.0
86.6	4.0
86.615	4.0
86.63	5.0
86.645	6.0
86.659	2.0
86.674	8.0
86.689	3.0
86.704	3.0
86.719	2.0
86.734	4.0
86.749	3.0
86.764	4.0
86.779	4.0
86.794	1.0
86.809	3.0
86.824	4.0
86.839	1.0
86.854	5.0
86.869	4.0
86.884	4.0
86.899	2.0
86.914	4.0
86.929	3.0
86.944	2.0
86.959	4.0
86.974	4.0
86.989	3.0
87.004	10.0
87.019	4.0
87.034	3.0
87.049	2.0
87.064	7.0
87.079	1.0
87.094	2.0
87.109	3.0
87.124	3.0
87.139	3.0
87.154	0.0
87.169	5.0
87.184	6.0
87.199	2.0
87.214	2.0
87.229	3.0
87.244	7.0
87.259	3.0
87.274	3.0
87.289	4.0
87.304	3.0
87.319	2.0
87.334	3.0
87.349	2.0
87.364	0.0
87.379	3.0
87.394	1.0
87.409	5.0
87.424	1.0
87.438	0.0
87.453	2.0
87.468	4.0
87.483	2.0
87.498	6.0
87.513	4.0
87.528	3.0
87.543	6.0
87.558	7.0
87.573	5.0
87.588	3.0
87.603	8.0
87.618	2.0
87.633	8.0
87.648	4.0
87.663	3.0
87.678	4.0
87.693	4.0
87.708	5.0
87.723	2.0
87.738	2.0
87.753	3.0
87.768	2.0
87.783	5.0
87.798	5.0
87.813	4.0
87.828	4.0
87.843	1.0
87.858	2.0
87.873	2.0
87.888	6.0
87.903	4.0
87.918	2.0
87.933	1.0
87.948	3.0
87.963	3.0
87.978	6.0
87.993	4.0
88.008	1.0
88.023	3.0
88.038	3.0
88.053	1.0
88.068	5.0
88.083	5.0
88.098	4.0
88.113	2.0
88.128	4.0
88.143	2.0
88.158	0.0
88.174	4.0
88.189	3.0
88.204	2.0
88.219	0.0
88.234	5.0
88.249	2.0
88.264	5.0
88.279	5.0
88.294	2.0
88.309	3.0
88.324	2.0
88.339	0.0
88.354	4.0
88.369	4.0
88.384	4.0
88.399	3.0
88.414	1.0
88.429	2.0
88.444	3.0
88.459	2.0
88.474	1.0
88.489	4.0
88.504	1.0
88.519	8.0
88.534	6.0
88.549	5.0
88.564	4.0
88.58	1.0
88.595	2.0
88.61	3.0
88.625	3.0
88.64	4.0
88.655	2.0
88.67	5.0
88.685	4.0
88.7	3.0
88.715	4.0
88.73	4.0
88.745	3.0
88.76	9.0
88.775	5.0
88.79	2.0
88.805	2.0
88.82	2.0
88.835	4.0
88.85	3.0
88.865	1.0
88.88	4.0
88.895	4.0
88.911	7.0
88.926	4.0
88.941	3.0
88.956	7.0
88.971	4.0
88.986	2.0
89.001	4.0
89.016	2.0
89.031	4.0
89.046	4.0
89.061	5.0
89.076	4.0
89.091	6.0
89.106	1.0
89.121	0.0
89.136	3.0
89.151	3.0
89.166	4.0
89.181	0.0
89.196	0.0
89.211	1.0
89.227	5.0
89.242	3.0
89.257	2.0
89.272	1.0
89.287	3.0
89.302	2.0
89.317	4.0
89.332	2.0
89.347	2.0
89.362	6.0
89.377	1.0
89.392	4.0
89.407	6.0
89.422	3.0
89.437	5.0
89.452	3.0
89.467	4.0
89.482	3.0
89.497	0.0
89.512	2.0
89.527	2.0
89.542	5.0
89.557	3.0
89.572	7.0
89.587	2.0
89.602	3.0
89.617	2.0
89.632	3.0
89.647	2.0
89.662	2.0
89.677	3.0
89.693	5.0
89.708	2.0
89.723	2.0
89.738	3.0
89.753	1.0
89.768	3.0
89.783	1.0
89.798	2.0
89.813	0.0
89.828	4.0
89.843	2.0
89.858	2.0
89.873	1.0
89.888	1.0
89.903	3.0
89.918	3.0
89.933	2.0
89.948	3.0
89.963	3.0
89.978	3.0
89.993	8.0
90.008	5.0
90.023	1.0
90.038	4.0
90.053	9.0
90.068	5.0
90.083	3.0
90.097	1.0
90.112	4.0
90.127	2.0
90.142	2.0
90.157	1.0
90.172	4.0
90.187	3.0
90.202	10.0
90.217	4.0
90.232	10.0
90.247	6.0
90.262	8.0
90.277	2.0
90.292	10.0
90.307	6.0
90.322	5.0
90.337	4.0
90.352	2.0
90.367	5.0
90.382	2.0
90.397	4.0
90.412	1.0
90.427	1.0
90.442	1.0
90.457	3.0
90.472	3.0
90.487	1.0
90.501	4.0
90.516	2.0
90.531	4.0
90.546	5.0
90.561	4.0
90.576	1.0
90.591	1.0
90.606	4.0
90.621	0.0
90.636	5.0
90.651	0.0
90.666	2.0
90.681	3.0
90.696	5.0
90.711	4.0
90.726	0.0
90.741	1.0
90.755	1.0
90.77	4.0
90.785	1.0
90.8	4.0
90.815	2.0
90.83	2.0
90.845	4.0
90.86	3.0
90.875	5.0
90.89	4.0
90.905	8.0
90.92	3.0
90.935	1.0
90.95	4.0
90.965	7.0
90.979	5.0
90.994	1.0
91.009	5.0
91.024	6.0
91.039	4.0
91.054	4.0
91.069	4.0
91.084	2.0
91.099	3.0
91.114	4.0
91.129	1.0
91.144	2.0
91.159	5.0
91.174	3.0
91.188	5.0
91.203	3.0
91.218	2.0
91.233	4.0
91.248	4.0
91.263	4.0
91.278	2.0
91.293	2.0
91.308	4.0
91.323	1.0
91.338	1.0
91.353	1.0
91.368	0.0
91.383	0.0
91.398	7.0
91.412	3.0
91.427	0.0
91.442	7.0
91.457	1.0
91.472	3.0
91.487	2.0
91.502	2.0
91.517	4.0
91.532	2.0
91.547	7.0
91.562	3.0
91.577	1.0
91.592	1.0
91.607	3.0
91.622	1.0
91.637	1.0
91.652	4.0
91.666	0.0
91.681	2.0
91.696	2.0
91.711	3.0
91.726	4.0
91.741	3.0
91.756	3.0
91.771	3.0
91.786	2.0
91.801	1.0
91.816	1.0
91.831	1.0
91.846	3.0
91.861	3.0
91.876	2.0
91.891	3.0
91.906	2.0
91.921	5.0
91.936	3.0
91.951	2.0
91.966	1.0
91.981	5.0
91.995	1.0
92.01	3.0
92.025	3.0
92.04	1.0
92.055	5.0
92.07	2.0
92.085	0.0
92.1	4.0
92.115	3.0
92.13	2.0
92.145	3.0
92.16	0.0
92.175	4.0
92.19	3.0
92.205	2.0
92.22	2.0
92.235	5.0
92.25	2.0
92.265	2.0
92.28	5.0
92.295	4.0
92.31	2.0
92.325	2.0
92.34	3.0
92.355	2.0
92.37	3.0
92.385	5.0
92.4	4.0
92.415	2.0
92.43	2.0
92.445	1.0
92.46	3.0
92.475	6.0
92.49	2.0
92.505	3.0
92.52	2.0
92.535	2.0
92.55	2.0
92.565	2.0
92.58	3.0
92.595	1.0
92.61	5.0
92.625	2.0
92.64	1.0
92.655	1.0
92.67	4.0
92.685	2.0
92.7	5.0
92.715	1.0
92.73	4.0
92.745	3.0
92.76	5.0
92.775	2.0
92.79	3.0
92.805	0.0
92.82	7.0
92.835	1.0
92.85	6.0
92.865	4.0
92.88	4.0
92.895	4.0
92.91	0.0
92.925	2.0
92.94	3.0
92.955	1.0
92.97	4.0
92.985	5.0
93.0	2.0
93.015	4.0
93.03	5.0
93.045	2.0
93.06	0.0
93.075	1.0
93.09	1.0
93.105	5.0
93.12	4.0
93.135	3.0
93.15	4.0
93.165	1.0
93.18	5.0
93.195	1.0
93.21	1.0
93.225	1.0
93.24	6.0
93.255	3.0
93.27	5.0
93.285	5.0
93.3	2.0
93.315	3.0
93.33	5.0
93.345	4.0
93.36	1.0
93.375	4.0
93.39	1.0
93.405	6.0
93.42	4.0
93.435	2.0
93.45	2.0
93.465	7.0
93.48	3.0
93.495	6.0
93.51	2.0
93.525	4.0
93.54	3.0
93.555	3.0
93.57	3.0
93.585	5.0
93.6	4.0
93.615	3.0
93.63	6.0
93.645	2.0
93.66	4.0
93.675	1.0
93.69	0.0
93.705	4.0
93.72	3.0
93.735	4.0
93.75	4.0
93.765	2.0
93.78	2.0
93.795	3.0
93.81	5.0
93.824	2.0
93.839	5.0
93.854	4.0
93.869	2.0
93.884	1.0
93.899	4.0
93.914	5.0
93.929	2.0
93.944	5.0
93.959	1.0
93.974	1.0
93.989	5.0
94.004	2.0
94.019	0.0
94.034	2.0
94.049	4.0
94.064	2.0
94.079	3.0
94.094	1.0
94.108	2.0
94.123	3.0
94.138	4.0
94.153	6.0
94.168	5.0
94.183	2.0
94.198	2.0
94.213	3.0
94.228	5.0
94.243	1.0
94.258	4.0
94.273	4.0
94.288	2.0
94.302	11.0
94.317	3.0
94.332	5.0
94.347	5.0
94.362	4.0
94.377	5.0
94.392	3.0
94.407	4.0
94.422	5.0
94.437	3.0
94.452	4.0
94.466	4.0
94.481	5.0
94.496	8.0
94.511	3.0
94.526	1.0
94.541	3.0
94.556	1.0
94.571	1.0
94.586	3.0
94.601	2.0
94.615	1.0
94.63	2.0
94.645	1.0
94.66	3.0
94.675	0.0
94.69	8.0
94.705	1.0
94.72	3.0
94.735	3.0
94.749	4.0
94.764	0.0
94.779	1.0
94.794	1.0
94.809	6.0
94.824	4.0
94.839	8.0
94.854	3.0
94.868	1.0
94.883	2.0
94.898	3.0
94.913	4.0
94.928	3.0
94.943	2.0
94.958	1.0
94.973	2.0
94.987	2.0
95.002	3.0
95.017	1.0
95.032	3.0
95.047	2.0
95.062	1.0
95.077	3.0
95.092	5.0
95.106	2.0
95.121	2.0
95.136	5.0
95.151	3.0
95.166	2.0
95.181	5.0
95.196	6.0
95.211	3.0
95.226	3.0
95.24	8.0
95.255	4.0
95.27	9.0
95.285	5.0
95.3	6.0
95.315	3.0
95.33	4.0
95.345	4.0
95.359	4.0
95.374	5.0
95.389	4.0
95.404	4.0
95.419	3.0
95.434	4.0
95.449	5.0
95.464	2.0
95.478	5.0
95.493	2.0
95.508	2.0
95.523	2.0
95.538	0.0
95.553	0.0
95.568	4.0
95.583	3.0
95.597	0.0
95.612	3.0
95.627	4.0
95.642	1.0
95.657	2.0
95.672	5.0
95.687	4.0
95.702	1.0
95.717	2.0
95.731	7.0
95.746	5.0
95.761	0.0
95.776	4.0
95.791	3.0
95.806	4.0
95.821	4.0
95.836	1.0
95.851	3.0
95.866	2.0
95.88	1.0
95.895	1.0
95.91	4.0
95.925	6.0
95.94	5.0
95.955	2.0
95.97	5.0
95.985	3.0
96.0	2.0
96.015	1.0
96.029	2.0
96.044	2.0
96.059	2.0
96.074	0.0
96.089	3.0
96.104	1.0
96.119	3.0
96.134	2.0
96.149	5.0
96.164	3.0
96.179	2.0
96.194	5.0
96.208	2.0
96.223	3.0
96.238	6.0
96.253	1.0
96.268	4.0
96.283	1.0
96.298	6.0
96.313	0.0
96.328	1.0
96.343	4.0
96.358	4.0
96.373	7.0
96.388	3.0
96.403	2.0
96.417	5.0
96.432	3.0
96.447	3.0
96.462	6.0
96.477	3.0
96.492	3.0
96.507	4.0
96.522	3.0
96.537	2.0
96.552	2.0
96.567	4.0
96.582	6.0
96.597	2.0
96.612	2.0
96.627	8.0
96.642	1.0
96.656	6.0
96.671	2.0
96.686	5.0
96.701	1.0
96.716	7.0
96.731	3.0
96.746	4.0
96.761	6.0
96.776	1.0
96.791	2.0
96.806	5.0
96.821	6.0
96.836	4.0
96.851	5.0
96.866	3.0
96.881	4.0
96.896	2.0
96.911	4.0
96.926	7.0
96.94	4.0
96.955	0.0
96.97	5.0
96.985	4.0
97.0	1.0
97.015	2.0
97.03	5.0
97.045	4.0
97.06	4.0
97.075	3.0
97.09	4.0
97.105	1.0
97.12	4.0
97.135	2.0
97.15	1.0
97.165	1.0
97.18	2.0
97.195	4.0
97.21	1.0
97.225	3.0
97.239	1.0
97.254	4.0
97.269	3.0
97.284	1.0
97.299	2.0
97.314	3.0
97.329	3.0
97.344	5.0
97.359	2.0
97.374	5.0
97.389	4.0
97.404	2.0
97.419	4.0
97.434	4.0
97.449	1.0
97.464	3.0
97.479	1.0
97.494	7.0
97.509	2.0
97.524	1.0
97.538	5.0
97.553	5.0
97.568	1.0
97.583	5.0
97.598	4.0
97.613	3.0
97.628	5.0
97.643	7.0
97.658	4.0
97.673	5.0
97.688	5.0
97.703	4.0
97.718	3.0
97.733	2.0
97.748	4.0
97.763	4.0
97.778	4.0
97.792	3.0
97.807	6.0
97.822	2.0
97.837	4.0
97.852	1.0
97.867	5.0
97.882	2.0
97.897	6.0
97.912	2.0
97.927	3.0
97.942	0.0
97.957	3.0
97.972	0.0
97.987	2.0
98.001	1.0
98.016	5.0
98.031	1.0
98.046	8.0
98.061	0.0
98.076	5.0
98.091	1.0
98.106	2.0
98.121	5.0
98.136	4.0
98.151	1.0
98.166	1.0
98.181	4.0
98.195	4.0
98.21	5.0
98.225	0.0
98.24	4.0
98.255	1.0
98.27	3.0
98.285	3.0
98.3	5.0
98.315	3.0
98.33	2.0
98.345	3.0
98.359	3.0
98.374	1.0
98.389	4.0
98.404	5.0
98.419	3.0
98.434	4.0
98.449	4.0
98.464	6.0
98.479	6.0
98.494	2.0
98.508	5.0
98.523	0.0
98.538	2.0
98.553	1.0
98.568	1.0
98.583	5.0
98.598	2.0
98.613	2.0
98.628	3.0
98.642	1.0
98.657	7.0
98.672	3.0
98.687	2.0
98.702	6.0
98.717	3.0
98.732	1.0
98.747	5.0
98.762	3.0
98.776	1.0
98.791	2.0
98.806	2.0
98.821	2.0
98.836	3.0
98.851	6.0
98.866	2.0
98.881	3.0
98.896	3.0
98.91	1.0
98.925	1.0
98.94	6.0
98.955	4.0
98.97	3.0
98.985	4.0
99.0	1.0
99.015	3.0
99.029	3.0
99.044	6.0
99.059	5.0
99.074	1.0
99.089	1.0
99.104	3.0
99.119	2.0
99.133	1.0
99.148	0.0
99.163	5.0
99.178	3.0
99.193	2.0
99.208	2.0
99.223	2.0
99.238	3.0
99.252	0.0
99.267	3.0
99.282	2.0
99.297	3.0
99.312	4.0
99.327	2.0
99.342	2.0
99.356	5.0
99.371	1.0
99.386	2.0
99.401	2.0
99.416	2.0
99.431	2.0
99.446	6.0
99.461	1.0
99.475	3.0
99.49	4.0
99.505	3.0
99.52	4.0
99.535	4.0
99.55	5.0
99.565	2.0
99.579	3.0
99.594	1.0
99.609	4.0
99.624	2.0
99.639	2.0
99.654	4.0
99.669	4.0
99.683	3.0
99.698	1.0
99.713	1.0
99.728	5.0
99.743	2.0
99.758	1.0
99.772	4.0
99.787	2.0
99.802	2.0
99.817	3.0
99.832	2.0
99.847	5.0
99.862	3.0
99.876	3.0
99.891	4.0
99.906	2.0
99.921	2.0
99.936	1.0
99.951	2.0
99.966	3.0
99.98	4.0
99.995	2.0
100.01	4.0
100.025	5.0
100.04	3.0
100.055	6.0
100.069	3.0
100.084	3.0
100.099	4.0
100.114	2.0
100.129	4.0
100.144	2.0
100.159	4.0
100.173	3.0
100.188	3.0
100.203	1.0
100.218	5.0
100.233	6.0
100.248	2.0
100.262	3.0
100.277	3.0
100.292	5.0
100.307	6.0
100.322	3.0
100.337	5.0
100.351	7.0
100.366	8.0
100.381	4.0
100.396	2.0
100.411	7.0
100.426	4.0
100.441	1.0
100.455	3.0
100.47	3.0
100.485	2.0
100.5	1.0
100.515	3.0
100.53	6.0
100.544	5.0
100.559	5.0
100.574	5.0
100.589	5.0
100.604	1.0
100.619	2.0
100.633	1.0
100.648	3.0
100.663	2.0
100.678	3.0
100.693	3.0
100.708	6.0
100.722	3.0
100.737	2.0
100.752	3.0
100.767	3.0
100.782	2.0
100.796	3.0
100.811	3.0
100.826	1.0
100.841	2.0
100.856	2.0
100.871	1.0
100.885	6.0
100.9	5.0
100.915	2.0
100.93	4.0
100.945	4.0
100.96	6.0
100.974	6.0
100.989	2.0
101.004	3.0
101.019	5.0
101.034	4.0
101.048	4.0
101.063	10.0
101.078	2.0
101.093	3.0
101.108	2.0
101.123	5.0
101.137	3.0
101.152	3.0
101.167	7.0
101.182	4.0
101.197	3.0
101.211	6.0
101.226	1.0
101.241	3.0
101.256	8.0
101.271	5.0
101.285	5.0
101.3	4.0
101.315	5.0
101.33	3.0
101.345	1.0
101.359	8.0
101.374	4.0
101.389	3.0
101.404	3.0
101.419	2.0
101.433	1.0
101.448	4.0
101.463	1.0
101.478	4.0
101.493	4.0
101.507	6.0
101.522	5.0
101.537	4.0
101.552	3.0
101.567	2.0
101.581	5.0
101.596	4.0
101.611	1.0
101.626	4.0
101.64	2.0
101.655	4.0
101.67	2.0
101.685	5.0
101.7	2.0
101.714	3.0
101.729	3.0
101.744	2.0
101.759	4.0
101.773	3.0
101.788	6.0
101.803	4.0
101.818	4.0
101.833	5.0
101.847	1.0
101.862	4.0
101.877	4.0
101.892	6.0
101.906	4.0
101.921	3.0
101.936	5.0
101.951	6.0
101.965	2.0
101.98	1.0
101.995	1.0
102.01	6.0
102.025	3.0
102.039	4.0
102.054	1.0
102.069	5.0
102.084	2.0
102.098	4.0
102.113	2.0
102.128	7.0
102.143	4.0
102.157	4.0
102.172	3.0
102.187	3.0
102.202	3.0
102.216	5.0
102.231	4.0
102.246	7.0
102.261	5.0
102.275	7.0
102.29	2.0
102.305	2.0
102.32	3.0
102.334	3.0
102.349	1.0
102.364	4.0
102.378	3.0
102.393	2.0
102.408	5.0
102.423	2.0
102.437	4.0
102.452	4.0
102.467	4.0
102.482	2.0
102.496	0.0
102.511	1.0
102.526	4.0
102.541	2.0
102.555	1.0
102.57	0.0
102.585	1.0
102.6	5.0
102.614	4.0
102.629	1.0
102.644	3.0
102.659	2.0
102.673	0.0
102.688	4.0
102.703	4.0
102.717	2.0
102.732	3.0
102.747	5.0
102.762	3.0
102.776	1.0
102.791	3.0
102.806	3.0
102.821	7.0
102.835	3.0
102.85	2.0
102.865	4.0
102.88	2.0
102.894	4.0
102.909	1.0
102.924	9.0
102.938	3.0
102.953	2.0
102.968	2.0
102.983	4.0
102.997	1.0
103.012	2.0
103.027	2.0
103.042	3.0
103.056	6.0
103.071	5.0
103.086	2.0
103.101	7.0
103.115	6.0
103.13	2.0
103.145	4.0
103.16	0.0
103.174	9.0
103.189	2.0
103.204	3.0
103.219	2.0
103.233	3.0
103.248	1.0
103.263	1.0
103.278	3.0
103.292	1.0
103.307	10.0
103.322	1.0
103.337	4.0
103.351	2.0
103.366	4.0
103.381	3.0
103.396	3.0
103.41	7.0
103.425	1.0
103.44	1.0
103.455	2.0
103.469	2.0
103.484	1.0
103.499	4.0
103.514	3.0
103.529	3.0
103.543	5.0
103.558	7.0
103.573	1.0
103.588	1.0
103.602	9.0
103.617	1.0
103.632	2.0
103.647	4.0
103.661	5.0
103.676	3.0
103.691	4.0
103.706	2.0
103.721	5.0
103.735	2.0
103.75	4.0
103.765	3.0
103.78	9.0
103.795	3.0
103.809	2.0
103.824	4.0
103.839	0.0
103.854	5.0
103.869	4.0
103.883	3.0
103.898	2.0
103.913	4.0
103.928	3.0
103.943	4.0
103.957	3.0
103.972	6.0
103.987	3.0
104.002	5.0
104.017	0.0
104.031	2.0
104.046	7.0
104.061	4.0
104.076	1.0
104.091	1.0
104.106	1.0
104.12	3.0
104.135	2.0
104.15	4.0
104.165	3.0
104.18	0.0
104.195	4.0
104.209	2.0
104.224	2.0
104.239	1.0
104.254	6.0
104.269	6.0
104.284	1.0
104.299	1.0
104.313	4.0
104.328	5.0
104.343	0.0
104.358	1.0
104.373	4.0
104.388	5.0
104.403	2.0
104.417	4.0
104.432	5.0
104.447	6.0
104.462	6.0
104.477	2.0
104.492	3.0
104.507	2.0
104.522	9.0
104.536	5.0
104.551	0.0
104.566	2.0
104.581	6.0
104.596	1.0
104.611	3.0
104.626	4.0
104.641	2.0
104.656	3.0
104.67	4.0
104.685	4.0
104.7	5.0
104.715	3.0
104.73	3.0
104.745	2.0
104.76	2.0
104.775	4.0
104.79	4.0
104.804	1.0
104.819	2.0
104.834	8.0
104.849	4.0
104.864	2.0
104.879	0.0
104.894	2.0
104.909	3.0
104.924	6.0
104.939	3.0
104.954	3.0
104.968	2.0
104.983	2.0
104.998	3.0
105.013	3.0
105.028	1.0
105.043	2.0
105.058	2.0
105.073	0.0
105.088	2.0
105.103	5.0
105.118	3.0
105.133	4.0
105.147	2.0
105.162	2.0
105.177	1.0
105.192	3.0
105.207	1.0
105.222	4.0
105.237	5.0
105.252	3.0
105.267	4.0
105.282	4.0
105.297	5.0
105.312	1.0
105.327	1.0
105.342	4.0
105.356	5.0
105.371	3.0
105.386	3.0
105.401	5.0
105.416	3.0
105.431	4.0
105.446	2.0
105.461	4.0
105.476	1.0
105.491	1.0
105.506	2.0
105.521	6.0
105.536	1.0
105.551	3.0
105.566	3.0
105.581	4.0
105.595	5.0
105.61	4.0
105.625	2.0
105.64	0.0
105.655	4.0
105.67	2.0
105.685	1.0
105.7	0.0
105.715	2.0
105.73	1.0
105.745	0.0
105.76	4.0
105.775	3.0
105.79	2.0
105.805	3.0
105.82	3.0
105.835	1.0
105.85	3.0
105.864	2.0
105.879	5.0
105.894	5.0
105.909	1.0
105.924	4.0
105.939	3.0
105.954	2.0
105.969	4.0
105.984	2.0
105.999	4.0
106.014	5.0
106.029	5.0
106.044	3.0
106.059	6.0
106.074	3.0
106.089	5.0
106.104	5.0
106.119	3.0
106.134	1.0
106.148	3.0
106.163	3.0
106.178	4.0
106.193	3.0
106.208	4.0
106.223	2.0
106.238	4.0
106.253	2.0
106.268	4.0
106.283	5.0
106.298	6.0
106.313	3.0
106.328	3.0
106.343	4.0
106.358	3.0
106.373	3.0
106.388	7.0
106.403	1.0
106.418	4.0
106.432	2.0
106.447	3.0
106.462	2.0
106.477	8.0
106.492	3.0
106.507	2.0
106.522	1.0
106.537	3.0
106.552	2.0
106.567	2.0
106.582	2.0
106.597	3.0
106.612	2.0
106.627	6.0
106.642	2.0
106.657	7.0
106.672	5.0
106.687	1.0
106.701	1.0
106.716	4.0
106.731	4.0
106.746	2.0
106.761	1.0
106.776	4.0
106.791	2.0
106.806	3.0
106.821	1.0
106.836	4.0
106.851	4.0
106.866	6.0
106.881	6.0
106.896	1.0
106.911	2.0
106.926	2.0
106.941	3.0
106.955	5.0
106.97	1.0
106.985	2.0
107.0	2.0
107.015	2.0
107.03	3.0
107.045	3.0
107.06	4.0
107.075	2.0
107.09	2.0
107.105	3.0
107.12	2.0
107.135	1.0
107.15	3.0
107.165	5.0
107.18	4.0
107.194	7.0
107.209	0.0
107.224	7.0
107.239	4.0
107.254	5.0
107.269	4.0
107.284	0.0
107.299	3.0
107.314	1.0
107.329	4.0
107.344	6.0
107.359	3.0
107.374	3.0
107.389	2.0
107.404	2.0
107.418	2.0
107.433	6.0
107.448	1.0
107.463	7.0
107.478	5.0
107.493	5.0
107.508	4.0
107.523	4.0
107.538	2.0
107.553	2.0
107.568	3.0
107.583	6.0
107.598	4.0
107.613	1.0
107.627	4.0
107.642	3.0
107.657	5.0
107.672	4.0
107.687	3.0
107.702	0.0
107.717	4.0
107.732	1.0
107.747	5.0
107.762	4.0
107.777	2.0
107.792	2.0
107.807	4.0
107.821	0.0
107.836	1.0
107.851	4.0
107.866	2.0
107.881	5.0
107.896	3.0
107.911	4.0
107.926	0.0
107.941	3.0
107.956	2.0
107.971	4.0
107.986	6.0
108.0	4.0
108.015	4.0
108.03	1.0
108.045	2.0
108.06	4.0
108.075	4.0
108.09	6.0
108.105	5.0
108.12	7.0
108.135	5.0
108.15	4.0
108.164	5.0
108.179	7.0
108.194	2.0
108.209	8.0
108.224	5.0
108.239	3.0
108.254	4.0
108.269	2.0
108.284	4.0
108.299	1.0
108.313	0.0
108.328	2.0
108.343	5.0
108.358	2.0
108.373	1.0
108.388	2.0
108.403	1.0
108.418	6.0
108.433	3.0
108.448	2.0
108.462	1.0
108.477	1.0
108.492	1.0
108.507	2.0
108.522	2.0
108.537	2.0
108.552	2.0
108.567	1.0
108.582	3.0
108.597	3.0
108.611	9.0
108.626	1.0
108.641	1.0
108.656	3.0
108.671	0.0
108.686	4.0
108.701	9.0
108.716	2.0
108.731	3.0
108.745	5.0
108.76	3.0
108.775	2.0
108.79	4.0
108.805	1.0
108.82	7.0
108.835	5.0
108.85	6.0
108.865	1.0
108.879	1.0
108.894	5.0
108.909	3.0
108.924	2.0
108.939	6.0
108.954	7.0
108.969	2.0
108.984	5.0
108.999	5.0
109.013	7.0
109.028	3.0
109.043	1.0
109.058	2.0
109.073	3.0
109.088	1.0
109.103	6.0
109.118	6.0
109.133	1.0
109.147	2.0
109.162	2.0
109.177	3.0
109.192	3.0
109.207	3.0
109.222	1.0
109.237	3.0
109.252	4.0
109.267	3.0
109.281	3.0
109.296	2.0
109.311	5.0
109.326	1.0
109.341	2.0
109.356	4.0
109.371	2.0
109.386	1.0
109.4	3.0
109.415	1.0
109.43	3.0
109.445	4.0
109.46	5.0
109.475	1.0
109.49	3.0
109.505	1.0
109.52	3.0
109.534	2.0
109.549	1.0
109.564	4.0
109.579	6.0
109.594	2.0
109.609	5.0
109.624	1.0
109.639	2.0
109.653	3.0
109.668	0.0
109.683	2.0
109.698	6.0
109.713	1.0
109.728	7.0
109.743	2.0
109.758	1.0
109.773	3.0
109.787	1.0
109.802	2.0
109.817	3.0
109.832	2.0
109.847	2.0
109.862	0.0
109.877	5.0
109.892	5.0
109.907	6.0
109.921	4.0
109.936	1.0
109.951	4.0
109.966	0.0
109.981	6.0
109.996	2.0
110.011	6.0
110.026	1.0
110.04	0.0
110.055	3.0
110.07	2.0
110.085	3.0
110.1	3.0
110.115	2.0
110.13	4.0
110.145	2.0
110.16	3.0
110.174	4.0
110.189	2.0
110.204	3.0
110.219	5.0
110.234	4.0
110.249	0.0
110.264	1.0
110.279	4.0
110.294	2.0
110.308	1.0
110.323	2.0
110.338	4.0
110.353	5.0
110.368	1.0
110.383	2.0
110.398	5.0
110.413	4.0
110.428	1.0
110.442	2.0
110.457	3.0
110.472	2.0
110.487	1.0
110.502	2.0
110.517	5.0
110.532	0.0
110.547	7.0
110.561	4.0
110.576	5.0
110.591	2.0
110.606	4.0
110.621	2.0
110.636	3.0
110.651	2.0
110.666	6.0
110.681	7.0
110.695	6.0
110.71	5.0
110.725	5.0
110.74	6.0
110.755	5.0
110.77	1.0
110.785	1.0
110.8	2.0
110.815	2.0
110.829	7.0
110.844	1.0
110.859	4.0
110.874	2.0
110.889	5.0
110.904	9.0
110.919	5.0
110.934	2.0
110.948	3.0
110.963	5.0
110.978	1.0
110.993	4.0
111.008	5.0
111.023	3.0
111.038	3.0
111.053	4.0
111.067	1.0
111.082	3.0
111.097	2.0
111.112	5.0
111.127	1.0
111.142	2.0
111.157	5.0
111.172	3.0
111.186	6.0
111.201	3.0
111.216	2.0
111.231	4.0
111.246	1.0
111.261	2.0
111.276	0.0
111.291	6.0
111.305	2.0
111.32	1.0
111.335	1.0
111.35	2.0
111.365	1.0
111.38	2.0
111.395	0.0
111.41	4.0
111.424	1.0
111.439	4.0
111.454	4.0
111.469	3.0
111.484	4.0
111.499	3.0
111.514	5.0
111.528	8.0
111.543	6.0
111.558	3.0
111.573	4.0
111.588	2.0
111.603	2.0
111.618	2.0
111.633	5.0
111.647	0.0
111.662	5.0
111.677	2.0
111.692	1.0
111.707	5.0
111.722	4.0
111.737	2.0
111.751	5.0
111.766	1.0
111.781	3.0
111.796	3.0
111.811	4.0
111.826	5.0
111.84	3.0
111.855	6.0
111.87	1.0
111.885	4.0
111.9	1.0
111.915	6.0
111.93	3.0
111.944	6.0
111.959	4.0
111.974	4.0
111.989	8.0
112.004	2.0
112.019	3.0
112.033	2.0
112.048	4.0
112.063	3.0
112.078	4.0
112.093	5.0
112.108	3.0
112.123	5.0
112.137	2.0
112.152	3.0
112.167	3.0
112.182	5.0
112.197	3.0
112.212	1.0
112.226	3.0
112.241	4.0
112.256	7.0
112.271	3.0
112.286	2.0
112.301	0.0
112.315	4.0
112.33	4.0
112.345	1.0
112.36	5.0
112.375	3.0
112.389	5.0
112.404	2.0
112.419	3.0
112.434	3.0
112.449	5.0
112.464	4.0
112.478	1.0
112.493	4.0
112.508	1.0
112.523	3.0
112.538	4.0
112.553	5.0
112.567	3.0
112.582	3.0
112.597	4.0
112.612	4.0
112.627	3.0
112.642	0.0
112.656	7.0
112.671	1.0
112.686	3.0
112.701	3.0
112.716	4.0
112.73	2.0
112.745	7.0
112.76	4.0
112.775	3.0
112.79	1.0
112.805	4.0
112.819	3.0
112.834	4.0
112.849	4.0
112.864	7.0
112.879	1.0
112.894	2.0
112.908	4.0
112.923	3.0
112.938	5.0
112.953	5.0
112.968	5.0
112.983	7.0
112.997	2.0
113.012	0.0
113.027	3.0
113.042	4.0
113.057	1.0
113.072	5.0
113.086	0.0
113.101	4.0
113.116	0.0
113.131	7.0
113.146	6.0
113.161	1.0
113.175	2.0
113.19	2.0
113.205	1.0
113.22	7.0
113.235	3.0
113.25	4.0
113.265	3.0
113.279	2.0
113.294	1.0
113.309	1.0
113.324	4.0
113.339	5.0
113.354	4.0
113.368	5.0
113.383	1.0
113.398	2.0
113.413	1.0
113.428	6.0
113.443	7.0
113.458	8.0
113.472	0.0
113.487	3.0
113.502	3.0
113.517	1.0
113.532	4.0
113.547	3.0
113.562	2.0
113.576	3.0
113.591	2.0
113.606	3.0
113.621	3.0
113.636	4.0
113.651	3.0
113.666	3.0
113.681	4.0
113.695	3.0
113.71	4.0
113.725	3.0
113.74	6.0
113.755	3.0
113.77	3.0
113.785	2.0
113.8	4.0
113.814	2.0
113.829	2.0
113.844	5.0
113.859	1.0
113.874	5.0
113.889	4.0
113.904	5.0
113.919	3.0
113.934	5.0
113.949	2.0
113.963	1.0
113.978	4.0
113.993	2.0
114.008	7.0
114.023	1.0
114.038	2.0
114.053	8.0
114.068	2.0
114.083	3.0
114.098	3.0
114.113	3.0
114.127	4.0
114.142	4.0
114.157	2.0
114.172	2.0
114.187	7.0
114.202	2.0
114.217	2.0
114.232	1.0
114.247	3.0
114.262	4.0
114.277	5.0
114.292	1.0
114.307	6.0
114.322	3.0
114.337	1.0
114.351	4.0
114.366	3.0
114.381	5.0
114.396	5.0
114.411	5.0
114.426	3.0
114.441	4.0
114.456	3.0
114.471	2.0
114.486	6.0
114.501	3.0
114.516	5.0
114.531	0.0
114.546	0.0
114.561	1.0
114.576	2.0
114.591	3.0
114.606	5.0
114.621	1.0
114.636	7.0
114.65	2.0
114.665	5.0
114.68	6.0
114.695	0.0
114.71	2.0
114.725	2.0
114.74	3.0
114.755	3.0
114.77	5.0
114.785	3.0
114.8	5.0
114.815	1.0
114.83	4.0
114.845	0.0
114.86	3.0
114.875	2.0
114.89	5.0
114.905	4.0
114.92	1.0
114.935	4.0
114.95	4.0
114.965	5.0
114.98	4.0
114.995	2.0
115.009	1.0
115.024	4.0
115.039	2.0
115.054	1.0
115.069	5.0
115.084	2.0
115.099	5.0
115.114	3.0
115.129	4.0
115.144	3.0
115.159	3.0
115.174	6.0
115.189	5.0
115.204	3.0
115.219	5.0
115.234	4.0
115.249	5.0
115.264	1.0
115.279	3.0
115.294	0.0
115.309	0.0
115.323	4.0
115.338	2.0
115.353	4.0
115.368	4.0
115.383	4.0
115.398	6.0
115.413	3.0
115.428	7.0
115.443	6.0
115.458	2.0
115.473	2.0
115.488	3.0
115.503	1.0
115.518	3.0
115.533	6.0
115.548	7.0
115.562	7.0
115.577	4.0
115.592	5.0
115.607	3.0
115.622	2.0
115.637	1.0
115.652	3.0
115.667	3.0
115.682	5.0
115.697	5.0
115.712	3.0
115.727	6.0
115.741	4.0
115.756	1.0
115.771	2.0
115.786	1.0
115.801	1.0
115.816	4.0
115.831	3.0
115.846	5.0
115.861	6.0
115.875	7.0
115.89	6.0
115.905	4.0
115.92	1.0
115.935	3.0
115.95	5.0
115.965	3.0
115.98	4.0
115.995	2.0
116.009	1.0
116.024	7.0
116.039	2.0
116.054	3.0
116.069	0.0
116.084	3.0
116.099	0.0
116.113	0.0
116.128	4.0
116.143	1.0
116.158	4.0
116.173	7.0
116.188	3.0
116.202	3.0
116.217	4.0
116.232	7.0
116.247	4.0
116.262	2.0
116.277	2.0
116.291	5.0
116.306	1.0
116.321	3.0
116.336	3.0
116.351	6.0
116.366	4.0
116.38	2.0
116.395	3.0
116.41	8.0
116.425	1.0
116.44	4.0
116.454	2.0
116.469	5.0
116.484	2.0
116.499	6.0
116.514	3.0
116.528	6.0
116.543	4.0
116.558	3.0
116.573	1.0
116.588	9.0
116.602	5.0
116.617	0.0
116.632	1.0
116.647	4.0
116.662	2.0
116.676	2.0
116.691	6.0
116.706	3.0
116.721	1.0
116.735	3.0
116.75	5.0
116.765	1.0
116.78	4.0
116.795	4.0
116.809	2.0
116.824	3.0
116.839	7.0
116.854	4.0
116.868	1.0
116.883	5.0
116.898	2.0
116.913	5.0
116.927	6.0
116.942	2.0
116.957	4.0
116.972	2.0
116.986	2.0
117.001	2.0
117.016	1.0
117.031	2.0
117.045	6.0
117.06	4.0
117.075	1.0
117.09	5.0
117.104	2.0
117.119	7.0
117.134	1.0
117.149	3.0
117.163	2.0
117.178	2.0
117.193	5.0
117.208	5.0
117.222	3.0
117.237	5.0
117.252	4.0
117.267	2.0
117.281	0.0
117.296	4.0
117.311	2.0
117.325	5.0
117.34	4.0
117.355	4.0
117.37	4.0
117.384	2.0
117.399	3.0
117.414	3.0
117.429	4.0
117.443	2.0
117.458	3.0
117.473	2.0
117.487	2.0
117.502	7.0
117.517	0.0
117.532	4.0
117.546	4.0
117.561	1.0
117.576	5.0
117.59	3.0
117.605	4.0
117.62	4.0
117.635	5.0
117.649	3.0
117.664	2.0
117.679	2.0
117.693	2.0
117.708	3.0
117.723	3.0
117.738	1.0
117.752	4.0
117.767	5.0
117.782	4.0
117.796	4.0
117.811	5.0
117.826	4.0
117.841	2.0
117.855	4.0
117.87	3.0
117.885	6.0
117.899	3.0
117.914	6.0
117.929	0.0
117.944	4.0
117.958	1.0
117.973	5.0
117.988	4.0
118.002	5.0
118.017	2.0
118.032	2.0
118.047	4.0
118.062	5.0
118.077	1.0
118.092	6.0
118.107	5.0
118.121	5.0
118.136	3.0
118.151	6.0
118.166	5.0
118.181	4.0
118.196	5.0
118.211	2.0
118.225	4.0
118.24	1.0
118.255	4.0
118.27	4.0
118.285	3.0
118.3	5.0
118.315	6.0
118.33	2.0
118.344	5.0
118.359	2.0
118.374	0.0
118.389	2.0
118.404	7.0
118.419	3.0
118.434	2.0
118.449	2.0
118.463	1.0
118.478	4.0
118.493	4.0
118.508	3.0
118.523	3.0
118.538	2.0
118.553	1.0
118.567	7.0
118.582	3.0
118.597	3.0
118.612	4.0
118.627	1.0
118.642	6.0
118.657	0.0
118.672	2.0
118.686	6.0
118.701	5.0
118.716	1.0
118.731	5.0
118.746	1.0
118.761	1.0
118.776	2.0
118.791	3.0
118.805	5.0
118.82	4.0
118.835	3.0
118.85	1.0
118.865	3.0
118.88	6.0
118.895	3.0
118.909	3.0
118.924	3.0
118.939	3.0
118.954	5.0
118.969	2.0
118.984	2.0
118.999	6.0
119.014	4.0
119.028	3.0
119.043	5.0
119.058	7.0
119.073	2.0
119.088	6.0
119.103	3.0
119.118	4.0
119.133	4.0
119.147	8.0
119.162	2.0
119.177	2.0
119.192	4.0
119.207	4.0
119.222	4.0
119.237	5.0
119.251	8.0
119.266	2.0
119.281	4.0
119.296	5.0
119.311	2.0
119.326	2.0
119.341	5.0
119.356	6.0
119.37	5.0
119.385	1.0
119.4	1.0
119.415	6.0
119.43	1.0
119.445	4.0
119.46	2.0
119.475	7.0
119.489	4.0
119.504	1.0
119.519	3.0
119.534	3.0
119.549	1.0
119.564	2.0
119.579	5.0
119.593	8.0
119.608	2.0
119.623	2.0
119.638	5.0
119.653	2.0
119.668	3.0
119.683	4.0
119.698	2.0
119.712	2.0
119.727	5.0
119.742	3.0
119.757	1.0
119.772	2.0
119.787	3.0
119.802	4.0
119.817	0.0
119.831	3.0
119.846	4.0
119.861	4.0
119.876	4.0
119.891	4.0
119.906	4.0
119.921	6.0
119.935	4.0
119.95	2.0
119.965	2.0
119.98	3.0
119.995	1.0
120.01	2.0
120.025	2.0
120.04	2.0
120.054	3.0
120.069	1.0
120.084	1.0
120.099	1.0
120.114	5.0
120.129	2.0
120.144	0.0
120.159	0.0
120.173	0.0
120.188	1.0
120.203	2.0
120.218	1.0
120.233	0.0
120.248	0.0
120.263	1.0
120.277	1.0
120.292	0.0
120.307	2.0
120.322	0.0
120.337	1.0
120.352	0.0
120.367	0.0
120.382	0.0
120.396	0.0
120.411	0.0
120.426	0.0
120.441	0.0
120.456	1.0
120.471	0.0
120.486	0.0
120.501	2.0
120.515	0.0
120.53	0.0
120.545	0.0
120.56	0.0
120.575	0.0
120.59	0.0
120.605	0.0
120.619	0.0
120.634	0.0
120.649	0.0
120.664	0.0
120.679	0.0
120.694	0.0
120.709	0.0
120.724	0.0
120.738	0.0
120.753	0.0
120.768	0.0
120.783	0.0
120.798	0.0
120.813	0.0
120.828	0.0
120.843	0.0
120.857	0.0
120.872	0.0
120.887	0.0
120.902	0.0
120.917	0.0
120.932	0.0
120.947	0.0
120.961	0.0
120.976	0.0
