-1.217	0.0
-1.202	0.0
-1.187	0.0
-1.172	0.0
-1.157	0.0
-1.142	0.0
-1.128	0.0
-1.113	0.0
-1.098	0.0
-1.083	0.0
-1.068	0.0
-1.054	0.0
-1.039	0.0
-1.024	0.0
-1.009	0.0
-0.994	0.0
-0.979	0.0
-0.965	0.0
-0.95	0.0
-0.935	0.0
-0.92	0.0
-0.905	0.0
-0.891	0.0
-0.876	0.0
-0.861	0.0
-0.846	0.0
-0.831	0.0
-0.816	0.0
-0.802	0.0
-0.787	0.0
-0.772	0.0
-0.757	0.0
-0.742	0.0
-0.728	0.0
-0.713	0.0
-0.698	0.0
-0.683	0.0
-0.668	0.0
-0.653	0.0
-0.639	0.0
-0.624	0.0
-0.609	0.0
-0.594	0.0
-0.579	0.0
-0.565	0.0
-0.55	0.0
-0.535	0.0
-0.52	0.0
-0.505	0.0
-0.49	0.0
-0.476	0.0
-0.461	0.0
-0.446	0.0
-0.431	0.0
-0.416	0.0
-0.401	0.0
-0.387	0.0
-0.372	0.0
-0.357	0.0
-0.342	0.0
-0.327	0.0
-0.313	0.0
-0.298	0.0
-0.283	0.0
-0.268	0.0
-0.253	0.0
-0.238	0.0
-0.224	0.0
-0.209	0.0
-0.194	0.0
-0.179	0.0
-0.164	0.0
-0.15	0.0
-0.135	0.0
-0.12	0.0
-0.105	0.0
-0.09	0.0
-0.075	0.0
-0.061	0.0
-0.046	0.0
-0.031	0.0
-0.016	0.0
-0.001	0.0
0.013	0.0
0.028	0.0
0.043	0.0
0.058	0.0
0.073	0.0
0.088	0.0
0.102	0.0
0.117	0.0
0.132	0.0
0.147	0.0
0.162	0.0
0.176	0.0
0.191	0.0
0.206	0.0
0.221	0.0
0.236	0.0
0.251	0.0
0.265	0.0
0.28	0.0
0.295	0.0
0.31	0.0
0.325	0.0
0.339	0.0
0.354	0.0
0.369	0.0
0.384	0.0
0.399	0.0
0.414	0.0
0.428	0.0
0.443	0.0
0.458	0.0
0.473	0.0
0.488	0.0
0.502	1.0
0.517	0.0
0.532	0.0
0.547	0.0
0.562	0.0
0.577	0.0
0.591	0.0
0.606	0.0
0.621	0.0
0.636	0.0
0.651	0.0
0.665	0.0
0.68	0.0
0.695	0.0
0.71	0.0
0.725	0.0
0.74	0.0
0.754	0.0
0.769	0.0
0.784	0.0
0.799	0.0
0.814	0.0
0.828	0.0
0.843	0.0
0.858	0.0
0.873	0.0
0.888	0.0
0.903	0.0
0.917	0.0
0.932	0.0
0.947	0.0
0.962	0.0
0.977	0.0
0.991	0.0
1.006	0.0
1.021	0.0
1.036	0.0
1.051	0.0
1.065	0.0
1.08	0.0
1.095	0.0
1.11	0.0
1.125	0.0
1.14	0.0
1.154	0.0
1.169	0.0
1.184	0.0
1.199	0.0
1.214	0.0
1.228	0.0
1.243	0.0
1.258	1.0
1.273	0.0
1.288	0.0
1.302	0.0
1.317	0.0
1.332	0.0
1.347	0.0
1.362	0.0
1.376	0.0
1.391	0.0
1.406	0.0
1.421	0.0
1.436	0.0
1.45	0.0
1.465	0.0
1.48	0.0
1.495	1.0
1.51	0.0
1.524	0.0
1.539	0.0
1.554	0.0
1.569	0.0
1.584	0.0
1.598	0.0
1.613	0.0
1.628	0.0
1.643	0.0
1.658	0.0
1.672	1.0
1.687	0.0
1.702	0.0
1.717	0.0
1.732	0.0
1.746	0.0
1.761	1.0
1.776	0.0
1.791	1.0
1.806	1.0
1.82	0.0
1.835	0.0
1.85	0.0
1.865	0.0
1.88	0.0
1.894	0.0
1.909	0.0
1.924	1.0
1.939	0.0
1.954	0.0
1.968	0.0
1.983	0.0
1.998	0.0
2.013	0.0
2.028	0.0
2.042	0.0
2.057	0.0
2.072	0.0
2.087	0.0
2.101	0.0
2.116	0.0
2.131	0.0
2.146	1.0
2.161	0.0
2.175	0.0
2.19	1.0
2.205	0.0
2.22	0.0
2.235	0.0
2.249	1.0
2.264	1.0
2.279	0.0
2.294	1.0
2.308	0.0
2.323	4.0
2.338	2.0
2.353	4.0
2.368	1.0
2.382	1.0
2.397	0.0
2.412	1.0
2.427	5.0
2.442	1.0
2.456	2.0
2.471	2.0
2.486	2.0
2.501	2.0
2.515	1.0
2.53	3.0
2.545	3.0
2.56	2.0
2.575	2.0
2.589	0.0
2.604	1.0
2.619	3.0
2.634	1.0
2.649	2.0
2.663	1.0
2.678	3.0
2.693	2.0
2.708	3.0
2.722	4.0
2.737	2.0
2.752	2.0
2.767	5.0
2.782	4.0
2.796	3.0
2.811	2.0
2.826	2.0
2.841	4.0
2.856	3.0
2.87	1.0
2.885	4.0
2.9	5.0
2.915	3.0
2.93	2.0
2.944	3.0
2.959	7.0
2.974	6.0
2.989	3.0
3.004	4.0
3.018	4.0
3.033	10.0
3.048	9.0
3.063	7.0
3.078	5.0
3.092	1.0
3.107	6.0
3.122	3.0
3.137	1.0
3.152	3.0
3.166	4.0
3.181	2.0
3.196	3.0
3.211	7.0
3.226	3.0
3.24	7.0
3.255	2.0
3.27	9.0
3.285	8.0
3.3	3.0
3.315	3.0
3.329	2.0
3.344	3.0
3.359	4.0
3.374	3.0
3.389	5.0
3.403	4.0
3.418	2.0
3.433	2.0
3.448	7.0
3.463	4.0
3.478	6.0
3.492	7.0
3.507	5.0
3.522	7.0
3.537	7.0
3.552	9.0
3.567	7.0
3.581	3.0
3.596	5.0
3.611	10.0
3.626	4.0
3.641	5.0
3.656	10.0
3.671	6.0
3.685	6.0
3.7	8.0
3.715	2.0
3.73	3.0
3.745	6.0
3.76	5.0
3.775	10.0
3.789	3.0
3.804	7.0
3.819	10.0
3.834	4.0
3.849	8.0
3.864	5.0
3.879	8.0
3.894	4.0
3.908	4.0
3.923	7.0
3.938	4.0
3.953	10.0
3.968	7.0
3.983	7.0
3.998	7.0
4.013	10.0
4.027	5.0
4.042	3.0
4.057	5.0
4.072	9.0
4.087	8.0
4.102	8.0
4.117	9.0
4.132	6.0
4.147	8.0
4.162	9.0
4.176	7.0
4.191	9.0
4.206	4.0
4.221	7.0
4.236	10.0
4.251	6.0
4.266	6.0
4.281	12.0
4.296	10.0
4.311	6.0
4.326	6.0
4.341	6.0
4.356	8.0
4.37	5.0
4.385	8.0
4.4	7.0
4.415	4.0
4.43	8.0
4.445	5.0
4.46	4.0
4.475	5.0
4.49	8.0
4.505	13.0
4.52	8.0
4.535	6.0
4.55	7.0
4.565	10.0
4.58	6.0
4.595	5.0
4.61	11.0
4.625	5.0
4.639	13.0
4.654	12.0
4.669	7.0
4.684	9.0
4.699	10.0
4.714	4.0
4.729	5.0
4.744	13.0
4.759	9.0
4.774	9.0
4.789	8.0
4.804	11.0
4.819	8.0
4.834	8.0
4.849	12.0
4.864	6.0
4.879	3.0
4.894	8.0
4.909	7.0
4.924	5.0
4.939	4.0
4.954	11.0
4.969	9.0
4.984	10.0
4.999	7.0
5.014	6.0
5.029	12.0
5.044	10.0
5.059	9.0
5.074	5.0
5.089	9.0
5.104	9.0
5.119	8.0
5.134	7.0
5.149	11.0
5.164	9.0
5.179	6.0
5.194	14.0
5.209	11.0
5.224	9.0
5.239	11.0
5.254	11.0
5.269	11.0
5.284	4.0
5.299	6.0
5.314	9.0
5.329	9.0
5.344	7.0
5.359	6.0
5.374	8.0
5.389	14.0
5.404	7.0
5.419	2.0
5.434	6.0
5.449	11.0
5.464	6.0
5.479	5.0
5.494	6.0
5.509	10.0
5.524	5.0
5.539	12.0
5.554	5.0
5.569	6.0
5.584	9.0
5.599	3.0
5.614	10.0
5.629	6.0
5.644	12.0
5.659	10.0
5.674	10.0
5.689	7.0
5.704	10.0
5.719	10.0
5.734	14.0
5.749	9.0
5.764	10.0
5.779	8.0
5.794	14.0
5.809	8.0
5.824	6.0
5.839	9.0
5.854	9.0
5.869	14.0
5.884	7.0
5.899	6.0
5.914	4.0
5.929	10.0
5.944	10.0
5.959	17.0
5.974	6.0
5.989	5.0
6.004	13.0
6.019	9.0
6.034	12.0
6.049	11.0
6.064	9.0
6.079	10.0
6.094	8.0
6.109	1.0
6.124	7.0
6.139	11.0
6.154	7.0
6.169	8.0
6.184	10.0
6.199	8.0
6.214	6.0
6.229	6.0
6.244	15.0
6.259	11.0
6.274	8.0
6.289	10.0
6.304	19.0
6.319	7.0
6.334	6.0
6.349	12.0
6.364	13.0
6.379	13.0
6.394	14.0
6.409	7.0
6.424	6.0
6.439	5.0
6.454	5.0
6.469	12.0
6.484	8.0
6.499	9.0
6.514	9.0
6.529	12.0
6.544	10.0
6.559	11.0
6.574	6.0
6.589	11.0
6.604	3.0
6.619	5.0
6.634	5.0
6.649	10.0
6.664	10.0
6.679	7.0
6.694	9.0
6.709	5.0
6.724	9.0
6.739	8.0
6.754	7.0
6.769	5.0
6.784	6.0
6.799	5.0
6.814	10.0
6.829	7.0
6.844	9.0
6.859	6.0
6.873	10.0
6.888	9.0
6.903	9.0
6.918	12.0
6.933	10.0
6.948	13.0
6.963	8.0
6.978	11.0
6.993	6.0
7.008	15.0
7.023	11.0
7.038	9.0
7.053	6.0
7.068	11.0
7.083	7.0
7.098	9.0
7.113	10.0
7.128	5.0
7.143	10.0
7.157	12.0
7.172	6.0
7.187	8.0
7.202	13.0
7.217	8.0
7.232	7.0
7.247	15.0
7.262	11.0
7.277	6.0
7.292	6.0
7.307	5.0
7.322	10.0
7.336	11.0
7.351	14.0
7.366	10.0
7.381	6.0
7.396	8.0
7.411	5.0
7.426	7.0
7.441	8.0
7.456	8.0
7.471	9.0
7.485	7.0
7.5	4.0
7.515	8.0
7.53	15.0
7.545	13.0
7.56	7.0
7.575	4.0
7.59	9.0
7.604	9.0
7.619	8.0
7.634	5.0
7.649	8.0
7.664	19.0
7.679	7.0
7.693	10.0
7.708	6.0
7.723	6.0
7.738	6.0
7.753	6.0
7.768	14.0
7.783	14.0
7.797	8.0
7.812	6.0
7.827	6.0
7.842	11.0
7.857	13.0
7.871	8.0
7.886	8.0
7.901	7.0
7.916	9.0
7.931	10.0
7.945	16.0
7.96	13.0
7.975	9.0
7.99	11.0
8.005	9.0
8.019	8.0
8.034	7.0
8.049	15.0
8.064	13.0
8.078	15.0
8.093	5.0
8.108	10.0
8.123	8.0
8.137	8.0
8.152	12.0
8.167	11.0
8.182	12.0
8.196	3.0
8.211	8.0
8.226	7.0
8.241	5.0
8.255	4.0
8.27	9.0
8.285	5.0
8.3	7.0
8.314	18.0
8.329	9.0
8.344	5.0
8.358	9.0
8.373	7.0
8.388	6.0
8.403	6.0
8.417	11.0
8.432	13.0
8.447	10.0
8.461	7.0
8.476	10.0
8.491	10.0
8.505	5.0
8.52	11.0
8.535	6.0
8.55	13.0
8.564	7.0
8.579	5.0
8.594	6.0
8.608	10.0
8.623	5.0
8.638	8.0
8.652	5.0
8.667	6.0
8.682	12.0
8.696	5.0
8.711	15.0
8.726	9.0
8.74	13.0
8.755	11.0
8.77	10.0
8.784	8.0
8.799	10.0
8.814	11.0
8.828	11.0
8.843	6.0
8.858	8.0
8.872	16.0
8.887	6.0
8.902	6.0
8.916	7.0
8.931	9.0
8.946	3.0
8.96	3.0
8.975	7.0
8.99	10.0
9.004	8.0
9.019	8.0
9.034	6.0
9.048	8.0
9.063	18.0
9.077	8.0
9.092	13.0
9.107	8.0
9.121	11.0
9.136	5.0
9.151	11.0
9.165	10.0
9.18	6.0
9.195	13.0
9.209	10.0
9.224	10.0
9.239	5.0
9.253	9.0
9.268	8.0
9.283	4.0
9.297	9.0
9.312	10.0
9.327	7.0
9.341	6.0
9.356	7.0
9.371	8.0
9.385	9.0
9.4	12.0
9.415	9.0
9.429	12.0
9.444	4.0
9.458	14.0
9.473	14.0
9.488	6.0
9.502	9.0
9.517	4.0
9.532	7.0
9.546	8.0
9.561	4.0
9.576	8.0
9.59	9.0
9.605	8.0
9.62	8.0
9.635	13.0
9.649	7.0
9.664	10.0
9.679	8.0
9.693	10.0
9.708	11.0
9.723	9.0
9.737	9.0
9.752	6.0
9.767	4.0
9.781	10.0
9.796	7.0
9.811	6.0
9.825	7.0
9.84	7.0
9.855	6.0
9.87	8.0
9.884	8.0
9.899	3.0
9.914	8.0
9.928	2.0
9.943	8.0
9.958	10.0
9.973	11.0
9.987	13.0
10.002	11.0
10.017	8.0
10.031	9.0
10.046	7.0
10.061	8.0
10.076	11.0
10.09	10.0
10.105	8.0
10.12	6.0
10.135	9.0
10.149	7.0
10.164	6.0
10.179	8.0
10.194	3.0
10.208	11.0
10.223	4.0
10.238	6.0
10.253	7.0
10.267	10.0
10.282	11.0
10.297	10.0
10.312	3.0
10.326	7.0
10.341	8.0
10.356	9.0
10.371	5.0
10.386	9.0
10.4	8.0
10.415	8.0
10.43	6.0
10.445	6.0
10.46	15.0
10.474	8.0
10.489	12.0
10.504	13.0
10.519	9.0
10.533	10.0
10.548	8.0
10.563	8.0
10.578	5.0
10.593	8.0
10.608	11.0
10.622	6.0
10.637	10.0
10.652	6.0
10.667	3.0
10.682	10.0
10.696	7.0
10.711	4.0
10.726	9.0
10.741	9.0
10.756	16.0
10.771	7.0
10.785	13.0
10.8	8.0
10.815	6.0
10.83	8.0
10.845	11.0
10.86	10.0
10.874	7.0
10.889	8.0
10.904	11.0
10.919	6.0
10.934	7.0
10.949	12.0
10.963	8.0
10.978	8.0
10.993	11.0
11.008	11.0
11.023	5.0
11.038	8.0
11.053	15.0
11.067	10.0
11.082	6.0
11.097	8.0
11.112	12.0
11.127	11.0
11.142	6.0
11.157	8.0
11.172	8.0
11.186	8.0
11.201	6.0
11.216	6.0
11.231	6.0
11.246	7.0
11.261	8.0
11.276	8.0
11.291	6.0
11.305	12.0
11.32	8.0
11.335	10.0
11.35	8.0
11.365	12.0
11.38	5.0
11.395	3.0
11.41	5.0
11.424	6.0
11.439	6.0
11.454	6.0
11.469	5.0
11.484	10.0
11.499	8.0
11.514	6.0
11.529	10.0
11.544	13.0
11.558	7.0
11.573	10.0
11.588	8.0
11.603	8.0
11.618	11.0
11.633	6.0
11.648	10.0
11.663	7.0
11.678	7.0
11.693	7.0
11.707	5.0
11.722	9.0
11.737	9.0
11.752	8.0
11.767	6.0
11.782	6.0
11.797	14.0
11.812	11.0
11.827	5.0
11.842	12.0
11.856	7.0
11.871	9.0
11.886	10.0
11.901	10.0
11.916	14.0
11.931	16.0
11.946	12.0
11.961	8.0
11.976	18.0
11.991	8.0
12.006	7.0
12.02	9.0
12.035	14.0
12.05	11.0
12.065	11.0
12.08	10.0
12.095	10.0
12.11	7.0
12.125	13.0
12.14	7.0
12.155	8.0
12.17	10.0
12.184	11.0
12.199	7.0
12.214	10.0
12.229	14.0
12.244	12.0
12.259	9.0
12.274	5.0
12.289	11.0
12.304	11.0
12.319	10.0
12.334	15.0
12.348	15.0
12.363	14.0
12.378	8.0
12.393	12.0
12.408	7.0
12.423	9.0
12.438	18.0
12.453	10.0
12.468	19.0
12.483	14.0
12.498	11.0
12.513	9.0
12.527	16.0
12.542	15.0
12.557	9.0
12.572	8.0
12.587	13.0
12.602	10.0
12.617	15.0
12.632	15.0
12.647	13.0
12.662	17.0
12.677	13.0
12.692	14.0
12.707	18.0
12.721	17.0
12.736	11.0
12.751	14.0
12.766	8.0
12.781	16.0
12.796	8.0
12.811	16.0
12.826	14.0
12.841	15.0
12.856	8.0
12.871	13.0
12.886	22.0
12.9	14.0
12.915	16.0
12.93	18.0
12.945	13.0
12.96	9.0
12.975	17.0
12.99	16.0
13.005	16.0
13.02	13.0
13.035	12.0
13.05	15.0
13.065	15.0
13.08	18.0
13.094	15.0
13.109	14.0
13.124	13.0
13.139	14.0
13.154	16.0
13.169	26.0
13.184	14.0
13.199	12.0
13.214	16.0
13.229	14.0
13.244	16.0
13.259	25.0
13.274	22.0
13.288	25.0
13.303	23.0
13.318	17.0
13.333	21.0
13.348	20.0
13.363	20.0
13.378	25.0
13.393	13.0
13.408	17.0
13.423	26.0
13.438	34.0
13.453	39.0
13.468	30.0
13.482	35.0
13.497	40.0
13.512	27.0
13.527	41.0
13.542	39.0
13.557	39.0
13.572	53.0
13.587	62.0
13.602	64.0
13.617	59.0
13.632	64.0
13.647	83.0
13.662	80.0
13.677	100.0
13.691	89.0
13.706	105.0
13.721	77.0
13.736	80.0
13.751	110.0
13.766	110.0
13.781	113.0
13.796	131.0
13.811	139.0
13.826	131.0
13.841	127.0
13.856	119.0
13.871	134.0
13.885	97.0
13.9	100.0
13.915	73.0
13.93	63.0
13.945	64.0
13.96	52.0
13.975	44.0
13.99	45.0
14.005	38.0
14.02	31.0
14.035	24.0
14.05	22.0
14.065	20.0
14.08	29.0
14.094	25.0
14.109	25.0
14.124	27.0
14.139	16.0
14.154	24.0
14.169	21.0
14.184	16.0
14.199	17.0
14.214	26.0
14.229	21.0
14.244	25.0
14.259	12.0
14.274	24.0
14.288	21.0
14.303	23.0
14.318	24.0
14.333	15.0
14.348	23.0
14.363	12.0
14.378	15.0
14.393	20.0
14.408	10.0
14.423	23.0
14.438	22.0
14.453	8.0
14.468	27.0
14.482	13.0
14.497	15.0
14.512	15.0
14.527	10.0
14.542	21.0
14.557	14.0
14.572	20.0
14.587	18.0
14.602	20.0
14.617	17.0
14.632	20.0
14.647	17.0
14.661	18.0
14.676	10.0
14.691	15.0
14.706	21.0
14.721	17.0
14.736	23.0
14.751	14.0
14.766	19.0
14.781	14.0
14.796	12.0
14.811	20.0
14.826	15.0
14.84	12.0
14.855	22.0
14.87	15.0
14.885	17.0
14.9	13.0
14.915	16.0
14.93	19.0
14.945	24.0
14.96	19.0
14.975	15.0
14.989	15.0
15.004	17.0
15.019	13.0
15.034	11.0
15.049	16.0
15.064	17.0
15.079	17.0
15.094	15.0
15.109	13.0
15.124	18.0
15.138	21.0
15.153	18.0
15.168	15.0
15.183	11.0
15.198	12.0
15.213	22.0
15.228	12.0
15.243	11.0
15.258	19.0
15.272	21.0
15.287	21.0
15.302	15.0
15.317	17.0
15.332	12.0
15.347	17.0
15.362	11.0
15.377	22.0
15.391	11.0
15.406	14.0
15.421	21.0
15.436	16.0
15.451	12.0
15.466	20.0
15.481	17.0
15.496	12.0
15.51	10.0
15.525	13.0
15.54	11.0
15.555	12.0
15.57	14.0
15.585	13.0
15.6	12.0
15.614	16.0
15.629	13.0
15.644	14.0
15.659	14.0
15.674	15.0
15.689	15.0
15.704	9.0
15.718	16.0
15.733	14.0
15.748	9.0
15.763	13.0
15.778	10.0
15.793	13.0
15.808	9.0
15.822	20.0
15.837	15.0
15.852	15.0
15.867	11.0
15.882	10.0
15.897	20.0
15.911	16.0
15.926	19.0
15.941	8.0
15.956	16.0
15.971	12.0
15.986	13.0
16.0	13.0
16.015	16.0
16.03	16.0
16.045	15.0
16.06	11.0
16.074	10.0
16.089	10.0
16.104	11.0
16.119	12.0
16.134	16.0
16.149	11.0
16.163	19.0
16.178	18.0
16.193	11.0
16.208	18.0
16.223	9.0
16.237	10.0
16.252	14.0
16.267	20.0
16.282	16.0
16.297	11.0
16.311	19.0
16.326	14.0
16.341	13.0
16.356	19.0
16.37	18.0
16.385	15.0
16.4	13.0
16.415	17.0
16.43	15.0
16.444	13.0
16.459	24.0
16.474	10.0
16.489	19.0
16.504	19.0
16.518	14.0
16.533	13.0
16.548	17.0
16.563	11.0
16.577	13.0
16.592	15.0
16.607	13.0
16.622	17.0
16.637	20.0
16.651	14.0
16.666	27.0
16.681	19.0
16.696	27.0
16.71	19.0
16.725	22.0
16.74	25.0
16.755	27.0
16.77	33.0
16.784	34.0
16.799	48.0
16.814	48.0
16.829	46.0
16.843	42.0
16.858	52.0
16.873	64.0
16.888	60.0
16.902	74.0
16.917	64.0
16.932	67.0
16.947	65.0
16.961	75.0
16.976	73.0
16.991	68.0
17.006	54.0
17.021	61.0
17.035	51.0
17.05	46.0
17.065	49.0
17.08	45.0
17.094	42.0
17.109	35.0
17.124	22.0
17.139	21.0
17.153	26.0
17.168	23.0
17.183	17.0
17.198	19.0
17.212	24.0
17.227	17.0
17.242	17.0
17.257	13.0
17.271	16.0
17.286	16.0
17.301	11.0
17.316	12.0
17.33	10.0
17.345	20.0
17.36	15.0
17.375	13.0
17.39	22.0
17.404	17.0
17.419	11.0
17.434	9.0
17.449	16.0
17.463	19.0
17.478	15.0
17.493	11.0
17.508	20.0
17.522	12.0
17.537	7.0
17.552	10.0
17.567	17.0
17.581	11.0
17.596	13.0
17.611	11.0
17.626	9.0
17.641	10.0
17.655	12.0
17.67	15.0
17.685	18.0
17.7	11.0
17.714	13.0
17.729	14.0
17.744	15.0
17.759	12.0
17.773	11.0
17.788	15.0
17.803	9.0
17.818	14.0
17.833	10.0
17.847	14.0
17.862	10.0
17.877	12.0
17.892	12.0
17.906	19.0
17.921	11.0
17.936	12.0
17.951	14.0
17.966	17.0
17.98	19.0
17.995	12.0
18.01	7.0
18.025	12.0
18.04	12.0
18.054	8.0
18.069	10.0
18.084	13.0
18.099	11.0
18.114	15.0
18.128	14.0
18.143	10.0
18.158	5.0
18.173	8.0
18.188	17.0
18.202	10.0
18.217	13.0
18.232	13.0
18.247	14.0
18.262	13.0
18.276	10.0
18.291	12.0
18.306	8.0
18.321	17.0
18.336	9.0
18.35	14.0
18.365	15.0
18.38	7.0
18.395	7.0
18.41	7.0
18.424	14.0
18.439	11.0
18.454	6.0
18.469	12.0
18.484	15.0
18.498	7.0
18.513	12.0
18.528	17.0
18.543	12.0
18.558	8.0
18.573	13.0
18.587	9.0
18.602	9.0
18.617	8.0
18.632	12.0
18.647	8.0
18.661	10.0
18.676	15.0
18.691	9.0
18.706	14.0
18.721	3.0
18.736	11.0
18.75	15.0
18.765	11.0
18.78	11.0
18.795	8.0
18.81	13.0
18.825	17.0
18.839	15.0
18.854	17.0
18.869	8.0
18.884	9.0
18.899	14.0
18.913	10.0
18.928	24.0
18.943	12.0
18.958	7.0
18.973	20.0
18.988	17.0
19.002	16.0
19.017	12.0
19.032	13.0
19.047	11.0
19.062	8.0
19.077	17.0
19.091	13.0
19.106	13.0
19.121	11.0
19.136	9.0
19.151	14.0
19.165	13.0
19.18	10.0
19.195	11.0
19.21	12.0
19.225	7.0
19.24	9.0
19.254	12.0
19.269	13.0
19.284	16.0
19.299	10.0
19.314	14.0
19.329	17.0
19.343	18.0
19.358	8.0
19.373	25.0
19.388	18.0
19.403	14.0
19.417	24.0
19.432	25.0
19.447	26.0
19.462	35.0
19.477	30.0
19.492	26.0
19.506	35.0
19.521	24.0
19.536	30.0
19.551	25.0
19.566	45.0
19.58	42.0
19.595	41.0
19.61	39.0
19.625	50.0
19.64	50.0
19.655	33.0
19.669	32.0
19.684	29.0
19.699	22.0
19.714	34.0
19.729	25.0
19.743	19.0
19.758	16.0
19.773	17.0
19.788	19.0
19.803	24.0
19.817	14.0
19.832	16.0
19.847	13.0
19.862	12.0
19.877	8.0
19.891	14.0
19.906	11.0
19.921	14.0
19.936	9.0
19.951	13.0
19.965	10.0
19.98	7.0
19.995	13.0
20.01	11.0
20.025	17.0
20.039	13.0
20.054	8.0
20.069	12.0
20.084	5.0
20.099	12.0
20.113	9.0
20.128	12.0
20.143	14.0
20.158	14.0
20.173	12.0
20.187	9.0
20.202	9.0
20.217	10.0
20.232	7.0
20.246	12.0
20.261	18.0
20.276	13.0
20.291	17.0
20.306	14.0
20.32	6.0
20.335	10.0
20.35	14.0
20.365	12.0
20.38	14.0
20.394	11.0
20.409	11.0
20.424	13.0
20.439	9.0
20.453	11.0
20.468	14.0
20.483	16.0
20.498	15.0
20.513	10.0
20.527	16.0
20.542	9.0
20.557	7.0
20.572	10.0
20.586	10.0
20.601	6.0
20.616	10.0
20.631	7.0
20.646	11.0
20.66	10.0
20.675	10.0
20.69	18.0
20.705	12.0
20.719	17.0
20.734	14.0
20.749	13.0
20.764	12.0
20.779	12.0
20.793	9.0
20.808	15.0
20.823	14.0
20.838	7.0
20.853	17.0
20.867	8.0
20.882	10.0
20.897	15.0
20.912	17.0
20.926	14.0
20.941	13.0
20.956	8.0
20.971	18.0
20.986	5.0
21.0	7.0
21.015	7.0
21.03	12.0
21.045	11.0
21.06	9.0
21.074	11.0
21.089	8.0
21.104	14.0
21.119	10.0
21.134	10.0
21.148	15.0
21.163	17.0
21.178	9.0
21.193	9.0
21.208	6.0
21.222	8.0
21.237	6.0
21.252	15.0
21.267	10.0
21.282	15.0
21.296	11.0
21.311	13.0
21.326	13.0
21.341	6.0
21.356	12.0
21.37	15.0
21.385	8.0
21.4	12.0
21.415	12.0
21.43	13.0
21.444	15.0
21.459	11.0
21.474	8.0
21.489	20.0
21.504	12.0
21.519	14.0
21.533	11.0
21.548	10.0
21.563	23.0
21.578	13.0
21.593	12.0
21.608	9.0
21.622	14.0
21.637	16.0
21.652	17.0
21.667	14.0
21.682	19.0
21.697	27.0
21.712	19.0
21.726	21.0
21.741	26.0
21.756	35.0
21.771	29.0
21.786	39.0
21.801	34.0
21.816	43.0
21.83	45.0
21.845	53.0
21.86	51.0
21.875	60.0
21.89	69.0
21.905	72.0
21.92	79.0
21.935	77.0
21.949	81.0
21.964	74.0
21.979	79.0
21.994	85.0
22.009	67.0
22.024	69.0
22.039	48.0
22.054	63.0
22.069	70.0
22.083	48.0
22.098	37.0
22.113	29.0
22.128	31.0
22.143	33.0
22.158	25.0
22.173	20.0
22.188	23.0
22.203	15.0
22.218	19.0
22.233	12.0
22.248	19.0
22.262	12.0
22.277	11.0
22.292	15.0
22.307	18.0
22.322	11.0
22.337	7.0
22.352	14.0
22.367	10.0
22.382	15.0
22.397	9.0
22.412	11.0
22.427	7.0
22.442	18.0
22.457	19.0
22.472	11.0
22.487	11.0
22.502	11.0
22.516	13.0
22.531	11.0
22.546	11.0
22.561	7.0
22.576	21.0
22.591	12.0
22.606	12.0
22.621	15.0
22.636	8.0
22.651	16.0
22.666	11.0
22.681	8.0
22.696	10.0
22.711	13.0
22.726	13.0
22.741	13.0
22.756	10.0
22.771	9.0
22.786	12.0
22.801	9.0
22.816	11.0
22.831	11.0
22.846	16.0
22.861	12.0
22.876	12.0
22.891	9.0
22.906	5.0
22.92	6.0
22.935	19.0
22.95	11.0
22.965	3.0
22.98	7.0
22.995	9.0
23.01	14.0
23.025	10.0
23.04	17.0
23.055	5.0
23.07	11.0
23.085	13.0
23.1	6.0
23.115	15.0
23.13	9.0
23.145	6.0
23.16	8.0
23.175	7.0
23.19	8.0
23.205	9.0
23.22	7.0
23.235	8.0
23.25	14.0
23.265	6.0
23.28	10.0
23.295	11.0
23.31	16.0
23.325	7.0
23.34	13.0
23.355	7.0
23.37	8.0
23.384	7.0
23.399	12.0
23.414	11.0
23.429	11.0
23.444	6.0
23.459	11.0
23.474	14.0
23.489	3.0
23.504	16.0
23.519	9.0
23.534	14.0
23.549	14.0
23.564	10.0
23.579	11.0
23.594	13.0
23.609	11.0
23.624	16.0
23.639	9.0
23.654	13.0
23.668	11.0
23.683	13.0
23.698	14.0
23.713	10.0
23.728	4.0
23.743	11.0
23.758	9.0
23.773	19.0
23.788	17.0
23.803	19.0
23.818	21.0
23.833	12.0
23.848	20.0
23.862	13.0
23.877	14.0
23.892	21.0
23.907	17.0
23.922	25.0
23.937	19.0
23.952	30.0
23.967	38.0
23.982	41.0
23.997	46.0
24.011	42.0
24.026	27.0
24.041	48.0
24.056	49.0
24.071	41.0
24.086	48.0
24.101	47.0
24.116	50.0
24.131	54.0
24.145	41.0
24.16	50.0
24.175	31.0
24.19	33.0
24.205	38.0
24.22	32.0
24.235	32.0
24.249	33.0
24.264	24.0
24.279	21.0
24.294	18.0
24.309	25.0
24.324	24.0
24.338	16.0
24.353	13.0
24.368	13.0
24.383	12.0
24.398	17.0
24.413	17.0
24.428	7.0
24.442	13.0
24.457	13.0
24.472	9.0
24.487	12.0
24.502	13.0
24.516	13.0
24.531	14.0
24.546	7.0
24.561	18.0
24.576	9.0
24.591	10.0
24.605	12.0
24.62	7.0
24.635	10.0
24.65	9.0
24.665	15.0
24.679	14.0
24.694	8.0
24.709	13.0
24.724	19.0
24.739	8.0
24.753	10.0
24.768	7.0
24.783	10.0
24.798	6.0
24.813	9.0
24.827	14.0
24.842	10.0
24.857	18.0
24.872	10.0
24.886	6.0
24.901	14.0
24.916	10.0
24.931	8.0
24.946	9.0
24.96	14.0
24.975	11.0
24.99	8.0
25.005	13.0
25.019	10.0
25.034	12.0
25.049	9.0
25.064	7.0
25.078	9.0
25.093	9.0
25.108	9.0
25.123	7.0
25.138	12.0
25.152	15.0
25.167	10.0
25.182	5.0
25.197	7.0
25.211	4.0
25.226	16.0
25.241	16.0
25.256	11.0
25.27	13.0
25.285	11.0
25.3	13.0
25.315	13.0
25.329	9.0
25.344	12.0
25.359	11.0
25.374	5.0
25.388	15.0
25.403	13.0
25.418	12.0
25.433	12.0
25.447	10.0
25.462	10.0
25.477	11.0
25.492	17.0
25.506	12.0
25.521	10.0
25.536	14.0
25.55	11.0
25.565	12.0
25.58	8.0
25.595	12.0
25.609	12.0
25.624	13.0
25.639	8.0
25.654	5.0
25.668	13.0
25.683	7.0
25.698	4.0
25.713	5.0
25.727	12.0
25.742	8.0
25.757	12.0
25.772	9.0
25.786	7.0
25.801	10.0
25.816	8.0
25.83	12.0
25.845	11.0
25.86	8.0
25.875	15.0
25.889	12.0
25.904	12.0
25.919	4.0
25.934	6.0
25.948	13.0
25.963	8.0
25.978	9.0
25.992	8.0
26.007	13.0
26.022	8.0
26.037	9.0
26.051	5.0
26.066	10.0
26.081	13.0
26.096	15.0
26.11	6.0
26.125	10.0
26.14	12.0
26.155	8.0
26.169	8.0
26.184	14.0
26.199	11.0
26.213	13.0
26.228	14.0
26.243	13.0
26.258	4.0
26.272	11.0
26.287	10.0
26.302	3.0
26.317	11.0
26.331	11.0
26.346	10.0
26.361	10.0
26.376	10.0
26.39	15.0
26.405	8.0
26.42	9.0
26.434	7.0
26.449	8.0
26.464	8.0
26.479	11.0
26.493	13.0
26.508	15.0
26.523	5.0
26.538	10.0
26.552	8.0
26.567	9.0
26.582	5.0
26.597	13.0
26.611	7.0
26.626	10.0
26.641	11.0
26.656	6.0
26.67	9.0
26.685	5.0
26.7	11.0
26.715	11.0
26.729	12.0
26.744	9.0
26.759	6.0
26.773	13.0
26.788	13.0
26.803	10.0
26.818	8.0
26.832	4.0
26.847	4.0
26.862	7.0
26.877	7.0
26.891	9.0
26.906	12.0
26.921	9.0
26.936	15.0
26.95	9.0
26.965	10.0
26.98	9.0
26.995	13.0
27.01	10.0
27.024	7.0
27.039	10.0
27.054	6.0
27.069	5.0
27.083	10.0
27.098	5.0
27.113	8.0
27.128	13.0
27.142	8.0
27.157	15.0
27.172	10.0
27.187	15.0
27.201	7.0
27.216	6.0
27.231	14.0
27.246	13.0
27.261	4.0
27.275	7.0
27.29	11.0
27.305	12.0
27.32	12.0
27.334	12.0
27.349	8.0
27.364	10.0
27.379	12.0
27.394	6.0
27.408	13.0
27.423	6.0
27.438	15.0
27.453	10.0
27.467	16.0
27.482	12.0
27.497	8.0
27.512	10.0
27.527	10.0
27.541	6.0
27.556	9.0
27.571	9.0
27.586	14.0
27.601	9.0
27.615	7.0
27.63	10.0
27.645	17.0
27.66	6.0
27.675	8.0
27.689	7.0
27.704	12.0
27.719	12.0
27.734	17.0
27.749	17.0
27.763	18.0
27.778	11.0
27.793	15.0
27.808	21.0
27.823	26.0
27.838	17.0
27.852	20.0
27.867	28.0
27.882	24.0
27.897	26.0
27.912	28.0
27.926	20.0
27.941	23.0
27.956	20.0
27.971	18.0
27.986	17.0
28.001	16.0
28.015	18.0
28.03	16.0
28.045	6.0
28.06	15.0
28.075	14.0
28.09	17.0
28.105	20.0
28.119	13.0
28.134	11.0
28.149	11.0
28.164	12.0
28.179	9.0
28.194	9.0
28.208	15.0
28.223	12.0
28.238	9.0
28.253	10.0
28.268	8.0
28.283	5.0
28.298	9.0
28.312	9.0
28.327	11.0
28.342	14.0
28.357	15.0
28.372	13.0
28.387	5.0
28.402	17.0
28.417	5.0
28.431	9.0
28.446	12.0
28.461	4.0
28.476	10.0
28.491	4.0
28.506	12.0
28.521	11.0
28.536	9.0
28.55	9.0
28.565	10.0
28.58	22.0
28.595	11.0
28.61	14.0
28.625	18.0
28.64	17.0
28.655	17.0
28.669	8.0
28.684	6.0
28.699	7.0
28.714	12.0
28.729	9.0
28.744	8.0
28.759	12.0
28.774	6.0
28.788	17.0
28.803	15.0
28.818	12.0
28.833	10.0
28.848	12.0
28.863	7.0
28.878	15.0
28.893	7.0
28.908	13.0
28.922	10.0
28.937	11.0
28.952	15.0
28.967	13.0
28.982	12.0
28.997	8.0
29.012	13.0
29.027	11.0
29.041	8.0
29.056	11.0
29.071	10.0
29.086	11.0
29.101	14.0
29.116	9.0
29.131	13.0
29.146	10.0
29.16	10.0
29.175	10.0
29.19	12.0
29.205	12.0
29.22	16.0
29.235	11.0
29.25	11.0
29.265	15.0
29.279	11.0
29.294	4.0
29.309	16.0
29.324	10.0
29.339	13.0
29.354	13.0
29.369	13.0
29.384	15.0
29.398	25.0
29.413	15.0
29.428	18.0
29.443	15.0
29.458	20.0
29.473	24.0
29.488	30.0
29.502	22.0
29.517	26.0
29.532	46.0
29.547	44.0
29.562	50.0
29.577	43.0
29.592	36.0
29.606	53.0
29.621	63.0
29.636	50.0
29.651	46.0
29.666	39.0
29.681	36.0
29.695	20.0
29.71	34.0
29.725	34.0
29.74	36.0
29.755	26.0
29.77	22.0
29.784	35.0
29.799	33.0
29.814	39.0
29.829	27.0
29.844	18.0
29.859	18.0
29.873	26.0
29.888	18.0
29.903	16.0
29.918	15.0
29.933	21.0
29.947	11.0
29.962	13.0
29.977	12.0
29.992	8.0
30.007	11.0
30.021	6.0
30.036	16.0
30.051	13.0
30.066	13.0
30.081	10.0
30.095	16.0
30.11	17.0
30.125	6.0
30.14	10.0
30.155	7.0
30.169	17.0
30.184	10.0
30.199	12.0
30.214	10.0
30.228	16.0
30.243	16.0
30.258	7.0
30.273	10.0
30.288	9.0
30.302	8.0
30.317	13.0
30.332	8.0
30.347	8.0
30.361	14.0
30.376	10.0
30.391	14.0
30.406	9.0
30.42	15.0
30.435	10.0
30.45	9.0
30.465	10.0
30.479	13.0
30.494	15.0
30.509	14.0
30.524	14.0
30.538	14.0
30.553	12.0
30.568	17.0
30.583	5.0
30.597	12.0
30.612	12.0
30.627	14.0
30.641	9.0
30.656	15.0
30.671	9.0
30.686	11.0
30.7	13.0
30.715	8.0
30.73	8.0
30.745	12.0
30.759	12.0
30.774	15.0
30.789	16.0
30.803	12.0
30.818	14.0
30.833	7.0
30.848	10.0
30.862	12.0
30.877	11.0
30.892	13.0
30.906	9.0
30.921	11.0
30.936	10.0
30.951	7.0
30.965	11.0
30.98	14.0
30.995	18.0
31.009	11.0
31.024	7.0
31.039	14.0
31.053	8.0
31.068	12.0
31.083	13.0
31.098	16.0
31.112	14.0
31.127	22.0
31.142	17.0
31.156	21.0
31.171	34.0
31.186	38.0
31.2	39.0
31.215	42.0
31.23	32.0
31.245	38.0
31.259	32.0
31.274	35.0
31.289	37.0
31.303	53.0
31.318	36.0
31.333	26.0
31.347	22.0
31.362	27.0
31.377	25.0
31.392	18.0
31.406	34.0
31.421	25.0
31.436	29.0
31.45	19.0
31.465	22.0
31.48	20.0
31.494	28.0
31.509	19.0
31.524	16.0
31.538	22.0
31.553	8.0
31.568	18.0
31.583	15.0
31.597	10.0
31.612	12.0
31.627	8.0
31.641	17.0
31.656	18.0
31.671	9.0
31.685	10.0
31.7	6.0
31.715	13.0
31.729	14.0
31.744	6.0
31.759	12.0
31.774	15.0
31.788	15.0
31.803	9.0
31.818	8.0
31.832	11.0
31.847	12.0
31.862	11.0
31.876	10.0
31.891	9.0
31.906	13.0
31.92	11.0
31.935	11.0
31.95	9.0
31.965	11.0
31.979	10.0
31.994	8.0
32.009	8.0
32.023	16.0
32.038	13.0
32.053	13.0
32.067	11.0
32.082	8.0
32.097	15.0
32.112	9.0
32.126	6.0
32.141	9.0
32.156	8.0
32.17	14.0
32.185	11.0
32.2	9.0
32.214	12.0
32.229	16.0
32.244	8.0
32.259	11.0
32.273	12.0
32.288	12.0
32.303	11.0
32.317	11.0
32.332	16.0
32.347	9.0
32.362	9.0
32.376	10.0
32.391	14.0
32.406	6.0
32.42	13.0
32.435	6.0
32.45	10.0
32.465	11.0
32.479	12.0
32.494	10.0
32.509	8.0
32.523	12.0
32.538	8.0
32.553	8.0
32.568	17.0
32.582	10.0
32.597	13.0
32.612	16.0
32.627	13.0
32.641	9.0
32.656	10.0
32.671	12.0
32.685	12.0
32.7	17.0
32.715	17.0
32.73	20.0
32.744	15.0
32.759	17.0
32.774	18.0
32.788	31.0
32.803	30.0
32.818	25.0
32.833	24.0
32.847	26.0
32.862	24.0
32.877	29.0
32.892	24.0
32.906	23.0
32.921	23.0
32.936	20.0
32.951	10.0
32.965	21.0
32.98	14.0
32.995	20.0
33.009	18.0
33.024	24.0
33.039	12.0
33.054	19.0
33.068	16.0
33.083	13.0
33.098	16.0
33.113	14.0
33.127	7.0
33.142	9.0
33.157	8.0
33.172	10.0
33.186	13.0
33.201	13.0
33.216	9.0
33.231	12.0
33.245	11.0
33.26	9.0
33.275	12.0
33.29	7.0
33.304	8.0
33.319	8.0
33.334	9.0
33.349	11.0
33.363	13.0
33.378	4.0
33.393	10.0
33.408	10.0
33.422	4.0
33.437	6.0
33.452	11.0
33.467	13.0
33.481	14.0
33.496	12.0
33.511	10.0
33.526	8.0
33.54	10.0
33.555	15.0
33.57	9.0
33.585	15.0
33.599	9.0
33.614	13.0
33.629	15.0
33.644	8.0
33.658	15.0
33.673	16.0
33.688	14.0
33.703	17.0
33.718	4.0
33.732	8.0
33.747	16.0
33.762	7.0
33.777	9.0
33.791	5.0
33.806	13.0
33.821	6.0
33.836	5.0
33.85	3.0
33.865	12.0
33.88	7.0
33.895	5.0
33.91	15.0
33.924	10.0
33.939	12.0
33.954	5.0
33.969	15.0
33.983	11.0
33.998	11.0
34.013	8.0
34.028	7.0
34.042	8.0
34.057	7.0
34.072	10.0
34.087	11.0
34.102	9.0
34.116	10.0
34.131	20.0
34.146	15.0
34.161	17.0
34.175	11.0
34.19	17.0
34.205	13.0
34.22	12.0
34.235	13.0
34.249	11.0
34.264	12.0
34.279	19.0
34.294	14.0
34.309	17.0
34.323	15.0
34.338	13.0
34.353	10.0
34.368	19.0
34.382	14.0
34.397	11.0
34.412	9.0
34.427	15.0
34.442	9.0
34.456	12.0
34.471	10.0
34.486	14.0
34.501	17.0
34.516	12.0
34.53	11.0
34.545	15.0
34.56	7.0
34.575	8.0
34.59	13.0
34.604	8.0
34.619	11.0
34.634	7.0
34.649	10.0
34.664	6.0
34.678	16.0
34.693	11.0
34.708	10.0
34.723	14.0
34.738	7.0
34.752	9.0
34.767	6.0
34.782	10.0
34.797	5.0
34.812	11.0
34.826	6.0
34.841	13.0
34.856	13.0
34.871	11.0
34.886	6.0
34.9	14.0
34.915	14.0
34.93	15.0
34.945	2.0
34.96	17.0
34.974	8.0
34.989	6.0
35.004	7.0
35.019	6.0
35.034	9.0
35.048	4.0
35.063	8.0
35.078	11.0
35.093	12.0
35.108	9.0
35.122	5.0
35.137	9.0
35.152	13.0
35.167	5.0
35.182	13.0
35.196	17.0
35.211	7.0
35.226	8.0
35.241	8.0
35.256	10.0
35.27	10.0
35.285	11.0
35.3	5.0
35.315	12.0
35.33	11.0
35.344	13.0
35.359	10.0
35.374	5.0
35.389	5.0
35.404	13.0
35.418	11.0
35.433	5.0
35.448	13.0
35.463	4.0
35.478	9.0
35.493	14.0
35.507	9.0
35.522	9.0
35.537	9.0
35.552	9.0
35.567	13.0
35.581	5.0
35.596	13.0
35.611	6.0
35.626	7.0
35.641	12.0
35.655	12.0
35.67	11.0
35.685	13.0
35.7	16.0
35.715	24.0
35.729	15.0
35.744	16.0
35.759	24.0
35.774	20.0
35.789	14.0
35.804	15.0
35.818	17.0
35.833	20.0
35.848	13.0
35.863	11.0
35.878	19.0
35.892	17.0
35.907	14.0
35.922	15.0
35.937	13.0
35.952	11.0
35.966	16.0
35.981	14.0
35.996	17.0
36.011	19.0
36.026	13.0
36.04	12.0
36.055	23.0
36.07	10.0
36.085	3.0
36.1	8.0
36.114	11.0
36.129	7.0
36.144	5.0
36.159	6.0
36.174	10.0
36.189	6.0
36.203	9.0
36.218	7.0
36.233	12.0
36.248	9.0
36.263	11.0
36.277	9.0
36.292	9.0
36.307	14.0
36.322	7.0
36.337	8.0
36.351	9.0
36.366	13.0
36.381	7.0
36.396	6.0
36.411	8.0
36.426	10.0
36.44	12.0
36.455	10.0
36.47	7.0
36.485	12.0
36.5	9.0
36.514	9.0
36.529	10.0
36.544	13.0
36.559	11.0
36.574	6.0
36.589	8.0
36.603	6.0
36.618	14.0
36.633	9.0
36.648	8.0
36.663	10.0
36.677	8.0
36.692	4.0
36.707	8.0
36.722	7.0
36.737	10.0
36.752	5.0
36.766	4.0
36.781	6.0
36.796	6.0
36.811	9.0
36.826	9.0
36.841	10.0
36.855	7.0
36.87	12.0
36.885	4.0
36.9	4.0
36.915	8.0
36.93	12.0
36.944	9.0
36.959	12.0
36.974	7.0
36.989	17.0
37.004	14.0
37.019	5.0
37.033	11.0
37.048	16.0
37.063	13.0
37.078	8.0
37.093	18.0
37.108	22.0
37.123	22.0
37.137	23.0
37.152	30.0
37.167	25.0
37.182	31.0
37.197	32.0
37.212	29.0
37.226	34.0
37.241	20.0
37.256	16.0
37.271	18.0
37.286	18.0
37.301	18.0
37.316	14.0
37.331	14.0
37.345	16.0
37.36	11.0
37.375	23.0
37.39	28.0
37.405	14.0
37.42	20.0
37.435	14.0
37.45	17.0
37.464	17.0
37.479	19.0
37.494	12.0
37.509	7.0
37.524	7.0
37.539	15.0
37.554	8.0
37.569	12.0
37.583	7.0
37.598	6.0
37.613	6.0
37.628	8.0
37.643	6.0
37.658	7.0
37.673	6.0
37.688	9.0
37.703	7.0
37.718	2.0
37.733	5.0
37.747	8.0
37.762	10.0
37.777	7.0
37.792	8.0
37.807	1.0
37.822	8.0
37.837	8.0
37.852	8.0
37.867	8.0
37.882	5.0
37.897	8.0
37.912	7.0
37.927	5.0
37.941	8.0
37.956	8.0
37.971	9.0
37.986	9.0
38.001	6.0
38.016	6.0
38.031	12.0
38.046	6.0
38.061	15.0
38.076	5.0
38.091	8.0
38.106	6.0
38.121	3.0
38.136	7.0
38.151	2.0
38.166	7.0
38.181	2.0
38.196	6.0
38.211	10.0
38.226	6.0
38.241	2.0
38.256	6.0
38.271	6.0
38.285	7.0
38.3	5.0
38.315	1.0
38.33	15.0
38.345	7.0
38.36	7.0
38.375	5.0
38.39	2.0
38.405	8.0
38.42	7.0
38.435	10.0
38.45	4.0
38.465	5.0
38.48	8.0
38.495	7.0
38.51	9.0
38.525	6.0
38.54	5.0
38.555	7.0
38.57	6.0
38.585	6.0
38.6	9.0
38.615	4.0
38.63	5.0
38.645	5.0
38.66	13.0
38.675	6.0
38.69	5.0
38.705	4.0
38.72	5.0
38.735	8.0
38.75	7.0
38.765	7.0
38.78	5.0
38.795	3.0
38.81	6.0
38.825	4.0
38.84	2.0
38.855	5.0
38.87	6.0
38.885	6.0
38.9	1.0
38.915	7.0
38.93	4.0
38.945	1.0
38.96	6.0
38.975	8.0
38.99	4.0
39.005	7.0
39.02	10.0
39.035	7.0
39.05	3.0
39.065	2.0
39.08	4.0
39.095	5.0
39.11	5.0
39.125	5.0
39.14	7.0
39.155	3.0
39.17	8.0
39.185	8.0
39.2	4.0
39.215	8.0
39.23	14.0
39.245	7.0
39.26	8.0
39.275	2.0
39.29	3.0
39.305	9.0
39.32	7.0
39.335	6.0
39.35	4.0
39.365	3.0
39.38	6.0
39.395	14.0
39.409	5.0
39.424	5.0
39.439	5.0
39.454	6.0
39.469	11.0
39.484	3.0
39.499	2.0
39.514	7.0
39.529	7.0
39.544	10.0
39.559	6.0
39.574	8.0
39.589	3.0
39.604	5.0
39.619	2.0
39.634	6.0
39.649	3.0
39.664	7.0
39.678	4.0
39.693	9.0
39.708	5.0
39.723	9.0
39.738	4.0
39.753	11.0
39.768	1.0
39.783	3.0
39.798	11.0
39.813	6.0
39.827	8.0
39.842	6.0
39.857	17.0
39.872	7.0
39.887	13.0
39.902	10.0
39.917	9.0
39.932	7.0
39.947	8.0
39.961	7.0
39.976	10.0
39.991	6.0
40.006	2.0
40.021	9.0
40.036	8.0
40.051	7.0
40.065	8.0
40.08	4.0
40.095	9.0
40.11	8.0
40.125	10.0
40.14	9.0
40.154	7.0
40.169	8.0
40.184	5.0
40.199	4.0
40.214	8.0
40.228	5.0
40.243	3.0
40.258	7.0
40.273	7.0
40.288	3.0
40.302	6.0
40.317	5.0
40.332	3.0
40.347	7.0
40.362	4.0
40.376	9.0
40.391	8.0
40.406	5.0
40.421	6.0
40.436	6.0
40.45	7.0
40.465	11.0
40.48	7.0
40.495	6.0
40.509	9.0
40.524	7.0
40.539	8.0
40.554	4.0
40.568	2.0
40.583	7.0
40.598	5.0
40.613	10.0
40.627	9.0
40.642	5.0
40.657	6.0
40.672	4.0
40.686	6.0
40.701	6.0
40.716	3.0
40.731	6.0
40.745	4.0
40.76	6.0
40.775	1.0
40.79	2.0
40.804	9.0
40.819	8.0
40.834	5.0
40.849	5.0
40.863	3.0
40.878	11.0
40.893	5.0
40.907	10.0
40.922	5.0
40.937	8.0
40.952	7.0
40.966	8.0
40.981	16.0
40.996	10.0
41.011	15.0
41.025	11.0
41.04	8.0
41.055	11.0
41.069	17.0
41.084	13.0
41.099	25.0
41.114	21.0
41.128	23.0
41.143	24.0
41.158	29.0
41.173	11.0
41.187	14.0
41.202	17.0
41.217	10.0
41.231	13.0
41.246	8.0
41.261	16.0
41.276	12.0
41.29	13.0
41.305	13.0
41.32	13.0
41.335	13.0
41.349	17.0
41.364	14.0
41.379	12.0
41.393	15.0
41.408	10.0
41.423	15.0
41.438	9.0
41.452	8.0
41.467	11.0
41.482	7.0
41.497	10.0
41.511	4.0
41.526	8.0
41.541	11.0
41.556	5.0
41.57	8.0
41.585	3.0
41.6	5.0
41.615	5.0
41.629	6.0
41.644	7.0
41.659	1.0
41.674	6.0
41.688	4.0
41.703	7.0
41.718	4.0
41.733	2.0
41.747	4.0
41.762	7.0
41.777	2.0
41.792	3.0
41.806	7.0
41.821	7.0
41.836	6.0
41.851	4.0
41.866	11.0
41.88	7.0
41.895	5.0
41.91	4.0
41.925	3.0
41.939	6.0
41.954	3.0
41.969	6.0
41.984	6.0
41.999	9.0
42.013	1.0
42.028	10.0
42.043	10.0
42.058	5.0
42.073	4.0
42.088	7.0
42.102	6.0
42.117	3.0
42.132	3.0
42.147	6.0
42.162	6.0
42.176	3.0
42.191	5.0
42.206	8.0
42.221	5.0
42.236	9.0
42.251	9.0
42.266	15.0
42.28	10.0
42.295	15.0
42.31	7.0
42.325	11.0
42.34	14.0
42.355	12.0
42.369	24.0
42.384	10.0
42.399	15.0
42.414	12.0
42.429	15.0
42.444	14.0
42.459	11.0
42.474	11.0
42.488	13.0
42.503	9.0
42.518	8.0
42.533	9.0
42.548	11.0
42.563	6.0
42.578	12.0
42.593	9.0
42.608	8.0
42.622	11.0
42.637	10.0
42.652	7.0
42.667	11.0
42.682	17.0
42.697	17.0
42.712	10.0
42.727	10.0
42.742	8.0
42.757	11.0
42.772	11.0
42.786	6.0
42.801	6.0
42.816	6.0
42.831	6.0
42.846	3.0
42.861	6.0
42.876	4.0
42.891	2.0
42.906	9.0
42.921	4.0
42.936	8.0
42.951	6.0
42.966	5.0
42.981	3.0
42.996	2.0
43.011	8.0
43.025	7.0
43.04	5.0
43.055	8.0
43.07	13.0
43.085	7.0
43.1	4.0
43.115	7.0
43.13	2.0
43.145	5.0
43.16	7.0
43.175	6.0
43.19	8.0
43.205	3.0
43.22	2.0
43.235	5.0
43.25	6.0
43.265	4.0
43.28	4.0
43.295	4.0
43.31	5.0
43.325	7.0
43.34	3.0
43.355	9.0
43.37	6.0
43.385	3.0
43.4	5.0
43.415	2.0
43.43	3.0
43.445	5.0
43.46	6.0
43.475	7.0
43.49	11.0
43.505	6.0
43.52	6.0
43.535	5.0
43.55	10.0
43.565	5.0
43.58	9.0
43.595	12.0
43.61	8.0
43.625	11.0
43.64	9.0
43.655	4.0
43.67	7.0
43.685	11.0
43.7	5.0
43.715	8.0
43.73	8.0
43.745	5.0
43.76	3.0
43.775	8.0
43.79	9.0
43.805	9.0
43.82	7.0
43.835	3.0
43.85	5.0
43.865	7.0
43.88	7.0
43.895	3.0
43.91	8.0
43.925	4.0
43.94	11.0
43.955	10.0
43.97	6.0
43.985	10.0
44.0	4.0
44.015	1.0
44.03	8.0
44.045	6.0
44.061	2.0
44.076	5.0
44.091	8.0
44.106	3.0
44.121	7.0
44.136	8.0
44.151	7.0
44.166	4.0
44.181	2.0
44.196	5.0
44.211	7.0
44.226	5.0
44.241	4.0
44.256	4.0
44.271	6.0
44.286	3.0
44.301	3.0
44.316	6.0
44.331	5.0
44.346	5.0
44.361	3.0
44.377	3.0
44.392	5.0
44.407	3.0
44.422	6.0
44.437	4.0
44.452	7.0
44.467	4.0
44.482	5.0
44.497	7.0
44.512	7.0
44.527	5.0
44.542	3.0
44.557	5.0
44.572	5.0
44.587	8.0
44.602	2.0
44.617	5.0
44.632	1.0
44.647	1.0
44.663	5.0
44.678	6.0
44.693	7.0
44.708	6.0
44.723	7.0
44.738	8.0
44.753	9.0
44.768	4.0
44.783	11.0
44.798	12.0
44.813	8.0
44.828	15.0
44.843	13.0
44.858	11.0
44.873	11.0
44.888	7.0
44.903	6.0
44.918	8.0
44.933	10.0
44.948	5.0
44.964	8.0
44.979	8.0
44.994	4.0
45.009	6.0
45.024	8.0
45.039	10.0
45.054	5.0
45.069	13.0
45.084	14.0
45.099	7.0
45.114	8.0
45.129	8.0
45.144	11.0
45.159	8.0
45.174	9.0
45.189	6.0
45.204	11.0
45.219	10.0
45.234	2.0
45.249	5.0
45.264	3.0
45.279	6.0
45.294	5.0
45.309	4.0
45.324	4.0
45.339	6.0
45.354	5.0
45.369	10.0
45.384	2.0
45.399	2.0
45.414	8.0
45.429	5.0
45.444	4.0
45.459	5.0
45.474	5.0
45.489	4.0
45.504	5.0
45.519	6.0
45.534	1.0
45.549	8.0
45.564	5.0
45.579	2.0
45.594	5.0
45.609	6.0
45.624	10.0
45.639	7.0
45.654	2.0
45.669	3.0
45.684	5.0
45.699	8.0
45.714	9.0
45.729	2.0
45.744	5.0
45.759	3.0
45.774	6.0
45.789	4.0
45.804	3.0
45.819	6.0
45.834	6.0
45.849	6.0
45.864	9.0
45.879	17.0
45.894	13.0
45.909	16.0
45.924	16.0
45.939	15.0
45.954	21.0
45.969	15.0
45.984	19.0
45.998	17.0
46.013	11.0
46.028	13.0
46.043	15.0
46.058	19.0
46.073	7.0
46.088	8.0
46.103	10.0
46.118	6.0
46.133	6.0
46.148	4.0
46.163	10.0
46.178	7.0
46.192	12.0
46.207	12.0
46.222	10.0
46.237	12.0
46.252	13.0
46.267	12.0
46.282	13.0
46.297	11.0
46.312	12.0
46.327	12.0
46.341	12.0
46.356	11.0
46.371	7.0
46.386	3.0
46.401	5.0
46.416	7.0
46.431	8.0
46.446	2.0
46.46	7.0
46.475	6.0
46.49	5.0
46.505	10.0
46.52	6.0
46.535	5.0
46.55	4.0
46.564	6.0
46.579	3.0
46.594	2.0
46.609	5.0
46.624	4.0
46.639	6.0
46.654	5.0
46.668	11.0
46.683	3.0
46.698	7.0
46.713	7.0
46.728	6.0
46.743	3.0
46.758	6.0
46.772	8.0
46.787	4.0
46.802	7.0
46.817	5.0
46.832	5.0
46.847	3.0
46.861	5.0
46.876	5.0
46.891	3.0
46.906	13.0
46.921	5.0
46.936	2.0
46.95	3.0
46.965	2.0
46.98	3.0
46.995	9.0
47.01	6.0
47.025	7.0
47.039	4.0
47.054	6.0
47.069	5.0
47.084	4.0
47.099	10.0
47.113	8.0
47.128	11.0
47.143	9.0
47.158	5.0
47.173	11.0
47.188	9.0
47.202	1.0
47.217	9.0
47.232	6.0
47.247	8.0
47.262	6.0
47.277	4.0
47.291	4.0
47.306	5.0
47.321	3.0
47.336	6.0
47.351	9.0
47.365	6.0
47.38	4.0
47.395	3.0
47.41	12.0
47.425	9.0
47.44	5.0
47.454	15.0
47.469	4.0
47.484	7.0
47.499	7.0
47.514	7.0
47.528	5.0
47.543	5.0
47.558	4.0
47.573	5.0
47.588	6.0
47.603	6.0
47.617	6.0
47.632	7.0
47.647	6.0
47.662	5.0
47.677	6.0
47.691	5.0
47.706	8.0
47.721	3.0
47.736	7.0
47.751	5.0
47.766	8.0
47.78	5.0
47.795	2.0
47.81	4.0
47.825	1.0
47.84	4.0
47.855	6.0
47.869	3.0
47.884	5.0
47.899	5.0
47.914	4.0
47.929	4.0
47.944	7.0
47.958	0.0
47.973	7.0
47.988	5.0
48.003	5.0
48.018	6.0
48.033	5.0
48.047	5.0
48.062	5.0
48.077	5.0
48.092	3.0
48.107	4.0
48.122	6.0
48.137	8.0
48.151	2.0
48.166	8.0
48.181	3.0
48.196	4.0
48.211	6.0
48.226	6.0
48.241	4.0
48.255	13.0
48.27	7.0
48.285	7.0
48.3	9.0
48.315	2.0
48.33	2.0
48.345	3.0
48.359	3.0
48.374	6.0
48.389	7.0
48.404	5.0
48.419	4.0
48.434	3.0
48.449	8.0
48.464	7.0
48.478	1.0
48.493	2.0
48.508	6.0
48.523	5.0
48.538	8.0
48.553	2.0
48.568	7.0
48.583	5.0
48.597	5.0
48.612	7.0
48.627	2.0
48.642	5.0
48.657	4.0
48.672	7.0
48.687	6.0
48.702	2.0
48.717	7.0
48.731	5.0
48.746	5.0
48.761	4.0
48.776	4.0
48.791	5.0
48.806	7.0
48.821	3.0
48.836	9.0
48.851	6.0
48.866	6.0
48.88	7.0
48.895	2.0
48.91	4.0
48.925	2.0
48.94	4.0
48.955	3.0
48.97	4.0
48.985	3.0
49.0	3.0
49.015	4.0
49.03	0.0
49.044	6.0
49.059	3.0
49.074	1.0
49.089	2.0
49.104	7.0
49.119	3.0
49.134	5.0
49.149	4.0
49.164	9.0
49.179	5.0
49.194	5.0
49.209	6.0
49.224	7.0
49.238	5.0
49.253	4.0
49.268	4.0
49.283	5.0
49.298	5.0
49.313	3.0
49.328	7.0
49.343	5.0
49.358	8.0
49.373	11.0
49.388	3.0
49.403	5.0
49.418	4.0
49.433	6.0
49.448	9.0
49.463	8.0
49.478	4.0
49.492	8.0
49.507	3.0
49.522	6.0
49.537	6.0
49.552	2.0
49.567	10.0
49.582	2.0
49.597	6.0
49.612	6.0
49.627	8.0
49.642	6.0
49.657	4.0
49.672	7.0
49.687	9.0
49.702	4.0
49.717	4.0
49.732	7.0
49.747	7.0
49.762	6.0
49.777	3.0
49.792	0.0
49.807	1.0
49.822	3.0
49.837	5.0
49.852	5.0
49.867	4.0
49.882	7.0
49.897	1.0
49.912	6.0
49.927	2.0
49.942	6.0
49.957	5.0
49.971	5.0
49.986	5.0
50.001	3.0
50.016	3.0
50.031	4.0
50.046	7.0
50.061	3.0
50.076	6.0
50.091	8.0
50.106	3.0
50.121	3.0
50.136	6.0
50.151	8.0
50.166	0.0
50.181	4.0
50.196	1.0
50.211	3.0
50.226	6.0
50.241	4.0
50.256	4.0
50.271	3.0
50.286	5.0
50.302	7.0
50.317	4.0
50.332	7.0
50.347	4.0
50.362	8.0
50.377	12.0
50.392	8.0
50.407	7.0
50.422	6.0
50.437	6.0
50.452	5.0
50.467	8.0
50.482	8.0
50.497	6.0
50.512	9.0
50.527	3.0
50.542	6.0
50.557	3.0
50.572	5.0
50.587	6.0
50.602	6.0
50.617	5.0
50.632	10.0
50.647	3.0
50.662	4.0
50.677	4.0
50.692	6.0
50.707	1.0
50.722	4.0
50.737	2.0
50.752	10.0
50.767	6.0
50.782	7.0
50.797	2.0
50.812	8.0
50.828	5.0
50.843	5.0
50.858	6.0
50.873	5.0
50.888	5.0
50.903	2.0
50.918	4.0
50.933	3.0
50.948	3.0
50.963	8.0
50.978	7.0
50.993	6.0
51.008	3.0
51.023	6.0
51.038	6.0
51.053	4.0
51.068	4.0
51.083	7.0
51.098	2.0
51.114	7.0
51.129	2.0
51.144	5.0
51.159	8.0
51.174	2.0
51.189	1.0
51.204	5.0
51.219	4.0
51.234	7.0
51.249	10.0
51.264	5.0
51.279	6.0
51.294	8.0
51.309	10.0
51.324	6.0
51.34	3.0
51.355	11.0
51.37	8.0
51.385	3.0
51.4	9.0
51.415	6.0
51.43	11.0
51.445	5.0
51.46	12.0
51.475	17.0
51.49	14.0
51.505	10.0
51.52	17.0
51.535	9.0
51.551	20.0
51.566	14.0
51.581	15.0
51.596	11.0
51.611	13.0
51.626	6.0
51.641	7.0
51.656	7.0
51.671	3.0
51.686	6.0
51.701	3.0
51.716	2.0
51.732	3.0
51.747	8.0
51.762	6.0
51.777	7.0
51.792	7.0
51.807	14.0
51.822	10.0
51.837	12.0
51.852	8.0
51.867	20.0
51.882	9.0
51.898	11.0
51.913	9.0
51.928	10.0
51.943	7.0
51.958	7.0
51.973	4.0
51.988	4.0
52.003	6.0
52.018	3.0
52.033	5.0
52.048	6.0
52.064	3.0
52.079	0.0
52.094	5.0
52.109	5.0
52.124	8.0
52.139	6.0
52.154	6.0
52.169	5.0
52.184	10.0
52.199	4.0
52.215	5.0
52.23	4.0
52.245	7.0
52.26	4.0
52.275	2.0
52.29	6.0
52.305	9.0
52.32	4.0
52.335	9.0
52.35	6.0
52.366	5.0
52.381	12.0
52.396	6.0
52.411	6.0
52.426	4.0
52.441	3.0
52.456	5.0
52.471	6.0
52.486	7.0
52.502	3.0
52.517	4.0
52.532	0.0
52.547	14.0
52.562	7.0
52.577	10.0
52.592	14.0
52.607	8.0
52.622	9.0
52.637	9.0
52.653	7.0
52.668	9.0
52.683	10.0
52.698	6.0
52.713	4.0
52.728	6.0
52.743	7.0
52.758	5.0
52.774	10.0
52.789	2.0
52.804	4.0
52.819	4.0
52.834	10.0
52.849	6.0
52.864	6.0
52.879	9.0
52.894	9.0
52.91	4.0
52.925	9.0
52.94	11.0
52.955	4.0
52.97	9.0
52.985	10.0
53.0	11.0
53.015	7.0
53.031	2.0
53.046	4.0
53.061	2.0
53.076	7.0
53.091	9.0
53.106	3.0
53.121	7.0
53.136	4.0
53.152	4.0
53.167	8.0
53.182	3.0
53.197	0.0
53.212	6.0
53.227	5.0
53.242	2.0
53.257	4.0
53.273	6.0
53.288	3.0
53.303	8.0
53.318	4.0
53.333	6.0
53.348	6.0
53.363	2.0
53.379	3.0
53.394	6.0
53.409	10.0
53.424	4.0
53.439	1.0
53.454	3.0
53.469	10.0
53.484	2.0
53.5	3.0
53.515	5.0
53.53	4.0
53.545	3.0
53.56	10.0
53.575	5.0
53.59	8.0
53.606	4.0
53.621	4.0
53.636	8.0
53.651	8.0
53.666	3.0
53.681	4.0
53.696	2.0
53.712	6.0
53.727	7.0
53.742	0.0
53.757	3.0
53.772	7.0
53.787	7.0
53.802	3.0
53.818	5.0
53.833	3.0
53.848	5.0
53.863	3.0
53.878	8.0
53.893	3.0
53.909	4.0
53.924	4.0
53.939	3.0
53.954	2.0
53.969	2.0
53.984	3.0
53.999	5.0
54.015	4.0
54.03	2.0
54.045	4.0
54.06	4.0
54.075	3.0
54.09	7.0
54.106	4.0
54.121	4.0
54.136	6.0
54.151	2.0
54.166	1.0
54.181	3.0
54.197	6.0
54.212	4.0
54.227	8.0
54.242	2.0
54.257	5.0
54.272	2.0
54.288	5.0
54.303	3.0
54.318	6.0
54.333	5.0
54.348	5.0
54.363	6.0
54.379	7.0
54.394	4.0
54.409	4.0
54.424	4.0
54.439	7.0
54.454	6.0
54.47	1.0
54.485	3.0
54.5	9.0
54.515	6.0
54.53	3.0
54.545	2.0
54.561	6.0
54.576	8.0
54.591	8.0
54.606	4.0
54.621	12.0
54.636	12.0
54.652	9.0
54.667	19.0
54.682	17.0
54.697	14.0
54.712	12.0
54.727	15.0
54.743	8.0
54.758	12.0
54.773	13.0
54.788	7.0
54.803	8.0
54.819	5.0
54.834	2.0
54.849	5.0
54.864	4.0
54.879	2.0
54.894	9.0
54.91	11.0
54.925	9.0
54.94	10.0
54.955	6.0
54.97	8.0
54.985	8.0
55.001	6.0
55.016	12.0
55.031	7.0
55.046	13.0
55.061	9.0
55.077	11.0
55.092	5.0
55.107	11.0
55.122	8.0
55.137	3.0
55.152	6.0
55.168	7.0
55.183	6.0
55.198	6.0
55.213	0.0
55.228	3.0
55.243	2.0
55.259	2.0
55.274	7.0
55.289	1.0
55.304	2.0
55.319	2.0
55.335	5.0
55.35	4.0
55.365	8.0
55.38	6.0
55.395	7.0
55.41	8.0
55.426	7.0
55.441	3.0
55.456	4.0
55.471	2.0
55.486	2.0
55.501	6.0
55.517	2.0
55.532	3.0
55.547	3.0
55.562	4.0
55.577	6.0
55.592	6.0
55.608	5.0
55.623	6.0
55.638	11.0
55.653	7.0
55.668	9.0
55.683	7.0
55.699	10.0
55.714	6.0
55.729	7.0
55.744	7.0
55.759	9.0
55.774	3.0
55.79	16.0
55.805	6.0
55.82	5.0
55.835	8.0
55.85	3.0
55.865	9.0
55.881	8.0
55.896	4.0
55.911	2.0
55.926	6.0
55.941	7.0
55.956	7.0
55.972	6.0
55.987	7.0
56.002	10.0
56.017	9.0
56.032	8.0
56.047	4.0
56.063	9.0
56.078	3.0
56.093	4.0
56.108	7.0
56.123	5.0
56.138	3.0
56.154	6.0
56.169	8.0
56.184	5.0
56.199	5.0
56.214	6.0
56.229	0.0
56.244	6.0
56.26	3.0
56.275	2.0
56.29	5.0
56.305	6.0
56.32	6.0
56.335	8.0
56.351	1.0
56.366	3.0
56.381	6.0
56.396	3.0
56.411	1.0
56.426	3.0
56.441	3.0
56.457	1.0
56.472	2.0
56.487	5.0
56.502	4.0
56.517	8.0
56.532	6.0
56.547	1.0
56.563	7.0
56.578	4.0
56.593	6.0
56.608	5.0
56.623	4.0
56.638	4.0
56.653	5.0
56.668	3.0
56.684	5.0
56.699	5.0
56.714	6.0
56.729	5.0
56.744	5.0
56.759	7.0
56.774	4.0
56.79	7.0
56.805	4.0
56.82	5.0
56.835	5.0
56.85	6.0
56.865	6.0
56.88	3.0
56.895	6.0
56.911	4.0
56.926	5.0
56.941	5.0
56.956	5.0
56.971	4.0
56.986	7.0
57.001	5.0
57.016	6.0
57.031	6.0
57.047	3.0
57.062	5.0
57.077	5.0
57.092	5.0
57.107	8.0
57.122	10.0
57.137	3.0
57.152	2.0
57.167	2.0
57.183	5.0
57.198	7.0
57.213	3.0
57.228	1.0
57.243	8.0
57.258	4.0
57.273	2.0
57.288	4.0
57.303	8.0
57.318	5.0
57.334	4.0
57.349	5.0
57.364	6.0
57.379	3.0
57.394	5.0
57.409	3.0
57.424	2.0
57.439	4.0
57.454	5.0
57.469	6.0
57.484	7.0
57.5	8.0
57.515	6.0
57.53	6.0
57.545	6.0
57.56	3.0
57.575	2.0
57.59	7.0
57.605	7.0
57.62	7.0
57.635	4.0
57.65	8.0
57.665	7.0
57.68	2.0
57.696	4.0
57.711	3.0
57.726	3.0
57.741	5.0
57.756	3.0
57.771	4.0
57.786	6.0
57.801	3.0
57.816	2.0
57.831	7.0
57.846	5.0
57.861	4.0
57.876	5.0
57.891	4.0
57.906	5.0
57.921	2.0
57.937	4.0
57.952	3.0
57.967	5.0
57.982	4.0
57.997	6.0
58.012	4.0
58.027	5.0
58.042	4.0
58.057	11.0
58.072	3.0
58.087	3.0
58.102	2.0
58.117	4.0
58.132	3.0
58.147	6.0
58.162	5.0
58.177	7.0
58.192	1.0
58.207	6.0
58.222	4.0
58.237	3.0
58.252	3.0
58.267	3.0
58.282	8.0
58.297	2.0
58.312	5.0
58.327	7.0
58.342	5.0
58.357	6.0
58.372	5.0
58.387	5.0
58.402	4.0
58.418	7.0
58.433	4.0
58.448	5.0
58.463	3.0
58.478	5.0
58.493	3.0
58.508	3.0
58.523	3.0
58.538	7.0
58.553	7.0
58.568	5.0
58.583	9.0
58.598	7.0
58.613	9.0
58.628	13.0
58.643	1.0
58.658	13.0
58.673	9.0
58.688	6.0
58.703	5.0
58.718	11.0
58.733	11.0
58.748	5.0
58.763	6.0
58.778	5.0
58.793	6.0
58.808	4.0
58.823	4.0
58.838	4.0
58.853	4.0
58.868	3.0
58.883	5.0
58.898	2.0
58.913	5.0
58.928	2.0
58.942	3.0
58.957	5.0
58.972	9.0
58.987	6.0
59.002	10.0
59.017	6.0
59.032	12.0
59.047	8.0
59.062	7.0
59.077	7.0
59.092	7.0
59.107	7.0
59.122	4.0
59.137	7.0
59.152	6.0
59.167	5.0
59.182	7.0
59.197	5.0
59.212	3.0
59.227	4.0
59.242	4.0
59.257	4.0
59.272	1.0
59.287	3.0
59.302	3.0
59.317	2.0
59.332	2.0
59.347	12.0
59.362	4.0
59.377	5.0
59.392	5.0
59.407	4.0
59.422	4.0
59.437	1.0
59.452	4.0
59.467	6.0
59.482	6.0
59.497	2.0
59.512	6.0
59.527	7.0
59.542	6.0
59.557	11.0
59.572	9.0
59.587	10.0
59.602	11.0
59.617	13.0
59.632	11.0
59.647	7.0
59.661	11.0
59.676	5.0
59.691	14.0
59.706	4.0
59.721	3.0
59.736	2.0
59.751	7.0
59.766	4.0
59.781	5.0
59.796	9.0
59.811	3.0
59.826	4.0
59.841	5.0
59.856	4.0
59.871	3.0
59.886	3.0
59.901	7.0
59.916	4.0
59.931	5.0
59.946	9.0
59.961	4.0
59.976	6.0
59.991	6.0
60.006	12.0
60.021	10.0
60.036	8.0
60.051	8.0
60.066	6.0
60.081	6.0
60.096	5.0
60.111	1.0
60.126	3.0
60.141	4.0
60.156	2.0
60.171	6.0
60.186	1.0
60.201	5.0
60.216	2.0
60.231	4.0
60.246	5.0
60.261	6.0
60.276	5.0
60.291	5.0
60.306	10.0
60.321	5.0
60.336	3.0
60.35	4.0
60.365	5.0
60.38	4.0
60.395	7.0
60.41	2.0
60.425	7.0
60.44	2.0
60.455	9.0
60.47	2.0
60.485	3.0
60.5	9.0
60.515	3.0
60.53	12.0
60.545	10.0
60.56	3.0
60.575	8.0
60.59	6.0
60.605	9.0
60.62	13.0
60.635	8.0
60.65	6.0
60.665	6.0
60.68	4.0
60.695	4.0
60.71	4.0
60.725	2.0
60.74	8.0
60.755	4.0
60.77	4.0
60.785	3.0
60.8	10.0
60.815	4.0
60.83	5.0
60.845	6.0
60.86	3.0
60.875	4.0
60.89	4.0
60.905	6.0
60.92	10.0
60.935	3.0
60.95	5.0
60.965	7.0
60.98	8.0
60.995	8.0
61.01	2.0
61.025	7.0
61.04	9.0
61.055	6.0
61.07	5.0
61.085	5.0
61.1	7.0
61.115	5.0
61.13	3.0
61.145	7.0
61.16	6.0
61.175	5.0
61.191	4.0
61.206	4.0
61.221	4.0
61.236	1.0
61.251	2.0
61.266	2.0
61.281	7.0
61.296	4.0
61.311	3.0
61.326	3.0
61.341	7.0
61.356	1.0
61.371	4.0
61.386	3.0
61.401	3.0
61.416	6.0
61.431	3.0
61.446	5.0
61.461	2.0
61.476	2.0
61.491	5.0
61.506	6.0
61.521	11.0
61.536	10.0
61.551	11.0
61.566	9.0
61.581	5.0
61.596	6.0
61.611	3.0
61.626	4.0
61.641	5.0
61.656	0.0
61.672	5.0
61.687	5.0
61.702	1.0
61.717	3.0
61.732	4.0
61.747	3.0
61.762	4.0
61.777	2.0
61.792	4.0
61.807	3.0
61.822	7.0
61.837	4.0
61.852	4.0
61.867	9.0
61.882	6.0
61.897	3.0
61.912	4.0
61.927	8.0
61.943	5.0
61.958	3.0
61.973	8.0
61.988	5.0
62.003	3.0
62.018	7.0
62.033	2.0
62.048	3.0
62.063	5.0
62.078	3.0
62.093	4.0
62.108	4.0
62.123	2.0
62.138	8.0
62.153	6.0
62.169	2.0
62.184	5.0
62.199	1.0
62.214	7.0
62.229	6.0
62.244	2.0
62.259	3.0
62.274	2.0
62.289	2.0
62.304	5.0
62.319	3.0
62.335	2.0
62.35	3.0
62.365	3.0
62.38	9.0
62.395	2.0
62.41	3.0
62.425	6.0
62.44	3.0
62.455	6.0
62.47	7.0
62.485	8.0
62.501	8.0
62.516	8.0
62.531	4.0
62.546	3.0
62.561	5.0
62.576	4.0
62.591	1.0
62.606	4.0
62.621	3.0
62.636	6.0
62.652	3.0
62.667	1.0
62.682	2.0
62.697	3.0
62.712	7.0
62.727	5.0
62.742	6.0
62.757	7.0
62.772	5.0
62.787	6.0
62.803	4.0
62.818	5.0
62.833	2.0
62.848	3.0
62.863	6.0
62.878	4.0
62.893	8.0
62.908	5.0
62.923	4.0
62.939	3.0
62.954	2.0
62.969	4.0
62.984	4.0
62.999	4.0
63.014	2.0
63.029	4.0
63.044	4.0
63.059	3.0
63.074	5.0
63.09	4.0
63.105	1.0
63.12	3.0
63.135	7.0
63.15	4.0
63.165	7.0
63.18	4.0
63.195	3.0
63.21	4.0
63.226	5.0
63.241	5.0
63.256	2.0
63.271	1.0
63.286	3.0
63.301	4.0
63.316	6.0
63.331	2.0
63.346	8.0
63.362	6.0
63.377	7.0
63.392	12.0
63.407	6.0
63.422	5.0
63.437	6.0
63.452	2.0
63.467	6.0
63.482	10.0
63.497	4.0
63.513	5.0
63.528	4.0
63.543	3.0
63.558	5.0
63.573	2.0
63.588	7.0
63.603	6.0
63.618	6.0
63.633	1.0
63.648	1.0
63.664	7.0
63.679	2.0
63.694	7.0
63.709	4.0
63.724	6.0
63.739	4.0
63.754	9.0
63.769	5.0
63.784	4.0
63.799	6.0
63.814	9.0
63.83	4.0
63.845	7.0
63.86	3.0
63.875	5.0
63.89	3.0
63.905	6.0
63.92	8.0
63.935	6.0
63.95	3.0
63.965	2.0
63.98	6.0
63.996	2.0
64.011	1.0
64.026	1.0
64.041	3.0
64.056	7.0
64.071	5.0
64.086	3.0
64.101	3.0
64.116	4.0
64.131	1.0
64.146	4.0
64.161	4.0
64.176	2.0
64.191	4.0
64.207	7.0
64.222	6.0
64.237	7.0
64.252	7.0
64.267	3.0
64.282	5.0
64.297	3.0
64.312	3.0
64.327	3.0
64.342	1.0
64.357	6.0
64.372	6.0
64.387	4.0
64.402	4.0
64.417	4.0
64.433	4.0
64.448	2.0
64.463	4.0
64.478	3.0
64.493	3.0
64.508	5.0
64.523	4.0
64.538	4.0
64.553	7.0
64.568	2.0
64.583	2.0
64.598	10.0
64.613	2.0
64.628	3.0
64.643	7.0
64.658	2.0
64.673	3.0
64.688	3.0
64.703	2.0
64.718	2.0
64.734	7.0
64.749	4.0
64.764	3.0
64.779	6.0
64.794	5.0
64.809	2.0
64.824	3.0
64.839	5.0
64.854	6.0
64.869	6.0
64.884	1.0
64.899	6.0
64.914	4.0
64.929	3.0
64.944	6.0
64.959	1.0
64.974	4.0
64.989	5.0
65.004	2.0
65.019	5.0
65.034	2.0
65.049	3.0
65.064	5.0
65.079	3.0
65.094	6.0
65.109	4.0
65.125	6.0
65.14	8.0
65.155	7.0
65.17	3.0
65.185	2.0
65.2	6.0
65.215	6.0
65.23	4.0
65.245	8.0
65.26	2.0
65.275	6.0
65.29	3.0
65.305	7.0
65.32	9.0
65.335	5.0
65.35	8.0
65.365	5.0
65.38	4.0
65.395	3.0
65.41	3.0
65.425	2.0
65.44	4.0
65.455	2.0
65.47	5.0
65.485	3.0
65.5	8.0
65.515	0.0
65.53	3.0
65.545	5.0
65.56	4.0
65.575	2.0
65.59	6.0
65.605	0.0
65.62	7.0
65.635	5.0
65.65	3.0
65.666	6.0
65.681	2.0
65.696	5.0
65.711	6.0
65.726	4.0
65.741	3.0
65.756	6.0
65.771	3.0
65.786	5.0
65.801	6.0
65.816	6.0
65.831	5.0
65.846	6.0
65.861	7.0
65.876	5.0
65.891	3.0
65.906	7.0
65.921	4.0
65.936	6.0
65.951	2.0
65.966	5.0
65.981	3.0
65.996	2.0
66.011	9.0
66.026	4.0
66.041	5.0
66.056	2.0
66.071	5.0
66.086	7.0
66.101	2.0
66.116	7.0
66.131	11.0
66.146	5.0
66.161	0.0
66.176	6.0
66.191	8.0
66.206	8.0
66.221	13.0
66.236	5.0
66.251	8.0
66.266	3.0
66.281	6.0
66.296	5.0
66.311	6.0
66.327	0.0
66.342	4.0
66.357	1.0
66.372	7.0
66.387	4.0
66.402	2.0
66.417	3.0
66.432	4.0
66.447	2.0
66.462	4.0
66.477	9.0
66.492	4.0
66.507	1.0
66.522	4.0
66.537	4.0
66.552	3.0
66.567	9.0
66.582	3.0
66.597	6.0
66.612	5.0
66.627	3.0
66.642	5.0
66.657	1.0
66.672	4.0
66.687	6.0
66.702	7.0
66.717	3.0
66.732	8.0
66.747	3.0
66.762	4.0
66.777	4.0
66.792	3.0
66.807	3.0
66.822	2.0
66.837	4.0
66.853	4.0
66.868	3.0
66.883	3.0
66.898	3.0
66.913	1.0
66.928	1.0
66.943	3.0
66.958	5.0
66.973	3.0
66.988	1.0
67.003	3.0
67.018	5.0
67.033	7.0
67.048	7.0
67.063	6.0
67.078	2.0
67.093	7.0
67.108	5.0
67.123	4.0
67.138	5.0
67.153	4.0
67.168	5.0
67.183	6.0
67.198	2.0
67.214	1.0
67.229	1.0
67.244	3.0
67.259	1.0
67.274	5.0
67.289	2.0
67.304	3.0
67.319	5.0
67.334	5.0
67.349	5.0
67.364	1.0
67.379	4.0
67.394	2.0
67.409	1.0
67.424	8.0
67.439	5.0
67.454	3.0
67.469	4.0
67.484	5.0
67.5	4.0
67.515	4.0
67.53	3.0
67.545	7.0
67.56	5.0
67.575	5.0
67.59	5.0
67.605	6.0
67.62	3.0
67.635	4.0
67.65	3.0
67.665	2.0
67.68	3.0
67.695	2.0
67.71	5.0
67.726	6.0
67.741	3.0
67.756	0.0
67.771	5.0
67.786	0.0
67.801	3.0
67.816	1.0
67.831	5.0
67.846	3.0
67.861	3.0
67.876	1.0
67.891	4.0
67.906	2.0
67.922	7.0
67.937	5.0
67.952	4.0
67.967	1.0
67.982	5.0
67.997	4.0
68.012	4.0
68.027	5.0
68.042	7.0
68.057	4.0
68.072	3.0
68.087	4.0
68.103	5.0
68.118	5.0
68.133	3.0
68.148	0.0
68.163	2.0
68.178	5.0
68.193	3.0
68.208	3.0
68.223	5.0
68.238	1.0
68.254	3.0
68.269	3.0
68.284	2.0
68.299	2.0
68.314	2.0
68.329	3.0
68.344	4.0
68.359	6.0
68.374	5.0
68.389	6.0
68.405	6.0
68.42	8.0
68.435	7.0
68.45	6.0
68.465	3.0
68.48	3.0
68.495	3.0
68.51	6.0
68.525	7.0
68.54	3.0
68.556	4.0
68.571	5.0
68.586	1.0
68.601	6.0
68.616	5.0
68.631	3.0
68.646	4.0
68.661	4.0
68.676	4.0
68.691	6.0
68.707	1.0
68.722	3.0
68.737	4.0
68.752	2.0
68.767	3.0
68.782	1.0
68.797	6.0
68.812	2.0
68.827	3.0
68.842	3.0
68.857	3.0
68.873	6.0
68.888	4.0
68.903	4.0
68.918	5.0
68.933	2.0
68.948	5.0
68.963	3.0
68.978	4.0
68.993	5.0
69.008	3.0
69.023	6.0
69.038	5.0
69.054	4.0
69.069	1.0
69.084	2.0
69.099	1.0
69.114	3.0
69.129	2.0
69.144	6.0
69.159	5.0
69.174	1.0
69.189	8.0
69.204	3.0
69.219	3.0
69.234	2.0
69.249	9.0
69.264	1.0
69.279	2.0
69.295	4.0
69.31	3.0
69.325	5.0
69.34	2.0
69.355	2.0
69.37	5.0
69.385	5.0
69.4	3.0
69.415	4.0
69.43	4.0
69.445	0.0
69.46	4.0
69.475	2.0
69.49	5.0
69.505	0.0
69.52	0.0
69.535	3.0
69.55	2.0
69.565	7.0
69.58	2.0
69.595	4.0
69.61	2.0
69.625	5.0
69.64	5.0
69.655	5.0
69.67	4.0
69.685	4.0
69.7	7.0
69.715	4.0
69.73	8.0
69.745	3.0
69.76	6.0
69.775	6.0
69.79	8.0
69.805	5.0
69.82	8.0
69.835	1.0
69.85	6.0
69.865	10.0
69.88	2.0
69.895	3.0
69.909	1.0
69.924	5.0
69.939	3.0
69.954	3.0
69.969	4.0
69.984	2.0
69.999	0.0
70.014	2.0
70.029	0.0
70.044	1.0
70.059	7.0
70.074	3.0
70.088	2.0
70.103	3.0
70.118	3.0
70.133	3.0
70.148	6.0
70.163	1.0
70.178	5.0
70.193	3.0
70.208	3.0
70.222	6.0
70.237	5.0
70.252	2.0
70.267	5.0
70.282	3.0
70.297	5.0
70.312	4.0
70.327	3.0
70.341	1.0
70.356	4.0
70.371	5.0
70.386	2.0
70.401	1.0
70.416	2.0
70.43	3.0
70.445	5.0
70.46	2.0
70.475	1.0
70.49	2.0
70.505	8.0
70.519	0.0
70.534	4.0
70.549	4.0
70.564	4.0
70.579	0.0
70.594	8.0
70.608	5.0
70.623	5.0
70.638	4.0
70.653	5.0
70.668	4.0
70.683	4.0
70.697	4.0
70.712	7.0
70.727	4.0
70.742	9.0
70.757	4.0
70.771	3.0
70.786	5.0
70.801	1.0
70.816	7.0
70.831	7.0
70.845	5.0
70.86	2.0
70.875	6.0
70.89	3.0
70.905	5.0
70.92	2.0
70.934	3.0
70.949	0.0
70.964	6.0
70.979	5.0
70.994	4.0
71.008	3.0
71.023	0.0
71.038	4.0
71.053	2.0
71.068	3.0
71.082	4.0
71.097	1.0
71.112	4.0
71.127	6.0
71.142	4.0
71.156	7.0
71.171	6.0
71.186	2.0
71.201	2.0
71.216	2.0
71.231	3.0
71.245	5.0
71.26	4.0
71.275	2.0
71.29	1.0
71.305	5.0
71.319	2.0
71.334	4.0
71.349	3.0
71.364	2.0
71.379	0.0
71.394	1.0
71.408	5.0
71.423	0.0
71.438	6.0
71.453	4.0
71.468	4.0
71.483	8.0
71.497	1.0
71.512	5.0
71.527	1.0
71.542	4.0
71.557	5.0
71.572	4.0
71.586	6.0
71.601	2.0
71.616	4.0
71.631	4.0
71.646	5.0
71.661	2.0
71.676	3.0
71.69	4.0
71.705	4.0
71.72	3.0
71.735	2.0
71.75	0.0
71.765	4.0
71.78	1.0
71.795	4.0
71.81	2.0
71.824	6.0
71.839	0.0
71.854	5.0
71.869	3.0
71.884	0.0
71.899	5.0
71.914	2.0
71.929	5.0
71.944	2.0
71.959	4.0
71.974	5.0
71.988	5.0
72.003	2.0
72.018	2.0
72.033	2.0
72.048	8.0
72.063	7.0
72.078	5.0
72.093	2.0
72.108	1.0
72.123	2.0
72.138	4.0
72.153	4.0
72.168	1.0
72.183	1.0
72.198	4.0
72.213	3.0
72.228	2.0
72.243	2.0
72.258	4.0
72.273	5.0
72.288	3.0
72.303	5.0
72.318	7.0
72.333	0.0
72.348	2.0
72.363	1.0
72.378	6.0
72.393	7.0
72.408	2.0
72.423	3.0
72.438	3.0
72.453	7.0
72.468	5.0
72.483	3.0
72.498	5.0
72.513	2.0
72.528	5.0
72.543	6.0
72.558	5.0
72.573	1.0
72.588	2.0
72.603	4.0
72.618	4.0
72.633	3.0
72.649	3.0
72.664	4.0
72.679	2.0
72.694	4.0
72.709	1.0
72.724	4.0
72.739	4.0
72.754	5.0
72.769	4.0
72.784	2.0
72.799	3.0
72.814	3.0
72.829	4.0
72.845	4.0
72.86	6.0
72.875	3.0
72.89	1.0
72.905	5.0
72.92	3.0
72.935	4.0
72.95	1.0
72.965	4.0
72.98	3.0
72.996	1.0
73.011	2.0
73.026	0.0
73.041	3.0
73.056	1.0
73.071	4.0
73.086	1.0
73.101	0.0
73.117	4.0
73.132	4.0
73.147	5.0
73.162	4.0
73.177	5.0
73.192	7.0
73.207	1.0
73.222	6.0
73.238	4.0
73.253	5.0
73.268	3.0
73.283	6.0
73.298	2.0
73.313	5.0
73.328	2.0
73.343	1.0
73.359	3.0
73.374	6.0
73.389	3.0
73.404	4.0
73.419	4.0
73.434	7.0
73.449	3.0
73.465	0.0
73.48	3.0
73.495	3.0
73.51	5.0
73.525	2.0
73.54	3.0
73.556	6.0
73.571	1.0
73.586	6.0
73.601	4.0
73.616	0.0
73.631	3.0
73.646	3.0
73.662	4.0
73.677	4.0
73.692	5.0
73.707	2.0
73.722	5.0
73.737	2.0
73.752	2.0
73.768	5.0
73.783	1.0
73.798	4.0
73.813	3.0
73.828	4.0
73.843	5.0
73.859	4.0
73.874	2.0
73.889	6.0
73.904	2.0
73.919	3.0
73.934	1.0
73.949	4.0
73.965	2.0
73.98	3.0
73.995	4.0
74.01	4.0
74.025	7.0
74.04	2.0
74.056	2.0
74.071	5.0
74.086	3.0
74.101	1.0
74.116	4.0
74.131	7.0
74.146	6.0
74.162	4.0
74.177	5.0
74.192	5.0
74.207	2.0
74.222	8.0
74.237	6.0
74.252	3.0
74.268	3.0
74.283	3.0
74.298	3.0
74.313	0.0
74.328	1.0
74.343	3.0
74.358	2.0
74.374	4.0
74.389	5.0
74.404	5.0
74.419	2.0
74.434	2.0
74.449	1.0
74.464	0.0
74.48	3.0
74.495	1.0
74.51	6.0
74.525	6.0
74.54	1.0
74.555	3.0
74.57	5.0
74.586	0.0
74.601	4.0
74.616	3.0
74.631	0.0
74.646	4.0
74.661	6.0
74.676	1.0
74.691	7.0
74.707	6.0
74.722	2.0
74.737	3.0
74.752	11.0
74.767	1.0
74.782	5.0
74.797	6.0
74.813	7.0
74.828	4.0
74.843	2.0
74.858	2.0
74.873	3.0
74.888	2.0
74.903	4.0
74.918	1.0
74.934	3.0
74.949	6.0
74.964	3.0
74.979	1.0
74.994	3.0
75.009	4.0
75.024	6.0
75.04	6.0
75.055	0.0
75.07	8.0
75.085	6.0
75.1	3.0
75.115	4.0
75.13	5.0
75.145	3.0
75.161	5.0
75.176	5.0
75.191	4.0
75.206	6.0
75.221	3.0
75.236	2.0
75.251	2.0
75.266	4.0
75.282	2.0
75.297	3.0
75.312	4.0
75.327	2.0
75.342	2.0
75.357	4.0
75.372	7.0
75.387	4.0
75.403	6.0
75.418	2.0
75.433	6.0
75.448	3.0
75.463	3.0
75.478	4.0
75.493	3.0
75.509	7.0
75.524	2.0
75.539	2.0
75.554	6.0
75.569	5.0
75.584	2.0
75.599	4.0
75.614	4.0
75.63	7.0
75.645	3.0
75.66	7.0
75.675	6.0
75.69	4.0
75.705	3.0
75.72	3.0
75.735	4.0
75.751	7.0
75.766	6.0
75.781	8.0
75.796	3.0
75.811	2.0
75.826	6.0
75.841	2.0
75.856	2.0
75.872	3.0
75.887	2.0
75.902	2.0
75.917	3.0
75.932	1.0
75.947	1.0
75.962	4.0
75.977	3.0
75.993	3.0
76.008	3.0
76.023	4.0
76.038	5.0
76.053	4.0
76.068	1.0
76.083	1.0
76.098	3.0
76.114	4.0
76.129	1.0
76.144	4.0
76.159	1.0
76.174	4.0
76.189	7.0
76.204	1.0
76.22	2.0
76.235	3.0
76.25	4.0
76.265	4.0
76.28	3.0
76.295	1.0
76.31	4.0
76.325	4.0
76.341	0.0
76.356	6.0
76.371	4.0
76.386	7.0
76.401	0.0
76.416	1.0
76.431	2.0
76.446	4.0
76.462	6.0
76.477	4.0
76.492	3.0
76.507	5.0
76.522	4.0
76.537	1.0
76.552	4.0
76.567	5.0
76.583	2.0
76.598	2.0
76.613	5.0
76.628	2.0
76.643	3.0
76.658	3.0
76.673	4.0
76.688	4.0
76.704	3.0
76.719	6.0
76.734	3.0
76.749	2.0
76.764	3.0
76.779	9.0
76.794	2.0
76.809	8.0
76.824	6.0
76.84	5.0
76.855	3.0
76.87	5.0
76.885	3.0
76.9	3.0
76.915	3.0
76.93	0.0
76.945	4.0
76.96	1.0
76.976	4.0
76.991	2.0
77.006	1.0
77.021	4.0
77.036	1.0
77.051	6.0
77.066	4.0
77.081	3.0
77.096	2.0
77.112	2.0
77.127	1.0
77.142	3.0
77.157	0.0
77.172	2.0
77.187	3.0
77.202	3.0
77.217	3.0
77.232	1.0
77.247	6.0
77.263	2.0
77.278	5.0
77.293	3.0
77.308	6.0
77.323	4.0
77.338	5.0
77.353	1.0
77.368	6.0
77.383	5.0
77.398	3.0
77.413	1.0
77.428	2.0
77.444	3.0
77.459	3.0
77.474	1.0
77.489	3.0
77.504	5.0
77.519	7.0
77.534	4.0
77.549	4.0
77.564	0.0
77.579	7.0
77.594	4.0
77.609	6.0
77.624	9.0
77.64	3.0
77.655	7.0
77.67	5.0
77.685	3.0
77.7	3.0
77.715	4.0
77.73	5.0
77.745	4.0
77.76	4.0
77.775	3.0
77.79	4.0
77.805	2.0
77.82	9.0
77.835	2.0
77.85	3.0
77.865	5.0
77.88	2.0
77.895	4.0
77.91	0.0
77.926	1.0
77.941	5.0
77.956	4.0
77.971	3.0
77.986	2.0
78.001	2.0
78.016	2.0
78.031	0.0
78.046	3.0
78.061	2.0
78.076	5.0
78.091	5.0
78.106	2.0
78.121	1.0
78.136	2.0
78.151	4.0
78.166	7.0
78.181	4.0
78.196	6.0
78.211	1.0
78.226	1.0
78.241	5.0
78.256	5.0
78.271	3.0
78.286	2.0
78.301	2.0
78.316	5.0
78.331	4.0
78.346	4.0
78.361	7.0
78.376	2.0
78.391	4.0
78.406	1.0
78.421	3.0
78.436	5.0
78.451	2.0
78.466	3.0
78.481	5.0
78.496	6.0
78.511	5.0
78.526	1.0
78.541	1.0
78.556	6.0
78.571	5.0
78.586	1.0
78.601	1.0
78.616	4.0
78.631	0.0
78.646	5.0
78.661	5.0
78.676	5.0
78.691	6.0
78.706	7.0
78.721	4.0
78.736	4.0
78.751	4.0
78.766	4.0
78.781	4.0
78.796	4.0
78.811	1.0
78.826	3.0
78.841	4.0
78.856	1.0
78.871	4.0
78.885	3.0
78.9	3.0
78.915	2.0
78.93	4.0
78.945	4.0
78.96	3.0
78.975	3.0
78.99	3.0
79.005	3.0
79.02	8.0
79.035	4.0
79.05	3.0
79.065	2.0
79.08	4.0
79.095	6.0
79.11	5.0
79.125	2.0
79.14	6.0
79.155	2.0
79.17	2.0
79.185	10.0
79.2	5.0
79.215	4.0
79.23	2.0
79.245	1.0
79.26	3.0
79.275	2.0
79.29	2.0
79.304	1.0
79.319	5.0
79.334	8.0
79.349	2.0
79.364	3.0
79.379	4.0
79.394	3.0
79.409	1.0
79.424	5.0
79.439	3.0
79.454	3.0
79.469	2.0
79.484	4.0
79.499	1.0
79.514	3.0
79.529	0.0
79.544	3.0
79.559	3.0
79.574	5.0
79.589	2.0
79.604	2.0
79.619	8.0
79.634	1.0
79.649	1.0
79.664	6.0
79.679	7.0
79.693	3.0
79.708	0.0
79.723	5.0
79.738	5.0
79.753	2.0
79.768	4.0
79.783	5.0
79.798	2.0
79.813	4.0
79.828	3.0
79.843	3.0
79.858	4.0
79.873	0.0
79.888	4.0
79.903	1.0
79.918	2.0
79.933	4.0
79.948	4.0
79.963	2.0
79.978	2.0
79.993	3.0
80.008	1.0
80.023	4.0
80.038	3.0
80.053	3.0
80.068	1.0
80.083	8.0
80.098	2.0
80.113	2.0
80.128	6.0
80.143	3.0
80.158	4.0
80.173	1.0
80.188	3.0
80.202	7.0
80.217	2.0
80.232	6.0
80.247	4.0
80.262	1.0
80.277	3.0
80.292	4.0
80.307	5.0
80.322	3.0
80.337	4.0
80.352	1.0
80.367	2.0
80.382	5.0
80.397	5.0
80.412	2.0
80.427	3.0
80.442	4.0
80.457	2.0
80.472	3.0
80.487	0.0
80.502	2.0
80.517	3.0
80.532	8.0
80.547	1.0
80.562	6.0
80.577	5.0
80.592	6.0
80.607	0.0
80.622	7.0
80.637	4.0
80.652	3.0
80.667	4.0
80.682	1.0
80.697	3.0
80.712	5.0
80.727	2.0
80.742	3.0
80.757	0.0
80.772	3.0
80.787	3.0
80.802	3.0
80.817	2.0
80.832	3.0
80.847	6.0
80.862	4.0
80.877	3.0
80.892	4.0
80.907	3.0
80.922	2.0
80.937	3.0
80.952	1.0
80.967	4.0
80.982	5.0
80.997	2.0
81.012	4.0
81.027	2.0
81.042	4.0
81.057	5.0
81.072	1.0
81.087	3.0
81.101	5.0
81.116	3.0
81.131	2.0
81.146	1.0
81.161	0.0
81.176	1.0
81.191	3.0
81.206	2.0
81.221	2.0
81.236	4.0
81.251	0.0
81.266	3.0
81.281	8.0
81.296	2.0
81.311	4.0
81.326	6.0
81.341	2.0
81.356	2.0
81.371	2.0
81.386	4.0
81.401	1.0
81.416	5.0
81.431	1.0
81.446	2.0
81.461	6.0
81.476	7.0
81.491	0.0
81.506	3.0
81.521	2.0
81.536	5.0
81.55	6.0
81.565	2.0
81.58	4.0
81.595	3.0
81.61	7.0
81.625	4.0
81.64	2.0
81.655	0.0
81.67	4.0
81.685	5.0
81.7	4.0
81.715	1.0
81.73	3.0
81.745	1.0
81.76	1.0
81.775	3.0
81.79	5.0
81.805	2.0
81.819	5.0
81.834	5.0
81.849	2.0
81.864	3.0
81.879	5.0
81.894	5.0
81.909	5.0
81.924	3.0
81.939	4.0
81.954	4.0
81.969	4.0
81.984	3.0
81.999	0.0
82.013	3.0
82.028	3.0
82.043	3.0
82.058	3.0
82.073	2.0
82.088	2.0
82.103	6.0
82.118	5.0
82.133	3.0
82.148	8.0
82.163	1.0
82.177	2.0
82.192	2.0
82.207	2.0
82.222	4.0
82.237	3.0
82.252	5.0
82.267	3.0
82.282	5.0
82.297	4.0
82.312	4.0
82.326	2.0
82.341	6.0
82.356	5.0
82.371	1.0
82.386	6.0
82.401	3.0
82.416	5.0
82.431	5.0
82.445	3.0
82.46	3.0
82.475	2.0
82.49	5.0
82.505	4.0
82.52	9.0
82.535	3.0
82.55	4.0
82.565	1.0
82.579	3.0
82.594	2.0
82.609	5.0
82.624	4.0
82.639	4.0
82.654	2.0
82.669	1.0
82.684	8.0
82.698	2.0
82.713	2.0
82.728	4.0
82.743	3.0
82.758	6.0
82.773	1.0
82.788	4.0
82.803	5.0
82.817	2.0
82.832	4.0
82.847	1.0
82.862	1.0
82.877	0.0
82.892	0.0
82.907	3.0
82.922	4.0
82.937	1.0
82.951	3.0
82.966	2.0
82.981	3.0
82.996	6.0
83.011	1.0
83.026	2.0
83.041	1.0
83.056	4.0
83.07	3.0
83.085	5.0
83.1	2.0
83.115	2.0
83.13	1.0
83.145	1.0
83.16	4.0
83.175	4.0
83.19	2.0
83.204	6.0
83.219	3.0
83.234	0.0
83.249	3.0
83.264	3.0
83.279	7.0
83.294	2.0
83.309	1.0
83.324	4.0
83.339	5.0
83.353	3.0
83.368	3.0
83.383	5.0
83.398	2.0
83.413	2.0
83.428	2.0
83.443	8.0
83.458	5.0
83.473	6.0
83.488	2.0
83.503	1.0
83.517	4.0
83.532	4.0
83.547	5.0
83.562	3.0
83.577	2.0
83.592	6.0
83.607	5.0
83.622	6.0
83.637	1.0
83.652	3.0
83.667	5.0
83.682	3.0
83.697	7.0
83.712	2.0
83.727	2.0
83.741	1.0
83.756	1.0
83.771	4.0
83.786	1.0
83.801	2.0
83.816	3.0
83.831	7.0
83.846	4.0
83.861	2.0
83.876	1.0
83.891	3.0
83.906	3.0
83.921	2.0
83.936	2.0
83.951	3.0
83.966	3.0
83.981	2.0
83.996	3.0
84.011	5.0
84.026	5.0
84.041	3.0
84.056	0.0
84.071	4.0
84.086	5.0
84.101	8.0
84.116	3.0
84.131	7.0
84.146	3.0
84.161	1.0
84.176	1.0
84.191	3.0
84.206	3.0
84.221	3.0
84.236	4.0
84.251	2.0
84.266	6.0
84.281	4.0
84.296	8.0
84.311	2.0
84.326	5.0
84.341	2.0
84.356	6.0
84.371	1.0
84.386	7.0
84.401	3.0
84.416	1.0
84.431	2.0
84.446	3.0
84.461	4.0
84.476	4.0
84.492	3.0
84.507	3.0
84.522	2.0
84.537	2.0
84.552	6.0
84.567	2.0
84.582	2.0
84.597	1.0
84.612	5.0
84.627	1.0
84.642	2.0
84.657	2.0
84.672	2.0
84.687	4.0
84.702	2.0
84.717	1.0
84.733	4.0
84.748	2.0
84.763	4.0
84.778	4.0
84.793	3.0
84.808	4.0
84.823	4.0
84.838	2.0
84.853	6.0
84.868	1.0
84.883	4.0
84.898	5.0
84.913	4.0
84.929	5.0
84.944	1.0
84.959	4.0
84.974	1.0
84.989	2.0
85.004	7.0
85.019	2.0
85.034	2.0
85.049	5.0
85.064	3.0
85.079	6.0
85.094	5.0
85.11	3.0
85.125	5.0
85.14	6.0
85.155	3.0
85.17	5.0
85.185	2.0
85.2	3.0
85.215	3.0
85.23	5.0
85.245	3.0
85.26	1.0
85.276	5.0
85.291	5.0
85.306	2.0
85.321	3.0
85.336	3.0
85.351	1.0
85.366	3.0
85.381	5.0
85.396	4.0
85.411	6.0
85.426	7.0
85.441	4.0
85.457	3.0
85.472	3.0
85.487	5.0
85.502	1.0
85.517	1.0
85.532	1.0
85.547	3.0
85.562	3.0
85.577	5.0
85.592	6.0
85.607	5.0
85.622	3.0
85.637	2.0
85.653	3.0
85.668	0.0
85.683	5.0
85.698	1.0
85.713	4.0
85.728	1.0
85.743	4.0
85.758	6.0
85.773	1.0
85.788	3.0
85.803	5.0
85.818	3.0
85.833	0.0
85.848	4.0
85.863	1.0
85.879	4.0
85.894	3.0
85.909	7.0
85.924	0.0
85.939	5.0
85.954	1.0
85.969	2.0
85.984	4.0
85.999	3.0
86.014	1.0
86.029	5.0
86.044	3.0
86.059	4.0
86.074	4.0
86.089	2.0
86.104	6.0
86.119	5.0
86.134	3.0
86.149	2.0
86.164	2.0
86.179	1.0
86.194	4.0
86.209	3.0
86.224	0.0
86.239	2.0
86.254	2.0
86.269	4.0
86.284	2.0
86.299	2.0
86.314	4.0
86.33	5.0
86.345	1.0
86.36	2.0
86.375	0.0
86.39	3.0
86.405	4.0
86.42	2.0
86.435	3.0
86.45	2.0
86.465	3.0
86.48	2.0
86.495	4.0
86.51	5.0
86.525	4.0
86.54	7.0
86.555	2.0
86.57	1.0
86.585	2.0
86.6	2.0
86.615	2.0
86.63	4.0
86.645	5.0
86.659	1.0
86.674	4.0
86.689	1.0
86.704	3.0
86.719	5.0
86.734	1.0
86.749	4.0
86.764	5.0
86.779	3.0
86.794	5.0
86.809	6.0
86.824	2.0
86.839	3.0
86.854	4.0
86.869	4.0
86.884	5.0
86.899	5.0
86.914	8.0
86.929	3.0
86.944	4.0
86.959	3.0
86.974	4.0
86.989	4.0
87.004	0.0
87.019	2.0
87.034	5.0
87.049	4.0
87.064	5.0
87.079	1.0
87.094	2.0
87.109	7.0
87.124	3.0
87.139	3.0
87.154	3.0
87.169	1.0
87.184	2.0
87.199	4.0
87.214	2.0
87.229	4.0
87.244	5.0
87.259	3.0
87.274	1.0
87.289	4.0
87.304	3.0
87.319	4.0
87.334	3.0
87.349	2.0
87.364	3.0
87.379	1.0
87.394	2.0
87.409	1.0
87.424	3.0
87.438	2.0
87.453	1.0
87.468	2.0
87.483	4.0
87.498	1.0
87.513	2.0
87.528	4.0
87.543	5.0
87.558	4.0
87.573	5.0
87.588	1.0
87.603	3.0
87.618	3.0
87.633	2.0
87.648	5.0
87.663	3.0
87.678	6.0
87.693	8.0
87.708	4.0
87.723	4.0
87.738	4.0
87.753	2.0
87.768	5.0
87.783	7.0
87.798	7.0
87.813	5.0
87.828	5.0
87.843	9.0
87.858	4.0
87.873	4.0
87.888	4.0
87.903	2.0
87.918	5.0
87.933	2.0
87.948	3.0
87.963	2.0
87.978	1.0
87.993	5.0
88.008	3.0
88.023	6.0
88.038	1.0
88.053	2.0
88.068	1.0
88.083	2.0
88.098	1.0
88.113	2.0
88.128	2.0
88.143	4.0
88.158	4.0
88.174	1.0
88.189	5.0
88.204	1.0
88.219	4.0
88.234	3.0
88.249	2.0
88.264	3.0
88.279	3.0
88.294	5.0
88.309	3.0
88.324	2.0
88.339	1.0
88.354	1.0
88.369	2.0
88.384	5.0
88.399	3.0
88.414	5.0
88.429	1.0
88.444	3.0
88.459	3.0
88.474	2.0
88.489	4.0
88.504	3.0
88.519	6.0
88.534	6.0
88.549	3.0
88.564	4.0
88.58	3.0
88.595	5.0
88.61	4.0
88.625	4.0
88.64	4.0
88.655	6.0
88.67	4.0
88.685	4.0
88.7	4.0
88.715	2.0
88.73	0.0
88.745	3.0
88.76	2.0
88.775	1.0
88.79	2.0
88.805	3.0
88.82	2.0
88.835	2.0
88.85	3.0
88.865	2.0
88.88	4.0
88.895	3.0
88.911	1.0
88.926	4.0
88.941	5.0
88.956	5.0
88.971	5.0
88.986	4.0
89.001	3.0
89.016	0.0
89.031	5.0
89.046	1.0
89.061	3.0
89.076	1.0
89.091	4.0
89.106	1.0
89.121	5.0
89.136	2.0
89.151	5.0
89.166	1.0
89.181	6.0
89.196	1.0
89.211	7.0
89.227	1.0
89.242	2.0
89.257	2.0
89.272	3.0
89.287	2.0
89.302	4.0
89.317	2.0
89.332	3.0
89.347	3.0
89.362	4.0
89.377	4.0
89.392	5.0
89.407	3.0
89.422	1.0
89.437	4.0
89.452	1.0
89.467	3.0
89.482	3.0
89.497	3.0
89.512	3.0
89.527	7.0
89.542	2.0
89.557	0.0
89.572	5.0
89.587	2.0
89.602	2.0
89.617	4.0
89.632	4.0
89.647	1.0
89.662	3.0
89.677	0.0
89.693	3.0
89.708	5.0
89.723	5.0
89.738	2.0
89.753	3.0
89.768	4.0
89.783	1.0
89.798	0.0
89.813	0.0
89.828	2.0
89.843	7.0
89.858	2.0
89.873	2.0
89.888	3.0
89.903	4.0
89.918	0.0
89.933	2.0
89.948	2.0
89.963	1.0
89.978	3.0
89.993	4.0
90.008	3.0
90.023	3.0
90.038	2.0
90.053	5.0
90.068	6.0
90.083	3.0
90.097	2.0
90.112	5.0
90.127	1.0
90.142	3.0
90.157	7.0
90.172	2.0
90.187	4.0
90.202	2.0
90.217	4.0
90.232	7.0
90.247	0.0
90.262	5.0
90.277	5.0
90.292	2.0
90.307	2.0
90.322	2.0
90.337	1.0
90.352	4.0
90.367	2.0
90.382	3.0
90.397	3.0
90.412	1.0
90.427	6.0
90.442	2.0
90.457	4.0
90.472	2.0
90.487	6.0
90.501	3.0
90.516	1.0
90.531	4.0
90.546	3.0
90.561	2.0
90.576	1.0
90.591	6.0
90.606	4.0
90.621	1.0
90.636	1.0
90.651	7.0
90.666	4.0
90.681	2.0
90.696	4.0
90.711	8.0
90.726	2.0
90.741	2.0
90.755	2.0
90.77	3.0
90.785	2.0
90.8	2.0
90.815	2.0
90.83	2.0
90.845	2.0
90.86	6.0
90.875	5.0
90.89	4.0
90.905	4.0
90.92	6.0
90.935	8.0
90.95	4.0
90.965	5.0
90.979	4.0
90.994	4.0
91.009	4.0
91.024	3.0
91.039	3.0
91.054	4.0
91.069	1.0
91.084	3.0
91.099	7.0
91.114	2.0
91.129	8.0
91.144	2.0
91.159	3.0
91.174	2.0
91.188	4.0
91.203	0.0
91.218	4.0
91.233	2.0
91.248	0.0
91.263	3.0
91.278	3.0
91.293	3.0
91.308	4.0
91.323	1.0
91.338	1.0
91.353	2.0
91.368	1.0
91.383	3.0
91.398	3.0
91.412	8.0
91.427	2.0
91.442	5.0
91.457	3.0
91.472	1.0
91.487	3.0
91.502	4.0
91.517	7.0
91.532	5.0
91.547	3.0
91.562	4.0
91.577	3.0
91.592	4.0
91.607	1.0
91.622	3.0
91.637	0.0
91.652	6.0
91.666	5.0
91.681	8.0
91.696	2.0
91.711	3.0
91.726	3.0
91.741	2.0
91.756	6.0
91.771	4.0
91.786	4.0
91.801	3.0
91.816	5.0
91.831	3.0
91.846	4.0
91.861	1.0
91.876	7.0
91.891	2.0
91.906	2.0
91.921	4.0
91.936	6.0
91.951	5.0
91.966	3.0
91.981	3.0
91.995	2.0
92.01	1.0
92.025	3.0
92.04	1.0
92.055	4.0
92.07	2.0
92.085	2.0
92.1	0.0
92.115	4.0
92.13	3.0
92.145	5.0
92.16	4.0
92.175	1.0
92.19	1.0
92.205	5.0
92.22	2.0
92.235	4.0
92.25	5.0
92.265	3.0
92.28	0.0
92.295	3.0
92.31	3.0
92.325	1.0
92.34	4.0
92.355	6.0
92.37	3.0
92.385	4.0
92.4	5.0
92.415	5.0
92.43	4.0
92.445	3.0
92.46	5.0
92.475	1.0
92.49	5.0
92.505	4.0
92.52	4.0
92.535	5.0
92.55	5.0
92.565	4.0
92.58	0.0
92.595	0.0
92.61	2.0
92.625	1.0
92.64	4.0
92.655	3.0
92.67	3.0
92.685	1.0
92.7	6.0
92.715	2.0
92.73	2.0
92.745	4.0
92.76	4.0
92.775	3.0
92.79	3.0
92.805	4.0
92.82	1.0
92.835	4.0
92.85	3.0
92.865	2.0
92.88	4.0
92.895	2.0
92.91	5.0
92.925	3.0
92.94	4.0
92.955	0.0
92.97	1.0
92.985	2.0
93.0	0.0
93.015	3.0
93.03	6.0
93.045	4.0
93.06	6.0
93.075	1.0
93.09	1.0
93.105	5.0
93.12	5.0
93.135	5.0
93.15	0.0
93.165	4.0
93.18	2.0
93.195	4.0
93.21	3.0
93.225	4.0
93.24	1.0
93.255	1.0
93.27	4.0
93.285	1.0
93.3	1.0
93.315	7.0
93.33	6.0
93.345	5.0
93.36	2.0
93.375	2.0
93.39	3.0
93.405	4.0
93.42	2.0
93.435	3.0
93.45	2.0
93.465	4.0
93.48	2.0
93.495	4.0
93.51	2.0
93.525	4.0
93.54	1.0
93.555	3.0
93.57	3.0
93.585	3.0
93.6	2.0
93.615	3.0
93.63	4.0
93.645	8.0
93.66	3.0
93.675	6.0
93.69	1.0
93.705	2.0
93.72	2.0
93.735	2.0
93.75	4.0
93.765	1.0
93.78	4.0
93.795	3.0
93.81	2.0
93.824	5.0
93.839	4.0
93.854	6.0
93.869	5.0
93.884	2.0
93.899	1.0
93.914	0.0
93.929	3.0
93.944	7.0
93.959	5.0
93.974	5.0
93.989	2.0
94.004	1.0
94.019	2.0
94.034	2.0
94.049	4.0
94.064	1.0
94.079	3.0
94.094	1.0
94.108	3.0
94.123	2.0
94.138	4.0
94.153	3.0
94.168	1.0
94.183	1.0
94.198	5.0
94.213	5.0
94.228	5.0
94.243	3.0
94.258	3.0
94.273	6.0
94.288	3.0
94.302	5.0
94.317	1.0
94.332	6.0
94.347	2.0
94.362	7.0
94.377	5.0
94.392	6.0
94.407	7.0
94.422	3.0
94.437	2.0
94.452	4.0
94.466	6.0
94.481	3.0
94.496	8.0
94.511	4.0
94.526	5.0
94.541	2.0
94.556	4.0
94.571	1.0
94.586	3.0
94.601	4.0
94.615	3.0
94.63	4.0
94.645	5.0
94.66	2.0
94.675	4.0
94.69	0.0
94.705	3.0
94.72	2.0
94.735	0.0
94.749	3.0
94.764	8.0
94.779	4.0
94.794	2.0
94.809	1.0
94.824	3.0
94.839	3.0
94.854	2.0
94.868	3.0
94.883	4.0
94.898	6.0
94.913	3.0
94.928	2.0
94.943	4.0
94.958	4.0
94.973	4.0
94.987	2.0
95.002	6.0
95.017	1.0
95.032	3.0
95.047	2.0
95.062	2.0
95.077	3.0
95.092	2.0
95.106	6.0
95.121	3.0
95.136	2.0
95.151	4.0
95.166	8.0
95.181	7.0
95.196	6.0
95.211	4.0
95.226	5.0
95.24	7.0
95.255	3.0
95.27	7.0
95.285	4.0
95.3	6.0
95.315	1.0
95.33	5.0
95.345	6.0
95.359	2.0
95.374	5.0
95.389	5.0
95.404	3.0
95.419	3.0
95.434	5.0
95.449	2.0
95.464	2.0
95.478	2.0
95.493	2.0
95.508	5.0
95.523	3.0
95.538	3.0
95.553	1.0
95.568	3.0
95.583	2.0
95.597	2.0
95.612	1.0
95.627	1.0
95.642	2.0
95.657	4.0
95.672	1.0
95.687	3.0
95.702	2.0
95.717	3.0
95.731	4.0
95.746	4.0
95.761	3.0
95.776	2.0
95.791	4.0
95.806	3.0
95.821	2.0
95.836	6.0
95.851	1.0
95.866	2.0
95.88	3.0
95.895	2.0
95.91	4.0
95.925	4.0
95.94	3.0
95.955	5.0
95.97	3.0
95.985	3.0
96.0	1.0
96.015	1.0
96.029	4.0
96.044	1.0
96.059	2.0
96.074	6.0
96.089	7.0
96.104	6.0
96.119	3.0
96.134	2.0
96.149	5.0
96.164	1.0
96.179	3.0
96.194	4.0
96.208	1.0
96.223	2.0
96.238	3.0
96.253	3.0
96.268	1.0
96.283	3.0
96.298	7.0
96.313	5.0
96.328	6.0
96.343	2.0
96.358	4.0
96.373	3.0
96.388	3.0
96.403	0.0
96.417	5.0
96.432	3.0
96.447	5.0
96.462	0.0
96.477	3.0
96.492	5.0
96.507	4.0
96.522	2.0
96.537	1.0
96.552	3.0
96.567	3.0
96.582	3.0
96.597	3.0
96.612	4.0
96.627	3.0
96.642	2.0
96.656	5.0
96.671	2.0
96.686	3.0
96.701	2.0
96.716	4.0
96.731	0.0
96.746	5.0
96.761	5.0
96.776	6.0
96.791	2.0
96.806	2.0
96.821	3.0
96.836	3.0
96.851	7.0
96.866	7.0
96.881	3.0
96.896	2.0
96.911	2.0
96.926	1.0
96.94	8.0
96.955	7.0
96.97	2.0
96.985	7.0
97.0	6.0
97.015	2.0
97.03	3.0
97.045	4.0
97.06	3.0
97.075	2.0
97.09	5.0
97.105	2.0
97.12	5.0
97.135	6.0
97.15	2.0
97.165	2.0
97.18	2.0
97.195	4.0
97.21	6.0
97.225	5.0
97.239	4.0
97.254	0.0
97.269	5.0
97.284	3.0
97.299	3.0
97.314	2.0
97.329	1.0
97.344	3.0
97.359	1.0
97.374	2.0
97.389	5.0
97.404	3.0
97.419	1.0
97.434	1.0
97.449	3.0
97.464	4.0
97.479	1.0
97.494	1.0
97.509	2.0
97.524	2.0
97.538	1.0
97.553	2.0
97.568	3.0
97.583	3.0
97.598	3.0
97.613	5.0
97.628	5.0
97.643	5.0
97.658	2.0
97.673	1.0
97.688	4.0
97.703	4.0
97.718	2.0
97.733	1.0
97.748	3.0
97.763	4.0
97.778	0.0
97.792	5.0
97.807	7.0
97.822	2.0
97.837	4.0
97.852	4.0
97.867	1.0
97.882	4.0
97.897	5.0
97.912	5.0
97.927	1.0
97.942	4.0
97.957	1.0
97.972	1.0
97.987	4.0
98.001	3.0
98.016	3.0
98.031	3.0
98.046	3.0
98.061	5.0
98.076	2.0
98.091	6.0
98.106	2.0
98.121	3.0
98.136	2.0
98.151	4.0
98.166	1.0
98.181	5.0
98.195	0.0
98.21	3.0
98.225	1.0
98.24	1.0
98.255	2.0
98.27	2.0
98.285	3.0
98.3	3.0
98.315	3.0
98.33	4.0
98.345	2.0
98.359	3.0
98.374	3.0
98.389	5.0
98.404	3.0
98.419	4.0
98.434	4.0
98.449	2.0
98.464	3.0
98.479	1.0
98.494	5.0
98.508	6.0
98.523	3.0
98.538	6.0
98.553	4.0
98.568	1.0
98.583	3.0
98.598	4.0
98.613	3.0
98.628	1.0
98.642	5.0
98.657	3.0
98.672	3.0
98.687	4.0
98.702	5.0
98.717	5.0
98.732	5.0
98.747	1.0
98.762	5.0
98.776	5.0
98.791	6.0
98.806	6.0
98.821	2.0
98.836	4.0
98.851	4.0
98.866	4.0
98.881	6.0
98.896	1.0
98.91	4.0
98.925	1.0
98.94	9.0
98.955	1.0
98.97	3.0
98.985	4.0
99.0	2.0
99.015	5.0
99.029	3.0
99.044	4.0
99.059	3.0
99.074	4.0
99.089	4.0
99.104	2.0
99.119	6.0
99.133	1.0
99.148	2.0
99.163	3.0
99.178	3.0
99.193	3.0
99.208	3.0
99.223	4.0
99.238	5.0
99.252	3.0
99.267	2.0
99.282	2.0
99.297	3.0
99.312	4.0
99.327	3.0
99.342	3.0
99.356	5.0
99.371	2.0
99.386	3.0
99.401	5.0
99.416	2.0
99.431	2.0
99.446	4.0
99.461	1.0
99.475	5.0
99.49	6.0
99.505	4.0
99.52	3.0
99.535	1.0
99.55	6.0
99.565	2.0
99.579	2.0
99.594	4.0
99.609	1.0
99.624	5.0
99.639	2.0
99.654	4.0
99.669	8.0
99.683	4.0
99.698	2.0
99.713	3.0
99.728	5.0
99.743	1.0
99.758	5.0
99.772	1.0
99.787	6.0
99.802	5.0
99.817	2.0
99.832	3.0
99.847	3.0
99.862	8.0
99.876	2.0
99.891	5.0
99.906	4.0
99.921	1.0
99.936	3.0
99.951	3.0
99.966	4.0
99.98	3.0
99.995	2.0
100.01	2.0
100.025	4.0
100.04	4.0
100.055	0.0
100.069	2.0
100.084	6.0
100.099	6.0
100.114	4.0
100.129	2.0
100.144	2.0
100.159	1.0
100.173	5.0
100.188	2.0
100.203	2.0
100.218	1.0
100.233	3.0
100.248	3.0
100.262	5.0
100.277	7.0
100.292	9.0
100.307	1.0
100.322	3.0
100.337	5.0
100.351	4.0
100.366	5.0
100.381	3.0
100.396	2.0
100.411	3.0
100.426	0.0
100.441	2.0
100.455	8.0
100.47	8.0
100.485	3.0
100.5	2.0
100.515	6.0
100.53	5.0
100.544	2.0
100.559	3.0
100.574	0.0
100.589	1.0
100.604	4.0
100.619	7.0
100.633	3.0
100.648	2.0
100.663	4.0
100.678	2.0
100.693	4.0
100.708	1.0
100.722	4.0
100.737	3.0
100.752	1.0
100.767	4.0
100.782	6.0
100.796	2.0
100.811	2.0
100.826	3.0
100.841	5.0
100.856	4.0
100.871	2.0
100.885	3.0
100.9	4.0
100.915	2.0
100.93	3.0
100.945	3.0
100.96	3.0
100.974	3.0
100.989	3.0
101.004	2.0
101.019	4.0
101.034	3.0
101.048	4.0
101.063	1.0
101.078	3.0
101.093	7.0
101.108	4.0
101.123	5.0
101.137	3.0
101.152	1.0
101.167	8.0
101.182	1.0
101.197	0.0
101.211	3.0
101.226	0.0
101.241	2.0
101.256	2.0
101.271	4.0
101.285	1.0
101.3	3.0
101.315	4.0
101.33	1.0
101.345	5.0
101.359	3.0
101.374	4.0
101.389	5.0
101.404	2.0
101.419	3.0
101.433	2.0
101.448	0.0
101.463	2.0
101.478	2.0
101.493	0.0
101.507	2.0
101.522	4.0
101.537	2.0
101.552	3.0
101.567	4.0
101.581	1.0
101.596	3.0
101.611	5.0
101.626	4.0
101.64	5.0
101.655	4.0
101.67	5.0
101.685	4.0
101.7	5.0
101.714	3.0
101.729	3.0
101.744	3.0
101.759	3.0
101.773	2.0
101.788	3.0
101.803	2.0
101.818	3.0
101.833	4.0
101.847	5.0
101.862	2.0
101.877	3.0
101.892	7.0
101.906	1.0
101.921	1.0
101.936	7.0
101.951	5.0
101.965	9.0
101.98	1.0
101.995	7.0
102.01	8.0
102.025	3.0
102.039	4.0
102.054	5.0
102.069	5.0
102.084	9.0
102.098	2.0
102.113	1.0
102.128	1.0
102.143	5.0
102.157	2.0
102.172	3.0
102.187	3.0
102.202	7.0
102.216	2.0
102.231	3.0
102.246	1.0
102.261	0.0
102.275	1.0
102.29	3.0
102.305	3.0
102.32	6.0
102.334	3.0
102.349	1.0
102.364	3.0
102.378	4.0
102.393	2.0
102.408	1.0
102.423	5.0
102.437	2.0
102.452	1.0
102.467	4.0
102.482	4.0
102.496	3.0
102.511	2.0
102.526	3.0
102.541	2.0
102.555	6.0
102.57	7.0
102.585	5.0
102.6	2.0
102.614	4.0
102.629	0.0
102.644	3.0
102.659	4.0
102.673	4.0
102.688	6.0
102.703	2.0
102.717	1.0
102.732	8.0
102.747	2.0
102.762	3.0
102.776	5.0
102.791	3.0
102.806	5.0
102.821	3.0
102.835	1.0
102.85	2.0
102.865	1.0
102.88	7.0
102.894	5.0
102.909	3.0
102.924	4.0
102.938	4.0
102.953	6.0
102.968	6.0
102.983	4.0
102.997	3.0
103.012	4.0
103.027	2.0
103.042	0.0
103.056	1.0
103.071	3.0
103.086	2.0
103.101	2.0
103.115	2.0
103.13	0.0
103.145	9.0
103.16	2.0
103.174	4.0
103.189	3.0
103.204	1.0
103.219	7.0
103.233	5.0
103.248	1.0
103.263	2.0
103.278	3.0
103.292	0.0
103.307	1.0
103.322	5.0
103.337	1.0
103.351	0.0
103.366	3.0
103.381	8.0
103.396	5.0
103.41	4.0
103.425	4.0
103.44	3.0
103.455	2.0
103.469	3.0
103.484	1.0
103.499	0.0
103.514	1.0
103.529	5.0
103.543	5.0
103.558	7.0
103.573	3.0
103.588	5.0
103.602	3.0
103.617	1.0
103.632	8.0
103.647	3.0
103.661	6.0
103.676	4.0
103.691	2.0
103.706	4.0
103.721	5.0
103.735	5.0
103.75	4.0
103.765	3.0
103.78	1.0
103.795	2.0
103.809	2.0
103.824	3.0
103.839	4.0
103.854	4.0
103.869	6.0
103.883	5.0
103.898	3.0
103.913	3.0
103.928	3.0
103.943	2.0
103.957	3.0
103.972	2.0
103.987	3.0
104.002	2.0
104.017	5.0
104.031	1.0
104.046	5.0
104.061	4.0
104.076	2.0
104.091	1.0
104.106	6.0
104.12	2.0
104.135	8.0
104.15	4.0
104.165	2.0
104.18	3.0
104.195	2.0
104.209	3.0
104.224	4.0
104.239	5.0
104.254	4.0
104.269	3.0
104.284	1.0
104.299	6.0
104.313	3.0
104.328	3.0
104.343	0.0
104.358	6.0
104.373	0.0
104.388	6.0
104.403	0.0
104.417	2.0
104.432	3.0
104.447	1.0
104.462	2.0
104.477	4.0
104.492	1.0
104.507	8.0
104.522	3.0
104.536	3.0
104.551	5.0
104.566	3.0
104.581	6.0
104.596	7.0
104.611	4.0
104.626	3.0
104.641	7.0
104.656	0.0
104.67	3.0
104.685	2.0
104.7	4.0
104.715	2.0
104.73	1.0
104.745	1.0
104.76	5.0
104.775	2.0
104.79	3.0
104.804	4.0
104.819	4.0
104.834	4.0
104.849	1.0
104.864	7.0
104.879	5.0
104.894	1.0
104.909	4.0
104.924	1.0
104.939	4.0
104.954	5.0
104.968	2.0
104.983	3.0
104.998	0.0
105.013	2.0
105.028	1.0
105.043	2.0
105.058	4.0
105.073	4.0
105.088	3.0
105.103	4.0
105.118	4.0
105.133	2.0
105.147	2.0
105.162	1.0
105.177	6.0
105.192	3.0
105.207	4.0
105.222	3.0
105.237	6.0
105.252	4.0
105.267	2.0
105.282	2.0
105.297	2.0
105.312	2.0
105.327	1.0
105.342	2.0
105.356	2.0
105.371	1.0
105.386	2.0
105.401	3.0
105.416	3.0
105.431	2.0
105.446	6.0
105.461	0.0
105.476	5.0
105.491	6.0
105.506	6.0
105.521	3.0
105.536	2.0
105.551	2.0
105.566	5.0
105.581	4.0
105.595	3.0
105.61	3.0
105.625	5.0
105.64	9.0
105.655	1.0
105.67	2.0
105.685	6.0
105.7	0.0
105.715	4.0
105.73	2.0
105.745	3.0
105.76	3.0
105.775	2.0
105.79	6.0
105.805	4.0
105.82	7.0
105.835	0.0
105.85	7.0
105.864	5.0
105.879	3.0
105.894	3.0
105.909	0.0
105.924	2.0
105.939	6.0
105.954	4.0
105.969	6.0
105.984	6.0
105.999	8.0
106.014	0.0
106.029	3.0
106.044	1.0
106.059	3.0
106.074	5.0
106.089	1.0
106.104	1.0
106.119	5.0
106.134	6.0
106.148	3.0
106.163	3.0
106.178	4.0
106.193	7.0
106.208	0.0
106.223	3.0
106.238	4.0
106.253	1.0
106.268	4.0
106.283	2.0
106.298	3.0
106.313	3.0
106.328	1.0
106.343	4.0
106.358	2.0
106.373	3.0
106.388	5.0
106.403	3.0
106.418	5.0
106.432	2.0
106.447	4.0
106.462	7.0
106.477	6.0
106.492	0.0
106.507	2.0
106.522	2.0
106.537	2.0
106.552	2.0
106.567	2.0
106.582	3.0
106.597	4.0
106.612	3.0
106.627	0.0
106.642	4.0
106.657	4.0
106.672	3.0
106.687	4.0
106.701	1.0
106.716	5.0
106.731	2.0
106.746	3.0
106.761	4.0
106.776	3.0
106.791	4.0
106.806	4.0
106.821	1.0
106.836	5.0
106.851	2.0
106.866	1.0
106.881	4.0
106.896	3.0
106.911	5.0
106.926	3.0
106.941	3.0
106.955	3.0
106.97	4.0
106.985	4.0
107.0	5.0
107.015	1.0
107.03	0.0
107.045	2.0
107.06	4.0
107.075	7.0
107.09	7.0
107.105	3.0
107.12	7.0
107.135	5.0
107.15	5.0
107.165	9.0
107.18	2.0
107.194	6.0
107.209	4.0
107.224	3.0
107.239	5.0
107.254	5.0
107.269	7.0
107.284	8.0
107.299	5.0
107.314	3.0
107.329	2.0
107.344	3.0
107.359	2.0
107.374	1.0
107.389	0.0
107.404	4.0
107.418	6.0
107.433	3.0
107.448	0.0
107.463	1.0
107.478	3.0
107.493	4.0
107.508	3.0
107.523	3.0
107.538	3.0
107.553	2.0
107.568	3.0
107.583	1.0
107.598	2.0
107.613	1.0
107.627	6.0
107.642	6.0
107.657	6.0
107.672	3.0
107.687	4.0
107.702	1.0
107.717	3.0
107.732	7.0
107.747	3.0
107.762	6.0
107.777	3.0
107.792	4.0
107.807	1.0
107.821	3.0
107.836	5.0
107.851	4.0
107.866	1.0
107.881	2.0
107.896	1.0
107.911	2.0
107.926	2.0
107.941	8.0
107.956	2.0
107.971	4.0
107.986	6.0
108.0	5.0
108.015	4.0
108.03	6.0
108.045	3.0
108.06	6.0
108.075	3.0
108.09	3.0
108.105	6.0
108.12	3.0
108.135	3.0
108.15	3.0
108.164	7.0
108.179	3.0
108.194	4.0
108.209	1.0
108.224	2.0
108.239	1.0
108.254	3.0
108.269	5.0
108.284	2.0
108.299	1.0
108.313	5.0
108.328	4.0
108.343	1.0
108.358	8.0
108.373	2.0
108.388	1.0
108.403	0.0
108.418	6.0
108.433	0.0
108.448	5.0
108.462	3.0
108.477	5.0
108.492	5.0
108.507	5.0
108.522	1.0
108.537	3.0
108.552	5.0
108.567	3.0
108.582	7.0
108.597	1.0
108.611	3.0
108.626	4.0
108.641	1.0
108.656	4.0
108.671	1.0
108.686	2.0
108.701	3.0
108.716	3.0
108.731	3.0
108.745	1.0
108.76	3.0
108.775	2.0
108.79	2.0
108.805	4.0
108.82	2.0
108.835	3.0
108.85	1.0
108.865	6.0
108.879	2.0
108.894	0.0
108.909	5.0
108.924	2.0
108.939	6.0
108.954	1.0
108.969	3.0
108.984	3.0
108.999	2.0
109.013	2.0
109.028	3.0
109.043	2.0
109.058	5.0
109.073	3.0
109.088	3.0
109.103	3.0
109.118	4.0
109.133	2.0
109.147	0.0
109.162	0.0
109.177	3.0
109.192	3.0
109.207	5.0
109.222	1.0
109.237	1.0
109.252	3.0
109.267	3.0
109.281	4.0
109.296	2.0
109.311	4.0
109.326	5.0
109.341	3.0
109.356	4.0
109.371	4.0
109.386	1.0
109.4	3.0
109.415	2.0
109.43	5.0
109.445	6.0
109.46	0.0
109.475	1.0
109.49	4.0
109.505	4.0
109.52	2.0
109.534	5.0
109.549	2.0
109.564	4.0
109.579	2.0
109.594	3.0
109.609	3.0
109.624	1.0
109.639	3.0
109.653	3.0
109.668	3.0
109.683	2.0
109.698	5.0
109.713	4.0
109.728	2.0
109.743	2.0
109.758	2.0
109.773	3.0
109.787	1.0
109.802	4.0
109.817	6.0
109.832	2.0
109.847	1.0
109.862	5.0
109.877	3.0
109.892	1.0
109.907	3.0
109.921	4.0
109.936	2.0
109.951	3.0
109.966	2.0
109.981	1.0
109.996	2.0
110.011	5.0
110.026	7.0
110.04	5.0
110.055	0.0
110.07	5.0
110.085	1.0
110.1	1.0
110.115	3.0
110.13	4.0
110.145	2.0
110.16	2.0
110.174	4.0
110.189	2.0
110.204	6.0
110.219	7.0
110.234	4.0
110.249	4.0
110.264	5.0
110.279	3.0
110.294	2.0
110.308	7.0
110.323	4.0
110.338	6.0
110.353	1.0
110.368	3.0
110.383	3.0
110.398	2.0
110.413	3.0
110.428	1.0
110.442	2.0
110.457	2.0
110.472	3.0
110.487	1.0
110.502	3.0
110.517	2.0
110.532	1.0
110.547	4.0
110.561	3.0
110.576	4.0
110.591	2.0
110.606	2.0
110.621	4.0
110.636	6.0
110.651	3.0
110.666	3.0
110.681	2.0
110.695	2.0
110.71	1.0
110.725	2.0
110.74	1.0
110.755	5.0
110.77	2.0
110.785	2.0
110.8	3.0
110.815	3.0
110.829	2.0
110.844	1.0
110.859	2.0
110.874	4.0
110.889	2.0
110.904	4.0
110.919	0.0
110.934	3.0
110.948	1.0
110.963	3.0
110.978	4.0
110.993	6.0
111.008	4.0
111.023	1.0
111.038	4.0
111.053	2.0
111.067	5.0
111.082	4.0
111.097	2.0
111.112	1.0
111.127	1.0
111.142	4.0
111.157	6.0
111.172	4.0
111.186	4.0
111.201	5.0
111.216	4.0
111.231	4.0
111.246	4.0
111.261	3.0
111.276	3.0
111.291	3.0
111.305	4.0
111.32	5.0
111.335	5.0
111.35	4.0
111.365	1.0
111.38	3.0
111.395	8.0
111.41	4.0
111.424	3.0
111.439	2.0
111.454	2.0
111.469	1.0
111.484	6.0
111.499	4.0
111.514	2.0
111.528	2.0
111.543	5.0
111.558	4.0
111.573	5.0
111.588	2.0
111.603	5.0
111.618	8.0
111.633	4.0
111.647	4.0
111.662	3.0
111.677	6.0
111.692	6.0
111.707	4.0
111.722	5.0
111.737	8.0
111.751	6.0
111.766	3.0
111.781	3.0
111.796	4.0
111.811	3.0
111.826	4.0
111.84	1.0
111.855	2.0
111.87	4.0
111.885	5.0
111.9	4.0
111.915	5.0
111.93	3.0
111.944	4.0
111.959	2.0
111.974	2.0
111.989	4.0
112.004	2.0
112.019	2.0
112.033	3.0
112.048	2.0
112.063	3.0
112.078	3.0
112.093	6.0
112.108	2.0
112.123	6.0
112.137	6.0
112.152	0.0
112.167	6.0
112.182	3.0
112.197	3.0
112.212	0.0
112.226	1.0
112.241	4.0
112.256	3.0
112.271	5.0
112.286	1.0
112.301	3.0
112.315	2.0
112.33	4.0
112.345	2.0
112.36	5.0
112.375	2.0
112.389	1.0
112.404	8.0
112.419	4.0
112.434	7.0
112.449	4.0
112.464	2.0
112.478	2.0
112.493	3.0
112.508	2.0
112.523	5.0
112.538	3.0
112.553	9.0
112.567	4.0
112.582	1.0
112.597	3.0
112.612	3.0
112.627	4.0
112.642	5.0
112.656	2.0
112.671	9.0
112.686	2.0
112.701	1.0
112.716	4.0
112.73	6.0
112.745	8.0
112.76	7.0
112.775	3.0
112.79	6.0
112.805	3.0
112.819	6.0
112.834	3.0
112.849	3.0
112.864	3.0
112.879	4.0
112.894	8.0
112.908	1.0
112.923	1.0
112.938	2.0
112.953	2.0
112.968	6.0
112.983	4.0
112.997	4.0
113.012	4.0
113.027	7.0
113.042	4.0
113.057	3.0
113.072	0.0
113.086	3.0
113.101	2.0
113.116	4.0
113.131	2.0
113.146	5.0
113.161	2.0
113.175	3.0
113.19	1.0
113.205	4.0
113.22	1.0
113.235	6.0
113.25	4.0
113.265	2.0
113.279	6.0
113.294	1.0
113.309	4.0
113.324	2.0
113.339	2.0
113.354	3.0
113.368	4.0
113.383	5.0
113.398	2.0
113.413	4.0
113.428	4.0
113.443	4.0
113.458	3.0
113.472	7.0
113.487	2.0
113.502	4.0
113.517	0.0
113.532	5.0
113.547	7.0
113.562	7.0
113.576	4.0
113.591	7.0
113.606	2.0
113.621	2.0
113.636	3.0
113.651	4.0
113.666	2.0
113.681	3.0
113.695	2.0
113.71	1.0
113.725	1.0
113.74	0.0
113.755	5.0
113.77	3.0
113.785	2.0
113.8	1.0
113.814	5.0
113.829	3.0
113.844	2.0
113.859	3.0
113.874	2.0
113.889	4.0
113.904	2.0
113.919	1.0
113.934	1.0
113.949	1.0
113.963	6.0
113.978	3.0
113.993	2.0
114.008	7.0
114.023	5.0
114.038	6.0
114.053	4.0
114.068	2.0
114.083	3.0
114.098	3.0
114.113	4.0
114.127	4.0
114.142	2.0
114.157	2.0
114.172	7.0
114.187	4.0
114.202	3.0
114.217	1.0
114.232	4.0
114.247	2.0
114.262	1.0
114.277	4.0
114.292	2.0
114.307	2.0
114.322	3.0
114.337	4.0
114.351	3.0
114.366	3.0
114.381	3.0
114.396	3.0
114.411	6.0
114.426	5.0
114.441	5.0
114.456	2.0
114.471	2.0
114.486	1.0
114.501	1.0
114.516	5.0
114.531	4.0
114.546	3.0
114.561	7.0
114.576	5.0
114.591	3.0
114.606	5.0
114.621	3.0
114.636	6.0
114.65	2.0
114.665	4.0
114.68	4.0
114.695	4.0
114.71	1.0
114.725	3.0
114.74	7.0
114.755	2.0
114.77	4.0
114.785	4.0
114.8	1.0
114.815	1.0
114.83	4.0
114.845	8.0
114.86	6.0
114.875	4.0
114.89	0.0
114.905	3.0
114.92	4.0
114.935	3.0
114.95	5.0
114.965	0.0
114.98	1.0
114.995	2.0
115.009	2.0
115.024	3.0
115.039	5.0
115.054	2.0
115.069	1.0
115.084	2.0
115.099	1.0
115.114	4.0
115.129	6.0
115.144	3.0
115.159	1.0
115.174	2.0
115.189	4.0
115.204	3.0
115.219	5.0
115.234	2.0
115.249	1.0
115.264	4.0
115.279	5.0
115.294	7.0
115.309	5.0
115.323	3.0
115.338	1.0
115.353	0.0
115.368	1.0
115.383	2.0
115.398	4.0
115.413	1.0
115.428	8.0
115.443	3.0
115.458	3.0
115.473	1.0
115.488	6.0
115.503	2.0
115.518	5.0
115.533	3.0
115.548	4.0
115.562	5.0
115.577	2.0
115.592	6.0
115.607	5.0
115.622	4.0
115.637	1.0
115.652	5.0
115.667	3.0
115.682	3.0
115.697	2.0
115.712	0.0
115.727	3.0
115.741	2.0
115.756	4.0
115.771	0.0
115.786	0.0
115.801	2.0
115.816	2.0
115.831	6.0
115.846	6.0
115.861	5.0
115.875	8.0
115.89	3.0
115.905	3.0
115.92	9.0
115.935	5.0
115.95	3.0
115.965	1.0
115.98	5.0
115.995	3.0
116.009	9.0
116.024	3.0
116.039	5.0
116.054	2.0
116.069	2.0
116.084	8.0
116.099	8.0
116.113	1.0
116.128	2.0
116.143	4.0
116.158	4.0
116.173	5.0
116.188	2.0
116.202	3.0
116.217	4.0
116.232	5.0
116.247	5.0
116.262	2.0
116.277	3.0
116.291	4.0
116.306	1.0
116.321	7.0
116.336	2.0
116.351	8.0
116.366	1.0
116.38	5.0
116.395	3.0
116.41	5.0
116.425	4.0
116.44	3.0
116.454	4.0
116.469	4.0
116.484	5.0
116.499	7.0
116.514	5.0
116.528	3.0
116.543	0.0
116.558	4.0
116.573	4.0
116.588	6.0
116.602	2.0
116.617	6.0
116.632	7.0
116.647	3.0
116.662	3.0
116.676	2.0
116.691	3.0
116.706	3.0
116.721	4.0
116.735	4.0
116.75	1.0
116.765	3.0
116.78	6.0
116.795	3.0
116.809	4.0
116.824	4.0
116.839	2.0
116.854	3.0
116.868	3.0
116.883	6.0
116.898	6.0
116.913	3.0
116.927	4.0
116.942	3.0
116.957	2.0
116.972	3.0
116.986	2.0
117.001	6.0
117.016	3.0
117.031	3.0
117.045	3.0
117.06	4.0
117.075	0.0
117.09	1.0
117.104	5.0
117.119	2.0
117.134	4.0
117.149	7.0
117.163	5.0
117.178	6.0
117.193	4.0
117.208	3.0
117.222	7.0
117.237	0.0
117.252	3.0
117.267	6.0
117.281	2.0
117.296	1.0
117.311	5.0
117.325	4.0
117.34	2.0
117.355	1.0
117.37	2.0
117.384	2.0
117.399	4.0
117.414	5.0
117.429	6.0
117.443	3.0
117.458	3.0
117.473	4.0
117.487	1.0
117.502	2.0
117.517	5.0
117.532	3.0
117.546	7.0
117.561	7.0
117.576	2.0
117.59	3.0
117.605	8.0
117.62	2.0
117.635	2.0
117.649	4.0
117.664	3.0
117.679	2.0
117.693	4.0
117.708	3.0
117.723	2.0
117.738	4.0
117.752	3.0
117.767	5.0
117.782	6.0
117.796	5.0
117.811	5.0
117.826	2.0
117.841	0.0
117.855	6.0
117.87	3.0
117.885	1.0
117.899	4.0
117.914	1.0
117.929	3.0
117.944	1.0
117.958	2.0
117.973	4.0
117.988	3.0
118.002	4.0
118.017	5.0
118.032	7.0
118.047	4.0
118.062	2.0
118.077	4.0
118.092	6.0
118.107	7.0
118.121	3.0
118.136	3.0
118.151	5.0
118.166	2.0
118.181	3.0
118.196	5.0
118.211	5.0
118.225	2.0
118.24	4.0
118.255	3.0
118.27	6.0
118.285	5.0
118.3	5.0
118.315	4.0
118.33	3.0
118.344	1.0
118.359	3.0
118.374	2.0
118.389	2.0
118.404	3.0
118.419	5.0
118.434	3.0
118.449	2.0
118.463	2.0
118.478	6.0
118.493	2.0
118.508	5.0
118.523	2.0
118.538	3.0
118.553	0.0
118.567	3.0
118.582	3.0
118.597	4.0
118.612	6.0
118.627	3.0
118.642	3.0
118.657	5.0
118.672	3.0
118.686	2.0
118.701	8.0
118.716	6.0
118.731	2.0
118.746	6.0
118.761	1.0
118.776	3.0
118.791	1.0
118.805	2.0
118.82	5.0
118.835	3.0
118.85	3.0
118.865	4.0
118.88	3.0
118.895	6.0
118.909	3.0
118.924	7.0
118.939	6.0
118.954	3.0
118.969	2.0
118.984	1.0
118.999	4.0
119.014	3.0
119.028	10.0
119.043	4.0
119.058	2.0
119.073	3.0
119.088	1.0
119.103	2.0
119.118	5.0
119.133	3.0
119.147	2.0
119.162	4.0
119.177	3.0
119.192	4.0
119.207	8.0
119.222	4.0
119.237	6.0
119.251	2.0
119.266	4.0
119.281	3.0
119.296	5.0
119.311	6.0
119.326	2.0
119.341	0.0
119.356	6.0
119.37	5.0
119.385	5.0
119.4	4.0
119.415	3.0
119.43	0.0
119.445	6.0
119.46	2.0
119.475	4.0
119.489	6.0
119.504	6.0
119.519	4.0
119.534	3.0
119.549	0.0
119.564	3.0
119.579	5.0
119.593	1.0
119.608	4.0
119.623	6.0
119.638	4.0
119.653	2.0
119.668	2.0
119.683	2.0
119.698	3.0
119.712	3.0
119.727	4.0
119.742	6.0
119.757	3.0
119.772	4.0
119.787	3.0
119.802	4.0
119.817	3.0
119.831	2.0
119.846	3.0
119.861	2.0
119.876	4.0
119.891	2.0
119.906	5.0
119.921	3.0
119.935	1.0
119.95	3.0
119.965	4.0
119.98	3.0
119.995	6.0
120.01	9.0
120.025	2.0
120.04	0.0
120.054	1.0
120.069	3.0
120.084	2.0
120.099	0.0
120.114	1.0
120.129	1.0
120.144	2.0
120.159	1.0
120.173	1.0
120.188	2.0
120.203	0.0
120.218	1.0
120.233	1.0
120.248	1.0
120.263	1.0
120.277	0.0
120.292	0.0
120.307	0.0
120.322	0.0
120.337	1.0
120.352	0.0
120.367	0.0
120.382	0.0
120.396	0.0
120.411	2.0
120.426	0.0
120.441	0.0
120.456	0.0
120.471	0.0
120.486	0.0
120.501	1.0
120.515	0.0
120.53	0.0
120.545	0.0
120.56	0.0
120.575	0.0
120.59	0.0
120.605	0.0
120.619	0.0
120.634	1.0
120.649	0.0
120.664	0.0
120.679	1.0
120.694	0.0
120.709	0.0
120.724	0.0
120.738	0.0
120.753	0.0
120.768	0.0
120.783	0.0
120.798	0.0
120.813	0.0
120.828	0.0
120.843	0.0
120.857	0.0
120.872	0.0
120.887	0.0
120.902	0.0
120.917	0.0
120.932	0.0
120.947	0.0
120.961	1.0
120.976	0.0
