-1.217	0.0
-1.202	0.0
-1.187	0.0
-1.172	0.0
-1.157	0.0
-1.142	0.0
-1.128	0.0
-1.113	0.0
-1.098	0.0
-1.083	0.0
-1.068	0.0
-1.054	1.0
-1.039	0.0
-1.024	0.0
-1.009	0.0
-0.994	0.0
-0.979	0.0
-0.965	0.0
-0.95	0.0
-0.935	0.0
-0.92	0.0
-0.905	0.0
-0.891	0.0
-0.876	0.0
-0.861	0.0
-0.846	0.0
-0.831	0.0
-0.816	0.0
-0.802	0.0
-0.787	0.0
-0.772	0.0
-0.757	0.0
-0.742	0.0
-0.728	0.0
-0.713	0.0
-0.698	0.0
-0.683	0.0
-0.668	0.0
-0.653	0.0
-0.639	0.0
-0.624	0.0
-0.609	0.0
-0.594	0.0
-0.579	0.0
-0.565	0.0
-0.55	0.0
-0.535	0.0
-0.52	0.0
-0.505	0.0
-0.49	0.0
-0.476	0.0
-0.461	0.0
-0.446	0.0
-0.431	0.0
-0.416	0.0
-0.401	0.0
-0.387	0.0
-0.372	0.0
-0.357	0.0
-0.342	0.0
-0.327	0.0
-0.313	0.0
-0.298	0.0
-0.283	0.0
-0.268	0.0
-0.253	0.0
-0.238	0.0
-0.224	0.0
-0.209	0.0
-0.194	0.0
-0.179	0.0
-0.164	0.0
-0.15	0.0
-0.135	0.0
-0.12	0.0
-0.105	0.0
-0.09	0.0
-0.075	0.0
-0.061	0.0
-0.046	0.0
-0.031	0.0
-0.016	0.0
-0.001	0.0
0.013	0.0
0.028	0.0
0.043	0.0
0.058	0.0
0.073	0.0
0.088	0.0
0.102	0.0
0.117	0.0
0.132	0.0
0.147	0.0
0.162	1.0
0.176	0.0
0.191	0.0
0.206	0.0
0.221	0.0
0.236	0.0
0.251	0.0
0.265	2.0
0.28	0.0
0.295	0.0
0.31	0.0
0.325	0.0
0.339	0.0
0.354	0.0
0.369	0.0
0.384	0.0
0.399	0.0
0.414	0.0
0.428	0.0
0.443	0.0
0.458	0.0
0.473	1.0
0.488	0.0
0.502	0.0
0.517	0.0
0.532	1.0
0.547	0.0
0.562	0.0
0.577	0.0
0.591	0.0
0.606	0.0
0.621	0.0
0.636	0.0
0.651	0.0
0.665	0.0
0.68	1.0
0.695	0.0
0.71	0.0
0.725	1.0
0.74	0.0
0.754	0.0
0.769	0.0
0.784	0.0
0.799	0.0
0.814	0.0
0.828	0.0
0.843	0.0
0.858	0.0
0.873	0.0
0.888	0.0
0.903	0.0
0.917	0.0
0.932	0.0
0.947	0.0
0.962	0.0
0.977	0.0
0.991	0.0
1.006	0.0
1.021	1.0
1.036	0.0
1.051	0.0
1.065	0.0
1.08	0.0
1.095	0.0
1.11	0.0
1.125	0.0
1.14	0.0
1.154	0.0
1.169	0.0
1.184	0.0
1.199	0.0
1.214	0.0
1.228	0.0
1.243	0.0
1.258	0.0
1.273	0.0
1.288	0.0
1.302	0.0
1.317	1.0
1.332	0.0
1.347	0.0
1.362	0.0
1.376	0.0
1.391	0.0
1.406	0.0
1.421	0.0
1.436	0.0
1.45	0.0
1.465	0.0
1.48	0.0
1.495	0.0
1.51	0.0
1.524	0.0
1.539	0.0
1.554	0.0
1.569	0.0
1.584	0.0
1.598	0.0
1.613	0.0
1.628	0.0
1.643	0.0
1.658	0.0
1.672	0.0
1.687	0.0
1.702	0.0
1.717	0.0
1.732	0.0
1.746	0.0
1.761	0.0
1.776	0.0
1.791	0.0
1.806	0.0
1.82	0.0
1.835	0.0
1.85	0.0
1.865	0.0
1.88	0.0
1.894	0.0
1.909	0.0
1.924	1.0
1.939	0.0
1.954	0.0
1.968	1.0
1.983	0.0
1.998	0.0
2.013	1.0
2.028	0.0
2.042	0.0
2.057	1.0
2.072	0.0
2.087	0.0
2.101	0.0
2.116	0.0
2.131	0.0
2.146	0.0
2.161	0.0
2.175	0.0
2.19	0.0
2.205	0.0
2.22	0.0
2.235	0.0
2.249	1.0
2.264	0.0
2.279	0.0
2.294	2.0
2.308	1.0
2.323	0.0
2.338	0.0
2.353	1.0
2.368	1.0
2.382	0.0
2.397	2.0
2.412	1.0
2.427	0.0
2.442	2.0
2.456	3.0
2.471	3.0
2.486	3.0
2.501	0.0
2.515	1.0
2.53	6.0
2.545	0.0
2.56	3.0
2.575	3.0
2.589	1.0
2.604	1.0
2.619	1.0
2.634	8.0
2.649	2.0
2.663	7.0
2.678	6.0
2.693	2.0
2.708	3.0
2.722	1.0
2.737	2.0
2.752	2.0
2.767	2.0
2.782	2.0
2.796	2.0
2.811	3.0
2.826	2.0
2.841	5.0
2.856	3.0
2.87	5.0
2.885	2.0
2.9	2.0
2.915	1.0
2.93	3.0
2.944	2.0
2.959	1.0
2.974	6.0
2.989	3.0
3.004	2.0
3.018	5.0
3.033	5.0
3.048	0.0
3.063	5.0
3.078	10.0
3.092	4.0
3.107	1.0
3.122	7.0
3.137	2.0
3.152	5.0
3.166	5.0
3.181	2.0
3.196	6.0
3.211	5.0
3.226	4.0
3.24	3.0
3.255	5.0
3.27	4.0
3.285	5.0
3.3	3.0
3.315	4.0
3.329	4.0
3.344	3.0
3.359	8.0
3.374	6.0
3.389	5.0
3.403	2.0
3.418	7.0
3.433	1.0
3.448	4.0
3.463	7.0
3.478	6.0
3.492	7.0
3.507	9.0
3.522	2.0
3.537	7.0
3.552	7.0
3.567	4.0
3.581	6.0
3.596	5.0
3.611	6.0
3.626	6.0
3.641	2.0
3.656	4.0
3.671	3.0
3.685	11.0
3.7	2.0
3.715	6.0
3.73	8.0
3.745	5.0
3.76	5.0
3.775	3.0
3.789	7.0
3.804	2.0
3.819	5.0
3.834	10.0
3.849	5.0
3.864	2.0
3.879	5.0
3.894	3.0
3.908	7.0
3.923	6.0
3.938	6.0
3.953	4.0
3.968	6.0
3.983	9.0
3.998	8.0
4.013	4.0
4.027	11.0
4.042	4.0
4.057	7.0
4.072	4.0
4.087	6.0
4.102	8.0
4.117	5.0
4.132	7.0
4.147	5.0
4.162	3.0
4.176	9.0
4.191	8.0
4.206	6.0
4.221	4.0
4.236	6.0
4.251	9.0
4.266	8.0
4.281	11.0
4.296	7.0
4.311	4.0
4.326	2.0
4.341	6.0
4.356	7.0
4.37	8.0
4.385	7.0
4.4	2.0
4.415	7.0
4.43	7.0
4.445	7.0
4.46	3.0
4.475	9.0
4.49	6.0
4.505	4.0
4.52	6.0
4.535	3.0
4.55	3.0
4.565	8.0
4.58	11.0
4.595	7.0
4.61	6.0
4.625	8.0
4.639	4.0
4.654	5.0
4.669	6.0
4.684	3.0
4.699	9.0
4.714	12.0
4.729	11.0
4.744	10.0
4.759	10.0
4.774	10.0
4.789	7.0
4.804	3.0
4.819	8.0
4.834	6.0
4.849	8.0
4.864	8.0
4.879	9.0
4.894	6.0
4.909	5.0
4.924	9.0
4.939	5.0
4.954	6.0
4.969	6.0
4.984	9.0
4.999	11.0
5.014	11.0
5.029	6.0
5.044	6.0
5.059	7.0
5.074	5.0
5.089	4.0
5.104	7.0
5.119	6.0
5.134	7.0
5.149	11.0
5.164	4.0
5.179	12.0
5.194	11.0
5.209	10.0
5.224	8.0
5.239	7.0
5.254	9.0
5.269	6.0
5.284	7.0
5.299	14.0
5.314	13.0
5.329	8.0
5.344	7.0
5.359	10.0
5.374	9.0
5.389	5.0
5.404	10.0
5.419	4.0
5.434	10.0
5.449	12.0
5.464	8.0
5.479	12.0
5.494	8.0
5.509	7.0
5.524	6.0
5.539	5.0
5.554	9.0
5.569	7.0
5.584	4.0
5.599	11.0
5.614	5.0
5.629	8.0
5.644	11.0
5.659	7.0
5.674	6.0
5.689	11.0
5.704	8.0
5.719	7.0
5.734	6.0
5.749	6.0
5.764	8.0
5.779	7.0
5.794	7.0
5.809	5.0
5.824	10.0
5.839	10.0
5.854	7.0
5.869	8.0
5.884	7.0
5.899	7.0
5.914	6.0
5.929	5.0
5.944	8.0
5.959	11.0
5.974	9.0
5.989	6.0
6.004	3.0
6.019	14.0
6.034	8.0
6.049	6.0
6.064	7.0
6.079	12.0
6.094	6.0
6.109	12.0
6.124	5.0
6.139	8.0
6.154	8.0
6.169	13.0
6.184	11.0
6.199	12.0
6.214	8.0
6.229	9.0
6.244	11.0
6.259	12.0
6.274	7.0
6.289	10.0
6.304	9.0
6.319	16.0
6.334	12.0
6.349	13.0
6.364	11.0
6.379	9.0
6.394	12.0
6.409	8.0
6.424	4.0
6.439	10.0
6.454	8.0
6.469	15.0
6.484	11.0
6.499	10.0
6.514	7.0
6.529	12.0
6.544	4.0
6.559	12.0
6.574	2.0
6.589	9.0
6.604	11.0
6.619	12.0
6.634	10.0
6.649	8.0
6.664	14.0
6.679	11.0
6.694	9.0
6.709	10.0
6.724	4.0
6.739	4.0
6.754	9.0
6.769	12.0
6.784	16.0
6.799	11.0
6.814	5.0
6.829	8.0
6.844	14.0
6.859	8.0
6.873	5.0
6.888	5.0
6.903	11.0
6.918	10.0
6.933	10.0
6.948	15.0
6.963	7.0
6.978	9.0
6.993	7.0
7.008	6.0
7.023	7.0
7.038	9.0
7.053	10.0
7.068	5.0
7.083	9.0
7.098	11.0
7.113	7.0
7.128	2.0
7.143	6.0
7.157	7.0
7.172	7.0
7.187	6.0
7.202	10.0
7.217	8.0
7.232	9.0
7.247	8.0
7.262	6.0
7.277	9.0
7.292	11.0
7.307	9.0
7.322	7.0
7.336	10.0
7.351	7.0
7.366	8.0
7.381	10.0
7.396	8.0
7.411	9.0
7.426	15.0
7.441	11.0
7.456	10.0
7.471	8.0
7.485	10.0
7.5	8.0
7.515	10.0
7.53	11.0
7.545	11.0
7.56	14.0
7.575	6.0
7.59	5.0
7.604	6.0
7.619	18.0
7.634	10.0
7.649	11.0
7.664	9.0
7.679	7.0
7.693	10.0
7.708	14.0
7.723	9.0
7.738	11.0
7.753	11.0
7.768	6.0
7.783	5.0
7.797	7.0
7.812	12.0
7.827	6.0
7.842	7.0
7.857	6.0
7.871	4.0
7.886	7.0
7.901	10.0
7.916	5.0
7.931	4.0
7.945	5.0
7.96	11.0
7.975	11.0
7.99	12.0
8.005	9.0
8.019	7.0
8.034	6.0
8.049	11.0
8.064	5.0
8.078	10.0
8.093	6.0
8.108	13.0
8.123	8.0
8.137	7.0
8.152	9.0
8.167	7.0
8.182	16.0
8.196	12.0
8.211	8.0
8.226	7.0
8.241	5.0
8.255	13.0
8.27	15.0
8.285	10.0
8.3	6.0
8.314	10.0
8.329	9.0
8.344	3.0
8.358	6.0
8.373	7.0
8.388	10.0
8.403	11.0
8.417	19.0
8.432	7.0
8.447	11.0
8.461	9.0
8.476	12.0
8.491	7.0
8.505	8.0
8.52	2.0
8.535	4.0
8.55	8.0
8.564	15.0
8.579	5.0
8.594	6.0
8.608	7.0
8.623	12.0
8.638	15.0
8.652	4.0
8.667	10.0
8.682	9.0
8.696	6.0
8.711	11.0
8.726	6.0
8.74	8.0
8.755	4.0
8.77	9.0
8.784	8.0
8.799	7.0
8.814	12.0
8.828	8.0
8.843	8.0
8.858	12.0
8.872	12.0
8.887	7.0
8.902	7.0
8.916	8.0
8.931	11.0
8.946	7.0
8.96	13.0
8.975	8.0
8.99	8.0
9.004	11.0
9.019	7.0
9.034	8.0
9.048	4.0
9.063	13.0
9.077	5.0
9.092	11.0
9.107	7.0
9.121	18.0
9.136	11.0
9.151	4.0
9.165	13.0
9.18	8.0
9.195	5.0
9.209	13.0
9.224	6.0
9.239	4.0
9.253	9.0
9.268	5.0
9.283	8.0
9.297	11.0
9.312	6.0
9.327	11.0
9.341	14.0
9.356	8.0
9.371	6.0
9.385	9.0
9.4	7.0
9.415	8.0
9.429	13.0
9.444	7.0
9.458	16.0
9.473	5.0
9.488	8.0
9.502	4.0
9.517	3.0
9.532	12.0
9.546	7.0
9.561	8.0
9.576	12.0
9.59	7.0
9.605	3.0
9.62	7.0
9.635	7.0
9.649	10.0
9.664	10.0
9.679	11.0
9.693	9.0
9.708	5.0
9.723	10.0
9.737	15.0
9.752	13.0
9.767	7.0
9.781	8.0
9.796	8.0
9.811	4.0
9.825	9.0
9.84	3.0
9.855	7.0
9.87	8.0
9.884	7.0
9.899	9.0
9.914	11.0
9.928	6.0
9.943	8.0
9.958	9.0
9.973	4.0
9.987	6.0
10.002	5.0
10.017	2.0
10.031	11.0
10.046	10.0
10.061	8.0
10.076	8.0
10.09	11.0
10.105	5.0
10.12	12.0
10.135	8.0
10.149	13.0
10.164	13.0
10.179	8.0
10.194	5.0
10.208	13.0
10.223	10.0
10.238	9.0
10.253	7.0
10.267	7.0
10.282	5.0
10.297	9.0
10.312	11.0
10.326	8.0
10.341	8.0
10.356	8.0
10.371	11.0
10.386	5.0
10.4	15.0
10.415	9.0
10.43	8.0
10.445	11.0
10.46	8.0
10.474	10.0
10.489	11.0
10.504	14.0
10.519	4.0
10.533	10.0
10.548	6.0
10.563	10.0
10.578	5.0
10.593	9.0
10.608	10.0
10.622	6.0
10.637	8.0
10.652	8.0
10.667	10.0
10.682	3.0
10.696	4.0
10.711	9.0
10.726	9.0
10.741	7.0
10.756	8.0
10.771	5.0
10.785	10.0
10.8	7.0
10.815	5.0
10.83	6.0
10.845	9.0
10.86	9.0
10.874	9.0
10.889	10.0
10.904	6.0
10.919	8.0
10.934	4.0
10.949	16.0
10.963	11.0
10.978	8.0
10.993	6.0
11.008	9.0
11.023	5.0
11.038	7.0
11.053	7.0
11.067	8.0
11.082	4.0
11.097	8.0
11.112	6.0
11.127	6.0
11.142	5.0
11.157	5.0
11.172	8.0
11.186	8.0
11.201	7.0
11.216	10.0
11.231	9.0
11.246	15.0
11.261	4.0
11.276	11.0
11.291	13.0
11.305	9.0
11.32	6.0
11.335	16.0
11.35	12.0
11.365	7.0
11.38	6.0
11.395	13.0
11.41	7.0
11.424	9.0
11.439	7.0
11.454	9.0
11.469	7.0
11.484	10.0
11.499	8.0
11.514	13.0
11.529	6.0
11.544	7.0
11.558	9.0
11.573	13.0
11.588	7.0
11.603	6.0
11.618	8.0
11.633	11.0
11.648	12.0
11.663	13.0
11.678	9.0
11.693	11.0
11.707	7.0
11.722	13.0
11.737	10.0
11.752	8.0
11.767	10.0
11.782	9.0
11.797	7.0
11.812	11.0
11.827	7.0
11.842	12.0
11.856	11.0
11.871	6.0
11.886	5.0
11.901	8.0
11.916	15.0
11.931	5.0
11.946	6.0
11.961	7.0
11.976	9.0
11.991	20.0
12.006	3.0
12.02	7.0
12.035	9.0
12.05	6.0
12.065	5.0
12.08	17.0
12.095	6.0
12.11	4.0
12.125	8.0
12.14	10.0
12.155	13.0
12.17	9.0
12.184	6.0
12.199	12.0
12.214	6.0
12.229	6.0
12.244	11.0
12.259	14.0
12.274	13.0
12.289	11.0
12.304	11.0
12.319	13.0
12.334	11.0
12.348	10.0
12.363	13.0
12.378	8.0
12.393	18.0
12.408	11.0
12.423	11.0
12.438	12.0
12.453	19.0
12.468	9.0
12.483	11.0
12.498	10.0
12.513	13.0
12.527	11.0
12.542	17.0
12.557	15.0
12.572	13.0
12.587	10.0
12.602	14.0
12.617	14.0
12.632	11.0
12.647	10.0
12.662	9.0
12.677	8.0
12.692	9.0
12.707	11.0
12.721	12.0
12.736	17.0
12.751	16.0
12.766	18.0
12.781	13.0
12.796	16.0
12.811	16.0
12.826	11.0
12.841	9.0
12.856	15.0
12.871	13.0
12.886	11.0
12.9	11.0
12.915	18.0
12.93	15.0
12.945	19.0
12.96	16.0
12.975	12.0
12.99	18.0
13.005	16.0
13.02	14.0
13.035	21.0
13.05	18.0
13.065	19.0
13.08	18.0
13.094	11.0
13.109	14.0
13.124	16.0
13.139	22.0
13.154	15.0
13.169	14.0
13.184	18.0
13.199	17.0
13.214	26.0
13.229	13.0
13.244	21.0
13.259	18.0
13.274	20.0
13.288	21.0
13.303	19.0
13.318	25.0
13.333	28.0
13.348	9.0
13.363	15.0
13.378	30.0
13.393	24.0
13.408	34.0
13.423	22.0
13.438	29.0
13.453	27.0
13.468	34.0
13.482	31.0
13.497	35.0
13.512	38.0
13.527	50.0
13.542	35.0
13.557	59.0
13.572	53.0
13.587	55.0
13.602	69.0
13.617	70.0
13.632	67.0
13.647	74.0
13.662	85.0
13.677	78.0
13.691	85.0
13.706	87.0
13.721	87.0
13.736	93.0
13.751	108.0
13.766	110.0
13.781	119.0
13.796	118.0
13.811	138.0
13.826	139.0
13.841	131.0
13.856	118.0
13.871	121.0
13.885	93.0
13.9	98.0
13.915	75.0
13.93	60.0
13.945	77.0
13.96	49.0
13.975	47.0
13.99	39.0
14.005	45.0
14.02	29.0
14.035	25.0
14.05	34.0
14.065	20.0
14.08	20.0
14.094	23.0
14.109	22.0
14.124	17.0
14.139	22.0
14.154	20.0
14.169	18.0
14.184	25.0
14.199	16.0
14.214	18.0
14.229	19.0
14.244	23.0
14.259	22.0
14.274	17.0
14.288	23.0
14.303	23.0
14.318	29.0
14.333	12.0
14.348	21.0
14.363	23.0
14.378	15.0
14.393	16.0
14.408	13.0
14.423	19.0
14.438	17.0
14.453	25.0
14.468	11.0
14.482	18.0
14.497	11.0
14.512	17.0
14.527	11.0
14.542	13.0
14.557	17.0
14.572	24.0
14.587	24.0
14.602	15.0
14.617	19.0
14.632	14.0
14.647	17.0
14.661	12.0
14.676	20.0
14.691	25.0
14.706	13.0
14.721	13.0
14.736	14.0
14.751	17.0
14.766	17.0
14.781	14.0
14.796	15.0
14.811	15.0
14.826	17.0
14.84	12.0
14.855	19.0
14.87	16.0
14.885	18.0
14.9	21.0
14.915	16.0
14.93	19.0
14.945	11.0
14.96	8.0
14.975	16.0
14.989	12.0
15.004	10.0
15.019	20.0
15.034	20.0
15.049	17.0
15.064	13.0
15.079	15.0
15.094	11.0
15.109	13.0
15.124	13.0
15.138	14.0
15.153	17.0
15.168	9.0
15.183	11.0
15.198	16.0
15.213	20.0
15.228	14.0
15.243	12.0
15.258	12.0
15.272	15.0
15.287	7.0
15.302	19.0
15.317	11.0
15.332	13.0
15.347	14.0
15.362	16.0
15.377	16.0
15.391	13.0
15.406	13.0
15.421	14.0
15.436	15.0
15.451	12.0
15.466	15.0
15.481	10.0
15.496	16.0
15.51	9.0
15.525	16.0
15.54	13.0
15.555	18.0
15.57	15.0
15.585	13.0
15.6	16.0
15.614	14.0
15.629	19.0
15.644	9.0
15.659	16.0
15.674	16.0
15.689	14.0
15.704	12.0
15.718	11.0
15.733	16.0
15.748	15.0
15.763	18.0
15.778	18.0
15.793	16.0
15.808	21.0
15.822	10.0
15.837	11.0
15.852	10.0
15.867	22.0
15.882	11.0
15.897	8.0
15.911	11.0
15.926	12.0
15.941	17.0
15.956	15.0
15.971	16.0
15.986	22.0
16.0	13.0
16.015	12.0
16.03	13.0
16.045	19.0
16.06	15.0
16.074	13.0
16.089	12.0
16.104	12.0
16.119	15.0
16.134	10.0
16.149	15.0
16.163	8.0
16.178	15.0
16.193	15.0
16.208	6.0
16.223	14.0
16.237	19.0
16.252	11.0
16.267	20.0
16.282	13.0
16.297	10.0
16.311	12.0
16.326	9.0
16.341	18.0
16.356	14.0
16.37	16.0
16.385	13.0
16.4	24.0
16.415	13.0
16.43	12.0
16.444	11.0
16.459	11.0
16.474	16.0
16.489	13.0
16.504	19.0
16.518	21.0
16.533	16.0
16.548	20.0
16.563	13.0
16.577	13.0
16.592	14.0
16.607	20.0
16.622	25.0
16.637	14.0
16.651	14.0
16.666	23.0
16.681	22.0
16.696	17.0
16.71	28.0
16.725	29.0
16.74	21.0
16.755	24.0
16.77	36.0
16.784	50.0
16.799	34.0
16.814	39.0
16.829	38.0
16.843	45.0
16.858	59.0
16.873	74.0
16.888	67.0
16.902	64.0
16.917	75.0
16.932	69.0
16.947	57.0
16.961	73.0
16.976	84.0
16.991	74.0
17.006	60.0
17.021	63.0
17.035	44.0
17.05	50.0
17.065	49.0
17.08	53.0
17.094	21.0
17.109	28.0
17.124	27.0
17.139	32.0
17.153	14.0
17.168	14.0
17.183	12.0
17.198	16.0
17.212	20.0
17.227	13.0
17.242	19.0
17.257	14.0
17.271	13.0
17.286	8.0
17.301	16.0
17.316	13.0
17.33	12.0
17.345	12.0
17.36	13.0
17.375	13.0
17.39	14.0
17.404	11.0
17.419	18.0
17.434	11.0
17.449	12.0
17.463	12.0
17.478	14.0
17.493	18.0
17.508	19.0
17.522	24.0
17.537	18.0
17.552	8.0
17.567	18.0
17.581	20.0
17.596	12.0
17.611	19.0
17.626	11.0
17.641	18.0
17.655	12.0
17.67	15.0
17.685	13.0
17.7	16.0
17.714	11.0
17.729	5.0
17.744	14.0
17.759	10.0
17.773	10.0
17.788	10.0
17.803	13.0
17.818	16.0
17.833	11.0
17.847	20.0
17.862	11.0
17.877	12.0
17.892	17.0
17.906	11.0
17.921	11.0
17.936	15.0
17.951	14.0
17.966	15.0
17.98	13.0
17.995	7.0
18.01	17.0
18.025	8.0
18.04	17.0
18.054	15.0
18.069	17.0
18.084	12.0
18.099	6.0
18.114	14.0
18.128	17.0
18.143	14.0
18.158	10.0
18.173	13.0
18.188	12.0
18.202	9.0
18.217	14.0
18.232	20.0
18.247	12.0
18.262	10.0
18.276	10.0
18.291	8.0
18.306	10.0
18.321	13.0
18.336	13.0
18.35	18.0
18.365	11.0
18.38	13.0
18.395	9.0
18.41	15.0
18.424	5.0
18.439	8.0
18.454	11.0
18.469	6.0
18.484	9.0
18.498	3.0
18.513	13.0
18.528	14.0
18.543	17.0
18.558	13.0
18.573	19.0
18.587	17.0
18.602	11.0
18.617	10.0
18.632	13.0
18.647	13.0
18.661	9.0
18.676	12.0
18.691	15.0
18.706	10.0
18.721	15.0
18.736	11.0
18.75	9.0
18.765	14.0
18.78	17.0
18.795	15.0
18.81	16.0
18.825	11.0
18.839	11.0
18.854	13.0
18.869	17.0
18.884	14.0
18.899	12.0
18.913	12.0
18.928	20.0
18.943	10.0
18.958	8.0
18.973	18.0
18.988	15.0
19.002	10.0
19.017	12.0
19.032	10.0
19.047	13.0
19.062	15.0
19.077	18.0
19.091	6.0
19.106	16.0
19.121	8.0
19.136	8.0
19.151	18.0
19.165	12.0
19.18	20.0
19.195	7.0
19.21	15.0
19.225	10.0
19.24	10.0
19.254	7.0
19.269	13.0
19.284	17.0
19.299	19.0
19.314	16.0
19.329	10.0
19.343	19.0
19.358	7.0
19.373	22.0
19.388	22.0
19.403	22.0
19.417	17.0
19.432	31.0
19.447	26.0
19.462	22.0
19.477	35.0
19.492	21.0
19.506	26.0
19.521	32.0
19.536	35.0
19.551	34.0
19.566	39.0
19.58	46.0
19.595	38.0
19.61	35.0
19.625	32.0
19.64	53.0
19.655	32.0
19.669	35.0
19.684	29.0
19.699	27.0
19.714	28.0
19.729	26.0
19.743	31.0
19.758	27.0
19.773	23.0
19.788	24.0
19.803	15.0
19.817	15.0
19.832	14.0
19.847	6.0
19.862	21.0
19.877	9.0
19.891	10.0
19.906	12.0
19.921	8.0
19.936	13.0
19.951	13.0
19.965	11.0
19.98	6.0
19.995	14.0
20.01	7.0
20.025	12.0
20.039	10.0
20.054	10.0
20.069	14.0
20.084	14.0
20.099	12.0
20.113	10.0
20.128	12.0
20.143	12.0
20.158	15.0
20.173	13.0
20.187	12.0
20.202	16.0
20.217	16.0
20.232	14.0
20.246	11.0
20.261	13.0
20.276	12.0
20.291	17.0
20.306	15.0
20.32	5.0
20.335	6.0
20.35	9.0
20.365	9.0
20.38	8.0
20.394	10.0
20.409	5.0
20.424	9.0
20.439	16.0
20.453	10.0
20.468	7.0
20.483	7.0
20.498	13.0
20.513	19.0
20.527	9.0
20.542	10.0
20.557	10.0
20.572	9.0
20.586	7.0
20.601	10.0
20.616	14.0
20.631	8.0
20.646	10.0
20.66	7.0
20.675	13.0
20.69	15.0
20.705	9.0
20.719	16.0
20.734	16.0
20.749	9.0
20.764	6.0
20.779	16.0
20.793	11.0
20.808	17.0
20.823	15.0
20.838	7.0
20.853	5.0
20.867	7.0
20.882	11.0
20.897	14.0
20.912	7.0
20.926	17.0
20.941	14.0
20.956	14.0
20.971	12.0
20.986	14.0
21.0	8.0
21.015	11.0
21.03	15.0
21.045	10.0
21.06	9.0
21.074	14.0
21.089	9.0
21.104	15.0
21.119	9.0
21.134	14.0
21.148	10.0
21.163	9.0
21.178	10.0
21.193	14.0
21.208	9.0
21.222	13.0
21.237	9.0
21.252	8.0
21.267	10.0
21.282	15.0
21.296	17.0
21.311	8.0
21.326	9.0
21.341	13.0
21.356	17.0
21.37	15.0
21.385	18.0
21.4	10.0
21.415	13.0
21.43	14.0
21.444	17.0
21.459	17.0
21.474	16.0
21.489	11.0
21.504	12.0
21.519	9.0
21.533	9.0
21.548	17.0
21.563	15.0
21.578	12.0
21.593	10.0
21.608	16.0
21.622	14.0
21.637	19.0
21.652	9.0
21.667	18.0
21.682	15.0
21.697	10.0
21.712	19.0
21.726	20.0
21.741	21.0
21.756	21.0
21.771	25.0
21.786	29.0
21.801	38.0
21.816	38.0
21.83	51.0
21.845	51.0
21.86	59.0
21.875	72.0
21.89	69.0
21.905	79.0
21.92	70.0
21.935	82.0
21.949	78.0
21.964	63.0
21.979	71.0
21.994	77.0
22.009	79.0
22.024	65.0
22.039	48.0
22.054	75.0
22.069	67.0
22.083	48.0
22.098	46.0
22.113	49.0
22.128	39.0
22.143	33.0
22.158	32.0
22.173	37.0
22.188	9.0
22.203	16.0
22.218	16.0
22.233	14.0
22.248	12.0
22.262	19.0
22.277	16.0
22.292	7.0
22.307	7.0
22.322	16.0
22.337	9.0
22.352	19.0
22.367	7.0
22.382	9.0
22.397	10.0
22.412	9.0
22.427	12.0
22.442	15.0
22.457	14.0
22.472	7.0
22.487	9.0
22.502	11.0
22.516	17.0
22.531	14.0
22.546	10.0
22.561	12.0
22.576	10.0
22.591	14.0
22.606	10.0
22.621	15.0
22.636	9.0
22.651	9.0
22.666	12.0
22.681	15.0
22.696	18.0
22.711	10.0
22.726	12.0
22.741	15.0
22.756	11.0
22.771	12.0
22.786	8.0
22.801	18.0
22.816	16.0
22.831	9.0
22.846	7.0
22.861	17.0
22.876	11.0
22.891	10.0
22.906	10.0
22.92	8.0
22.935	6.0
22.95	10.0
22.965	10.0
22.98	8.0
22.995	8.0
23.01	8.0
23.025	6.0
23.04	14.0
23.055	9.0
23.07	7.0
23.085	9.0
23.1	9.0
23.115	5.0
23.13	5.0
23.145	7.0
23.16	11.0
23.175	8.0
23.19	7.0
23.205	8.0
23.22	16.0
23.235	13.0
23.25	13.0
23.265	13.0
23.28	8.0
23.295	9.0
23.31	10.0
23.325	9.0
23.34	11.0
23.355	7.0
23.37	14.0
23.384	21.0
23.399	3.0
23.414	9.0
23.429	6.0
23.444	7.0
23.459	7.0
23.474	12.0
23.489	7.0
23.504	14.0
23.519	14.0
23.534	8.0
23.549	14.0
23.564	11.0
23.579	13.0
23.594	9.0
23.609	11.0
23.624	17.0
23.639	8.0
23.654	11.0
23.668	14.0
23.683	7.0
23.698	15.0
23.713	7.0
23.728	25.0
23.743	8.0
23.758	17.0
23.773	21.0
23.788	13.0
23.803	18.0
23.818	17.0
23.833	13.0
23.848	11.0
23.862	21.0
23.877	15.0
23.892	27.0
23.907	27.0
23.922	19.0
23.937	30.0
23.952	26.0
23.967	26.0
23.982	33.0
23.997	29.0
24.011	57.0
24.026	34.0
24.041	45.0
24.056	42.0
24.071	42.0
24.086	38.0
24.101	47.0
24.116	47.0
24.131	52.0
24.145	42.0
24.16	35.0
24.175	35.0
24.19	24.0
24.205	32.0
24.22	37.0
24.235	34.0
24.249	21.0
24.264	35.0
24.279	25.0
24.294	21.0
24.309	18.0
24.324	22.0
24.338	11.0
24.353	21.0
24.368	11.0
24.383	20.0
24.398	12.0
24.413	10.0
24.428	18.0
24.442	10.0
24.457	16.0
24.472	13.0
24.487	9.0
24.502	10.0
24.516	15.0
24.531	9.0
24.546	8.0
24.561	11.0
24.576	18.0
24.591	5.0
24.605	8.0
24.62	7.0
24.635	16.0
24.65	14.0
24.665	13.0
24.679	11.0
24.694	11.0
24.709	14.0
24.724	12.0
24.739	10.0
24.753	17.0
24.768	9.0
24.783	13.0
24.798	14.0
24.813	7.0
24.827	9.0
24.842	14.0
24.857	11.0
24.872	4.0
24.886	10.0
24.901	10.0
24.916	19.0
24.931	14.0
24.946	16.0
24.96	13.0
24.975	13.0
24.99	15.0
25.005	9.0
25.019	6.0
25.034	9.0
25.049	5.0
25.064	10.0
25.078	6.0
25.093	7.0
25.108	9.0
25.123	10.0
25.138	4.0
25.152	7.0
25.167	12.0
25.182	5.0
25.197	7.0
25.211	8.0
25.226	10.0
25.241	12.0
25.256	16.0
25.27	16.0
25.285	7.0
25.3	17.0
25.315	7.0
25.329	13.0
25.344	10.0
25.359	14.0
25.374	14.0
25.388	8.0
25.403	6.0
25.418	7.0
25.433	9.0
25.447	14.0
25.462	12.0
25.477	11.0
25.492	13.0
25.506	12.0
25.521	7.0
25.536	8.0
25.55	10.0
25.565	13.0
25.58	8.0
25.595	7.0
25.609	11.0
25.624	6.0
25.639	9.0
25.654	12.0
25.668	8.0
25.683	16.0
25.698	6.0
25.713	10.0
25.727	9.0
25.742	12.0
25.757	7.0
25.772	8.0
25.786	9.0
25.801	8.0
25.816	5.0
25.83	14.0
25.845	10.0
25.86	6.0
25.875	11.0
25.889	12.0
25.904	6.0
25.919	13.0
25.934	11.0
25.948	12.0
25.963	13.0
25.978	15.0
25.992	15.0
26.007	6.0
26.022	18.0
26.037	9.0
26.051	9.0
26.066	13.0
26.081	7.0
26.096	12.0
26.11	12.0
26.125	11.0
26.14	6.0
26.155	9.0
26.169	2.0
26.184	15.0
26.199	3.0
26.213	13.0
26.228	10.0
26.243	7.0
26.258	9.0
26.272	11.0
26.287	9.0
26.302	6.0
26.317	6.0
26.331	12.0
26.346	9.0
26.361	6.0
26.376	7.0
26.39	13.0
26.405	11.0
26.42	13.0
26.434	3.0
26.449	10.0
26.464	5.0
26.479	12.0
26.493	7.0
26.508	13.0
26.523	7.0
26.538	10.0
26.552	8.0
26.567	11.0
26.582	11.0
26.597	10.0
26.611	8.0
26.626	14.0
26.641	10.0
26.656	11.0
26.67	10.0
26.685	4.0
26.7	9.0
26.715	13.0
26.729	9.0
26.744	14.0
26.759	10.0
26.773	5.0
26.788	7.0
26.803	7.0
26.818	7.0
26.832	16.0
26.847	9.0
26.862	6.0
26.877	6.0
26.891	11.0
26.906	11.0
26.921	13.0
26.936	13.0
26.95	11.0
26.965	8.0
26.98	12.0
26.995	8.0
27.01	11.0
27.024	8.0
27.039	9.0
27.054	12.0
27.069	9.0
27.083	9.0
27.098	7.0
27.113	7.0
27.128	12.0
27.142	6.0
27.157	7.0
27.172	8.0
27.187	12.0
27.201	11.0
27.216	14.0
27.231	11.0
27.246	8.0
27.261	4.0
27.275	7.0
27.29	8.0
27.305	10.0
27.32	9.0
27.334	13.0
27.349	10.0
27.364	7.0
27.379	8.0
27.394	7.0
27.408	13.0
27.423	10.0
27.438	13.0
27.453	11.0
27.467	9.0
27.482	14.0
27.497	11.0
27.512	7.0
27.527	8.0
27.541	18.0
27.556	7.0
27.571	16.0
27.586	17.0
27.601	11.0
27.615	9.0
27.63	15.0
27.645	10.0
27.66	14.0
27.675	16.0
27.689	11.0
27.704	15.0
27.719	14.0
27.734	15.0
27.749	14.0
27.763	17.0
27.778	17.0
27.793	22.0
27.808	23.0
27.823	23.0
27.838	17.0
27.852	28.0
27.867	21.0
27.882	17.0
27.897	30.0
27.912	22.0
27.926	29.0
27.941	13.0
27.956	22.0
27.971	14.0
27.986	26.0
28.001	7.0
28.015	14.0
28.03	17.0
28.045	15.0
28.06	20.0
28.075	16.0
28.09	16.0
28.105	14.0
28.119	11.0
28.134	10.0
28.149	14.0
28.164	11.0
28.179	5.0
28.194	16.0
28.208	8.0
28.223	11.0
28.238	13.0
28.253	7.0
28.268	12.0
28.283	16.0
28.298	12.0
28.312	11.0
28.327	11.0
28.342	13.0
28.357	9.0
28.372	12.0
28.387	15.0
28.402	13.0
28.417	8.0
28.431	11.0
28.446	8.0
28.461	11.0
28.476	11.0
28.491	7.0
28.506	9.0
28.521	15.0
28.536	9.0
28.55	8.0
28.565	12.0
28.58	5.0
28.595	12.0
28.61	16.0
28.625	11.0
28.64	4.0
28.655	10.0
28.669	7.0
28.684	7.0
28.699	11.0
28.714	10.0
28.729	15.0
28.744	11.0
28.759	12.0
28.774	8.0
28.788	9.0
28.803	17.0
28.818	3.0
28.833	19.0
28.848	10.0
28.863	9.0
28.878	12.0
28.893	8.0
28.908	6.0
28.922	13.0
28.937	12.0
28.952	9.0
28.967	6.0
28.982	8.0
28.997	11.0
29.012	6.0
29.027	17.0
29.041	11.0
29.056	12.0
29.071	13.0
29.086	5.0
29.101	8.0
29.116	10.0
29.131	17.0
29.146	8.0
29.16	7.0
29.175	15.0
29.19	9.0
29.205	8.0
29.22	7.0
29.235	7.0
29.25	6.0
29.265	9.0
29.279	5.0
29.294	16.0
29.309	11.0
29.324	19.0
29.339	16.0
29.354	8.0
29.369	10.0
29.384	15.0
29.398	16.0
29.413	18.0
29.428	17.0
29.443	16.0
29.458	17.0
29.473	25.0
29.488	19.0
29.502	34.0
29.517	25.0
29.532	45.0
29.547	41.0
29.562	36.0
29.577	45.0
29.592	47.0
29.606	49.0
29.621	49.0
29.636	50.0
29.651	44.0
29.666	48.0
29.681	48.0
29.695	40.0
29.71	33.0
29.725	30.0
29.74	28.0
29.755	38.0
29.77	29.0
29.784	39.0
29.799	35.0
29.814	34.0
29.829	25.0
29.844	26.0
29.859	26.0
29.873	20.0
29.888	14.0
29.903	22.0
29.918	22.0
29.933	17.0
29.947	15.0
29.962	22.0
29.977	12.0
29.992	18.0
30.007	10.0
30.021	11.0
30.036	10.0
30.051	16.0
30.066	11.0
30.081	14.0
30.095	13.0
30.11	9.0
30.125	6.0
30.14	15.0
30.155	20.0
30.169	9.0
30.184	6.0
30.199	13.0
30.214	12.0
30.228	10.0
30.243	9.0
30.258	7.0
30.273	4.0
30.288	11.0
30.302	13.0
30.317	10.0
30.332	15.0
30.347	11.0
30.361	12.0
30.376	15.0
30.391	12.0
30.406	9.0
30.42	12.0
30.435	14.0
30.45	3.0
30.465	9.0
30.479	11.0
30.494	11.0
30.509	14.0
30.524	8.0
30.538	8.0
30.553	6.0
30.568	8.0
30.583	15.0
30.597	7.0
30.612	10.0
30.627	10.0
30.641	8.0
30.656	16.0
30.671	12.0
30.686	7.0
30.7	7.0
30.715	8.0
30.73	5.0
30.745	11.0
30.759	9.0
30.774	8.0
30.789	10.0
30.803	15.0
30.818	14.0
30.833	10.0
30.848	13.0
30.862	8.0
30.877	16.0
30.892	14.0
30.906	12.0
30.921	9.0
30.936	9.0
30.951	8.0
30.965	13.0
30.98	9.0
30.995	13.0
31.009	20.0
31.024	11.0
31.039	11.0
31.053	21.0
31.068	19.0
31.083	17.0
31.098	16.0
31.112	13.0
31.127	29.0
31.142	18.0
31.156	22.0
31.171	29.0
31.186	23.0
31.2	35.0
31.215	36.0
31.23	41.0
31.245	41.0
31.259	42.0
31.274	39.0
31.289	37.0
31.303	34.0
31.318	31.0
31.333	26.0
31.347	29.0
31.362	27.0
31.377	24.0
31.392	26.0
31.406	31.0
31.421	26.0
31.436	22.0
31.45	26.0
31.465	23.0
31.48	40.0
31.494	32.0
31.509	21.0
31.524	17.0
31.538	21.0
31.553	14.0
31.568	9.0
31.583	14.0
31.597	15.0
31.612	7.0
31.627	16.0
31.641	13.0
31.656	9.0
31.671	12.0
31.685	8.0
31.7	11.0
31.715	10.0
31.729	12.0
31.744	10.0
31.759	14.0
31.774	12.0
31.788	14.0
31.803	12.0
31.818	15.0
31.832	13.0
31.847	9.0
31.862	12.0
31.876	11.0
31.891	13.0
31.906	15.0
31.92	10.0
31.935	9.0
31.95	7.0
31.965	8.0
31.979	7.0
31.994	13.0
32.009	12.0
32.023	7.0
32.038	8.0
32.053	14.0
32.067	8.0
32.082	7.0
32.097	10.0
32.112	18.0
32.126	8.0
32.141	10.0
32.156	11.0
32.17	6.0
32.185	7.0
32.2	7.0
32.214	9.0
32.229	12.0
32.244	14.0
32.259	8.0
32.273	13.0
32.288	13.0
32.303	15.0
32.317	7.0
32.332	16.0
32.347	8.0
32.362	10.0
32.376	9.0
32.391	6.0
32.406	7.0
32.42	13.0
32.435	8.0
32.45	7.0
32.465	15.0
32.479	15.0
32.494	9.0
32.509	14.0
32.523	9.0
32.538	17.0
32.553	13.0
32.568	12.0
32.582	13.0
32.597	10.0
32.612	16.0
32.627	16.0
32.641	13.0
32.656	15.0
32.671	13.0
32.685	17.0
32.7	9.0
32.715	15.0
32.73	21.0
32.744	23.0
32.759	22.0
32.774	21.0
32.788	28.0
32.803	31.0
32.818	22.0
32.833	22.0
32.847	21.0
32.862	31.0
32.877	23.0
32.892	17.0
32.906	23.0
32.921	19.0
32.936	17.0
32.951	27.0
32.965	23.0
32.98	18.0
32.995	19.0
33.009	23.0
33.024	24.0
33.039	21.0
33.054	13.0
33.068	16.0
33.083	14.0
33.098	12.0
33.113	16.0
33.127	6.0
33.142	8.0
33.157	13.0
33.172	16.0
33.186	14.0
33.201	15.0
33.216	8.0
33.231	8.0
33.245	7.0
33.26	10.0
33.275	18.0
33.29	11.0
33.304	13.0
33.319	10.0
33.334	9.0
33.349	8.0
33.363	12.0
33.378	11.0
33.393	6.0
33.408	5.0
33.422	7.0
33.437	12.0
33.452	6.0
33.467	6.0
33.481	11.0
33.496	13.0
33.511	11.0
33.526	12.0
33.54	6.0
33.555	7.0
33.57	11.0
33.585	10.0
33.599	13.0
33.614	11.0
33.629	13.0
33.644	13.0
33.658	13.0
33.673	8.0
33.688	6.0
33.703	11.0
33.718	7.0
33.732	10.0
33.747	10.0
33.762	7.0
33.777	13.0
33.791	5.0
33.806	10.0
33.821	10.0
33.836	10.0
33.85	5.0
33.865	13.0
33.88	11.0
33.895	17.0
33.91	4.0
33.924	6.0
33.939	10.0
33.954	11.0
33.969	6.0
33.983	9.0
33.998	12.0
34.013	10.0
34.028	8.0
34.042	6.0
34.057	16.0
34.072	16.0
34.087	12.0
34.102	8.0
34.116	10.0
34.131	11.0
34.146	7.0
34.161	13.0
34.175	10.0
34.19	9.0
34.205	9.0
34.22	11.0
34.235	16.0
34.249	17.0
34.264	6.0
34.279	9.0
34.294	12.0
34.309	12.0
34.323	15.0
34.338	9.0
34.353	20.0
34.368	11.0
34.382	17.0
34.397	12.0
34.412	9.0
34.427	21.0
34.442	15.0
34.456	21.0
34.471	8.0
34.486	7.0
34.501	18.0
34.516	9.0
34.53	19.0
34.545	14.0
34.56	12.0
34.575	9.0
34.59	7.0
34.604	8.0
34.619	7.0
34.634	13.0
34.649	11.0
34.664	9.0
34.678	11.0
34.693	13.0
34.708	8.0
34.723	7.0
34.738	13.0
34.752	12.0
34.767	11.0
34.782	7.0
34.797	12.0
34.812	7.0
34.826	1.0
34.841	13.0
34.856	10.0
34.871	8.0
34.886	6.0
34.9	9.0
34.915	11.0
34.93	5.0
34.945	14.0
34.96	8.0
34.974	9.0
34.989	10.0
35.004	13.0
35.019	11.0
35.034	8.0
35.048	6.0
35.063	6.0
35.078	11.0
35.093	6.0
35.108	4.0
35.122	5.0
35.137	11.0
35.152	5.0
35.167	8.0
35.182	13.0
35.196	14.0
35.211	7.0
35.226	7.0
35.241	2.0
35.256	10.0
35.27	9.0
35.285	6.0
35.3	11.0
35.315	6.0
35.33	7.0
35.344	9.0
35.359	11.0
35.374	11.0
35.389	3.0
35.404	7.0
35.418	9.0
35.433	7.0
35.448	10.0
35.463	6.0
35.478	10.0
35.493	4.0
35.507	17.0
35.522	7.0
35.537	12.0
35.552	4.0
35.567	7.0
35.581	7.0
35.596	8.0
35.611	8.0
35.626	13.0
35.641	17.0
35.655	11.0
35.67	19.0
35.685	9.0
35.7	16.0
35.715	12.0
35.729	18.0
35.744	17.0
35.759	15.0
35.774	27.0
35.789	17.0
35.804	14.0
35.818	18.0
35.833	21.0
35.848	18.0
35.863	15.0
35.878	12.0
35.892	19.0
35.907	13.0
35.922	22.0
35.937	17.0
35.952	14.0
35.966	14.0
35.981	14.0
35.996	13.0
36.011	15.0
36.026	15.0
36.04	10.0
36.055	8.0
36.07	8.0
36.085	12.0
36.1	13.0
36.114	16.0
36.129	10.0
36.144	15.0
36.159	12.0
36.174	6.0
36.189	13.0
36.203	9.0
36.218	7.0
36.233	10.0
36.248	6.0
36.263	10.0
36.277	6.0
36.292	3.0
36.307	5.0
36.322	10.0
36.337	6.0
36.351	10.0
36.366	11.0
36.381	10.0
36.396	6.0
36.411	8.0
36.426	6.0
36.44	9.0
36.455	5.0
36.47	6.0
36.485	7.0
36.5	16.0
36.514	6.0
36.529	10.0
36.544	9.0
36.559	6.0
36.574	5.0
36.589	7.0
36.603	5.0
36.618	11.0
36.633	7.0
36.648	13.0
36.663	9.0
36.677	8.0
36.692	3.0
36.707	9.0
36.722	7.0
36.737	9.0
36.752	7.0
36.766	9.0
36.781	15.0
36.796	12.0
36.811	9.0
36.826	11.0
36.841	8.0
36.855	8.0
36.87	11.0
36.885	7.0
36.9	6.0
36.915	5.0
36.93	8.0
36.944	10.0
36.959	4.0
36.974	9.0
36.989	7.0
37.004	13.0
37.019	8.0
37.033	16.0
37.048	11.0
37.063	16.0
37.078	17.0
37.093	17.0
37.108	23.0
37.123	24.0
37.137	30.0
37.152	27.0
37.167	29.0
37.182	37.0
37.197	26.0
37.212	25.0
37.226	27.0
37.241	28.0
37.256	16.0
37.271	23.0
37.286	16.0
37.301	19.0
37.316	18.0
37.331	16.0
37.345	13.0
37.36	25.0
37.375	18.0
37.39	26.0
37.405	13.0
37.42	15.0
37.435	23.0
37.45	16.0
37.464	7.0
37.479	9.0
37.494	16.0
37.509	14.0
37.524	9.0
37.539	14.0
37.554	5.0
37.569	8.0
37.583	9.0
37.598	6.0
37.613	12.0
37.628	8.0
37.643	6.0
37.658	6.0
37.673	7.0
37.688	8.0
37.703	9.0
37.718	5.0
37.733	8.0
37.747	8.0
37.762	11.0
37.777	5.0
37.792	6.0
37.807	5.0
37.822	8.0
37.837	7.0
37.852	7.0
37.867	3.0
37.882	10.0
37.897	4.0
37.912	10.0
37.927	8.0
37.941	5.0
37.956	5.0
37.971	3.0
37.986	7.0
38.001	10.0
38.016	9.0
38.031	4.0
38.046	6.0
38.061	7.0
38.076	5.0
38.091	8.0
38.106	7.0
38.121	8.0
38.136	7.0
38.151	4.0
38.166	10.0
38.181	10.0
38.196	4.0
38.211	7.0
38.226	7.0
38.241	8.0
38.256	6.0
38.271	9.0
38.285	6.0
38.3	9.0
38.315	3.0
38.33	3.0
38.345	7.0
38.36	6.0
38.375	9.0
38.39	10.0
38.405	7.0
38.42	9.0
38.435	8.0
38.45	5.0
38.465	3.0
38.48	13.0
38.495	3.0
38.51	7.0
38.525	4.0
38.54	5.0
38.555	7.0
38.57	3.0
38.585	4.0
38.6	6.0
38.615	9.0
38.63	16.0
38.645	6.0
38.66	0.0
38.675	5.0
38.69	4.0
38.705	6.0
38.72	7.0
38.735	7.0
38.75	7.0
38.765	10.0
38.78	9.0
38.795	2.0
38.81	5.0
38.825	9.0
38.84	9.0
38.855	5.0
38.87	8.0
38.885	5.0
38.9	11.0
38.915	10.0
38.93	10.0
38.945	10.0
38.96	9.0
38.975	5.0
38.99	4.0
39.005	3.0
39.02	6.0
39.035	9.0
39.05	2.0
39.065	8.0
39.08	6.0
39.095	6.0
39.11	1.0
39.125	4.0
39.14	8.0
39.155	2.0
39.17	4.0
39.185	3.0
39.2	10.0
39.215	6.0
39.23	1.0
39.245	5.0
39.26	12.0
39.275	10.0
39.29	8.0
39.305	5.0
39.32	9.0
39.335	6.0
39.35	6.0
39.365	14.0
39.38	5.0
39.395	7.0
39.409	3.0
39.424	11.0
39.439	8.0
39.454	6.0
39.469	5.0
39.484	7.0
39.499	2.0
39.514	3.0
39.529	8.0
39.544	8.0
39.559	5.0
39.574	6.0
39.589	5.0
39.604	6.0
39.619	2.0
39.634	9.0
39.649	7.0
39.664	8.0
39.678	5.0
39.693	9.0
39.708	11.0
39.723	5.0
39.738	11.0
39.753	5.0
39.768	6.0
39.783	4.0
39.798	8.0
39.813	6.0
39.827	5.0
39.842	5.0
39.857	13.0
39.872	12.0
39.887	5.0
39.902	14.0
39.917	5.0
39.932	10.0
39.947	9.0
39.961	9.0
39.976	9.0
39.991	5.0
40.006	9.0
40.021	12.0
40.036	4.0
40.051	2.0
40.065	9.0
40.08	11.0
40.095	8.0
40.11	11.0
40.125	7.0
40.14	9.0
40.154	6.0
40.169	7.0
40.184	8.0
40.199	8.0
40.214	9.0
40.228	8.0
40.243	9.0
40.258	6.0
40.273	4.0
40.288	7.0
40.302	6.0
40.317	2.0
40.332	2.0
40.347	3.0
40.362	7.0
40.376	6.0
40.391	7.0
40.406	2.0
40.421	4.0
40.436	7.0
40.45	8.0
40.465	4.0
40.48	5.0
40.495	4.0
40.509	5.0
40.524	7.0
40.539	4.0
40.554	5.0
40.568	8.0
40.583	6.0
40.598	4.0
40.613	4.0
40.627	5.0
40.642	7.0
40.657	8.0
40.672	7.0
40.686	13.0
40.701	6.0
40.716	3.0
40.731	12.0
40.745	8.0
40.76	7.0
40.775	7.0
40.79	10.0
40.804	8.0
40.819	9.0
40.834	12.0
40.849	5.0
40.863	9.0
40.878	5.0
40.893	4.0
40.907	7.0
40.922	8.0
40.937	6.0
40.952	5.0
40.966	7.0
40.981	7.0
40.996	9.0
41.011	11.0
41.025	7.0
41.04	12.0
41.055	19.0
41.069	12.0
41.084	19.0
41.099	16.0
41.114	20.0
41.128	11.0
41.143	28.0
41.158	18.0
41.173	13.0
41.187	24.0
41.202	19.0
41.217	20.0
41.231	10.0
41.246	13.0
41.261	18.0
41.276	15.0
41.29	9.0
41.305	7.0
41.32	14.0
41.335	10.0
41.349	15.0
41.364	12.0
41.379	12.0
41.393	12.0
41.408	13.0
41.423	15.0
41.438	16.0
41.452	10.0
41.467	14.0
41.482	8.0
41.497	9.0
41.511	11.0
41.526	7.0
41.541	8.0
41.556	5.0
41.57	11.0
41.585	11.0
41.6	7.0
41.615	4.0
41.629	4.0
41.644	9.0
41.659	9.0
41.674	6.0
41.688	5.0
41.703	4.0
41.718	10.0
41.733	3.0
41.747	8.0
41.762	8.0
41.777	10.0
41.792	3.0
41.806	5.0
41.821	2.0
41.836	7.0
41.851	6.0
41.866	5.0
41.88	4.0
41.895	9.0
41.91	7.0
41.925	5.0
41.939	2.0
41.954	10.0
41.969	5.0
41.984	6.0
41.999	6.0
42.013	8.0
42.028	7.0
42.043	9.0
42.058	5.0
42.073	8.0
42.088	4.0
42.102	4.0
42.117	3.0
42.132	0.0
42.147	7.0
42.162	5.0
42.176	7.0
42.191	6.0
42.206	9.0
42.221	3.0
42.236	8.0
42.251	10.0
42.266	8.0
42.28	10.0
42.295	7.0
42.31	11.0
42.325	16.0
42.34	20.0
42.355	18.0
42.369	17.0
42.384	28.0
42.399	18.0
42.414	25.0
42.429	13.0
42.444	16.0
42.459	14.0
42.474	13.0
42.488	13.0
42.503	10.0
42.518	11.0
42.533	8.0
42.548	10.0
42.563	9.0
42.578	8.0
42.593	4.0
42.608	18.0
42.622	5.0
42.637	11.0
42.652	20.0
42.667	14.0
42.682	16.0
42.697	10.0
42.712	11.0
42.727	8.0
42.742	13.0
42.757	10.0
42.772	9.0
42.786	3.0
42.801	6.0
42.816	5.0
42.831	9.0
42.846	10.0
42.861	4.0
42.876	6.0
42.891	5.0
42.906	5.0
42.921	4.0
42.936	5.0
42.951	8.0
42.966	7.0
42.981	4.0
42.996	12.0
43.011	4.0
43.025	3.0
43.04	6.0
43.055	6.0
43.07	8.0
43.085	5.0
43.1	9.0
43.115	4.0
43.13	3.0
43.145	6.0
43.16	0.0
43.175	9.0
43.19	8.0
43.205	7.0
43.22	5.0
43.235	9.0
43.25	5.0
43.265	7.0
43.28	3.0
43.295	7.0
43.31	4.0
43.325	5.0
43.34	5.0
43.355	3.0
43.37	7.0
43.385	5.0
43.4	3.0
43.415	5.0
43.43	7.0
43.445	8.0
43.46	4.0
43.475	9.0
43.49	7.0
43.505	12.0
43.52	6.0
43.535	11.0
43.55	3.0
43.565	5.0
43.58	14.0
43.595	12.0
43.61	18.0
43.625	11.0
43.64	10.0
43.655	8.0
43.67	12.0
43.685	7.0
43.7	11.0
43.715	7.0
43.73	6.0
43.745	12.0
43.76	5.0
43.775	7.0
43.79	11.0
43.805	8.0
43.82	7.0
43.835	7.0
43.85	5.0
43.865	6.0
43.88	5.0
43.895	11.0
43.91	10.0
43.925	4.0
43.94	8.0
43.955	4.0
43.97	9.0
43.985	5.0
44.0	5.0
44.015	8.0
44.03	5.0
44.045	3.0
44.061	10.0
44.076	2.0
44.091	7.0
44.106	5.0
44.121	3.0
44.136	2.0
44.151	7.0
44.166	5.0
44.181	2.0
44.196	7.0
44.211	3.0
44.226	4.0
44.241	3.0
44.256	5.0
44.271	4.0
44.286	4.0
44.301	3.0
44.316	3.0
44.331	6.0
44.346	4.0
44.361	4.0
44.377	3.0
44.392	5.0
44.407	4.0
44.422	3.0
44.437	6.0
44.452	4.0
44.467	9.0
44.482	1.0
44.497	5.0
44.512	8.0
44.527	4.0
44.542	2.0
44.557	6.0
44.572	7.0
44.587	4.0
44.602	5.0
44.617	1.0
44.632	11.0
44.647	5.0
44.663	4.0
44.678	4.0
44.693	6.0
44.708	7.0
44.723	7.0
44.738	10.0
44.753	9.0
44.768	9.0
44.783	12.0
44.798	14.0
44.813	7.0
44.828	10.0
44.843	12.0
44.858	6.0
44.873	6.0
44.888	10.0
44.903	11.0
44.918	5.0
44.933	6.0
44.948	8.0
44.964	8.0
44.979	7.0
44.994	6.0
45.009	10.0
45.024	10.0
45.039	7.0
45.054	8.0
45.069	8.0
45.084	8.0
45.099	8.0
45.114	8.0
45.129	9.0
45.144	8.0
45.159	4.0
45.174	8.0
45.189	9.0
45.204	3.0
45.219	6.0
45.234	2.0
45.249	2.0
45.264	3.0
45.279	3.0
45.294	3.0
45.309	4.0
45.324	6.0
45.339	4.0
45.354	8.0
45.369	4.0
45.384	5.0
45.399	3.0
45.414	3.0
45.429	5.0
45.444	8.0
45.459	6.0
45.474	3.0
45.489	5.0
45.504	3.0
45.519	6.0
45.534	4.0
45.549	3.0
45.564	6.0
45.579	10.0
45.594	5.0
45.609	6.0
45.624	6.0
45.639	2.0
45.654	3.0
45.669	3.0
45.684	9.0
45.699	7.0
45.714	4.0
45.729	3.0
45.744	6.0
45.759	9.0
45.774	6.0
45.789	2.0
45.804	5.0
45.819	5.0
45.834	9.0
45.849	10.0
45.864	5.0
45.879	11.0
45.894	8.0
45.909	13.0
45.924	8.0
45.939	15.0
45.954	15.0
45.969	11.0
45.984	24.0
45.998	24.0
46.013	14.0
46.028	13.0
46.043	8.0
46.058	9.0
46.073	12.0
46.088	8.0
46.103	11.0
46.118	12.0
46.133	10.0
46.148	3.0
46.163	5.0
46.178	11.0
46.192	10.0
46.207	8.0
46.222	16.0
46.237	13.0
46.252	16.0
46.267	11.0
46.282	7.0
46.297	7.0
46.312	8.0
46.327	13.0
46.341	6.0
46.356	10.0
46.371	10.0
46.386	9.0
46.401	6.0
46.416	7.0
46.431	6.0
46.446	2.0
46.46	8.0
46.475	5.0
46.49	5.0
46.505	7.0
46.52	5.0
46.535	4.0
46.55	7.0
46.564	8.0
46.579	2.0
46.594	9.0
46.609	4.0
46.624	3.0
46.639	6.0
46.654	3.0
46.668	8.0
46.683	7.0
46.698	8.0
46.713	4.0
46.728	9.0
46.743	6.0
46.758	4.0
46.772	4.0
46.787	7.0
46.802	6.0
46.817	4.0
46.832	4.0
46.847	6.0
46.861	6.0
46.876	1.0
46.891	5.0
46.906	1.0
46.921	8.0
46.936	5.0
46.95	6.0
46.965	4.0
46.98	4.0
46.995	7.0
47.01	7.0
47.025	3.0
47.039	9.0
47.054	5.0
47.069	9.0
47.084	14.0
47.099	11.0
47.113	6.0
47.128	18.0
47.143	7.0
47.158	7.0
47.173	8.0
47.188	7.0
47.202	11.0
47.217	7.0
47.232	2.0
47.247	7.0
47.262	2.0
47.277	8.0
47.291	9.0
47.306	10.0
47.321	4.0
47.336	6.0
47.351	4.0
47.365	9.0
47.38	7.0
47.395	7.0
47.41	8.0
47.425	6.0
47.44	8.0
47.454	6.0
47.469	6.0
47.484	9.0
47.499	4.0
47.514	7.0
47.528	2.0
47.543	7.0
47.558	4.0
47.573	1.0
47.588	3.0
47.603	4.0
47.617	9.0
47.632	6.0
47.647	0.0
47.662	5.0
47.677	3.0
47.691	2.0
47.706	7.0
47.721	4.0
47.736	6.0
47.751	4.0
47.766	4.0
47.78	3.0
47.795	4.0
47.81	6.0
47.825	5.0
47.84	8.0
47.855	3.0
47.869	1.0
47.884	4.0
47.899	4.0
47.914	3.0
47.929	6.0
47.944	7.0
47.958	5.0
47.973	5.0
47.988	4.0
48.003	4.0
48.018	7.0
48.033	3.0
48.047	7.0
48.062	0.0
48.077	6.0
48.092	3.0
48.107	7.0
48.122	6.0
48.137	4.0
48.151	0.0
48.166	4.0
48.181	3.0
48.196	5.0
48.211	6.0
48.226	4.0
48.241	8.0
48.255	4.0
48.27	7.0
48.285	2.0
48.3	5.0
48.315	6.0
48.33	4.0
48.345	9.0
48.359	4.0
48.374	7.0
48.389	6.0
48.404	8.0
48.419	8.0
48.434	2.0
48.449	6.0
48.464	4.0
48.478	5.0
48.493	7.0
48.508	6.0
48.523	9.0
48.538	2.0
48.553	5.0
48.568	8.0
48.583	5.0
48.597	8.0
48.612	5.0
48.627	7.0
48.642	4.0
48.657	5.0
48.672	1.0
48.687	1.0
48.702	8.0
48.717	3.0
48.731	1.0
48.746	4.0
48.761	7.0
48.776	5.0
48.791	3.0
48.806	0.0
48.821	7.0
48.836	4.0
48.851	7.0
48.866	4.0
48.88	5.0
48.895	8.0
48.91	2.0
48.925	3.0
48.94	4.0
48.955	5.0
48.97	4.0
48.985	8.0
49.0	9.0
49.015	5.0
49.03	4.0
49.044	2.0
49.059	5.0
49.074	4.0
49.089	6.0
49.104	8.0
49.119	8.0
49.134	1.0
49.149	4.0
49.164	8.0
49.179	8.0
49.194	2.0
49.209	5.0
49.224	2.0
49.238	4.0
49.253	7.0
49.268	8.0
49.283	9.0
49.298	3.0
49.313	3.0
49.328	9.0
49.343	8.0
49.358	7.0
49.373	6.0
49.388	3.0
49.403	2.0
49.418	1.0
49.433	3.0
49.448	2.0
49.463	3.0
49.478	6.0
49.492	6.0
49.507	6.0
49.522	3.0
49.537	5.0
49.552	3.0
49.567	8.0
49.582	2.0
49.597	9.0
49.612	3.0
49.627	9.0
49.642	5.0
49.657	9.0
49.672	5.0
49.687	5.0
49.702	9.0
49.717	3.0
49.732	7.0
49.747	5.0
49.762	3.0
49.777	7.0
49.792	4.0
49.807	3.0
49.822	6.0
49.837	4.0
49.852	6.0
49.867	6.0
49.882	3.0
49.897	1.0
49.912	5.0
49.927	5.0
49.942	3.0
49.957	4.0
49.971	6.0
49.986	11.0
50.001	3.0
50.016	4.0
50.031	5.0
50.046	5.0
50.061	7.0
50.076	3.0
50.091	5.0
50.106	3.0
50.121	7.0
50.136	1.0
50.151	4.0
50.166	8.0
50.181	6.0
50.196	6.0
50.211	4.0
50.226	5.0
50.241	1.0
50.256	6.0
50.271	8.0
50.286	9.0
50.302	4.0
50.317	7.0
50.332	4.0
50.347	3.0
50.362	3.0
50.377	6.0
50.392	3.0
50.407	6.0
50.422	4.0
50.437	5.0
50.452	5.0
50.467	9.0
50.482	4.0
50.497	8.0
50.512	8.0
50.527	7.0
50.542	7.0
50.557	7.0
50.572	7.0
50.587	6.0
50.602	4.0
50.617	5.0
50.632	2.0
50.647	7.0
50.662	2.0
50.677	9.0
50.692	9.0
50.707	7.0
50.722	5.0
50.737	4.0
50.752	6.0
50.767	6.0
50.782	8.0
50.797	4.0
50.812	7.0
50.828	6.0
50.843	10.0
50.858	5.0
50.873	5.0
50.888	3.0
50.903	7.0
50.918	2.0
50.933	3.0
50.948	6.0
50.963	4.0
50.978	8.0
50.993	4.0
51.008	4.0
51.023	7.0
51.038	4.0
51.053	9.0
51.068	4.0
51.083	3.0
51.098	3.0
51.114	3.0
51.129	4.0
51.144	7.0
51.159	7.0
51.174	6.0
51.189	5.0
51.204	3.0
51.219	5.0
51.234	3.0
51.249	11.0
51.264	4.0
51.279	5.0
51.294	7.0
51.309	4.0
51.324	3.0
51.34	4.0
51.355	5.0
51.37	6.0
51.385	6.0
51.4	8.0
51.415	13.0
51.43	11.0
51.445	17.0
51.46	14.0
51.475	12.0
51.49	16.0
51.505	13.0
51.52	18.0
51.535	20.0
51.551	19.0
51.566	16.0
51.581	14.0
51.596	12.0
51.611	10.0
51.626	8.0
51.641	12.0
51.656	7.0
51.671	5.0
51.686	6.0
51.701	6.0
51.716	10.0
51.732	1.0
51.747	8.0
51.762	4.0
51.777	10.0
51.792	15.0
51.807	12.0
51.822	12.0
51.837	11.0
51.852	14.0
51.867	11.0
51.882	9.0
51.898	8.0
51.913	6.0
51.928	6.0
51.943	10.0
51.958	11.0
51.973	5.0
51.988	7.0
52.003	6.0
52.018	5.0
52.033	11.0
52.048	7.0
52.064	4.0
52.079	3.0
52.094	6.0
52.109	4.0
52.124	3.0
52.139	7.0
52.154	8.0
52.169	6.0
52.184	3.0
52.199	6.0
52.215	5.0
52.23	5.0
52.245	7.0
52.26	5.0
52.275	11.0
52.29	2.0
52.305	3.0
52.32	4.0
52.335	5.0
52.35	4.0
52.366	3.0
52.381	9.0
52.396	5.0
52.411	4.0
52.426	5.0
52.441	6.0
52.456	6.0
52.471	8.0
52.486	8.0
52.502	10.0
52.517	11.0
52.532	5.0
52.547	7.0
52.562	9.0
52.577	4.0
52.592	6.0
52.607	10.0
52.622	12.0
52.637	5.0
52.653	7.0
52.668	5.0
52.683	7.0
52.698	8.0
52.713	3.0
52.728	4.0
52.743	4.0
52.758	5.0
52.774	1.0
52.789	4.0
52.804	3.0
52.819	4.0
52.834	1.0
52.849	8.0
52.864	2.0
52.879	4.0
52.894	7.0
52.91	9.0
52.925	5.0
52.94	11.0
52.955	7.0
52.97	9.0
52.985	2.0
53.0	7.0
53.015	7.0
53.031	7.0
53.046	6.0
53.061	9.0
53.076	5.0
53.091	4.0
53.106	3.0
53.121	3.0
53.136	5.0
53.152	1.0
53.167	5.0
53.182	6.0
53.197	7.0
53.212	5.0
53.227	4.0
53.242	6.0
53.257	7.0
53.273	2.0
53.288	3.0
53.303	5.0
53.318	2.0
53.333	4.0
53.348	3.0
53.363	8.0
53.379	10.0
53.394	4.0
53.409	2.0
53.424	5.0
53.439	7.0
53.454	7.0
53.469	3.0
53.484	7.0
53.5	6.0
53.515	3.0
53.53	6.0
53.545	2.0
53.56	5.0
53.575	4.0
53.59	3.0
53.606	1.0
53.621	6.0
53.636	5.0
53.651	2.0
53.666	8.0
53.681	6.0
53.696	4.0
53.712	5.0
53.727	7.0
53.742	2.0
53.757	6.0
53.772	3.0
53.787	4.0
53.802	4.0
53.818	1.0
53.833	12.0
53.848	4.0
53.863	11.0
53.878	5.0
53.893	2.0
53.909	3.0
53.924	5.0
53.939	5.0
53.954	4.0
53.969	3.0
53.984	2.0
53.999	8.0
54.015	9.0
54.03	4.0
54.045	5.0
54.06	3.0
54.075	5.0
54.09	5.0
54.106	2.0
54.121	6.0
54.136	0.0
54.151	2.0
54.166	3.0
54.181	6.0
54.197	9.0
54.212	4.0
54.227	5.0
54.242	5.0
54.257	4.0
54.272	5.0
54.288	3.0
54.303	3.0
54.318	8.0
54.333	5.0
54.348	6.0
54.363	5.0
54.379	6.0
54.394	5.0
54.409	2.0
54.424	7.0
54.439	9.0
54.454	8.0
54.47	5.0
54.485	6.0
54.5	7.0
54.515	6.0
54.53	9.0
54.545	8.0
54.561	4.0
54.576	11.0
54.591	11.0
54.606	12.0
54.621	9.0
54.636	10.0
54.652	10.0
54.667	13.0
54.682	15.0
54.697	13.0
54.712	14.0
54.727	10.0
54.743	6.0
54.758	2.0
54.773	11.0
54.788	9.0
54.803	4.0
54.819	4.0
54.834	4.0
54.849	8.0
54.864	8.0
54.879	3.0
54.894	7.0
54.91	5.0
54.925	1.0
54.94	8.0
54.955	4.0
54.97	11.0
54.985	12.0
55.001	10.0
55.016	7.0
55.031	5.0
55.046	14.0
55.061	7.0
55.077	8.0
55.092	6.0
55.107	7.0
55.122	7.0
55.137	5.0
55.152	4.0
55.168	2.0
55.183	6.0
55.198	8.0
55.213	4.0
55.228	2.0
55.243	8.0
55.259	13.0
55.274	6.0
55.289	5.0
55.304	6.0
55.319	7.0
55.335	5.0
55.35	8.0
55.365	4.0
55.38	3.0
55.395	5.0
55.41	13.0
55.426	2.0
55.441	2.0
55.456	4.0
55.471	2.0
55.486	4.0
55.501	4.0
55.517	6.0
55.532	4.0
55.547	2.0
55.562	7.0
55.577	8.0
55.592	6.0
55.608	10.0
55.623	7.0
55.638	9.0
55.653	8.0
55.668	7.0
55.683	7.0
55.699	7.0
55.714	9.0
55.729	5.0
55.744	7.0
55.759	4.0
55.774	7.0
55.79	5.0
55.805	4.0
55.82	3.0
55.835	3.0
55.85	7.0
55.865	8.0
55.881	8.0
55.896	2.0
55.911	4.0
55.926	11.0
55.941	6.0
55.956	4.0
55.972	4.0
55.987	8.0
56.002	7.0
56.017	1.0
56.032	3.0
56.047	14.0
56.063	5.0
56.078	7.0
56.093	3.0
56.108	7.0
56.123	4.0
56.138	5.0
56.154	5.0
56.169	4.0
56.184	6.0
56.199	6.0
56.214	2.0
56.229	5.0
56.244	3.0
56.26	4.0
56.275	11.0
56.29	5.0
56.305	6.0
56.32	4.0
56.335	5.0
56.351	6.0
56.366	2.0
56.381	7.0
56.396	1.0
56.411	3.0
56.426	4.0
56.441	3.0
56.457	4.0
56.472	7.0
56.487	3.0
56.502	5.0
56.517	8.0
56.532	2.0
56.547	6.0
56.563	6.0
56.578	5.0
56.593	1.0
56.608	2.0
56.623	4.0
56.638	4.0
56.653	4.0
56.668	6.0
56.684	6.0
56.699	2.0
56.714	9.0
56.729	2.0
56.744	6.0
56.759	2.0
56.774	5.0
56.79	9.0
56.805	6.0
56.82	7.0
56.835	7.0
56.85	7.0
56.865	8.0
56.88	4.0
56.895	3.0
56.911	7.0
56.926	3.0
56.941	4.0
56.956	2.0
56.971	6.0
56.986	4.0
57.001	5.0
57.016	1.0
57.031	7.0
57.047	3.0
57.062	3.0
57.077	5.0
57.092	4.0
57.107	9.0
57.122	5.0
57.137	3.0
57.152	6.0
57.167	6.0
57.183	5.0
57.198	1.0
57.213	6.0
57.228	4.0
57.243	7.0
57.258	4.0
57.273	8.0
57.288	6.0
57.303	4.0
57.318	3.0
57.334	6.0
57.349	0.0
57.364	5.0
57.379	3.0
57.394	4.0
57.409	3.0
57.424	2.0
57.439	1.0
57.454	4.0
57.469	4.0
57.484	1.0
57.5	9.0
57.515	4.0
57.53	3.0
57.545	1.0
57.56	8.0
57.575	2.0
57.59	3.0
57.605	5.0
57.62	6.0
57.635	6.0
57.65	4.0
57.665	4.0
57.68	10.0
57.696	5.0
57.711	4.0
57.726	6.0
57.741	8.0
57.756	2.0
57.771	3.0
57.786	5.0
57.801	3.0
57.816	5.0
57.831	5.0
57.846	6.0
57.861	5.0
57.876	3.0
57.891	2.0
57.906	3.0
57.921	4.0
57.937	5.0
57.952	2.0
57.967	7.0
57.982	7.0
57.997	2.0
58.012	7.0
58.027	7.0
58.042	3.0
58.057	1.0
58.072	2.0
58.087	4.0
58.102	6.0
58.117	4.0
58.132	4.0
58.147	7.0
58.162	6.0
58.177	1.0
58.192	2.0
58.207	6.0
58.222	0.0
58.237	7.0
58.252	3.0
58.267	2.0
58.282	3.0
58.297	4.0
58.312	3.0
58.327	2.0
58.342	5.0
58.357	3.0
58.372	2.0
58.387	5.0
58.402	2.0
58.418	3.0
58.433	2.0
58.448	5.0
58.463	1.0
58.478	6.0
58.493	2.0
58.508	8.0
58.523	2.0
58.538	6.0
58.553	5.0
58.568	7.0
58.583	3.0
58.598	5.0
58.613	6.0
58.628	13.0
58.643	11.0
58.658	9.0
58.673	8.0
58.688	7.0
58.703	6.0
58.718	2.0
58.733	7.0
58.748	4.0
58.763	5.0
58.778	5.0
58.793	8.0
58.808	5.0
58.823	4.0
58.838	4.0
58.853	4.0
58.868	4.0
58.883	5.0
58.898	5.0
58.913	8.0
58.928	6.0
58.942	3.0
58.957	7.0
58.972	6.0
58.987	5.0
59.002	6.0
59.017	12.0
59.032	6.0
59.047	6.0
59.062	12.0
59.077	4.0
59.092	12.0
59.107	3.0
59.122	7.0
59.137	3.0
59.152	5.0
59.167	1.0
59.182	7.0
59.197	3.0
59.212	5.0
59.227	5.0
59.242	1.0
59.257	2.0
59.272	5.0
59.287	2.0
59.302	3.0
59.317	3.0
59.332	8.0
59.347	1.0
59.362	4.0
59.377	4.0
59.392	5.0
59.407	3.0
59.422	5.0
59.437	3.0
59.452	4.0
59.467	2.0
59.482	7.0
59.497	4.0
59.512	5.0
59.527	7.0
59.542	4.0
59.557	6.0
59.572	3.0
59.587	9.0
59.602	9.0
59.617	9.0
59.632	9.0
59.647	9.0
59.661	5.0
59.676	8.0
59.691	2.0
59.706	3.0
59.721	4.0
59.736	7.0
59.751	1.0
59.766	2.0
59.781	3.0
59.796	5.0
59.811	3.0
59.826	4.0
59.841	7.0
59.856	2.0
59.871	7.0
59.886	5.0
59.901	6.0
59.916	7.0
59.931	2.0
59.946	5.0
59.961	4.0
59.976	12.0
59.991	7.0
60.006	5.0
60.021	7.0
60.036	3.0
60.051	4.0
60.066	4.0
60.081	5.0
60.096	8.0
60.111	6.0
60.126	3.0
60.141	3.0
60.156	6.0
60.171	4.0
60.186	3.0
60.201	4.0
60.216	3.0
60.231	3.0
60.246	4.0
60.261	5.0
60.276	5.0
60.291	4.0
60.306	5.0
60.321	4.0
60.336	6.0
60.35	4.0
60.365	6.0
60.38	4.0
60.395	2.0
60.41	4.0
60.425	9.0
60.44	5.0
60.455	4.0
60.47	4.0
60.485	2.0
60.5	4.0
60.515	5.0
60.53	9.0
60.545	8.0
60.56	13.0
60.575	4.0
60.59	6.0
60.605	6.0
60.62	3.0
60.635	1.0
60.65	5.0
60.665	4.0
60.68	1.0
60.695	6.0
60.71	6.0
60.725	9.0
60.74	3.0
60.755	4.0
60.77	2.0
60.785	3.0
60.8	5.0
60.815	3.0
60.83	1.0
60.845	3.0
60.86	9.0
60.875	4.0
60.89	3.0
60.905	4.0
60.92	4.0
60.935	8.0
60.95	3.0
60.965	6.0
60.98	8.0
60.995	4.0
61.01	6.0
61.025	5.0
61.04	4.0
61.055	5.0
61.07	1.0
61.085	2.0
61.1	2.0
61.115	4.0
61.13	3.0
61.145	3.0
61.16	4.0
61.175	2.0
61.191	6.0
61.206	3.0
61.221	4.0
61.236	2.0
61.251	0.0
61.266	3.0
61.281	5.0
61.296	3.0
61.311	2.0
61.326	3.0
61.341	5.0
61.356	2.0
61.371	2.0
61.386	2.0
61.401	6.0
61.416	2.0
61.431	2.0
61.446	5.0
61.461	6.0
61.476	2.0
61.491	1.0
61.506	3.0
61.521	12.0
61.536	9.0
61.551	7.0
61.566	2.0
61.581	7.0
61.596	7.0
61.611	6.0
61.626	6.0
61.641	1.0
61.656	5.0
61.672	4.0
61.687	7.0
61.702	4.0
61.717	1.0
61.732	5.0
61.747	1.0
61.762	4.0
61.777	6.0
61.792	2.0
61.807	2.0
61.822	4.0
61.837	6.0
61.852	4.0
61.867	6.0
61.882	9.0
61.897	3.0
61.912	2.0
61.927	2.0
61.943	4.0
61.958	3.0
61.973	4.0
61.988	5.0
62.003	6.0
62.018	7.0
62.033	6.0
62.048	4.0
62.063	1.0
62.078	4.0
62.093	7.0
62.108	3.0
62.123	3.0
62.138	6.0
62.153	7.0
62.169	4.0
62.184	2.0
62.199	3.0
62.214	7.0
62.229	5.0
62.244	5.0
62.259	5.0
62.274	5.0
62.289	5.0
62.304	9.0
62.319	2.0
62.335	3.0
62.35	7.0
62.365	6.0
62.38	4.0
62.395	1.0
62.41	4.0
62.425	3.0
62.44	1.0
62.455	3.0
62.47	2.0
62.485	8.0
62.501	6.0
62.516	1.0
62.531	2.0
62.546	4.0
62.561	4.0
62.576	7.0
62.591	2.0
62.606	6.0
62.621	6.0
62.636	2.0
62.652	4.0
62.667	6.0
62.682	4.0
62.697	4.0
62.712	5.0
62.727	6.0
62.742	7.0
62.757	4.0
62.772	3.0
62.787	2.0
62.803	4.0
62.818	8.0
62.833	8.0
62.848	4.0
62.863	1.0
62.878	5.0
62.893	3.0
62.908	6.0
62.923	3.0
62.939	6.0
62.954	6.0
62.969	5.0
62.984	4.0
62.999	4.0
63.014	3.0
63.029	2.0
63.044	3.0
63.059	1.0
63.074	1.0
63.09	3.0
63.105	5.0
63.12	6.0
63.135	5.0
63.15	1.0
63.165	2.0
63.18	4.0
63.195	3.0
63.21	4.0
63.226	2.0
63.241	3.0
63.256	4.0
63.271	1.0
63.286	3.0
63.301	3.0
63.316	8.0
63.331	8.0
63.346	8.0
63.362	7.0
63.377	4.0
63.392	8.0
63.407	4.0
63.422	5.0
63.437	7.0
63.452	5.0
63.467	4.0
63.482	6.0
63.497	6.0
63.513	4.0
63.528	9.0
63.543	4.0
63.558	7.0
63.573	1.0
63.588	5.0
63.603	6.0
63.618	6.0
63.633	6.0
63.648	5.0
63.664	6.0
63.679	7.0
63.694	2.0
63.709	5.0
63.724	2.0
63.739	5.0
63.754	2.0
63.769	12.0
63.784	2.0
63.799	3.0
63.814	8.0
63.83	6.0
63.845	7.0
63.86	8.0
63.875	11.0
63.89	5.0
63.905	3.0
63.92	6.0
63.935	6.0
63.95	5.0
63.965	3.0
63.98	4.0
63.996	2.0
64.011	3.0
64.026	2.0
64.041	5.0
64.056	3.0
64.071	6.0
64.086	3.0
64.101	4.0
64.116	3.0
64.131	4.0
64.146	3.0
64.161	3.0
64.176	2.0
64.191	2.0
64.207	3.0
64.222	1.0
64.237	1.0
64.252	5.0
64.267	6.0
64.282	5.0
64.297	2.0
64.312	2.0
64.327	3.0
64.342	4.0
64.357	5.0
64.372	6.0
64.387	1.0
64.402	3.0
64.417	5.0
64.433	1.0
64.448	5.0
64.463	3.0
64.478	7.0
64.493	5.0
64.508	4.0
64.523	4.0
64.538	6.0
64.553	4.0
64.568	0.0
64.583	1.0
64.598	5.0
64.613	1.0
64.628	3.0
64.643	5.0
64.658	5.0
64.673	5.0
64.688	6.0
64.703	3.0
64.718	2.0
64.734	6.0
64.749	3.0
64.764	5.0
64.779	2.0
64.794	3.0
64.809	4.0
64.824	3.0
64.839	10.0
64.854	3.0
64.869	5.0
64.884	3.0
64.899	3.0
64.914	3.0
64.929	6.0
64.944	1.0
64.959	3.0
64.974	1.0
64.989	4.0
65.004	7.0
65.019	3.0
65.034	3.0
65.049	6.0
65.064	4.0
65.079	2.0
65.094	5.0
65.109	1.0
65.125	5.0
65.14	4.0
65.155	5.0
65.17	2.0
65.185	6.0
65.2	4.0
65.215	4.0
65.23	3.0
65.245	3.0
65.26	3.0
65.275	9.0
65.29	2.0
65.305	4.0
65.32	6.0
65.335	2.0
65.35	4.0
65.365	7.0
65.38	4.0
65.395	9.0
65.41	6.0
65.425	3.0
65.44	3.0
65.455	5.0
65.47	2.0
65.485	1.0
65.5	9.0
65.515	7.0
65.53	2.0
65.545	6.0
65.56	3.0
65.575	3.0
65.59	3.0
65.605	7.0
65.62	2.0
65.635	4.0
65.65	5.0
65.666	5.0
65.681	4.0
65.696	7.0
65.711	5.0
65.726	2.0
65.741	4.0
65.756	3.0
65.771	0.0
65.786	3.0
65.801	3.0
65.816	1.0
65.831	5.0
65.846	3.0
65.861	1.0
65.876	4.0
65.891	8.0
65.906	5.0
65.921	3.0
65.936	4.0
65.951	4.0
65.966	3.0
65.981	7.0
65.996	4.0
66.011	8.0
66.026	2.0
66.041	2.0
66.056	3.0
66.071	3.0
66.086	2.0
66.101	9.0
66.116	4.0
66.131	10.0
66.146	8.0
66.161	5.0
66.176	8.0
66.191	6.0
66.206	7.0
66.221	9.0
66.236	8.0
66.251	5.0
66.266	5.0
66.281	4.0
66.296	5.0
66.311	7.0
66.327	4.0
66.342	4.0
66.357	5.0
66.372	2.0
66.387	2.0
66.402	4.0
66.417	4.0
66.432	4.0
66.447	2.0
66.462	3.0
66.477	1.0
66.492	4.0
66.507	3.0
66.522	7.0
66.537	2.0
66.552	3.0
66.567	3.0
66.582	3.0
66.597	9.0
66.612	7.0
66.627	3.0
66.642	7.0
66.657	8.0
66.672	4.0
66.687	2.0
66.702	4.0
66.717	5.0
66.732	2.0
66.747	7.0
66.762	1.0
66.777	6.0
66.792	2.0
66.807	6.0
66.822	2.0
66.837	5.0
66.853	7.0
66.868	6.0
66.883	2.0
66.898	5.0
66.913	2.0
66.928	6.0
66.943	6.0
66.958	5.0
66.973	4.0
66.988	6.0
67.003	5.0
67.018	7.0
67.033	5.0
67.048	6.0
67.063	5.0
67.078	6.0
67.093	7.0
67.108	9.0
67.123	9.0
67.138	5.0
67.153	5.0
67.168	7.0
67.183	2.0
67.198	0.0
67.214	4.0
67.229	5.0
67.244	5.0
67.259	4.0
67.274	6.0
67.289	5.0
67.304	6.0
67.319	2.0
67.334	3.0
67.349	2.0
67.364	6.0
67.379	3.0
67.394	4.0
67.409	5.0
67.424	2.0
67.439	5.0
67.454	6.0
67.469	3.0
67.484	2.0
67.5	4.0
67.515	6.0
67.53	4.0
67.545	7.0
67.56	5.0
67.575	3.0
67.59	3.0
67.605	6.0
67.62	2.0
67.635	4.0
67.65	2.0
67.665	2.0
67.68	3.0
67.695	2.0
67.71	1.0
67.726	3.0
67.741	3.0
67.756	2.0
67.771	8.0
67.786	3.0
67.801	3.0
67.816	2.0
67.831	3.0
67.846	2.0
67.861	5.0
67.876	5.0
67.891	5.0
67.906	3.0
67.922	3.0
67.937	6.0
67.952	0.0
67.967	5.0
67.982	7.0
67.997	9.0
68.012	3.0
68.027	7.0
68.042	5.0
68.057	6.0
68.072	5.0
68.087	8.0
68.103	3.0
68.118	4.0
68.133	2.0
68.148	4.0
68.163	1.0
68.178	3.0
68.193	5.0
68.208	1.0
68.223	1.0
68.238	7.0
68.254	3.0
68.269	4.0
68.284	6.0
68.299	4.0
68.314	4.0
68.329	1.0
68.344	4.0
68.359	2.0
68.374	8.0
68.389	6.0
68.405	2.0
68.42	3.0
68.435	6.0
68.45	4.0
68.465	5.0
68.48	2.0
68.495	3.0
68.51	0.0
68.525	5.0
68.54	3.0
68.556	2.0
68.571	3.0
68.586	2.0
68.601	5.0
68.616	5.0
68.631	1.0
68.646	5.0
68.661	3.0
68.676	4.0
68.691	6.0
68.707	6.0
68.722	4.0
68.737	4.0
68.752	6.0
68.767	4.0
68.782	2.0
68.797	3.0
68.812	4.0
68.827	2.0
68.842	4.0
68.857	4.0
68.873	3.0
68.888	2.0
68.903	4.0
68.918	4.0
68.933	4.0
68.948	4.0
68.963	4.0
68.978	4.0
68.993	5.0
69.008	4.0
69.023	4.0
69.038	3.0
69.054	4.0
69.069	6.0
69.084	5.0
69.099	5.0
69.114	5.0
69.129	2.0
69.144	4.0
69.159	5.0
69.174	4.0
69.189	4.0
69.204	2.0
69.219	4.0
69.234	2.0
69.249	4.0
69.264	4.0
69.279	2.0
69.295	4.0
69.31	4.0
69.325	6.0
69.34	1.0
69.355	1.0
69.37	6.0
69.385	8.0
69.4	7.0
69.415	2.0
69.43	2.0
69.445	6.0
69.46	7.0
69.475	5.0
69.49	9.0
69.505	2.0
69.52	3.0
69.535	3.0
69.55	5.0
69.565	6.0
69.58	5.0
69.595	4.0
69.61	4.0
69.625	4.0
69.64	10.0
69.655	1.0
69.67	6.0
69.685	3.0
69.7	7.0
69.715	2.0
69.73	8.0
69.745	4.0
69.76	7.0
69.775	6.0
69.79	10.0
69.805	7.0
69.82	8.0
69.835	4.0
69.85	6.0
69.865	5.0
69.88	5.0
69.895	5.0
69.909	2.0
69.924	2.0
69.939	5.0
69.954	2.0
69.969	4.0
69.984	2.0
69.999	3.0
70.014	5.0
70.029	7.0
70.044	3.0
70.059	2.0
70.074	2.0
70.088	3.0
70.103	5.0
70.118	1.0
70.133	2.0
70.148	4.0
70.163	4.0
70.178	2.0
70.193	5.0
70.208	4.0
70.222	7.0
70.237	7.0
70.252	1.0
70.267	1.0
70.282	8.0
70.297	5.0
70.312	4.0
70.327	2.0
70.341	3.0
70.356	5.0
70.371	5.0
70.386	4.0
70.401	5.0
70.416	1.0
70.43	5.0
70.445	3.0
70.46	3.0
70.475	6.0
70.49	4.0
70.505	6.0
70.519	5.0
70.534	5.0
70.549	11.0
70.564	5.0
70.579	1.0
70.594	4.0
70.608	4.0
70.623	6.0
70.638	6.0
70.653	7.0
70.668	6.0
70.683	2.0
70.697	10.0
70.712	7.0
70.727	4.0
70.742	7.0
70.757	8.0
70.771	2.0
70.786	6.0
70.801	6.0
70.816	2.0
70.831	2.0
70.845	4.0
70.86	4.0
70.875	4.0
70.89	3.0
70.905	5.0
70.92	3.0
70.934	6.0
70.949	4.0
70.964	3.0
70.979	4.0
70.994	3.0
71.008	0.0
71.023	2.0
71.038	2.0
71.053	4.0
71.068	1.0
71.082	2.0
71.097	3.0
71.112	3.0
71.127	4.0
71.142	3.0
71.156	1.0
71.171	5.0
71.186	5.0
71.201	6.0
71.216	2.0
71.231	8.0
71.245	3.0
71.26	1.0
71.275	6.0
71.29	4.0
71.305	4.0
71.319	2.0
71.334	10.0
71.349	3.0
71.364	3.0
71.379	0.0
71.394	1.0
71.408	6.0
71.423	3.0
71.438	5.0
71.453	5.0
71.468	1.0
71.483	6.0
71.497	2.0
71.512	5.0
71.527	2.0
71.542	5.0
71.557	4.0
71.572	0.0
71.586	6.0
71.601	2.0
71.616	4.0
71.631	5.0
71.646	4.0
71.661	2.0
71.676	5.0
71.69	2.0
71.705	2.0
71.72	3.0
71.735	2.0
71.75	1.0
71.765	1.0
71.78	4.0
71.795	4.0
71.81	1.0
71.824	2.0
71.839	3.0
71.854	7.0
71.869	4.0
71.884	1.0
71.899	6.0
71.914	2.0
71.929	6.0
71.944	1.0
71.959	3.0
71.974	3.0
71.988	3.0
72.003	3.0
72.018	8.0
72.033	7.0
72.048	3.0
72.063	7.0
72.078	2.0
72.093	5.0
72.108	3.0
72.123	3.0
72.138	1.0
72.153	5.0
72.168	3.0
72.183	4.0
72.198	5.0
72.213	5.0
72.228	2.0
72.243	4.0
72.258	5.0
72.273	3.0
72.288	5.0
72.303	5.0
72.318	2.0
72.333	5.0
72.348	1.0
72.363	5.0
72.378	1.0
72.393	2.0
72.408	2.0
72.423	4.0
72.438	3.0
72.453	6.0
72.468	2.0
72.483	6.0
72.498	7.0
72.513	2.0
72.528	3.0
72.543	5.0
72.558	5.0
72.573	6.0
72.588	2.0
72.603	4.0
72.618	3.0
72.633	3.0
72.649	6.0
72.664	5.0
72.679	5.0
72.694	2.0
72.709	3.0
72.724	1.0
72.739	2.0
72.754	14.0
72.769	6.0
72.784	3.0
72.799	2.0
72.814	6.0
72.829	5.0
72.845	3.0
72.86	4.0
72.875	2.0
72.89	3.0
72.905	7.0
72.92	2.0
72.935	6.0
72.95	8.0
72.965	3.0
72.98	1.0
72.996	1.0
73.011	0.0
73.026	4.0
73.041	4.0
73.056	1.0
73.071	5.0
73.086	8.0
73.101	3.0
73.117	7.0
73.132	2.0
73.147	2.0
73.162	1.0
73.177	0.0
73.192	4.0
73.207	3.0
73.222	5.0
73.238	6.0
73.253	7.0
73.268	3.0
73.283	5.0
73.298	6.0
73.313	4.0
73.328	6.0
73.343	7.0
73.359	3.0
73.374	7.0
73.389	5.0
73.404	3.0
73.419	0.0
73.434	1.0
73.449	0.0
73.465	1.0
73.48	3.0
73.495	4.0
73.51	4.0
73.525	2.0
73.54	2.0
73.556	5.0
73.571	2.0
73.586	4.0
73.601	3.0
73.616	1.0
73.631	4.0
73.646	3.0
73.662	3.0
73.677	2.0
73.692	4.0
73.707	2.0
73.722	7.0
73.737	4.0
73.752	4.0
73.768	3.0
73.783	2.0
73.798	3.0
73.813	6.0
73.828	2.0
73.843	5.0
73.859	4.0
73.874	4.0
73.889	6.0
73.904	4.0
73.919	1.0
73.934	4.0
73.949	3.0
73.965	2.0
73.98	5.0
73.995	3.0
74.01	2.0
74.025	4.0
74.04	0.0
74.056	4.0
74.071	4.0
74.086	4.0
74.101	6.0
74.116	4.0
74.131	9.0
74.146	6.0
74.162	5.0
74.177	8.0
74.192	4.0
74.207	5.0
74.222	4.0
74.237	5.0
74.252	4.0
74.268	5.0
74.283	4.0
74.298	6.0
74.313	4.0
74.328	2.0
74.343	4.0
74.358	2.0
74.374	3.0
74.389	7.0
74.404	2.0
74.419	4.0
74.434	3.0
74.449	1.0
74.464	2.0
74.48	3.0
74.495	2.0
74.51	4.0
74.525	4.0
74.54	1.0
74.555	4.0
74.57	1.0
74.586	4.0
74.601	5.0
74.616	3.0
74.631	5.0
74.646	2.0
74.661	10.0
74.676	3.0
74.691	8.0
74.707	6.0
74.722	4.0
74.737	5.0
74.752	5.0
74.767	3.0
74.782	4.0
74.797	2.0
74.813	5.0
74.828	3.0
74.843	1.0
74.858	8.0
74.873	5.0
74.888	3.0
74.903	3.0
74.918	5.0
74.934	2.0
74.949	1.0
74.964	0.0
74.979	2.0
74.994	4.0
75.009	5.0
75.024	2.0
75.04	2.0
75.055	3.0
75.07	5.0
75.085	2.0
75.1	3.0
75.115	2.0
75.13	2.0
75.145	6.0
75.161	1.0
75.176	3.0
75.191	1.0
75.206	4.0
75.221	2.0
75.236	3.0
75.251	1.0
75.266	2.0
75.282	3.0
75.297	2.0
75.312	0.0
75.327	1.0
75.342	4.0
75.357	1.0
75.372	5.0
75.387	1.0
75.403	1.0
75.418	0.0
75.433	3.0
75.448	6.0
75.463	3.0
75.478	4.0
75.493	3.0
75.509	5.0
75.524	1.0
75.539	4.0
75.554	5.0
75.569	4.0
75.584	3.0
75.599	8.0
75.614	4.0
75.63	2.0
75.645	3.0
75.66	2.0
75.675	2.0
75.69	4.0
75.705	6.0
75.72	2.0
75.735	2.0
75.751	4.0
75.766	3.0
75.781	2.0
75.796	1.0
75.811	4.0
75.826	4.0
75.841	5.0
75.856	2.0
75.872	4.0
75.887	3.0
75.902	5.0
75.917	3.0
75.932	6.0
75.947	5.0
75.962	5.0
75.977	2.0
75.993	4.0
76.008	3.0
76.023	4.0
76.038	3.0
76.053	4.0
76.068	0.0
76.083	2.0
76.098	2.0
76.114	6.0
76.129	0.0
76.144	6.0
76.159	6.0
76.174	2.0
76.189	5.0
76.204	3.0
76.22	3.0
76.235	3.0
76.25	2.0
76.265	6.0
76.28	4.0
76.295	7.0
76.31	6.0
76.325	4.0
76.341	6.0
76.356	8.0
76.371	2.0
76.386	2.0
76.401	6.0
76.416	2.0
76.431	7.0
76.446	3.0
76.462	3.0
76.477	2.0
76.492	6.0
76.507	4.0
76.522	6.0
76.537	2.0
76.552	1.0
76.567	4.0
76.583	2.0
76.598	8.0
76.613	4.0
76.628	4.0
76.643	2.0
76.658	5.0
76.673	2.0
76.688	7.0
76.704	4.0
76.719	6.0
76.734	1.0
76.749	6.0
76.764	3.0
76.779	6.0
76.794	4.0
76.809	5.0
76.824	7.0
76.84	7.0
76.855	3.0
76.87	5.0
76.885	2.0
76.9	0.0
76.915	3.0
76.93	6.0
76.945	4.0
76.96	5.0
76.976	0.0
76.991	5.0
77.006	5.0
77.021	4.0
77.036	0.0
77.051	3.0
77.066	1.0
77.081	4.0
77.096	5.0
77.112	4.0
77.127	3.0
77.142	6.0
77.157	3.0
77.172	3.0
77.187	5.0
77.202	4.0
77.217	2.0
77.232	6.0
77.247	0.0
77.263	6.0
77.278	2.0
77.293	4.0
77.308	2.0
77.323	2.0
77.338	7.0
77.353	4.0
77.368	6.0
77.383	3.0
77.398	2.0
77.413	7.0
77.428	5.0
77.444	3.0
77.459	2.0
77.474	4.0
77.489	2.0
77.504	3.0
77.519	5.0
77.534	6.0
77.549	4.0
77.564	4.0
77.579	1.0
77.594	8.0
77.609	9.0
77.624	4.0
77.64	2.0
77.655	10.0
77.67	6.0
77.685	4.0
77.7	3.0
77.715	5.0
77.73	1.0
77.745	3.0
77.76	2.0
77.775	3.0
77.79	3.0
77.805	6.0
77.82	1.0
77.835	3.0
77.85	4.0
77.865	4.0
77.88	1.0
77.895	3.0
77.91	4.0
77.926	7.0
77.941	1.0
77.956	4.0
77.971	4.0
77.986	3.0
78.001	4.0
78.016	1.0
78.031	2.0
78.046	4.0
78.061	2.0
78.076	4.0
78.091	3.0
78.106	5.0
78.121	1.0
78.136	2.0
78.151	5.0
78.166	4.0
78.181	4.0
78.196	6.0
78.211	1.0
78.226	3.0
78.241	6.0
78.256	5.0
78.271	2.0
78.286	3.0
78.301	2.0
78.316	5.0
78.331	3.0
78.346	4.0
78.361	0.0
78.376	5.0
78.391	3.0
78.406	2.0
78.421	4.0
78.436	1.0
78.451	1.0
78.466	2.0
78.481	4.0
78.496	3.0
78.511	3.0
78.526	2.0
78.541	5.0
78.556	0.0
78.571	7.0
78.586	5.0
78.601	5.0
78.616	2.0
78.631	5.0
78.646	3.0
78.661	2.0
78.676	3.0
78.691	2.0
78.706	2.0
78.721	3.0
78.736	4.0
78.751	2.0
78.766	3.0
78.781	4.0
78.796	2.0
78.811	6.0
78.826	6.0
78.841	1.0
78.856	4.0
78.871	3.0
78.885	2.0
78.9	5.0
78.915	3.0
78.93	2.0
78.945	2.0
78.96	5.0
78.975	2.0
78.99	3.0
79.005	3.0
79.02	0.0
79.035	2.0
79.05	7.0
79.065	4.0
79.08	2.0
79.095	2.0
79.11	3.0
79.125	2.0
79.14	3.0
79.155	0.0
79.17	3.0
79.185	0.0
79.2	1.0
79.215	4.0
79.23	2.0
79.245	4.0
79.26	3.0
79.275	5.0
79.29	5.0
79.304	2.0
79.319	3.0
79.334	1.0
79.349	3.0
79.364	3.0
79.379	3.0
79.394	4.0
79.409	5.0
79.424	2.0
79.439	5.0
79.454	4.0
79.469	1.0
79.484	3.0
79.499	3.0
79.514	3.0
79.529	3.0
79.544	1.0
79.559	2.0
79.574	3.0
79.589	3.0
79.604	1.0
79.619	3.0
79.634	1.0
79.649	3.0
79.664	3.0
79.679	2.0
79.693	7.0
79.708	2.0
79.723	2.0
79.738	3.0
79.753	7.0
79.768	3.0
79.783	1.0
79.798	4.0
79.813	3.0
79.828	5.0
79.843	4.0
79.858	1.0
79.873	6.0
79.888	5.0
79.903	5.0
79.918	2.0
79.933	2.0
79.948	4.0
79.963	5.0
79.978	3.0
79.993	4.0
80.008	3.0
80.023	5.0
80.038	2.0
80.053	1.0
80.068	5.0
80.083	3.0
80.098	2.0
80.113	4.0
80.128	3.0
80.143	4.0
80.158	4.0
80.173	4.0
80.188	7.0
80.202	6.0
80.217	2.0
80.232	4.0
80.247	1.0
80.262	2.0
80.277	7.0
80.292	3.0
80.307	3.0
80.322	8.0
80.337	2.0
80.352	0.0
80.367	3.0
80.382	4.0
80.397	1.0
80.412	4.0
80.427	5.0
80.442	2.0
80.457	2.0
80.472	1.0
80.487	3.0
80.502	3.0
80.517	4.0
80.532	6.0
80.547	3.0
80.562	2.0
80.577	5.0
80.592	3.0
80.607	2.0
80.622	3.0
80.637	0.0
80.652	0.0
80.667	5.0
80.682	2.0
80.697	4.0
80.712	2.0
80.727	4.0
80.742	6.0
80.757	7.0
80.772	6.0
80.787	1.0
80.802	2.0
80.817	3.0
80.832	3.0
80.847	5.0
80.862	1.0
80.877	2.0
80.892	6.0
80.907	7.0
80.922	2.0
80.937	2.0
80.952	4.0
80.967	2.0
80.982	4.0
80.997	3.0
81.012	2.0
81.027	2.0
81.042	4.0
81.057	2.0
81.072	4.0
81.087	7.0
81.101	3.0
81.116	5.0
81.131	3.0
81.146	1.0
81.161	2.0
81.176	3.0
81.191	6.0
81.206	2.0
81.221	7.0
81.236	3.0
81.251	1.0
81.266	0.0
81.281	2.0
81.296	2.0
81.311	1.0
81.326	3.0
81.341	1.0
81.356	7.0
81.371	6.0
81.386	3.0
81.401	5.0
81.416	7.0
81.431	0.0
81.446	3.0
81.461	1.0
81.476	4.0
81.491	0.0
81.506	3.0
81.521	4.0
81.536	3.0
81.55	2.0
81.565	4.0
81.58	3.0
81.595	5.0
81.61	3.0
81.625	3.0
81.64	2.0
81.655	7.0
81.67	4.0
81.685	4.0
81.7	2.0
81.715	4.0
81.73	3.0
81.745	1.0
81.76	2.0
81.775	4.0
81.79	8.0
81.805	4.0
81.819	4.0
81.834	7.0
81.849	6.0
81.864	2.0
81.879	6.0
81.894	4.0
81.909	2.0
81.924	1.0
81.939	0.0
81.954	5.0
81.969	4.0
81.984	5.0
81.999	3.0
82.013	1.0
82.028	4.0
82.043	2.0
82.058	2.0
82.073	1.0
82.088	3.0
82.103	2.0
82.118	3.0
82.133	2.0
82.148	1.0
82.163	1.0
82.177	0.0
82.192	2.0
82.207	3.0
82.222	1.0
82.237	1.0
82.252	1.0
82.267	6.0
82.282	2.0
82.297	3.0
82.312	4.0
82.326	6.0
82.341	6.0
82.356	3.0
82.371	1.0
82.386	4.0
82.401	2.0
82.416	5.0
82.431	3.0
82.445	5.0
82.46	1.0
82.475	3.0
82.49	4.0
82.505	1.0
82.52	4.0
82.535	3.0
82.55	3.0
82.565	0.0
82.579	3.0
82.594	3.0
82.609	3.0
82.624	2.0
82.639	4.0
82.654	1.0
82.669	5.0
82.684	4.0
82.698	3.0
82.713	2.0
82.728	5.0
82.743	2.0
82.758	5.0
82.773	3.0
82.788	1.0
82.803	4.0
82.817	2.0
82.832	2.0
82.847	5.0
82.862	2.0
82.877	1.0
82.892	5.0
82.907	5.0
82.922	3.0
82.937	3.0
82.951	3.0
82.966	0.0
82.981	4.0
82.996	2.0
83.011	4.0
83.026	2.0
83.041	2.0
83.056	4.0
83.07	1.0
83.085	2.0
83.1	1.0
83.115	1.0
83.13	4.0
83.145	0.0
83.16	3.0
83.175	4.0
83.19	3.0
83.204	3.0
83.219	2.0
83.234	2.0
83.249	0.0
83.264	4.0
83.279	0.0
83.294	2.0
83.309	1.0
83.324	5.0
83.339	1.0
83.353	5.0
83.368	5.0
83.383	0.0
83.398	0.0
83.413	2.0
83.428	3.0
83.443	2.0
83.458	2.0
83.473	6.0
83.488	2.0
83.503	4.0
83.517	6.0
83.532	9.0
83.547	7.0
83.562	4.0
83.577	2.0
83.592	4.0
83.607	2.0
83.622	1.0
83.637	3.0
83.652	4.0
83.667	4.0
83.682	2.0
83.697	4.0
83.712	4.0
83.727	3.0
83.741	3.0
83.756	3.0
83.771	1.0
83.786	1.0
83.801	1.0
83.816	4.0
83.831	4.0
83.846	2.0
83.861	4.0
83.876	2.0
83.891	2.0
83.906	4.0
83.921	2.0
83.936	0.0
83.951	2.0
83.966	2.0
83.981	4.0
83.996	1.0
84.011	1.0
84.026	2.0
84.041	1.0
84.056	7.0
84.071	3.0
84.086	2.0
84.101	3.0
84.116	2.0
84.131	7.0
84.146	2.0
84.161	5.0
84.176	1.0
84.191	6.0
84.206	2.0
84.221	3.0
84.236	2.0
84.251	6.0
84.266	1.0
84.281	3.0
84.296	2.0
84.311	4.0
84.326	4.0
84.341	6.0
84.356	3.0
84.371	5.0
84.386	5.0
84.401	6.0
84.416	6.0
84.431	2.0
84.446	3.0
84.461	3.0
84.476	2.0
84.492	5.0
84.507	5.0
84.522	4.0
84.537	4.0
84.552	3.0
84.567	4.0
84.582	3.0
84.597	3.0
84.612	5.0
84.627	2.0
84.642	4.0
84.657	2.0
84.672	1.0
84.687	3.0
84.702	2.0
84.717	1.0
84.733	5.0
84.748	1.0
84.763	3.0
84.778	6.0
84.793	2.0
84.808	5.0
84.823	3.0
84.838	5.0
84.853	4.0
84.868	2.0
84.883	4.0
84.898	3.0
84.913	2.0
84.929	4.0
84.944	2.0
84.959	5.0
84.974	7.0
84.989	3.0
85.004	4.0
85.019	4.0
85.034	3.0
85.049	2.0
85.064	4.0
85.079	1.0
85.094	2.0
85.11	6.0
85.125	0.0
85.14	4.0
85.155	5.0
85.17	5.0
85.185	3.0
85.2	3.0
85.215	1.0
85.23	3.0
85.245	2.0
85.26	2.0
85.276	2.0
85.291	5.0
85.306	1.0
85.321	2.0
85.336	3.0
85.351	2.0
85.366	4.0
85.381	6.0
85.396	1.0
85.411	3.0
85.426	4.0
85.441	2.0
85.457	2.0
85.472	2.0
85.487	2.0
85.502	5.0
85.517	3.0
85.532	2.0
85.547	3.0
85.562	1.0
85.577	3.0
85.592	1.0
85.607	4.0
85.622	2.0
85.637	2.0
85.653	3.0
85.668	4.0
85.683	5.0
85.698	2.0
85.713	1.0
85.728	1.0
85.743	0.0
85.758	0.0
85.773	3.0
85.788	1.0
85.803	4.0
85.818	4.0
85.833	1.0
85.848	2.0
85.863	1.0
85.879	2.0
85.894	3.0
85.909	2.0
85.924	1.0
85.939	3.0
85.954	4.0
85.969	6.0
85.984	3.0
85.999	2.0
86.014	2.0
86.029	3.0
86.044	4.0
86.059	2.0
86.074	3.0
86.089	4.0
86.104	4.0
86.119	0.0
86.134	7.0
86.149	2.0
86.164	4.0
86.179	4.0
86.194	2.0
86.209	2.0
86.224	1.0
86.239	4.0
86.254	3.0
86.269	1.0
86.284	6.0
86.299	7.0
86.314	0.0
86.33	3.0
86.345	4.0
86.36	2.0
86.375	6.0
86.39	3.0
86.405	2.0
86.42	5.0
86.435	2.0
86.45	2.0
86.465	2.0
86.48	0.0
86.495	1.0
86.51	2.0
86.525	5.0
86.54	5.0
86.555	1.0
86.57	2.0
86.585	3.0
86.6	5.0
86.615	1.0
86.63	4.0
86.645	3.0
86.659	1.0
86.674	3.0
86.689	3.0
86.704	1.0
86.719	4.0
86.734	3.0
86.749	3.0
86.764	3.0
86.779	1.0
86.794	2.0
86.809	4.0
86.824	2.0
86.839	6.0
86.854	4.0
86.869	3.0
86.884	1.0
86.899	2.0
86.914	6.0
86.929	5.0
86.944	3.0
86.959	5.0
86.974	4.0
86.989	2.0
87.004	2.0
87.019	7.0
87.034	7.0
87.049	3.0
87.064	5.0
87.079	1.0
87.094	4.0
87.109	4.0
87.124	1.0
87.139	6.0
87.154	1.0
87.169	5.0
87.184	2.0
87.199	2.0
87.214	2.0
87.229	2.0
87.244	4.0
87.259	5.0
87.274	3.0
87.289	3.0
87.304	1.0
87.319	4.0
87.334	1.0
87.349	2.0
87.364	1.0
87.379	3.0
87.394	4.0
87.409	2.0
87.424	6.0
87.438	3.0
87.453	2.0
87.468	4.0
87.483	4.0
87.498	9.0
87.513	5.0
87.528	6.0
87.543	3.0
87.558	1.0
87.573	7.0
87.588	4.0
87.603	6.0
87.618	3.0
87.633	4.0
87.648	5.0
87.663	1.0
87.678	6.0
87.693	2.0
87.708	5.0
87.723	7.0
87.738	5.0
87.753	4.0
87.768	0.0
87.783	3.0
87.798	6.0
87.813	1.0
87.828	2.0
87.843	2.0
87.858	1.0
87.873	2.0
87.888	3.0
87.903	4.0
87.918	3.0
87.933	6.0
87.948	3.0
87.963	3.0
87.978	5.0
87.993	2.0
88.008	2.0
88.023	2.0
88.038	3.0
88.053	3.0
88.068	2.0
88.083	2.0
88.098	2.0
88.113	2.0
88.128	4.0
88.143	2.0
88.158	2.0
88.174	2.0
88.189	3.0
88.204	4.0
88.219	2.0
88.234	7.0
88.249	3.0
88.264	4.0
88.279	2.0
88.294	2.0
88.309	1.0
88.324	2.0
88.339	6.0
88.354	6.0
88.369	9.0
88.384	4.0
88.399	1.0
88.414	2.0
88.429	1.0
88.444	0.0
88.459	3.0
88.474	2.0
88.489	3.0
88.504	3.0
88.519	4.0
88.534	6.0
88.549	2.0
88.564	2.0
88.58	2.0
88.595	4.0
88.61	1.0
88.625	6.0
88.64	4.0
88.655	1.0
88.67	2.0
88.685	4.0
88.7	7.0
88.715	0.0
88.73	0.0
88.745	6.0
88.76	3.0
88.775	4.0
88.79	1.0
88.805	3.0
88.82	6.0
88.835	1.0
88.85	4.0
88.865	4.0
88.88	6.0
88.895	3.0
88.911	1.0
88.926	7.0
88.941	0.0
88.956	3.0
88.971	4.0
88.986	2.0
89.001	1.0
89.016	1.0
89.031	1.0
89.046	5.0
89.061	2.0
89.076	2.0
89.091	2.0
89.106	2.0
89.121	0.0
89.136	3.0
89.151	1.0
89.166	3.0
89.181	7.0
89.196	6.0
89.211	4.0
89.227	1.0
89.242	2.0
89.257	8.0
89.272	6.0
89.287	1.0
89.302	2.0
89.317	1.0
89.332	8.0
89.347	2.0
89.362	5.0
89.377	3.0
89.392	4.0
89.407	5.0
89.422	5.0
89.437	3.0
89.452	1.0
89.467	5.0
89.482	5.0
89.497	1.0
89.512	3.0
89.527	6.0
89.542	4.0
89.557	5.0
89.572	5.0
89.587	0.0
89.602	4.0
89.617	1.0
89.632	3.0
89.647	1.0
89.662	3.0
89.677	4.0
89.693	2.0
89.708	4.0
89.723	3.0
89.738	3.0
89.753	1.0
89.768	3.0
89.783	3.0
89.798	1.0
89.813	6.0
89.828	5.0
89.843	2.0
89.858	1.0
89.873	3.0
89.888	3.0
89.903	5.0
89.918	0.0
89.933	1.0
89.948	4.0
89.963	3.0
89.978	2.0
89.993	2.0
90.008	5.0
90.023	6.0
90.038	2.0
90.053	5.0
90.068	3.0
90.083	1.0
90.097	7.0
90.112	0.0
90.127	1.0
90.142	2.0
90.157	4.0
90.172	5.0
90.187	4.0
90.202	5.0
90.217	5.0
90.232	2.0
90.247	3.0
90.262	3.0
90.277	4.0
90.292	6.0
90.307	2.0
90.322	3.0
90.337	2.0
90.352	8.0
90.367	0.0
90.382	2.0
90.397	4.0
90.412	5.0
90.427	5.0
90.442	8.0
90.457	2.0
90.472	5.0
90.487	2.0
90.501	4.0
90.516	3.0
90.531	3.0
90.546	4.0
90.561	5.0
90.576	2.0
90.591	4.0
90.606	4.0
90.621	3.0
90.636	1.0
90.651	1.0
90.666	1.0
90.681	4.0
90.696	2.0
90.711	4.0
90.726	4.0
90.741	3.0
90.755	0.0
90.77	3.0
90.785	1.0
90.8	0.0
90.815	1.0
90.83	2.0
90.845	8.0
90.86	5.0
90.875	2.0
90.89	3.0
90.905	3.0
90.92	3.0
90.935	6.0
90.95	5.0
90.965	3.0
90.979	3.0
90.994	2.0
91.009	2.0
91.024	2.0
91.039	7.0
91.054	4.0
91.069	4.0
91.084	4.0
91.099	6.0
91.114	3.0
91.129	3.0
91.144	1.0
91.159	2.0
91.174	4.0
91.188	5.0
91.203	3.0
91.218	2.0
91.233	3.0
91.248	2.0
91.263	3.0
91.278	5.0
91.293	6.0
91.308	2.0
91.323	3.0
91.338	3.0
91.353	1.0
91.368	2.0
91.383	3.0
91.398	2.0
91.412	3.0
91.427	2.0
91.442	4.0
91.457	2.0
91.472	4.0
91.487	6.0
91.502	3.0
91.517	3.0
91.532	5.0
91.547	0.0
91.562	6.0
91.577	2.0
91.592	2.0
91.607	4.0
91.622	1.0
91.637	1.0
91.652	2.0
91.666	3.0
91.681	3.0
91.696	2.0
91.711	3.0
91.726	4.0
91.741	4.0
91.756	6.0
91.771	2.0
91.786	4.0
91.801	0.0
91.816	2.0
91.831	3.0
91.846	2.0
91.861	3.0
91.876	3.0
91.891	1.0
91.906	3.0
91.921	6.0
91.936	1.0
91.951	3.0
91.966	5.0
91.981	4.0
91.995	3.0
92.01	3.0
92.025	4.0
92.04	2.0
92.055	4.0
92.07	1.0
92.085	1.0
92.1	0.0
92.115	8.0
92.13	4.0
92.145	3.0
92.16	5.0
92.175	3.0
92.19	5.0
92.205	3.0
92.22	5.0
92.235	6.0
92.25	0.0
92.265	1.0
92.28	6.0
92.295	1.0
92.31	3.0
92.325	1.0
92.34	0.0
92.355	1.0
92.37	8.0
92.385	6.0
92.4	3.0
92.415	2.0
92.43	2.0
92.445	1.0
92.46	1.0
92.475	6.0
92.49	3.0
92.505	5.0
92.52	3.0
92.535	4.0
92.55	2.0
92.565	4.0
92.58	3.0
92.595	2.0
92.61	2.0
92.625	0.0
92.64	1.0
92.655	2.0
92.67	3.0
92.685	3.0
92.7	5.0
92.715	4.0
92.73	1.0
92.745	1.0
92.76	4.0
92.775	3.0
92.79	4.0
92.805	6.0
92.82	4.0
92.835	2.0
92.85	2.0
92.865	4.0
92.88	4.0
92.895	3.0
92.91	3.0
92.925	1.0
92.94	1.0
92.955	0.0
92.97	2.0
92.985	1.0
93.0	1.0
93.015	1.0
93.03	6.0
93.045	3.0
93.06	2.0
93.075	1.0
93.09	2.0
93.105	3.0
93.12	2.0
93.135	2.0
93.15	3.0
93.165	2.0
93.18	0.0
93.195	1.0
93.21	2.0
93.225	0.0
93.24	3.0
93.255	4.0
93.27	3.0
93.285	4.0
93.3	5.0
93.315	2.0
93.33	5.0
93.345	4.0
93.36	3.0
93.375	1.0
93.39	4.0
93.405	4.0
93.42	2.0
93.435	3.0
93.45	3.0
93.465	4.0
93.48	2.0
93.495	2.0
93.51	7.0
93.525	2.0
93.54	2.0
93.555	6.0
93.57	5.0
93.585	1.0
93.6	5.0
93.615	1.0
93.63	4.0
93.645	2.0
93.66	4.0
93.675	6.0
93.69	4.0
93.705	4.0
93.72	3.0
93.735	5.0
93.75	4.0
93.765	3.0
93.78	5.0
93.795	3.0
93.81	4.0
93.824	3.0
93.839	3.0
93.854	4.0
93.869	0.0
93.884	3.0
93.899	4.0
93.914	0.0
93.929	2.0
93.944	3.0
93.959	3.0
93.974	6.0
93.989	5.0
94.004	7.0
94.019	2.0
94.034	5.0
94.049	1.0
94.064	1.0
94.079	2.0
94.094	4.0
94.108	2.0
94.123	1.0
94.138	5.0
94.153	2.0
94.168	3.0
94.183	4.0
94.198	2.0
94.213	4.0
94.228	2.0
94.243	3.0
94.258	1.0
94.273	3.0
94.288	5.0
94.302	4.0
94.317	4.0
94.332	4.0
94.347	6.0
94.362	2.0
94.377	5.0
94.392	7.0
94.407	2.0
94.422	5.0
94.437	5.0
94.452	1.0
94.466	2.0
94.481	6.0
94.496	4.0
94.511	2.0
94.526	1.0
94.541	3.0
94.556	5.0
94.571	3.0
94.586	2.0
94.601	2.0
94.615	7.0
94.63	1.0
94.645	2.0
94.66	1.0
94.675	4.0
94.69	3.0
94.705	10.0
94.72	6.0
94.735	1.0
94.749	2.0
94.764	3.0
94.779	1.0
94.794	8.0
94.809	1.0
94.824	1.0
94.839	3.0
94.854	2.0
94.868	3.0
94.883	5.0
94.898	2.0
94.913	4.0
94.928	4.0
94.943	2.0
94.958	7.0
94.973	5.0
94.987	1.0
95.002	3.0
95.017	5.0
95.032	2.0
95.047	4.0
95.062	4.0
95.077	3.0
95.092	5.0
95.106	2.0
95.121	7.0
95.136	5.0
95.151	5.0
95.166	4.0
95.181	5.0
95.196	4.0
95.211	3.0
95.226	2.0
95.24	6.0
95.255	4.0
95.27	4.0
95.285	7.0
95.3	3.0
95.315	3.0
95.33	2.0
95.345	9.0
95.359	2.0
95.374	1.0
95.389	3.0
95.404	3.0
95.419	2.0
95.434	3.0
95.449	5.0
95.464	4.0
95.478	2.0
95.493	4.0
95.508	4.0
95.523	2.0
95.538	3.0
95.553	4.0
95.568	1.0
95.583	5.0
95.597	8.0
95.612	4.0
95.627	3.0
95.642	2.0
95.657	4.0
95.672	3.0
95.687	4.0
95.702	3.0
95.717	4.0
95.731	11.0
95.746	5.0
95.761	3.0
95.776	3.0
95.791	4.0
95.806	0.0
95.821	3.0
95.836	1.0
95.851	3.0
95.866	2.0
95.88	3.0
95.895	5.0
95.91	4.0
95.925	5.0
95.94	1.0
95.955	5.0
95.97	5.0
95.985	8.0
96.0	6.0
96.015	3.0
96.029	6.0
96.044	4.0
96.059	3.0
96.074	0.0
96.089	5.0
96.104	2.0
96.119	4.0
96.134	8.0
96.149	1.0
96.164	4.0
96.179	3.0
96.194	2.0
96.208	3.0
96.223	4.0
96.238	0.0
96.253	6.0
96.268	0.0
96.283	1.0
96.298	4.0
96.313	1.0
96.328	3.0
96.343	4.0
96.358	1.0
96.373	1.0
96.388	4.0
96.403	2.0
96.417	4.0
96.432	2.0
96.447	3.0
96.462	1.0
96.477	2.0
96.492	0.0
96.507	3.0
96.522	3.0
96.537	1.0
96.552	1.0
96.567	3.0
96.582	2.0
96.597	3.0
96.612	5.0
96.627	2.0
96.642	3.0
96.656	4.0
96.671	1.0
96.686	4.0
96.701	6.0
96.716	0.0
96.731	3.0
96.746	3.0
96.761	2.0
96.776	1.0
96.791	4.0
96.806	2.0
96.821	5.0
96.836	6.0
96.851	8.0
96.866	4.0
96.881	3.0
96.896	3.0
96.911	8.0
96.926	4.0
96.94	4.0
96.955	3.0
96.97	1.0
96.985	4.0
97.0	6.0
97.015	6.0
97.03	7.0
97.045	3.0
97.06	6.0
97.075	4.0
97.09	2.0
97.105	6.0
97.12	4.0
97.135	5.0
97.15	2.0
97.165	4.0
97.18	2.0
97.195	1.0
97.21	4.0
97.225	4.0
97.239	3.0
97.254	4.0
97.269	2.0
97.284	4.0
97.299	2.0
97.314	5.0
97.329	3.0
97.344	2.0
97.359	4.0
97.374	3.0
97.389	1.0
97.404	4.0
97.419	1.0
97.434	3.0
97.449	3.0
97.464	1.0
97.479	2.0
97.494	1.0
97.509	4.0
97.524	5.0
97.538	5.0
97.553	3.0
97.568	1.0
97.583	1.0
97.598	4.0
97.613	2.0
97.628	2.0
97.643	6.0
97.658	4.0
97.673	5.0
97.688	1.0
97.703	5.0
97.718	0.0
97.733	2.0
97.748	1.0
97.763	1.0
97.778	7.0
97.792	4.0
97.807	3.0
97.822	1.0
97.837	4.0
97.852	3.0
97.867	2.0
97.882	5.0
97.897	5.0
97.912	1.0
97.927	3.0
97.942	5.0
97.957	4.0
97.972	4.0
97.987	2.0
98.001	5.0
98.016	1.0
98.031	3.0
98.046	2.0
98.061	4.0
98.076	4.0
98.091	4.0
98.106	3.0
98.121	1.0
98.136	3.0
98.151	2.0
98.166	0.0
98.181	3.0
98.195	4.0
98.21	1.0
98.225	3.0
98.24	2.0
98.255	3.0
98.27	5.0
98.285	4.0
98.3	2.0
98.315	2.0
98.33	3.0
98.345	5.0
98.359	7.0
98.374	2.0
98.389	5.0
98.404	4.0
98.419	2.0
98.434	3.0
98.449	4.0
98.464	3.0
98.479	3.0
98.494	2.0
98.508	5.0
98.523	4.0
98.538	3.0
98.553	3.0
98.568	5.0
98.583	2.0
98.598	2.0
98.613	0.0
98.628	3.0
98.642	1.0
98.657	4.0
98.672	3.0
98.687	1.0
98.702	3.0
98.717	4.0
98.732	3.0
98.747	4.0
98.762	1.0
98.776	7.0
98.791	5.0
98.806	4.0
98.821	3.0
98.836	1.0
98.851	3.0
98.866	7.0
98.881	3.0
98.896	3.0
98.91	3.0
98.925	2.0
98.94	2.0
98.955	1.0
98.97	2.0
98.985	2.0
99.0	1.0
99.015	7.0
99.029	4.0
99.044	3.0
99.059	4.0
99.074	3.0
99.089	1.0
99.104	2.0
99.119	5.0
99.133	5.0
99.148	2.0
99.163	3.0
99.178	2.0
99.193	5.0
99.208	1.0
99.223	4.0
99.238	1.0
99.252	5.0
99.267	1.0
99.282	4.0
99.297	2.0
99.312	3.0
99.327	2.0
99.342	6.0
99.356	1.0
99.371	0.0
99.386	9.0
99.401	4.0
99.416	2.0
99.431	2.0
99.446	5.0
99.461	4.0
99.475	3.0
99.49	4.0
99.505	3.0
99.52	7.0
99.535	3.0
99.55	4.0
99.565	3.0
99.579	3.0
99.594	1.0
99.609	2.0
99.624	3.0
99.639	2.0
99.654	5.0
99.669	2.0
99.683	5.0
99.698	1.0
99.713	2.0
99.728	3.0
99.743	1.0
99.758	1.0
99.772	2.0
99.787	1.0
99.802	5.0
99.817	2.0
99.832	3.0
99.847	8.0
99.862	1.0
99.876	1.0
99.891	6.0
99.906	1.0
99.921	8.0
99.936	1.0
99.951	6.0
99.966	3.0
99.98	2.0
99.995	4.0
100.01	5.0
100.025	2.0
100.04	3.0
100.055	2.0
100.069	3.0
100.084	2.0
100.099	1.0
100.114	2.0
100.129	9.0
100.144	1.0
100.159	3.0
100.173	3.0
100.188	4.0
100.203	6.0
100.218	3.0
100.233	4.0
100.248	3.0
100.262	6.0
100.277	7.0
100.292	2.0
100.307	4.0
100.322	5.0
100.337	5.0
100.351	3.0
100.366	2.0
100.381	4.0
100.396	4.0
100.411	2.0
100.426	2.0
100.441	2.0
100.455	3.0
100.47	1.0
100.485	3.0
100.5	0.0
100.515	4.0
100.53	4.0
100.544	4.0
100.559	2.0
100.574	2.0
100.589	5.0
100.604	4.0
100.619	3.0
100.633	1.0
100.648	4.0
100.663	2.0
100.678	4.0
100.693	2.0
100.708	0.0
100.722	0.0
100.737	5.0
100.752	2.0
100.767	1.0
100.782	4.0
100.796	7.0
100.811	2.0
100.826	4.0
100.841	3.0
100.856	9.0
100.871	4.0
100.885	3.0
100.9	3.0
100.915	3.0
100.93	3.0
100.945	2.0
100.96	3.0
100.974	1.0
100.989	4.0
101.004	3.0
101.019	2.0
101.034	3.0
101.048	4.0
101.063	2.0
101.078	4.0
101.093	3.0
101.108	6.0
101.123	9.0
101.137	6.0
101.152	5.0
101.167	2.0
101.182	6.0
101.197	2.0
101.211	3.0
101.226	2.0
101.241	3.0
101.256	5.0
101.271	2.0
101.285	6.0
101.3	6.0
101.315	2.0
101.33	3.0
101.345	3.0
101.359	2.0
101.374	5.0
101.389	6.0
101.404	3.0
101.419	1.0
101.433	3.0
101.448	6.0
101.463	6.0
101.478	4.0
101.493	2.0
101.507	2.0
101.522	7.0
101.537	1.0
101.552	2.0
101.567	5.0
101.581	4.0
101.596	1.0
101.611	1.0
101.626	4.0
101.64	1.0
101.655	2.0
101.67	1.0
101.685	1.0
101.7	4.0
101.714	4.0
101.729	5.0
101.744	2.0
101.759	4.0
101.773	1.0
101.788	3.0
101.803	7.0
101.818	2.0
101.833	6.0
101.847	4.0
101.862	3.0
101.877	2.0
101.892	4.0
101.906	3.0
101.921	5.0
101.936	1.0
101.951	4.0
101.965	2.0
101.98	3.0
101.995	3.0
102.01	2.0
102.025	6.0
102.039	3.0
102.054	4.0
102.069	6.0
102.084	0.0
102.098	7.0
102.113	1.0
102.128	2.0
102.143	5.0
102.157	5.0
102.172	5.0
102.187	3.0
102.202	5.0
102.216	5.0
102.231	4.0
102.246	5.0
102.261	2.0
102.275	3.0
102.29	1.0
102.305	4.0
102.32	1.0
102.334	3.0
102.349	1.0
102.364	4.0
102.378	1.0
102.393	4.0
102.408	4.0
102.423	2.0
102.437	2.0
102.452	5.0
102.467	6.0
102.482	2.0
102.496	2.0
102.511	3.0
102.526	4.0
102.541	2.0
102.555	4.0
102.57	5.0
102.585	3.0
102.6	1.0
102.614	3.0
102.629	2.0
102.644	4.0
102.659	0.0
102.673	4.0
102.688	3.0
102.703	5.0
102.717	2.0
102.732	7.0
102.747	7.0
102.762	4.0
102.776	4.0
102.791	3.0
102.806	10.0
102.821	4.0
102.835	2.0
102.85	1.0
102.865	3.0
102.88	2.0
102.894	2.0
102.909	1.0
102.924	3.0
102.938	2.0
102.953	4.0
102.968	4.0
102.983	6.0
102.997	2.0
103.012	3.0
103.027	6.0
103.042	3.0
103.056	6.0
103.071	3.0
103.086	2.0
103.101	1.0
103.115	2.0
103.13	2.0
103.145	1.0
103.16	4.0
103.174	0.0
103.189	3.0
103.204	3.0
103.219	3.0
103.233	2.0
103.248	5.0
103.263	3.0
103.278	2.0
103.292	2.0
103.307	6.0
103.322	7.0
103.337	3.0
103.351	4.0
103.366	5.0
103.381	6.0
103.396	4.0
103.41	3.0
103.425	3.0
103.44	5.0
103.455	4.0
103.469	2.0
103.484	4.0
103.499	2.0
103.514	1.0
103.529	4.0
103.543	6.0
103.558	3.0
103.573	3.0
103.588	0.0
103.602	4.0
103.617	0.0
103.632	3.0
103.647	4.0
103.661	3.0
103.676	2.0
103.691	3.0
103.706	3.0
103.721	2.0
103.735	3.0
103.75	2.0
103.765	1.0
103.78	4.0
103.795	4.0
103.809	4.0
103.824	5.0
103.839	5.0
103.854	6.0
103.869	6.0
103.883	4.0
103.898	5.0
103.913	1.0
103.928	4.0
103.943	0.0
103.957	4.0
103.972	3.0
103.987	4.0
104.002	6.0
104.017	1.0
104.031	1.0
104.046	2.0
104.061	3.0
104.076	5.0
104.091	2.0
104.106	6.0
104.12	3.0
104.135	4.0
104.15	0.0
104.165	1.0
104.18	3.0
104.195	4.0
104.209	1.0
104.224	1.0
104.239	3.0
104.254	3.0
104.269	3.0
104.284	1.0
104.299	1.0
104.313	4.0
104.328	1.0
104.343	6.0
104.358	5.0
104.373	2.0
104.388	3.0
104.403	2.0
104.417	1.0
104.432	5.0
104.447	4.0
104.462	6.0
104.477	0.0
104.492	2.0
104.507	2.0
104.522	3.0
104.536	5.0
104.551	6.0
104.566	1.0
104.581	6.0
104.596	1.0
104.611	8.0
104.626	1.0
104.641	5.0
104.656	4.0
104.67	6.0
104.685	5.0
104.7	2.0
104.715	5.0
104.73	3.0
104.745	7.0
104.76	6.0
104.775	1.0
104.79	3.0
104.804	2.0
104.819	5.0
104.834	5.0
104.849	3.0
104.864	1.0
104.879	5.0
104.894	2.0
104.909	2.0
104.924	4.0
104.939	2.0
104.954	5.0
104.968	5.0
104.983	1.0
104.998	2.0
105.013	5.0
105.028	1.0
105.043	2.0
105.058	1.0
105.073	5.0
105.088	1.0
105.103	3.0
105.118	4.0
105.133	3.0
105.147	2.0
105.162	3.0
105.177	3.0
105.192	4.0
105.207	5.0
105.222	7.0
105.237	0.0
105.252	1.0
105.267	2.0
105.282	4.0
105.297	2.0
105.312	3.0
105.327	0.0
105.342	2.0
105.356	2.0
105.371	4.0
105.386	4.0
105.401	0.0
105.416	2.0
105.431	2.0
105.446	5.0
105.461	5.0
105.476	4.0
105.491	5.0
105.506	4.0
105.521	6.0
105.536	5.0
105.551	9.0
105.566	4.0
105.581	2.0
105.595	3.0
105.61	6.0
105.625	4.0
105.64	4.0
105.655	7.0
105.67	3.0
105.685	2.0
105.7	4.0
105.715	2.0
105.73	3.0
105.745	5.0
105.76	2.0
105.775	1.0
105.79	2.0
105.805	2.0
105.82	3.0
105.835	5.0
105.85	3.0
105.864	5.0
105.879	3.0
105.894	0.0
105.909	2.0
105.924	0.0
105.939	1.0
105.954	4.0
105.969	3.0
105.984	1.0
105.999	10.0
106.014	1.0
106.029	5.0
106.044	5.0
106.059	6.0
106.074	3.0
106.089	2.0
106.104	3.0
106.119	4.0
106.134	2.0
106.148	4.0
106.163	3.0
106.178	1.0
106.193	2.0
106.208	4.0
106.223	5.0
106.238	2.0
106.253	3.0
106.268	7.0
106.283	1.0
106.298	7.0
106.313	1.0
106.328	9.0
106.343	2.0
106.358	5.0
106.373	1.0
106.388	3.0
106.403	2.0
106.418	4.0
106.432	2.0
106.447	4.0
106.462	6.0
106.477	8.0
106.492	1.0
106.507	3.0
106.522	6.0
106.537	6.0
106.552	4.0
106.567	3.0
106.582	5.0
106.597	2.0
106.612	4.0
106.627	1.0
106.642	3.0
106.657	3.0
106.672	3.0
106.687	5.0
106.701	5.0
106.716	3.0
106.731	2.0
106.746	3.0
106.761	4.0
106.776	8.0
106.791	3.0
106.806	3.0
106.821	3.0
106.836	1.0
106.851	2.0
106.866	4.0
106.881	3.0
106.896	2.0
106.911	5.0
106.926	3.0
106.941	5.0
106.955	4.0
106.97	4.0
106.985	1.0
107.0	3.0
107.015	4.0
107.03	6.0
107.045	2.0
107.06	3.0
107.075	4.0
107.09	3.0
107.105	1.0
107.12	6.0
107.135	4.0
107.15	6.0
107.165	3.0
107.18	7.0
107.194	5.0
107.209	6.0
107.224	5.0
107.239	4.0
107.254	2.0
107.269	5.0
107.284	3.0
107.299	3.0
107.314	2.0
107.329	2.0
107.344	5.0
107.359	3.0
107.374	5.0
107.389	2.0
107.404	3.0
107.418	1.0
107.433	3.0
107.448	2.0
107.463	0.0
107.478	2.0
107.493	5.0
107.508	3.0
107.523	6.0
107.538	4.0
107.553	4.0
107.568	6.0
107.583	3.0
107.598	5.0
107.613	3.0
107.627	6.0
107.642	3.0
107.657	5.0
107.672	1.0
107.687	3.0
107.702	2.0
107.717	3.0
107.732	3.0
107.747	2.0
107.762	2.0
107.777	4.0
107.792	4.0
107.807	3.0
107.821	3.0
107.836	0.0
107.851	0.0
107.866	2.0
107.881	1.0
107.896	6.0
107.911	2.0
107.926	5.0
107.941	4.0
107.956	5.0
107.971	5.0
107.986	1.0
108.0	5.0
108.015	7.0
108.03	1.0
108.045	5.0
108.06	3.0
108.075	5.0
108.09	3.0
108.105	5.0
108.12	6.0
108.135	8.0
108.15	4.0
108.164	4.0
108.179	5.0
108.194	3.0
108.209	2.0
108.224	5.0
108.239	2.0
108.254	6.0
108.269	3.0
108.284	0.0
108.299	2.0
108.313	2.0
108.328	1.0
108.343	7.0
108.358	2.0
108.373	3.0
108.388	2.0
108.403	1.0
108.418	5.0
108.433	3.0
108.448	5.0
108.462	1.0
108.477	5.0
108.492	5.0
108.507	5.0
108.522	3.0
108.537	1.0
108.552	1.0
108.567	1.0
108.582	2.0
108.597	2.0
108.611	3.0
108.626	4.0
108.641	4.0
108.656	4.0
108.671	3.0
108.686	6.0
108.701	4.0
108.716	3.0
108.731	4.0
108.745	1.0
108.76	3.0
108.775	3.0
108.79	3.0
108.805	4.0
108.82	3.0
108.835	2.0
108.85	4.0
108.865	2.0
108.879	5.0
108.894	0.0
108.909	5.0
108.924	2.0
108.939	5.0
108.954	5.0
108.969	2.0
108.984	3.0
108.999	5.0
109.013	3.0
109.028	6.0
109.043	4.0
109.058	5.0
109.073	1.0
109.088	4.0
109.103	3.0
109.118	3.0
109.133	5.0
109.147	5.0
109.162	3.0
109.177	3.0
109.192	3.0
109.207	2.0
109.222	3.0
109.237	3.0
109.252	4.0
109.267	4.0
109.281	3.0
109.296	0.0
109.311	4.0
109.326	2.0
109.341	3.0
109.356	2.0
109.371	1.0
109.386	1.0
109.4	3.0
109.415	1.0
109.43	5.0
109.445	3.0
109.46	1.0
109.475	2.0
109.49	3.0
109.505	3.0
109.52	3.0
109.534	2.0
109.549	2.0
109.564	4.0
109.579	2.0
109.594	1.0
109.609	4.0
109.624	1.0
109.639	2.0
109.653	3.0
109.668	2.0
109.683	1.0
109.698	4.0
109.713	3.0
109.728	3.0
109.743	3.0
109.758	9.0
109.773	2.0
109.787	4.0
109.802	1.0
109.817	3.0
109.832	2.0
109.847	2.0
109.862	3.0
109.877	5.0
109.892	3.0
109.907	4.0
109.921	2.0
109.936	3.0
109.951	1.0
109.966	3.0
109.981	0.0
109.996	1.0
110.011	4.0
110.026	6.0
110.04	1.0
110.055	2.0
110.07	4.0
110.085	5.0
110.1	4.0
110.115	1.0
110.13	1.0
110.145	4.0
110.16	3.0
110.174	5.0
110.189	2.0
110.204	1.0
110.219	1.0
110.234	5.0
110.249	1.0
110.264	4.0
110.279	2.0
110.294	5.0
110.308	2.0
110.323	2.0
110.338	4.0
110.353	0.0
110.368	1.0
110.383	5.0
110.398	5.0
110.413	3.0
110.428	1.0
110.442	3.0
110.457	2.0
110.472	4.0
110.487	2.0
110.502	3.0
110.517	4.0
110.532	1.0
110.547	5.0
110.561	9.0
110.576	3.0
110.591	2.0
110.606	2.0
110.621	5.0
110.636	2.0
110.651	2.0
110.666	3.0
110.681	3.0
110.695	1.0
110.71	5.0
110.725	7.0
110.74	3.0
110.755	1.0
110.77	5.0
110.785	3.0
110.8	1.0
110.815	3.0
110.829	3.0
110.844	5.0
110.859	3.0
110.874	7.0
110.889	2.0
110.904	2.0
110.919	0.0
110.934	1.0
110.948	3.0
110.963	3.0
110.978	3.0
110.993	3.0
111.008	1.0
111.023	4.0
111.038	4.0
111.053	2.0
111.067	4.0
111.082	0.0
111.097	3.0
111.112	3.0
111.127	6.0
111.142	1.0
111.157	5.0
111.172	3.0
111.186	5.0
111.201	3.0
111.216	3.0
111.231	7.0
111.246	2.0
111.261	2.0
111.276	2.0
111.291	3.0
111.305	6.0
111.32	1.0
111.335	4.0
111.35	4.0
111.365	2.0
111.38	1.0
111.395	5.0
111.41	1.0
111.424	5.0
111.439	6.0
111.454	6.0
111.469	2.0
111.484	5.0
111.499	3.0
111.514	7.0
111.528	4.0
111.543	3.0
111.558	8.0
111.573	5.0
111.588	6.0
111.603	4.0
111.618	1.0
111.633	1.0
111.647	8.0
111.662	3.0
111.677	4.0
111.692	1.0
111.707	4.0
111.722	4.0
111.737	2.0
111.751	4.0
111.766	5.0
111.781	4.0
111.796	6.0
111.811	4.0
111.826	2.0
111.84	4.0
111.855	1.0
111.87	5.0
111.885	1.0
111.9	3.0
111.915	6.0
111.93	3.0
111.944	3.0
111.959	4.0
111.974	4.0
111.989	3.0
112.004	4.0
112.019	6.0
112.033	7.0
112.048	3.0
112.063	3.0
112.078	0.0
112.093	5.0
112.108	6.0
112.123	2.0
112.137	2.0
112.152	1.0
112.167	4.0
112.182	1.0
112.197	4.0
112.212	0.0
112.226	6.0
112.241	7.0
112.256	4.0
112.271	1.0
112.286	3.0
112.301	6.0
112.315	4.0
112.33	7.0
112.345	5.0
112.36	1.0
112.375	4.0
112.389	7.0
112.404	4.0
112.419	3.0
112.434	1.0
112.449	3.0
112.464	1.0
112.478	5.0
112.493	5.0
112.508	2.0
112.523	5.0
112.538	0.0
112.553	2.0
112.567	5.0
112.582	4.0
112.597	2.0
112.612	3.0
112.627	3.0
112.642	5.0
112.656	1.0
112.671	8.0
112.686	4.0
112.701	1.0
112.716	6.0
112.73	3.0
112.745	7.0
112.76	1.0
112.775	2.0
112.79	5.0
112.805	4.0
112.819	3.0
112.834	6.0
112.849	2.0
112.864	2.0
112.879	5.0
112.894	7.0
112.908	5.0
112.923	5.0
112.938	1.0
112.953	7.0
112.968	3.0
112.983	0.0
112.997	5.0
113.012	3.0
113.027	2.0
113.042	3.0
113.057	1.0
113.072	1.0
113.086	2.0
113.101	3.0
113.116	3.0
113.131	5.0
113.146	1.0
113.161	5.0
113.175	3.0
113.19	4.0
113.205	3.0
113.22	3.0
113.235	1.0
113.25	4.0
113.265	4.0
113.279	4.0
113.294	3.0
113.309	3.0
113.324	3.0
113.339	3.0
113.354	5.0
113.368	1.0
113.383	3.0
113.398	1.0
113.413	7.0
113.428	2.0
113.443	4.0
113.458	3.0
113.472	5.0
113.487	4.0
113.502	4.0
113.517	5.0
113.532	5.0
113.547	2.0
113.562	5.0
113.576	1.0
113.591	4.0
113.606	1.0
113.621	2.0
113.636	6.0
113.651	3.0
113.666	4.0
113.681	7.0
113.695	7.0
113.71	3.0
113.725	4.0
113.74	3.0
113.755	5.0
113.77	7.0
113.785	6.0
113.8	2.0
113.814	3.0
113.829	3.0
113.844	3.0
113.859	2.0
113.874	2.0
113.889	6.0
113.904	4.0
113.919	10.0
113.934	3.0
113.949	2.0
113.963	4.0
113.978	2.0
113.993	5.0
114.008	5.0
114.023	1.0
114.038	5.0
114.053	3.0
114.068	3.0
114.083	3.0
114.098	3.0
114.113	5.0
114.127	2.0
114.142	5.0
114.157	3.0
114.172	2.0
114.187	2.0
114.202	7.0
114.217	5.0
114.232	3.0
114.247	6.0
114.262	3.0
114.277	2.0
114.292	3.0
114.307	5.0
114.322	1.0
114.337	1.0
114.351	4.0
114.366	3.0
114.381	5.0
114.396	3.0
114.411	4.0
114.426	3.0
114.441	2.0
114.456	4.0
114.471	1.0
114.486	3.0
114.501	6.0
114.516	3.0
114.531	3.0
114.546	4.0
114.561	1.0
114.576	2.0
114.591	1.0
114.606	4.0
114.621	3.0
114.636	4.0
114.65	3.0
114.665	5.0
114.68	3.0
114.695	2.0
114.71	1.0
114.725	6.0
114.74	4.0
114.755	1.0
114.77	8.0
114.785	2.0
114.8	8.0
114.815	2.0
114.83	7.0
114.845	2.0
114.86	5.0
114.875	4.0
114.89	2.0
114.905	3.0
114.92	3.0
114.935	2.0
114.95	2.0
114.965	3.0
114.98	3.0
114.995	3.0
115.009	2.0
115.024	3.0
115.039	4.0
115.054	3.0
115.069	4.0
115.084	6.0
115.099	3.0
115.114	9.0
115.129	7.0
115.144	2.0
115.159	5.0
115.174	5.0
115.189	7.0
115.204	5.0
115.219	7.0
115.234	2.0
115.249	6.0
115.264	1.0
115.279	5.0
115.294	1.0
115.309	2.0
115.323	9.0
115.338	5.0
115.353	3.0
115.368	3.0
115.383	0.0
115.398	2.0
115.413	5.0
115.428	5.0
115.443	1.0
115.458	3.0
115.473	3.0
115.488	6.0
115.503	3.0
115.518	4.0
115.533	4.0
115.548	0.0
115.562	5.0
115.577	4.0
115.592	4.0
115.607	3.0
115.622	6.0
115.637	1.0
115.652	3.0
115.667	5.0
115.682	3.0
115.697	5.0
115.712	4.0
115.727	5.0
115.741	2.0
115.756	2.0
115.771	2.0
115.786	7.0
115.801	2.0
115.816	6.0
115.831	2.0
115.846	3.0
115.861	4.0
115.875	3.0
115.89	2.0
115.905	3.0
115.92	3.0
115.935	4.0
115.95	3.0
115.965	3.0
115.98	5.0
115.995	7.0
116.009	4.0
116.024	5.0
116.039	0.0
116.054	4.0
116.069	8.0
116.084	2.0
116.099	3.0
116.113	3.0
116.128	3.0
116.143	5.0
116.158	2.0
116.173	4.0
116.188	1.0
116.202	1.0
116.217	2.0
116.232	2.0
116.247	6.0
116.262	3.0
116.277	9.0
116.291	2.0
116.306	5.0
116.321	6.0
116.336	12.0
116.351	5.0
116.366	6.0
116.38	4.0
116.395	1.0
116.41	1.0
116.425	3.0
116.44	2.0
116.454	2.0
116.469	4.0
116.484	3.0
116.499	4.0
116.514	3.0
116.528	4.0
116.543	5.0
116.558	4.0
116.573	2.0
116.588	5.0
116.602	2.0
116.617	3.0
116.632	4.0
116.647	4.0
116.662	5.0
116.676	4.0
116.691	1.0
116.706	5.0
116.721	1.0
116.735	1.0
116.75	3.0
116.765	7.0
116.78	6.0
116.795	5.0
116.809	3.0
116.824	2.0
116.839	4.0
116.854	5.0
116.868	6.0
116.883	6.0
116.898	3.0
116.913	7.0
116.927	6.0
116.942	1.0
116.957	7.0
116.972	2.0
116.986	8.0
117.001	4.0
117.016	4.0
117.031	4.0
117.045	3.0
117.06	2.0
117.075	2.0
117.09	2.0
117.104	1.0
117.119	2.0
117.134	7.0
117.149	4.0
117.163	2.0
117.178	5.0
117.193	2.0
117.208	8.0
117.222	6.0
117.237	2.0
117.252	7.0
117.267	2.0
117.281	5.0
117.296	5.0
117.311	3.0
117.325	5.0
117.34	3.0
117.355	5.0
117.37	7.0
117.384	2.0
117.399	1.0
117.414	5.0
117.429	2.0
117.443	3.0
117.458	4.0
117.473	4.0
117.487	9.0
117.502	7.0
117.517	4.0
117.532	4.0
117.546	4.0
117.561	4.0
117.576	4.0
117.59	4.0
117.605	5.0
117.62	8.0
117.635	4.0
117.649	4.0
117.664	4.0
117.679	1.0
117.693	3.0
117.708	9.0
117.723	6.0
117.738	2.0
117.752	3.0
117.767	1.0
117.782	4.0
117.796	10.0
117.811	2.0
117.826	2.0
117.841	4.0
117.855	2.0
117.87	8.0
117.885	1.0
117.899	6.0
117.914	2.0
117.929	1.0
117.944	3.0
117.958	4.0
117.973	5.0
117.988	4.0
118.002	6.0
118.017	7.0
118.032	3.0
118.047	5.0
118.062	5.0
118.077	4.0
118.092	3.0
118.107	3.0
118.121	3.0
118.136	5.0
118.151	2.0
118.166	4.0
118.181	1.0
118.196	9.0
118.211	6.0
118.225	4.0
118.24	1.0
118.255	2.0
118.27	3.0
118.285	4.0
118.3	5.0
118.315	2.0
118.33	2.0
118.344	4.0
118.359	3.0
118.374	7.0
118.389	7.0
118.404	2.0
118.419	2.0
118.434	2.0
118.449	4.0
118.463	2.0
118.478	5.0
118.493	5.0
118.508	6.0
118.523	2.0
118.538	3.0
118.553	7.0
118.567	4.0
118.582	2.0
118.597	4.0
118.612	1.0
118.627	2.0
118.642	3.0
118.657	7.0
118.672	6.0
118.686	2.0
118.701	3.0
118.716	3.0
118.731	5.0
118.746	1.0
118.761	3.0
118.776	6.0
118.791	8.0
118.805	3.0
118.82	6.0
118.835	3.0
118.85	0.0
118.865	4.0
118.88	0.0
118.895	5.0
118.909	1.0
118.924	1.0
118.939	6.0
118.954	2.0
118.969	4.0
118.984	8.0
118.999	4.0
119.014	5.0
119.028	4.0
119.043	1.0
119.058	1.0
119.073	2.0
119.088	6.0
119.103	2.0
119.118	4.0
119.133	3.0
119.147	1.0
119.162	1.0
119.177	1.0
119.192	5.0
119.207	2.0
119.222	4.0
119.237	10.0
119.251	4.0
119.266	3.0
119.281	3.0
119.296	4.0
119.311	4.0
119.326	4.0
119.341	6.0
119.356	3.0
119.37	2.0
119.385	5.0
119.4	7.0
119.415	4.0
119.43	1.0
119.445	2.0
119.46	6.0
119.475	2.0
119.489	4.0
119.504	4.0
119.519	4.0
119.534	4.0
119.549	3.0
119.564	2.0
119.579	3.0
119.593	2.0
119.608	2.0
119.623	3.0
119.638	1.0
119.653	4.0
119.668	4.0
119.683	2.0
119.698	6.0
119.712	5.0
119.727	4.0
119.742	4.0
119.757	2.0
119.772	5.0
119.787	2.0
119.802	5.0
119.817	2.0
119.831	3.0
119.846	3.0
119.861	3.0
119.876	1.0
119.891	3.0
119.906	4.0
119.921	3.0
119.935	3.0
119.95	6.0
119.965	3.0
119.98	4.0
119.995	5.0
120.01	2.0
120.025	2.0
120.04	2.0
120.054	2.0
120.069	5.0
120.084	3.0
120.099	1.0
120.114	2.0
120.129	1.0
120.144	1.0
120.159	0.0
120.173	2.0
120.188	0.0
120.203	1.0
120.218	1.0
120.233	1.0
120.248	3.0
120.263	0.0
120.277	3.0
120.292	1.0
120.307	1.0
120.322	1.0
120.337	0.0
120.352	0.0
120.367	1.0
120.382	0.0
120.396	0.0
120.411	0.0
120.426	0.0
120.441	0.0
120.456	0.0
120.471	0.0
120.486	0.0
120.501	0.0
120.515	0.0
120.53	0.0
120.545	0.0
120.56	0.0
120.575	0.0
120.59	0.0
120.605	0.0
120.619	0.0
120.634	0.0
120.649	0.0
120.664	0.0
120.679	0.0
120.694	0.0
120.709	0.0
120.724	0.0
120.738	0.0
120.753	0.0
120.768	0.0
120.783	0.0
120.798	0.0
120.813	0.0
120.828	0.0
120.843	0.0
120.857	0.0
120.872	1.0
120.887	0.0
120.902	0.0
120.917	0.0
120.932	1.0
120.947	0.0
120.961	0.0
120.976	0.0
