-1.217	0.0
-1.202	0.0
-1.187	1.0
-1.172	0.0
-1.157	0.0
-1.142	0.0
-1.128	0.0
-1.113	0.0
-1.098	0.0
-1.083	0.0
-1.068	0.0
-1.054	0.0
-1.039	0.0
-1.024	0.0
-1.009	0.0
-0.994	0.0
-0.979	0.0
-0.965	0.0
-0.95	0.0
-0.935	0.0
-0.92	0.0
-0.905	0.0
-0.891	0.0
-0.876	0.0
-0.861	0.0
-0.846	0.0
-0.831	0.0
-0.816	0.0
-0.802	0.0
-0.787	0.0
-0.772	0.0
-0.757	0.0
-0.742	0.0
-0.728	0.0
-0.713	0.0
-0.698	0.0
-0.683	0.0
-0.668	0.0
-0.653	0.0
-0.639	0.0
-0.624	0.0
-0.609	0.0
-0.594	0.0
-0.579	0.0
-0.565	0.0
-0.55	0.0
-0.535	1.0
-0.52	0.0
-0.505	0.0
-0.49	0.0
-0.476	0.0
-0.461	0.0
-0.446	0.0
-0.431	0.0
-0.416	0.0
-0.401	0.0
-0.387	0.0
-0.372	0.0
-0.357	2.0
-0.342	0.0
-0.327	0.0
-0.313	0.0
-0.298	0.0
-0.283	0.0
-0.268	0.0
-0.253	0.0
-0.238	0.0
-0.224	0.0
-0.209	0.0
-0.194	0.0
-0.179	0.0
-0.164	0.0
-0.15	0.0
-0.135	0.0
-0.12	0.0
-0.105	0.0
-0.09	1.0
-0.075	1.0
-0.061	0.0
-0.046	0.0
-0.031	0.0
-0.016	0.0
-0.001	0.0
0.013	0.0
0.028	0.0
0.043	0.0
0.058	0.0
0.073	0.0
0.088	0.0
0.102	0.0
0.117	0.0
0.132	0.0
0.147	0.0
0.162	0.0
0.176	0.0
0.191	0.0
0.206	0.0
0.221	0.0
0.236	0.0
0.251	0.0
0.265	0.0
0.28	0.0
0.295	0.0
0.31	0.0
0.325	0.0
0.339	0.0
0.354	0.0
0.369	0.0
0.384	0.0
0.399	0.0
0.414	0.0
0.428	0.0
0.443	0.0
0.458	0.0
0.473	0.0
0.488	0.0
0.502	0.0
0.517	0.0
0.532	0.0
0.547	0.0
0.562	0.0
0.577	0.0
0.591	0.0
0.606	0.0
0.621	0.0
0.636	0.0
0.651	0.0
0.665	0.0
0.68	0.0
0.695	0.0
0.71	0.0
0.725	0.0
0.74	0.0
0.754	0.0
0.769	0.0
0.784	0.0
0.799	0.0
0.814	0.0
0.828	0.0
0.843	0.0
0.858	0.0
0.873	0.0
0.888	0.0
0.903	0.0
0.917	0.0
0.932	0.0
0.947	0.0
0.962	0.0
0.977	0.0
0.991	0.0
1.006	0.0
1.021	0.0
1.036	0.0
1.051	0.0
1.065	0.0
1.08	0.0
1.095	1.0
1.11	0.0
1.125	0.0
1.14	0.0
1.154	0.0
1.169	0.0
1.184	0.0
1.199	0.0
1.214	0.0
1.228	0.0
1.243	0.0
1.258	0.0
1.273	1.0
1.288	1.0
1.302	0.0
1.317	0.0
1.332	0.0
1.347	0.0
1.362	0.0
1.376	0.0
1.391	0.0
1.406	0.0
1.421	0.0
1.436	0.0
1.45	0.0
1.465	0.0
1.48	0.0
1.495	0.0
1.51	0.0
1.524	0.0
1.539	0.0
1.554	0.0
1.569	0.0
1.584	0.0
1.598	0.0
1.613	0.0
1.628	0.0
1.643	0.0
1.658	0.0
1.672	0.0
1.687	0.0
1.702	0.0
1.717	0.0
1.732	0.0
1.746	0.0
1.761	0.0
1.776	0.0
1.791	0.0
1.806	0.0
1.82	0.0
1.835	0.0
1.85	0.0
1.865	0.0
1.88	0.0
1.894	0.0
1.909	1.0
1.924	0.0
1.939	0.0
1.954	0.0
1.968	0.0
1.983	0.0
1.998	0.0
2.013	0.0
2.028	0.0
2.042	1.0
2.057	0.0
2.072	0.0
2.087	0.0
2.101	0.0
2.116	0.0
2.131	0.0
2.146	0.0
2.161	0.0
2.175	0.0
2.19	0.0
2.205	0.0
2.22	1.0
2.235	0.0
2.249	0.0
2.264	1.0
2.279	0.0
2.294	0.0
2.308	0.0
2.323	2.0
2.338	0.0
2.353	1.0
2.368	1.0
2.382	2.0
2.397	1.0
2.412	0.0
2.427	2.0
2.442	1.0
2.456	3.0
2.471	1.0
2.486	1.0
2.501	1.0
2.515	1.0
2.53	0.0
2.545	2.0
2.56	1.0
2.575	4.0
2.589	6.0
2.604	1.0
2.619	4.0
2.634	2.0
2.649	1.0
2.663	1.0
2.678	3.0
2.693	3.0
2.708	3.0
2.722	3.0
2.737	3.0
2.752	2.0
2.767	3.0
2.782	2.0
2.796	3.0
2.811	3.0
2.826	1.0
2.841	2.0
2.856	1.0
2.87	1.0
2.885	0.0
2.9	5.0
2.915	0.0
2.93	1.0
2.944	4.0
2.959	3.0
2.974	7.0
2.989	1.0
3.004	4.0
3.018	5.0
3.033	3.0
3.048	9.0
3.063	2.0
3.078	7.0
3.092	4.0
3.107	2.0
3.122	1.0
3.137	6.0
3.152	4.0
3.166	1.0
3.181	3.0
3.196	4.0
3.211	6.0
3.226	7.0
3.24	5.0
3.255	6.0
3.27	2.0
3.285	3.0
3.3	3.0
3.315	4.0
3.329	7.0
3.344	2.0
3.359	6.0
3.374	10.0
3.389	2.0
3.403	5.0
3.418	2.0
3.433	4.0
3.448	7.0
3.463	6.0
3.478	5.0
3.492	6.0
3.507	3.0
3.522	4.0
3.537	6.0
3.552	3.0
3.567	3.0
3.581	9.0
3.596	7.0
3.611	4.0
3.626	1.0
3.641	5.0
3.656	2.0
3.671	6.0
3.685	9.0
3.7	7.0
3.715	5.0
3.73	4.0
3.745	5.0
3.76	8.0
3.775	5.0
3.789	6.0
3.804	6.0
3.819	3.0
3.834	3.0
3.849	3.0
3.864	7.0
3.879	9.0
3.894	4.0
3.908	5.0
3.923	3.0
3.938	3.0
3.953	10.0
3.968	6.0
3.983	5.0
3.998	4.0
4.013	6.0
4.027	6.0
4.042	14.0
4.057	1.0
4.072	5.0
4.087	2.0
4.102	2.0
4.117	5.0
4.132	3.0
4.147	8.0
4.162	3.0
4.176	8.0
4.191	3.0
4.206	7.0
4.221	5.0
4.236	2.0
4.251	11.0
4.266	8.0
4.281	8.0
4.296	9.0
4.311	9.0
4.326	6.0
4.341	5.0
4.356	5.0
4.37	5.0
4.385	8.0
4.4	6.0
4.415	8.0
4.43	5.0
4.445	12.0
4.46	3.0
4.475	7.0
4.49	4.0
4.505	8.0
4.52	8.0
4.535	7.0
4.55	6.0
4.565	8.0
4.58	9.0
4.595	4.0
4.61	5.0
4.625	13.0
4.639	3.0
4.654	12.0
4.669	6.0
4.684	12.0
4.699	10.0
4.714	3.0
4.729	8.0
4.744	7.0
4.759	5.0
4.774	6.0
4.789	8.0
4.804	13.0
4.819	10.0
4.834	8.0
4.849	3.0
4.864	11.0
4.879	6.0
4.894	7.0
4.909	2.0
4.924	6.0
4.939	3.0
4.954	7.0
4.969	8.0
4.984	9.0
4.999	5.0
5.014	7.0
5.029	10.0
5.044	6.0
5.059	9.0
5.074	8.0
5.089	7.0
5.104	5.0
5.119	6.0
5.134	5.0
5.149	4.0
5.164	9.0
5.179	5.0
5.194	7.0
5.209	5.0
5.224	8.0
5.239	8.0
5.254	4.0
5.269	4.0
5.284	10.0
5.299	11.0
5.314	6.0
5.329	6.0
5.344	4.0
5.359	8.0
5.374	8.0
5.389	9.0
5.404	3.0
5.419	6.0
5.434	10.0
5.449	7.0
5.464	12.0
5.479	13.0
5.494	4.0
5.509	13.0
5.524	9.0
5.539	12.0
5.554	9.0
5.569	3.0
5.584	7.0
5.599	8.0
5.614	5.0
5.629	4.0
5.644	10.0
5.659	11.0
5.674	11.0
5.689	10.0
5.704	7.0
5.719	12.0
5.734	6.0
5.749	8.0
5.764	2.0
5.779	7.0
5.794	12.0
5.809	1.0
5.824	6.0
5.839	12.0
5.854	12.0
5.869	9.0
5.884	6.0
5.899	8.0
5.914	11.0
5.929	8.0
5.944	10.0
5.959	3.0
5.974	10.0
5.989	7.0
6.004	8.0
6.019	8.0
6.034	6.0
6.049	8.0
6.064	9.0
6.079	7.0
6.094	7.0
6.109	9.0
6.124	8.0
6.139	10.0
6.154	6.0
6.169	6.0
6.184	9.0
6.199	13.0
6.214	5.0
6.229	4.0
6.244	6.0
6.259	13.0
6.274	8.0
6.289	7.0
6.304	8.0
6.319	8.0
6.334	8.0
6.349	12.0
6.364	5.0
6.379	10.0
6.394	8.0
6.409	9.0
6.424	11.0
6.439	8.0
6.454	8.0
6.469	17.0
6.484	6.0
6.499	6.0
6.514	6.0
6.529	14.0
6.544	5.0
6.559	10.0
6.574	7.0
6.589	15.0
6.604	4.0
6.619	6.0
6.634	7.0
6.649	9.0
6.664	8.0
6.679	14.0
6.694	9.0
6.709	5.0
6.724	12.0
6.739	9.0
6.754	5.0
6.769	8.0
6.784	6.0
6.799	12.0
6.814	8.0
6.829	7.0
6.844	11.0
6.859	8.0
6.873	9.0
6.888	10.0
6.903	7.0
6.918	12.0
6.933	9.0
6.948	6.0
6.963	4.0
6.978	9.0
6.993	8.0
7.008	6.0
7.023	5.0
7.038	7.0
7.053	14.0
7.068	11.0
7.083	12.0
7.098	4.0
7.113	10.0
7.128	9.0
7.143	7.0
7.157	8.0
7.172	8.0
7.187	5.0
7.202	12.0
7.217	12.0
7.232	3.0
7.247	10.0
7.262	11.0
7.277	8.0
7.292	10.0
7.307	3.0
7.322	4.0
7.336	8.0
7.351	4.0
7.366	8.0
7.381	12.0
7.396	9.0
7.411	4.0
7.426	16.0
7.441	8.0
7.456	8.0
7.471	11.0
7.485	9.0
7.5	9.0
7.515	4.0
7.53	9.0
7.545	13.0
7.56	9.0
7.575	6.0
7.59	6.0
7.604	9.0
7.619	6.0
7.634	11.0
7.649	7.0
7.664	9.0
7.679	9.0
7.693	10.0
7.708	11.0
7.723	9.0
7.738	10.0
7.753	6.0
7.768	6.0
7.783	5.0
7.797	9.0
7.812	7.0
7.827	12.0
7.842	5.0
7.857	9.0
7.871	10.0
7.886	10.0
7.901	8.0
7.916	5.0
7.931	5.0
7.945	9.0
7.96	8.0
7.975	7.0
7.99	11.0
8.005	11.0
8.019	9.0
8.034	12.0
8.049	12.0
8.064	6.0
8.078	6.0
8.093	10.0
8.108	7.0
8.123	6.0
8.137	4.0
8.152	9.0
8.167	4.0
8.182	7.0
8.196	9.0
8.211	6.0
8.226	6.0
8.241	6.0
8.255	6.0
8.27	7.0
8.285	6.0
8.3	9.0
8.314	6.0
8.329	9.0
8.344	7.0
8.358	10.0
8.373	5.0
8.388	7.0
8.403	5.0
8.417	10.0
8.432	8.0
8.447	11.0
8.461	4.0
8.476	8.0
8.491	10.0
8.505	7.0
8.52	11.0
8.535	6.0
8.55	11.0
8.564	8.0
8.579	1.0
8.594	8.0
8.608	6.0
8.623	17.0
8.638	10.0
8.652	8.0
8.667	13.0
8.682	15.0
8.696	9.0
8.711	6.0
8.726	9.0
8.74	8.0
8.755	7.0
8.77	7.0
8.784	5.0
8.799	5.0
8.814	6.0
8.828	7.0
8.843	6.0
8.858	5.0
8.872	4.0
8.887	7.0
8.902	7.0
8.916	5.0
8.931	13.0
8.946	9.0
8.96	9.0
8.975	6.0
8.99	7.0
9.004	7.0
9.019	11.0
9.034	5.0
9.048	6.0
9.063	6.0
9.077	6.0
9.092	5.0
9.107	9.0
9.121	10.0
9.136	7.0
9.151	13.0
9.165	7.0
9.18	5.0
9.195	5.0
9.209	7.0
9.224	11.0
9.239	5.0
9.253	5.0
9.268	11.0
9.283	14.0
9.297	8.0
9.312	7.0
9.327	10.0
9.341	7.0
9.356	9.0
9.371	6.0
9.385	7.0
9.4	10.0
9.415	8.0
9.429	8.0
9.444	10.0
9.458	7.0
9.473	8.0
9.488	9.0
9.502	10.0
9.517	5.0
9.532	2.0
9.546	11.0
9.561	5.0
9.576	5.0
9.59	7.0
9.605	7.0
9.62	7.0
9.635	9.0
9.649	11.0
9.664	6.0
9.679	9.0
9.693	8.0
9.708	4.0
9.723	8.0
9.737	5.0
9.752	11.0
9.767	8.0
9.781	4.0
9.796	7.0
9.811	2.0
9.825	7.0
9.84	5.0
9.855	8.0
9.87	6.0
9.884	9.0
9.899	9.0
9.914	3.0
9.928	7.0
9.943	8.0
9.958	5.0
9.973	7.0
9.987	5.0
10.002	7.0
10.017	11.0
10.031	10.0
10.046	10.0
10.061	9.0
10.076	9.0
10.09	6.0
10.105	6.0
10.12	8.0
10.135	11.0
10.149	8.0
10.164	12.0
10.179	17.0
10.194	9.0
10.208	5.0
10.223	5.0
10.238	10.0
10.253	10.0
10.267	10.0
10.282	4.0
10.297	4.0
10.312	8.0
10.326	7.0
10.341	3.0
10.356	8.0
10.371	5.0
10.386	9.0
10.4	8.0
10.415	9.0
10.43	3.0
10.445	9.0
10.46	15.0
10.474	4.0
10.489	11.0
10.504	9.0
10.519	6.0
10.533	8.0
10.548	10.0
10.563	8.0
10.578	5.0
10.593	6.0
10.608	10.0
10.622	8.0
10.637	4.0
10.652	4.0
10.667	4.0
10.682	8.0
10.696	5.0
10.711	7.0
10.726	8.0
10.741	5.0
10.756	4.0
10.771	4.0
10.785	7.0
10.8	11.0
10.815	6.0
10.83	11.0
10.845	4.0
10.86	11.0
10.874	11.0
10.889	12.0
10.904	4.0
10.919	8.0
10.934	11.0
10.949	10.0
10.963	11.0
10.978	7.0
10.993	7.0
11.008	8.0
11.023	6.0
11.038	7.0
11.053	10.0
11.067	3.0
11.082	5.0
11.097	8.0
11.112	11.0
11.127	10.0
11.142	7.0
11.157	9.0
11.172	8.0
11.186	10.0
11.201	7.0
11.216	10.0
11.231	7.0
11.246	6.0
11.261	12.0
11.276	8.0
11.291	8.0
11.305	9.0
11.32	5.0
11.335	9.0
11.35	9.0
11.365	7.0
11.38	6.0
11.395	11.0
11.41	8.0
11.424	11.0
11.439	9.0
11.454	5.0
11.469	8.0
11.484	8.0
11.499	13.0
11.514	7.0
11.529	5.0
11.544	3.0
11.558	7.0
11.573	6.0
11.588	5.0
11.603	8.0
11.618	10.0
11.633	6.0
11.648	5.0
11.663	6.0
11.678	5.0
11.693	12.0
11.707	11.0
11.722	7.0
11.737	8.0
11.752	8.0
11.767	9.0
11.782	12.0
11.797	12.0
11.812	7.0
11.827	8.0
11.842	6.0
11.856	7.0
11.871	7.0
11.886	9.0
11.901	8.0
11.916	8.0
11.931	6.0
11.946	12.0
11.961	10.0
11.976	9.0
11.991	10.0
12.006	11.0
12.02	6.0
12.035	7.0
12.05	9.0
12.065	5.0
12.08	7.0
12.095	7.0
12.11	6.0
12.125	8.0
12.14	10.0
12.155	5.0
12.17	8.0
12.184	12.0
12.199	8.0
12.214	9.0
12.229	8.0
12.244	8.0
12.259	8.0
12.274	21.0
12.289	10.0
12.304	6.0
12.319	13.0
12.334	6.0
12.348	11.0
12.363	9.0
12.378	10.0
12.393	20.0
12.408	11.0
12.423	11.0
12.438	7.0
12.453	17.0
12.468	19.0
12.483	14.0
12.498	14.0
12.513	14.0
12.527	16.0
12.542	8.0
12.557	12.0
12.572	14.0
12.587	12.0
12.602	15.0
12.617	13.0
12.632	13.0
12.647	11.0
12.662	10.0
12.677	8.0
12.692	8.0
12.707	19.0
12.721	16.0
12.736	13.0
12.751	11.0
12.766	11.0
12.781	13.0
12.796	10.0
12.811	15.0
12.826	9.0
12.841	17.0
12.856	9.0
12.871	13.0
12.886	13.0
12.9	14.0
12.915	16.0
12.93	17.0
12.945	7.0
12.96	9.0
12.975	20.0
12.99	11.0
13.005	11.0
13.02	12.0
13.035	14.0
13.05	17.0
13.065	20.0
13.08	19.0
13.094	16.0
13.109	13.0
13.124	20.0
13.139	10.0
13.154	14.0
13.169	22.0
13.184	11.0
13.199	13.0
13.214	15.0
13.229	15.0
13.244	16.0
13.259	27.0
13.274	19.0
13.288	15.0
13.303	15.0
13.318	20.0
13.333	23.0
13.348	25.0
13.363	15.0
13.378	21.0
13.393	25.0
13.408	20.0
13.423	21.0
13.438	27.0
13.453	27.0
13.468	28.0
13.482	32.0
13.497	30.0
13.512	45.0
13.527	38.0
13.542	37.0
13.557	51.0
13.572	40.0
13.587	42.0
13.602	52.0
13.617	56.0
13.632	65.0
13.647	57.0
13.662	74.0
13.677	71.0
13.691	80.0
13.706	93.0
13.721	106.0
13.736	108.0
13.751	106.0
13.766	88.0
13.781	109.0
13.796	118.0
13.811	114.0
13.826	129.0
13.841	123.0
13.856	122.0
13.871	112.0
13.885	111.0
13.9	87.0
13.915	89.0
13.93	76.0
13.945	48.0
13.96	45.0
13.975	48.0
13.99	33.0
14.005	22.0
14.02	42.0
14.035	29.0
14.05	23.0
14.065	23.0
14.08	20.0
14.094	21.0
14.109	19.0
14.124	26.0
14.139	27.0
14.154	25.0
14.169	21.0
14.184	24.0
14.199	21.0
14.214	14.0
14.229	19.0
14.244	16.0
14.259	22.0
14.274	20.0
14.288	22.0
14.303	16.0
14.318	21.0
14.333	21.0
14.348	15.0
14.363	9.0
14.378	17.0
14.393	12.0
14.408	21.0
14.423	21.0
14.438	18.0
14.453	21.0
14.468	18.0
14.482	19.0
14.497	25.0
14.512	20.0
14.527	17.0
14.542	17.0
14.557	17.0
14.572	13.0
14.587	14.0
14.602	13.0
14.617	14.0
14.632	14.0
14.647	14.0
14.661	25.0
14.676	16.0
14.691	19.0
14.706	11.0
14.721	24.0
14.736	18.0
14.751	17.0
14.766	12.0
14.781	13.0
14.796	18.0
14.811	16.0
14.826	16.0
14.84	10.0
14.855	20.0
14.87	15.0
14.885	15.0
14.9	12.0
14.915	19.0
14.93	13.0
14.945	15.0
14.96	12.0
14.975	21.0
14.989	17.0
15.004	16.0
15.019	19.0
15.034	12.0
15.049	10.0
15.064	13.0
15.079	9.0
15.094	14.0
15.109	16.0
15.124	16.0
15.138	18.0
15.153	23.0
15.168	10.0
15.183	14.0
15.198	9.0
15.213	17.0
15.228	18.0
15.243	21.0
15.258	8.0
15.272	9.0
15.287	21.0
15.302	17.0
15.317	13.0
15.332	11.0
15.347	13.0
15.362	12.0
15.377	11.0
15.391	15.0
15.406	14.0
15.421	14.0
15.436	13.0
15.451	12.0
15.466	11.0
15.481	14.0
15.496	10.0
15.51	14.0
15.525	14.0
15.54	14.0
15.555	13.0
15.57	19.0
15.585	18.0
15.6	12.0
15.614	10.0
15.629	19.0
15.644	22.0
15.659	10.0
15.674	17.0
15.689	7.0
15.704	16.0
15.718	15.0
15.733	22.0
15.748	15.0
15.763	13.0
15.778	11.0
15.793	7.0
15.808	10.0
15.822	13.0
15.837	14.0
15.852	11.0
15.867	8.0
15.882	11.0
15.897	12.0
15.911	11.0
15.926	11.0
15.941	10.0
15.956	10.0
15.971	15.0
15.986	13.0
16.0	4.0
16.015	15.0
16.03	14.0
16.045	13.0
16.06	22.0
16.074	11.0
16.089	8.0
16.104	15.0
16.119	12.0
16.134	24.0
16.149	11.0
16.163	17.0
16.178	7.0
16.193	13.0
16.208	19.0
16.223	16.0
16.237	21.0
16.252	13.0
16.267	12.0
16.282	8.0
16.297	8.0
16.311	16.0
16.326	16.0
16.341	8.0
16.356	10.0
16.37	11.0
16.385	10.0
16.4	9.0
16.415	17.0
16.43	17.0
16.444	22.0
16.459	10.0
16.474	18.0
16.489	14.0
16.504	8.0
16.518	22.0
16.533	13.0
16.548	14.0
16.563	12.0
16.577	14.0
16.592	20.0
16.607	18.0
16.622	14.0
16.637	17.0
16.651	22.0
16.666	19.0
16.681	14.0
16.696	26.0
16.71	19.0
16.725	18.0
16.74	24.0
16.755	33.0
16.77	26.0
16.784	35.0
16.799	39.0
16.814	30.0
16.829	48.0
16.843	46.0
16.858	57.0
16.873	55.0
16.888	65.0
16.902	61.0
16.917	72.0
16.932	71.0
16.947	81.0
16.961	69.0
16.976	60.0
16.991	54.0
17.006	75.0
17.021	57.0
17.035	62.0
17.05	41.0
17.065	40.0
17.08	37.0
17.094	27.0
17.109	26.0
17.124	27.0
17.139	20.0
17.153	24.0
17.168	13.0
17.183	23.0
17.198	14.0
17.212	15.0
17.227	12.0
17.242	16.0
17.257	8.0
17.271	10.0
17.286	18.0
17.301	7.0
17.316	15.0
17.33	19.0
17.345	12.0
17.36	23.0
17.375	14.0
17.39	15.0
17.404	18.0
17.419	13.0
17.434	15.0
17.449	13.0
17.463	10.0
17.478	7.0
17.493	9.0
17.508	6.0
17.522	15.0
17.537	12.0
17.552	15.0
17.567	15.0
17.581	10.0
17.596	15.0
17.611	10.0
17.626	16.0
17.641	6.0
17.655	10.0
17.67	14.0
17.685	11.0
17.7	17.0
17.714	13.0
17.729	8.0
17.744	18.0
17.759	14.0
17.773	10.0
17.788	9.0
17.803	11.0
17.818	10.0
17.833	12.0
17.847	12.0
17.862	6.0
17.877	9.0
17.892	10.0
17.906	13.0
17.921	8.0
17.936	12.0
17.951	7.0
17.966	15.0
17.98	12.0
17.995	12.0
18.01	10.0
18.025	8.0
18.04	11.0
18.054	13.0
18.069	7.0
18.084	15.0
18.099	11.0
18.114	12.0
18.128	12.0
18.143	10.0
18.158	9.0
18.173	12.0
18.188	10.0
18.202	12.0
18.217	12.0
18.232	10.0
18.247	12.0
18.262	9.0
18.276	9.0
18.291	8.0
18.306	12.0
18.321	6.0
18.336	13.0
18.35	17.0
18.365	14.0
18.38	4.0
18.395	7.0
18.41	12.0
18.424	16.0
18.439	11.0
18.454	14.0
18.469	14.0
18.484	17.0
18.498	7.0
18.513	12.0
18.528	11.0
18.543	13.0
18.558	12.0
18.573	14.0
18.587	8.0
18.602	6.0
18.617	7.0
18.632	11.0
18.647	9.0
18.661	6.0
18.676	9.0
18.691	16.0
18.706	8.0
18.721	11.0
18.736	7.0
18.75	20.0
18.765	8.0
18.78	12.0
18.795	13.0
18.81	9.0
18.825	12.0
18.839	8.0
18.854	11.0
18.869	19.0
18.884	15.0
18.899	8.0
18.913	15.0
18.928	10.0
18.943	19.0
18.958	7.0
18.973	11.0
18.988	10.0
19.002	10.0
19.017	6.0
19.032	12.0
19.047	6.0
19.062	18.0
19.077	9.0
19.091	16.0
19.106	9.0
19.121	8.0
19.136	4.0
19.151	17.0
19.165	12.0
19.18	12.0
19.195	11.0
19.21	13.0
19.225	17.0
19.24	13.0
19.254	11.0
19.269	10.0
19.284	9.0
19.299	15.0
19.314	13.0
19.329	11.0
19.343	22.0
19.358	13.0
19.373	16.0
19.388	23.0
19.403	17.0
19.417	19.0
19.432	20.0
19.447	28.0
19.462	20.0
19.477	24.0
19.492	17.0
19.506	30.0
19.521	25.0
19.536	33.0
19.551	37.0
19.566	45.0
19.58	33.0
19.595	28.0
19.61	38.0
19.625	45.0
19.64	33.0
19.655	37.0
19.669	28.0
19.684	36.0
19.699	19.0
19.714	31.0
19.729	25.0
19.743	23.0
19.758	20.0
19.773	26.0
19.788	12.0
19.803	21.0
19.817	11.0
19.832	6.0
19.847	18.0
19.862	11.0
19.877	12.0
19.891	8.0
19.906	10.0
19.921	13.0
19.936	11.0
19.951	9.0
19.965	13.0
19.98	11.0
19.995	6.0
20.01	21.0
20.025	12.0
20.039	13.0
20.054	13.0
20.069	10.0
20.084	15.0
20.099	15.0
20.113	9.0
20.128	5.0
20.143	10.0
20.158	11.0
20.173	13.0
20.187	4.0
20.202	14.0
20.217	7.0
20.232	14.0
20.246	9.0
20.261	13.0
20.276	10.0
20.291	13.0
20.306	13.0
20.32	6.0
20.335	8.0
20.35	9.0
20.365	15.0
20.38	9.0
20.394	10.0
20.409	12.0
20.424	16.0
20.439	9.0
20.453	15.0
20.468	7.0
20.483	6.0
20.498	13.0
20.513	6.0
20.527	10.0
20.542	12.0
20.557	8.0
20.572	7.0
20.586	9.0
20.601	8.0
20.616	10.0
20.631	15.0
20.646	8.0
20.66	12.0
20.675	8.0
20.69	13.0
20.705	14.0
20.719	16.0
20.734	11.0
20.749	10.0
20.764	12.0
20.779	11.0
20.793	12.0
20.808	14.0
20.823	8.0
20.838	10.0
20.853	10.0
20.867	13.0
20.882	9.0
20.897	9.0
20.912	21.0
20.926	15.0
20.941	10.0
20.956	9.0
20.971	8.0
20.986	10.0
21.0	6.0
21.015	7.0
21.03	9.0
21.045	8.0
21.06	12.0
21.074	10.0
21.089	11.0
21.104	13.0
21.119	13.0
21.134	12.0
21.148	12.0
21.163	11.0
21.178	9.0
21.193	14.0
21.208	7.0
21.222	11.0
21.237	9.0
21.252	12.0
21.267	6.0
21.282	17.0
21.296	14.0
21.311	6.0
21.326	19.0
21.341	5.0
21.356	11.0
21.37	8.0
21.385	7.0
21.4	9.0
21.415	10.0
21.43	16.0
21.444	7.0
21.459	10.0
21.474	10.0
21.489	17.0
21.504	11.0
21.519	11.0
21.533	11.0
21.548	10.0
21.563	12.0
21.578	20.0
21.593	16.0
21.608	13.0
21.622	13.0
21.637	17.0
21.652	19.0
21.667	13.0
21.682	14.0
21.697	23.0
21.712	19.0
21.726	23.0
21.741	25.0
21.756	24.0
21.771	30.0
21.786	32.0
21.801	22.0
21.816	34.0
21.83	35.0
21.845	47.0
21.86	50.0
21.875	73.0
21.89	70.0
21.905	62.0
21.92	61.0
21.935	89.0
21.949	65.0
21.964	59.0
21.979	78.0
21.994	61.0
22.009	65.0
22.024	66.0
22.039	45.0
22.054	55.0
22.069	62.0
22.083	33.0
22.098	33.0
22.113	43.0
22.128	26.0
22.143	33.0
22.158	20.0
22.173	26.0
22.188	28.0
22.203	22.0
22.218	16.0
22.233	16.0
22.248	22.0
22.262	9.0
22.277	11.0
22.292	10.0
22.307	11.0
22.322	16.0
22.337	16.0
22.352	12.0
22.367	14.0
22.382	15.0
22.397	9.0
22.412	16.0
22.427	14.0
22.442	8.0
22.457	9.0
22.472	15.0
22.487	11.0
22.502	19.0
22.516	12.0
22.531	13.0
22.546	14.0
22.561	11.0
22.576	14.0
22.591	15.0
22.606	14.0
22.621	5.0
22.636	10.0
22.651	19.0
22.666	8.0
22.681	10.0
22.696	9.0
22.711	8.0
22.726	9.0
22.741	7.0
22.756	12.0
22.771	10.0
22.786	14.0
22.801	13.0
22.816	11.0
22.831	9.0
22.846	10.0
22.861	9.0
22.876	8.0
22.891	6.0
22.906	9.0
22.92	6.0
22.935	6.0
22.95	11.0
22.965	7.0
22.98	11.0
22.995	13.0
23.01	7.0
23.025	16.0
23.04	9.0
23.055	12.0
23.07	17.0
23.085	12.0
23.1	6.0
23.115	6.0
23.13	7.0
23.145	8.0
23.16	5.0
23.175	9.0
23.19	4.0
23.205	9.0
23.22	10.0
23.235	13.0
23.25	13.0
23.265	9.0
23.28	11.0
23.295	13.0
23.31	17.0
23.325	8.0
23.34	9.0
23.355	12.0
23.37	8.0
23.384	13.0
23.399	7.0
23.414	9.0
23.429	11.0
23.444	14.0
23.459	10.0
23.474	9.0
23.489	10.0
23.504	17.0
23.519	11.0
23.534	9.0
23.549	14.0
23.564	14.0
23.579	10.0
23.594	9.0
23.609	8.0
23.624	9.0
23.639	12.0
23.654	8.0
23.668	9.0
23.683	8.0
23.698	8.0
23.713	7.0
23.728	16.0
23.743	7.0
23.758	7.0
23.773	8.0
23.788	9.0
23.803	16.0
23.818	7.0
23.833	14.0
23.848	23.0
23.862	14.0
23.877	18.0
23.892	12.0
23.907	15.0
23.922	19.0
23.937	17.0
23.952	19.0
23.967	28.0
23.982	33.0
23.997	40.0
24.011	28.0
24.026	43.0
24.041	45.0
24.056	54.0
24.071	46.0
24.086	40.0
24.101	53.0
24.116	46.0
24.131	40.0
24.145	35.0
24.16	40.0
24.175	31.0
24.19	31.0
24.205	40.0
24.22	39.0
24.235	29.0
24.249	23.0
24.264	26.0
24.279	23.0
24.294	26.0
24.309	22.0
24.324	23.0
24.338	16.0
24.353	16.0
24.368	15.0
24.383	6.0
24.398	7.0
24.413	15.0
24.428	11.0
24.442	17.0
24.457	10.0
24.472	10.0
24.487	13.0
24.502	5.0
24.516	13.0
24.531	8.0
24.546	9.0
24.561	9.0
24.576	11.0
24.591	9.0
24.605	15.0
24.62	12.0
24.635	10.0
24.65	17.0
24.665	11.0
24.679	14.0
24.694	9.0
24.709	13.0
24.724	10.0
24.739	11.0
24.753	12.0
24.768	15.0
24.783	22.0
24.798	12.0
24.813	8.0
24.827	7.0
24.842	9.0
24.857	16.0
24.872	4.0
24.886	6.0
24.901	11.0
24.916	8.0
24.931	14.0
24.946	8.0
24.96	9.0
24.975	11.0
24.99	12.0
25.005	10.0
25.019	8.0
25.034	7.0
25.049	8.0
25.064	10.0
25.078	9.0
25.093	13.0
25.108	12.0
25.123	19.0
25.138	9.0
25.152	6.0
25.167	6.0
25.182	7.0
25.197	5.0
25.211	6.0
25.226	11.0
25.241	9.0
25.256	10.0
25.27	12.0
25.285	9.0
25.3	9.0
25.315	9.0
25.329	6.0
25.344	10.0
25.359	6.0
25.374	13.0
25.388	5.0
25.403	14.0
25.418	6.0
25.433	3.0
25.447	6.0
25.462	14.0
25.477	7.0
25.492	11.0
25.506	9.0
25.521	13.0
25.536	7.0
25.55	8.0
25.565	12.0
25.58	11.0
25.595	11.0
25.609	5.0
25.624	11.0
25.639	14.0
25.654	11.0
25.668	5.0
25.683	4.0
25.698	12.0
25.713	6.0
25.727	12.0
25.742	3.0
25.757	7.0
25.772	8.0
25.786	9.0
25.801	12.0
25.816	10.0
25.83	8.0
25.845	8.0
25.86	10.0
25.875	7.0
25.889	14.0
25.904	11.0
25.919	12.0
25.934	10.0
25.948	7.0
25.963	7.0
25.978	12.0
25.992	11.0
26.007	3.0
26.022	9.0
26.037	10.0
26.051	9.0
26.066	7.0
26.081	9.0
26.096	5.0
26.11	5.0
26.125	7.0
26.14	10.0
26.155	7.0
26.169	9.0
26.184	16.0
26.199	7.0
26.213	10.0
26.228	6.0
26.243	5.0
26.258	11.0
26.272	9.0
26.287	10.0
26.302	8.0
26.317	9.0
26.331	3.0
26.346	6.0
26.361	13.0
26.376	5.0
26.39	6.0
26.405	9.0
26.42	10.0
26.434	3.0
26.449	9.0
26.464	6.0
26.479	11.0
26.493	8.0
26.508	9.0
26.523	7.0
26.538	13.0
26.552	8.0
26.567	14.0
26.582	9.0
26.597	15.0
26.611	5.0
26.626	10.0
26.641	11.0
26.656	9.0
26.67	12.0
26.685	9.0
26.7	8.0
26.715	9.0
26.729	7.0
26.744	7.0
26.759	6.0
26.773	8.0
26.788	9.0
26.803	8.0
26.818	6.0
26.832	6.0
26.847	7.0
26.862	12.0
26.877	7.0
26.891	8.0
26.906	6.0
26.921	4.0
26.936	9.0
26.95	7.0
26.965	5.0
26.98	22.0
26.995	6.0
27.01	2.0
27.024	6.0
27.039	3.0
27.054	13.0
27.069	12.0
27.083	13.0
27.098	14.0
27.113	11.0
27.128	11.0
27.142	11.0
27.157	12.0
27.172	8.0
27.187	12.0
27.201	8.0
27.216	16.0
27.231	5.0
27.246	15.0
27.261	11.0
27.275	10.0
27.29	10.0
27.305	9.0
27.32	4.0
27.334	11.0
27.349	7.0
27.364	13.0
27.379	5.0
27.394	7.0
27.408	16.0
27.423	14.0
27.438	8.0
27.453	6.0
27.467	9.0
27.482	12.0
27.497	9.0
27.512	8.0
27.527	15.0
27.541	10.0
27.556	12.0
27.571	14.0
27.586	9.0
27.601	12.0
27.615	7.0
27.63	11.0
27.645	11.0
27.66	9.0
27.675	17.0
27.689	8.0
27.704	12.0
27.719	14.0
27.734	15.0
27.749	15.0
27.763	24.0
27.778	19.0
27.793	17.0
27.808	15.0
27.823	21.0
27.838	26.0
27.852	21.0
27.867	23.0
27.882	20.0
27.897	32.0
27.912	23.0
27.926	21.0
27.941	26.0
27.956	17.0
27.971	17.0
27.986	26.0
28.001	18.0
28.015	17.0
28.03	16.0
28.045	21.0
28.06	21.0
28.075	17.0
28.09	10.0
28.105	15.0
28.119	11.0
28.134	18.0
28.149	14.0
28.164	10.0
28.179	11.0
28.194	8.0
28.208	11.0
28.223	13.0
28.238	13.0
28.253	16.0
28.268	15.0
28.283	15.0
28.298	13.0
28.312	12.0
28.327	8.0
28.342	9.0
28.357	16.0
28.372	7.0
28.387	8.0
28.402	12.0
28.417	16.0
28.431	10.0
28.446	8.0
28.461	9.0
28.476	16.0
28.491	9.0
28.506	13.0
28.521	7.0
28.536	15.0
28.55	7.0
28.565	11.0
28.58	9.0
28.595	10.0
28.61	14.0
28.625	14.0
28.64	10.0
28.655	12.0
28.669	6.0
28.684	14.0
28.699	11.0
28.714	13.0
28.729	17.0
28.744	13.0
28.759	9.0
28.774	6.0
28.788	9.0
28.803	9.0
28.818	8.0
28.833	9.0
28.848	14.0
28.863	12.0
28.878	15.0
28.893	10.0
28.908	6.0
28.922	8.0
28.937	8.0
28.952	13.0
28.967	15.0
28.982	8.0
28.997	6.0
29.012	7.0
29.027	4.0
29.041	11.0
29.056	8.0
29.071	11.0
29.086	11.0
29.101	12.0
29.116	9.0
29.131	9.0
29.146	9.0
29.16	10.0
29.175	5.0
29.19	8.0
29.205	12.0
29.22	10.0
29.235	16.0
29.25	8.0
29.265	10.0
29.279	10.0
29.294	13.0
29.309	8.0
29.324	9.0
29.339	14.0
29.354	14.0
29.369	13.0
29.384	13.0
29.398	13.0
29.413	16.0
29.428	17.0
29.443	17.0
29.458	15.0
29.473	30.0
29.488	19.0
29.502	27.0
29.517	19.0
29.532	35.0
29.547	36.0
29.562	42.0
29.577	46.0
29.592	49.0
29.606	39.0
29.621	50.0
29.636	62.0
29.651	55.0
29.666	46.0
29.681	38.0
29.695	39.0
29.71	22.0
29.725	33.0
29.74	34.0
29.755	32.0
29.77	31.0
29.784	31.0
29.799	28.0
29.814	24.0
29.829	24.0
29.844	25.0
29.859	29.0
29.873	13.0
29.888	17.0
29.903	17.0
29.918	14.0
29.933	15.0
29.947	23.0
29.962	18.0
29.977	11.0
29.992	10.0
30.007	13.0
30.021	10.0
30.036	10.0
30.051	7.0
30.066	10.0
30.081	10.0
30.095	15.0
30.11	10.0
30.125	9.0
30.14	10.0
30.155	8.0
30.169	6.0
30.184	8.0
30.199	11.0
30.214	10.0
30.228	15.0
30.243	5.0
30.258	11.0
30.273	10.0
30.288	13.0
30.302	9.0
30.317	11.0
30.332	15.0
30.347	6.0
30.361	11.0
30.376	12.0
30.391	13.0
30.406	11.0
30.42	11.0
30.435	14.0
30.45	9.0
30.465	8.0
30.479	11.0
30.494	13.0
30.509	15.0
30.524	7.0
30.538	7.0
30.553	14.0
30.568	7.0
30.583	15.0
30.597	17.0
30.612	8.0
30.627	15.0
30.641	11.0
30.656	7.0
30.671	19.0
30.686	7.0
30.7	15.0
30.715	5.0
30.73	10.0
30.745	9.0
30.759	13.0
30.774	10.0
30.789	6.0
30.803	10.0
30.818	12.0
30.833	8.0
30.848	9.0
30.862	10.0
30.877	10.0
30.892	9.0
30.906	11.0
30.921	14.0
30.936	8.0
30.951	11.0
30.965	13.0
30.98	14.0
30.995	9.0
31.009	10.0
31.024	14.0
31.039	11.0
31.053	10.0
31.068	9.0
31.083	17.0
31.098	17.0
31.112	22.0
31.127	22.0
31.142	18.0
31.156	32.0
31.171	40.0
31.186	30.0
31.2	28.0
31.215	33.0
31.23	29.0
31.245	44.0
31.259	31.0
31.274	28.0
31.289	35.0
31.303	37.0
31.318	38.0
31.333	21.0
31.347	20.0
31.362	25.0
31.377	29.0
31.392	29.0
31.406	28.0
31.421	25.0
31.436	27.0
31.45	21.0
31.465	23.0
31.48	22.0
31.494	22.0
31.509	21.0
31.524	22.0
31.538	20.0
31.553	12.0
31.568	14.0
31.583	12.0
31.597	11.0
31.612	12.0
31.627	12.0
31.641	10.0
31.656	13.0
31.671	9.0
31.685	9.0
31.7	9.0
31.715	8.0
31.729	11.0
31.744	10.0
31.759	8.0
31.774	12.0
31.788	10.0
31.803	9.0
31.818	9.0
31.832	8.0
31.847	16.0
31.862	7.0
31.876	10.0
31.891	10.0
31.906	8.0
31.92	6.0
31.935	7.0
31.95	6.0
31.965	12.0
31.979	13.0
31.994	12.0
32.009	12.0
32.023	8.0
32.038	13.0
32.053	5.0
32.067	9.0
32.082	6.0
32.097	12.0
32.112	10.0
32.126	9.0
32.141	9.0
32.156	18.0
32.17	11.0
32.185	11.0
32.2	10.0
32.214	12.0
32.229	13.0
32.244	11.0
32.259	14.0
32.273	12.0
32.288	17.0
32.303	7.0
32.317	10.0
32.332	9.0
32.347	8.0
32.362	9.0
32.376	10.0
32.391	8.0
32.406	8.0
32.42	5.0
32.435	8.0
32.45	2.0
32.465	13.0
32.479	9.0
32.494	4.0
32.509	3.0
32.523	8.0
32.538	13.0
32.553	12.0
32.568	13.0
32.582	13.0
32.597	11.0
32.612	8.0
32.627	13.0
32.641	17.0
32.656	11.0
32.671	17.0
32.685	18.0
32.7	11.0
32.715	11.0
32.73	22.0
32.744	14.0
32.759	19.0
32.774	16.0
32.788	26.0
32.803	28.0
32.818	17.0
32.833	21.0
32.847	28.0
32.862	19.0
32.877	32.0
32.892	23.0
32.906	14.0
32.921	19.0
32.936	23.0
32.951	15.0
32.965	22.0
32.98	21.0
32.995	21.0
33.009	12.0
33.024	20.0
33.039	14.0
33.054	15.0
33.068	13.0
33.083	14.0
33.098	12.0
33.113	9.0
33.127	6.0
33.142	15.0
33.157	12.0
33.172	7.0
33.186	12.0
33.201	8.0
33.216	7.0
33.231	9.0
33.245	9.0
33.26	11.0
33.275	9.0
33.29	10.0
33.304	11.0
33.319	10.0
33.334	6.0
33.349	7.0
33.363	8.0
33.378	12.0
33.393	5.0
33.408	3.0
33.422	12.0
33.437	4.0
33.452	6.0
33.467	11.0
33.481	11.0
33.496	13.0
33.511	11.0
33.526	5.0
33.54	12.0
33.555	9.0
33.57	9.0
33.585	13.0
33.599	9.0
33.614	14.0
33.629	10.0
33.644	7.0
33.658	12.0
33.673	14.0
33.688	8.0
33.703	4.0
33.718	10.0
33.732	4.0
33.747	11.0
33.762	10.0
33.777	9.0
33.791	5.0
33.806	8.0
33.821	14.0
33.836	3.0
33.85	10.0
33.865	6.0
33.88	7.0
33.895	11.0
33.91	11.0
33.924	7.0
33.939	8.0
33.954	7.0
33.969	6.0
33.983	8.0
33.998	8.0
34.013	9.0
34.028	6.0
34.042	7.0
34.057	11.0
34.072	13.0
34.087	12.0
34.102	5.0
34.116	11.0
34.131	8.0
34.146	12.0
34.161	11.0
34.175	9.0
34.19	9.0
34.205	13.0
34.22	9.0
34.235	14.0
34.249	7.0
34.264	16.0
34.279	9.0
34.294	10.0
34.309	14.0
34.323	12.0
34.338	15.0
34.353	14.0
34.368	11.0
34.382	9.0
34.397	17.0
34.412	9.0
34.427	11.0
34.442	6.0
34.456	15.0
34.471	25.0
34.486	11.0
34.501	8.0
34.516	13.0
34.53	6.0
34.545	7.0
34.56	10.0
34.575	9.0
34.59	14.0
34.604	11.0
34.619	19.0
34.634	7.0
34.649	11.0
34.664	10.0
34.678	10.0
34.693	9.0
34.708	9.0
34.723	16.0
34.738	7.0
34.752	12.0
34.767	7.0
34.782	6.0
34.797	3.0
34.812	8.0
34.826	10.0
34.841	8.0
34.856	7.0
34.871	9.0
34.886	10.0
34.9	18.0
34.915	10.0
34.93	13.0
34.945	7.0
34.96	6.0
34.974	7.0
34.989	11.0
35.004	5.0
35.019	5.0
35.034	6.0
35.048	11.0
35.063	5.0
35.078	3.0
35.093	6.0
35.108	5.0
35.122	8.0
35.137	6.0
35.152	10.0
35.167	11.0
35.182	8.0
35.196	5.0
35.211	8.0
35.226	8.0
35.241	5.0
35.256	9.0
35.27	8.0
35.285	6.0
35.3	12.0
35.315	11.0
35.33	6.0
35.344	9.0
35.359	7.0
35.374	14.0
35.389	9.0
35.404	11.0
35.418	7.0
35.433	6.0
35.448	2.0
35.463	10.0
35.478	7.0
35.493	2.0
35.507	14.0
35.522	11.0
35.537	10.0
35.552	13.0
35.567	9.0
35.581	12.0
35.596	6.0
35.611	11.0
35.626	12.0
35.641	13.0
35.655	13.0
35.67	9.0
35.685	15.0
35.7	19.0
35.715	18.0
35.729	12.0
35.744	17.0
35.759	16.0
35.774	17.0
35.789	17.0
35.804	25.0
35.818	12.0
35.833	13.0
35.848	20.0
35.863	17.0
35.878	15.0
35.892	13.0
35.907	20.0
35.922	16.0
35.937	15.0
35.952	18.0
35.966	13.0
35.981	10.0
35.996	10.0
36.011	10.0
36.026	11.0
36.04	8.0
36.055	8.0
36.07	10.0
36.085	11.0
36.1	7.0
36.114	16.0
36.129	15.0
36.144	9.0
36.159	14.0
36.174	11.0
36.189	7.0
36.203	8.0
36.218	6.0
36.233	7.0
36.248	8.0
36.263	8.0
36.277	10.0
36.292	6.0
36.307	12.0
36.322	2.0
36.337	10.0
36.351	8.0
36.366	8.0
36.381	7.0
36.396	6.0
36.411	9.0
36.426	11.0
36.44	3.0
36.455	5.0
36.47	13.0
36.485	7.0
36.5	9.0
36.514	11.0
36.529	7.0
36.544	9.0
36.559	10.0
36.574	6.0
36.589	11.0
36.603	5.0
36.618	6.0
36.633	9.0
36.648	6.0
36.663	9.0
36.677	11.0
36.692	5.0
36.707	10.0
36.722	3.0
36.737	3.0
36.752	5.0
36.766	7.0
36.781	8.0
36.796	5.0
36.811	7.0
36.826	11.0
36.841	6.0
36.855	10.0
36.87	5.0
36.885	3.0
36.9	5.0
36.915	8.0
36.93	9.0
36.944	10.0
36.959	7.0
36.974	10.0
36.989	6.0
37.004	13.0
37.019	14.0
37.033	14.0
37.048	8.0
37.063	14.0
37.078	18.0
37.093	17.0
37.108	21.0
37.123	26.0
37.137	30.0
37.152	26.0
37.167	32.0
37.182	12.0
37.197	32.0
37.212	30.0
37.226	26.0
37.241	20.0
37.256	22.0
37.271	13.0
37.286	21.0
37.301	19.0
37.316	15.0
37.331	19.0
37.345	22.0
37.36	16.0
37.375	15.0
37.39	14.0
37.405	28.0
37.42	20.0
37.435	16.0
37.45	21.0
37.464	14.0
37.479	15.0
37.494	13.0
37.509	5.0
37.524	10.0
37.539	7.0
37.554	7.0
37.569	10.0
37.583	10.0
37.598	8.0
37.613	3.0
37.628	7.0
37.643	4.0
37.658	7.0
37.673	4.0
37.688	5.0
37.703	10.0
37.718	5.0
37.733	12.0
37.747	8.0
37.762	7.0
37.777	6.0
37.792	6.0
37.807	7.0
37.822	7.0
37.837	4.0
37.852	8.0
37.867	15.0
37.882	7.0
37.897	4.0
37.912	0.0
37.927	3.0
37.941	5.0
37.956	12.0
37.971	4.0
37.986	3.0
38.001	13.0
38.016	9.0
38.031	7.0
38.046	4.0
38.061	6.0
38.076	9.0
38.091	8.0
38.106	5.0
38.121	3.0
38.136	5.0
38.151	3.0
38.166	6.0
38.181	8.0
38.196	6.0
38.211	6.0
38.226	6.0
38.241	6.0
38.256	7.0
38.271	10.0
38.285	8.0
38.3	5.0
38.315	7.0
38.33	8.0
38.345	8.0
38.36	1.0
38.375	6.0
38.39	4.0
38.405	4.0
38.42	7.0
38.435	9.0
38.45	4.0
38.465	10.0
38.48	3.0
38.495	6.0
38.51	9.0
38.525	10.0
38.54	4.0
38.555	5.0
38.57	7.0
38.585	8.0
38.6	5.0
38.615	7.0
38.63	6.0
38.645	9.0
38.66	11.0
38.675	4.0
38.69	6.0
38.705	9.0
38.72	6.0
38.735	7.0
38.75	8.0
38.765	7.0
38.78	8.0
38.795	8.0
38.81	7.0
38.825	2.0
38.84	5.0
38.855	9.0
38.87	6.0
38.885	11.0
38.9	2.0
38.915	6.0
38.93	5.0
38.945	10.0
38.96	8.0
38.975	9.0
38.99	7.0
39.005	3.0
39.02	4.0
39.035	5.0
39.05	3.0
39.065	4.0
39.08	9.0
39.095	3.0
39.11	9.0
39.125	5.0
39.14	3.0
39.155	9.0
39.17	4.0
39.185	10.0
39.2	4.0
39.215	4.0
39.23	8.0
39.245	5.0
39.26	0.0
39.275	9.0
39.29	6.0
39.305	4.0
39.32	4.0
39.335	5.0
39.35	8.0
39.365	11.0
39.38	0.0
39.395	6.0
39.409	4.0
39.424	5.0
39.439	5.0
39.454	7.0
39.469	5.0
39.484	5.0
39.499	2.0
39.514	7.0
39.529	10.0
39.544	4.0
39.559	4.0
39.574	6.0
39.589	4.0
39.604	6.0
39.619	5.0
39.634	4.0
39.649	5.0
39.664	5.0
39.678	4.0
39.693	5.0
39.708	4.0
39.723	9.0
39.738	12.0
39.753	7.0
39.768	2.0
39.783	15.0
39.798	5.0
39.813	10.0
39.827	5.0
39.842	6.0
39.857	14.0
39.872	10.0
39.887	14.0
39.902	9.0
39.917	9.0
39.932	4.0
39.947	14.0
39.961	10.0
39.976	8.0
39.991	13.0
40.006	7.0
40.021	6.0
40.036	7.0
40.051	8.0
40.065	3.0
40.08	9.0
40.095	5.0
40.11	8.0
40.125	8.0
40.14	6.0
40.154	8.0
40.169	8.0
40.184	3.0
40.199	6.0
40.214	3.0
40.228	7.0
40.243	7.0
40.258	6.0
40.273	2.0
40.288	4.0
40.302	2.0
40.317	4.0
40.332	1.0
40.347	4.0
40.362	3.0
40.376	9.0
40.391	3.0
40.406	4.0
40.421	5.0
40.436	5.0
40.45	10.0
40.465	9.0
40.48	9.0
40.495	4.0
40.509	5.0
40.524	3.0
40.539	8.0
40.554	4.0
40.568	10.0
40.583	5.0
40.598	8.0
40.613	8.0
40.627	5.0
40.642	7.0
40.657	3.0
40.672	1.0
40.686	7.0
40.701	4.0
40.716	5.0
40.731	3.0
40.745	0.0
40.76	4.0
40.775	5.0
40.79	8.0
40.804	7.0
40.819	4.0
40.834	10.0
40.849	4.0
40.863	4.0
40.878	4.0
40.893	5.0
40.907	8.0
40.922	7.0
40.937	7.0
40.952	8.0
40.966	9.0
40.981	4.0
40.996	12.0
41.011	8.0
41.025	16.0
41.04	16.0
41.055	10.0
41.069	17.0
41.084	14.0
41.099	20.0
41.114	25.0
41.128	11.0
41.143	14.0
41.158	21.0
41.173	22.0
41.187	13.0
41.202	19.0
41.217	13.0
41.231	10.0
41.246	13.0
41.261	13.0
41.276	6.0
41.29	12.0
41.305	9.0
41.32	8.0
41.335	9.0
41.349	8.0
41.364	17.0
41.379	12.0
41.393	11.0
41.408	16.0
41.423	12.0
41.438	15.0
41.452	14.0
41.467	6.0
41.482	6.0
41.497	8.0
41.511	10.0
41.526	6.0
41.541	8.0
41.556	6.0
41.57	6.0
41.585	6.0
41.6	6.0
41.615	6.0
41.629	3.0
41.644	1.0
41.659	5.0
41.674	6.0
41.688	4.0
41.703	6.0
41.718	2.0
41.733	3.0
41.747	4.0
41.762	5.0
41.777	11.0
41.792	5.0
41.806	4.0
41.821	6.0
41.836	7.0
41.851	4.0
41.866	7.0
41.88	6.0
41.895	7.0
41.91	4.0
41.925	5.0
41.939	4.0
41.954	4.0
41.969	7.0
41.984	4.0
41.999	6.0
42.013	5.0
42.028	1.0
42.043	8.0
42.058	5.0
42.073	9.0
42.088	8.0
42.102	6.0
42.117	6.0
42.132	6.0
42.147	5.0
42.162	2.0
42.176	5.0
42.191	11.0
42.206	4.0
42.221	6.0
42.236	7.0
42.251	5.0
42.266	5.0
42.28	12.0
42.295	12.0
42.31	14.0
42.325	9.0
42.34	19.0
42.355	19.0
42.369	12.0
42.384	24.0
42.399	13.0
42.414	16.0
42.429	11.0
42.444	11.0
42.459	18.0
42.474	9.0
42.488	11.0
42.503	11.0
42.518	8.0
42.533	6.0
42.548	13.0
42.563	8.0
42.578	9.0
42.593	7.0
42.608	10.0
42.622	12.0
42.637	13.0
42.652	13.0
42.667	12.0
42.682	8.0
42.697	8.0
42.712	12.0
42.727	7.0
42.742	12.0
42.757	6.0
42.772	5.0
42.786	6.0
42.801	2.0
42.816	8.0
42.831	9.0
42.846	6.0
42.861	5.0
42.876	9.0
42.891	6.0
42.906	8.0
42.921	10.0
42.936	8.0
42.951	4.0
42.966	4.0
42.981	1.0
42.996	2.0
43.011	2.0
43.025	7.0
43.04	6.0
43.055	5.0
43.07	6.0
43.085	4.0
43.1	7.0
43.115	2.0
43.13	5.0
43.145	6.0
43.16	4.0
43.175	5.0
43.19	5.0
43.205	4.0
43.22	3.0
43.235	4.0
43.25	5.0
43.265	7.0
43.28	5.0
43.295	5.0
43.31	5.0
43.325	1.0
43.34	7.0
43.355	8.0
43.37	11.0
43.385	3.0
43.4	3.0
43.415	14.0
43.43	9.0
43.445	7.0
43.46	6.0
43.475	8.0
43.49	1.0
43.505	5.0
43.52	7.0
43.535	6.0
43.55	8.0
43.565	6.0
43.58	7.0
43.595	11.0
43.61	11.0
43.625	5.0
43.64	8.0
43.655	4.0
43.67	12.0
43.685	4.0
43.7	11.0
43.715	9.0
43.73	3.0
43.745	9.0
43.76	7.0
43.775	6.0
43.79	4.0
43.805	9.0
43.82	4.0
43.835	5.0
43.85	6.0
43.865	12.0
43.88	5.0
43.895	6.0
43.91	7.0
43.925	9.0
43.94	6.0
43.955	11.0
43.97	6.0
43.985	5.0
44.0	1.0
44.015	9.0
44.03	9.0
44.045	5.0
44.061	5.0
44.076	6.0
44.091	2.0
44.106	2.0
44.121	4.0
44.136	8.0
44.151	5.0
44.166	6.0
44.181	7.0
44.196	8.0
44.211	7.0
44.226	5.0
44.241	6.0
44.256	3.0
44.271	4.0
44.286	2.0
44.301	5.0
44.316	5.0
44.331	5.0
44.346	4.0
44.361	4.0
44.377	7.0
44.392	6.0
44.407	8.0
44.422	9.0
44.437	6.0
44.452	6.0
44.467	3.0
44.482	5.0
44.497	5.0
44.512	6.0
44.527	2.0
44.542	2.0
44.557	8.0
44.572	7.0
44.587	2.0
44.602	8.0
44.617	6.0
44.632	2.0
44.647	6.0
44.663	6.0
44.678	9.0
44.693	6.0
44.708	6.0
44.723	9.0
44.738	6.0
44.753	12.0
44.768	11.0
44.783	6.0
44.798	12.0
44.813	9.0
44.828	13.0
44.843	4.0
44.858	7.0
44.873	11.0
44.888	11.0
44.903	4.0
44.918	8.0
44.933	7.0
44.948	6.0
44.964	3.0
44.979	12.0
44.994	8.0
45.009	9.0
45.024	12.0
45.039	7.0
45.054	3.0
45.069	6.0
45.084	5.0
45.099	11.0
45.114	8.0
45.129	9.0
45.144	9.0
45.159	3.0
45.174	7.0
45.189	12.0
45.204	3.0
45.219	9.0
45.234	3.0
45.249	7.0
45.264	3.0
45.279	8.0
45.294	7.0
45.309	6.0
45.324	8.0
45.339	2.0
45.354	3.0
45.369	4.0
45.384	6.0
45.399	5.0
45.414	5.0
45.429	3.0
45.444	7.0
45.459	6.0
45.474	4.0
45.489	3.0
45.504	2.0
45.519	6.0
45.534	4.0
45.549	4.0
45.564	4.0
45.579	8.0
45.594	2.0
45.609	4.0
45.624	6.0
45.639	4.0
45.654	6.0
45.669	6.0
45.684	7.0
45.699	7.0
45.714	9.0
45.729	4.0
45.744	8.0
45.759	3.0
45.774	5.0
45.789	4.0
45.804	3.0
45.819	8.0
45.834	7.0
45.849	8.0
45.864	6.0
45.879	8.0
45.894	16.0
45.909	12.0
45.924	16.0
45.939	19.0
45.954	15.0
45.969	20.0
45.984	14.0
45.998	14.0
46.013	17.0
46.028	14.0
46.043	6.0
46.058	13.0
46.073	6.0
46.088	8.0
46.103	5.0
46.118	9.0
46.133	4.0
46.148	4.0
46.163	6.0
46.178	12.0
46.192	9.0
46.207	15.0
46.222	9.0
46.237	7.0
46.252	10.0
46.267	15.0
46.282	11.0
46.297	9.0
46.312	6.0
46.327	6.0
46.341	9.0
46.356	6.0
46.371	9.0
46.386	7.0
46.401	7.0
46.416	5.0
46.431	4.0
46.446	8.0
46.46	3.0
46.475	3.0
46.49	5.0
46.505	5.0
46.52	4.0
46.535	4.0
46.55	6.0
46.564	2.0
46.579	11.0
46.594	8.0
46.609	4.0
46.624	2.0
46.639	6.0
46.654	7.0
46.668	5.0
46.683	0.0
46.698	6.0
46.713	2.0
46.728	4.0
46.743	5.0
46.758	7.0
46.772	4.0
46.787	7.0
46.802	2.0
46.817	4.0
46.832	7.0
46.847	4.0
46.861	6.0
46.876	1.0
46.891	5.0
46.906	6.0
46.921	5.0
46.936	4.0
46.95	5.0
46.965	9.0
46.98	9.0
46.995	8.0
47.01	8.0
47.025	5.0
47.039	13.0
47.054	4.0
47.069	7.0
47.084	10.0
47.099	11.0
47.113	7.0
47.128	7.0
47.143	10.0
47.158	6.0
47.173	6.0
47.188	10.0
47.202	7.0
47.217	7.0
47.232	9.0
47.247	3.0
47.262	8.0
47.277	9.0
47.291	5.0
47.306	2.0
47.321	6.0
47.336	5.0
47.351	9.0
47.365	5.0
47.38	9.0
47.395	3.0
47.41	5.0
47.425	8.0
47.44	11.0
47.454	14.0
47.469	8.0
47.484	10.0
47.499	6.0
47.514	5.0
47.528	1.0
47.543	5.0
47.558	4.0
47.573	7.0
47.588	3.0
47.603	3.0
47.617	4.0
47.632	5.0
47.647	0.0
47.662	4.0
47.677	2.0
47.691	5.0
47.706	5.0
47.721	3.0
47.736	4.0
47.751	4.0
47.766	3.0
47.78	4.0
47.795	2.0
47.81	5.0
47.825	5.0
47.84	5.0
47.855	4.0
47.869	4.0
47.884	4.0
47.899	5.0
47.914	3.0
47.929	5.0
47.944	8.0
47.958	6.0
47.973	1.0
47.988	5.0
48.003	4.0
48.018	5.0
48.033	5.0
48.047	7.0
48.062	3.0
48.077	7.0
48.092	7.0
48.107	5.0
48.122	4.0
48.137	2.0
48.151	3.0
48.166	8.0
48.181	4.0
48.196	1.0
48.211	8.0
48.226	3.0
48.241	3.0
48.255	8.0
48.27	9.0
48.285	4.0
48.3	2.0
48.315	5.0
48.33	6.0
48.345	7.0
48.359	6.0
48.374	6.0
48.389	5.0
48.404	5.0
48.419	6.0
48.434	1.0
48.449	3.0
48.464	6.0
48.478	4.0
48.493	3.0
48.508	3.0
48.523	7.0
48.538	6.0
48.553	5.0
48.568	1.0
48.583	5.0
48.597	6.0
48.612	4.0
48.627	5.0
48.642	2.0
48.657	4.0
48.672	3.0
48.687	4.0
48.702	6.0
48.717	5.0
48.731	5.0
48.746	8.0
48.761	3.0
48.776	2.0
48.791	3.0
48.806	8.0
48.821	4.0
48.836	10.0
48.851	1.0
48.866	6.0
48.88	5.0
48.895	1.0
48.91	2.0
48.925	3.0
48.94	4.0
48.955	4.0
48.97	2.0
48.985	2.0
49.0	4.0
49.015	7.0
49.03	5.0
49.044	3.0
49.059	7.0
49.074	3.0
49.089	6.0
49.104	4.0
49.119	6.0
49.134	4.0
49.149	4.0
49.164	3.0
49.179	3.0
49.194	7.0
49.209	4.0
49.224	5.0
49.238	8.0
49.253	4.0
49.268	7.0
49.283	7.0
49.298	8.0
49.313	7.0
49.328	6.0
49.343	6.0
49.358	10.0
49.373	11.0
49.388	4.0
49.403	15.0
49.418	11.0
49.433	11.0
49.448	5.0
49.463	4.0
49.478	9.0
49.492	5.0
49.507	8.0
49.522	4.0
49.537	4.0
49.552	6.0
49.567	8.0
49.582	9.0
49.597	2.0
49.612	5.0
49.627	4.0
49.642	10.0
49.657	3.0
49.672	4.0
49.687	8.0
49.702	8.0
49.717	3.0
49.732	7.0
49.747	4.0
49.762	5.0
49.777	8.0
49.792	7.0
49.807	1.0
49.822	8.0
49.837	4.0
49.852	3.0
49.867	5.0
49.882	4.0
49.897	3.0
49.912	7.0
49.927	7.0
49.942	5.0
49.957	5.0
49.971	5.0
49.986	6.0
50.001	5.0
50.016	4.0
50.031	5.0
50.046	4.0
50.061	4.0
50.076	2.0
50.091	1.0
50.106	2.0
50.121	7.0
50.136	7.0
50.151	5.0
50.166	8.0
50.181	4.0
50.196	2.0
50.211	5.0
50.226	4.0
50.241	6.0
50.256	5.0
50.271	3.0
50.286	3.0
50.302	5.0
50.317	3.0
50.332	4.0
50.347	1.0
50.362	8.0
50.377	7.0
50.392	8.0
50.407	8.0
50.422	8.0
50.437	2.0
50.452	8.0
50.467	2.0
50.482	7.0
50.497	4.0
50.512	8.0
50.527	3.0
50.542	7.0
50.557	5.0
50.572	11.0
50.587	7.0
50.602	6.0
50.617	1.0
50.632	8.0
50.647	2.0
50.662	8.0
50.677	3.0
50.692	5.0
50.707	6.0
50.722	6.0
50.737	2.0
50.752	5.0
50.767	3.0
50.782	6.0
50.797	6.0
50.812	5.0
50.828	6.0
50.843	12.0
50.858	6.0
50.873	7.0
50.888	6.0
50.903	8.0
50.918	6.0
50.933	6.0
50.948	9.0
50.963	3.0
50.978	4.0
50.993	2.0
51.008	3.0
51.023	7.0
51.038	5.0
51.053	4.0
51.068	10.0
51.083	6.0
51.098	7.0
51.114	13.0
51.129	3.0
51.144	6.0
51.159	5.0
51.174	5.0
51.189	4.0
51.204	7.0
51.219	4.0
51.234	6.0
51.249	3.0
51.264	5.0
51.279	7.0
51.294	9.0
51.309	3.0
51.324	1.0
51.34	8.0
51.355	3.0
51.37	10.0
51.385	5.0
51.4	9.0
51.415	3.0
51.43	7.0
51.445	8.0
51.46	12.0
51.475	8.0
51.49	16.0
51.505	12.0
51.52	22.0
51.535	9.0
51.551	11.0
51.566	13.0
51.581	12.0
51.596	7.0
51.611	12.0
51.626	4.0
51.641	7.0
51.656	2.0
51.671	3.0
51.686	6.0
51.701	3.0
51.716	4.0
51.732	9.0
51.747	9.0
51.762	5.0
51.777	6.0
51.792	10.0
51.807	12.0
51.822	12.0
51.837	15.0
51.852	6.0
51.867	13.0
51.882	7.0
51.898	12.0
51.913	3.0
51.928	6.0
51.943	5.0
51.958	6.0
51.973	9.0
51.988	5.0
52.003	3.0
52.018	6.0
52.033	6.0
52.048	6.0
52.064	10.0
52.079	6.0
52.094	3.0
52.109	3.0
52.124	7.0
52.139	6.0
52.154	7.0
52.169	5.0
52.184	5.0
52.199	3.0
52.215	4.0
52.23	3.0
52.245	7.0
52.26	1.0
52.275	7.0
52.29	4.0
52.305	5.0
52.32	6.0
52.335	6.0
52.35	2.0
52.366	6.0
52.381	3.0
52.396	3.0
52.411	2.0
52.426	11.0
52.441	6.0
52.456	5.0
52.471	4.0
52.486	9.0
52.502	4.0
52.517	3.0
52.532	14.0
52.547	17.0
52.562	7.0
52.577	12.0
52.592	13.0
52.607	12.0
52.622	5.0
52.637	5.0
52.653	8.0
52.668	7.0
52.683	6.0
52.698	5.0
52.713	6.0
52.728	3.0
52.743	3.0
52.758	2.0
52.774	4.0
52.789	4.0
52.804	5.0
52.819	4.0
52.834	2.0
52.849	1.0
52.864	1.0
52.879	4.0
52.894	11.0
52.91	6.0
52.925	7.0
52.94	10.0
52.955	10.0
52.97	2.0
52.985	7.0
53.0	4.0
53.015	9.0
53.031	2.0
53.046	8.0
53.061	2.0
53.076	6.0
53.091	4.0
53.106	2.0
53.121	4.0
53.136	7.0
53.152	6.0
53.167	5.0
53.182	3.0
53.197	3.0
53.212	8.0
53.227	3.0
53.242	1.0
53.257	3.0
53.273	6.0
53.288	4.0
53.303	4.0
53.318	6.0
53.333	5.0
53.348	6.0
53.363	1.0
53.379	0.0
53.394	3.0
53.409	2.0
53.424	5.0
53.439	5.0
53.454	5.0
53.469	9.0
53.484	1.0
53.5	7.0
53.515	5.0
53.53	3.0
53.545	4.0
53.56	6.0
53.575	4.0
53.59	1.0
53.606	3.0
53.621	4.0
53.636	5.0
53.651	5.0
53.666	3.0
53.681	3.0
53.696	4.0
53.712	4.0
53.727	6.0
53.742	4.0
53.757	2.0
53.772	1.0
53.787	8.0
53.802	8.0
53.818	3.0
53.833	6.0
53.848	8.0
53.863	7.0
53.878	7.0
53.893	3.0
53.909	2.0
53.924	5.0
53.939	2.0
53.954	4.0
53.969	7.0
53.984	6.0
53.999	10.0
54.015	2.0
54.03	6.0
54.045	6.0
54.06	3.0
54.075	5.0
54.09	7.0
54.106	8.0
54.121	8.0
54.136	7.0
54.151	2.0
54.166	2.0
54.181	6.0
54.197	4.0
54.212	4.0
54.227	6.0
54.242	5.0
54.257	4.0
54.272	2.0
54.288	5.0
54.303	5.0
54.318	2.0
54.333	5.0
54.348	4.0
54.363	5.0
54.379	3.0
54.394	2.0
54.409	7.0
54.424	8.0
54.439	6.0
54.454	5.0
54.47	6.0
54.485	4.0
54.5	2.0
54.515	7.0
54.53	3.0
54.545	9.0
54.561	7.0
54.576	10.0
54.591	8.0
54.606	10.0
54.621	14.0
54.636	11.0
54.652	21.0
54.667	11.0
54.682	17.0
54.697	11.0
54.712	12.0
54.727	7.0
54.743	11.0
54.758	5.0
54.773	3.0
54.788	6.0
54.803	2.0
54.819	3.0
54.834	5.0
54.849	7.0
54.864	8.0
54.879	4.0
54.894	3.0
54.91	5.0
54.925	3.0
54.94	4.0
54.955	5.0
54.97	7.0
54.985	1.0
55.001	5.0
55.016	7.0
55.031	7.0
55.046	6.0
55.061	8.0
55.077	6.0
55.092	3.0
55.107	6.0
55.122	6.0
55.137	4.0
55.152	5.0
55.168	7.0
55.183	4.0
55.198	3.0
55.213	6.0
55.228	5.0
55.243	9.0
55.259	6.0
55.274	3.0
55.289	6.0
55.304	5.0
55.319	4.0
55.335	3.0
55.35	3.0
55.365	4.0
55.38	6.0
55.395	5.0
55.41	2.0
55.426	8.0
55.441	5.0
55.456	4.0
55.471	4.0
55.486	3.0
55.501	3.0
55.517	4.0
55.532	6.0
55.547	5.0
55.562	5.0
55.577	4.0
55.592	3.0
55.608	7.0
55.623	10.0
55.638	8.0
55.653	11.0
55.668	7.0
55.683	8.0
55.699	9.0
55.714	11.0
55.729	6.0
55.744	5.0
55.759	7.0
55.774	3.0
55.79	5.0
55.805	6.0
55.82	4.0
55.835	5.0
55.85	3.0
55.865	5.0
55.881	5.0
55.896	6.0
55.911	4.0
55.926	5.0
55.941	4.0
55.956	6.0
55.972	5.0
55.987	4.0
56.002	12.0
56.017	4.0
56.032	9.0
56.047	3.0
56.063	2.0
56.078	7.0
56.093	4.0
56.108	8.0
56.123	4.0
56.138	3.0
56.154	5.0
56.169	6.0
56.184	6.0
56.199	3.0
56.214	1.0
56.229	4.0
56.244	6.0
56.26	7.0
56.275	2.0
56.29	4.0
56.305	3.0
56.32	7.0
56.335	4.0
56.351	5.0
56.366	4.0
56.381	6.0
56.396	3.0
56.411	6.0
56.426	3.0
56.441	8.0
56.457	6.0
56.472	3.0
56.487	5.0
56.502	5.0
56.517	7.0
56.532	6.0
56.547	5.0
56.563	0.0
56.578	5.0
56.593	6.0
56.608	3.0
56.623	5.0
56.638	7.0
56.653	3.0
56.668	4.0
56.684	6.0
56.699	3.0
56.714	6.0
56.729	2.0
56.744	4.0
56.759	4.0
56.774	2.0
56.79	4.0
56.805	2.0
56.82	6.0
56.835	2.0
56.85	3.0
56.865	5.0
56.88	1.0
56.895	7.0
56.911	4.0
56.926	4.0
56.941	4.0
56.956	7.0
56.971	6.0
56.986	2.0
57.001	5.0
57.016	8.0
57.031	5.0
57.047	3.0
57.062	2.0
57.077	5.0
57.092	7.0
57.107	5.0
57.122	4.0
57.137	3.0
57.152	4.0
57.167	7.0
57.183	5.0
57.198	4.0
57.213	9.0
57.228	4.0
57.243	3.0
57.258	7.0
57.273	5.0
57.288	4.0
57.303	4.0
57.318	10.0
57.334	3.0
57.349	6.0
57.364	5.0
57.379	8.0
57.394	3.0
57.409	6.0
57.424	5.0
57.439	2.0
57.454	3.0
57.469	3.0
57.484	6.0
57.5	4.0
57.515	3.0
57.53	6.0
57.545	2.0
57.56	6.0
57.575	3.0
57.59	4.0
57.605	4.0
57.62	9.0
57.635	8.0
57.65	7.0
57.665	3.0
57.68	6.0
57.696	5.0
57.711	1.0
57.726	6.0
57.741	4.0
57.756	6.0
57.771	2.0
57.786	5.0
57.801	4.0
57.816	3.0
57.831	4.0
57.846	6.0
57.861	4.0
57.876	3.0
57.891	6.0
57.906	3.0
57.921	5.0
57.937	7.0
57.952	5.0
57.967	7.0
57.982	7.0
57.997	3.0
58.012	5.0
58.027	3.0
58.042	7.0
58.057	4.0
58.072	4.0
58.087	5.0
58.102	4.0
58.117	3.0
58.132	5.0
58.147	5.0
58.162	3.0
58.177	5.0
58.192	2.0
58.207	6.0
58.222	4.0
58.237	2.0
58.252	4.0
58.267	4.0
58.282	4.0
58.297	5.0
58.312	5.0
58.327	5.0
58.342	2.0
58.357	4.0
58.372	8.0
58.387	5.0
58.402	6.0
58.418	4.0
58.433	3.0
58.448	8.0
58.463	2.0
58.478	4.0
58.493	1.0
58.508	2.0
58.523	4.0
58.538	4.0
58.553	1.0
58.568	7.0
58.583	11.0
58.598	6.0
58.613	12.0
58.628	6.0
58.643	8.0
58.658	8.0
58.673	3.0
58.688	5.0
58.703	12.0
58.718	6.0
58.733	6.0
58.748	7.0
58.763	5.0
58.778	3.0
58.793	1.0
58.808	5.0
58.823	3.0
58.838	5.0
58.853	4.0
58.868	5.0
58.883	1.0
58.898	8.0
58.913	4.0
58.928	3.0
58.942	2.0
58.957	4.0
58.972	6.0
58.987	9.0
59.002	7.0
59.017	6.0
59.032	3.0
59.047	4.0
59.062	4.0
59.077	4.0
59.092	4.0
59.107	4.0
59.122	4.0
59.137	5.0
59.152	4.0
59.167	0.0
59.182	2.0
59.197	5.0
59.212	4.0
59.227	3.0
59.242	6.0
59.257	7.0
59.272	7.0
59.287	4.0
59.302	2.0
59.317	4.0
59.332	7.0
59.347	5.0
59.362	1.0
59.377	3.0
59.392	5.0
59.407	0.0
59.422	3.0
59.437	5.0
59.452	2.0
59.467	10.0
59.482	2.0
59.497	7.0
59.512	5.0
59.527	5.0
59.542	7.0
59.557	6.0
59.572	6.0
59.587	9.0
59.602	11.0
59.617	6.0
59.632	8.0
59.647	8.0
59.661	6.0
59.676	7.0
59.691	8.0
59.706	10.0
59.721	5.0
59.736	3.0
59.751	1.0
59.766	5.0
59.781	5.0
59.796	2.0
59.811	4.0
59.826	7.0
59.841	2.0
59.856	6.0
59.871	5.0
59.886	5.0
59.901	5.0
59.916	4.0
59.931	8.0
59.946	4.0
59.961	5.0
59.976	9.0
59.991	8.0
60.006	3.0
60.021	5.0
60.036	4.0
60.051	4.0
60.066	8.0
60.081	5.0
60.096	9.0
60.111	7.0
60.126	2.0
60.141	1.0
60.156	9.0
60.171	2.0
60.186	5.0
60.201	8.0
60.216	1.0
60.231	9.0
60.246	8.0
60.261	5.0
60.276	3.0
60.291	3.0
60.306	9.0
60.321	3.0
60.336	4.0
60.35	6.0
60.365	8.0
60.38	4.0
60.395	4.0
60.41	3.0
60.425	2.0
60.44	5.0
60.455	6.0
60.47	5.0
60.485	9.0
60.5	4.0
60.515	6.0
60.53	6.0
60.545	3.0
60.56	6.0
60.575	9.0
60.59	5.0
60.605	7.0
60.62	4.0
60.635	6.0
60.65	5.0
60.665	6.0
60.68	3.0
60.695	6.0
60.71	6.0
60.725	4.0
60.74	6.0
60.755	2.0
60.77	3.0
60.785	7.0
60.8	2.0
60.815	1.0
60.83	7.0
60.845	3.0
60.86	7.0
60.875	7.0
60.89	5.0
60.905	5.0
60.92	5.0
60.935	6.0
60.95	3.0
60.965	8.0
60.98	6.0
60.995	11.0
61.01	7.0
61.025	7.0
61.04	9.0
61.055	3.0
61.07	2.0
61.085	7.0
61.1	2.0
61.115	6.0
61.13	2.0
61.145	2.0
61.16	4.0
61.175	1.0
61.191	4.0
61.206	4.0
61.221	2.0
61.236	2.0
61.251	2.0
61.266	1.0
61.281	2.0
61.296	7.0
61.311	6.0
61.326	5.0
61.341	4.0
61.356	4.0
61.371	4.0
61.386	2.0
61.401	4.0
61.416	3.0
61.431	4.0
61.446	7.0
61.461	3.0
61.476	7.0
61.491	6.0
61.506	7.0
61.521	3.0
61.536	8.0
61.551	10.0
61.566	5.0
61.581	4.0
61.596	8.0
61.611	4.0
61.626	4.0
61.641	3.0
61.656	3.0
61.672	5.0
61.687	3.0
61.702	2.0
61.717	3.0
61.732	4.0
61.747	2.0
61.762	8.0
61.777	4.0
61.792	3.0
61.807	2.0
61.822	1.0
61.837	2.0
61.852	2.0
61.867	2.0
61.882	9.0
61.897	2.0
61.912	4.0
61.927	3.0
61.943	8.0
61.958	3.0
61.973	5.0
61.988	4.0
62.003	2.0
62.018	4.0
62.033	4.0
62.048	0.0
62.063	5.0
62.078	5.0
62.093	4.0
62.108	5.0
62.123	7.0
62.138	2.0
62.153	3.0
62.169	3.0
62.184	6.0
62.199	3.0
62.214	3.0
62.229	4.0
62.244	3.0
62.259	4.0
62.274	2.0
62.289	4.0
62.304	4.0
62.319	8.0
62.335	6.0
62.35	4.0
62.365	6.0
62.38	4.0
62.395	4.0
62.41	6.0
62.425	7.0
62.44	5.0
62.455	0.0
62.47	7.0
62.485	3.0
62.501	4.0
62.516	6.0
62.531	5.0
62.546	6.0
62.561	3.0
62.576	4.0
62.591	1.0
62.606	7.0
62.621	7.0
62.636	5.0
62.652	3.0
62.667	6.0
62.682	0.0
62.697	2.0
62.712	1.0
62.727	2.0
62.742	3.0
62.757	5.0
62.772	4.0
62.787	8.0
62.803	5.0
62.818	4.0
62.833	2.0
62.848	3.0
62.863	5.0
62.878	6.0
62.893	2.0
62.908	2.0
62.923	4.0
62.939	4.0
62.954	4.0
62.969	3.0
62.984	4.0
62.999	3.0
63.014	6.0
63.029	5.0
63.044	2.0
63.059	4.0
63.074	4.0
63.09	1.0
63.105	2.0
63.12	5.0
63.135	3.0
63.15	4.0
63.165	0.0
63.18	2.0
63.195	7.0
63.21	5.0
63.226	4.0
63.241	2.0
63.256	2.0
63.271	3.0
63.286	4.0
63.301	3.0
63.316	3.0
63.331	6.0
63.346	4.0
63.362	7.0
63.377	5.0
63.392	4.0
63.407	7.0
63.422	10.0
63.437	6.0
63.452	9.0
63.467	7.0
63.482	8.0
63.497	5.0
63.513	2.0
63.528	4.0
63.543	2.0
63.558	3.0
63.573	6.0
63.588	6.0
63.603	4.0
63.618	2.0
63.633	7.0
63.648	4.0
63.664	5.0
63.679	4.0
63.694	4.0
63.709	3.0
63.724	4.0
63.739	7.0
63.754	6.0
63.769	8.0
63.784	8.0
63.799	5.0
63.814	5.0
63.83	6.0
63.845	3.0
63.86	6.0
63.875	2.0
63.89	6.0
63.905	3.0
63.92	6.0
63.935	4.0
63.95	2.0
63.965	1.0
63.98	4.0
63.996	1.0
64.011	5.0
64.026	4.0
64.041	1.0
64.056	2.0
64.071	0.0
64.086	4.0
64.101	3.0
64.116	3.0
64.131	0.0
64.146	5.0
64.161	1.0
64.176	6.0
64.191	3.0
64.207	4.0
64.222	3.0
64.237	4.0
64.252	6.0
64.267	2.0
64.282	6.0
64.297	1.0
64.312	1.0
64.327	4.0
64.342	4.0
64.357	5.0
64.372	3.0
64.387	3.0
64.402	2.0
64.417	3.0
64.433	4.0
64.448	2.0
64.463	4.0
64.478	6.0
64.493	2.0
64.508	2.0
64.523	3.0
64.538	4.0
64.553	5.0
64.568	1.0
64.583	3.0
64.598	3.0
64.613	4.0
64.628	3.0
64.643	9.0
64.658	3.0
64.673	3.0
64.688	2.0
64.703	3.0
64.718	5.0
64.734	2.0
64.749	4.0
64.764	3.0
64.779	3.0
64.794	6.0
64.809	1.0
64.824	4.0
64.839	2.0
64.854	1.0
64.869	5.0
64.884	2.0
64.899	4.0
64.914	6.0
64.929	4.0
64.944	1.0
64.959	4.0
64.974	5.0
64.989	7.0
65.004	7.0
65.019	4.0
65.034	3.0
65.049	1.0
65.064	1.0
65.079	4.0
65.094	2.0
65.109	2.0
65.125	5.0
65.14	3.0
65.155	5.0
65.17	4.0
65.185	4.0
65.2	3.0
65.215	2.0
65.23	4.0
65.245	3.0
65.26	1.0
65.275	2.0
65.29	4.0
65.305	7.0
65.32	3.0
65.335	3.0
65.35	3.0
65.365	6.0
65.38	5.0
65.395	5.0
65.41	4.0
65.425	2.0
65.44	9.0
65.455	8.0
65.47	2.0
65.485	8.0
65.5	2.0
65.515	5.0
65.53	5.0
65.545	4.0
65.56	3.0
65.575	3.0
65.59	5.0
65.605	1.0
65.62	8.0
65.635	5.0
65.65	4.0
65.666	3.0
65.681	4.0
65.696	3.0
65.711	6.0
65.726	6.0
65.741	4.0
65.756	5.0
65.771	2.0
65.786	4.0
65.801	5.0
65.816	3.0
65.831	1.0
65.846	2.0
65.861	2.0
65.876	3.0
65.891	2.0
65.906	1.0
65.921	5.0
65.936	7.0
65.951	2.0
65.966	4.0
65.981	2.0
65.996	3.0
66.011	4.0
66.026	2.0
66.041	5.0
66.056	4.0
66.071	5.0
66.086	4.0
66.101	3.0
66.116	5.0
66.131	3.0
66.146	3.0
66.161	8.0
66.176	10.0
66.191	6.0
66.206	7.0
66.221	8.0
66.236	4.0
66.251	8.0
66.266	7.0
66.281	8.0
66.296	7.0
66.311	5.0
66.327	2.0
66.342	2.0
66.357	1.0
66.372	6.0
66.387	2.0
66.402	5.0
66.417	3.0
66.432	4.0
66.447	1.0
66.462	6.0
66.477	4.0
66.492	7.0
66.507	4.0
66.522	5.0
66.537	7.0
66.552	5.0
66.567	5.0
66.582	11.0
66.597	5.0
66.612	8.0
66.627	5.0
66.642	3.0
66.657	7.0
66.672	3.0
66.687	9.0
66.702	5.0
66.717	4.0
66.732	6.0
66.747	4.0
66.762	6.0
66.777	4.0
66.792	4.0
66.807	2.0
66.822	5.0
66.837	2.0
66.853	4.0
66.868	6.0
66.883	3.0
66.898	4.0
66.913	2.0
66.928	5.0
66.943	4.0
66.958	3.0
66.973	4.0
66.988	5.0
67.003	4.0
67.018	2.0
67.033	2.0
67.048	2.0
67.063	4.0
67.078	4.0
67.093	8.0
67.108	5.0
67.123	2.0
67.138	4.0
67.153	5.0
67.168	0.0
67.183	4.0
67.198	6.0
67.214	5.0
67.229	4.0
67.244	1.0
67.259	5.0
67.274	0.0
67.289	3.0
67.304	4.0
67.319	3.0
67.334	1.0
67.349	2.0
67.364	2.0
67.379	6.0
67.394	1.0
67.409	2.0
67.424	1.0
67.439	4.0
67.454	3.0
67.469	7.0
67.484	3.0
67.5	9.0
67.515	2.0
67.53	7.0
67.545	3.0
67.56	5.0
67.575	4.0
67.59	0.0
67.605	7.0
67.62	1.0
67.635	4.0
67.65	5.0
67.665	1.0
67.68	4.0
67.695	6.0
67.71	7.0
67.726	4.0
67.741	2.0
67.756	2.0
67.771	2.0
67.786	3.0
67.801	2.0
67.816	2.0
67.831	4.0
67.846	3.0
67.861	4.0
67.876	4.0
67.891	3.0
67.906	1.0
67.922	3.0
67.937	2.0
67.952	2.0
67.967	6.0
67.982	3.0
67.997	5.0
68.012	4.0
68.027	1.0
68.042	5.0
68.057	3.0
68.072	5.0
68.087	3.0
68.103	4.0
68.118	3.0
68.133	7.0
68.148	3.0
68.163	1.0
68.178	2.0
68.193	2.0
68.208	2.0
68.223	2.0
68.238	2.0
68.254	7.0
68.269	4.0
68.284	2.0
68.299	3.0
68.314	7.0
68.329	6.0
68.344	3.0
68.359	5.0
68.374	6.0
68.389	5.0
68.405	6.0
68.42	6.0
68.435	4.0
68.45	3.0
68.465	5.0
68.48	2.0
68.495	3.0
68.51	5.0
68.525	4.0
68.54	4.0
68.556	6.0
68.571	4.0
68.586	3.0
68.601	2.0
68.616	5.0
68.631	4.0
68.646	5.0
68.661	3.0
68.676	3.0
68.691	2.0
68.707	4.0
68.722	3.0
68.737	1.0
68.752	3.0
68.767	3.0
68.782	5.0
68.797	3.0
68.812	4.0
68.827	2.0
68.842	4.0
68.857	5.0
68.873	3.0
68.888	6.0
68.903	2.0
68.918	3.0
68.933	5.0
68.948	6.0
68.963	1.0
68.978	8.0
68.993	4.0
69.008	2.0
69.023	4.0
69.038	7.0
69.054	3.0
69.069	2.0
69.084	0.0
69.099	3.0
69.114	6.0
69.129	4.0
69.144	1.0
69.159	5.0
69.174	5.0
69.189	3.0
69.204	7.0
69.219	1.0
69.234	2.0
69.249	0.0
69.264	2.0
69.279	6.0
69.295	1.0
69.31	1.0
69.325	7.0
69.34	2.0
69.355	3.0
69.37	5.0
69.385	2.0
69.4	3.0
69.415	4.0
69.43	3.0
69.445	4.0
69.46	11.0
69.475	2.0
69.49	4.0
69.505	5.0
69.52	4.0
69.535	3.0
69.55	5.0
69.565	4.0
69.58	4.0
69.595	5.0
69.61	1.0
69.625	4.0
69.64	1.0
69.655	3.0
69.67	7.0
69.685	3.0
69.7	4.0
69.715	7.0
69.73	3.0
69.745	2.0
69.76	4.0
69.775	7.0
69.79	11.0
69.805	6.0
69.82	6.0
69.835	7.0
69.85	7.0
69.865	7.0
69.88	1.0
69.895	2.0
69.909	7.0
69.924	2.0
69.939	5.0
69.954	8.0
69.969	4.0
69.984	2.0
69.999	1.0
70.014	2.0
70.029	2.0
70.044	2.0
70.059	6.0
70.074	3.0
70.088	3.0
70.103	5.0
70.118	2.0
70.133	2.0
70.148	4.0
70.163	4.0
70.178	6.0
70.193	2.0
70.208	1.0
70.222	6.0
70.237	2.0
70.252	3.0
70.267	5.0
70.282	5.0
70.297	4.0
70.312	2.0
70.327	3.0
70.341	5.0
70.356	1.0
70.371	4.0
70.386	2.0
70.401	6.0
70.416	5.0
70.43	4.0
70.445	1.0
70.46	1.0
70.475	5.0
70.49	7.0
70.505	1.0
70.519	8.0
70.534	8.0
70.549	3.0
70.564	3.0
70.579	4.0
70.594	3.0
70.608	2.0
70.623	1.0
70.638	9.0
70.653	7.0
70.668	5.0
70.683	9.0
70.697	2.0
70.712	8.0
70.727	4.0
70.742	5.0
70.757	5.0
70.771	2.0
70.786	1.0
70.801	5.0
70.816	1.0
70.831	4.0
70.845	6.0
70.86	4.0
70.875	7.0
70.89	2.0
70.905	6.0
70.92	1.0
70.934	6.0
70.949	3.0
70.964	4.0
70.979	4.0
70.994	9.0
71.008	1.0
71.023	4.0
71.038	2.0
71.053	0.0
71.068	4.0
71.082	2.0
71.097	2.0
71.112	4.0
71.127	7.0
71.142	3.0
71.156	2.0
71.171	8.0
71.186	5.0
71.201	1.0
71.216	5.0
71.231	4.0
71.245	3.0
71.26	3.0
71.275	6.0
71.29	0.0
71.305	0.0
71.319	4.0
71.334	0.0
71.349	5.0
71.364	5.0
71.379	5.0
71.394	4.0
71.408	4.0
71.423	2.0
71.438	4.0
71.453	5.0
71.468	8.0
71.483	5.0
71.497	6.0
71.512	4.0
71.527	0.0
71.542	6.0
71.557	3.0
71.572	5.0
71.586	1.0
71.601	2.0
71.616	6.0
71.631	3.0
71.646	4.0
71.661	6.0
71.676	2.0
71.69	2.0
71.705	4.0
71.72	5.0
71.735	1.0
71.75	3.0
71.765	1.0
71.78	5.0
71.795	4.0
71.81	3.0
71.824	3.0
71.839	5.0
71.854	2.0
71.869	2.0
71.884	4.0
71.899	5.0
71.914	3.0
71.929	3.0
71.944	4.0
71.959	5.0
71.974	1.0
71.988	5.0
72.003	3.0
72.018	2.0
72.033	2.0
72.048	3.0
72.063	2.0
72.078	4.0
72.093	6.0
72.108	4.0
72.123	3.0
72.138	2.0
72.153	4.0
72.168	2.0
72.183	6.0
72.198	3.0
72.213	1.0
72.228	2.0
72.243	5.0
72.258	5.0
72.273	6.0
72.288	1.0
72.303	6.0
72.318	1.0
72.333	0.0
72.348	2.0
72.363	0.0
72.378	6.0
72.393	2.0
72.408	3.0
72.423	3.0
72.438	3.0
72.453	2.0
72.468	3.0
72.483	1.0
72.498	3.0
72.513	0.0
72.528	3.0
72.543	6.0
72.558	4.0
72.573	4.0
72.588	4.0
72.603	7.0
72.618	2.0
72.633	5.0
72.649	3.0
72.664	2.0
72.679	6.0
72.694	1.0
72.709	3.0
72.724	2.0
72.739	4.0
72.754	2.0
72.769	5.0
72.784	4.0
72.799	3.0
72.814	1.0
72.829	5.0
72.845	0.0
72.86	2.0
72.875	4.0
72.89	1.0
72.905	1.0
72.92	2.0
72.935	2.0
72.95	4.0
72.965	1.0
72.98	1.0
72.996	4.0
73.011	6.0
73.026	3.0
73.041	6.0
73.056	2.0
73.071	1.0
73.086	5.0
73.101	6.0
73.117	6.0
73.132	3.0
73.147	2.0
73.162	1.0
73.177	2.0
73.192	3.0
73.207	7.0
73.222	1.0
73.238	6.0
73.253	3.0
73.268	3.0
73.283	9.0
73.298	2.0
73.313	3.0
73.328	11.0
73.343	4.0
73.359	3.0
73.374	4.0
73.389	1.0
73.404	2.0
73.419	2.0
73.434	6.0
73.449	4.0
73.465	3.0
73.48	4.0
73.495	3.0
73.51	7.0
73.525	2.0
73.54	2.0
73.556	3.0
73.571	2.0
73.586	4.0
73.601	0.0
73.616	7.0
73.631	1.0
73.646	3.0
73.662	4.0
73.677	1.0
73.692	1.0
73.707	3.0
73.722	8.0
73.737	4.0
73.752	3.0
73.768	2.0
73.783	3.0
73.798	4.0
73.813	3.0
73.828	5.0
73.843	5.0
73.859	3.0
73.874	3.0
73.889	4.0
73.904	6.0
73.919	1.0
73.934	4.0
73.949	3.0
73.965	1.0
73.98	2.0
73.995	5.0
74.01	3.0
74.025	4.0
74.04	4.0
74.056	1.0
74.071	2.0
74.086	5.0
74.101	1.0
74.116	3.0
74.131	3.0
74.146	7.0
74.162	4.0
74.177	9.0
74.192	6.0
74.207	9.0
74.222	5.0
74.237	5.0
74.252	3.0
74.268	7.0
74.283	3.0
74.298	2.0
74.313	4.0
74.328	2.0
74.343	2.0
74.358	3.0
74.374	4.0
74.389	3.0
74.404	4.0
74.419	2.0
74.434	2.0
74.449	4.0
74.464	6.0
74.48	2.0
74.495	4.0
74.51	4.0
74.525	6.0
74.54	3.0
74.555	5.0
74.57	2.0
74.586	7.0
74.601	8.0
74.616	8.0
74.631	6.0
74.646	3.0
74.661	4.0
74.676	5.0
74.691	4.0
74.707	6.0
74.722	2.0
74.737	6.0
74.752	6.0
74.767	2.0
74.782	2.0
74.797	1.0
74.813	4.0
74.828	5.0
74.843	2.0
74.858	4.0
74.873	2.0
74.888	6.0
74.903	4.0
74.918	5.0
74.934	2.0
74.949	1.0
74.964	1.0
74.979	4.0
74.994	2.0
75.009	5.0
75.024	5.0
75.04	2.0
75.055	3.0
75.07	4.0
75.085	3.0
75.1	6.0
75.115	7.0
75.13	3.0
75.145	1.0
75.161	3.0
75.176	1.0
75.191	0.0
75.206	0.0
75.221	1.0
75.236	5.0
75.251	2.0
75.266	4.0
75.282	4.0
75.297	4.0
75.312	2.0
75.327	5.0
75.342	5.0
75.357	3.0
75.372	3.0
75.387	1.0
75.403	3.0
75.418	1.0
75.433	8.0
75.448	4.0
75.463	3.0
75.478	6.0
75.493	1.0
75.509	3.0
75.524	4.0
75.539	4.0
75.554	6.0
75.569	4.0
75.584	2.0
75.599	2.0
75.614	6.0
75.63	6.0
75.645	3.0
75.66	3.0
75.675	4.0
75.69	5.0
75.705	3.0
75.72	3.0
75.735	0.0
75.751	4.0
75.766	4.0
75.781	0.0
75.796	1.0
75.811	3.0
75.826	3.0
75.841	2.0
75.856	1.0
75.872	6.0
75.887	1.0
75.902	3.0
75.917	3.0
75.932	3.0
75.947	2.0
75.962	5.0
75.977	3.0
75.993	2.0
76.008	4.0
76.023	5.0
76.038	0.0
76.053	2.0
76.068	5.0
76.083	1.0
76.098	5.0
76.114	4.0
76.129	1.0
76.144	3.0
76.159	1.0
76.174	5.0
76.189	1.0
76.204	1.0
76.22	3.0
76.235	1.0
76.25	2.0
76.265	1.0
76.28	4.0
76.295	3.0
76.31	1.0
76.325	3.0
76.341	7.0
76.356	5.0
76.371	5.0
76.386	2.0
76.401	3.0
76.416	2.0
76.431	3.0
76.446	5.0
76.462	1.0
76.477	4.0
76.492	4.0
76.507	5.0
76.522	1.0
76.537	5.0
76.552	4.0
76.567	2.0
76.583	4.0
76.598	4.0
76.613	5.0
76.628	1.0
76.643	5.0
76.658	1.0
76.673	3.0
76.688	6.0
76.704	3.0
76.719	5.0
76.734	3.0
76.749	2.0
76.764	2.0
76.779	3.0
76.794	6.0
76.809	4.0
76.824	3.0
76.84	3.0
76.855	5.0
76.87	4.0
76.885	5.0
76.9	1.0
76.915	4.0
76.93	4.0
76.945	1.0
76.96	2.0
76.976	3.0
76.991	2.0
77.006	1.0
77.021	5.0
77.036	3.0
77.051	2.0
77.066	2.0
77.081	1.0
77.096	3.0
77.112	1.0
77.127	3.0
77.142	4.0
77.157	2.0
77.172	1.0
77.187	2.0
77.202	1.0
77.217	0.0
77.232	5.0
77.247	8.0
77.263	1.0
77.278	4.0
77.293	4.0
77.308	3.0
77.323	4.0
77.338	6.0
77.353	3.0
77.368	6.0
77.383	3.0
77.398	2.0
77.413	2.0
77.428	3.0
77.444	2.0
77.459	1.0
77.474	3.0
77.489	5.0
77.504	3.0
77.519	7.0
77.534	3.0
77.549	0.0
77.564	9.0
77.579	8.0
77.594	5.0
77.609	7.0
77.624	4.0
77.64	3.0
77.655	5.0
77.67	7.0
77.685	0.0
77.7	5.0
77.715	6.0
77.73	2.0
77.745	4.0
77.76	1.0
77.775	3.0
77.79	5.0
77.805	2.0
77.82	2.0
77.835	7.0
77.85	2.0
77.865	8.0
77.88	1.0
77.895	3.0
77.91	1.0
77.926	3.0
77.941	3.0
77.956	3.0
77.971	2.0
77.986	3.0
78.001	10.0
78.016	1.0
78.031	1.0
78.046	3.0
78.061	7.0
78.076	5.0
78.091	2.0
78.106	2.0
78.121	1.0
78.136	5.0
78.151	4.0
78.166	2.0
78.181	1.0
78.196	2.0
78.211	2.0
78.226	2.0
78.241	3.0
78.256	5.0
78.271	2.0
78.286	1.0
78.301	4.0
78.316	3.0
78.331	2.0
78.346	6.0
78.361	4.0
78.376	3.0
78.391	1.0
78.406	3.0
78.421	5.0
78.436	3.0
78.451	5.0
78.466	4.0
78.481	1.0
78.496	1.0
78.511	2.0
78.526	1.0
78.541	4.0
78.556	4.0
78.571	3.0
78.586	2.0
78.601	4.0
78.616	4.0
78.631	3.0
78.646	3.0
78.661	4.0
78.676	2.0
78.691	2.0
78.706	4.0
78.721	1.0
78.736	1.0
78.751	3.0
78.766	1.0
78.781	2.0
78.796	1.0
78.811	2.0
78.826	4.0
78.841	1.0
78.856	4.0
78.871	0.0
78.885	3.0
78.9	2.0
78.915	3.0
78.93	2.0
78.945	1.0
78.96	1.0
78.975	5.0
78.99	6.0
79.005	2.0
79.02	0.0
79.035	2.0
79.05	3.0
79.065	2.0
79.08	4.0
79.095	3.0
79.11	0.0
79.125	1.0
79.14	2.0
79.155	5.0
79.17	3.0
79.185	6.0
79.2	0.0
79.215	3.0
79.23	1.0
79.245	1.0
79.26	5.0
79.275	4.0
79.29	6.0
79.304	6.0
79.319	3.0
79.334	4.0
79.349	6.0
79.364	1.0
79.379	7.0
79.394	3.0
79.409	3.0
79.424	3.0
79.439	3.0
79.454	3.0
79.469	3.0
79.484	5.0
79.499	5.0
79.514	2.0
79.529	0.0
79.544	1.0
79.559	1.0
79.574	5.0
79.589	5.0
79.604	4.0
79.619	4.0
79.634	1.0
79.649	2.0
79.664	2.0
79.679	3.0
79.693	7.0
79.708	4.0
79.723	0.0
79.738	2.0
79.753	5.0
79.768	4.0
79.783	2.0
79.798	5.0
79.813	0.0
79.828	3.0
79.843	2.0
79.858	3.0
79.873	1.0
79.888	7.0
79.903	7.0
79.918	2.0
79.933	4.0
79.948	8.0
79.963	7.0
79.978	1.0
79.993	3.0
80.008	3.0
80.023	5.0
80.038	5.0
80.053	1.0
80.068	4.0
80.083	2.0
80.098	2.0
80.113	1.0
80.128	5.0
80.143	6.0
80.158	5.0
80.173	4.0
80.188	5.0
80.202	2.0
80.217	4.0
80.232	2.0
80.247	5.0
80.262	4.0
80.277	2.0
80.292	3.0
80.307	9.0
80.322	5.0
80.337	5.0
80.352	2.0
80.367	3.0
80.382	5.0
80.397	2.0
80.412	1.0
80.427	2.0
80.442	1.0
80.457	0.0
80.472	5.0
80.487	6.0
80.502	6.0
80.517	3.0
80.532	5.0
80.547	2.0
80.562	5.0
80.577	5.0
80.592	4.0
80.607	1.0
80.622	5.0
80.637	4.0
80.652	4.0
80.667	4.0
80.682	2.0
80.697	4.0
80.712	3.0
80.727	6.0
80.742	0.0
80.757	3.0
80.772	3.0
80.787	2.0
80.802	0.0
80.817	1.0
80.832	2.0
80.847	3.0
80.862	4.0
80.877	3.0
80.892	8.0
80.907	3.0
80.922	2.0
80.937	9.0
80.952	3.0
80.967	2.0
80.982	9.0
80.997	5.0
81.012	2.0
81.027	5.0
81.042	3.0
81.057	2.0
81.072	3.0
81.087	3.0
81.101	3.0
81.116	1.0
81.131	1.0
81.146	4.0
81.161	5.0
81.176	2.0
81.191	1.0
81.206	2.0
81.221	3.0
81.236	1.0
81.251	5.0
81.266	1.0
81.281	3.0
81.296	1.0
81.311	3.0
81.326	3.0
81.341	1.0
81.356	1.0
81.371	4.0
81.386	0.0
81.401	1.0
81.416	4.0
81.431	4.0
81.446	2.0
81.461	2.0
81.476	3.0
81.491	4.0
81.506	2.0
81.521	1.0
81.536	2.0
81.55	0.0
81.565	3.0
81.58	2.0
81.595	2.0
81.61	4.0
81.625	3.0
81.64	1.0
81.655	2.0
81.67	1.0
81.685	1.0
81.7	1.0
81.715	3.0
81.73	2.0
81.745	4.0
81.76	0.0
81.775	0.0
81.79	0.0
81.805	6.0
81.819	2.0
81.834	6.0
81.849	5.0
81.864	8.0
81.879	9.0
81.894	3.0
81.909	5.0
81.924	4.0
81.939	2.0
81.954	0.0
81.969	1.0
81.984	6.0
81.999	2.0
82.013	1.0
82.028	1.0
82.043	1.0
82.058	2.0
82.073	1.0
82.088	4.0
82.103	5.0
82.118	1.0
82.133	1.0
82.148	3.0
82.163	3.0
82.177	4.0
82.192	6.0
82.207	1.0
82.222	4.0
82.237	6.0
82.252	2.0
82.267	4.0
82.282	2.0
82.297	4.0
82.312	6.0
82.326	1.0
82.341	2.0
82.356	1.0
82.371	4.0
82.386	2.0
82.401	4.0
82.416	2.0
82.431	3.0
82.445	3.0
82.46	2.0
82.475	1.0
82.49	3.0
82.505	3.0
82.52	5.0
82.535	4.0
82.55	2.0
82.565	1.0
82.579	4.0
82.594	2.0
82.609	5.0
82.624	4.0
82.639	2.0
82.654	0.0
82.669	2.0
82.684	2.0
82.698	4.0
82.713	2.0
82.728	6.0
82.743	2.0
82.758	2.0
82.773	1.0
82.788	1.0
82.803	1.0
82.817	2.0
82.832	4.0
82.847	8.0
82.862	1.0
82.877	4.0
82.892	4.0
82.907	5.0
82.922	5.0
82.937	4.0
82.951	2.0
82.966	4.0
82.981	1.0
82.996	3.0
83.011	3.0
83.026	5.0
83.041	4.0
83.056	3.0
83.07	6.0
83.085	1.0
83.1	2.0
83.115	1.0
83.13	1.0
83.145	3.0
83.16	2.0
83.175	3.0
83.19	2.0
83.204	3.0
83.219	2.0
83.234	2.0
83.249	0.0
83.264	2.0
83.279	3.0
83.294	3.0
83.309	2.0
83.324	5.0
83.339	2.0
83.353	4.0
83.368	1.0
83.383	4.0
83.398	3.0
83.413	1.0
83.428	6.0
83.443	3.0
83.458	2.0
83.473	2.0
83.488	1.0
83.503	4.0
83.517	3.0
83.532	2.0
83.547	7.0
83.562	1.0
83.577	1.0
83.592	2.0
83.607	4.0
83.622	7.0
83.637	3.0
83.652	6.0
83.667	5.0
83.682	2.0
83.697	6.0
83.712	2.0
83.727	3.0
83.741	2.0
83.756	4.0
83.771	2.0
83.786	5.0
83.801	7.0
83.816	4.0
83.831	3.0
83.846	1.0
83.861	4.0
83.876	2.0
83.891	4.0
83.906	3.0
83.921	6.0
83.936	1.0
83.951	2.0
83.966	1.0
83.981	3.0
83.996	1.0
84.011	1.0
84.026	3.0
84.041	4.0
84.056	5.0
84.071	4.0
84.086	4.0
84.101	2.0
84.116	1.0
84.131	0.0
84.146	2.0
84.161	5.0
84.176	1.0
84.191	2.0
84.206	0.0
84.221	3.0
84.236	8.0
84.251	2.0
84.266	7.0
84.281	4.0
84.296	2.0
84.311	3.0
84.326	7.0
84.341	3.0
84.356	3.0
84.371	5.0
84.386	3.0
84.401	6.0
84.416	0.0
84.431	1.0
84.446	3.0
84.461	3.0
84.476	3.0
84.492	6.0
84.507	2.0
84.522	4.0
84.537	3.0
84.552	3.0
84.567	2.0
84.582	2.0
84.597	7.0
84.612	4.0
84.627	3.0
84.642	4.0
84.657	2.0
84.672	7.0
84.687	2.0
84.702	3.0
84.717	2.0
84.733	3.0
84.748	2.0
84.763	1.0
84.778	1.0
84.793	2.0
84.808	2.0
84.823	3.0
84.838	2.0
84.853	4.0
84.868	0.0
84.883	3.0
84.898	1.0
84.913	5.0
84.929	1.0
84.944	3.0
84.959	2.0
84.974	0.0
84.989	4.0
85.004	2.0
85.019	8.0
85.034	4.0
85.049	4.0
85.064	3.0
85.079	6.0
85.094	6.0
85.11	6.0
85.125	2.0
85.14	5.0
85.155	5.0
85.17	3.0
85.185	2.0
85.2	2.0
85.215	1.0
85.23	8.0
85.245	1.0
85.26	1.0
85.276	2.0
85.291	2.0
85.306	3.0
85.321	2.0
85.336	3.0
85.351	2.0
85.366	6.0
85.381	4.0
85.396	3.0
85.411	0.0
85.426	1.0
85.441	2.0
85.457	3.0
85.472	2.0
85.487	2.0
85.502	3.0
85.517	3.0
85.532	0.0
85.547	3.0
85.562	3.0
85.577	3.0
85.592	4.0
85.607	2.0
85.622	2.0
85.637	2.0
85.653	0.0
85.668	5.0
85.683	5.0
85.698	2.0
85.713	1.0
85.728	3.0
85.743	3.0
85.758	3.0
85.773	5.0
85.788	1.0
85.803	2.0
85.818	3.0
85.833	3.0
85.848	5.0
85.863	1.0
85.879	3.0
85.894	5.0
85.909	1.0
85.924	1.0
85.939	3.0
85.954	2.0
85.969	1.0
85.984	2.0
85.999	3.0
86.014	5.0
86.029	4.0
86.044	1.0
86.059	5.0
86.074	2.0
86.089	2.0
86.104	2.0
86.119	2.0
86.134	2.0
86.149	4.0
86.164	3.0
86.179	5.0
86.194	1.0
86.209	4.0
86.224	1.0
86.239	6.0
86.254	3.0
86.269	1.0
86.284	5.0
86.299	1.0
86.314	2.0
86.33	4.0
86.345	2.0
86.36	2.0
86.375	5.0
86.39	0.0
86.405	4.0
86.42	2.0
86.435	5.0
86.45	2.0
86.465	1.0
86.48	4.0
86.495	6.0
86.51	0.0
86.525	3.0
86.54	1.0
86.555	1.0
86.57	3.0
86.585	1.0
86.6	2.0
86.615	3.0
86.63	2.0
86.645	3.0
86.659	1.0
86.674	5.0
86.689	4.0
86.704	5.0
86.719	6.0
86.734	0.0
86.749	3.0
86.764	0.0
86.779	3.0
86.794	6.0
86.809	6.0
86.824	5.0
86.839	7.0
86.854	6.0
86.869	8.0
86.884	2.0
86.899	8.0
86.914	4.0
86.929	5.0
86.944	2.0
86.959	1.0
86.974	1.0
86.989	2.0
87.004	3.0
87.019	2.0
87.034	2.0
87.049	4.0
87.064	4.0
87.079	2.0
87.094	4.0
87.109	1.0
87.124	1.0
87.139	3.0
87.154	5.0
87.169	1.0
87.184	3.0
87.199	2.0
87.214	5.0
87.229	2.0
87.244	4.0
87.259	1.0
87.274	3.0
87.289	3.0
87.304	4.0
87.319	5.0
87.334	2.0
87.349	1.0
87.364	5.0
87.379	1.0
87.394	3.0
87.409	0.0
87.424	3.0
87.438	2.0
87.453	8.0
87.468	3.0
87.483	7.0
87.498	4.0
87.513	5.0
87.528	4.0
87.543	9.0
87.558	2.0
87.573	5.0
87.588	2.0
87.603	0.0
87.618	2.0
87.633	7.0
87.648	4.0
87.663	4.0
87.678	5.0
87.693	2.0
87.708	4.0
87.723	6.0
87.738	2.0
87.753	0.0
87.768	5.0
87.783	3.0
87.798	4.0
87.813	5.0
87.828	2.0
87.843	2.0
87.858	4.0
87.873	3.0
87.888	1.0
87.903	3.0
87.918	3.0
87.933	3.0
87.948	4.0
87.963	0.0
87.978	5.0
87.993	2.0
88.008	2.0
88.023	0.0
88.038	4.0
88.053	3.0
88.068	1.0
88.083	3.0
88.098	2.0
88.113	2.0
88.128	1.0
88.143	4.0
88.158	1.0
88.174	4.0
88.189	5.0
88.204	2.0
88.219	4.0
88.234	4.0
88.249	6.0
88.264	4.0
88.279	3.0
88.294	2.0
88.309	3.0
88.324	4.0
88.339	3.0
88.354	2.0
88.369	2.0
88.384	5.0
88.399	3.0
88.414	4.0
88.429	3.0
88.444	2.0
88.459	1.0
88.474	4.0
88.489	2.0
88.504	1.0
88.519	4.0
88.534	5.0
88.549	1.0
88.564	2.0
88.58	3.0
88.595	6.0
88.61	2.0
88.625	3.0
88.64	5.0
88.655	3.0
88.67	3.0
88.685	5.0
88.7	3.0
88.715	2.0
88.73	2.0
88.745	6.0
88.76	7.0
88.775	2.0
88.79	2.0
88.805	2.0
88.82	1.0
88.835	3.0
88.85	2.0
88.865	3.0
88.88	8.0
88.895	1.0
88.911	2.0
88.926	3.0
88.941	0.0
88.956	2.0
88.971	3.0
88.986	2.0
89.001	3.0
89.016	0.0
89.031	2.0
89.046	4.0
89.061	1.0
89.076	0.0
89.091	4.0
89.106	3.0
89.121	0.0
89.136	5.0
89.151	2.0
89.166	3.0
89.181	1.0
89.196	3.0
89.211	2.0
89.227	4.0
89.242	1.0
89.257	5.0
89.272	3.0
89.287	2.0
89.302	2.0
89.317	2.0
89.332	6.0
89.347	1.0
89.362	5.0
89.377	4.0
89.392	2.0
89.407	6.0
89.422	3.0
89.437	4.0
89.452	4.0
89.467	3.0
89.482	4.0
89.497	1.0
89.512	2.0
89.527	3.0
89.542	0.0
89.557	3.0
89.572	0.0
89.587	1.0
89.602	0.0
89.617	2.0
89.632	1.0
89.647	6.0
89.662	3.0
89.677	0.0
89.693	2.0
89.708	3.0
89.723	3.0
89.738	0.0
89.753	7.0
89.768	6.0
89.783	3.0
89.798	4.0
89.813	3.0
89.828	0.0
89.843	3.0
89.858	3.0
89.873	4.0
89.888	3.0
89.903	6.0
89.918	4.0
89.933	3.0
89.948	0.0
89.963	1.0
89.978	0.0
89.993	3.0
90.008	4.0
90.023	3.0
90.038	0.0
90.053	2.0
90.068	6.0
90.083	3.0
90.097	2.0
90.112	2.0
90.127	1.0
90.142	1.0
90.157	1.0
90.172	4.0
90.187	2.0
90.202	1.0
90.217	9.0
90.232	4.0
90.247	4.0
90.262	4.0
90.277	3.0
90.292	5.0
90.307	8.0
90.322	5.0
90.337	3.0
90.352	2.0
90.367	1.0
90.382	1.0
90.397	0.0
90.412	4.0
90.427	4.0
90.442	3.0
90.457	2.0
90.472	3.0
90.487	3.0
90.501	0.0
90.516	5.0
90.531	0.0
90.546	1.0
90.561	1.0
90.576	1.0
90.591	3.0
90.606	0.0
90.621	5.0
90.636	1.0
90.651	5.0
90.666	3.0
90.681	3.0
90.696	3.0
90.711	2.0
90.726	1.0
90.741	5.0
90.755	2.0
90.77	1.0
90.785	1.0
90.8	4.0
90.815	2.0
90.83	3.0
90.845	4.0
90.86	5.0
90.875	0.0
90.89	7.0
90.905	2.0
90.92	3.0
90.935	10.0
90.95	4.0
90.965	4.0
90.979	5.0
90.994	3.0
91.009	5.0
91.024	2.0
91.039	4.0
91.054	3.0
91.069	4.0
91.084	4.0
91.099	1.0
91.114	4.0
91.129	3.0
91.144	4.0
91.159	2.0
91.174	4.0
91.188	6.0
91.203	4.0
91.218	2.0
91.233	3.0
91.248	5.0
91.263	4.0
91.278	1.0
91.293	2.0
91.308	3.0
91.323	3.0
91.338	4.0
91.353	3.0
91.368	3.0
91.383	4.0
91.398	3.0
91.412	5.0
91.427	4.0
91.442	4.0
91.457	3.0
91.472	2.0
91.487	4.0
91.502	3.0
91.517	6.0
91.532	2.0
91.547	2.0
91.562	1.0
91.577	4.0
91.592	4.0
91.607	1.0
91.622	1.0
91.637	5.0
91.652	2.0
91.666	3.0
91.681	2.0
91.696	3.0
91.711	5.0
91.726	4.0
91.741	4.0
91.756	2.0
91.771	2.0
91.786	3.0
91.801	0.0
91.816	2.0
91.831	1.0
91.846	5.0
91.861	4.0
91.876	5.0
91.891	9.0
91.906	1.0
91.921	6.0
91.936	1.0
91.951	2.0
91.966	3.0
91.981	3.0
91.995	6.0
92.01	0.0
92.025	5.0
92.04	3.0
92.055	5.0
92.07	4.0
92.085	3.0
92.1	3.0
92.115	5.0
92.13	5.0
92.145	5.0
92.16	1.0
92.175	2.0
92.19	2.0
92.205	2.0
92.22	2.0
92.235	2.0
92.25	2.0
92.265	1.0
92.28	2.0
92.295	2.0
92.31	4.0
92.325	3.0
92.34	2.0
92.355	3.0
92.37	1.0
92.385	3.0
92.4	5.0
92.415	0.0
92.43	6.0
92.445	2.0
92.46	3.0
92.475	2.0
92.49	2.0
92.505	2.0
92.52	3.0
92.535	2.0
92.55	3.0
92.565	7.0
92.58	2.0
92.595	2.0
92.61	1.0
92.625	4.0
92.64	4.0
92.655	7.0
92.67	3.0
92.685	3.0
92.7	2.0
92.715	6.0
92.73	0.0
92.745	4.0
92.76	1.0
92.775	4.0
92.79	2.0
92.805	6.0
92.82	4.0
92.835	2.0
92.85	4.0
92.865	2.0
92.88	1.0
92.895	4.0
92.91	1.0
92.925	1.0
92.94	0.0
92.955	5.0
92.97	2.0
92.985	1.0
93.0	1.0
93.015	1.0
93.03	5.0
93.045	4.0
93.06	2.0
93.075	4.0
93.09	3.0
93.105	2.0
93.12	2.0
93.135	6.0
93.15	2.0
93.165	2.0
93.18	3.0
93.195	3.0
93.21	2.0
93.225	2.0
93.24	1.0
93.255	0.0
93.27	2.0
93.285	0.0
93.3	5.0
93.315	5.0
93.33	4.0
93.345	1.0
93.36	2.0
93.375	1.0
93.39	2.0
93.405	2.0
93.42	4.0
93.435	5.0
93.45	4.0
93.465	1.0
93.48	2.0
93.495	4.0
93.51	4.0
93.525	4.0
93.54	1.0
93.555	0.0
93.57	4.0
93.585	3.0
93.6	6.0
93.615	7.0
93.63	2.0
93.645	1.0
93.66	1.0
93.675	1.0
93.69	1.0
93.705	2.0
93.72	1.0
93.735	2.0
93.75	4.0
93.765	4.0
93.78	0.0
93.795	2.0
93.81	4.0
93.824	6.0
93.839	5.0
93.854	3.0
93.869	2.0
93.884	1.0
93.899	2.0
93.914	3.0
93.929	2.0
93.944	2.0
93.959	1.0
93.974	2.0
93.989	1.0
94.004	1.0
94.019	2.0
94.034	8.0
94.049	2.0
94.064	5.0
94.079	1.0
94.094	2.0
94.108	1.0
94.123	7.0
94.138	3.0
94.153	3.0
94.168	2.0
94.183	3.0
94.198	4.0
94.213	5.0
94.228	0.0
94.243	3.0
94.258	7.0
94.273	2.0
94.288	5.0
94.302	4.0
94.317	3.0
94.332	7.0
94.347	6.0
94.362	3.0
94.377	6.0
94.392	5.0
94.407	5.0
94.422	2.0
94.437	3.0
94.452	4.0
94.466	4.0
94.481	4.0
94.496	3.0
94.511	3.0
94.526	4.0
94.541	8.0
94.556	4.0
94.571	7.0
94.586	3.0
94.601	3.0
94.615	3.0
94.63	3.0
94.645	5.0
94.66	0.0
94.675	3.0
94.69	5.0
94.705	4.0
94.72	5.0
94.735	3.0
94.749	1.0
94.764	4.0
94.779	0.0
94.794	4.0
94.809	3.0
94.824	2.0
94.839	1.0
94.854	2.0
94.868	3.0
94.883	4.0
94.898	3.0
94.913	2.0
94.928	5.0
94.943	2.0
94.958	2.0
94.973	3.0
94.987	1.0
95.002	4.0
95.017	3.0
95.032	0.0
95.047	3.0
95.062	0.0
95.077	5.0
95.092	7.0
95.106	5.0
95.121	2.0
95.136	5.0
95.151	1.0
95.166	5.0
95.181	5.0
95.196	2.0
95.211	1.0
95.226	3.0
95.24	3.0
95.255	3.0
95.27	5.0
95.285	5.0
95.3	5.0
95.315	5.0
95.33	0.0
95.345	6.0
95.359	2.0
95.374	1.0
95.389	3.0
95.404	3.0
95.419	4.0
95.434	7.0
95.449	2.0
95.464	5.0
95.478	3.0
95.493	2.0
95.508	4.0
95.523	2.0
95.538	2.0
95.553	1.0
95.568	2.0
95.583	1.0
95.597	6.0
95.612	2.0
95.627	4.0
95.642	3.0
95.657	5.0
95.672	1.0
95.687	4.0
95.702	2.0
95.717	5.0
95.731	4.0
95.746	1.0
95.761	1.0
95.776	2.0
95.791	4.0
95.806	3.0
95.821	1.0
95.836	1.0
95.851	3.0
95.866	5.0
95.88	3.0
95.895	6.0
95.91	3.0
95.925	5.0
95.94	6.0
95.955	3.0
95.97	3.0
95.985	7.0
96.0	5.0
96.015	4.0
96.029	3.0
96.044	3.0
96.059	3.0
96.074	4.0
96.089	4.0
96.104	4.0
96.119	3.0
96.134	5.0
96.149	5.0
96.164	3.0
96.179	5.0
96.194	3.0
96.208	2.0
96.223	1.0
96.238	1.0
96.253	3.0
96.268	3.0
96.283	2.0
96.298	2.0
96.313	3.0
96.328	3.0
96.343	4.0
96.358	3.0
96.373	3.0
96.388	4.0
96.403	2.0
96.417	3.0
96.432	1.0
96.447	3.0
96.462	6.0
96.477	5.0
96.492	2.0
96.507	2.0
96.522	3.0
96.537	3.0
96.552	1.0
96.567	1.0
96.582	4.0
96.597	3.0
96.612	0.0
96.627	4.0
96.642	0.0
96.656	5.0
96.671	1.0
96.686	3.0
96.701	2.0
96.716	1.0
96.731	4.0
96.746	5.0
96.761	2.0
96.776	4.0
96.791	3.0
96.806	2.0
96.821	3.0
96.836	2.0
96.851	3.0
96.866	3.0
96.881	2.0
96.896	7.0
96.911	6.0
96.926	4.0
96.94	2.0
96.955	0.0
96.97	2.0
96.985	8.0
97.0	2.0
97.015	3.0
97.03	2.0
97.045	2.0
97.06	3.0
97.075	5.0
97.09	5.0
97.105	2.0
97.12	2.0
97.135	5.0
97.15	5.0
97.165	3.0
97.18	5.0
97.195	4.0
97.21	3.0
97.225	1.0
97.239	5.0
97.254	1.0
97.269	1.0
97.284	1.0
97.299	5.0
97.314	5.0
97.329	4.0
97.344	3.0
97.359	5.0
97.374	2.0
97.389	7.0
97.404	2.0
97.419	2.0
97.434	3.0
97.449	3.0
97.464	3.0
97.479	2.0
97.494	3.0
97.509	0.0
97.524	6.0
97.538	1.0
97.553	4.0
97.568	1.0
97.583	2.0
97.598	3.0
97.613	3.0
97.628	3.0
97.643	3.0
97.658	4.0
97.673	2.0
97.688	5.0
97.703	3.0
97.718	5.0
97.733	5.0
97.748	3.0
97.763	2.0
97.778	3.0
97.792	6.0
97.807	4.0
97.822	5.0
97.837	6.0
97.852	4.0
97.867	0.0
97.882	2.0
97.897	2.0
97.912	7.0
97.927	6.0
97.942	1.0
97.957	0.0
97.972	3.0
97.987	2.0
98.001	3.0
98.016	1.0
98.031	1.0
98.046	5.0
98.061	3.0
98.076	4.0
98.091	4.0
98.106	5.0
98.121	3.0
98.136	3.0
98.151	2.0
98.166	2.0
98.181	6.0
98.195	3.0
98.21	1.0
98.225	3.0
98.24	3.0
98.255	2.0
98.27	3.0
98.285	3.0
98.3	1.0
98.315	2.0
98.33	4.0
98.345	3.0
98.359	4.0
98.374	1.0
98.389	1.0
98.404	5.0
98.419	3.0
98.434	3.0
98.449	2.0
98.464	2.0
98.479	3.0
98.494	2.0
98.508	3.0
98.523	1.0
98.538	1.0
98.553	2.0
98.568	5.0
98.583	6.0
98.598	2.0
98.613	3.0
98.628	4.0
98.642	2.0
98.657	3.0
98.672	2.0
98.687	2.0
98.702	3.0
98.717	4.0
98.732	3.0
98.747	2.0
98.762	6.0
98.776	5.0
98.791	4.0
98.806	4.0
98.821	5.0
98.836	0.0
98.851	0.0
98.866	2.0
98.881	2.0
98.896	2.0
98.91	2.0
98.925	2.0
98.94	0.0
98.955	6.0
98.97	2.0
98.985	3.0
99.0	4.0
99.015	4.0
99.029	3.0
99.044	4.0
99.059	3.0
99.074	0.0
99.089	5.0
99.104	0.0
99.119	3.0
99.133	3.0
99.148	2.0
99.163	1.0
99.178	0.0
99.193	1.0
99.208	4.0
99.223	1.0
99.238	2.0
99.252	1.0
99.267	3.0
99.282	4.0
99.297	3.0
99.312	2.0
99.327	4.0
99.342	3.0
99.356	3.0
99.371	3.0
99.386	6.0
99.401	4.0
99.416	3.0
99.431	1.0
99.446	5.0
99.461	5.0
99.475	4.0
99.49	3.0
99.505	5.0
99.52	4.0
99.535	4.0
99.55	2.0
99.565	3.0
99.579	1.0
99.594	0.0
99.609	3.0
99.624	5.0
99.639	7.0
99.654	0.0
99.669	2.0
99.683	2.0
99.698	1.0
99.713	4.0
99.728	5.0
99.743	3.0
99.758	3.0
99.772	1.0
99.787	2.0
99.802	2.0
99.817	7.0
99.832	1.0
99.847	3.0
99.862	6.0
99.876	3.0
99.891	2.0
99.906	2.0
99.921	2.0
99.936	3.0
99.951	4.0
99.966	3.0
99.98	0.0
99.995	3.0
100.01	4.0
100.025	4.0
100.04	0.0
100.055	3.0
100.069	1.0
100.084	0.0
100.099	2.0
100.114	7.0
100.129	2.0
100.144	3.0
100.159	2.0
100.173	0.0
100.188	6.0
100.203	0.0
100.218	2.0
100.233	2.0
100.248	6.0
100.262	0.0
100.277	6.0
100.292	1.0
100.307	4.0
100.322	4.0
100.337	2.0
100.351	1.0
100.366	6.0
100.381	3.0
100.396	6.0
100.411	4.0
100.426	4.0
100.441	0.0
100.455	3.0
100.47	3.0
100.485	3.0
100.5	0.0
100.515	2.0
100.53	3.0
100.544	1.0
100.559	1.0
100.574	6.0
100.589	0.0
100.604	1.0
100.619	2.0
100.633	3.0
100.648	1.0
100.663	2.0
100.678	5.0
100.693	5.0
100.708	5.0
100.722	4.0
100.737	4.0
100.752	4.0
100.767	3.0
100.782	4.0
100.796	5.0
100.811	1.0
100.826	1.0
100.841	2.0
100.856	3.0
100.871	1.0
100.885	3.0
100.9	1.0
100.915	5.0
100.93	1.0
100.945	4.0
100.96	3.0
100.974	3.0
100.989	4.0
101.004	2.0
101.019	1.0
101.034	0.0
101.048	6.0
101.063	0.0
101.078	5.0
101.093	0.0
101.108	2.0
101.123	7.0
101.137	2.0
101.152	1.0
101.167	3.0
101.182	6.0
101.197	4.0
101.211	3.0
101.226	3.0
101.241	5.0
101.256	4.0
101.271	1.0
101.285	4.0
101.3	2.0
101.315	2.0
101.33	1.0
101.345	2.0
101.359	2.0
101.374	4.0
101.389	0.0
101.404	2.0
101.419	5.0
101.433	4.0
101.448	6.0
101.463	3.0
101.478	5.0
101.493	5.0
101.507	3.0
101.522	5.0
101.537	4.0
101.552	5.0
101.567	7.0
101.581	2.0
101.596	6.0
101.611	7.0
101.626	6.0
101.64	3.0
101.655	2.0
101.67	2.0
101.685	5.0
101.7	1.0
101.714	0.0
101.729	2.0
101.744	2.0
101.759	4.0
101.773	1.0
101.788	3.0
101.803	1.0
101.818	4.0
101.833	4.0
101.847	3.0
101.862	6.0
101.877	3.0
101.892	3.0
101.906	7.0
101.921	4.0
101.936	1.0
101.951	6.0
101.965	4.0
101.98	2.0
101.995	4.0
102.01	3.0
102.025	2.0
102.039	4.0
102.054	3.0
102.069	2.0
102.084	3.0
102.098	4.0
102.113	4.0
102.128	4.0
102.143	4.0
102.157	4.0
102.172	3.0
102.187	5.0
102.202	1.0
102.216	4.0
102.231	3.0
102.246	2.0
102.261	2.0
102.275	2.0
102.29	0.0
102.305	3.0
102.32	5.0
102.334	2.0
102.349	4.0
102.364	1.0
102.378	4.0
102.393	2.0
102.408	3.0
102.423	2.0
102.437	2.0
102.452	7.0
102.467	0.0
102.482	0.0
102.496	1.0
102.511	3.0
102.526	4.0
102.541	1.0
102.555	3.0
102.57	1.0
102.585	3.0
102.6	3.0
102.614	2.0
102.629	4.0
102.644	3.0
102.659	4.0
102.673	3.0
102.688	4.0
102.703	4.0
102.717	2.0
102.732	6.0
102.747	5.0
102.762	2.0
102.776	4.0
102.791	2.0
102.806	6.0
102.821	1.0
102.835	3.0
102.85	3.0
102.865	5.0
102.88	6.0
102.894	3.0
102.909	1.0
102.924	3.0
102.938	2.0
102.953	4.0
102.968	2.0
102.983	1.0
102.997	2.0
103.012	7.0
103.027	3.0
103.042	3.0
103.056	5.0
103.071	1.0
103.086	3.0
103.101	1.0
103.115	3.0
103.13	0.0
103.145	1.0
103.16	4.0
103.174	4.0
103.189	6.0
103.204	2.0
103.219	5.0
103.233	3.0
103.248	3.0
103.263	5.0
103.278	2.0
103.292	1.0
103.307	4.0
103.322	7.0
103.337	5.0
103.351	3.0
103.366	2.0
103.381	2.0
103.396	4.0
103.41	9.0
103.425	3.0
103.44	3.0
103.455	1.0
103.469	0.0
103.484	7.0
103.499	2.0
103.514	2.0
103.529	3.0
103.543	1.0
103.558	5.0
103.573	1.0
103.588	7.0
103.602	5.0
103.617	7.0
103.632	1.0
103.647	3.0
103.661	4.0
103.676	1.0
103.691	3.0
103.706	7.0
103.721	4.0
103.735	1.0
103.75	6.0
103.765	3.0
103.78	2.0
103.795	0.0
103.809	3.0
103.824	4.0
103.839	2.0
103.854	1.0
103.869	5.0
103.883	1.0
103.898	8.0
103.913	3.0
103.928	2.0
103.943	3.0
103.957	0.0
103.972	5.0
103.987	2.0
104.002	1.0
104.017	4.0
104.031	1.0
104.046	1.0
104.061	1.0
104.076	1.0
104.091	6.0
104.106	3.0
104.12	4.0
104.135	2.0
104.15	2.0
104.165	5.0
104.18	4.0
104.195	4.0
104.209	2.0
104.224	4.0
104.239	1.0
104.254	2.0
104.269	3.0
104.284	4.0
104.299	2.0
104.313	3.0
104.328	1.0
104.343	3.0
104.358	2.0
104.373	1.0
104.388	6.0
104.403	4.0
104.417	3.0
104.432	3.0
104.447	2.0
104.462	4.0
104.477	0.0
104.492	3.0
104.507	2.0
104.522	3.0
104.536	6.0
104.551	7.0
104.566	2.0
104.581	8.0
104.596	4.0
104.611	1.0
104.626	5.0
104.641	6.0
104.656	6.0
104.67	3.0
104.685	3.0
104.7	0.0
104.715	2.0
104.73	3.0
104.745	5.0
104.76	5.0
104.775	2.0
104.79	2.0
104.804	4.0
104.819	3.0
104.834	0.0
104.849	4.0
104.864	1.0
104.879	3.0
104.894	3.0
104.909	3.0
104.924	2.0
104.939	1.0
104.954	2.0
104.968	4.0
104.983	3.0
104.998	1.0
105.013	9.0
105.028	1.0
105.043	2.0
105.058	0.0
105.073	3.0
105.088	1.0
105.103	4.0
105.118	2.0
105.133	3.0
105.147	6.0
105.162	1.0
105.177	3.0
105.192	4.0
105.207	4.0
105.222	3.0
105.237	4.0
105.252	1.0
105.267	4.0
105.282	3.0
105.297	0.0
105.312	2.0
105.327	4.0
105.342	2.0
105.356	3.0
105.371	5.0
105.386	4.0
105.401	4.0
105.416	5.0
105.431	3.0
105.446	3.0
105.461	6.0
105.476	4.0
105.491	9.0
105.506	3.0
105.521	7.0
105.536	5.0
105.551	2.0
105.566	4.0
105.581	3.0
105.595	4.0
105.61	4.0
105.625	2.0
105.64	2.0
105.655	4.0
105.67	5.0
105.685	2.0
105.7	2.0
105.715	2.0
105.73	3.0
105.745	5.0
105.76	6.0
105.775	4.0
105.79	1.0
105.805	3.0
105.82	3.0
105.835	3.0
105.85	4.0
105.864	2.0
105.879	3.0
105.894	1.0
105.909	4.0
105.924	6.0
105.939	2.0
105.954	5.0
105.969	1.0
105.984	3.0
105.999	3.0
106.014	2.0
106.029	4.0
106.044	1.0
106.059	4.0
106.074	1.0
106.089	3.0
106.104	4.0
106.119	3.0
106.134	4.0
106.148	1.0
106.163	4.0
106.178	1.0
106.193	1.0
106.208	2.0
106.223	2.0
106.238	2.0
106.253	0.0
106.268	4.0
106.283	6.0
106.298	0.0
106.313	2.0
106.328	4.0
106.343	4.0
106.358	2.0
106.373	2.0
106.388	7.0
106.403	3.0
106.418	3.0
106.432	1.0
106.447	5.0
106.462	2.0
106.477	4.0
106.492	2.0
106.507	2.0
106.522	3.0
106.537	4.0
106.552	3.0
106.567	3.0
106.582	7.0
106.597	3.0
106.612	3.0
106.627	1.0
106.642	4.0
106.657	3.0
106.672	1.0
106.687	5.0
106.701	3.0
106.716	4.0
106.731	6.0
106.746	5.0
106.761	3.0
106.776	1.0
106.791	2.0
106.806	3.0
106.821	4.0
106.836	0.0
106.851	2.0
106.866	3.0
106.881	1.0
106.896	3.0
106.911	2.0
106.926	2.0
106.941	5.0
106.955	3.0
106.97	4.0
106.985	5.0
107.0	4.0
107.015	4.0
107.03	2.0
107.045	4.0
107.06	2.0
107.075	1.0
107.09	3.0
107.105	3.0
107.12	0.0
107.135	6.0
107.15	5.0
107.165	4.0
107.18	4.0
107.194	2.0
107.209	11.0
107.224	1.0
107.239	3.0
107.254	1.0
107.269	3.0
107.284	2.0
107.299	4.0
107.314	6.0
107.329	2.0
107.344	2.0
107.359	1.0
107.374	5.0
107.389	2.0
107.404	4.0
107.418	2.0
107.433	3.0
107.448	3.0
107.463	0.0
107.478	2.0
107.493	5.0
107.508	3.0
107.523	1.0
107.538	0.0
107.553	6.0
107.568	1.0
107.583	2.0
107.598	2.0
107.613	4.0
107.627	2.0
107.642	7.0
107.657	4.0
107.672	1.0
107.687	3.0
107.702	6.0
107.717	3.0
107.732	5.0
107.747	4.0
107.762	4.0
107.777	5.0
107.792	3.0
107.807	4.0
107.821	7.0
107.836	5.0
107.851	4.0
107.866	4.0
107.881	0.0
107.896	0.0
107.911	1.0
107.926	5.0
107.941	5.0
107.956	5.0
107.971	5.0
107.986	3.0
108.0	5.0
108.015	5.0
108.03	4.0
108.045	4.0
108.06	4.0
108.075	3.0
108.09	5.0
108.105	5.0
108.12	8.0
108.135	5.0
108.15	5.0
108.164	3.0
108.179	7.0
108.194	5.0
108.209	2.0
108.224	7.0
108.239	5.0
108.254	7.0
108.269	4.0
108.284	3.0
108.299	5.0
108.313	5.0
108.328	3.0
108.343	0.0
108.358	4.0
108.373	2.0
108.388	2.0
108.403	4.0
108.418	2.0
108.433	3.0
108.448	1.0
108.462	2.0
108.477	1.0
108.492	4.0
108.507	4.0
108.522	3.0
108.537	2.0
108.552	0.0
108.567	3.0
108.582	4.0
108.597	2.0
108.611	6.0
108.626	4.0
108.641	4.0
108.656	3.0
108.671	4.0
108.686	6.0
108.701	2.0
108.716	4.0
108.731	2.0
108.745	5.0
108.76	7.0
108.775	3.0
108.79	3.0
108.805	6.0
108.82	7.0
108.835	4.0
108.85	6.0
108.865	1.0
108.879	4.0
108.894	3.0
108.909	1.0
108.924	8.0
108.939	2.0
108.954	5.0
108.969	6.0
108.984	4.0
108.999	1.0
109.013	3.0
109.028	6.0
109.043	5.0
109.058	3.0
109.073	2.0
109.088	3.0
109.103	5.0
109.118	4.0
109.133	4.0
109.147	3.0
109.162	5.0
109.177	4.0
109.192	3.0
109.207	2.0
109.222	3.0
109.237	2.0
109.252	4.0
109.267	1.0
109.281	4.0
109.296	2.0
109.311	3.0
109.326	0.0
109.341	1.0
109.356	1.0
109.371	3.0
109.386	6.0
109.4	0.0
109.415	3.0
109.43	0.0
109.445	3.0
109.46	1.0
109.475	4.0
109.49	2.0
109.505	5.0
109.52	3.0
109.534	2.0
109.549	2.0
109.564	4.0
109.579	3.0
109.594	2.0
109.609	4.0
109.624	1.0
109.639	5.0
109.653	3.0
109.668	2.0
109.683	0.0
109.698	3.0
109.713	2.0
109.728	3.0
109.743	7.0
109.758	2.0
109.773	4.0
109.787	2.0
109.802	3.0
109.817	2.0
109.832	0.0
109.847	3.0
109.862	5.0
109.877	6.0
109.892	0.0
109.907	1.0
109.921	3.0
109.936	3.0
109.951	5.0
109.966	1.0
109.981	7.0
109.996	3.0
110.011	2.0
110.026	4.0
110.04	2.0
110.055	4.0
110.07	3.0
110.085	4.0
110.1	3.0
110.115	4.0
110.13	2.0
110.145	3.0
110.16	4.0
110.174	3.0
110.189	1.0
110.204	2.0
110.219	2.0
110.234	3.0
110.249	6.0
110.264	6.0
110.279	6.0
110.294	4.0
110.308	6.0
110.323	3.0
110.338	3.0
110.353	5.0
110.368	3.0
110.383	5.0
110.398	1.0
110.413	3.0
110.428	0.0
110.442	1.0
110.457	4.0
110.472	1.0
110.487	3.0
110.502	6.0
110.517	2.0
110.532	4.0
110.547	2.0
110.561	4.0
110.576	3.0
110.591	6.0
110.606	0.0
110.621	3.0
110.636	4.0
110.651	2.0
110.666	1.0
110.681	5.0
110.695	5.0
110.71	1.0
110.725	2.0
110.74	3.0
110.755	7.0
110.77	2.0
110.785	4.0
110.8	4.0
110.815	3.0
110.829	3.0
110.844	2.0
110.859	2.0
110.874	4.0
110.889	2.0
110.904	3.0
110.919	0.0
110.934	5.0
110.948	4.0
110.963	0.0
110.978	0.0
110.993	4.0
111.008	2.0
111.023	2.0
111.038	3.0
111.053	3.0
111.067	5.0
111.082	1.0
111.097	2.0
111.112	0.0
111.127	3.0
111.142	2.0
111.157	3.0
111.172	1.0
111.186	3.0
111.201	0.0
111.216	7.0
111.231	2.0
111.246	1.0
111.261	4.0
111.276	7.0
111.291	2.0
111.305	5.0
111.32	3.0
111.335	2.0
111.35	2.0
111.365	0.0
111.38	3.0
111.395	4.0
111.41	5.0
111.424	5.0
111.439	2.0
111.454	2.0
111.469	2.0
111.484	5.0
111.499	2.0
111.514	5.0
111.528	5.0
111.543	4.0
111.558	2.0
111.573	2.0
111.588	2.0
111.603	2.0
111.618	2.0
111.633	3.0
111.647	2.0
111.662	2.0
111.677	3.0
111.692	4.0
111.707	3.0
111.722	6.0
111.737	4.0
111.751	0.0
111.766	3.0
111.781	6.0
111.796	4.0
111.811	2.0
111.826	4.0
111.84	2.0
111.855	3.0
111.87	2.0
111.885	4.0
111.9	6.0
111.915	2.0
111.93	4.0
111.944	3.0
111.959	6.0
111.974	2.0
111.989	5.0
112.004	3.0
112.019	3.0
112.033	3.0
112.048	4.0
112.063	0.0
112.078	5.0
112.093	1.0
112.108	4.0
112.123	3.0
112.137	3.0
112.152	4.0
112.167	0.0
112.182	2.0
112.197	5.0
112.212	3.0
112.226	3.0
112.241	2.0
112.256	3.0
112.271	4.0
112.286	3.0
112.301	3.0
112.315	3.0
112.33	1.0
112.345	0.0
112.36	8.0
112.375	2.0
112.389	9.0
112.404	4.0
112.419	2.0
112.434	0.0
112.449	0.0
112.464	4.0
112.478	2.0
112.493	1.0
112.508	3.0
112.523	2.0
112.538	2.0
112.553	1.0
112.567	2.0
112.582	1.0
112.597	4.0
112.612	2.0
112.627	6.0
112.642	2.0
112.656	4.0
112.671	5.0
112.686	5.0
112.701	3.0
112.716	1.0
112.73	5.0
112.745	5.0
112.76	2.0
112.775	0.0
112.79	1.0
112.805	1.0
112.819	4.0
112.834	5.0
112.849	6.0
112.864	1.0
112.879	2.0
112.894	1.0
112.908	1.0
112.923	3.0
112.938	3.0
112.953	3.0
112.968	4.0
112.983	0.0
112.997	3.0
113.012	4.0
113.027	3.0
113.042	3.0
113.057	3.0
113.072	5.0
113.086	3.0
113.101	4.0
113.116	2.0
113.131	3.0
113.146	4.0
113.161	4.0
113.175	3.0
113.19	1.0
113.205	3.0
113.22	3.0
113.235	2.0
113.25	2.0
113.265	8.0
113.279	4.0
113.294	3.0
113.309	3.0
113.324	3.0
113.339	2.0
113.354	1.0
113.368	3.0
113.383	7.0
113.398	2.0
113.413	3.0
113.428	1.0
113.443	1.0
113.458	3.0
113.472	3.0
113.487	4.0
113.502	6.0
113.517	4.0
113.532	3.0
113.547	3.0
113.562	3.0
113.576	5.0
113.591	3.0
113.606	7.0
113.621	3.0
113.636	3.0
113.651	5.0
113.666	1.0
113.681	3.0
113.695	3.0
113.71	3.0
113.725	3.0
113.74	1.0
113.755	2.0
113.77	4.0
113.785	3.0
113.8	2.0
113.814	3.0
113.829	1.0
113.844	3.0
113.859	5.0
113.874	5.0
113.889	4.0
113.904	6.0
113.919	3.0
113.934	3.0
113.949	2.0
113.963	3.0
113.978	6.0
113.993	3.0
114.008	4.0
114.023	0.0
114.038	3.0
114.053	4.0
114.068	3.0
114.083	3.0
114.098	0.0
114.113	1.0
114.127	3.0
114.142	3.0
114.157	4.0
114.172	3.0
114.187	2.0
114.202	6.0
114.217	1.0
114.232	3.0
114.247	4.0
114.262	0.0
114.277	3.0
114.292	3.0
114.307	3.0
114.322	4.0
114.337	3.0
114.351	5.0
114.366	1.0
114.381	5.0
114.396	6.0
114.411	3.0
114.426	7.0
114.441	3.0
114.456	4.0
114.471	3.0
114.486	6.0
114.501	2.0
114.516	5.0
114.531	5.0
114.546	4.0
114.561	5.0
114.576	5.0
114.591	0.0
114.606	4.0
114.621	0.0
114.636	4.0
114.65	3.0
114.665	5.0
114.68	0.0
114.695	3.0
114.71	5.0
114.725	3.0
114.74	7.0
114.755	3.0
114.77	8.0
114.785	5.0
114.8	5.0
114.815	3.0
114.83	3.0
114.845	3.0
114.86	5.0
114.875	2.0
114.89	1.0
114.905	7.0
114.92	3.0
114.935	1.0
114.95	5.0
114.965	8.0
114.98	2.0
114.995	4.0
115.009	1.0
115.024	3.0
115.039	7.0
115.054	6.0
115.069	1.0
115.084	7.0
115.099	6.0
115.114	7.0
115.129	4.0
115.144	4.0
115.159	3.0
115.174	1.0
115.189	5.0
115.204	10.0
115.219	5.0
115.234	2.0
115.249	3.0
115.264	4.0
115.279	4.0
115.294	3.0
115.309	7.0
115.323	6.0
115.338	4.0
115.353	3.0
115.368	4.0
115.383	4.0
115.398	3.0
115.413	4.0
115.428	3.0
115.443	2.0
115.458	1.0
115.473	3.0
115.488	7.0
115.503	3.0
115.518	5.0
115.533	1.0
115.548	5.0
115.562	3.0
115.577	3.0
115.592	9.0
115.607	6.0
115.622	4.0
115.637	1.0
115.652	1.0
115.667	1.0
115.682	7.0
115.697	2.0
115.712	4.0
115.727	7.0
115.741	4.0
115.756	3.0
115.771	4.0
115.786	1.0
115.801	4.0
115.816	3.0
115.831	5.0
115.846	2.0
115.861	5.0
115.875	5.0
115.89	6.0
115.905	4.0
115.92	2.0
115.935	4.0
115.95	4.0
115.965	2.0
115.98	3.0
115.995	3.0
116.009	3.0
116.024	6.0
116.039	8.0
116.054	4.0
116.069	2.0
116.084	2.0
116.099	5.0
116.113	4.0
116.128	4.0
116.143	1.0
116.158	4.0
116.173	5.0
116.188	8.0
116.202	5.0
116.217	5.0
116.232	8.0
116.247	4.0
116.262	5.0
116.277	3.0
116.291	3.0
116.306	2.0
116.321	2.0
116.336	3.0
116.351	3.0
116.366	4.0
116.38	5.0
116.395	4.0
116.41	3.0
116.425	1.0
116.44	4.0
116.454	3.0
116.469	4.0
116.484	3.0
116.499	5.0
116.514	3.0
116.528	1.0
116.543	1.0
116.558	3.0
116.573	1.0
116.588	0.0
116.602	3.0
116.617	2.0
116.632	4.0
116.647	4.0
116.662	4.0
116.676	1.0
116.691	1.0
116.706	4.0
116.721	3.0
116.735	3.0
116.75	4.0
116.765	2.0
116.78	3.0
116.795	4.0
116.809	5.0
116.824	0.0
116.839	1.0
116.854	4.0
116.868	4.0
116.883	3.0
116.898	3.0
116.913	1.0
116.927	2.0
116.942	1.0
116.957	7.0
116.972	5.0
116.986	2.0
117.001	6.0
117.016	2.0
117.031	5.0
117.045	2.0
117.06	7.0
117.075	2.0
117.09	1.0
117.104	4.0
117.119	2.0
117.134	4.0
117.149	4.0
117.163	3.0
117.178	0.0
117.193	2.0
117.208	6.0
117.222	3.0
117.237	5.0
117.252	3.0
117.267	6.0
117.281	4.0
117.296	1.0
117.311	5.0
117.325	2.0
117.34	6.0
117.355	2.0
117.37	5.0
117.384	1.0
117.399	5.0
117.414	5.0
117.429	4.0
117.443	3.0
117.458	3.0
117.473	3.0
117.487	0.0
117.502	4.0
117.517	5.0
117.532	4.0
117.546	5.0
117.561	2.0
117.576	6.0
117.59	1.0
117.605	4.0
117.62	0.0
117.635	6.0
117.649	5.0
117.664	4.0
117.679	2.0
117.693	3.0
117.708	2.0
117.723	4.0
117.738	4.0
117.752	4.0
117.767	2.0
117.782	6.0
117.796	2.0
117.811	2.0
117.826	3.0
117.841	4.0
117.855	3.0
117.87	3.0
117.885	5.0
117.899	3.0
117.914	0.0
117.929	5.0
117.944	4.0
117.958	0.0
117.973	2.0
117.988	4.0
118.002	0.0
118.017	5.0
118.032	6.0
118.047	4.0
118.062	1.0
118.077	3.0
118.092	4.0
118.107	3.0
118.121	4.0
118.136	4.0
118.151	5.0
118.166	5.0
118.181	4.0
118.196	6.0
118.211	4.0
118.225	1.0
118.24	3.0
118.255	3.0
118.27	2.0
118.285	2.0
118.3	1.0
118.315	5.0
118.33	4.0
118.344	1.0
118.359	3.0
118.374	3.0
118.389	2.0
118.404	6.0
118.419	2.0
118.434	1.0
118.449	3.0
118.463	7.0
118.478	4.0
118.493	4.0
118.508	4.0
118.523	4.0
118.538	3.0
118.553	4.0
118.567	4.0
118.582	4.0
118.597	7.0
118.612	2.0
118.627	4.0
118.642	4.0
118.657	8.0
118.672	6.0
118.686	5.0
118.701	3.0
118.716	6.0
118.731	4.0
118.746	3.0
118.761	5.0
118.776	3.0
118.791	3.0
118.805	1.0
118.82	6.0
118.835	6.0
118.85	5.0
118.865	2.0
118.88	3.0
118.895	2.0
118.909	3.0
118.924	3.0
118.939	6.0
118.954	2.0
118.969	6.0
118.984	3.0
118.999	2.0
119.014	2.0
119.028	3.0
119.043	4.0
119.058	2.0
119.073	5.0
119.088	4.0
119.103	4.0
119.118	2.0
119.133	0.0
119.147	2.0
119.162	6.0
119.177	3.0
119.192	2.0
119.207	1.0
119.222	4.0
119.237	7.0
119.251	7.0
119.266	3.0
119.281	4.0
119.296	1.0
119.311	0.0
119.326	4.0
119.341	1.0
119.356	3.0
119.37	3.0
119.385	3.0
119.4	4.0
119.415	3.0
119.43	5.0
119.445	2.0
119.46	2.0
119.475	4.0
119.489	2.0
119.504	4.0
119.519	3.0
119.534	2.0
119.549	3.0
119.564	4.0
119.579	6.0
119.593	2.0
119.608	3.0
119.623	3.0
119.638	4.0
119.653	2.0
119.668	7.0
119.683	3.0
119.698	3.0
119.712	1.0
119.727	2.0
119.742	3.0
119.757	3.0
119.772	3.0
119.787	3.0
119.802	1.0
119.817	1.0
119.831	0.0
119.846	1.0
119.861	5.0
119.876	2.0
119.891	4.0
119.906	6.0
119.921	1.0
119.935	1.0
119.95	4.0
119.965	2.0
119.98	1.0
119.995	4.0
120.01	2.0
120.025	1.0
120.04	3.0
120.054	2.0
120.069	0.0
120.084	2.0
120.099	2.0
120.114	3.0
120.129	1.0
120.144	5.0
120.159	1.0
120.173	0.0
120.188	2.0
120.203	0.0
120.218	1.0
120.233	2.0
120.248	1.0
120.263	0.0
120.277	0.0
120.292	0.0
120.307	0.0
120.322	0.0
120.337	0.0
120.352	0.0
120.367	0.0
120.382	0.0
120.396	0.0
120.411	0.0
120.426	0.0
120.441	0.0
120.456	0.0
120.471	0.0
120.486	1.0
120.501	0.0
120.515	0.0
120.53	0.0
120.545	0.0
120.56	0.0
120.575	0.0
120.59	0.0
120.605	0.0
120.619	0.0
120.634	0.0
120.649	0.0
120.664	0.0
120.679	0.0
120.694	0.0
120.709	0.0
120.724	0.0
120.738	0.0
120.753	0.0
120.768	0.0
120.783	0.0
120.798	0.0
120.813	0.0
120.828	0.0
120.843	0.0
120.857	0.0
120.872	0.0
120.887	0.0
120.902	0.0
120.917	0.0
120.932	0.0
120.947	0.0
120.961	0.0
120.976	0.0
