-1.217	0.0
-1.202	0.0
-1.187	0.0
-1.172	0.0
-1.157	0.0
-1.142	0.0
-1.128	0.0
-1.113	0.0
-1.098	1.0
-1.083	0.0
-1.068	0.0
-1.054	0.0
-1.039	0.0
-1.024	1.0
-1.009	0.0
-0.994	0.0
-0.979	0.0
-0.965	0.0
-0.95	0.0
-0.935	0.0
-0.92	0.0
-0.905	0.0
-0.891	0.0
-0.876	0.0
-0.861	0.0
-0.846	0.0
-0.831	0.0
-0.816	0.0
-0.802	0.0
-0.787	0.0
-0.772	0.0
-0.757	0.0
-0.742	0.0
-0.728	0.0
-0.713	0.0
-0.698	0.0
-0.683	0.0
-0.668	0.0
-0.653	0.0
-0.639	0.0
-0.624	0.0
-0.609	0.0
-0.594	0.0
-0.579	0.0
-0.565	0.0
-0.55	0.0
-0.535	0.0
-0.52	0.0
-0.505	0.0
-0.49	0.0
-0.476	0.0
-0.461	0.0
-0.446	0.0
-0.431	0.0
-0.416	0.0
-0.401	0.0
-0.387	1.0
-0.372	0.0
-0.357	0.0
-0.342	0.0
-0.327	0.0
-0.313	0.0
-0.298	0.0
-0.283	0.0
-0.268	0.0
-0.253	0.0
-0.238	0.0
-0.224	0.0
-0.209	0.0
-0.194	0.0
-0.179	0.0
-0.164	0.0
-0.15	0.0
-0.135	0.0
-0.12	0.0
-0.105	0.0
-0.09	0.0
-0.075	1.0
-0.061	0.0
-0.046	0.0
-0.031	0.0
-0.016	0.0
-0.001	0.0
0.013	0.0
0.028	0.0
0.043	0.0
0.058	0.0
0.073	0.0
0.088	0.0
0.102	0.0
0.117	0.0
0.132	0.0
0.147	0.0
0.162	0.0
0.176	0.0
0.191	0.0
0.206	0.0
0.221	0.0
0.236	0.0
0.251	0.0
0.265	0.0
0.28	0.0
0.295	0.0
0.31	0.0
0.325	0.0
0.339	0.0
0.354	1.0
0.369	0.0
0.384	0.0
0.399	0.0
0.414	0.0
0.428	0.0
0.443	0.0
0.458	0.0
0.473	0.0
0.488	0.0
0.502	0.0
0.517	0.0
0.532	0.0
0.547	0.0
0.562	0.0
0.577	0.0
0.591	0.0
0.606	0.0
0.621	0.0
0.636	0.0
0.651	0.0
0.665	0.0
0.68	0.0
0.695	0.0
0.71	0.0
0.725	0.0
0.74	0.0
0.754	0.0
0.769	0.0
0.784	0.0
0.799	0.0
0.814	0.0
0.828	0.0
0.843	0.0
0.858	0.0
0.873	0.0
0.888	0.0
0.903	0.0
0.917	0.0
0.932	0.0
0.947	0.0
0.962	0.0
0.977	0.0
0.991	0.0
1.006	0.0
1.021	0.0
1.036	0.0
1.051	0.0
1.065	0.0
1.08	0.0
1.095	0.0
1.11	0.0
1.125	1.0
1.14	0.0
1.154	0.0
1.169	0.0
1.184	0.0
1.199	0.0
1.214	0.0
1.228	0.0
1.243	0.0
1.258	0.0
1.273	0.0
1.288	0.0
1.302	0.0
1.317	0.0
1.332	0.0
1.347	0.0
1.362	0.0
1.376	0.0
1.391	0.0
1.406	1.0
1.421	0.0
1.436	0.0
1.45	0.0
1.465	0.0
1.48	0.0
1.495	0.0
1.51	0.0
1.524	0.0
1.539	0.0
1.554	0.0
1.569	0.0
1.584	0.0
1.598	0.0
1.613	0.0
1.628	0.0
1.643	0.0
1.658	0.0
1.672	0.0
1.687	0.0
1.702	0.0
1.717	0.0
1.732	0.0
1.746	0.0
1.761	1.0
1.776	1.0
1.791	0.0
1.806	0.0
1.82	0.0
1.835	0.0
1.85	0.0
1.865	0.0
1.88	0.0
1.894	0.0
1.909	0.0
1.924	0.0
1.939	0.0
1.954	0.0
1.968	0.0
1.983	0.0
1.998	0.0
2.013	0.0
2.028	0.0
2.042	0.0
2.057	1.0
2.072	0.0
2.087	0.0
2.101	0.0
2.116	0.0
2.131	0.0
2.146	0.0
2.161	0.0
2.175	0.0
2.19	0.0
2.205	0.0
2.22	0.0
2.235	0.0
2.249	0.0
2.264	0.0
2.279	1.0
2.294	1.0
2.308	2.0
2.323	0.0
2.338	0.0
2.353	1.0
2.368	0.0
2.382	1.0
2.397	1.0
2.412	0.0
2.427	1.0
2.442	1.0
2.456	1.0
2.471	2.0
2.486	1.0
2.501	3.0
2.515	1.0
2.53	0.0
2.545	2.0
2.56	3.0
2.575	1.0
2.589	3.0
2.604	2.0
2.619	2.0
2.634	2.0
2.649	1.0
2.663	3.0
2.678	1.0
2.693	1.0
2.708	2.0
2.722	2.0
2.737	3.0
2.752	2.0
2.767	5.0
2.782	4.0
2.796	4.0
2.811	1.0
2.826	2.0
2.841	5.0
2.856	3.0
2.87	4.0
2.885	2.0
2.9	5.0
2.915	3.0
2.93	3.0
2.944	4.0
2.959	4.0
2.974	3.0
2.989	4.0
3.004	0.0
3.018	3.0
3.033	9.0
3.048	5.0
3.063	4.0
3.078	3.0
3.092	4.0
3.107	6.0
3.122	3.0
3.137	4.0
3.152	6.0
3.166	7.0
3.181	4.0
3.196	6.0
3.211	3.0
3.226	7.0
3.24	5.0
3.255	6.0
3.27	4.0
3.285	3.0
3.3	4.0
3.315	5.0
3.329	1.0
3.344	3.0
3.359	6.0
3.374	4.0
3.389	6.0
3.403	4.0
3.418	8.0
3.433	3.0
3.448	3.0
3.463	5.0
3.478	3.0
3.492	2.0
3.507	4.0
3.522	6.0
3.537	4.0
3.552	9.0
3.567	2.0
3.581	4.0
3.596	5.0
3.611	7.0
3.626	5.0
3.641	3.0
3.656	10.0
3.671	4.0
3.685	7.0
3.7	4.0
3.715	11.0
3.73	9.0
3.745	11.0
3.76	8.0
3.775	4.0
3.789	4.0
3.804	9.0
3.819	5.0
3.834	6.0
3.849	8.0
3.864	9.0
3.879	5.0
3.894	10.0
3.908	4.0
3.923	6.0
3.938	6.0
3.953	7.0
3.968	6.0
3.983	2.0
3.998	13.0
4.013	9.0
4.027	5.0
4.042	7.0
4.057	7.0
4.072	6.0
4.087	5.0
4.102	0.0
4.117	6.0
4.132	9.0
4.147	6.0
4.162	12.0
4.176	6.0
4.191	3.0
4.206	7.0
4.221	5.0
4.236	4.0
4.251	14.0
4.266	9.0
4.281	4.0
4.296	3.0
4.311	3.0
4.326	5.0
4.341	7.0
4.356	7.0
4.37	6.0
4.385	4.0
4.4	9.0
4.415	7.0
4.43	3.0
4.445	11.0
4.46	8.0
4.475	7.0
4.49	4.0
4.505	6.0
4.52	8.0
4.535	8.0
4.55	5.0
4.565	12.0
4.58	8.0
4.595	11.0
4.61	8.0
4.625	7.0
4.639	10.0
4.654	8.0
4.669	3.0
4.684	8.0
4.699	12.0
4.714	6.0
4.729	7.0
4.744	6.0
4.759	10.0
4.774	5.0
4.789	10.0
4.804	4.0
4.819	6.0
4.834	6.0
4.849	5.0
4.864	6.0
4.879	11.0
4.894	6.0
4.909	9.0
4.924	4.0
4.939	7.0
4.954	13.0
4.969	11.0
4.984	9.0
4.999	6.0
5.014	4.0
5.029	11.0
5.044	7.0
5.059	5.0
5.074	8.0
5.089	6.0
5.104	8.0
5.119	13.0
5.134	12.0
5.149	5.0
5.164	8.0
5.179	4.0
5.194	6.0
5.209	11.0
5.224	12.0
5.239	7.0
5.254	6.0
5.269	10.0
5.284	8.0
5.299	5.0
5.314	10.0
5.329	5.0
5.344	6.0
5.359	11.0
5.374	10.0
5.389	3.0
5.404	10.0
5.419	4.0
5.434	10.0
5.449	2.0
5.464	5.0
5.479	10.0
5.494	5.0
5.509	12.0
5.524	8.0
5.539	8.0
5.554	6.0
5.569	4.0
5.584	6.0
5.599	7.0
5.614	3.0
5.629	10.0
5.644	5.0
5.659	3.0
5.674	8.0
5.689	13.0
5.704	9.0
5.719	8.0
5.734	9.0
5.749	11.0
5.764	5.0
5.779	6.0
5.794	10.0
5.809	10.0
5.824	9.0
5.839	8.0
5.854	10.0
5.869	7.0
5.884	8.0
5.899	8.0
5.914	10.0
5.929	13.0
5.944	12.0
5.959	7.0
5.974	4.0
5.989	8.0
6.004	3.0
6.019	12.0
6.034	6.0
6.049	8.0
6.064	9.0
6.079	6.0
6.094	7.0
6.109	14.0
6.124	10.0
6.139	11.0
6.154	6.0
6.169	14.0
6.184	5.0
6.199	5.0
6.214	10.0
6.229	7.0
6.244	15.0
6.259	10.0
6.274	8.0
6.289	13.0
6.304	6.0
6.319	7.0
6.334	9.0
6.349	5.0
6.364	14.0
6.379	3.0
6.394	7.0
6.409	7.0
6.424	5.0
6.439	8.0
6.454	7.0
6.469	8.0
6.484	12.0
6.499	7.0
6.514	12.0
6.529	5.0
6.544	10.0
6.559	9.0
6.574	9.0
6.589	9.0
6.604	9.0
6.619	8.0
6.634	7.0
6.649	9.0
6.664	5.0
6.679	6.0
6.694	12.0
6.709	8.0
6.724	10.0
6.739	10.0
6.754	18.0
6.769	7.0
6.784	11.0
6.799	6.0
6.814	6.0
6.829	11.0
6.844	7.0
6.859	6.0
6.873	5.0
6.888	8.0
6.903	6.0
6.918	4.0
6.933	8.0
6.948	8.0
6.963	6.0
6.978	9.0
6.993	13.0
7.008	6.0
7.023	7.0
7.038	8.0
7.053	7.0
7.068	6.0
7.083	8.0
7.098	7.0
7.113	10.0
7.128	9.0
7.143	12.0
7.157	11.0
7.172	9.0
7.187	5.0
7.202	11.0
7.217	5.0
7.232	11.0
7.247	13.0
7.262	10.0
7.277	12.0
7.292	10.0
7.307	9.0
7.322	9.0
7.336	7.0
7.351	8.0
7.366	9.0
7.381	7.0
7.396	13.0
7.411	10.0
7.426	7.0
7.441	5.0
7.456	10.0
7.471	6.0
7.485	8.0
7.5	5.0
7.515	15.0
7.53	12.0
7.545	8.0
7.56	5.0
7.575	5.0
7.59	12.0
7.604	11.0
7.619	8.0
7.634	4.0
7.649	9.0
7.664	5.0
7.679	11.0
7.693	9.0
7.708	9.0
7.723	8.0
7.738	10.0
7.753	5.0
7.768	4.0
7.783	8.0
7.797	8.0
7.812	10.0
7.827	7.0
7.842	8.0
7.857	3.0
7.871	6.0
7.886	7.0
7.901	7.0
7.916	11.0
7.931	7.0
7.945	8.0
7.96	13.0
7.975	13.0
7.99	6.0
8.005	7.0
8.019	5.0
8.034	9.0
8.049	9.0
8.064	8.0
8.078	8.0
8.093	10.0
8.108	2.0
8.123	5.0
8.137	6.0
8.152	9.0
8.167	6.0
8.182	7.0
8.196	8.0
8.211	13.0
8.226	12.0
8.241	7.0
8.255	2.0
8.27	9.0
8.285	7.0
8.3	6.0
8.314	12.0
8.329	14.0
8.344	8.0
8.358	6.0
8.373	10.0
8.388	7.0
8.403	10.0
8.417	16.0
8.432	7.0
8.447	13.0
8.461	9.0
8.476	12.0
8.491	9.0
8.505	11.0
8.52	10.0
8.535	7.0
8.55	7.0
8.564	5.0
8.579	9.0
8.594	9.0
8.608	5.0
8.623	5.0
8.638	9.0
8.652	8.0
8.667	10.0
8.682	12.0
8.696	7.0
8.711	9.0
8.726	7.0
8.74	12.0
8.755	4.0
8.77	14.0
8.784	8.0
8.799	9.0
8.814	5.0
8.828	13.0
8.843	10.0
8.858	14.0
8.872	9.0
8.887	8.0
8.902	9.0
8.916	2.0
8.931	9.0
8.946	5.0
8.96	9.0
8.975	11.0
8.99	7.0
9.004	7.0
9.019	10.0
9.034	12.0
9.048	10.0
9.063	14.0
9.077	3.0
9.092	9.0
9.107	9.0
9.121	6.0
9.136	12.0
9.151	13.0
9.165	6.0
9.18	12.0
9.195	10.0
9.209	10.0
9.224	7.0
9.239	9.0
9.253	13.0
9.268	12.0
9.283	8.0
9.297	6.0
9.312	11.0
9.327	7.0
9.341	4.0
9.356	14.0
9.371	13.0
9.385	8.0
9.4	8.0
9.415	9.0
9.429	9.0
9.444	9.0
9.458	6.0
9.473	10.0
9.488	10.0
9.502	8.0
9.517	4.0
9.532	7.0
9.546	2.0
9.561	8.0
9.576	13.0
9.59	6.0
9.605	5.0
9.62	10.0
9.635	13.0
9.649	8.0
9.664	9.0
9.679	6.0
9.693	10.0
9.708	12.0
9.723	15.0
9.737	14.0
9.752	6.0
9.767	5.0
9.781	8.0
9.796	8.0
9.811	5.0
9.825	7.0
9.84	12.0
9.855	8.0
9.87	8.0
9.884	13.0
9.899	6.0
9.914	11.0
9.928	9.0
9.943	8.0
9.958	2.0
9.973	9.0
9.987	6.0
10.002	6.0
10.017	13.0
10.031	6.0
10.046	7.0
10.061	6.0
10.076	5.0
10.09	13.0
10.105	5.0
10.12	12.0
10.135	9.0
10.149	17.0
10.164	7.0
10.179	9.0
10.194	9.0
10.208	8.0
10.223	8.0
10.238	6.0
10.253	10.0
10.267	6.0
10.282	4.0
10.297	9.0
10.312	7.0
10.326	7.0
10.341	13.0
10.356	5.0
10.371	6.0
10.386	9.0
10.4	9.0
10.415	7.0
10.43	3.0
10.445	11.0
10.46	9.0
10.474	3.0
10.489	9.0
10.504	10.0
10.519	9.0
10.533	4.0
10.548	8.0
10.563	8.0
10.578	13.0
10.593	4.0
10.608	8.0
10.622	4.0
10.637	9.0
10.652	1.0
10.667	4.0
10.682	8.0
10.696	8.0
10.711	9.0
10.726	8.0
10.741	9.0
10.756	10.0
10.771	7.0
10.785	10.0
10.8	7.0
10.815	9.0
10.83	8.0
10.845	6.0
10.86	5.0
10.874	5.0
10.889	9.0
10.904	8.0
10.919	4.0
10.934	4.0
10.949	4.0
10.963	8.0
10.978	10.0
10.993	8.0
11.008	4.0
11.023	10.0
11.038	8.0
11.053	6.0
11.067	10.0
11.082	9.0
11.097	5.0
11.112	4.0
11.127	10.0
11.142	13.0
11.157	9.0
11.172	6.0
11.186	8.0
11.201	6.0
11.216	8.0
11.231	7.0
11.246	7.0
11.261	9.0
11.276	10.0
11.291	10.0
11.305	8.0
11.32	9.0
11.335	8.0
11.35	10.0
11.365	8.0
11.38	11.0
11.395	3.0
11.41	5.0
11.424	13.0
11.439	8.0
11.454	4.0
11.469	8.0
11.484	9.0
11.499	10.0
11.514	8.0
11.529	8.0
11.544	8.0
11.558	6.0
11.573	4.0
11.588	6.0
11.603	9.0
11.618	4.0
11.633	11.0
11.648	10.0
11.663	7.0
11.678	3.0
11.693	7.0
11.707	8.0
11.722	14.0
11.737	4.0
11.752	7.0
11.767	12.0
11.782	8.0
11.797	5.0
11.812	3.0
11.827	11.0
11.842	8.0
11.856	9.0
11.871	12.0
11.886	6.0
11.901	14.0
11.916	7.0
11.931	9.0
11.946	2.0
11.961	8.0
11.976	9.0
11.991	10.0
12.006	11.0
12.02	9.0
12.035	9.0
12.05	4.0
12.065	8.0
12.08	6.0
12.095	10.0
12.11	10.0
12.125	11.0
12.14	8.0
12.155	7.0
12.17	14.0
12.184	10.0
12.199	16.0
12.214	10.0
12.229	9.0
12.244	10.0
12.259	12.0
12.274	13.0
12.289	10.0
12.304	8.0
12.319	11.0
12.334	6.0
12.348	13.0
12.363	14.0
12.378	10.0
12.393	11.0
12.408	14.0
12.423	7.0
12.438	11.0
12.453	16.0
12.468	9.0
12.483	19.0
12.498	15.0
12.513	15.0
12.527	21.0
12.542	14.0
12.557	3.0
12.572	10.0
12.587	18.0
12.602	10.0
12.617	16.0
12.632	17.0
12.647	14.0
12.662	17.0
12.677	16.0
12.692	18.0
12.707	13.0
12.721	15.0
12.736	20.0
12.751	18.0
12.766	17.0
12.781	14.0
12.796	17.0
12.811	18.0
12.826	14.0
12.841	17.0
12.856	17.0
12.871	17.0
12.886	13.0
12.9	9.0
12.915	10.0
12.93	14.0
12.945	16.0
12.96	13.0
12.975	12.0
12.99	15.0
13.005	16.0
13.02	15.0
13.035	11.0
13.05	26.0
13.065	18.0
13.08	17.0
13.094	22.0
13.109	11.0
13.124	13.0
13.139	14.0
13.154	18.0
13.169	15.0
13.184	23.0
13.199	24.0
13.214	27.0
13.229	22.0
13.244	13.0
13.259	27.0
13.274	26.0
13.288	18.0
13.303	19.0
13.318	19.0
13.333	20.0
13.348	24.0
13.363	22.0
13.378	27.0
13.393	30.0
13.408	27.0
13.423	20.0
13.438	34.0
13.453	32.0
13.468	26.0
13.482	40.0
13.497	47.0
13.512	36.0
13.527	42.0
13.542	41.0
13.557	53.0
13.572	55.0
13.587	65.0
13.602	63.0
13.617	68.0
13.632	67.0
13.647	68.0
13.662	72.0
13.677	79.0
13.691	99.0
13.706	107.0
13.721	92.0
13.736	107.0
13.751	96.0
13.766	111.0
13.781	98.0
13.796	118.0
13.811	119.0
13.826	137.0
13.841	127.0
13.856	146.0
13.871	103.0
13.885	122.0
13.9	68.0
13.915	91.0
13.93	68.0
13.945	62.0
13.96	63.0
13.975	37.0
13.99	52.0
14.005	42.0
14.02	25.0
14.035	23.0
14.05	30.0
14.065	23.0
14.08	25.0
14.094	24.0
14.109	24.0
14.124	18.0
14.139	22.0
14.154	27.0
14.169	19.0
14.184	18.0
14.199	21.0
14.214	21.0
14.229	11.0
14.244	27.0
14.259	20.0
14.274	24.0
14.288	24.0
14.303	24.0
14.318	19.0
14.333	17.0
14.348	14.0
14.363	18.0
14.378	16.0
14.393	15.0
14.408	17.0
14.423	15.0
14.438	24.0
14.453	16.0
14.468	14.0
14.482	16.0
14.497	20.0
14.512	23.0
14.527	15.0
14.542	20.0
14.557	23.0
14.572	11.0
14.587	13.0
14.602	19.0
14.617	15.0
14.632	17.0
14.647	17.0
14.661	17.0
14.676	19.0
14.691	12.0
14.706	12.0
14.721	13.0
14.736	11.0
14.751	12.0
14.766	14.0
14.781	16.0
14.796	19.0
14.811	10.0
14.826	14.0
14.84	13.0
14.855	17.0
14.87	11.0
14.885	15.0
14.9	10.0
14.915	20.0
14.93	14.0
14.945	16.0
14.96	17.0
14.975	14.0
14.989	13.0
15.004	15.0
15.019	16.0
15.034	19.0
15.049	14.0
15.064	15.0
15.079	16.0
15.094	15.0
15.109	5.0
15.124	13.0
15.138	16.0
15.153	18.0
15.168	9.0
15.183	17.0
15.198	8.0
15.213	7.0
15.228	19.0
15.243	17.0
15.258	23.0
15.272	11.0
15.287	8.0
15.302	17.0
15.317	7.0
15.332	14.0
15.347	14.0
15.362	11.0
15.377	18.0
15.391	21.0
15.406	16.0
15.421	19.0
15.436	17.0
15.451	14.0
15.466	13.0
15.481	11.0
15.496	15.0
15.51	12.0
15.525	18.0
15.54	18.0
15.555	10.0
15.57	13.0
15.585	17.0
15.6	17.0
15.614	14.0
15.629	8.0
15.644	7.0
15.659	9.0
15.674	19.0
15.689	18.0
15.704	11.0
15.718	18.0
15.733	14.0
15.748	8.0
15.763	6.0
15.778	8.0
15.793	17.0
15.808	15.0
15.822	9.0
15.837	14.0
15.852	13.0
15.867	16.0
15.882	16.0
15.897	10.0
15.911	19.0
15.926	14.0
15.941	8.0
15.956	8.0
15.971	12.0
15.986	14.0
16.0	9.0
16.015	17.0
16.03	15.0
16.045	13.0
16.06	17.0
16.074	16.0
16.089	15.0
16.104	10.0
16.119	17.0
16.134	16.0
16.149	16.0
16.163	14.0
16.178	7.0
16.193	22.0
16.208	13.0
16.223	23.0
16.237	22.0
16.252	17.0
16.267	16.0
16.282	12.0
16.297	10.0
16.311	14.0
16.326	4.0
16.341	14.0
16.356	13.0
16.37	6.0
16.385	17.0
16.4	15.0
16.415	13.0
16.43	13.0
16.444	15.0
16.459	12.0
16.474	22.0
16.489	15.0
16.504	15.0
16.518	23.0
16.533	14.0
16.548	16.0
16.563	18.0
16.577	13.0
16.592	14.0
16.607	17.0
16.622	20.0
16.637	20.0
16.651	25.0
16.666	28.0
16.681	17.0
16.696	31.0
16.71	28.0
16.725	27.0
16.74	31.0
16.755	22.0
16.77	27.0
16.784	45.0
16.799	38.0
16.814	31.0
16.829	42.0
16.843	43.0
16.858	51.0
16.873	54.0
16.888	60.0
16.902	77.0
16.917	49.0
16.932	70.0
16.947	77.0
16.961	88.0
16.976	73.0
16.991	66.0
17.006	61.0
17.021	77.0
17.035	45.0
17.05	56.0
17.065	46.0
17.08	41.0
17.094	34.0
17.109	24.0
17.124	33.0
17.139	29.0
17.153	30.0
17.168	22.0
17.183	26.0
17.198	16.0
17.212	29.0
17.227	20.0
17.242	8.0
17.257	16.0
17.271	22.0
17.286	20.0
17.301	16.0
17.316	14.0
17.33	8.0
17.345	14.0
17.36	20.0
17.375	11.0
17.39	14.0
17.404	11.0
17.419	11.0
17.434	15.0
17.449	9.0
17.463	17.0
17.478	18.0
17.493	9.0
17.508	16.0
17.522	11.0
17.537	16.0
17.552	13.0
17.567	12.0
17.581	21.0
17.596	12.0
17.611	21.0
17.626	11.0
17.641	15.0
17.655	11.0
17.67	13.0
17.685	14.0
17.7	15.0
17.714	12.0
17.729	18.0
17.744	11.0
17.759	17.0
17.773	9.0
17.788	8.0
17.803	11.0
17.818	13.0
17.833	10.0
17.847	10.0
17.862	10.0
17.877	10.0
17.892	11.0
17.906	7.0
17.921	10.0
17.936	17.0
17.951	8.0
17.966	17.0
17.98	13.0
17.995	15.0
18.01	9.0
18.025	10.0
18.04	8.0
18.054	7.0
18.069	16.0
18.084	9.0
18.099	11.0
18.114	10.0
18.128	14.0
18.143	19.0
18.158	14.0
18.173	8.0
18.188	11.0
18.202	11.0
18.217	12.0
18.232	8.0
18.247	14.0
18.262	14.0
18.276	13.0
18.291	13.0
18.306	14.0
18.321	10.0
18.336	15.0
18.35	8.0
18.365	13.0
18.38	16.0
18.395	11.0
18.41	8.0
18.424	12.0
18.439	14.0
18.454	9.0
18.469	15.0
18.484	10.0
18.498	5.0
18.513	9.0
18.528	10.0
18.543	13.0
18.558	10.0
18.573	6.0
18.587	13.0
18.602	15.0
18.617	9.0
18.632	15.0
18.647	4.0
18.661	16.0
18.676	11.0
18.691	9.0
18.706	14.0
18.721	18.0
18.736	14.0
18.75	14.0
18.765	15.0
18.78	14.0
18.795	12.0
18.81	12.0
18.825	9.0
18.839	8.0
18.854	9.0
18.869	19.0
18.884	10.0
18.899	10.0
18.913	18.0
18.928	5.0
18.943	8.0
18.958	15.0
18.973	9.0
18.988	14.0
19.002	11.0
19.017	15.0
19.032	17.0
19.047	11.0
19.062	9.0
19.077	11.0
19.091	13.0
19.106	12.0
19.121	14.0
19.136	9.0
19.151	7.0
19.165	7.0
19.18	5.0
19.195	6.0
19.21	8.0
19.225	14.0
19.24	8.0
19.254	13.0
19.269	10.0
19.284	10.0
19.299	13.0
19.314	17.0
19.329	20.0
19.343	16.0
19.358	12.0
19.373	10.0
19.388	18.0
19.403	13.0
19.417	17.0
19.432	25.0
19.447	15.0
19.462	27.0
19.477	25.0
19.492	24.0
19.506	20.0
19.521	26.0
19.536	41.0
19.551	41.0
19.566	39.0
19.58	46.0
19.595	38.0
19.61	36.0
19.625	48.0
19.64	42.0
19.655	37.0
19.669	34.0
19.684	27.0
19.699	34.0
19.714	37.0
19.729	24.0
19.743	24.0
19.758	21.0
19.773	21.0
19.788	18.0
19.803	18.0
19.817	18.0
19.832	14.0
19.847	14.0
19.862	17.0
19.877	11.0
19.891	13.0
19.906	16.0
19.921	13.0
19.936	10.0
19.951	10.0
19.965	8.0
19.98	8.0
19.995	17.0
20.01	8.0
20.025	10.0
20.039	11.0
20.054	11.0
20.069	14.0
20.084	11.0
20.099	18.0
20.113	21.0
20.128	12.0
20.143	15.0
20.158	11.0
20.173	7.0
20.187	12.0
20.202	6.0
20.217	12.0
20.232	12.0
20.246	12.0
20.261	8.0
20.276	7.0
20.291	8.0
20.306	13.0
20.32	12.0
20.335	7.0
20.35	8.0
20.365	11.0
20.38	11.0
20.394	11.0
20.409	16.0
20.424	8.0
20.439	6.0
20.453	16.0
20.468	10.0
20.483	12.0
20.498	12.0
20.513	9.0
20.527	12.0
20.542	10.0
20.557	8.0
20.572	12.0
20.586	8.0
20.601	15.0
20.616	11.0
20.631	9.0
20.646	8.0
20.66	12.0
20.675	10.0
20.69	9.0
20.705	11.0
20.719	7.0
20.734	11.0
20.749	11.0
20.764	9.0
20.779	7.0
20.793	10.0
20.808	9.0
20.823	16.0
20.838	7.0
20.853	5.0
20.867	15.0
20.882	16.0
20.897	9.0
20.912	8.0
20.926	8.0
20.941	9.0
20.956	10.0
20.971	16.0
20.986	13.0
21.0	6.0
21.015	8.0
21.03	14.0
21.045	12.0
21.06	11.0
21.074	9.0
21.089	13.0
21.104	12.0
21.119	13.0
21.134	15.0
21.148	4.0
21.163	10.0
21.178	7.0
21.193	11.0
21.208	14.0
21.222	16.0
21.237	8.0
21.252	14.0
21.267	7.0
21.282	7.0
21.296	10.0
21.311	3.0
21.326	13.0
21.341	8.0
21.356	10.0
21.37	12.0
21.385	13.0
21.4	14.0
21.415	13.0
21.43	10.0
21.444	10.0
21.459	17.0
21.474	12.0
21.489	9.0
21.504	19.0
21.519	16.0
21.533	13.0
21.548	12.0
21.563	15.0
21.578	9.0
21.593	12.0
21.608	20.0
21.622	14.0
21.637	18.0
21.652	13.0
21.667	16.0
21.682	23.0
21.697	14.0
21.712	33.0
21.726	25.0
21.741	27.0
21.756	26.0
21.771	21.0
21.786	23.0
21.801	35.0
21.816	49.0
21.83	57.0
21.845	48.0
21.86	57.0
21.875	64.0
21.89	65.0
21.905	60.0
21.92	86.0
21.935	76.0
21.949	70.0
21.964	66.0
21.979	83.0
21.994	70.0
22.009	68.0
22.024	51.0
22.039	55.0
22.054	66.0
22.069	52.0
22.083	38.0
22.098	44.0
22.113	42.0
22.128	35.0
22.143	27.0
22.158	32.0
22.173	25.0
22.188	24.0
22.203	24.0
22.218	15.0
22.233	17.0
22.248	13.0
22.262	11.0
22.277	14.0
22.292	12.0
22.307	11.0
22.322	14.0
22.337	22.0
22.352	11.0
22.367	21.0
22.382	12.0
22.397	11.0
22.412	11.0
22.427	9.0
22.442	18.0
22.457	17.0
22.472	12.0
22.487	17.0
22.502	19.0
22.516	12.0
22.531	15.0
22.546	5.0
22.561	11.0
22.576	10.0
22.591	17.0
22.606	9.0
22.621	10.0
22.636	12.0
22.651	9.0
22.666	11.0
22.681	11.0
22.696	14.0
22.711	9.0
22.726	13.0
22.741	12.0
22.756	4.0
22.771	10.0
22.786	14.0
22.801	8.0
22.816	7.0
22.831	10.0
22.846	15.0
22.861	7.0
22.876	8.0
22.891	7.0
22.906	13.0
22.92	7.0
22.935	12.0
22.95	5.0
22.965	7.0
22.98	20.0
22.995	16.0
23.01	9.0
23.025	8.0
23.04	8.0
23.055	7.0
23.07	10.0
23.085	11.0
23.1	11.0
23.115	9.0
23.13	8.0
23.145	8.0
23.16	5.0
23.175	9.0
23.19	3.0
23.205	13.0
23.22	7.0
23.235	10.0
23.25	15.0
23.265	10.0
23.28	13.0
23.295	10.0
23.31	10.0
23.325	14.0
23.34	11.0
23.355	12.0
23.37	11.0
23.384	11.0
23.399	8.0
23.414	11.0
23.429	14.0
23.444	14.0
23.459	8.0
23.474	8.0
23.489	9.0
23.504	9.0
23.519	13.0
23.534	13.0
23.549	16.0
23.564	14.0
23.579	11.0
23.594	9.0
23.609	11.0
23.624	10.0
23.639	15.0
23.654	11.0
23.668	12.0
23.683	7.0
23.698	6.0
23.713	5.0
23.728	7.0
23.743	7.0
23.758	13.0
23.773	16.0
23.788	13.0
23.803	13.0
23.818	7.0
23.833	15.0
23.848	19.0
23.862	20.0
23.877	26.0
23.892	17.0
23.907	25.0
23.922	16.0
23.937	22.0
23.952	34.0
23.967	33.0
23.982	43.0
23.997	34.0
24.011	49.0
24.026	38.0
24.041	42.0
24.056	44.0
24.071	31.0
24.086	47.0
24.101	46.0
24.116	49.0
24.131	54.0
24.145	47.0
24.16	36.0
24.175	44.0
24.19	38.0
24.205	40.0
24.22	35.0
24.235	31.0
24.249	32.0
24.264	20.0
24.279	31.0
24.294	24.0
24.309	18.0
24.324	14.0
24.338	16.0
24.353	15.0
24.368	16.0
24.383	16.0
24.398	17.0
24.413	11.0
24.428	9.0
24.442	13.0
24.457	8.0
24.472	11.0
24.487	12.0
24.502	17.0
24.516	4.0
24.531	16.0
24.546	10.0
24.561	11.0
24.576	9.0
24.591	11.0
24.605	17.0
24.62	12.0
24.635	5.0
24.65	12.0
24.665	12.0
24.679	8.0
24.694	9.0
24.709	14.0
24.724	18.0
24.739	11.0
24.753	11.0
24.768	6.0
24.783	9.0
24.798	16.0
24.813	11.0
24.827	7.0
24.842	13.0
24.857	14.0
24.872	7.0
24.886	12.0
24.901	6.0
24.916	8.0
24.931	11.0
24.946	24.0
24.96	9.0
24.975	8.0
24.99	12.0
25.005	13.0
25.019	9.0
25.034	10.0
25.049	11.0
25.064	8.0
25.078	12.0
25.093	10.0
25.108	8.0
25.123	12.0
25.138	12.0
25.152	6.0
25.167	9.0
25.182	9.0
25.197	8.0
25.211	13.0
25.226	9.0
25.241	11.0
25.256	11.0
25.27	9.0
25.285	11.0
25.3	6.0
25.315	11.0
25.329	7.0
25.344	12.0
25.359	9.0
25.374	8.0
25.388	9.0
25.403	12.0
25.418	15.0
25.433	6.0
25.447	8.0
25.462	12.0
25.477	15.0
25.492	16.0
25.506	9.0
25.521	11.0
25.536	11.0
25.55	7.0
25.565	14.0
25.58	4.0
25.595	10.0
25.609	13.0
25.624	9.0
25.639	6.0
25.654	12.0
25.668	5.0
25.683	10.0
25.698	11.0
25.713	9.0
25.727	8.0
25.742	16.0
25.757	14.0
25.772	10.0
25.786	8.0
25.801	10.0
25.816	3.0
25.83	17.0
25.845	13.0
25.86	13.0
25.875	9.0
25.889	12.0
25.904	6.0
25.919	5.0
25.934	9.0
25.948	13.0
25.963	10.0
25.978	15.0
25.992	7.0
26.007	6.0
26.022	4.0
26.037	8.0
26.051	11.0
26.066	12.0
26.081	13.0
26.096	9.0
26.11	14.0
26.125	15.0
26.14	10.0
26.155	9.0
26.169	12.0
26.184	9.0
26.199	9.0
26.213	12.0
26.228	13.0
26.243	10.0
26.258	12.0
26.272	9.0
26.287	7.0
26.302	9.0
26.317	14.0
26.331	12.0
26.346	11.0
26.361	12.0
26.376	8.0
26.39	12.0
26.405	12.0
26.42	12.0
26.434	10.0
26.449	7.0
26.464	7.0
26.479	12.0
26.493	7.0
26.508	11.0
26.523	6.0
26.538	9.0
26.552	8.0
26.567	10.0
26.582	8.0
26.597	9.0
26.611	9.0
26.626	10.0
26.641	10.0
26.656	7.0
26.67	9.0
26.685	13.0
26.7	9.0
26.715	14.0
26.729	6.0
26.744	15.0
26.759	20.0
26.773	15.0
26.788	16.0
26.803	7.0
26.818	14.0
26.832	11.0
26.847	12.0
26.862	3.0
26.877	11.0
26.891	9.0
26.906	9.0
26.921	15.0
26.936	8.0
26.95	7.0
26.965	8.0
26.98	6.0
26.995	8.0
27.01	14.0
27.024	13.0
27.039	11.0
27.054	21.0
27.069	13.0
27.083	5.0
27.098	11.0
27.113	6.0
27.128	11.0
27.142	9.0
27.157	9.0
27.172	10.0
27.187	14.0
27.201	10.0
27.216	11.0
27.231	13.0
27.246	12.0
27.261	4.0
27.275	16.0
27.29	5.0
27.305	9.0
27.32	5.0
27.334	9.0
27.349	12.0
27.364	15.0
27.379	3.0
27.394	12.0
27.408	16.0
27.423	13.0
27.438	6.0
27.453	6.0
27.467	8.0
27.482	10.0
27.497	12.0
27.512	8.0
27.527	6.0
27.541	12.0
27.556	4.0
27.571	20.0
27.586	14.0
27.601	14.0
27.615	13.0
27.63	10.0
27.645	12.0
27.66	17.0
27.675	18.0
27.689	17.0
27.704	14.0
27.719	16.0
27.734	15.0
27.749	16.0
27.763	15.0
27.778	14.0
27.793	17.0
27.808	16.0
27.823	27.0
27.838	17.0
27.852	23.0
27.867	24.0
27.882	17.0
27.897	19.0
27.912	23.0
27.926	24.0
27.941	14.0
27.956	20.0
27.971	25.0
27.986	23.0
28.001	21.0
28.015	12.0
28.03	23.0
28.045	19.0
28.06	17.0
28.075	14.0
28.09	21.0
28.105	6.0
28.119	15.0
28.134	18.0
28.149	12.0
28.164	9.0
28.179	14.0
28.194	10.0
28.208	11.0
28.223	10.0
28.238	8.0
28.253	9.0
28.268	8.0
28.283	10.0
28.298	4.0
28.312	10.0
28.327	11.0
28.342	15.0
28.357	8.0
28.372	11.0
28.387	12.0
28.402	13.0
28.417	11.0
28.431	9.0
28.446	12.0
28.461	4.0
28.476	7.0
28.491	8.0
28.506	10.0
28.521	15.0
28.536	11.0
28.55	8.0
28.565	10.0
28.58	14.0
28.595	9.0
28.61	18.0
28.625	11.0
28.64	5.0
28.655	6.0
28.669	16.0
28.684	4.0
28.699	12.0
28.714	8.0
28.729	14.0
28.744	10.0
28.759	6.0
28.774	10.0
28.788	8.0
28.803	7.0
28.818	13.0
28.833	7.0
28.848	14.0
28.863	9.0
28.878	15.0
28.893	12.0
28.908	6.0
28.922	11.0
28.937	14.0
28.952	6.0
28.967	11.0
28.982	7.0
28.997	10.0
29.012	15.0
29.027	8.0
29.041	11.0
29.056	13.0
29.071	7.0
29.086	9.0
29.101	6.0
29.116	12.0
29.131	11.0
29.146	13.0
29.16	6.0
29.175	12.0
29.19	5.0
29.205	13.0
29.22	17.0
29.235	9.0
29.25	13.0
29.265	5.0
29.279	14.0
29.294	15.0
29.309	5.0
29.324	15.0
29.339	13.0
29.354	14.0
29.369	11.0
29.384	12.0
29.398	9.0
29.413	19.0
29.428	17.0
29.443	24.0
29.458	23.0
29.473	21.0
29.488	28.0
29.502	15.0
29.517	27.0
29.532	29.0
29.547	41.0
29.562	50.0
29.577	52.0
29.592	40.0
29.606	49.0
29.621	43.0
29.636	46.0
29.651	39.0
29.666	47.0
29.681	46.0
29.695	37.0
29.71	48.0
29.725	39.0
29.74	33.0
29.755	44.0
29.77	42.0
29.784	24.0
29.799	29.0
29.814	29.0
29.829	30.0
29.844	22.0
29.859	25.0
29.873	22.0
29.888	23.0
29.903	14.0
29.918	12.0
29.933	10.0
29.947	15.0
29.962	17.0
29.977	8.0
29.992	17.0
30.007	11.0
30.021	14.0
30.036	12.0
30.051	9.0
30.066	9.0
30.081	14.0
30.095	18.0
30.11	7.0
30.125	12.0
30.14	16.0
30.155	11.0
30.169	8.0
30.184	15.0
30.199	5.0
30.214	11.0
30.228	15.0
30.243	10.0
30.258	16.0
30.273	8.0
30.288	10.0
30.302	8.0
30.317	12.0
30.332	11.0
30.347	4.0
30.361	10.0
30.376	12.0
30.391	9.0
30.406	11.0
30.42	20.0
30.435	7.0
30.45	18.0
30.465	11.0
30.479	14.0
30.494	13.0
30.509	4.0
30.524	9.0
30.538	8.0
30.553	12.0
30.568	9.0
30.583	5.0
30.597	5.0
30.612	11.0
30.627	11.0
30.641	6.0
30.656	12.0
30.671	14.0
30.686	6.0
30.7	12.0
30.715	14.0
30.73	9.0
30.745	9.0
30.759	10.0
30.774	17.0
30.789	11.0
30.803	15.0
30.818	12.0
30.833	13.0
30.848	13.0
30.862	12.0
30.877	8.0
30.892	12.0
30.906	9.0
30.921	16.0
30.936	15.0
30.951	9.0
30.965	18.0
30.98	7.0
30.995	14.0
31.009	14.0
31.024	11.0
31.039	18.0
31.053	11.0
31.068	22.0
31.083	17.0
31.098	18.0
31.112	13.0
31.127	17.0
31.142	19.0
31.156	27.0
31.171	24.0
31.186	27.0
31.2	37.0
31.215	50.0
31.23	39.0
31.245	31.0
31.259	38.0
31.274	38.0
31.289	49.0
31.303	36.0
31.318	34.0
31.333	32.0
31.347	32.0
31.362	24.0
31.377	32.0
31.392	17.0
31.406	26.0
31.421	26.0
31.436	31.0
31.45	29.0
31.465	20.0
31.48	28.0
31.494	17.0
31.509	21.0
31.524	21.0
31.538	14.0
31.553	20.0
31.568	9.0
31.583	7.0
31.597	12.0
31.612	12.0
31.627	10.0
31.641	7.0
31.656	10.0
31.671	11.0
31.685	13.0
31.7	15.0
31.715	6.0
31.729	6.0
31.744	11.0
31.759	13.0
31.774	12.0
31.788	13.0
31.803	11.0
31.818	9.0
31.832	13.0
31.847	11.0
31.862	7.0
31.876	8.0
31.891	9.0
31.906	13.0
31.92	12.0
31.935	6.0
31.95	8.0
31.965	15.0
31.979	17.0
31.994	6.0
32.009	16.0
32.023	12.0
32.038	12.0
32.053	14.0
32.067	10.0
32.082	11.0
32.097	6.0
32.112	12.0
32.126	8.0
32.141	9.0
32.156	10.0
32.17	9.0
32.185	8.0
32.2	12.0
32.214	11.0
32.229	8.0
32.244	9.0
32.259	7.0
32.273	11.0
32.288	8.0
32.303	12.0
32.317	11.0
32.332	5.0
32.347	8.0
32.362	7.0
32.376	11.0
32.391	18.0
32.406	17.0
32.42	7.0
32.435	12.0
32.45	10.0
32.465	7.0
32.479	10.0
32.494	6.0
32.509	15.0
32.523	8.0
32.538	18.0
32.553	10.0
32.568	6.0
32.582	12.0
32.597	13.0
32.612	8.0
32.627	6.0
32.641	14.0
32.656	17.0
32.671	15.0
32.685	22.0
32.7	20.0
32.715	12.0
32.73	27.0
32.744	21.0
32.759	21.0
32.774	23.0
32.788	27.0
32.803	25.0
32.818	32.0
32.833	28.0
32.847	31.0
32.862	24.0
32.877	29.0
32.892	16.0
32.906	24.0
32.921	27.0
32.936	19.0
32.951	21.0
32.965	18.0
32.98	22.0
32.995	19.0
33.009	23.0
33.024	19.0
33.039	25.0
33.054	18.0
33.068	20.0
33.083	21.0
33.098	19.0
33.113	10.0
33.127	16.0
33.142	18.0
33.157	9.0
33.172	10.0
33.186	10.0
33.201	8.0
33.216	11.0
33.231	12.0
33.245	12.0
33.26	4.0
33.275	17.0
33.29	14.0
33.304	8.0
33.319	9.0
33.334	9.0
33.349	9.0
33.363	8.0
33.378	9.0
33.393	7.0
33.408	8.0
33.422	10.0
33.437	6.0
33.452	13.0
33.467	9.0
33.481	6.0
33.496	13.0
33.511	8.0
33.526	8.0
33.54	14.0
33.555	10.0
33.57	7.0
33.585	7.0
33.599	14.0
33.614	13.0
33.629	8.0
33.644	9.0
33.658	9.0
33.673	8.0
33.688	14.0
33.703	14.0
33.718	10.0
33.732	10.0
33.747	8.0
33.762	11.0
33.777	9.0
33.791	11.0
33.806	15.0
33.821	13.0
33.836	11.0
33.85	11.0
33.865	12.0
33.88	11.0
33.895	19.0
33.91	6.0
33.924	8.0
33.939	13.0
33.954	12.0
33.969	12.0
33.983	14.0
33.998	3.0
34.013	9.0
34.028	10.0
34.042	14.0
34.057	18.0
34.072	8.0
34.087	2.0
34.102	8.0
34.116	17.0
34.131	14.0
34.146	15.0
34.161	9.0
34.175	14.0
34.19	17.0
34.205	14.0
34.22	15.0
34.235	12.0
34.249	10.0
34.264	17.0
34.279	13.0
34.294	7.0
34.309	9.0
34.323	14.0
34.338	14.0
34.353	17.0
34.368	11.0
34.382	10.0
34.397	10.0
34.412	14.0
34.427	13.0
34.442	21.0
34.456	19.0
34.471	10.0
34.486	12.0
34.501	14.0
34.516	9.0
34.53	17.0
34.545	14.0
34.56	15.0
34.575	12.0
34.59	11.0
34.604	13.0
34.619	9.0
34.634	8.0
34.649	15.0
34.664	10.0
34.678	12.0
34.693	9.0
34.708	2.0
34.723	10.0
34.738	4.0
34.752	6.0
34.767	8.0
34.782	12.0
34.797	6.0
34.812	10.0
34.826	8.0
34.841	4.0
34.856	7.0
34.871	5.0
34.886	10.0
34.9	7.0
34.915	11.0
34.93	7.0
34.945	16.0
34.96	4.0
34.974	3.0
34.989	14.0
35.004	8.0
35.019	8.0
35.034	11.0
35.048	10.0
35.063	7.0
35.078	2.0
35.093	4.0
35.108	10.0
35.122	13.0
35.137	11.0
35.152	8.0
35.167	9.0
35.182	9.0
35.196	10.0
35.211	8.0
35.226	4.0
35.241	6.0
35.256	6.0
35.27	4.0
35.285	11.0
35.3	10.0
35.315	8.0
35.33	8.0
35.344	16.0
35.359	9.0
35.374	12.0
35.389	9.0
35.404	10.0
35.418	6.0
35.433	8.0
35.448	6.0
35.463	5.0
35.478	8.0
35.493	6.0
35.507	4.0
35.522	10.0
35.537	8.0
35.552	17.0
35.567	8.0
35.581	11.0
35.596	11.0
35.611	7.0
35.626	12.0
35.641	13.0
35.655	13.0
35.67	11.0
35.685	10.0
35.7	14.0
35.715	20.0
35.729	17.0
35.744	15.0
35.759	19.0
35.774	16.0
35.789	18.0
35.804	22.0
35.818	8.0
35.833	22.0
35.848	13.0
35.863	25.0
35.878	15.0
35.892	12.0
35.907	18.0
35.922	12.0
35.937	10.0
35.952	18.0
35.966	20.0
35.981	10.0
35.996	15.0
36.011	15.0
36.026	12.0
36.04	10.0
36.055	6.0
36.07	16.0
36.085	21.0
36.1	11.0
36.114	6.0
36.129	8.0
36.144	6.0
36.159	12.0
36.174	8.0
36.189	12.0
36.203	3.0
36.218	6.0
36.233	7.0
36.248	4.0
36.263	4.0
36.277	3.0
36.292	5.0
36.307	9.0
36.322	8.0
36.337	13.0
36.351	10.0
36.366	10.0
36.381	6.0
36.396	12.0
36.411	8.0
36.426	9.0
36.44	7.0
36.455	11.0
36.47	9.0
36.485	12.0
36.5	8.0
36.514	9.0
36.529	7.0
36.544	10.0
36.559	6.0
36.574	6.0
36.589	8.0
36.603	7.0
36.618	7.0
36.633	8.0
36.648	8.0
36.663	8.0
36.677	7.0
36.692	8.0
36.707	7.0
36.722	11.0
36.737	6.0
36.752	6.0
36.766	7.0
36.781	10.0
36.796	4.0
36.811	3.0
36.826	16.0
36.841	5.0
36.855	9.0
36.87	10.0
36.885	6.0
36.9	8.0
36.915	10.0
36.93	11.0
36.944	10.0
36.959	10.0
36.974	16.0
36.989	11.0
37.004	11.0
37.019	10.0
37.033	18.0
37.048	11.0
37.063	21.0
37.078	12.0
37.093	15.0
37.108	20.0
37.123	21.0
37.137	27.0
37.152	20.0
37.167	29.0
37.182	19.0
37.197	31.0
37.212	27.0
37.226	24.0
37.241	19.0
37.256	22.0
37.271	23.0
37.286	17.0
37.301	14.0
37.316	8.0
37.331	22.0
37.345	16.0
37.36	17.0
37.375	15.0
37.39	17.0
37.405	30.0
37.42	24.0
37.435	14.0
37.45	20.0
37.464	11.0
37.479	19.0
37.494	7.0
37.509	12.0
37.524	14.0
37.539	4.0
37.554	11.0
37.569	9.0
37.583	12.0
37.598	9.0
37.613	8.0
37.628	12.0
37.643	13.0
37.658	4.0
37.673	8.0
37.688	9.0
37.703	3.0
37.718	8.0
37.733	12.0
37.747	9.0
37.762	4.0
37.777	3.0
37.792	10.0
37.807	6.0
37.822	8.0
37.837	4.0
37.852	3.0
37.867	8.0
37.882	6.0
37.897	6.0
37.912	8.0
37.927	7.0
37.941	4.0
37.956	8.0
37.971	6.0
37.986	6.0
38.001	6.0
38.016	4.0
38.031	8.0
38.046	8.0
38.061	5.0
38.076	9.0
38.091	9.0
38.106	11.0
38.121	4.0
38.136	11.0
38.151	10.0
38.166	3.0
38.181	4.0
38.196	12.0
38.211	5.0
38.226	4.0
38.241	6.0
38.256	13.0
38.271	2.0
38.285	4.0
38.3	7.0
38.315	8.0
38.33	5.0
38.345	7.0
38.36	2.0
38.375	6.0
38.39	8.0
38.405	10.0
38.42	3.0
38.435	8.0
38.45	8.0
38.465	11.0
38.48	3.0
38.495	5.0
38.51	3.0
38.525	8.0
38.54	5.0
38.555	2.0
38.57	9.0
38.585	7.0
38.6	8.0
38.615	7.0
38.63	8.0
38.645	7.0
38.66	4.0
38.675	1.0
38.69	10.0
38.705	3.0
38.72	12.0
38.735	6.0
38.75	9.0
38.765	8.0
38.78	10.0
38.795	6.0
38.81	6.0
38.825	1.0
38.84	6.0
38.855	9.0
38.87	6.0
38.885	4.0
38.9	4.0
38.915	3.0
38.93	6.0
38.945	6.0
38.96	8.0
38.975	7.0
38.99	9.0
39.005	8.0
39.02	5.0
39.035	3.0
39.05	8.0
39.065	3.0
39.08	6.0
39.095	3.0
39.11	1.0
39.125	5.0
39.14	4.0
39.155	4.0
39.17	9.0
39.185	7.0
39.2	5.0
39.215	6.0
39.23	7.0
39.245	4.0
39.26	3.0
39.275	3.0
39.29	7.0
39.305	6.0
39.32	4.0
39.335	4.0
39.35	7.0
39.365	5.0
39.38	4.0
39.395	12.0
39.409	8.0
39.424	6.0
39.439	9.0
39.454	8.0
39.469	6.0
39.484	3.0
39.499	13.0
39.514	10.0
39.529	5.0
39.544	9.0
39.559	4.0
39.574	9.0
39.589	4.0
39.604	2.0
39.619	8.0
39.634	8.0
39.649	3.0
39.664	6.0
39.678	6.0
39.693	4.0
39.708	8.0
39.723	6.0
39.738	10.0
39.753	7.0
39.768	7.0
39.783	9.0
39.798	7.0
39.813	8.0
39.827	6.0
39.842	10.0
39.857	10.0
39.872	9.0
39.887	15.0
39.902	8.0
39.917	6.0
39.932	3.0
39.947	4.0
39.961	7.0
39.976	4.0
39.991	7.0
40.006	11.0
40.021	4.0
40.036	9.0
40.051	7.0
40.065	7.0
40.08	4.0
40.095	10.0
40.11	7.0
40.125	7.0
40.14	5.0
40.154	10.0
40.169	7.0
40.184	2.0
40.199	5.0
40.214	6.0
40.228	7.0
40.243	5.0
40.258	5.0
40.273	9.0
40.288	7.0
40.302	4.0
40.317	7.0
40.332	8.0
40.347	8.0
40.362	4.0
40.376	5.0
40.391	7.0
40.406	5.0
40.421	6.0
40.436	2.0
40.45	7.0
40.465	5.0
40.48	5.0
40.495	5.0
40.509	5.0
40.524	8.0
40.539	4.0
40.554	10.0
40.568	5.0
40.583	7.0
40.598	7.0
40.613	2.0
40.627	9.0
40.642	6.0
40.657	3.0
40.672	9.0
40.686	5.0
40.701	9.0
40.716	5.0
40.731	8.0
40.745	4.0
40.76	2.0
40.775	5.0
40.79	7.0
40.804	4.0
40.819	4.0
40.834	5.0
40.849	4.0
40.863	10.0
40.878	11.0
40.893	6.0
40.907	3.0
40.922	9.0
40.937	4.0
40.952	4.0
40.966	4.0
40.981	11.0
40.996	10.0
41.011	10.0
41.025	14.0
41.04	18.0
41.055	12.0
41.069	22.0
41.084	17.0
41.099	16.0
41.114	24.0
41.128	16.0
41.143	16.0
41.158	21.0
41.173	18.0
41.187	19.0
41.202	14.0
41.217	21.0
41.231	18.0
41.246	13.0
41.261	13.0
41.276	10.0
41.29	11.0
41.305	12.0
41.32	10.0
41.335	14.0
41.349	13.0
41.364	21.0
41.379	18.0
41.393	14.0
41.408	18.0
41.423	17.0
41.438	7.0
41.452	13.0
41.467	7.0
41.482	12.0
41.497	4.0
41.511	5.0
41.526	7.0
41.541	7.0
41.556	9.0
41.57	5.0
41.585	10.0
41.6	10.0
41.615	8.0
41.629	4.0
41.644	8.0
41.659	2.0
41.674	6.0
41.688	5.0
41.703	2.0
41.718	10.0
41.733	8.0
41.747	9.0
41.762	9.0
41.777	4.0
41.792	5.0
41.806	15.0
41.821	4.0
41.836	4.0
41.851	4.0
41.866	6.0
41.88	5.0
41.895	5.0
41.91	11.0
41.925	5.0
41.939	5.0
41.954	4.0
41.969	1.0
41.984	8.0
41.999	4.0
42.013	10.0
42.028	5.0
42.043	9.0
42.058	6.0
42.073	3.0
42.088	8.0
42.102	3.0
42.117	4.0
42.132	8.0
42.147	4.0
42.162	7.0
42.176	6.0
42.191	7.0
42.206	7.0
42.221	9.0
42.236	4.0
42.251	7.0
42.266	3.0
42.28	15.0
42.295	13.0
42.31	10.0
42.325	13.0
42.34	12.0
42.355	10.0
42.369	13.0
42.384	19.0
42.399	23.0
42.414	15.0
42.429	19.0
42.444	23.0
42.459	18.0
42.474	10.0
42.488	16.0
42.503	9.0
42.518	11.0
42.533	13.0
42.548	9.0
42.563	12.0
42.578	9.0
42.593	12.0
42.608	14.0
42.622	12.0
42.637	8.0
42.652	19.0
42.667	13.0
42.682	11.0
42.697	12.0
42.712	9.0
42.727	7.0
42.742	19.0
42.757	12.0
42.772	11.0
42.786	5.0
42.801	3.0
42.816	9.0
42.831	5.0
42.846	3.0
42.861	6.0
42.876	6.0
42.891	7.0
42.906	6.0
42.921	13.0
42.936	4.0
42.951	3.0
42.966	4.0
42.981	9.0
42.996	6.0
43.011	11.0
43.025	5.0
43.04	4.0
43.055	7.0
43.07	8.0
43.085	4.0
43.1	3.0
43.115	4.0
43.13	5.0
43.145	6.0
43.16	9.0
43.175	8.0
43.19	8.0
43.205	4.0
43.22	8.0
43.235	1.0
43.25	8.0
43.265	4.0
43.28	4.0
43.295	3.0
43.31	6.0
43.325	3.0
43.34	2.0
43.355	7.0
43.37	5.0
43.385	4.0
43.4	5.0
43.415	1.0
43.43	7.0
43.445	3.0
43.46	6.0
43.475	7.0
43.49	6.0
43.505	8.0
43.52	10.0
43.535	6.0
43.55	6.0
43.565	9.0
43.58	11.0
43.595	10.0
43.61	9.0
43.625	9.0
43.64	14.0
43.655	11.0
43.67	13.0
43.685	3.0
43.7	5.0
43.715	7.0
43.73	8.0
43.745	5.0
43.76	6.0
43.775	6.0
43.79	4.0
43.805	4.0
43.82	2.0
43.835	7.0
43.85	2.0
43.865	10.0
43.88	5.0
43.895	10.0
43.91	5.0
43.925	1.0
43.94	10.0
43.955	5.0
43.97	6.0
43.985	7.0
44.0	5.0
44.015	10.0
44.03	5.0
44.045	7.0
44.061	1.0
44.076	3.0
44.091	6.0
44.106	8.0
44.121	2.0
44.136	5.0
44.151	1.0
44.166	5.0
44.181	5.0
44.196	1.0
44.211	7.0
44.226	9.0
44.241	3.0
44.256	5.0
44.271	9.0
44.286	2.0
44.301	6.0
44.316	6.0
44.331	7.0
44.346	4.0
44.361	6.0
44.377	3.0
44.392	5.0
44.407	7.0
44.422	5.0
44.437	6.0
44.452	10.0
44.467	3.0
44.482	6.0
44.497	8.0
44.512	10.0
44.527	5.0
44.542	6.0
44.557	3.0
44.572	7.0
44.587	5.0
44.602	3.0
44.617	5.0
44.632	2.0
44.647	8.0
44.663	8.0
44.678	4.0
44.693	5.0
44.708	5.0
44.723	9.0
44.738	9.0
44.753	11.0
44.768	4.0
44.783	10.0
44.798	9.0
44.813	16.0
44.828	15.0
44.843	6.0
44.858	11.0
44.873	9.0
44.888	3.0
44.903	10.0
44.918	11.0
44.933	8.0
44.948	5.0
44.964	6.0
44.979	7.0
44.994	10.0
45.009	10.0
45.024	9.0
45.039	5.0
45.054	10.0
45.069	8.0
45.084	6.0
45.099	8.0
45.114	8.0
45.129	10.0
45.144	5.0
45.159	7.0
45.174	6.0
45.189	8.0
45.204	9.0
45.219	7.0
45.234	5.0
45.249	6.0
45.264	7.0
45.279	3.0
45.294	7.0
45.309	3.0
45.324	4.0
45.339	6.0
45.354	6.0
45.369	3.0
45.384	3.0
45.399	2.0
45.414	10.0
45.429	4.0
45.444	9.0
45.459	1.0
45.474	4.0
45.489	8.0
45.504	5.0
45.519	4.0
45.534	6.0
45.549	7.0
45.564	2.0
45.579	6.0
45.594	3.0
45.609	4.0
45.624	4.0
45.639	7.0
45.654	5.0
45.669	4.0
45.684	9.0
45.699	5.0
45.714	5.0
45.729	9.0
45.744	7.0
45.759	7.0
45.774	8.0
45.789	8.0
45.804	3.0
45.819	7.0
45.834	10.0
45.849	11.0
45.864	8.0
45.879	7.0
45.894	7.0
45.909	11.0
45.924	19.0
45.939	16.0
45.954	17.0
45.969	11.0
45.984	15.0
45.998	22.0
46.013	11.0
46.028	12.0
46.043	17.0
46.058	9.0
46.073	15.0
46.088	10.0
46.103	6.0
46.118	15.0
46.133	6.0
46.148	7.0
46.163	5.0
46.178	6.0
46.192	4.0
46.207	6.0
46.222	10.0
46.237	11.0
46.252	8.0
46.267	8.0
46.282	10.0
46.297	10.0
46.312	13.0
46.327	12.0
46.341	7.0
46.356	5.0
46.371	0.0
46.386	3.0
46.401	6.0
46.416	4.0
46.431	4.0
46.446	6.0
46.46	2.0
46.475	8.0
46.49	4.0
46.505	5.0
46.52	7.0
46.535	6.0
46.55	6.0
46.564	6.0
46.579	3.0
46.594	1.0
46.609	5.0
46.624	2.0
46.639	7.0
46.654	5.0
46.668	4.0
46.683	4.0
46.698	3.0
46.713	4.0
46.728	8.0
46.743	4.0
46.758	6.0
46.772	4.0
46.787	3.0
46.802	7.0
46.817	3.0
46.832	4.0
46.847	4.0
46.861	7.0
46.876	1.0
46.891	6.0
46.906	7.0
46.921	7.0
46.936	8.0
46.95	1.0
46.965	9.0
46.98	3.0
46.995	3.0
47.01	5.0
47.025	5.0
47.039	11.0
47.054	8.0
47.069	7.0
47.084	10.0
47.099	12.0
47.113	12.0
47.128	3.0
47.143	16.0
47.158	9.0
47.173	6.0
47.188	6.0
47.202	13.0
47.217	6.0
47.232	9.0
47.247	3.0
47.262	8.0
47.277	7.0
47.291	3.0
47.306	4.0
47.321	5.0
47.336	7.0
47.351	6.0
47.365	6.0
47.38	9.0
47.395	8.0
47.41	7.0
47.425	6.0
47.44	9.0
47.454	6.0
47.469	7.0
47.484	6.0
47.499	7.0
47.514	7.0
47.528	5.0
47.543	4.0
47.558	7.0
47.573	3.0
47.588	1.0
47.603	5.0
47.617	7.0
47.632	8.0
47.647	7.0
47.662	3.0
47.677	7.0
47.691	6.0
47.706	4.0
47.721	6.0
47.736	4.0
47.751	10.0
47.766	7.0
47.78	11.0
47.795	0.0
47.81	6.0
47.825	3.0
47.84	6.0
47.855	2.0
47.869	3.0
47.884	6.0
47.899	4.0
47.914	6.0
47.929	3.0
47.944	2.0
47.958	1.0
47.973	4.0
47.988	5.0
48.003	3.0
48.018	4.0
48.033	2.0
48.047	5.0
48.062	3.0
48.077	4.0
48.092	9.0
48.107	7.0
48.122	3.0
48.137	8.0
48.151	2.0
48.166	2.0
48.181	4.0
48.196	7.0
48.211	6.0
48.226	4.0
48.241	0.0
48.255	7.0
48.27	5.0
48.285	7.0
48.3	2.0
48.315	4.0
48.33	4.0
48.345	12.0
48.359	5.0
48.374	5.0
48.389	8.0
48.404	7.0
48.419	6.0
48.434	6.0
48.449	7.0
48.464	3.0
48.478	6.0
48.493	8.0
48.508	8.0
48.523	4.0
48.538	3.0
48.553	3.0
48.568	5.0
48.583	5.0
48.597	9.0
48.612	6.0
48.627	5.0
48.642	3.0
48.657	5.0
48.672	4.0
48.687	7.0
48.702	4.0
48.717	2.0
48.731	7.0
48.746	7.0
48.761	5.0
48.776	4.0
48.791	0.0
48.806	6.0
48.821	5.0
48.836	3.0
48.851	6.0
48.866	3.0
48.88	5.0
48.895	1.0
48.91	8.0
48.925	2.0
48.94	6.0
48.955	7.0
48.97	6.0
48.985	4.0
49.0	3.0
49.015	5.0
49.03	5.0
49.044	6.0
49.059	3.0
49.074	4.0
49.089	3.0
49.104	4.0
49.119	3.0
49.134	4.0
49.149	4.0
49.164	2.0
49.179	2.0
49.194	2.0
49.209	3.0
49.224	7.0
49.238	8.0
49.253	7.0
49.268	2.0
49.283	2.0
49.298	3.0
49.313	8.0
49.328	9.0
49.343	5.0
49.358	4.0
49.373	3.0
49.388	2.0
49.403	8.0
49.418	14.0
49.433	2.0
49.448	9.0
49.463	4.0
49.478	6.0
49.492	9.0
49.507	7.0
49.522	8.0
49.537	5.0
49.552	3.0
49.567	7.0
49.582	3.0
49.597	7.0
49.612	1.0
49.627	4.0
49.642	6.0
49.657	4.0
49.672	8.0
49.687	6.0
49.702	4.0
49.717	2.0
49.732	3.0
49.747	4.0
49.762	5.0
49.777	4.0
49.792	5.0
49.807	3.0
49.822	4.0
49.837	5.0
49.852	6.0
49.867	5.0
49.882	3.0
49.897	7.0
49.912	5.0
49.927	5.0
49.942	7.0
49.957	3.0
49.971	2.0
49.986	4.0
50.001	0.0
50.016	9.0
50.031	2.0
50.046	3.0
50.061	4.0
50.076	3.0
50.091	5.0
50.106	5.0
50.121	3.0
50.136	3.0
50.151	3.0
50.166	6.0
50.181	2.0
50.196	8.0
50.211	1.0
50.226	4.0
50.241	3.0
50.256	3.0
50.271	6.0
50.286	4.0
50.302	6.0
50.317	3.0
50.332	5.0
50.347	8.0
50.362	6.0
50.377	9.0
50.392	5.0
50.407	4.0
50.422	7.0
50.437	3.0
50.452	8.0
50.467	5.0
50.482	4.0
50.497	7.0
50.512	9.0
50.527	4.0
50.542	5.0
50.557	5.0
50.572	5.0
50.587	7.0
50.602	3.0
50.617	6.0
50.632	7.0
50.647	4.0
50.662	3.0
50.677	4.0
50.692	6.0
50.707	1.0
50.722	5.0
50.737	6.0
50.752	7.0
50.767	2.0
50.782	7.0
50.797	15.0
50.812	6.0
50.828	7.0
50.843	6.0
50.858	1.0
50.873	3.0
50.888	6.0
50.903	1.0
50.918	1.0
50.933	4.0
50.948	5.0
50.963	7.0
50.978	3.0
50.993	7.0
51.008	6.0
51.023	8.0
51.038	7.0
51.053	6.0
51.068	2.0
51.083	4.0
51.098	4.0
51.114	5.0
51.129	4.0
51.144	5.0
51.159	5.0
51.174	7.0
51.189	11.0
51.204	5.0
51.219	2.0
51.234	5.0
51.249	7.0
51.264	8.0
51.279	8.0
51.294	5.0
51.309	7.0
51.324	2.0
51.34	5.0
51.355	5.0
51.37	8.0
51.385	6.0
51.4	4.0
51.415	9.0
51.43	3.0
51.445	12.0
51.46	10.0
51.475	14.0
51.49	8.0
51.505	8.0
51.52	11.0
51.535	14.0
51.551	13.0
51.566	10.0
51.581	17.0
51.596	12.0
51.611	10.0
51.626	9.0
51.641	9.0
51.656	11.0
51.671	3.0
51.686	9.0
51.701	4.0
51.716	4.0
51.732	6.0
51.747	5.0
51.762	7.0
51.777	7.0
51.792	9.0
51.807	14.0
51.822	12.0
51.837	10.0
51.852	8.0
51.867	11.0
51.882	13.0
51.898	10.0
51.913	16.0
51.928	9.0
51.943	5.0
51.958	3.0
51.973	8.0
51.988	3.0
52.003	7.0
52.018	4.0
52.033	7.0
52.048	5.0
52.064	4.0
52.079	7.0
52.094	6.0
52.109	3.0
52.124	6.0
52.139	3.0
52.154	5.0
52.169	5.0
52.184	5.0
52.199	7.0
52.215	4.0
52.23	4.0
52.245	6.0
52.26	5.0
52.275	3.0
52.29	4.0
52.305	5.0
52.32	9.0
52.335	2.0
52.35	1.0
52.366	6.0
52.381	4.0
52.396	5.0
52.411	3.0
52.426	3.0
52.441	6.0
52.456	7.0
52.471	8.0
52.486	10.0
52.502	9.0
52.517	4.0
52.532	10.0
52.547	12.0
52.562	7.0
52.577	13.0
52.592	11.0
52.607	12.0
52.622	8.0
52.637	2.0
52.653	7.0
52.668	7.0
52.683	3.0
52.698	4.0
52.713	8.0
52.728	7.0
52.743	4.0
52.758	5.0
52.774	9.0
52.789	4.0
52.804	11.0
52.819	9.0
52.834	6.0
52.849	9.0
52.864	10.0
52.879	9.0
52.894	4.0
52.91	14.0
52.925	3.0
52.94	4.0
52.955	9.0
52.97	6.0
52.985	7.0
53.0	12.0
53.015	6.0
53.031	1.0
53.046	6.0
53.061	5.0
53.076	8.0
53.091	3.0
53.106	7.0
53.121	7.0
53.136	9.0
53.152	3.0
53.167	2.0
53.182	2.0
53.197	7.0
53.212	3.0
53.227	2.0
53.242	5.0
53.257	7.0
53.273	3.0
53.288	5.0
53.303	3.0
53.318	4.0
53.333	2.0
53.348	2.0
53.363	3.0
53.379	7.0
53.394	4.0
53.409	0.0
53.424	5.0
53.439	6.0
53.454	5.0
53.469	3.0
53.484	2.0
53.5	7.0
53.515	3.0
53.53	5.0
53.545	5.0
53.56	1.0
53.575	5.0
53.59	5.0
53.606	10.0
53.621	2.0
53.636	5.0
53.651	1.0
53.666	4.0
53.681	10.0
53.696	7.0
53.712	11.0
53.727	6.0
53.742	5.0
53.757	3.0
53.772	8.0
53.787	2.0
53.802	6.0
53.818	6.0
53.833	3.0
53.848	1.0
53.863	6.0
53.878	6.0
53.893	1.0
53.909	8.0
53.924	4.0
53.939	8.0
53.954	4.0
53.969	2.0
53.984	5.0
53.999	2.0
54.015	7.0
54.03	4.0
54.045	3.0
54.06	3.0
54.075	5.0
54.09	8.0
54.106	3.0
54.121	4.0
54.136	9.0
54.151	9.0
54.166	9.0
54.181	7.0
54.197	5.0
54.212	3.0
54.227	3.0
54.242	3.0
54.257	2.0
54.272	10.0
54.288	8.0
54.303	12.0
54.318	1.0
54.333	5.0
54.348	4.0
54.363	4.0
54.379	3.0
54.394	5.0
54.409	3.0
54.424	2.0
54.439	5.0
54.454	6.0
54.47	2.0
54.485	10.0
54.5	8.0
54.515	5.0
54.53	6.0
54.545	8.0
54.561	6.0
54.576	11.0
54.591	11.0
54.606	9.0
54.621	13.0
54.636	7.0
54.652	12.0
54.667	11.0
54.682	13.0
54.697	11.0
54.712	13.0
54.727	4.0
54.743	14.0
54.758	7.0
54.773	4.0
54.788	2.0
54.803	4.0
54.819	4.0
54.834	2.0
54.849	8.0
54.864	6.0
54.879	8.0
54.894	9.0
54.91	5.0
54.925	9.0
54.94	3.0
54.955	8.0
54.97	10.0
54.985	3.0
55.001	8.0
55.016	8.0
55.031	4.0
55.046	9.0
55.061	7.0
55.077	8.0
55.092	5.0
55.107	4.0
55.122	5.0
55.137	5.0
55.152	3.0
55.168	10.0
55.183	11.0
55.198	4.0
55.213	6.0
55.228	2.0
55.243	4.0
55.259	8.0
55.274	2.0
55.289	4.0
55.304	2.0
55.319	6.0
55.335	3.0
55.35	3.0
55.365	8.0
55.38	2.0
55.395	4.0
55.41	2.0
55.426	3.0
55.441	5.0
55.456	2.0
55.471	5.0
55.486	5.0
55.501	7.0
55.517	6.0
55.532	2.0
55.547	5.0
55.562	4.0
55.577	5.0
55.592	6.0
55.608	4.0
55.623	6.0
55.638	5.0
55.653	6.0
55.668	8.0
55.683	9.0
55.699	7.0
55.714	6.0
55.729	6.0
55.744	10.0
55.759	6.0
55.774	5.0
55.79	3.0
55.805	4.0
55.82	2.0
55.835	9.0
55.85	3.0
55.865	5.0
55.881	3.0
55.896	5.0
55.911	5.0
55.926	5.0
55.941	6.0
55.956	3.0
55.972	5.0
55.987	2.0
56.002	5.0
56.017	2.0
56.032	2.0
56.047	5.0
56.063	4.0
56.078	7.0
56.093	7.0
56.108	9.0
56.123	4.0
56.138	8.0
56.154	4.0
56.169	2.0
56.184	3.0
56.199	3.0
56.214	5.0
56.229	5.0
56.244	3.0
56.26	9.0
56.275	0.0
56.29	3.0
56.305	3.0
56.32	3.0
56.335	2.0
56.351	3.0
56.366	5.0
56.381	6.0
56.396	2.0
56.411	3.0
56.426	4.0
56.441	5.0
56.457	3.0
56.472	2.0
56.487	6.0
56.502	3.0
56.517	6.0
56.532	4.0
56.547	2.0
56.563	5.0
56.578	2.0
56.593	4.0
56.608	6.0
56.623	8.0
56.638	2.0
56.653	8.0
56.668	3.0
56.684	4.0
56.699	4.0
56.714	3.0
56.729	7.0
56.744	5.0
56.759	2.0
56.774	4.0
56.79	10.0
56.805	5.0
56.82	5.0
56.835	1.0
56.85	2.0
56.865	3.0
56.88	3.0
56.895	1.0
56.911	7.0
56.926	8.0
56.941	2.0
56.956	3.0
56.971	2.0
56.986	8.0
57.001	2.0
57.016	5.0
57.031	3.0
57.047	3.0
57.062	2.0
57.077	4.0
57.092	4.0
57.107	2.0
57.122	3.0
57.137	3.0
57.152	3.0
57.167	3.0
57.183	5.0
57.198	4.0
57.213	6.0
57.228	5.0
57.243	3.0
57.258	4.0
57.273	4.0
57.288	3.0
57.303	7.0
57.318	6.0
57.334	6.0
57.349	3.0
57.364	0.0
57.379	1.0
57.394	6.0
57.409	2.0
57.424	7.0
57.439	3.0
57.454	1.0
57.469	2.0
57.484	3.0
57.5	5.0
57.515	5.0
57.53	4.0
57.545	6.0
57.56	6.0
57.575	5.0
57.59	3.0
57.605	6.0
57.62	4.0
57.635	8.0
57.65	3.0
57.665	2.0
57.68	8.0
57.696	4.0
57.711	3.0
57.726	4.0
57.741	3.0
57.756	7.0
57.771	4.0
57.786	8.0
57.801	8.0
57.816	3.0
57.831	4.0
57.846	4.0
57.861	5.0
57.876	4.0
57.891	8.0
57.906	4.0
57.921	4.0
57.937	6.0
57.952	5.0
57.967	5.0
57.982	5.0
57.997	8.0
58.012	5.0
58.027	8.0
58.042	4.0
58.057	5.0
58.072	4.0
58.087	4.0
58.102	3.0
58.117	4.0
58.132	3.0
58.147	5.0
58.162	4.0
58.177	6.0
58.192	3.0
58.207	2.0
58.222	9.0
58.237	6.0
58.252	1.0
58.267	4.0
58.282	3.0
58.297	4.0
58.312	3.0
58.327	3.0
58.342	5.0
58.357	5.0
58.372	4.0
58.387	1.0
58.402	4.0
58.418	3.0
58.433	5.0
58.448	4.0
58.463	8.0
58.478	7.0
58.493	4.0
58.508	4.0
58.523	9.0
58.538	2.0
58.553	5.0
58.568	8.0
58.583	9.0
58.598	7.0
58.613	6.0
58.628	11.0
58.643	6.0
58.658	12.0
58.673	7.0
58.688	16.0
58.703	8.0
58.718	9.0
58.733	9.0
58.748	10.0
58.763	9.0
58.778	5.0
58.793	6.0
58.808	2.0
58.823	6.0
58.838	4.0
58.853	6.0
58.868	3.0
58.883	5.0
58.898	4.0
58.913	8.0
58.928	8.0
58.942	4.0
58.957	2.0
58.972	8.0
58.987	6.0
59.002	6.0
59.017	3.0
59.032	5.0
59.047	10.0
59.062	5.0
59.077	3.0
59.092	4.0
59.107	2.0
59.122	5.0
59.137	6.0
59.152	3.0
59.167	5.0
59.182	6.0
59.197	4.0
59.212	4.0
59.227	1.0
59.242	5.0
59.257	2.0
59.272	8.0
59.287	0.0
59.302	3.0
59.317	3.0
59.332	4.0
59.347	5.0
59.362	1.0
59.377	4.0
59.392	7.0
59.407	8.0
59.422	4.0
59.437	3.0
59.452	7.0
59.467	4.0
59.482	4.0
59.497	5.0
59.512	6.0
59.527	9.0
59.542	7.0
59.557	8.0
59.572	7.0
59.587	11.0
59.602	5.0
59.617	11.0
59.632	7.0
59.647	11.0
59.661	5.0
59.676	2.0
59.691	7.0
59.706	5.0
59.721	1.0
59.736	8.0
59.751	8.0
59.766	3.0
59.781	9.0
59.796	6.0
59.811	1.0
59.826	8.0
59.841	4.0
59.856	5.0
59.871	3.0
59.886	5.0
59.901	5.0
59.916	3.0
59.931	5.0
59.946	6.0
59.961	6.0
59.976	8.0
59.991	7.0
60.006	4.0
60.021	4.0
60.036	8.0
60.051	6.0
60.066	2.0
60.081	7.0
60.096	2.0
60.111	9.0
60.126	2.0
60.141	4.0
60.156	7.0
60.171	3.0
60.186	3.0
60.201	2.0
60.216	9.0
60.231	4.0
60.246	2.0
60.261	4.0
60.276	2.0
60.291	8.0
60.306	2.0
60.321	10.0
60.336	6.0
60.35	4.0
60.365	3.0
60.38	6.0
60.395	5.0
60.41	3.0
60.425	11.0
60.44	2.0
60.455	6.0
60.47	5.0
60.485	5.0
60.5	7.0
60.515	6.0
60.53	2.0
60.545	5.0
60.56	6.0
60.575	5.0
60.59	4.0
60.605	7.0
60.62	3.0
60.635	5.0
60.65	6.0
60.665	5.0
60.68	5.0
60.695	3.0
60.71	3.0
60.725	4.0
60.74	3.0
60.755	8.0
60.77	2.0
60.785	7.0
60.8	4.0
60.815	5.0
60.83	3.0
60.845	4.0
60.86	2.0
60.875	3.0
60.89	4.0
60.905	7.0
60.92	8.0
60.935	8.0
60.95	7.0
60.965	5.0
60.98	8.0
60.995	10.0
61.01	4.0
61.025	8.0
61.04	7.0
61.055	5.0
61.07	3.0
61.085	9.0
61.1	4.0
61.115	7.0
61.13	3.0
61.145	2.0
61.16	1.0
61.175	4.0
61.191	2.0
61.206	2.0
61.221	3.0
61.236	2.0
61.251	5.0
61.266	4.0
61.281	4.0
61.296	5.0
61.311	3.0
61.326	4.0
61.341	1.0
61.356	6.0
61.371	4.0
61.386	3.0
61.401	6.0
61.416	6.0
61.431	5.0
61.446	6.0
61.461	7.0
61.476	4.0
61.491	5.0
61.506	6.0
61.521	4.0
61.536	9.0
61.551	6.0
61.566	3.0
61.581	7.0
61.596	3.0
61.611	2.0
61.626	2.0
61.641	6.0
61.656	3.0
61.672	2.0
61.687	3.0
61.702	3.0
61.717	9.0
61.732	4.0
61.747	3.0
61.762	7.0
61.777	4.0
61.792	4.0
61.807	3.0
61.822	3.0
61.837	4.0
61.852	4.0
61.867	6.0
61.882	4.0
61.897	6.0
61.912	4.0
61.927	2.0
61.943	8.0
61.958	2.0
61.973	4.0
61.988	2.0
62.003	4.0
62.018	3.0
62.033	4.0
62.048	4.0
62.063	2.0
62.078	5.0
62.093	3.0
62.108	3.0
62.123	5.0
62.138	3.0
62.153	3.0
62.169	7.0
62.184	4.0
62.199	3.0
62.214	2.0
62.229	4.0
62.244	2.0
62.259	7.0
62.274	2.0
62.289	6.0
62.304	4.0
62.319	5.0
62.335	2.0
62.35	5.0
62.365	3.0
62.38	7.0
62.395	3.0
62.41	6.0
62.425	2.0
62.44	6.0
62.455	3.0
62.47	5.0
62.485	4.0
62.501	6.0
62.516	5.0
62.531	5.0
62.546	2.0
62.561	5.0
62.576	1.0
62.591	1.0
62.606	4.0
62.621	3.0
62.636	2.0
62.652	0.0
62.667	2.0
62.682	7.0
62.697	5.0
62.712	3.0
62.727	4.0
62.742	6.0
62.757	6.0
62.772	3.0
62.787	3.0
62.803	1.0
62.818	5.0
62.833	1.0
62.848	4.0
62.863	2.0
62.878	4.0
62.893	3.0
62.908	2.0
62.923	6.0
62.939	4.0
62.954	2.0
62.969	1.0
62.984	1.0
62.999	2.0
63.014	1.0
63.029	3.0
63.044	4.0
63.059	2.0
63.074	4.0
63.09	1.0
63.105	4.0
63.12	3.0
63.135	8.0
63.15	6.0
63.165	5.0
63.18	7.0
63.195	10.0
63.21	2.0
63.226	6.0
63.241	5.0
63.256	5.0
63.271	7.0
63.286	4.0
63.301	3.0
63.316	4.0
63.331	7.0
63.346	4.0
63.362	6.0
63.377	2.0
63.392	3.0
63.407	3.0
63.422	12.0
63.437	9.0
63.452	7.0
63.467	5.0
63.482	6.0
63.497	7.0
63.513	4.0
63.528	5.0
63.543	5.0
63.558	8.0
63.573	10.0
63.588	6.0
63.603	3.0
63.618	2.0
63.633	6.0
63.648	4.0
63.664	6.0
63.679	5.0
63.694	9.0
63.709	2.0
63.724	3.0
63.739	5.0
63.754	9.0
63.769	4.0
63.784	2.0
63.799	4.0
63.814	2.0
63.83	8.0
63.845	6.0
63.86	5.0
63.875	7.0
63.89	4.0
63.905	8.0
63.92	6.0
63.935	7.0
63.95	1.0
63.965	0.0
63.98	4.0
63.996	3.0
64.011	2.0
64.026	5.0
64.041	2.0
64.056	4.0
64.071	2.0
64.086	0.0
64.101	8.0
64.116	6.0
64.131	5.0
64.146	3.0
64.161	5.0
64.176	4.0
64.191	7.0
64.207	3.0
64.222	1.0
64.237	5.0
64.252	5.0
64.267	4.0
64.282	6.0
64.297	6.0
64.312	1.0
64.327	1.0
64.342	4.0
64.357	4.0
64.372	3.0
64.387	4.0
64.402	2.0
64.417	2.0
64.433	3.0
64.448	5.0
64.463	7.0
64.478	6.0
64.493	7.0
64.508	1.0
64.523	1.0
64.538	2.0
64.553	4.0
64.568	7.0
64.583	4.0
64.598	1.0
64.613	7.0
64.628	5.0
64.643	3.0
64.658	5.0
64.673	4.0
64.688	3.0
64.703	3.0
64.718	6.0
64.734	3.0
64.749	3.0
64.764	4.0
64.779	3.0
64.794	2.0
64.809	4.0
64.824	5.0
64.839	4.0
64.854	6.0
64.869	4.0
64.884	2.0
64.899	1.0
64.914	6.0
64.929	4.0
64.944	7.0
64.959	2.0
64.974	4.0
64.989	5.0
65.004	2.0
65.019	1.0
65.034	4.0
65.049	2.0
65.064	2.0
65.079	2.0
65.094	4.0
65.109	2.0
65.125	2.0
65.14	5.0
65.155	5.0
65.17	4.0
65.185	1.0
65.2	2.0
65.215	3.0
65.23	3.0
65.245	4.0
65.26	7.0
65.275	3.0
65.29	3.0
65.305	7.0
65.32	2.0
65.335	8.0
65.35	5.0
65.365	3.0
65.38	1.0
65.395	2.0
65.41	2.0
65.425	2.0
65.44	2.0
65.455	3.0
65.47	4.0
65.485	2.0
65.5	9.0
65.515	9.0
65.53	3.0
65.545	4.0
65.56	6.0
65.575	5.0
65.59	1.0
65.605	3.0
65.62	5.0
65.635	7.0
65.65	3.0
65.666	0.0
65.681	8.0
65.696	9.0
65.711	6.0
65.726	3.0
65.741	5.0
65.756	2.0
65.771	2.0
65.786	9.0
65.801	5.0
65.816	4.0
65.831	2.0
65.846	1.0
65.861	1.0
65.876	3.0
65.891	4.0
65.906	1.0
65.921	4.0
65.936	2.0
65.951	4.0
65.966	2.0
65.981	4.0
65.996	5.0
66.011	4.0
66.026	1.0
66.041	4.0
66.056	4.0
66.071	5.0
66.086	4.0
66.101	5.0
66.116	4.0
66.131	8.0
66.146	6.0
66.161	6.0
66.176	7.0
66.191	7.0
66.206	9.0
66.221	7.0
66.236	10.0
66.251	6.0
66.266	7.0
66.281	3.0
66.296	6.0
66.311	4.0
66.327	7.0
66.342	9.0
66.357	4.0
66.372	5.0
66.387	3.0
66.402	5.0
66.417	4.0
66.432	8.0
66.447	7.0
66.462	2.0
66.477	2.0
66.492	5.0
66.507	5.0
66.522	2.0
66.537	5.0
66.552	4.0
66.567	5.0
66.582	5.0
66.597	7.0
66.612	2.0
66.627	4.0
66.642	7.0
66.657	7.0
66.672	7.0
66.687	5.0
66.702	4.0
66.717	6.0
66.732	5.0
66.747	6.0
66.762	5.0
66.777	7.0
66.792	3.0
66.807	9.0
66.822	3.0
66.837	4.0
66.853	4.0
66.868	5.0
66.883	0.0
66.898	2.0
66.913	4.0
66.928	2.0
66.943	11.0
66.958	3.0
66.973	5.0
66.988	4.0
67.003	6.0
67.018	5.0
67.033	3.0
67.048	3.0
67.063	6.0
67.078	3.0
67.093	4.0
67.108	8.0
67.123	4.0
67.138	3.0
67.153	7.0
67.168	3.0
67.183	2.0
67.198	5.0
67.214	3.0
67.229	7.0
67.244	4.0
67.259	3.0
67.274	4.0
67.289	4.0
67.304	2.0
67.319	1.0
67.334	6.0
67.349	3.0
67.364	2.0
67.379	2.0
67.394	7.0
67.409	1.0
67.424	3.0
67.439	8.0
67.454	3.0
67.469	3.0
67.484	7.0
67.5	4.0
67.515	4.0
67.53	4.0
67.545	4.0
67.56	4.0
67.575	4.0
67.59	2.0
67.605	5.0
67.62	3.0
67.635	9.0
67.65	4.0
67.665	1.0
67.68	2.0
67.695	2.0
67.71	5.0
67.726	3.0
67.741	3.0
67.756	3.0
67.771	2.0
67.786	5.0
67.801	4.0
67.816	4.0
67.831	4.0
67.846	5.0
67.861	2.0
67.876	4.0
67.891	1.0
67.906	4.0
67.922	3.0
67.937	6.0
67.952	4.0
67.967	4.0
67.982	3.0
67.997	3.0
68.012	6.0
68.027	5.0
68.042	3.0
68.057	7.0
68.072	6.0
68.087	3.0
68.103	4.0
68.118	2.0
68.133	3.0
68.148	5.0
68.163	5.0
68.178	9.0
68.193	2.0
68.208	3.0
68.223	5.0
68.238	0.0
68.254	6.0
68.269	4.0
68.284	2.0
68.299	4.0
68.314	4.0
68.329	2.0
68.344	3.0
68.359	3.0
68.374	3.0
68.389	7.0
68.405	3.0
68.42	6.0
68.435	1.0
68.45	6.0
68.465	2.0
68.48	1.0
68.495	6.0
68.51	7.0
68.525	3.0
68.54	7.0
68.556	3.0
68.571	3.0
68.586	1.0
68.601	4.0
68.616	5.0
68.631	4.0
68.646	4.0
68.661	7.0
68.676	3.0
68.691	1.0
68.707	3.0
68.722	6.0
68.737	4.0
68.752	7.0
68.767	6.0
68.782	3.0
68.797	2.0
68.812	7.0
68.827	2.0
68.842	4.0
68.857	4.0
68.873	6.0
68.888	5.0
68.903	4.0
68.918	4.0
68.933	5.0
68.948	2.0
68.963	6.0
68.978	4.0
68.993	1.0
69.008	7.0
69.023	3.0
69.038	6.0
69.054	3.0
69.069	6.0
69.084	5.0
69.099	4.0
69.114	1.0
69.129	6.0
69.144	3.0
69.159	6.0
69.174	0.0
69.189	3.0
69.204	4.0
69.219	6.0
69.234	4.0
69.249	3.0
69.264	1.0
69.279	3.0
69.295	1.0
69.31	7.0
69.325	5.0
69.34	5.0
69.355	4.0
69.37	4.0
69.385	2.0
69.4	5.0
69.415	3.0
69.43	9.0
69.445	6.0
69.46	4.0
69.475	3.0
69.49	5.0
69.505	4.0
69.52	6.0
69.535	2.0
69.55	3.0
69.565	3.0
69.58	2.0
69.595	3.0
69.61	5.0
69.625	4.0
69.64	6.0
69.655	6.0
69.67	3.0
69.685	4.0
69.7	4.0
69.715	5.0
69.73	11.0
69.745	4.0
69.76	6.0
69.775	5.0
69.79	9.0
69.805	7.0
69.82	7.0
69.835	5.0
69.85	5.0
69.865	5.0
69.88	5.0
69.895	4.0
69.909	4.0
69.924	5.0
69.939	5.0
69.954	3.0
69.969	4.0
69.984	4.0
69.999	2.0
70.014	2.0
70.029	0.0
70.044	4.0
70.059	2.0
70.074	6.0
70.088	4.0
70.103	5.0
70.118	7.0
70.133	6.0
70.148	4.0
70.163	4.0
70.178	5.0
70.193	6.0
70.208	11.0
70.222	6.0
70.237	3.0
70.252	1.0
70.267	7.0
70.282	3.0
70.297	2.0
70.312	5.0
70.327	12.0
70.341	4.0
70.356	4.0
70.371	4.0
70.386	1.0
70.401	1.0
70.416	1.0
70.43	6.0
70.445	6.0
70.46	4.0
70.475	5.0
70.49	4.0
70.505	3.0
70.519	3.0
70.534	7.0
70.549	4.0
70.564	4.0
70.579	1.0
70.594	4.0
70.608	5.0
70.623	6.0
70.638	3.0
70.653	6.0
70.668	5.0
70.683	5.0
70.697	6.0
70.712	10.0
70.727	1.0
70.742	8.0
70.757	8.0
70.771	1.0
70.786	7.0
70.801	2.0
70.816	6.0
70.831	4.0
70.845	5.0
70.86	3.0
70.875	3.0
70.89	3.0
70.905	2.0
70.92	3.0
70.934	5.0
70.949	6.0
70.964	5.0
70.979	0.0
70.994	2.0
71.008	2.0
71.023	4.0
71.038	4.0
71.053	3.0
71.068	6.0
71.082	9.0
71.097	5.0
71.112	6.0
71.127	3.0
71.142	3.0
71.156	1.0
71.171	3.0
71.186	2.0
71.201	3.0
71.216	0.0
71.231	5.0
71.245	3.0
71.26	2.0
71.275	4.0
71.29	1.0
71.305	4.0
71.319	6.0
71.334	4.0
71.349	3.0
71.364	4.0
71.379	5.0
71.394	1.0
71.408	3.0
71.423	2.0
71.438	3.0
71.453	7.0
71.468	3.0
71.483	7.0
71.497	3.0
71.512	4.0
71.527	4.0
71.542	1.0
71.557	2.0
71.572	6.0
71.586	3.0
71.601	6.0
71.616	5.0
71.631	6.0
71.646	4.0
71.661	4.0
71.676	6.0
71.69	5.0
71.705	4.0
71.72	4.0
71.735	2.0
71.75	1.0
71.765	3.0
71.78	4.0
71.795	2.0
71.81	3.0
71.824	3.0
71.839	0.0
71.854	3.0
71.869	3.0
71.884	9.0
71.899	0.0
71.914	1.0
71.929	3.0
71.944	0.0
71.959	3.0
71.974	3.0
71.988	3.0
72.003	8.0
72.018	1.0
72.033	3.0
72.048	1.0
72.063	2.0
72.078	3.0
72.093	1.0
72.108	1.0
72.123	1.0
72.138	3.0
72.153	0.0
72.168	6.0
72.183	4.0
72.198	7.0
72.213	1.0
72.228	3.0
72.243	1.0
72.258	2.0
72.273	2.0
72.288	1.0
72.303	1.0
72.318	2.0
72.333	1.0
72.348	5.0
72.363	6.0
72.378	4.0
72.393	3.0
72.408	6.0
72.423	2.0
72.438	5.0
72.453	3.0
72.468	3.0
72.483	5.0
72.498	2.0
72.513	5.0
72.528	2.0
72.543	3.0
72.558	3.0
72.573	1.0
72.588	2.0
72.603	3.0
72.618	5.0
72.633	5.0
72.649	2.0
72.664	4.0
72.679	5.0
72.694	4.0
72.709	5.0
72.724	7.0
72.739	3.0
72.754	5.0
72.769	1.0
72.784	1.0
72.799	0.0
72.814	5.0
72.829	9.0
72.845	1.0
72.86	3.0
72.875	2.0
72.89	4.0
72.905	4.0
72.92	4.0
72.935	3.0
72.95	5.0
72.965	7.0
72.98	2.0
72.996	3.0
73.011	2.0
73.026	1.0
73.041	2.0
73.056	4.0
73.071	4.0
73.086	3.0
73.101	2.0
73.117	2.0
73.132	7.0
73.147	2.0
73.162	2.0
73.177	3.0
73.192	3.0
73.207	5.0
73.222	7.0
73.238	6.0
73.253	6.0
73.268	5.0
73.283	5.0
73.298	6.0
73.313	3.0
73.328	2.0
73.343	6.0
73.359	3.0
73.374	2.0
73.389	5.0
73.404	2.0
73.419	4.0
73.434	4.0
73.449	3.0
73.465	6.0
73.48	1.0
73.495	6.0
73.51	6.0
73.525	1.0
73.54	2.0
73.556	6.0
73.571	5.0
73.586	5.0
73.601	2.0
73.616	1.0
73.631	5.0
73.646	1.0
73.662	3.0
73.677	2.0
73.692	5.0
73.707	3.0
73.722	4.0
73.737	2.0
73.752	4.0
73.768	4.0
73.783	2.0
73.798	1.0
73.813	3.0
73.828	5.0
73.843	8.0
73.859	7.0
73.874	2.0
73.889	2.0
73.904	1.0
73.919	0.0
73.934	1.0
73.949	3.0
73.965	9.0
73.98	1.0
73.995	5.0
74.01	3.0
74.025	4.0
74.04	5.0
74.056	0.0
74.071	1.0
74.086	6.0
74.101	7.0
74.116	1.0
74.131	6.0
74.146	5.0
74.162	6.0
74.177	7.0
74.192	5.0
74.207	2.0
74.222	3.0
74.237	3.0
74.252	2.0
74.268	6.0
74.283	4.0
74.298	6.0
74.313	2.0
74.328	5.0
74.343	8.0
74.358	3.0
74.374	3.0
74.389	1.0
74.404	4.0
74.419	3.0
74.434	3.0
74.449	5.0
74.464	4.0
74.48	2.0
74.495	3.0
74.51	2.0
74.525	1.0
74.54	2.0
74.555	4.0
74.57	2.0
74.586	2.0
74.601	4.0
74.616	2.0
74.631	3.0
74.646	5.0
74.661	7.0
74.676	3.0
74.691	6.0
74.707	4.0
74.722	6.0
74.737	4.0
74.752	7.0
74.767	0.0
74.782	4.0
74.797	1.0
74.813	5.0
74.828	2.0
74.843	4.0
74.858	6.0
74.873	3.0
74.888	0.0
74.903	0.0
74.918	4.0
74.934	4.0
74.949	4.0
74.964	7.0
74.979	6.0
74.994	6.0
75.009	5.0
75.024	8.0
75.04	5.0
75.055	7.0
75.07	4.0
75.085	5.0
75.1	7.0
75.115	4.0
75.13	0.0
75.145	6.0
75.161	3.0
75.176	3.0
75.191	1.0
75.206	5.0
75.221	1.0
75.236	3.0
75.251	4.0
75.266	1.0
75.282	3.0
75.297	4.0
75.312	1.0
75.327	0.0
75.342	3.0
75.357	1.0
75.372	5.0
75.387	4.0
75.403	2.0
75.418	6.0
75.433	3.0
75.448	3.0
75.463	7.0
75.478	0.0
75.493	6.0
75.509	6.0
75.524	3.0
75.539	5.0
75.554	5.0
75.569	3.0
75.584	4.0
75.599	7.0
75.614	3.0
75.63	3.0
75.645	2.0
75.66	2.0
75.675	4.0
75.69	6.0
75.705	3.0
75.72	3.0
75.735	2.0
75.751	4.0
75.766	2.0
75.781	1.0
75.796	2.0
75.811	2.0
75.826	4.0
75.841	1.0
75.856	1.0
75.872	4.0
75.887	8.0
75.902	0.0
75.917	2.0
75.932	3.0
75.947	1.0
75.962	3.0
75.977	5.0
75.993	5.0
76.008	5.0
76.023	2.0
76.038	6.0
76.053	2.0
76.068	1.0
76.083	4.0
76.098	1.0
76.114	2.0
76.129	4.0
76.144	3.0
76.159	0.0
76.174	3.0
76.189	4.0
76.204	1.0
76.22	10.0
76.235	2.0
76.25	8.0
76.265	2.0
76.28	5.0
76.295	4.0
76.31	3.0
76.325	3.0
76.341	4.0
76.356	3.0
76.371	2.0
76.386	1.0
76.401	4.0
76.416	4.0
76.431	4.0
76.446	1.0
76.462	8.0
76.477	3.0
76.492	3.0
76.507	2.0
76.522	3.0
76.537	6.0
76.552	4.0
76.567	4.0
76.583	2.0
76.598	2.0
76.613	1.0
76.628	2.0
76.643	10.0
76.658	3.0
76.673	4.0
76.688	4.0
76.704	5.0
76.719	2.0
76.734	5.0
76.749	3.0
76.764	3.0
76.779	4.0
76.794	4.0
76.809	2.0
76.824	0.0
76.84	6.0
76.855	5.0
76.87	2.0
76.885	4.0
76.9	1.0
76.915	3.0
76.93	4.0
76.945	5.0
76.96	4.0
76.976	4.0
76.991	3.0
77.006	5.0
77.021	3.0
77.036	4.0
77.051	2.0
77.066	1.0
77.081	3.0
77.096	4.0
77.112	2.0
77.127	3.0
77.142	4.0
77.157	2.0
77.172	2.0
77.187	2.0
77.202	4.0
77.217	2.0
77.232	4.0
77.247	0.0
77.263	2.0
77.278	4.0
77.293	1.0
77.308	2.0
77.323	0.0
77.338	2.0
77.353	1.0
77.368	2.0
77.383	5.0
77.398	2.0
77.413	6.0
77.428	3.0
77.444	2.0
77.459	3.0
77.474	1.0
77.489	4.0
77.504	7.0
77.519	5.0
77.534	2.0
77.549	7.0
77.564	2.0
77.579	3.0
77.594	1.0
77.609	7.0
77.624	3.0
77.64	5.0
77.655	4.0
77.67	6.0
77.685	7.0
77.7	4.0
77.715	3.0
77.73	2.0
77.745	6.0
77.76	3.0
77.775	2.0
77.79	2.0
77.805	5.0
77.82	3.0
77.835	4.0
77.85	4.0
77.865	8.0
77.88	4.0
77.895	3.0
77.91	2.0
77.926	2.0
77.941	5.0
77.956	4.0
77.971	4.0
77.986	5.0
78.001	1.0
78.016	0.0
78.031	2.0
78.046	3.0
78.061	1.0
78.076	2.0
78.091	3.0
78.106	1.0
78.121	4.0
78.136	3.0
78.151	3.0
78.166	3.0
78.181	6.0
78.196	7.0
78.211	5.0
78.226	6.0
78.241	2.0
78.256	3.0
78.271	3.0
78.286	4.0
78.301	0.0
78.316	5.0
78.331	2.0
78.346	3.0
78.361	2.0
78.376	3.0
78.391	5.0
78.406	1.0
78.421	1.0
78.436	5.0
78.451	5.0
78.466	1.0
78.481	4.0
78.496	2.0
78.511	4.0
78.526	3.0
78.541	8.0
78.556	1.0
78.571	2.0
78.586	9.0
78.601	3.0
78.616	1.0
78.631	2.0
78.646	4.0
78.661	1.0
78.676	3.0
78.691	2.0
78.706	3.0
78.721	4.0
78.736	2.0
78.751	4.0
78.766	5.0
78.781	6.0
78.796	4.0
78.811	8.0
78.826	1.0
78.841	2.0
78.856	9.0
78.871	3.0
78.885	2.0
78.9	4.0
78.915	1.0
78.93	3.0
78.945	4.0
78.96	4.0
78.975	2.0
78.99	0.0
79.005	6.0
79.02	1.0
79.035	4.0
79.05	4.0
79.065	5.0
79.08	2.0
79.095	3.0
79.11	5.0
79.125	2.0
79.14	8.0
79.155	5.0
79.17	4.0
79.185	3.0
79.2	1.0
79.215	5.0
79.23	3.0
79.245	5.0
79.26	2.0
79.275	4.0
79.29	3.0
79.304	1.0
79.319	8.0
79.334	5.0
79.349	4.0
79.364	4.0
79.379	6.0
79.394	1.0
79.409	4.0
79.424	3.0
79.439	2.0
79.454	5.0
79.469	2.0
79.484	3.0
79.499	5.0
79.514	2.0
79.529	3.0
79.544	3.0
79.559	2.0
79.574	2.0
79.589	8.0
79.604	3.0
79.619	4.0
79.634	0.0
79.649	6.0
79.664	4.0
79.679	1.0
79.693	6.0
79.708	3.0
79.723	2.0
79.738	1.0
79.753	2.0
79.768	2.0
79.783	3.0
79.798	4.0
79.813	9.0
79.828	6.0
79.843	6.0
79.858	3.0
79.873	6.0
79.888	1.0
79.903	4.0
79.918	4.0
79.933	4.0
79.948	5.0
79.963	1.0
79.978	3.0
79.993	1.0
80.008	5.0
80.023	2.0
80.038	4.0
80.053	4.0
80.068	4.0
80.083	1.0
80.098	1.0
80.113	5.0
80.128	7.0
80.143	4.0
80.158	8.0
80.173	4.0
80.188	6.0
80.202	3.0
80.217	2.0
80.232	1.0
80.247	4.0
80.262	2.0
80.277	2.0
80.292	3.0
80.307	0.0
80.322	5.0
80.337	4.0
80.352	0.0
80.367	3.0
80.382	1.0
80.397	3.0
80.412	1.0
80.427	3.0
80.442	3.0
80.457	4.0
80.472	4.0
80.487	0.0
80.502	1.0
80.517	1.0
80.532	2.0
80.547	3.0
80.562	3.0
80.577	3.0
80.592	3.0
80.607	4.0
80.622	3.0
80.637	3.0
80.652	4.0
80.667	1.0
80.682	6.0
80.697	3.0
80.712	1.0
80.727	4.0
80.742	6.0
80.757	3.0
80.772	4.0
80.787	3.0
80.802	2.0
80.817	5.0
80.832	2.0
80.847	5.0
80.862	1.0
80.877	5.0
80.892	6.0
80.907	2.0
80.922	4.0
80.937	7.0
80.952	1.0
80.967	3.0
80.982	7.0
80.997	5.0
81.012	2.0
81.027	6.0
81.042	3.0
81.057	1.0
81.072	4.0
81.087	2.0
81.101	2.0
81.116	3.0
81.131	4.0
81.146	0.0
81.161	5.0
81.176	5.0
81.191	3.0
81.206	3.0
81.221	3.0
81.236	5.0
81.251	1.0
81.266	4.0
81.281	1.0
81.296	2.0
81.311	1.0
81.326	1.0
81.341	2.0
81.356	2.0
81.371	2.0
81.386	1.0
81.401	4.0
81.416	4.0
81.431	4.0
81.446	4.0
81.461	3.0
81.476	1.0
81.491	4.0
81.506	7.0
81.521	4.0
81.536	2.0
81.55	2.0
81.565	1.0
81.58	5.0
81.595	2.0
81.61	5.0
81.625	5.0
81.64	3.0
81.655	3.0
81.67	2.0
81.685	3.0
81.7	6.0
81.715	4.0
81.73	4.0
81.745	5.0
81.76	3.0
81.775	3.0
81.79	3.0
81.805	3.0
81.819	8.0
81.834	4.0
81.849	4.0
81.864	4.0
81.879	7.0
81.894	7.0
81.909	6.0
81.924	3.0
81.939	3.0
81.954	2.0
81.969	8.0
81.984	1.0
81.999	4.0
82.013	3.0
82.028	4.0
82.043	3.0
82.058	3.0
82.073	1.0
82.088	3.0
82.103	1.0
82.118	5.0
82.133	5.0
82.148	1.0
82.163	2.0
82.177	4.0
82.192	2.0
82.207	4.0
82.222	1.0
82.237	4.0
82.252	2.0
82.267	1.0
82.282	1.0
82.297	2.0
82.312	2.0
82.326	5.0
82.341	3.0
82.356	1.0
82.371	2.0
82.386	3.0
82.401	5.0
82.416	3.0
82.431	6.0
82.445	3.0
82.46	3.0
82.475	7.0
82.49	5.0
82.505	2.0
82.52	2.0
82.535	1.0
82.55	3.0
82.565	2.0
82.579	3.0
82.594	2.0
82.609	2.0
82.624	8.0
82.639	3.0
82.654	3.0
82.669	2.0
82.684	1.0
82.698	1.0
82.713	2.0
82.728	2.0
82.743	4.0
82.758	4.0
82.773	3.0
82.788	1.0
82.803	3.0
82.817	4.0
82.832	1.0
82.847	3.0
82.862	5.0
82.877	1.0
82.892	1.0
82.907	4.0
82.922	0.0
82.937	4.0
82.951	0.0
82.966	3.0
82.981	3.0
82.996	5.0
83.011	2.0
83.026	9.0
83.041	1.0
83.056	3.0
83.07	4.0
83.085	2.0
83.1	3.0
83.115	3.0
83.13	3.0
83.145	1.0
83.16	6.0
83.175	1.0
83.19	3.0
83.204	6.0
83.219	7.0
83.234	1.0
83.249	6.0
83.264	1.0
83.279	4.0
83.294	2.0
83.309	0.0
83.324	1.0
83.339	3.0
83.353	3.0
83.368	3.0
83.383	3.0
83.398	0.0
83.413	2.0
83.428	1.0
83.443	4.0
83.458	4.0
83.473	9.0
83.488	5.0
83.503	4.0
83.517	1.0
83.532	3.0
83.547	3.0
83.562	1.0
83.577	2.0
83.592	3.0
83.607	3.0
83.622	3.0
83.637	4.0
83.652	6.0
83.667	3.0
83.682	1.0
83.697	4.0
83.712	1.0
83.727	2.0
83.741	3.0
83.756	2.0
83.771	1.0
83.786	1.0
83.801	1.0
83.816	3.0
83.831	2.0
83.846	2.0
83.861	5.0
83.876	5.0
83.891	3.0
83.906	4.0
83.921	1.0
83.936	4.0
83.951	4.0
83.966	4.0
83.981	3.0
83.996	3.0
84.011	0.0
84.026	2.0
84.041	5.0
84.056	3.0
84.071	5.0
84.086	2.0
84.101	4.0
84.116	2.0
84.131	1.0
84.146	2.0
84.161	3.0
84.176	5.0
84.191	3.0
84.206	1.0
84.221	3.0
84.236	4.0
84.251	1.0
84.266	1.0
84.281	4.0
84.296	8.0
84.311	5.0
84.326	1.0
84.341	3.0
84.356	5.0
84.371	6.0
84.386	7.0
84.401	6.0
84.416	6.0
84.431	1.0
84.446	2.0
84.461	3.0
84.476	2.0
84.492	3.0
84.507	2.0
84.522	4.0
84.537	1.0
84.552	3.0
84.567	5.0
84.582	4.0
84.597	7.0
84.612	0.0
84.627	4.0
84.642	6.0
84.657	2.0
84.672	1.0
84.687	5.0
84.702	3.0
84.717	0.0
84.733	1.0
84.748	6.0
84.763	3.0
84.778	2.0
84.793	3.0
84.808	2.0
84.823	4.0
84.838	2.0
84.853	5.0
84.868	3.0
84.883	3.0
84.898	3.0
84.913	2.0
84.929	3.0
84.944	2.0
84.959	2.0
84.974	2.0
84.989	4.0
85.004	4.0
85.019	4.0
85.034	6.0
85.049	1.0
85.064	4.0
85.079	0.0
85.094	3.0
85.11	5.0
85.125	1.0
85.14	6.0
85.155	6.0
85.17	1.0
85.185	2.0
85.2	2.0
85.215	1.0
85.23	3.0
85.245	4.0
85.26	2.0
85.276	3.0
85.291	4.0
85.306	5.0
85.321	5.0
85.336	4.0
85.351	3.0
85.366	2.0
85.381	2.0
85.396	1.0
85.411	4.0
85.426	2.0
85.441	1.0
85.457	3.0
85.472	4.0
85.487	7.0
85.502	5.0
85.517	2.0
85.532	3.0
85.547	1.0
85.562	4.0
85.577	2.0
85.592	1.0
85.607	2.0
85.622	3.0
85.637	2.0
85.653	2.0
85.668	4.0
85.683	4.0
85.698	4.0
85.713	3.0
85.728	0.0
85.743	5.0
85.758	1.0
85.773	2.0
85.788	1.0
85.803	3.0
85.818	2.0
85.833	3.0
85.848	1.0
85.863	2.0
85.879	3.0
85.894	3.0
85.909	4.0
85.924	4.0
85.939	3.0
85.954	2.0
85.969	5.0
85.984	3.0
85.999	6.0
86.014	2.0
86.029	3.0
86.044	3.0
86.059	7.0
86.074	3.0
86.089	4.0
86.104	3.0
86.119	9.0
86.134	8.0
86.149	3.0
86.164	3.0
86.179	4.0
86.194	2.0
86.209	1.0
86.224	6.0
86.239	2.0
86.254	2.0
86.269	2.0
86.284	3.0
86.299	2.0
86.314	7.0
86.33	0.0
86.345	1.0
86.36	6.0
86.375	1.0
86.39	4.0
86.405	3.0
86.42	5.0
86.435	3.0
86.45	1.0
86.465	2.0
86.48	2.0
86.495	3.0
86.51	2.0
86.525	4.0
86.54	4.0
86.555	4.0
86.57	5.0
86.585	3.0
86.6	0.0
86.615	2.0
86.63	2.0
86.645	5.0
86.659	3.0
86.674	9.0
86.689	0.0
86.704	3.0
86.719	0.0
86.734	2.0
86.749	7.0
86.764	0.0
86.779	4.0
86.794	3.0
86.809	3.0
86.824	5.0
86.839	8.0
86.854	4.0
86.869	2.0
86.884	3.0
86.899	4.0
86.914	2.0
86.929	5.0
86.944	2.0
86.959	5.0
86.974	4.0
86.989	4.0
87.004	2.0
87.019	3.0
87.034	4.0
87.049	2.0
87.064	6.0
87.079	4.0
87.094	4.0
87.109	3.0
87.124	4.0
87.139	4.0
87.154	4.0
87.169	3.0
87.184	2.0
87.199	3.0
87.214	2.0
87.229	4.0
87.244	2.0
87.259	1.0
87.274	2.0
87.289	2.0
87.304	5.0
87.319	4.0
87.334	2.0
87.349	3.0
87.364	2.0
87.379	1.0
87.394	3.0
87.409	1.0
87.424	3.0
87.438	6.0
87.453	4.0
87.468	1.0
87.483	3.0
87.498	6.0
87.513	3.0
87.528	8.0
87.543	2.0
87.558	4.0
87.573	3.0
87.588	7.0
87.603	4.0
87.618	2.0
87.633	3.0
87.648	4.0
87.663	7.0
87.678	4.0
87.693	1.0
87.708	1.0
87.723	2.0
87.738	2.0
87.753	1.0
87.768	5.0
87.783	1.0
87.798	3.0
87.813	3.0
87.828	3.0
87.843	3.0
87.858	6.0
87.873	6.0
87.888	5.0
87.903	0.0
87.918	2.0
87.933	5.0
87.948	3.0
87.963	6.0
87.978	3.0
87.993	1.0
88.008	6.0
88.023	0.0
88.038	4.0
88.053	2.0
88.068	4.0
88.083	1.0
88.098	2.0
88.113	1.0
88.128	2.0
88.143	4.0
88.158	4.0
88.174	1.0
88.189	3.0
88.204	3.0
88.219	1.0
88.234	3.0
88.249	2.0
88.264	3.0
88.279	4.0
88.294	4.0
88.309	4.0
88.324	1.0
88.339	1.0
88.354	6.0
88.369	1.0
88.384	6.0
88.399	5.0
88.414	3.0
88.429	1.0
88.444	2.0
88.459	4.0
88.474	3.0
88.489	4.0
88.504	3.0
88.519	4.0
88.534	4.0
88.549	2.0
88.564	4.0
88.58	0.0
88.595	2.0
88.61	5.0
88.625	2.0
88.64	4.0
88.655	7.0
88.67	3.0
88.685	4.0
88.7	3.0
88.715	4.0
88.73	5.0
88.745	0.0
88.76	5.0
88.775	1.0
88.79	3.0
88.805	2.0
88.82	5.0
88.835	2.0
88.85	2.0
88.865	7.0
88.88	3.0
88.895	4.0
88.911	2.0
88.926	3.0
88.941	1.0
88.956	2.0
88.971	6.0
88.986	4.0
89.001	2.0
89.016	5.0
89.031	2.0
89.046	4.0
89.061	3.0
89.076	2.0
89.091	1.0
89.106	2.0
89.121	2.0
89.136	8.0
89.151	2.0
89.166	2.0
89.181	1.0
89.196	1.0
89.211	3.0
89.227	4.0
89.242	7.0
89.257	2.0
89.272	2.0
89.287	8.0
89.302	3.0
89.317	3.0
89.332	4.0
89.347	5.0
89.362	2.0
89.377	8.0
89.392	2.0
89.407	3.0
89.422	5.0
89.437	3.0
89.452	3.0
89.467	3.0
89.482	5.0
89.497	2.0
89.512	5.0
89.527	0.0
89.542	7.0
89.557	3.0
89.572	6.0
89.587	2.0
89.602	3.0
89.617	0.0
89.632	2.0
89.647	8.0
89.662	4.0
89.677	6.0
89.693	2.0
89.708	3.0
89.723	2.0
89.738	5.0
89.753	2.0
89.768	5.0
89.783	3.0
89.798	4.0
89.813	2.0
89.828	8.0
89.843	5.0
89.858	3.0
89.873	3.0
89.888	4.0
89.903	6.0
89.918	3.0
89.933	1.0
89.948	2.0
89.963	4.0
89.978	3.0
89.993	4.0
90.008	2.0
90.023	3.0
90.038	3.0
90.053	1.0
90.068	3.0
90.083	6.0
90.097	5.0
90.112	1.0
90.127	6.0
90.142	5.0
90.157	5.0
90.172	4.0
90.187	1.0
90.202	3.0
90.217	5.0
90.232	1.0
90.247	5.0
90.262	3.0
90.277	5.0
90.292	2.0
90.307	5.0
90.322	2.0
90.337	2.0
90.352	3.0
90.367	4.0
90.382	0.0
90.397	1.0
90.412	3.0
90.427	1.0
90.442	2.0
90.457	1.0
90.472	0.0
90.487	2.0
90.501	2.0
90.516	3.0
90.531	3.0
90.546	4.0
90.561	3.0
90.576	2.0
90.591	3.0
90.606	2.0
90.621	2.0
90.636	4.0
90.651	0.0
90.666	5.0
90.681	0.0
90.696	2.0
90.711	4.0
90.726	3.0
90.741	3.0
90.755	3.0
90.77	3.0
90.785	3.0
90.8	2.0
90.815	1.0
90.83	6.0
90.845	3.0
90.86	4.0
90.875	1.0
90.89	2.0
90.905	7.0
90.92	2.0
90.935	7.0
90.95	6.0
90.965	8.0
90.979	6.0
90.994	3.0
91.009	4.0
91.024	6.0
91.039	3.0
91.054	4.0
91.069	2.0
91.084	3.0
91.099	4.0
91.114	0.0
91.129	1.0
91.144	7.0
91.159	4.0
91.174	1.0
91.188	6.0
91.203	1.0
91.218	3.0
91.233	1.0
91.248	3.0
91.263	4.0
91.278	2.0
91.293	2.0
91.308	0.0
91.323	3.0
91.338	1.0
91.353	2.0
91.368	5.0
91.383	4.0
91.398	1.0
91.412	4.0
91.427	4.0
91.442	2.0
91.457	4.0
91.472	4.0
91.487	4.0
91.502	2.0
91.517	2.0
91.532	3.0
91.547	5.0
91.562	6.0
91.577	3.0
91.592	1.0
91.607	2.0
91.622	3.0
91.637	2.0
91.652	4.0
91.666	2.0
91.681	3.0
91.696	1.0
91.711	3.0
91.726	3.0
91.741	4.0
91.756	4.0
91.771	2.0
91.786	3.0
91.801	2.0
91.816	1.0
91.831	2.0
91.846	4.0
91.861	2.0
91.876	3.0
91.891	3.0
91.906	4.0
91.921	6.0
91.936	1.0
91.951	1.0
91.966	3.0
91.981	2.0
91.995	5.0
92.01	5.0
92.025	2.0
92.04	5.0
92.055	2.0
92.07	4.0
92.085	2.0
92.1	5.0
92.115	4.0
92.13	2.0
92.145	1.0
92.16	3.0
92.175	9.0
92.19	5.0
92.205	4.0
92.22	2.0
92.235	2.0
92.25	2.0
92.265	1.0
92.28	2.0
92.295	1.0
92.31	6.0
92.325	5.0
92.34	2.0
92.355	2.0
92.37	0.0
92.385	1.0
92.4	2.0
92.415	1.0
92.43	4.0
92.445	1.0
92.46	3.0
92.475	2.0
92.49	2.0
92.505	1.0
92.52	1.0
92.535	6.0
92.55	6.0
92.565	1.0
92.58	3.0
92.595	3.0
92.61	4.0
92.625	3.0
92.64	7.0
92.655	3.0
92.67	2.0
92.685	1.0
92.7	5.0
92.715	4.0
92.73	4.0
92.745	4.0
92.76	5.0
92.775	2.0
92.79	3.0
92.805	7.0
92.82	1.0
92.835	4.0
92.85	2.0
92.865	2.0
92.88	5.0
92.895	1.0
92.91	1.0
92.925	3.0
92.94	6.0
92.955	3.0
92.97	2.0
92.985	0.0
93.0	2.0
93.015	4.0
93.03	0.0
93.045	2.0
93.06	1.0
93.075	6.0
93.09	3.0
93.105	5.0
93.12	2.0
93.135	2.0
93.15	5.0
93.165	2.0
93.18	1.0
93.195	4.0
93.21	4.0
93.225	2.0
93.24	2.0
93.255	5.0
93.27	2.0
93.285	2.0
93.3	4.0
93.315	2.0
93.33	3.0
93.345	2.0
93.36	4.0
93.375	4.0
93.39	4.0
93.405	3.0
93.42	1.0
93.435	3.0
93.45	2.0
93.465	4.0
93.48	2.0
93.495	4.0
93.51	1.0
93.525	4.0
93.54	4.0
93.555	1.0
93.57	3.0
93.585	5.0
93.6	4.0
93.615	2.0
93.63	4.0
93.645	5.0
93.66	2.0
93.675	4.0
93.69	1.0
93.705	2.0
93.72	6.0
93.735	4.0
93.75	5.0
93.765	5.0
93.78	2.0
93.795	3.0
93.81	5.0
93.824	1.0
93.839	3.0
93.854	3.0
93.869	4.0
93.884	0.0
93.899	4.0
93.914	5.0
93.929	2.0
93.944	3.0
93.959	5.0
93.974	6.0
93.989	3.0
94.004	3.0
94.019	7.0
94.034	0.0
94.049	2.0
94.064	1.0
94.079	5.0
94.094	4.0
94.108	4.0
94.123	3.0
94.138	1.0
94.153	4.0
94.168	3.0
94.183	4.0
94.198	1.0
94.213	4.0
94.228	2.0
94.243	2.0
94.258	4.0
94.273	3.0
94.288	3.0
94.302	2.0
94.317	2.0
94.332	5.0
94.347	1.0
94.362	2.0
94.377	3.0
94.392	6.0
94.407	4.0
94.422	4.0
94.437	8.0
94.452	3.0
94.466	3.0
94.481	6.0
94.496	3.0
94.511	0.0
94.526	3.0
94.541	7.0
94.556	2.0
94.571	0.0
94.586	2.0
94.601	3.0
94.615	3.0
94.63	2.0
94.645	6.0
94.66	3.0
94.675	6.0
94.69	2.0
94.705	4.0
94.72	6.0
94.735	4.0
94.749	2.0
94.764	5.0
94.779	5.0
94.794	2.0
94.809	0.0
94.824	2.0
94.839	4.0
94.854	2.0
94.868	3.0
94.883	2.0
94.898	0.0
94.913	2.0
94.928	1.0
94.943	7.0
94.958	2.0
94.973	4.0
94.987	3.0
95.002	5.0
95.017	4.0
95.032	4.0
95.047	6.0
95.062	4.0
95.077	4.0
95.092	10.0
95.106	5.0
95.121	8.0
95.136	2.0
95.151	4.0
95.166	3.0
95.181	4.0
95.196	2.0
95.211	3.0
95.226	3.0
95.24	6.0
95.255	1.0
95.27	5.0
95.285	7.0
95.3	3.0
95.315	4.0
95.33	2.0
95.345	2.0
95.359	3.0
95.374	4.0
95.389	4.0
95.404	3.0
95.419	4.0
95.434	4.0
95.449	3.0
95.464	1.0
95.478	2.0
95.493	2.0
95.508	5.0
95.523	4.0
95.538	5.0
95.553	4.0
95.568	2.0
95.583	5.0
95.597	2.0
95.612	2.0
95.627	5.0
95.642	1.0
95.657	3.0
95.672	0.0
95.687	3.0
95.702	2.0
95.717	4.0
95.731	2.0
95.746	1.0
95.761	3.0
95.776	2.0
95.791	2.0
95.806	2.0
95.821	3.0
95.836	3.0
95.851	6.0
95.866	1.0
95.88	4.0
95.895	3.0
95.91	5.0
95.925	3.0
95.94	3.0
95.955	3.0
95.97	5.0
95.985	7.0
96.0	6.0
96.015	1.0
96.029	4.0
96.044	6.0
96.059	5.0
96.074	0.0
96.089	5.0
96.104	1.0
96.119	6.0
96.134	3.0
96.149	6.0
96.164	3.0
96.179	3.0
96.194	3.0
96.208	1.0
96.223	2.0
96.238	0.0
96.253	4.0
96.268	3.0
96.283	5.0
96.298	4.0
96.313	4.0
96.328	3.0
96.343	2.0
96.358	4.0
96.373	1.0
96.388	1.0
96.403	1.0
96.417	4.0
96.432	0.0
96.447	1.0
96.462	6.0
96.477	6.0
96.492	5.0
96.507	5.0
96.522	4.0
96.537	1.0
96.552	5.0
96.567	1.0
96.582	1.0
96.597	3.0
96.612	1.0
96.627	6.0
96.642	3.0
96.656	2.0
96.671	1.0
96.686	1.0
96.701	6.0
96.716	4.0
96.731	6.0
96.746	4.0
96.761	3.0
96.776	2.0
96.791	4.0
96.806	1.0
96.821	4.0
96.836	2.0
96.851	8.0
96.866	4.0
96.881	4.0
96.896	3.0
96.911	5.0
96.926	4.0
96.94	5.0
96.955	7.0
96.97	9.0
96.985	3.0
97.0	7.0
97.015	5.0
97.03	5.0
97.045	6.0
97.06	5.0
97.075	6.0
97.09	2.0
97.105	4.0
97.12	4.0
97.135	1.0
97.15	8.0
97.165	2.0
97.18	1.0
97.195	1.0
97.21	5.0
97.225	3.0
97.239	3.0
97.254	1.0
97.269	2.0
97.284	1.0
97.299	4.0
97.314	4.0
97.329	1.0
97.344	3.0
97.359	4.0
97.374	4.0
97.389	5.0
97.404	6.0
97.419	4.0
97.434	3.0
97.449	4.0
97.464	1.0
97.479	5.0
97.494	4.0
97.509	1.0
97.524	2.0
97.538	4.0
97.553	6.0
97.568	4.0
97.583	2.0
97.598	6.0
97.613	3.0
97.628	3.0
97.643	2.0
97.658	2.0
97.673	4.0
97.688	4.0
97.703	1.0
97.718	2.0
97.733	7.0
97.748	3.0
97.763	2.0
97.778	3.0
97.792	4.0
97.807	4.0
97.822	4.0
97.837	2.0
97.852	4.0
97.867	5.0
97.882	4.0
97.897	3.0
97.912	1.0
97.927	6.0
97.942	3.0
97.957	0.0
97.972	5.0
97.987	4.0
98.001	2.0
98.016	3.0
98.031	2.0
98.046	4.0
98.061	4.0
98.076	3.0
98.091	0.0
98.106	3.0
98.121	1.0
98.136	3.0
98.151	2.0
98.166	3.0
98.181	3.0
98.195	2.0
98.21	8.0
98.225	6.0
98.24	4.0
98.255	6.0
98.27	0.0
98.285	3.0
98.3	3.0
98.315	3.0
98.33	4.0
98.345	4.0
98.359	1.0
98.374	0.0
98.389	3.0
98.404	2.0
98.419	3.0
98.434	1.0
98.449	1.0
98.464	1.0
98.479	5.0
98.494	1.0
98.508	2.0
98.523	1.0
98.538	7.0
98.553	7.0
98.568	1.0
98.583	4.0
98.598	6.0
98.613	3.0
98.628	1.0
98.642	2.0
98.657	1.0
98.672	1.0
98.687	1.0
98.702	6.0
98.717	3.0
98.732	2.0
98.747	3.0
98.762	3.0
98.776	3.0
98.791	5.0
98.806	2.0
98.821	4.0
98.836	2.0
98.851	2.0
98.866	3.0
98.881	1.0
98.896	2.0
98.91	4.0
98.925	3.0
98.94	2.0
98.955	1.0
98.97	1.0
98.985	2.0
99.0	2.0
99.015	4.0
99.029	3.0
99.044	6.0
99.059	2.0
99.074	4.0
99.089	3.0
99.104	1.0
99.119	1.0
99.133	4.0
99.148	4.0
99.163	3.0
99.178	2.0
99.193	3.0
99.208	3.0
99.223	2.0
99.238	3.0
99.252	4.0
99.267	7.0
99.282	1.0
99.297	1.0
99.312	3.0
99.327	1.0
99.342	3.0
99.356	3.0
99.371	5.0
99.386	1.0
99.401	1.0
99.416	4.0
99.431	3.0
99.446	1.0
99.461	1.0
99.475	3.0
99.49	1.0
99.505	2.0
99.52	5.0
99.535	2.0
99.55	5.0
99.565	3.0
99.579	0.0
99.594	1.0
99.609	3.0
99.624	4.0
99.639	7.0
99.654	4.0
99.669	5.0
99.683	3.0
99.698	5.0
99.713	1.0
99.728	2.0
99.743	2.0
99.758	4.0
99.772	0.0
99.787	6.0
99.802	3.0
99.817	2.0
99.832	6.0
99.847	1.0
99.862	4.0
99.876	3.0
99.891	6.0
99.906	3.0
99.921	4.0
99.936	2.0
99.951	1.0
99.966	2.0
99.98	3.0
99.995	4.0
100.01	2.0
100.025	5.0
100.04	1.0
100.055	4.0
100.069	0.0
100.084	1.0
100.099	1.0
100.114	1.0
100.129	5.0
100.144	0.0
100.159	2.0
100.173	7.0
100.188	5.0
100.203	4.0
100.218	4.0
100.233	2.0
100.248	3.0
100.262	8.0
100.277	3.0
100.292	1.0
100.307	3.0
100.322	2.0
100.337	9.0
100.351	3.0
100.366	5.0
100.381	6.0
100.396	3.0
100.411	3.0
100.426	7.0
100.441	2.0
100.455	4.0
100.47	1.0
100.485	3.0
100.5	4.0
100.515	1.0
100.53	1.0
100.544	0.0
100.559	1.0
100.574	1.0
100.589	6.0
100.604	3.0
100.619	5.0
100.633	1.0
100.648	5.0
100.663	2.0
100.678	3.0
100.693	1.0
100.708	3.0
100.722	4.0
100.737	5.0
100.752	3.0
100.767	2.0
100.782	3.0
100.796	3.0
100.811	2.0
100.826	0.0
100.841	2.0
100.856	2.0
100.871	2.0
100.885	4.0
100.9	6.0
100.915	0.0
100.93	2.0
100.945	8.0
100.96	4.0
100.974	4.0
100.989	1.0
101.004	4.0
101.019	4.0
101.034	2.0
101.048	3.0
101.063	4.0
101.078	7.0
101.093	3.0
101.108	3.0
101.123	4.0
101.137	9.0
101.152	4.0
101.167	4.0
101.182	4.0
101.197	4.0
101.211	2.0
101.226	3.0
101.241	1.0
101.256	7.0
101.271	3.0
101.285	6.0
101.3	4.0
101.315	3.0
101.33	5.0
101.345	2.0
101.359	6.0
101.374	2.0
101.389	3.0
101.404	2.0
101.419	5.0
101.433	3.0
101.448	3.0
101.463	6.0
101.478	2.0
101.493	4.0
101.507	2.0
101.522	5.0
101.537	2.0
101.552	3.0
101.567	0.0
101.581	2.0
101.596	2.0
101.611	4.0
101.626	1.0
101.64	5.0
101.655	3.0
101.67	3.0
101.685	4.0
101.7	3.0
101.714	2.0
101.729	8.0
101.744	4.0
101.759	2.0
101.773	3.0
101.788	5.0
101.803	1.0
101.818	4.0
101.833	3.0
101.847	6.0
101.862	2.0
101.877	4.0
101.892	2.0
101.906	5.0
101.921	3.0
101.936	1.0
101.951	5.0
101.965	3.0
101.98	3.0
101.995	4.0
102.01	6.0
102.025	5.0
102.039	4.0
102.054	4.0
102.069	6.0
102.084	4.0
102.098	3.0
102.113	3.0
102.128	3.0
102.143	6.0
102.157	1.0
102.172	2.0
102.187	4.0
102.202	4.0
102.216	7.0
102.231	4.0
102.246	1.0
102.261	1.0
102.275	3.0
102.29	2.0
102.305	3.0
102.32	3.0
102.334	2.0
102.349	6.0
102.364	4.0
102.378	5.0
102.393	4.0
102.408	3.0
102.423	1.0
102.437	2.0
102.452	3.0
102.467	1.0
102.482	2.0
102.496	6.0
102.511	1.0
102.526	2.0
102.541	4.0
102.555	8.0
102.57	3.0
102.585	3.0
102.6	4.0
102.614	3.0
102.629	6.0
102.644	3.0
102.659	1.0
102.673	3.0
102.688	4.0
102.703	3.0
102.717	1.0
102.732	6.0
102.747	4.0
102.762	3.0
102.776	2.0
102.791	5.0
102.806	2.0
102.821	9.0
102.835	3.0
102.85	0.0
102.865	2.0
102.88	7.0
102.894	5.0
102.909	4.0
102.924	5.0
102.938	4.0
102.953	2.0
102.968	2.0
102.983	1.0
102.997	3.0
103.012	3.0
103.027	2.0
103.042	2.0
103.056	1.0
103.071	4.0
103.086	3.0
103.101	2.0
103.115	3.0
103.13	1.0
103.145	5.0
103.16	3.0
103.174	3.0
103.189	0.0
103.204	2.0
103.219	3.0
103.233	1.0
103.248	2.0
103.263	0.0
103.278	6.0
103.292	1.0
103.307	7.0
103.322	7.0
103.337	3.0
103.351	5.0
103.366	2.0
103.381	0.0
103.396	5.0
103.41	3.0
103.425	5.0
103.44	2.0
103.455	3.0
103.469	1.0
103.484	8.0
103.499	3.0
103.514	3.0
103.529	3.0
103.543	3.0
103.558	7.0
103.573	3.0
103.588	1.0
103.602	3.0
103.617	1.0
103.632	5.0
103.647	2.0
103.661	4.0
103.676	2.0
103.691	5.0
103.706	0.0
103.721	2.0
103.735	2.0
103.75	1.0
103.765	2.0
103.78	3.0
103.795	5.0
103.809	3.0
103.824	5.0
103.839	2.0
103.854	4.0
103.869	6.0
103.883	3.0
103.898	1.0
103.913	3.0
103.928	3.0
103.943	3.0
103.957	3.0
103.972	1.0
103.987	2.0
104.002	4.0
104.017	4.0
104.031	5.0
104.046	1.0
104.061	5.0
104.076	3.0
104.091	5.0
104.106	3.0
104.12	1.0
104.135	4.0
104.15	6.0
104.165	3.0
104.18	5.0
104.195	1.0
104.209	0.0
104.224	2.0
104.239	1.0
104.254	2.0
104.269	3.0
104.284	5.0
104.299	2.0
104.313	4.0
104.328	2.0
104.343	2.0
104.358	1.0
104.373	1.0
104.388	4.0
104.403	3.0
104.417	2.0
104.432	3.0
104.447	4.0
104.462	7.0
104.477	3.0
104.492	5.0
104.507	2.0
104.522	4.0
104.536	2.0
104.551	3.0
104.566	3.0
104.581	4.0
104.596	1.0
104.611	4.0
104.626	7.0
104.641	5.0
104.656	5.0
104.67	7.0
104.685	1.0
104.7	7.0
104.715	3.0
104.73	1.0
104.745	3.0
104.76	3.0
104.775	2.0
104.79	6.0
104.804	3.0
104.819	3.0
104.834	4.0
104.849	2.0
104.864	3.0
104.879	4.0
104.894	2.0
104.909	6.0
104.924	7.0
104.939	7.0
104.954	7.0
104.968	7.0
104.983	4.0
104.998	4.0
105.013	1.0
105.028	2.0
105.043	2.0
105.058	2.0
105.073	3.0
105.088	3.0
105.103	5.0
105.118	1.0
105.133	2.0
105.147	3.0
105.162	1.0
105.177	2.0
105.192	2.0
105.207	2.0
105.222	3.0
105.237	3.0
105.252	4.0
105.267	2.0
105.282	1.0
105.297	5.0
105.312	6.0
105.327	1.0
105.342	2.0
105.356	1.0
105.371	3.0
105.386	6.0
105.401	6.0
105.416	3.0
105.431	6.0
105.446	4.0
105.461	4.0
105.476	4.0
105.491	5.0
105.506	0.0
105.521	4.0
105.536	3.0
105.551	3.0
105.566	1.0
105.581	1.0
105.595	6.0
105.61	4.0
105.625	5.0
105.64	3.0
105.655	3.0
105.67	2.0
105.685	5.0
105.7	1.0
105.715	1.0
105.73	3.0
105.745	1.0
105.76	0.0
105.775	6.0
105.79	4.0
105.805	2.0
105.82	3.0
105.835	0.0
105.85	3.0
105.864	2.0
105.879	3.0
105.894	3.0
105.909	0.0
105.924	4.0
105.939	1.0
105.954	4.0
105.969	3.0
105.984	4.0
105.999	1.0
106.014	6.0
106.029	3.0
106.044	3.0
106.059	1.0
106.074	2.0
106.089	5.0
106.104	2.0
106.119	2.0
106.134	3.0
106.148	1.0
106.163	4.0
106.178	7.0
106.193	6.0
106.208	2.0
106.223	4.0
106.238	2.0
106.253	2.0
106.268	2.0
106.283	2.0
106.298	2.0
106.313	2.0
106.328	3.0
106.343	4.0
106.358	2.0
106.373	2.0
106.388	5.0
106.403	1.0
106.418	2.0
106.432	6.0
106.447	2.0
106.462	2.0
106.477	2.0
106.492	0.0
106.507	4.0
106.522	3.0
106.537	7.0
106.552	3.0
106.567	3.0
106.582	8.0
106.597	0.0
106.612	5.0
106.627	2.0
106.642	2.0
106.657	2.0
106.672	2.0
106.687	1.0
106.701	2.0
106.716	2.0
106.731	1.0
106.746	6.0
106.761	4.0
106.776	3.0
106.791	3.0
106.806	1.0
106.821	8.0
106.836	4.0
106.851	2.0
106.866	1.0
106.881	2.0
106.896	5.0
106.911	1.0
106.926	5.0
106.941	4.0
106.955	7.0
106.97	1.0
106.985	3.0
107.0	2.0
107.015	4.0
107.03	4.0
107.045	4.0
107.06	3.0
107.075	1.0
107.09	6.0
107.105	2.0
107.12	2.0
107.135	7.0
107.15	4.0
107.165	3.0
107.18	2.0
107.194	5.0
107.209	3.0
107.224	4.0
107.239	9.0
107.254	4.0
107.269	7.0
107.284	2.0
107.299	4.0
107.314	5.0
107.329	5.0
107.344	0.0
107.359	6.0
107.374	3.0
107.389	3.0
107.404	2.0
107.418	3.0
107.433	3.0
107.448	1.0
107.463	3.0
107.478	2.0
107.493	2.0
107.508	4.0
107.523	4.0
107.538	5.0
107.553	4.0
107.568	3.0
107.583	1.0
107.598	5.0
107.613	2.0
107.627	7.0
107.642	1.0
107.657	7.0
107.672	3.0
107.687	4.0
107.702	2.0
107.717	3.0
107.732	3.0
107.747	1.0
107.762	2.0
107.777	5.0
107.792	3.0
107.807	2.0
107.821	3.0
107.836	1.0
107.851	3.0
107.866	1.0
107.881	2.0
107.896	1.0
107.911	3.0
107.926	2.0
107.941	0.0
107.956	1.0
107.971	6.0
107.986	4.0
108.0	6.0
108.015	4.0
108.03	4.0
108.045	3.0
108.06	1.0
108.075	3.0
108.09	0.0
108.105	6.0
108.12	3.0
108.135	5.0
108.15	4.0
108.164	6.0
108.179	5.0
108.194	4.0
108.209	6.0
108.224	4.0
108.239	4.0
108.254	2.0
108.269	4.0
108.284	1.0
108.299	5.0
108.313	7.0
108.328	0.0
108.343	3.0
108.358	5.0
108.373	4.0
108.388	5.0
108.403	5.0
108.418	2.0
108.433	5.0
108.448	2.0
108.462	7.0
108.477	6.0
108.492	2.0
108.507	4.0
108.522	3.0
108.537	2.0
108.552	3.0
108.567	4.0
108.582	3.0
108.597	3.0
108.611	3.0
108.626	2.0
108.641	2.0
108.656	1.0
108.671	3.0
108.686	7.0
108.701	2.0
108.716	7.0
108.731	4.0
108.745	2.0
108.76	6.0
108.775	5.0
108.79	2.0
108.805	4.0
108.82	2.0
108.835	5.0
108.85	4.0
108.865	5.0
108.879	2.0
108.894	2.0
108.909	5.0
108.924	3.0
108.939	3.0
108.954	6.0
108.969	2.0
108.984	1.0
108.999	3.0
109.013	1.0
109.028	2.0
109.043	2.0
109.058	6.0
109.073	2.0
109.088	9.0
109.103	3.0
109.118	3.0
109.133	3.0
109.147	2.0
109.162	4.0
109.177	5.0
109.192	2.0
109.207	3.0
109.222	5.0
109.237	4.0
109.252	6.0
109.267	6.0
109.281	2.0
109.296	0.0
109.311	6.0
109.326	4.0
109.341	5.0
109.356	2.0
109.371	6.0
109.386	4.0
109.4	4.0
109.415	6.0
109.43	1.0
109.445	2.0
109.46	3.0
109.475	2.0
109.49	3.0
109.505	2.0
109.52	3.0
109.534	2.0
109.549	3.0
109.564	2.0
109.579	4.0
109.594	3.0
109.609	1.0
109.624	2.0
109.639	4.0
109.653	3.0
109.668	4.0
109.683	3.0
109.698	2.0
109.713	6.0
109.728	2.0
109.743	1.0
109.758	1.0
109.773	2.0
109.787	2.0
109.802	3.0
109.817	3.0
109.832	6.0
109.847	1.0
109.862	3.0
109.877	1.0
109.892	6.0
109.907	3.0
109.921	5.0
109.936	0.0
109.951	4.0
109.966	5.0
109.981	2.0
109.996	5.0
110.011	2.0
110.026	4.0
110.04	1.0
110.055	1.0
110.07	5.0
110.085	1.0
110.1	4.0
110.115	2.0
110.13	2.0
110.145	6.0
110.16	3.0
110.174	3.0
110.189	2.0
110.204	5.0
110.219	4.0
110.234	3.0
110.249	6.0
110.264	0.0
110.279	1.0
110.294	2.0
110.308	2.0
110.323	1.0
110.338	4.0
110.353	5.0
110.368	5.0
110.383	2.0
110.398	3.0
110.413	2.0
110.428	1.0
110.442	3.0
110.457	6.0
110.472	7.0
110.487	4.0
110.502	2.0
110.517	3.0
110.532	2.0
110.547	1.0
110.561	7.0
110.576	4.0
110.591	1.0
110.606	2.0
110.621	0.0
110.636	6.0
110.651	7.0
110.666	2.0
110.681	6.0
110.695	2.0
110.71	2.0
110.725	1.0
110.74	4.0
110.755	5.0
110.77	10.0
110.785	2.0
110.8	6.0
110.815	3.0
110.829	6.0
110.844	3.0
110.859	6.0
110.874	5.0
110.889	5.0
110.904	4.0
110.919	2.0
110.934	3.0
110.948	5.0
110.963	6.0
110.978	6.0
110.993	2.0
111.008	2.0
111.023	3.0
111.038	3.0
111.053	3.0
111.067	0.0
111.082	3.0
111.097	4.0
111.112	1.0
111.127	0.0
111.142	5.0
111.157	1.0
111.172	3.0
111.186	5.0
111.201	3.0
111.216	2.0
111.231	2.0
111.246	4.0
111.261	2.0
111.276	2.0
111.291	10.0
111.305	4.0
111.32	3.0
111.335	5.0
111.35	3.0
111.365	4.0
111.38	2.0
111.395	4.0
111.41	3.0
111.424	3.0
111.439	1.0
111.454	7.0
111.469	2.0
111.484	2.0
111.499	3.0
111.514	4.0
111.528	2.0
111.543	3.0
111.558	3.0
111.573	2.0
111.588	4.0
111.603	3.0
111.618	4.0
111.633	7.0
111.647	1.0
111.662	1.0
111.677	5.0
111.692	3.0
111.707	5.0
111.722	5.0
111.737	2.0
111.751	4.0
111.766	5.0
111.781	6.0
111.796	6.0
111.811	6.0
111.826	4.0
111.84	5.0
111.855	1.0
111.87	2.0
111.885	1.0
111.9	3.0
111.915	3.0
111.93	6.0
111.944	7.0
111.959	5.0
111.974	3.0
111.989	1.0
112.004	2.0
112.019	3.0
112.033	1.0
112.048	2.0
112.063	1.0
112.078	3.0
112.093	3.0
112.108	2.0
112.123	6.0
112.137	5.0
112.152	3.0
112.167	5.0
112.182	7.0
112.197	2.0
112.212	4.0
112.226	4.0
112.241	6.0
112.256	2.0
112.271	7.0
112.286	4.0
112.301	5.0
112.315	3.0
112.33	2.0
112.345	1.0
112.36	1.0
112.375	4.0
112.389	1.0
112.404	2.0
112.419	1.0
112.434	3.0
112.449	3.0
112.464	3.0
112.478	6.0
112.493	3.0
112.508	3.0
112.523	4.0
112.538	2.0
112.553	3.0
112.567	4.0
112.582	3.0
112.597	5.0
112.612	2.0
112.627	4.0
112.642	5.0
112.656	2.0
112.671	2.0
112.686	6.0
112.701	3.0
112.716	6.0
112.73	1.0
112.745	4.0
112.76	2.0
112.775	2.0
112.79	3.0
112.805	4.0
112.819	3.0
112.834	6.0
112.849	3.0
112.864	2.0
112.879	1.0
112.894	6.0
112.908	2.0
112.923	2.0
112.938	4.0
112.953	3.0
112.968	4.0
112.983	3.0
112.997	2.0
113.012	1.0
113.027	4.0
113.042	3.0
113.057	1.0
113.072	0.0
113.086	5.0
113.101	5.0
113.116	1.0
113.131	3.0
113.146	4.0
113.161	6.0
113.175	4.0
113.19	4.0
113.205	4.0
113.22	4.0
113.235	1.0
113.25	3.0
113.265	6.0
113.279	2.0
113.294	1.0
113.309	4.0
113.324	5.0
113.339	5.0
113.354	3.0
113.368	1.0
113.383	4.0
113.398	5.0
113.413	4.0
113.428	3.0
113.443	2.0
113.458	1.0
113.472	3.0
113.487	4.0
113.502	5.0
113.517	3.0
113.532	4.0
113.547	2.0
113.562	0.0
113.576	4.0
113.591	1.0
113.606	2.0
113.621	1.0
113.636	4.0
113.651	4.0
113.666	2.0
113.681	2.0
113.695	1.0
113.71	4.0
113.725	3.0
113.74	5.0
113.755	5.0
113.77	8.0
113.785	3.0
113.8	4.0
113.814	6.0
113.829	5.0
113.844	5.0
113.859	3.0
113.874	4.0
113.889	1.0
113.904	6.0
113.919	4.0
113.934	2.0
113.949	3.0
113.963	3.0
113.978	3.0
113.993	4.0
114.008	7.0
114.023	6.0
114.038	6.0
114.053	2.0
114.068	4.0
114.083	4.0
114.098	5.0
114.113	2.0
114.127	3.0
114.142	1.0
114.157	4.0
114.172	2.0
114.187	6.0
114.202	4.0
114.217	2.0
114.232	4.0
114.247	4.0
114.262	3.0
114.277	2.0
114.292	3.0
114.307	3.0
114.322	1.0
114.337	3.0
114.351	4.0
114.366	2.0
114.381	4.0
114.396	0.0
114.411	2.0
114.426	6.0
114.441	1.0
114.456	6.0
114.471	8.0
114.486	5.0
114.501	4.0
114.516	4.0
114.531	6.0
114.546	0.0
114.561	6.0
114.576	3.0
114.591	4.0
114.606	5.0
114.621	6.0
114.636	5.0
114.65	1.0
114.665	3.0
114.68	3.0
114.695	3.0
114.71	5.0
114.725	5.0
114.74	5.0
114.755	7.0
114.77	4.0
114.785	7.0
114.8	5.0
114.815	11.0
114.83	1.0
114.845	4.0
114.86	4.0
114.875	4.0
114.89	2.0
114.905	5.0
114.92	5.0
114.935	4.0
114.95	2.0
114.965	7.0
114.98	0.0
114.995	1.0
115.009	5.0
115.024	6.0
115.039	2.0
115.054	6.0
115.069	4.0
115.084	6.0
115.099	6.0
115.114	4.0
115.129	4.0
115.144	10.0
115.159	7.0
115.174	4.0
115.189	7.0
115.204	2.0
115.219	3.0
115.234	2.0
115.249	4.0
115.264	4.0
115.279	5.0
115.294	5.0
115.309	1.0
115.323	4.0
115.338	6.0
115.353	5.0
115.368	2.0
115.383	2.0
115.398	4.0
115.413	2.0
115.428	3.0
115.443	5.0
115.458	3.0
115.473	2.0
115.488	4.0
115.503	3.0
115.518	1.0
115.533	5.0
115.548	3.0
115.562	3.0
115.577	1.0
115.592	1.0
115.607	1.0
115.622	1.0
115.637	2.0
115.652	5.0
115.667	1.0
115.682	1.0
115.697	2.0
115.712	3.0
115.727	2.0
115.741	4.0
115.756	4.0
115.771	5.0
115.786	2.0
115.801	7.0
115.816	3.0
115.831	5.0
115.846	6.0
115.861	3.0
115.875	2.0
115.89	3.0
115.905	5.0
115.92	2.0
115.935	5.0
115.95	2.0
115.965	1.0
115.98	3.0
115.995	4.0
116.009	3.0
116.024	2.0
116.039	5.0
116.054	1.0
116.069	3.0
116.084	7.0
116.099	2.0
116.113	5.0
116.128	6.0
116.143	3.0
116.158	3.0
116.173	2.0
116.188	3.0
116.202	8.0
116.217	3.0
116.232	4.0
116.247	4.0
116.262	5.0
116.277	3.0
116.291	3.0
116.306	2.0
116.321	6.0
116.336	1.0
116.351	7.0
116.366	2.0
116.38	3.0
116.395	4.0
116.41	1.0
116.425	3.0
116.44	2.0
116.454	3.0
116.469	1.0
116.484	5.0
116.499	3.0
116.514	2.0
116.528	3.0
116.543	5.0
116.558	6.0
116.573	1.0
116.588	1.0
116.602	1.0
116.617	2.0
116.632	6.0
116.647	2.0
116.662	5.0
116.676	3.0
116.691	2.0
116.706	2.0
116.721	4.0
116.735	6.0
116.75	4.0
116.765	4.0
116.78	5.0
116.795	2.0
116.809	2.0
116.824	1.0
116.839	2.0
116.854	3.0
116.868	4.0
116.883	1.0
116.898	6.0
116.913	2.0
116.927	1.0
116.942	7.0
116.957	2.0
116.972	1.0
116.986	7.0
117.001	3.0
117.016	4.0
117.031	2.0
117.045	4.0
117.06	4.0
117.075	3.0
117.09	7.0
117.104	6.0
117.119	4.0
117.134	3.0
117.149	3.0
117.163	2.0
117.178	5.0
117.193	3.0
117.208	1.0
117.222	3.0
117.237	3.0
117.252	0.0
117.267	2.0
117.281	4.0
117.296	4.0
117.311	2.0
117.325	0.0
117.34	2.0
117.355	6.0
117.37	2.0
117.384	3.0
117.399	2.0
117.414	3.0
117.429	5.0
117.443	5.0
117.458	5.0
117.473	5.0
117.487	2.0
117.502	2.0
117.517	4.0
117.532	2.0
117.546	3.0
117.561	0.0
117.576	2.0
117.59	3.0
117.605	0.0
117.62	2.0
117.635	2.0
117.649	3.0
117.664	0.0
117.679	5.0
117.693	4.0
117.708	6.0
117.723	4.0
117.738	4.0
117.752	3.0
117.767	1.0
117.782	5.0
117.796	5.0
117.811	2.0
117.826	5.0
117.841	5.0
117.855	6.0
117.87	4.0
117.885	5.0
117.899	1.0
117.914	2.0
117.929	4.0
117.944	2.0
117.958	2.0
117.973	7.0
117.988	1.0
118.002	2.0
118.017	1.0
118.032	4.0
118.047	7.0
118.062	2.0
118.077	7.0
118.092	5.0
118.107	4.0
118.121	6.0
118.136	2.0
118.151	1.0
118.166	5.0
118.181	10.0
118.196	2.0
118.211	5.0
118.225	1.0
118.24	2.0
118.255	5.0
118.27	4.0
118.285	3.0
118.3	2.0
118.315	3.0
118.33	2.0
118.344	5.0
118.359	1.0
118.374	7.0
118.389	4.0
118.404	4.0
118.419	2.0
118.434	5.0
118.449	2.0
118.463	2.0
118.478	0.0
118.493	4.0
118.508	1.0
118.523	5.0
118.538	4.0
118.553	4.0
118.567	0.0
118.582	7.0
118.597	2.0
118.612	4.0
118.627	5.0
118.642	2.0
118.657	2.0
118.672	2.0
118.686	10.0
118.701	1.0
118.716	3.0
118.731	4.0
118.746	5.0
118.761	5.0
118.776	1.0
118.791	3.0
118.805	2.0
118.82	2.0
118.835	2.0
118.85	6.0
118.865	2.0
118.88	4.0
118.895	5.0
118.909	1.0
118.924	2.0
118.939	3.0
118.954	4.0
118.969	3.0
118.984	5.0
118.999	0.0
119.014	1.0
119.028	6.0
119.043	5.0
119.058	5.0
119.073	0.0
119.088	6.0
119.103	2.0
119.118	6.0
119.133	6.0
119.147	5.0
119.162	1.0
119.177	3.0
119.192	5.0
119.207	1.0
119.222	4.0
119.237	2.0
119.251	5.0
119.266	6.0
119.281	1.0
119.296	5.0
119.311	7.0
119.326	7.0
119.341	3.0
119.356	3.0
119.37	3.0
119.385	2.0
119.4	2.0
119.415	3.0
119.43	5.0
119.445	5.0
119.46	4.0
119.475	6.0
119.489	3.0
119.504	8.0
119.519	4.0
119.534	4.0
119.549	1.0
119.564	6.0
119.579	4.0
119.593	4.0
119.608	3.0
119.623	1.0
119.638	3.0
119.653	5.0
119.668	2.0
119.683	2.0
119.698	4.0
119.712	5.0
119.727	4.0
119.742	2.0
119.757	5.0
119.772	2.0
119.787	4.0
119.802	4.0
119.817	1.0
119.831	3.0
119.846	4.0
119.861	3.0
119.876	2.0
119.891	5.0
119.906	2.0
119.921	4.0
119.935	2.0
119.95	3.0
119.965	0.0
119.98	0.0
119.995	5.0
120.01	5.0
120.025	4.0
120.04	1.0
120.054	2.0
120.069	3.0
120.084	2.0
120.099	3.0
120.114	1.0
120.129	1.0
120.144	2.0
120.159	1.0
120.173	3.0
120.188	1.0
120.203	2.0
120.218	4.0
120.233	0.0
120.248	0.0
120.263	0.0
120.277	0.0
120.292	1.0
120.307	1.0
120.322	0.0
120.337	0.0
120.352	0.0
120.367	0.0
120.382	0.0
120.396	0.0
120.411	0.0
120.426	0.0
120.441	0.0
120.456	0.0
120.471	1.0
120.486	1.0
120.501	0.0
120.515	2.0
120.53	0.0
120.545	0.0
120.56	0.0
120.575	0.0
120.59	0.0
120.605	0.0
120.619	0.0
120.634	0.0
120.649	0.0
120.664	0.0
120.679	0.0
120.694	0.0
120.709	0.0
120.724	0.0
120.738	0.0
120.753	0.0
120.768	0.0
120.783	0.0
120.798	0.0
120.813	0.0
120.828	0.0
120.843	0.0
120.857	0.0
120.872	0.0
120.887	0.0
120.902	0.0
120.917	0.0
120.932	0.0
120.947	0.0
120.961	0.0
120.976	0.0
