-1.217	0.0
-1.202	0.0
-1.187	0.0
-1.172	0.0
-1.157	0.0
-1.142	0.0
-1.128	0.0
-1.113	0.0
-1.098	0.0
-1.083	0.0
-1.068	0.0
-1.054	0.0
-1.039	0.0
-1.024	0.0
-1.009	0.0
-0.994	0.0
-0.979	0.0
-0.965	0.0
-0.95	0.0
-0.935	0.0
-0.92	0.0
-0.905	0.0
-0.891	0.0
-0.876	0.0
-0.861	0.0
-0.846	0.0
-0.831	1.0
-0.816	0.0
-0.802	0.0
-0.787	0.0
-0.772	0.0
-0.757	0.0
-0.742	0.0
-0.728	0.0
-0.713	0.0
-0.698	0.0
-0.683	0.0
-0.668	0.0
-0.653	0.0
-0.639	0.0
-0.624	0.0
-0.609	0.0
-0.594	0.0
-0.579	0.0
-0.565	0.0
-0.55	0.0
-0.535	0.0
-0.52	0.0
-0.505	0.0
-0.49	0.0
-0.476	0.0
-0.461	0.0
-0.446	0.0
-0.431	0.0
-0.416	0.0
-0.401	0.0
-0.387	0.0
-0.372	0.0
-0.357	0.0
-0.342	0.0
-0.327	0.0
-0.313	0.0
-0.298	0.0
-0.283	0.0
-0.268	0.0
-0.253	0.0
-0.238	0.0
-0.224	0.0
-0.209	0.0
-0.194	0.0
-0.179	0.0
-0.164	0.0
-0.15	0.0
-0.135	0.0
-0.12	0.0
-0.105	0.0
-0.09	0.0
-0.075	0.0
-0.061	0.0
-0.046	0.0
-0.031	0.0
-0.016	0.0
-0.001	0.0
0.013	0.0
0.028	0.0
0.043	0.0
0.058	0.0
0.073	0.0
0.088	0.0
0.102	0.0
0.117	0.0
0.132	0.0
0.147	0.0
0.162	0.0
0.176	0.0
0.191	0.0
0.206	0.0
0.221	0.0
0.236	0.0
0.251	0.0
0.265	0.0
0.28	0.0
0.295	0.0
0.31	0.0
0.325	1.0
0.339	0.0
0.354	0.0
0.369	0.0
0.384	0.0
0.399	0.0
0.414	0.0
0.428	0.0
0.443	0.0
0.458	0.0
0.473	1.0
0.488	0.0
0.502	0.0
0.517	0.0
0.532	0.0
0.547	0.0
0.562	0.0
0.577	0.0
0.591	0.0
0.606	0.0
0.621	0.0
0.636	0.0
0.651	0.0
0.665	0.0
0.68	0.0
0.695	0.0
0.71	0.0
0.725	0.0
0.74	0.0
0.754	0.0
0.769	0.0
0.784	0.0
0.799	0.0
0.814	0.0
0.828	0.0
0.843	0.0
0.858	0.0
0.873	0.0
0.888	0.0
0.903	0.0
0.917	0.0
0.932	0.0
0.947	0.0
0.962	0.0
0.977	0.0
0.991	0.0
1.006	0.0
1.021	0.0
1.036	0.0
1.051	0.0
1.065	0.0
1.08	0.0
1.095	0.0
1.11	0.0
1.125	0.0
1.14	0.0
1.154	0.0
1.169	0.0
1.184	0.0
1.199	0.0
1.214	0.0
1.228	0.0
1.243	0.0
1.258	0.0
1.273	0.0
1.288	0.0
1.302	0.0
1.317	0.0
1.332	0.0
1.347	0.0
1.362	0.0
1.376	1.0
1.391	0.0
1.406	0.0
1.421	0.0
1.436	0.0
1.45	0.0
1.465	0.0
1.48	0.0
1.495	0.0
1.51	0.0
1.524	0.0
1.539	0.0
1.554	0.0
1.569	0.0
1.584	0.0
1.598	0.0
1.613	1.0
1.628	1.0
1.643	0.0
1.658	0.0
1.672	0.0
1.687	0.0
1.702	0.0
1.717	0.0
1.732	0.0
1.746	0.0
1.761	0.0
1.776	0.0
1.791	0.0
1.806	0.0
1.82	0.0
1.835	0.0
1.85	0.0
1.865	0.0
1.88	0.0
1.894	0.0
1.909	0.0
1.924	1.0
1.939	0.0
1.954	0.0
1.968	0.0
1.983	0.0
1.998	0.0
2.013	0.0
2.028	1.0
2.042	0.0
2.057	0.0
2.072	0.0
2.087	0.0
2.101	1.0
2.116	1.0
2.131	0.0
2.146	0.0
2.161	0.0
2.175	0.0
2.19	0.0
2.205	0.0
2.22	0.0
2.235	1.0
2.249	0.0
2.264	0.0
2.279	0.0
2.294	0.0
2.308	0.0
2.323	0.0
2.338	0.0
2.353	0.0
2.368	0.0
2.382	1.0
2.397	1.0
2.412	2.0
2.427	4.0
2.442	2.0
2.456	1.0
2.471	0.0
2.486	1.0
2.501	1.0
2.515	2.0
2.53	2.0
2.545	2.0
2.56	3.0
2.575	1.0
2.589	0.0
2.604	3.0
2.619	2.0
2.634	2.0
2.649	4.0
2.663	3.0
2.678	1.0
2.693	2.0
2.708	0.0
2.722	1.0
2.737	4.0
2.752	2.0
2.767	4.0
2.782	4.0
2.796	5.0
2.811	4.0
2.826	3.0
2.841	4.0
2.856	2.0
2.87	4.0
2.885	4.0
2.9	2.0
2.915	4.0
2.93	1.0
2.944	2.0
2.959	7.0
2.974	4.0
2.989	2.0
3.004	6.0
3.018	4.0
3.033	7.0
3.048	1.0
3.063	2.0
3.078	3.0
3.092	2.0
3.107	8.0
3.122	6.0
3.137	3.0
3.152	9.0
3.166	2.0
3.181	6.0
3.196	6.0
3.211	3.0
3.226	5.0
3.24	5.0
3.255	2.0
3.27	4.0
3.285	5.0
3.3	6.0
3.315	4.0
3.329	3.0
3.344	9.0
3.359	2.0
3.374	4.0
3.389	3.0
3.403	2.0
3.418	9.0
3.433	5.0
3.448	7.0
3.463	9.0
3.478	5.0
3.492	1.0
3.507	5.0
3.522	11.0
3.537	8.0
3.552	6.0
3.567	5.0
3.581	4.0
3.596	2.0
3.611	12.0
3.626	5.0
3.641	6.0
3.656	5.0
3.671	2.0
3.685	6.0
3.7	6.0
3.715	10.0
3.73	5.0
3.745	5.0
3.76	6.0
3.775	5.0
3.789	7.0
3.804	10.0
3.819	8.0
3.834	2.0
3.849	7.0
3.864	3.0
3.879	4.0
3.894	4.0
3.908	5.0
3.923	7.0
3.938	5.0
3.953	4.0
3.968	9.0
3.983	7.0
3.998	8.0
4.013	6.0
4.027	5.0
4.042	8.0
4.057	8.0
4.072	5.0
4.087	2.0
4.102	10.0
4.117	6.0
4.132	5.0
4.147	4.0
4.162	7.0
4.176	6.0
4.191	8.0
4.206	7.0
4.221	11.0
4.236	5.0
4.251	7.0
4.266	5.0
4.281	4.0
4.296	5.0
4.311	5.0
4.326	7.0
4.341	7.0
4.356	10.0
4.37	5.0
4.385	11.0
4.4	8.0
4.415	10.0
4.43	5.0
4.445	8.0
4.46	2.0
4.475	4.0
4.49	10.0
4.505	5.0
4.52	4.0
4.535	7.0
4.55	8.0
4.565	11.0
4.58	7.0
4.595	3.0
4.61	2.0
4.625	7.0
4.639	5.0
4.654	9.0
4.669	4.0
4.684	11.0
4.699	6.0
4.714	6.0
4.729	1.0
4.744	4.0
4.759	5.0
4.774	8.0
4.789	10.0
4.804	8.0
4.819	8.0
4.834	9.0
4.849	9.0
4.864	7.0
4.879	5.0
4.894	5.0
4.909	11.0
4.924	8.0
4.939	10.0
4.954	7.0
4.969	2.0
4.984	11.0
4.999	9.0
5.014	9.0
5.029	6.0
5.044	6.0
5.059	1.0
5.074	7.0
5.089	5.0
5.104	6.0
5.119	6.0
5.134	6.0
5.149	8.0
5.164	8.0
5.179	9.0
5.194	8.0
5.209	8.0
5.224	5.0
5.239	8.0
5.254	10.0
5.269	9.0
5.284	7.0
5.299	5.0
5.314	6.0
5.329	7.0
5.344	10.0
5.359	11.0
5.374	12.0
5.389	7.0
5.404	6.0
5.419	10.0
5.434	9.0
5.449	3.0
5.464	8.0
5.479	6.0
5.494	8.0
5.509	8.0
5.524	6.0
5.539	9.0
5.554	5.0
5.569	9.0
5.584	6.0
5.599	11.0
5.614	4.0
5.629	8.0
5.644	8.0
5.659	6.0
5.674	9.0
5.689	11.0
5.704	10.0
5.719	8.0
5.734	14.0
5.749	11.0
5.764	5.0
5.779	7.0
5.794	12.0
5.809	7.0
5.824	14.0
5.839	11.0
5.854	6.0
5.869	10.0
5.884	14.0
5.899	9.0
5.914	10.0
5.929	11.0
5.944	5.0
5.959	12.0
5.974	11.0
5.989	8.0
6.004	14.0
6.019	9.0
6.034	9.0
6.049	9.0
6.064	8.0
6.079	10.0
6.094	14.0
6.109	9.0
6.124	16.0
6.139	14.0
6.154	7.0
6.169	10.0
6.184	11.0
6.199	4.0
6.214	8.0
6.229	8.0
6.244	7.0
6.259	4.0
6.274	8.0
6.289	10.0
6.304	8.0
6.319	10.0
6.334	6.0
6.349	12.0
6.364	10.0
6.379	8.0
6.394	4.0
6.409	11.0
6.424	12.0
6.439	6.0
6.454	8.0
6.469	7.0
6.484	9.0
6.499	11.0
6.514	12.0
6.529	8.0
6.544	11.0
6.559	8.0
6.574	11.0
6.589	6.0
6.604	11.0
6.619	7.0
6.634	9.0
6.649	5.0
6.664	10.0
6.679	8.0
6.694	7.0
6.709	6.0
6.724	5.0
6.739	10.0
6.754	9.0
6.769	14.0
6.784	7.0
6.799	10.0
6.814	3.0
6.829	10.0
6.844	9.0
6.859	10.0
6.873	10.0
6.888	9.0
6.903	9.0
6.918	15.0
6.933	9.0
6.948	4.0
6.963	5.0
6.978	4.0
6.993	6.0
7.008	6.0
7.023	8.0
7.038	9.0
7.053	12.0
7.068	10.0
7.083	9.0
7.098	6.0
7.113	6.0
7.128	10.0
7.143	11.0
7.157	12.0
7.172	15.0
7.187	10.0
7.202	9.0
7.217	4.0
7.232	18.0
7.247	9.0
7.262	8.0
7.277	10.0
7.292	15.0
7.307	7.0
7.322	8.0
7.336	7.0
7.351	8.0
7.366	11.0
7.381	12.0
7.396	10.0
7.411	7.0
7.426	10.0
7.441	7.0
7.456	5.0
7.471	8.0
7.485	6.0
7.5	7.0
7.515	11.0
7.53	9.0
7.545	6.0
7.56	8.0
7.575	8.0
7.59	8.0
7.604	8.0
7.619	11.0
7.634	7.0
7.649	12.0
7.664	15.0
7.679	10.0
7.693	9.0
7.708	12.0
7.723	6.0
7.738	3.0
7.753	7.0
7.768	5.0
7.783	9.0
7.797	10.0
7.812	8.0
7.827	5.0
7.842	13.0
7.857	7.0
7.871	7.0
7.886	10.0
7.901	6.0
7.916	13.0
7.931	10.0
7.945	5.0
7.96	5.0
7.975	7.0
7.99	6.0
8.005	13.0
8.019	10.0
8.034	7.0
8.049	6.0
8.064	14.0
8.078	6.0
8.093	10.0
8.108	8.0
8.123	6.0
8.137	10.0
8.152	10.0
8.167	11.0
8.182	8.0
8.196	8.0
8.211	5.0
8.226	7.0
8.241	11.0
8.255	14.0
8.27	6.0
8.285	6.0
8.3	5.0
8.314	10.0
8.329	14.0
8.344	13.0
8.358	8.0
8.373	10.0
8.388	8.0
8.403	6.0
8.417	6.0
8.432	12.0
8.447	7.0
8.461	14.0
8.476	9.0
8.491	6.0
8.505	4.0
8.52	6.0
8.535	10.0
8.55	5.0
8.564	11.0
8.579	10.0
8.594	6.0
8.608	9.0
8.623	6.0
8.638	9.0
8.652	7.0
8.667	8.0
8.682	11.0
8.696	12.0
8.711	8.0
8.726	12.0
8.74	9.0
8.755	12.0
8.77	5.0
8.784	9.0
8.799	3.0
8.814	2.0
8.828	15.0
8.843	8.0
8.858	5.0
8.872	10.0
8.887	2.0
8.902	10.0
8.916	4.0
8.931	4.0
8.946	8.0
8.96	8.0
8.975	10.0
8.99	7.0
9.004	7.0
9.019	7.0
9.034	7.0
9.048	4.0
9.063	7.0
9.077	8.0
9.092	8.0
9.107	10.0
9.121	8.0
9.136	10.0
9.151	7.0
9.165	7.0
9.18	17.0
9.195	9.0
9.209	3.0
9.224	4.0
9.239	4.0
9.253	9.0
9.268	9.0
9.283	9.0
9.297	10.0
9.312	11.0
9.327	7.0
9.341	8.0
9.356	10.0
9.371	9.0
9.385	9.0
9.4	6.0
9.415	5.0
9.429	7.0
9.444	9.0
9.458	12.0
9.473	7.0
9.488	8.0
9.502	7.0
9.517	9.0
9.532	10.0
9.546	5.0
9.561	9.0
9.576	12.0
9.59	7.0
9.605	10.0
9.62	8.0
9.635	8.0
9.649	15.0
9.664	8.0
9.679	5.0
9.693	5.0
9.708	8.0
9.723	9.0
9.737	9.0
9.752	7.0
9.767	7.0
9.781	8.0
9.796	3.0
9.811	9.0
9.825	4.0
9.84	11.0
9.855	4.0
9.87	8.0
9.884	11.0
9.899	9.0
9.914	4.0
9.928	5.0
9.943	6.0
9.958	6.0
9.973	6.0
9.987	9.0
10.002	9.0
10.017	4.0
10.031	9.0
10.046	9.0
10.061	11.0
10.076	10.0
10.09	4.0
10.105	8.0
10.12	2.0
10.135	6.0
10.149	10.0
10.164	4.0
10.179	7.0
10.194	4.0
10.208	6.0
10.223	6.0
10.238	9.0
10.253	13.0
10.267	8.0
10.282	8.0
10.297	6.0
10.312	9.0
10.326	12.0
10.341	11.0
10.356	13.0
10.371	5.0
10.386	7.0
10.4	8.0
10.415	12.0
10.43	9.0
10.445	3.0
10.46	9.0
10.474	6.0
10.489	2.0
10.504	4.0
10.519	8.0
10.533	7.0
10.548	13.0
10.563	6.0
10.578	13.0
10.593	11.0
10.608	11.0
10.622	5.0
10.637	8.0
10.652	4.0
10.667	7.0
10.682	4.0
10.696	8.0
10.711	8.0
10.726	7.0
10.741	12.0
10.756	11.0
10.771	8.0
10.785	6.0
10.8	7.0
10.815	7.0
10.83	10.0
10.845	8.0
10.86	13.0
10.874	7.0
10.889	7.0
10.904	9.0
10.919	12.0
10.934	2.0
10.949	8.0
10.963	10.0
10.978	8.0
10.993	9.0
11.008	7.0
11.023	7.0
11.038	12.0
11.053	7.0
11.067	6.0
11.082	7.0
11.097	6.0
11.112	7.0
11.127	10.0
11.142	15.0
11.157	5.0
11.172	7.0
11.186	7.0
11.201	10.0
11.216	7.0
11.231	5.0
11.246	15.0
11.261	5.0
11.276	8.0
11.291	10.0
11.305	9.0
11.32	5.0
11.335	9.0
11.35	8.0
11.365	7.0
11.38	8.0
11.395	11.0
11.41	6.0
11.424	10.0
11.439	7.0
11.454	8.0
11.469	9.0
11.484	6.0
11.499	10.0
11.514	7.0
11.529	6.0
11.544	9.0
11.558	8.0
11.573	3.0
11.588	10.0
11.603	9.0
11.618	10.0
11.633	9.0
11.648	10.0
11.663	17.0
11.678	11.0
11.693	7.0
11.707	4.0
11.722	8.0
11.737	5.0
11.752	9.0
11.767	7.0
11.782	9.0
11.797	14.0
11.812	6.0
11.827	4.0
11.842	6.0
11.856	7.0
11.871	4.0
11.886	10.0
11.901	11.0
11.916	8.0
11.931	8.0
11.946	13.0
11.961	9.0
11.976	6.0
11.991	8.0
12.006	10.0
12.02	14.0
12.035	9.0
12.05	14.0
12.065	8.0
12.08	8.0
12.095	7.0
12.11	8.0
12.125	6.0
12.14	13.0
12.155	10.0
12.17	14.0
12.184	6.0
12.199	13.0
12.214	10.0
12.229	14.0
12.244	9.0
12.259	12.0
12.274	8.0
12.289	14.0
12.304	10.0
12.319	10.0
12.334	12.0
12.348	11.0
12.363	13.0
12.378	10.0
12.393	10.0
12.408	9.0
12.423	8.0
12.438	10.0
12.453	7.0
12.468	12.0
12.483	17.0
12.498	14.0
12.513	10.0
12.527	11.0
12.542	8.0
12.557	9.0
12.572	8.0
12.587	15.0
12.602	16.0
12.617	10.0
12.632	22.0
12.647	12.0
12.662	8.0
12.677	6.0
12.692	13.0
12.707	10.0
12.721	16.0
12.736	12.0
12.751	21.0
12.766	17.0
12.781	12.0
12.796	15.0
12.811	7.0
12.826	15.0
12.841	18.0
12.856	8.0
12.871	16.0
12.886	18.0
12.9	16.0
12.915	11.0
12.93	16.0
12.945	14.0
12.96	10.0
12.975	14.0
12.99	17.0
13.005	15.0
13.02	12.0
13.035	8.0
13.05	12.0
13.065	17.0
13.08	11.0
13.094	21.0
13.109	15.0
13.124	14.0
13.139	19.0
13.154	18.0
13.169	19.0
13.184	17.0
13.199	23.0
13.214	18.0
13.229	21.0
13.244	17.0
13.259	12.0
13.274	24.0
13.288	18.0
13.303	14.0
13.318	25.0
13.333	19.0
13.348	21.0
13.363	23.0
13.378	13.0
13.393	26.0
13.408	27.0
13.423	29.0
13.438	26.0
13.453	18.0
13.468	43.0
13.482	31.0
13.497	34.0
13.512	42.0
13.527	37.0
13.542	48.0
13.557	42.0
13.572	51.0
13.587	50.0
13.602	56.0
13.617	66.0
13.632	74.0
13.647	72.0
13.662	76.0
13.677	83.0
13.691	84.0
13.706	74.0
13.721	94.0
13.736	89.0
13.751	109.0
13.766	121.0
13.781	122.0
13.796	122.0
13.811	127.0
13.826	105.0
13.841	124.0
13.856	120.0
13.871	128.0
13.885	93.0
13.9	85.0
13.915	87.0
13.93	65.0
13.945	55.0
13.96	55.0
13.975	48.0
13.99	41.0
14.005	37.0
14.02	33.0
14.035	28.0
14.05	23.0
14.065	22.0
14.08	26.0
14.094	19.0
14.109	25.0
14.124	25.0
14.139	16.0
14.154	17.0
14.169	30.0
14.184	27.0
14.199	14.0
14.214	20.0
14.229	24.0
14.244	17.0
14.259	13.0
14.274	21.0
14.288	13.0
14.303	19.0
14.318	27.0
14.333	15.0
14.348	22.0
14.363	13.0
14.378	21.0
14.393	13.0
14.408	16.0
14.423	29.0
14.438	18.0
14.453	17.0
14.468	16.0
14.482	21.0
14.497	18.0
14.512	15.0
14.527	17.0
14.542	14.0
14.557	17.0
14.572	14.0
14.587	18.0
14.602	17.0
14.617	17.0
14.632	15.0
14.647	14.0
14.661	17.0
14.676	13.0
14.691	17.0
14.706	19.0
14.721	20.0
14.736	13.0
14.751	17.0
14.766	18.0
14.781	17.0
14.796	14.0
14.811	18.0
14.826	19.0
14.84	9.0
14.855	9.0
14.87	19.0
14.885	12.0
14.9	12.0
14.915	11.0
14.93	14.0
14.945	13.0
14.96	11.0
14.975	18.0
14.989	19.0
15.004	15.0
15.019	12.0
15.034	19.0
15.049	10.0
15.064	18.0
15.079	22.0
15.094	14.0
15.109	9.0
15.124	17.0
15.138	11.0
15.153	16.0
15.168	14.0
15.183	12.0
15.198	20.0
15.213	20.0
15.228	16.0
15.243	13.0
15.258	13.0
15.272	19.0
15.287	22.0
15.302	13.0
15.317	19.0
15.332	6.0
15.347	12.0
15.362	21.0
15.377	10.0
15.391	20.0
15.406	13.0
15.421	16.0
15.436	18.0
15.451	9.0
15.466	16.0
15.481	14.0
15.496	19.0
15.51	11.0
15.525	16.0
15.54	11.0
15.555	19.0
15.57	10.0
15.585	16.0
15.6	16.0
15.614	23.0
15.629	12.0
15.644	13.0
15.659	12.0
15.674	10.0
15.689	15.0
15.704	14.0
15.718	11.0
15.733	13.0
15.748	18.0
15.763	21.0
15.778	15.0
15.793	19.0
15.808	14.0
15.822	14.0
15.837	23.0
15.852	15.0
15.867	10.0
15.882	12.0
15.897	14.0
15.911	13.0
15.926	16.0
15.941	17.0
15.956	10.0
15.971	21.0
15.986	14.0
16.0	11.0
16.015	7.0
16.03	14.0
16.045	13.0
16.06	15.0
16.074	15.0
16.089	11.0
16.104	12.0
16.119	20.0
16.134	15.0
16.149	5.0
16.163	10.0
16.178	14.0
16.193	14.0
16.208	14.0
16.223	11.0
16.237	20.0
16.252	18.0
16.267	17.0
16.282	21.0
16.297	13.0
16.311	14.0
16.326	17.0
16.341	13.0
16.356	14.0
16.37	9.0
16.385	10.0
16.4	13.0
16.415	13.0
16.43	19.0
16.444	16.0
16.459	15.0
16.474	9.0
16.489	18.0
16.504	17.0
16.518	13.0
16.533	14.0
16.548	16.0
16.563	15.0
16.577	17.0
16.592	21.0
16.607	20.0
16.622	22.0
16.637	26.0
16.651	17.0
16.666	27.0
16.681	23.0
16.696	24.0
16.71	23.0
16.725	26.0
16.74	19.0
16.755	27.0
16.77	36.0
16.784	49.0
16.799	43.0
16.814	36.0
16.829	38.0
16.843	42.0
16.858	40.0
16.873	60.0
16.888	61.0
16.902	68.0
16.917	63.0
16.932	65.0
16.947	70.0
16.961	64.0
16.976	71.0
16.991	65.0
17.006	64.0
17.021	53.0
17.035	50.0
17.05	64.0
17.065	40.0
17.08	33.0
17.094	30.0
17.109	29.0
17.124	30.0
17.139	23.0
17.153	19.0
17.168	25.0
17.183	26.0
17.198	16.0
17.212	23.0
17.227	18.0
17.242	11.0
17.257	12.0
17.271	14.0
17.286	13.0
17.301	14.0
17.316	9.0
17.33	26.0
17.345	7.0
17.36	18.0
17.375	9.0
17.39	14.0
17.404	10.0
17.419	14.0
17.434	6.0
17.449	14.0
17.463	13.0
17.478	10.0
17.493	14.0
17.508	11.0
17.522	10.0
17.537	17.0
17.552	11.0
17.567	15.0
17.581	15.0
17.596	10.0
17.611	10.0
17.626	8.0
17.641	10.0
17.655	9.0
17.67	8.0
17.685	18.0
17.7	12.0
17.714	17.0
17.729	3.0
17.744	13.0
17.759	12.0
17.773	10.0
17.788	10.0
17.803	15.0
17.818	7.0
17.833	11.0
17.847	16.0
17.862	11.0
17.877	13.0
17.892	13.0
17.906	15.0
17.921	10.0
17.936	10.0
17.951	6.0
17.966	14.0
17.98	14.0
17.995	10.0
18.01	14.0
18.025	16.0
18.04	8.0
18.054	13.0
18.069	10.0
18.084	8.0
18.099	8.0
18.114	12.0
18.128	5.0
18.143	12.0
18.158	12.0
18.173	17.0
18.188	11.0
18.202	9.0
18.217	9.0
18.232	9.0
18.247	13.0
18.262	21.0
18.276	9.0
18.291	9.0
18.306	16.0
18.321	9.0
18.336	13.0
18.35	7.0
18.365	12.0
18.38	14.0
18.395	9.0
18.41	14.0
18.424	10.0
18.439	15.0
18.454	16.0
18.469	9.0
18.484	12.0
18.498	6.0
18.513	13.0
18.528	10.0
18.543	8.0
18.558	10.0
18.573	6.0
18.587	14.0
18.602	12.0
18.617	10.0
18.632	11.0
18.647	9.0
18.661	13.0
18.676	11.0
18.691	9.0
18.706	13.0
18.721	13.0
18.736	14.0
18.75	10.0
18.765	17.0
18.78	14.0
18.795	13.0
18.81	19.0
18.825	15.0
18.839	8.0
18.854	16.0
18.869	9.0
18.884	14.0
18.899	10.0
18.913	13.0
18.928	14.0
18.943	12.0
18.958	8.0
18.973	9.0
18.988	9.0
19.002	10.0
19.017	10.0
19.032	12.0
19.047	19.0
19.062	17.0
19.077	14.0
19.091	9.0
19.106	20.0
19.121	19.0
19.136	20.0
19.151	9.0
19.165	14.0
19.18	13.0
19.195	16.0
19.21	10.0
19.225	12.0
19.24	15.0
19.254	14.0
19.269	18.0
19.284	17.0
19.299	14.0
19.314	10.0
19.329	13.0
19.343	14.0
19.358	11.0
19.373	14.0
19.388	16.0
19.403	14.0
19.417	17.0
19.432	22.0
19.447	23.0
19.462	31.0
19.477	17.0
19.492	26.0
19.506	25.0
19.521	37.0
19.536	34.0
19.551	32.0
19.566	36.0
19.58	42.0
19.595	41.0
19.61	52.0
19.625	45.0
19.64	33.0
19.655	33.0
19.669	30.0
19.684	34.0
19.699	38.0
19.714	40.0
19.729	19.0
19.743	23.0
19.758	25.0
19.773	15.0
19.788	13.0
19.803	29.0
19.817	18.0
19.832	23.0
19.847	16.0
19.862	7.0
19.877	13.0
19.891	9.0
19.906	12.0
19.921	19.0
19.936	10.0
19.951	14.0
19.965	13.0
19.98	13.0
19.995	15.0
20.01	9.0
20.025	13.0
20.039	10.0
20.054	8.0
20.069	14.0
20.084	15.0
20.099	12.0
20.113	10.0
20.128	14.0
20.143	7.0
20.158	10.0
20.173	12.0
20.187	13.0
20.202	11.0
20.217	17.0
20.232	13.0
20.246	10.0
20.261	12.0
20.276	10.0
20.291	14.0
20.306	18.0
20.32	21.0
20.335	12.0
20.35	16.0
20.365	12.0
20.38	8.0
20.394	17.0
20.409	9.0
20.424	10.0
20.439	11.0
20.453	13.0
20.468	21.0
20.483	12.0
20.498	10.0
20.513	12.0
20.527	7.0
20.542	19.0
20.557	4.0
20.572	19.0
20.586	17.0
20.601	10.0
20.616	10.0
20.631	8.0
20.646	16.0
20.66	14.0
20.675	14.0
20.69	6.0
20.705	9.0
20.719	9.0
20.734	10.0
20.749	20.0
20.764	6.0
20.779	7.0
20.793	11.0
20.808	10.0
20.823	11.0
20.838	9.0
20.853	10.0
20.867	10.0
20.882	10.0
20.897	7.0
20.912	9.0
20.926	11.0
20.941	13.0
20.956	13.0
20.971	12.0
20.986	7.0
21.0	6.0
21.015	12.0
21.03	9.0
21.045	13.0
21.06	12.0
21.074	15.0
21.089	14.0
21.104	8.0
21.119	16.0
21.134	12.0
21.148	12.0
21.163	10.0
21.178	10.0
21.193	13.0
21.208	11.0
21.222	11.0
21.237	15.0
21.252	10.0
21.267	12.0
21.282	15.0
21.296	17.0
21.311	12.0
21.326	10.0
21.341	10.0
21.356	16.0
21.37	12.0
21.385	15.0
21.4	8.0
21.415	14.0
21.43	8.0
21.444	13.0
21.459	13.0
21.474	19.0
21.489	14.0
21.504	15.0
21.519	13.0
21.533	16.0
21.548	12.0
21.563	20.0
21.578	8.0
21.593	20.0
21.608	16.0
21.622	11.0
21.637	24.0
21.652	18.0
21.667	16.0
21.682	21.0
21.697	28.0
21.712	17.0
21.726	27.0
21.741	23.0
21.756	27.0
21.771	25.0
21.786	39.0
21.801	42.0
21.816	44.0
21.83	43.0
21.845	56.0
21.86	61.0
21.875	66.0
21.89	55.0
21.905	68.0
21.92	82.0
21.935	81.0
21.949	70.0
21.964	78.0
21.979	81.0
21.994	51.0
22.009	60.0
22.024	68.0
22.039	63.0
22.054	58.0
22.069	44.0
22.083	57.0
22.098	25.0
22.113	41.0
22.128	34.0
22.143	30.0
22.158	22.0
22.173	20.0
22.188	15.0
22.203	21.0
22.218	27.0
22.233	14.0
22.248	10.0
22.262	15.0
22.277	17.0
22.292	9.0
22.307	12.0
22.322	10.0
22.337	11.0
22.352	15.0
22.367	13.0
22.382	9.0
22.397	10.0
22.412	15.0
22.427	6.0
22.442	12.0
22.457	12.0
22.472	9.0
22.487	13.0
22.502	9.0
22.516	12.0
22.531	11.0
22.546	10.0
22.561	6.0
22.576	14.0
22.591	12.0
22.606	18.0
22.621	17.0
22.636	14.0
22.651	16.0
22.666	16.0
22.681	13.0
22.696	15.0
22.711	6.0
22.726	8.0
22.741	7.0
22.756	6.0
22.771	15.0
22.786	5.0
22.801	12.0
22.816	11.0
22.831	7.0
22.846	8.0
22.861	13.0
22.876	15.0
22.891	14.0
22.906	10.0
22.92	17.0
22.935	16.0
22.95	10.0
22.965	20.0
22.98	6.0
22.995	11.0
23.01	11.0
23.025	9.0
23.04	6.0
23.055	6.0
23.07	8.0
23.085	6.0
23.1	13.0
23.115	5.0
23.13	8.0
23.145	10.0
23.16	11.0
23.175	8.0
23.19	17.0
23.205	9.0
23.22	13.0
23.235	13.0
23.25	12.0
23.265	12.0
23.28	11.0
23.295	6.0
23.31	15.0
23.325	11.0
23.34	11.0
23.355	5.0
23.37	9.0
23.384	6.0
23.399	11.0
23.414	8.0
23.429	7.0
23.444	7.0
23.459	8.0
23.474	7.0
23.489	13.0
23.504	11.0
23.519	11.0
23.534	7.0
23.549	7.0
23.564	7.0
23.579	13.0
23.594	13.0
23.609	11.0
23.624	13.0
23.639	13.0
23.654	11.0
23.668	10.0
23.683	17.0
23.698	12.0
23.713	11.0
23.728	7.0
23.743	15.0
23.758	13.0
23.773	9.0
23.788	9.0
23.803	12.0
23.818	18.0
23.833	16.0
23.848	22.0
23.862	14.0
23.877	20.0
23.892	24.0
23.907	19.0
23.922	18.0
23.937	22.0
23.952	31.0
23.967	32.0
23.982	36.0
23.997	23.0
24.011	43.0
24.026	36.0
24.041	42.0
24.056	45.0
24.071	43.0
24.086	66.0
24.101	38.0
24.116	52.0
24.131	59.0
24.145	35.0
24.16	45.0
24.175	28.0
24.19	25.0
24.205	39.0
24.22	38.0
24.235	24.0
24.249	34.0
24.264	33.0
24.279	20.0
24.294	28.0
24.309	15.0
24.324	11.0
24.338	14.0
24.353	14.0
24.368	15.0
24.383	12.0
24.398	17.0
24.413	11.0
24.428	13.0
24.442	9.0
24.457	10.0
24.472	14.0
24.487	12.0
24.502	10.0
24.516	8.0
24.531	9.0
24.546	12.0
24.561	10.0
24.576	13.0
24.591	17.0
24.605	9.0
24.62	8.0
24.635	8.0
24.65	19.0
24.665	14.0
24.679	11.0
24.694	11.0
24.709	8.0
24.724	9.0
24.739	10.0
24.753	13.0
24.768	7.0
24.783	11.0
24.798	7.0
24.813	6.0
24.827	7.0
24.842	7.0
24.857	14.0
24.872	12.0
24.886	15.0
24.901	12.0
24.916	9.0
24.931	6.0
24.946	18.0
24.96	10.0
24.975	17.0
24.99	13.0
25.005	12.0
25.019	13.0
25.034	9.0
25.049	13.0
25.064	3.0
25.078	5.0
25.093	15.0
25.108	12.0
25.123	11.0
25.138	8.0
25.152	9.0
25.167	11.0
25.182	8.0
25.197	3.0
25.211	8.0
25.226	21.0
25.241	8.0
25.256	4.0
25.27	12.0
25.285	10.0
25.3	13.0
25.315	12.0
25.329	14.0
25.344	14.0
25.359	3.0
25.374	18.0
25.388	15.0
25.403	6.0
25.418	5.0
25.433	16.0
25.447	6.0
25.462	10.0
25.477	10.0
25.492	17.0
25.506	6.0
25.521	12.0
25.536	12.0
25.55	7.0
25.565	8.0
25.58	10.0
25.595	7.0
25.609	8.0
25.624	6.0
25.639	4.0
25.654	10.0
25.668	9.0
25.683	8.0
25.698	11.0
25.713	9.0
25.727	7.0
25.742	9.0
25.757	9.0
25.772	9.0
25.786	4.0
25.801	12.0
25.816	9.0
25.83	7.0
25.845	7.0
25.86	9.0
25.875	7.0
25.889	4.0
25.904	7.0
25.919	10.0
25.934	11.0
25.948	12.0
25.963	11.0
25.978	12.0
25.992	5.0
26.007	10.0
26.022	7.0
26.037	6.0
26.051	8.0
26.066	7.0
26.081	11.0
26.096	15.0
26.11	6.0
26.125	12.0
26.14	9.0
26.155	5.0
26.169	10.0
26.184	5.0
26.199	16.0
26.213	9.0
26.228	8.0
26.243	10.0
26.258	9.0
26.272	11.0
26.287	8.0
26.302	7.0
26.317	4.0
26.331	12.0
26.346	13.0
26.361	5.0
26.376	7.0
26.39	12.0
26.405	9.0
26.42	15.0
26.434	10.0
26.449	9.0
26.464	9.0
26.479	13.0
26.493	6.0
26.508	20.0
26.523	9.0
26.538	6.0
26.552	8.0
26.567	10.0
26.582	9.0
26.597	8.0
26.611	8.0
26.626	11.0
26.641	10.0
26.656	12.0
26.67	5.0
26.685	14.0
26.7	10.0
26.715	12.0
26.729	10.0
26.744	7.0
26.759	9.0
26.773	13.0
26.788	10.0
26.803	10.0
26.818	7.0
26.832	16.0
26.847	6.0
26.862	13.0
26.877	8.0
26.891	5.0
26.906	14.0
26.921	11.0
26.936	6.0
26.95	9.0
26.965	8.0
26.98	7.0
26.995	17.0
27.01	10.0
27.024	13.0
27.039	20.0
27.054	5.0
27.069	18.0
27.083	10.0
27.098	12.0
27.113	14.0
27.128	8.0
27.142	5.0
27.157	11.0
27.172	11.0
27.187	16.0
27.201	8.0
27.216	12.0
27.231	11.0
27.246	12.0
27.261	5.0
27.275	11.0
27.29	12.0
27.305	6.0
27.32	7.0
27.334	8.0
27.349	10.0
27.364	13.0
27.379	11.0
27.394	9.0
27.408	10.0
27.423	8.0
27.438	16.0
27.453	10.0
27.467	8.0
27.482	12.0
27.497	12.0
27.512	17.0
27.527	9.0
27.541	13.0
27.556	10.0
27.571	14.0
27.586	13.0
27.601	13.0
27.615	9.0
27.63	27.0
27.645	13.0
27.66	11.0
27.675	14.0
27.689	10.0
27.704	6.0
27.719	17.0
27.734	12.0
27.749	21.0
27.763	21.0
27.778	13.0
27.793	25.0
27.808	19.0
27.823	19.0
27.838	22.0
27.852	18.0
27.867	16.0
27.882	28.0
27.897	21.0
27.912	22.0
27.926	23.0
27.941	23.0
27.956	19.0
27.971	9.0
27.986	17.0
28.001	15.0
28.015	15.0
28.03	17.0
28.045	16.0
28.06	13.0
28.075	20.0
28.09	13.0
28.105	20.0
28.119	19.0
28.134	10.0
28.149	14.0
28.164	8.0
28.179	11.0
28.194	16.0
28.208	16.0
28.223	15.0
28.238	5.0
28.253	10.0
28.268	7.0
28.283	13.0
28.298	10.0
28.312	9.0
28.327	12.0
28.342	12.0
28.357	15.0
28.372	13.0
28.387	15.0
28.402	9.0
28.417	14.0
28.431	9.0
28.446	13.0
28.461	13.0
28.476	10.0
28.491	12.0
28.506	12.0
28.521	11.0
28.536	14.0
28.55	12.0
28.565	15.0
28.58	11.0
28.595	9.0
28.61	6.0
28.625	13.0
28.64	17.0
28.655	16.0
28.669	7.0
28.684	15.0
28.699	14.0
28.714	8.0
28.729	6.0
28.744	10.0
28.759	8.0
28.774	11.0
28.788	10.0
28.803	7.0
28.818	13.0
28.833	9.0
28.848	5.0
28.863	12.0
28.878	13.0
28.893	7.0
28.908	13.0
28.922	9.0
28.937	16.0
28.952	10.0
28.967	15.0
28.982	6.0
28.997	10.0
29.012	13.0
29.027	13.0
29.041	9.0
29.056	13.0
29.071	17.0
29.086	4.0
29.101	11.0
29.116	5.0
29.131	7.0
29.146	10.0
29.16	14.0
29.175	8.0
29.19	11.0
29.205	11.0
29.22	8.0
29.235	11.0
29.25	15.0
29.265	15.0
29.279	16.0
29.294	8.0
29.309	9.0
29.324	11.0
29.339	9.0
29.354	7.0
29.369	12.0
29.384	17.0
29.398	16.0
29.413	10.0
29.428	15.0
29.443	15.0
29.458	30.0
29.473	22.0
29.488	33.0
29.502	24.0
29.517	34.0
29.532	42.0
29.547	47.0
29.562	44.0
29.577	52.0
29.592	53.0
29.606	37.0
29.621	65.0
29.636	34.0
29.651	39.0
29.666	45.0
29.681	39.0
29.695	29.0
29.71	39.0
29.725	38.0
29.74	31.0
29.755	35.0
29.77	42.0
29.784	35.0
29.799	31.0
29.814	19.0
29.829	41.0
29.844	21.0
29.859	29.0
29.873	25.0
29.888	19.0
29.903	16.0
29.918	9.0
29.933	22.0
29.947	16.0
29.962	10.0
29.977	16.0
29.992	16.0
30.007	14.0
30.021	14.0
30.036	13.0
30.051	11.0
30.066	18.0
30.081	7.0
30.095	8.0
30.11	16.0
30.125	12.0
30.14	13.0
30.155	12.0
30.169	14.0
30.184	14.0
30.199	9.0
30.214	11.0
30.228	11.0
30.243	9.0
30.258	5.0
30.273	13.0
30.288	14.0
30.302	12.0
30.317	14.0
30.332	16.0
30.347	11.0
30.361	9.0
30.376	8.0
30.391	13.0
30.406	6.0
30.42	18.0
30.435	9.0
30.45	8.0
30.465	18.0
30.479	9.0
30.494	10.0
30.509	9.0
30.524	11.0
30.538	9.0
30.553	10.0
30.568	5.0
30.583	9.0
30.597	15.0
30.612	16.0
30.627	11.0
30.641	5.0
30.656	7.0
30.671	10.0
30.686	12.0
30.7	5.0
30.715	9.0
30.73	12.0
30.745	14.0
30.759	7.0
30.774	10.0
30.789	8.0
30.803	9.0
30.818	5.0
30.833	20.0
30.848	8.0
30.862	6.0
30.877	10.0
30.892	9.0
30.906	10.0
30.921	10.0
30.936	12.0
30.951	14.0
30.965	14.0
30.98	9.0
30.995	12.0
31.009	16.0
31.024	9.0
31.039	11.0
31.053	16.0
31.068	11.0
31.083	13.0
31.098	14.0
31.112	16.0
31.127	24.0
31.142	27.0
31.156	25.0
31.171	25.0
31.186	26.0
31.2	33.0
31.215	25.0
31.23	26.0
31.245	37.0
31.259	35.0
31.274	26.0
31.289	29.0
31.303	26.0
31.318	31.0
31.333	29.0
31.347	28.0
31.362	18.0
31.377	26.0
31.392	20.0
31.406	31.0
31.421	29.0
31.436	23.0
31.45	27.0
31.465	26.0
31.48	16.0
31.494	26.0
31.509	21.0
31.524	15.0
31.538	17.0
31.553	11.0
31.568	15.0
31.583	7.0
31.597	8.0
31.612	16.0
31.627	15.0
31.641	8.0
31.656	15.0
31.671	10.0
31.685	8.0
31.7	10.0
31.715	15.0
31.729	9.0
31.744	8.0
31.759	8.0
31.774	13.0
31.788	14.0
31.803	8.0
31.818	9.0
31.832	10.0
31.847	17.0
31.862	5.0
31.876	12.0
31.891	4.0
31.906	12.0
31.92	15.0
31.935	8.0
31.95	13.0
31.965	9.0
31.979	13.0
31.994	15.0
32.009	6.0
32.023	15.0
32.038	9.0
32.053	13.0
32.067	8.0
32.082	7.0
32.097	14.0
32.112	8.0
32.126	8.0
32.141	15.0
32.156	9.0
32.17	10.0
32.185	6.0
32.2	11.0
32.214	10.0
32.229	8.0
32.244	8.0
32.259	10.0
32.273	13.0
32.288	7.0
32.303	10.0
32.317	14.0
32.332	7.0
32.347	11.0
32.362	8.0
32.376	15.0
32.391	11.0
32.406	10.0
32.42	12.0
32.435	11.0
32.45	11.0
32.465	10.0
32.479	10.0
32.494	8.0
32.509	6.0
32.523	8.0
32.538	7.0
32.553	10.0
32.568	17.0
32.582	6.0
32.597	5.0
32.612	21.0
32.627	12.0
32.641	17.0
32.656	13.0
32.671	10.0
32.685	12.0
32.7	18.0
32.715	20.0
32.73	11.0
32.744	16.0
32.759	24.0
32.774	25.0
32.788	24.0
32.803	29.0
32.818	26.0
32.833	37.0
32.847	19.0
32.862	23.0
32.877	21.0
32.892	21.0
32.906	27.0
32.921	9.0
32.936	17.0
32.951	18.0
32.965	26.0
32.98	14.0
32.995	26.0
33.009	18.0
33.024	23.0
33.039	21.0
33.054	14.0
33.068	15.0
33.083	16.0
33.098	16.0
33.113	18.0
33.127	13.0
33.142	9.0
33.157	12.0
33.172	6.0
33.186	10.0
33.201	5.0
33.216	6.0
33.231	12.0
33.245	6.0
33.26	7.0
33.275	10.0
33.29	7.0
33.304	6.0
33.319	7.0
33.334	8.0
33.349	10.0
33.363	9.0
33.378	10.0
33.393	14.0
33.408	6.0
33.422	9.0
33.437	10.0
33.452	9.0
33.467	9.0
33.481	13.0
33.496	3.0
33.511	10.0
33.526	9.0
33.54	11.0
33.555	8.0
33.57	8.0
33.585	4.0
33.599	11.0
33.614	20.0
33.629	15.0
33.644	11.0
33.658	7.0
33.673	6.0
33.688	8.0
33.703	6.0
33.718	10.0
33.732	14.0
33.747	10.0
33.762	16.0
33.777	6.0
33.791	8.0
33.806	7.0
33.821	3.0
33.836	6.0
33.85	6.0
33.865	6.0
33.88	3.0
33.895	6.0
33.91	18.0
33.924	8.0
33.939	10.0
33.954	5.0
33.969	12.0
33.983	8.0
33.998	9.0
34.013	5.0
34.028	16.0
34.042	6.0
34.057	10.0
34.072	14.0
34.087	5.0
34.102	13.0
34.116	9.0
34.131	4.0
34.146	15.0
34.161	13.0
34.175	8.0
34.19	12.0
34.205	8.0
34.22	12.0
34.235	11.0
34.249	13.0
34.264	11.0
34.279	14.0
34.294	21.0
34.309	26.0
34.323	12.0
34.338	9.0
34.353	13.0
34.368	9.0
34.382	12.0
34.397	16.0
34.412	18.0
34.427	14.0
34.442	16.0
34.456	11.0
34.471	18.0
34.486	11.0
34.501	12.0
34.516	10.0
34.53	11.0
34.545	10.0
34.56	14.0
34.575	6.0
34.59	12.0
34.604	11.0
34.619	7.0
34.634	5.0
34.649	8.0
34.664	11.0
34.678	10.0
34.693	9.0
34.708	5.0
34.723	7.0
34.738	11.0
34.752	6.0
34.767	9.0
34.782	8.0
34.797	10.0
34.812	12.0
34.826	3.0
34.841	10.0
34.856	15.0
34.871	5.0
34.886	8.0
34.9	12.0
34.915	7.0
34.93	8.0
34.945	7.0
34.96	6.0
34.974	5.0
34.989	6.0
35.004	6.0
35.019	2.0
35.034	11.0
35.048	9.0
35.063	5.0
35.078	9.0
35.093	8.0
35.108	7.0
35.122	9.0
35.137	6.0
35.152	7.0
35.167	14.0
35.182	8.0
35.196	8.0
35.211	8.0
35.226	7.0
35.241	7.0
35.256	9.0
35.27	8.0
35.285	6.0
35.3	10.0
35.315	9.0
35.33	7.0
35.344	9.0
35.359	6.0
35.374	6.0
35.389	5.0
35.404	5.0
35.418	5.0
35.433	5.0
35.448	12.0
35.463	7.0
35.478	5.0
35.493	13.0
35.507	10.0
35.522	8.0
35.537	3.0
35.552	7.0
35.567	13.0
35.581	12.0
35.596	9.0
35.611	8.0
35.626	13.0
35.641	9.0
35.655	12.0
35.67	14.0
35.685	7.0
35.7	15.0
35.715	29.0
35.729	21.0
35.744	13.0
35.759	25.0
35.774	25.0
35.789	24.0
35.804	25.0
35.818	12.0
35.833	18.0
35.848	16.0
35.863	11.0
35.878	15.0
35.892	11.0
35.907	18.0
35.922	9.0
35.937	19.0
35.952	17.0
35.966	17.0
35.981	17.0
35.996	13.0
36.011	10.0
36.026	10.0
36.04	15.0
36.055	16.0
36.07	12.0
36.085	11.0
36.1	9.0
36.114	11.0
36.129	12.0
36.144	12.0
36.159	12.0
36.174	5.0
36.189	14.0
36.203	10.0
36.218	10.0
36.233	6.0
36.248	9.0
36.263	5.0
36.277	5.0
36.292	10.0
36.307	10.0
36.322	6.0
36.337	6.0
36.351	10.0
36.366	9.0
36.381	6.0
36.396	9.0
36.411	6.0
36.426	4.0
36.44	7.0
36.455	11.0
36.47	8.0
36.485	7.0
36.5	8.0
36.514	14.0
36.529	5.0
36.544	13.0
36.559	4.0
36.574	6.0
36.589	5.0
36.603	7.0
36.618	7.0
36.633	5.0
36.648	12.0
36.663	8.0
36.677	8.0
36.692	6.0
36.707	11.0
36.722	5.0
36.737	5.0
36.752	6.0
36.766	7.0
36.781	13.0
36.796	5.0
36.811	11.0
36.826	6.0
36.841	6.0
36.855	9.0
36.87	9.0
36.885	3.0
36.9	9.0
36.915	8.0
36.93	12.0
36.944	12.0
36.959	10.0
36.974	13.0
36.989	8.0
37.004	9.0
37.019	13.0
37.033	7.0
37.048	11.0
37.063	16.0
37.078	14.0
37.093	16.0
37.108	27.0
37.123	19.0
37.137	31.0
37.152	23.0
37.167	31.0
37.182	28.0
37.197	21.0
37.212	17.0
37.226	31.0
37.241	19.0
37.256	25.0
37.271	17.0
37.286	25.0
37.301	14.0
37.316	15.0
37.331	9.0
37.345	15.0
37.36	12.0
37.375	20.0
37.39	17.0
37.405	22.0
37.42	13.0
37.435	21.0
37.45	20.0
37.464	12.0
37.479	7.0
37.494	10.0
37.509	4.0
37.524	6.0
37.539	8.0
37.554	11.0
37.569	7.0
37.583	8.0
37.598	6.0
37.613	6.0
37.628	5.0
37.643	8.0
37.658	4.0
37.673	7.0
37.688	3.0
37.703	4.0
37.718	9.0
37.733	8.0
37.747	6.0
37.762	7.0
37.777	6.0
37.792	9.0
37.807	8.0
37.822	6.0
37.837	5.0
37.852	9.0
37.867	11.0
37.882	6.0
37.897	5.0
37.912	5.0
37.927	5.0
37.941	5.0
37.956	6.0
37.971	2.0
37.986	6.0
38.001	13.0
38.016	6.0
38.031	4.0
38.046	8.0
38.061	9.0
38.076	10.0
38.091	5.0
38.106	9.0
38.121	8.0
38.136	6.0
38.151	8.0
38.166	6.0
38.181	6.0
38.196	5.0
38.211	4.0
38.226	6.0
38.241	6.0
38.256	2.0
38.271	1.0
38.285	7.0
38.3	8.0
38.315	5.0
38.33	10.0
38.345	3.0
38.36	10.0
38.375	9.0
38.39	6.0
38.405	9.0
38.42	4.0
38.435	7.0
38.45	3.0
38.465	5.0
38.48	13.0
38.495	3.0
38.51	6.0
38.525	11.0
38.54	5.0
38.555	7.0
38.57	8.0
38.585	5.0
38.6	9.0
38.615	4.0
38.63	7.0
38.645	10.0
38.66	7.0
38.675	7.0
38.69	5.0
38.705	7.0
38.72	4.0
38.735	4.0
38.75	8.0
38.765	7.0
38.78	9.0
38.795	9.0
38.81	5.0
38.825	4.0
38.84	6.0
38.855	4.0
38.87	4.0
38.885	5.0
38.9	4.0
38.915	4.0
38.93	4.0
38.945	8.0
38.96	8.0
38.975	15.0
38.99	9.0
39.005	1.0
39.02	4.0
39.035	8.0
39.05	7.0
39.065	5.0
39.08	11.0
39.095	4.0
39.11	4.0
39.125	4.0
39.14	1.0
39.155	2.0
39.17	8.0
39.185	5.0
39.2	4.0
39.215	8.0
39.23	2.0
39.245	9.0
39.26	5.0
39.275	8.0
39.29	9.0
39.305	9.0
39.32	7.0
39.335	8.0
39.35	10.0
39.365	6.0
39.38	8.0
39.395	3.0
39.409	3.0
39.424	6.0
39.439	1.0
39.454	10.0
39.469	2.0
39.484	5.0
39.499	5.0
39.514	5.0
39.529	5.0
39.544	5.0
39.559	8.0
39.574	8.0
39.589	4.0
39.604	9.0
39.619	5.0
39.634	6.0
39.649	5.0
39.664	8.0
39.678	4.0
39.693	7.0
39.708	4.0
39.723	6.0
39.738	4.0
39.753	9.0
39.768	9.0
39.783	6.0
39.798	7.0
39.813	6.0
39.827	7.0
39.842	6.0
39.857	6.0
39.872	9.0
39.887	9.0
39.902	10.0
39.917	13.0
39.932	7.0
39.947	12.0
39.961	4.0
39.976	6.0
39.991	3.0
40.006	9.0
40.021	6.0
40.036	13.0
40.051	6.0
40.065	7.0
40.08	10.0
40.095	11.0
40.11	6.0
40.125	9.0
40.14	9.0
40.154	11.0
40.169	7.0
40.184	5.0
40.199	7.0
40.214	2.0
40.228	3.0
40.243	2.0
40.258	6.0
40.273	8.0
40.288	6.0
40.302	6.0
40.317	7.0
40.332	8.0
40.347	5.0
40.362	6.0
40.376	6.0
40.391	4.0
40.406	2.0
40.421	6.0
40.436	4.0
40.45	6.0
40.465	5.0
40.48	5.0
40.495	6.0
40.509	4.0
40.524	7.0
40.539	8.0
40.554	6.0
40.568	4.0
40.583	4.0
40.598	7.0
40.613	5.0
40.627	3.0
40.642	3.0
40.657	10.0
40.672	6.0
40.686	5.0
40.701	7.0
40.716	8.0
40.731	8.0
40.745	7.0
40.76	5.0
40.775	12.0
40.79	10.0
40.804	7.0
40.819	6.0
40.834	10.0
40.849	8.0
40.863	8.0
40.878	5.0
40.893	5.0
40.907	6.0
40.922	7.0
40.937	6.0
40.952	10.0
40.966	15.0
40.981	9.0
40.996	13.0
41.011	8.0
41.025	8.0
41.04	13.0
41.055	10.0
41.069	20.0
41.084	14.0
41.099	17.0
41.114	22.0
41.128	11.0
41.143	20.0
41.158	10.0
41.173	15.0
41.187	19.0
41.202	11.0
41.217	15.0
41.231	17.0
41.246	13.0
41.261	15.0
41.276	13.0
41.29	9.0
41.305	9.0
41.32	13.0
41.335	16.0
41.349	12.0
41.364	13.0
41.379	14.0
41.393	14.0
41.408	15.0
41.423	16.0
41.438	15.0
41.452	11.0
41.467	14.0
41.482	8.0
41.497	7.0
41.511	4.0
41.526	3.0
41.541	5.0
41.556	9.0
41.57	6.0
41.585	3.0
41.6	4.0
41.615	5.0
41.629	6.0
41.644	5.0
41.659	5.0
41.674	7.0
41.688	4.0
41.703	2.0
41.718	7.0
41.733	5.0
41.747	8.0
41.762	6.0
41.777	6.0
41.792	3.0
41.806	8.0
41.821	6.0
41.836	9.0
41.851	5.0
41.866	3.0
41.88	6.0
41.895	6.0
41.91	6.0
41.925	6.0
41.939	8.0
41.954	7.0
41.969	3.0
41.984	3.0
41.999	4.0
42.013	2.0
42.028	9.0
42.043	8.0
42.058	2.0
42.073	6.0
42.088	3.0
42.102	9.0
42.117	2.0
42.132	12.0
42.147	9.0
42.162	8.0
42.176	5.0
42.191	4.0
42.206	3.0
42.221	6.0
42.236	13.0
42.251	9.0
42.266	10.0
42.28	16.0
42.295	7.0
42.31	9.0
42.325	19.0
42.34	10.0
42.355	9.0
42.369	17.0
42.384	18.0
42.399	14.0
42.414	19.0
42.429	17.0
42.444	12.0
42.459	11.0
42.474	14.0
42.488	13.0
42.503	16.0
42.518	9.0
42.533	6.0
42.548	10.0
42.563	10.0
42.578	10.0
42.593	10.0
42.608	15.0
42.622	6.0
42.637	11.0
42.652	10.0
42.667	13.0
42.682	17.0
42.697	12.0
42.712	11.0
42.727	13.0
42.742	12.0
42.757	6.0
42.772	8.0
42.786	8.0
42.801	6.0
42.816	7.0
42.831	9.0
42.846	7.0
42.861	6.0
42.876	4.0
42.891	5.0
42.906	4.0
42.921	3.0
42.936	4.0
42.951	6.0
42.966	7.0
42.981	5.0
42.996	8.0
43.011	6.0
43.025	6.0
43.04	6.0
43.055	3.0
43.07	3.0
43.085	4.0
43.1	2.0
43.115	7.0
43.13	7.0
43.145	5.0
43.16	0.0
43.175	1.0
43.19	2.0
43.205	7.0
43.22	4.0
43.235	6.0
43.25	3.0
43.265	9.0
43.28	6.0
43.295	5.0
43.31	3.0
43.325	3.0
43.34	4.0
43.355	8.0
43.37	6.0
43.385	5.0
43.4	8.0
43.415	3.0
43.43	5.0
43.445	3.0
43.46	4.0
43.475	2.0
43.49	7.0
43.505	6.0
43.52	9.0
43.535	6.0
43.55	8.0
43.565	5.0
43.58	5.0
43.595	8.0
43.61	11.0
43.625	13.0
43.64	13.0
43.655	9.0
43.67	6.0
43.685	8.0
43.7	8.0
43.715	7.0
43.73	6.0
43.745	3.0
43.76	5.0
43.775	2.0
43.79	7.0
43.805	5.0
43.82	7.0
43.835	5.0
43.85	7.0
43.865	3.0
43.88	7.0
43.895	7.0
43.91	7.0
43.925	6.0
43.94	8.0
43.955	11.0
43.97	6.0
43.985	1.0
44.0	5.0
44.015	6.0
44.03	4.0
44.045	4.0
44.061	7.0
44.076	4.0
44.091	4.0
44.106	3.0
44.121	7.0
44.136	4.0
44.151	6.0
44.166	5.0
44.181	6.0
44.196	10.0
44.211	4.0
44.226	7.0
44.241	2.0
44.256	4.0
44.271	6.0
44.286	3.0
44.301	3.0
44.316	3.0
44.331	9.0
44.346	0.0
44.361	7.0
44.377	3.0
44.392	9.0
44.407	4.0
44.422	8.0
44.437	6.0
44.452	7.0
44.467	3.0
44.482	3.0
44.497	2.0
44.512	7.0
44.527	5.0
44.542	4.0
44.557	8.0
44.572	3.0
44.587	8.0
44.602	6.0
44.617	5.0
44.632	11.0
44.647	3.0
44.663	10.0
44.678	4.0
44.693	9.0
44.708	9.0
44.723	9.0
44.738	2.0
44.753	7.0
44.768	10.0
44.783	9.0
44.798	11.0
44.813	8.0
44.828	7.0
44.843	12.0
44.858	13.0
44.873	7.0
44.888	16.0
44.903	6.0
44.918	10.0
44.933	6.0
44.948	7.0
44.964	8.0
44.979	7.0
44.994	4.0
45.009	6.0
45.024	9.0
45.039	10.0
45.054	5.0
45.069	7.0
45.084	7.0
45.099	7.0
45.114	5.0
45.129	9.0
45.144	8.0
45.159	7.0
45.174	8.0
45.189	4.0
45.204	8.0
45.219	4.0
45.234	7.0
45.249	3.0
45.264	3.0
45.279	3.0
45.294	5.0
45.309	4.0
45.324	2.0
45.339	9.0
45.354	4.0
45.369	4.0
45.384	3.0
45.399	4.0
45.414	5.0
45.429	1.0
45.444	3.0
45.459	4.0
45.474	3.0
45.489	6.0
45.504	5.0
45.519	7.0
45.534	5.0
45.549	3.0
45.564	5.0
45.579	4.0
45.594	6.0
45.609	2.0
45.624	10.0
45.639	5.0
45.654	6.0
45.669	6.0
45.684	4.0
45.699	4.0
45.714	6.0
45.729	4.0
45.744	5.0
45.759	10.0
45.774	4.0
45.789	8.0
45.804	6.0
45.819	10.0
45.834	7.0
45.849	11.0
45.864	6.0
45.879	7.0
45.894	7.0
45.909	9.0
45.924	14.0
45.939	12.0
45.954	16.0
45.969	20.0
45.984	14.0
45.998	16.0
46.013	14.0
46.028	13.0
46.043	13.0
46.058	14.0
46.073	9.0
46.088	8.0
46.103	8.0
46.118	10.0
46.133	4.0
46.148	7.0
46.163	7.0
46.178	9.0
46.192	10.0
46.207	8.0
46.222	7.0
46.237	10.0
46.252	10.0
46.267	15.0
46.282	10.0
46.297	11.0
46.312	13.0
46.327	12.0
46.341	13.0
46.356	8.0
46.371	5.0
46.386	5.0
46.401	9.0
46.416	5.0
46.431	7.0
46.446	5.0
46.46	4.0
46.475	5.0
46.49	3.0
46.505	3.0
46.52	5.0
46.535	2.0
46.55	3.0
46.564	2.0
46.579	5.0
46.594	4.0
46.609	7.0
46.624	10.0
46.639	4.0
46.654	3.0
46.668	5.0
46.683	8.0
46.698	0.0
46.713	1.0
46.728	6.0
46.743	9.0
46.758	8.0
46.772	6.0
46.787	0.0
46.802	9.0
46.817	0.0
46.832	3.0
46.847	3.0
46.861	6.0
46.876	5.0
46.891	9.0
46.906	6.0
46.921	4.0
46.936	7.0
46.95	1.0
46.965	7.0
46.98	7.0
46.995	4.0
47.01	6.0
47.025	5.0
47.039	10.0
47.054	3.0
47.069	5.0
47.084	6.0
47.099	6.0
47.113	8.0
47.128	7.0
47.143	6.0
47.158	12.0
47.173	14.0
47.188	13.0
47.202	10.0
47.217	8.0
47.232	6.0
47.247	2.0
47.262	2.0
47.277	5.0
47.291	1.0
47.306	6.0
47.321	10.0
47.336	6.0
47.351	3.0
47.365	11.0
47.38	3.0
47.395	6.0
47.41	8.0
47.425	8.0
47.44	11.0
47.454	6.0
47.469	8.0
47.484	7.0
47.499	10.0
47.514	5.0
47.528	5.0
47.543	2.0
47.558	5.0
47.573	7.0
47.588	4.0
47.603	9.0
47.617	5.0
47.632	6.0
47.647	5.0
47.662	5.0
47.677	6.0
47.691	4.0
47.706	5.0
47.721	4.0
47.736	3.0
47.751	4.0
47.766	2.0
47.78	2.0
47.795	3.0
47.81	2.0
47.825	3.0
47.84	6.0
47.855	4.0
47.869	4.0
47.884	12.0
47.899	4.0
47.914	4.0
47.929	2.0
47.944	3.0
47.958	5.0
47.973	4.0
47.988	5.0
48.003	3.0
48.018	6.0
48.033	5.0
48.047	4.0
48.062	5.0
48.077	4.0
48.092	1.0
48.107	3.0
48.122	5.0
48.137	3.0
48.151	7.0
48.166	4.0
48.181	2.0
48.196	7.0
48.211	7.0
48.226	6.0
48.241	2.0
48.255	4.0
48.27	5.0
48.285	4.0
48.3	4.0
48.315	5.0
48.33	3.0
48.345	3.0
48.359	2.0
48.374	2.0
48.389	8.0
48.404	5.0
48.419	4.0
48.434	4.0
48.449	1.0
48.464	8.0
48.478	4.0
48.493	3.0
48.508	4.0
48.523	7.0
48.538	3.0
48.553	8.0
48.568	7.0
48.583	5.0
48.597	6.0
48.612	5.0
48.627	5.0
48.642	2.0
48.657	3.0
48.672	3.0
48.687	4.0
48.702	5.0
48.717	5.0
48.731	2.0
48.746	4.0
48.761	7.0
48.776	6.0
48.791	4.0
48.806	2.0
48.821	5.0
48.836	8.0
48.851	3.0
48.866	5.0
48.88	1.0
48.895	2.0
48.91	1.0
48.925	4.0
48.94	5.0
48.955	4.0
48.97	2.0
48.985	3.0
49.0	5.0
49.015	3.0
49.03	5.0
49.044	3.0
49.059	6.0
49.074	2.0
49.089	3.0
49.104	7.0
49.119	6.0
49.134	4.0
49.149	3.0
49.164	8.0
49.179	3.0
49.194	5.0
49.209	5.0
49.224	7.0
49.238	3.0
49.253	4.0
49.268	6.0
49.283	10.0
49.298	9.0
49.313	8.0
49.328	12.0
49.343	4.0
49.358	6.0
49.373	6.0
49.388	3.0
49.403	14.0
49.418	13.0
49.433	5.0
49.448	6.0
49.463	3.0
49.478	4.0
49.492	8.0
49.507	8.0
49.522	3.0
49.537	9.0
49.552	10.0
49.567	1.0
49.582	7.0
49.597	3.0
49.612	5.0
49.627	8.0
49.642	11.0
49.657	9.0
49.672	11.0
49.687	6.0
49.702	10.0
49.717	7.0
49.732	8.0
49.747	6.0
49.762	6.0
49.777	3.0
49.792	8.0
49.807	4.0
49.822	4.0
49.837	2.0
49.852	7.0
49.867	3.0
49.882	4.0
49.897	2.0
49.912	5.0
49.927	5.0
49.942	2.0
49.957	4.0
49.971	6.0
49.986	6.0
50.001	4.0
50.016	1.0
50.031	3.0
50.046	2.0
50.061	4.0
50.076	4.0
50.091	3.0
50.106	8.0
50.121	4.0
50.136	8.0
50.151	5.0
50.166	0.0
50.181	8.0
50.196	5.0
50.211	3.0
50.226	2.0
50.241	2.0
50.256	4.0
50.271	2.0
50.286	7.0
50.302	7.0
50.317	5.0
50.332	7.0
50.347	4.0
50.362	7.0
50.377	8.0
50.392	5.0
50.407	9.0
50.422	9.0
50.437	4.0
50.452	6.0
50.467	5.0
50.482	8.0
50.497	7.0
50.512	14.0
50.527	5.0
50.542	6.0
50.557	4.0
50.572	5.0
50.587	8.0
50.602	7.0
50.617	3.0
50.632	5.0
50.647	8.0
50.662	8.0
50.677	2.0
50.692	10.0
50.707	4.0
50.722	8.0
50.737	12.0
50.752	8.0
50.767	5.0
50.782	4.0
50.797	5.0
50.812	10.0
50.828	8.0
50.843	5.0
50.858	4.0
50.873	1.0
50.888	3.0
50.903	3.0
50.918	8.0
50.933	7.0
50.948	2.0
50.963	7.0
50.978	6.0
50.993	4.0
51.008	5.0
51.023	2.0
51.038	1.0
51.053	10.0
51.068	3.0
51.083	3.0
51.098	6.0
51.114	8.0
51.129	4.0
51.144	5.0
51.159	4.0
51.174	8.0
51.189	4.0
51.204	6.0
51.219	2.0
51.234	4.0
51.249	3.0
51.264	2.0
51.279	4.0
51.294	5.0
51.309	2.0
51.324	6.0
51.34	6.0
51.355	5.0
51.37	9.0
51.385	8.0
51.4	8.0
51.415	8.0
51.43	11.0
51.445	14.0
51.46	13.0
51.475	13.0
51.49	13.0
51.505	19.0
51.52	11.0
51.535	15.0
51.551	10.0
51.566	10.0
51.581	10.0
51.596	9.0
51.611	15.0
51.626	9.0
51.641	10.0
51.656	12.0
51.671	9.0
51.686	4.0
51.701	7.0
51.716	12.0
51.732	4.0
51.747	7.0
51.762	6.0
51.777	7.0
51.792	8.0
51.807	9.0
51.822	7.0
51.837	10.0
51.852	18.0
51.867	17.0
51.882	9.0
51.898	6.0
51.913	10.0
51.928	5.0
51.943	7.0
51.958	2.0
51.973	9.0
51.988	6.0
52.003	4.0
52.018	2.0
52.033	5.0
52.048	3.0
52.064	5.0
52.079	9.0
52.094	8.0
52.109	6.0
52.124	9.0
52.139	11.0
52.154	7.0
52.169	8.0
52.184	5.0
52.199	9.0
52.215	2.0
52.23	7.0
52.245	3.0
52.26	7.0
52.275	4.0
52.29	1.0
52.305	4.0
52.32	3.0
52.335	2.0
52.35	4.0
52.366	3.0
52.381	4.0
52.396	7.0
52.411	4.0
52.426	2.0
52.441	7.0
52.456	8.0
52.471	7.0
52.486	10.0
52.502	6.0
52.517	7.0
52.532	11.0
52.547	9.0
52.562	8.0
52.577	13.0
52.592	11.0
52.607	4.0
52.622	8.0
52.637	2.0
52.653	8.0
52.668	4.0
52.683	8.0
52.698	2.0
52.713	10.0
52.728	8.0
52.743	7.0
52.758	7.0
52.774	5.0
52.789	10.0
52.804	8.0
52.819	5.0
52.834	5.0
52.849	3.0
52.864	2.0
52.879	10.0
52.894	7.0
52.91	9.0
52.925	7.0
52.94	10.0
52.955	6.0
52.97	3.0
52.985	7.0
53.0	7.0
53.015	8.0
53.031	4.0
53.046	2.0
53.061	3.0
53.076	4.0
53.091	3.0
53.106	6.0
53.121	5.0
53.136	3.0
53.152	7.0
53.167	4.0
53.182	4.0
53.197	3.0
53.212	8.0
53.227	3.0
53.242	4.0
53.257	6.0
53.273	6.0
53.288	6.0
53.303	2.0
53.318	3.0
53.333	5.0
53.348	6.0
53.363	6.0
53.379	9.0
53.394	5.0
53.409	2.0
53.424	6.0
53.439	5.0
53.454	4.0
53.469	5.0
53.484	5.0
53.5	2.0
53.515	2.0
53.53	6.0
53.545	2.0
53.56	4.0
53.575	2.0
53.59	4.0
53.606	3.0
53.621	3.0
53.636	1.0
53.651	5.0
53.666	5.0
53.681	4.0
53.696	6.0
53.712	7.0
53.727	4.0
53.742	2.0
53.757	3.0
53.772	2.0
53.787	3.0
53.802	6.0
53.818	4.0
53.833	7.0
53.848	6.0
53.863	4.0
53.878	6.0
53.893	7.0
53.909	4.0
53.924	4.0
53.939	5.0
53.954	3.0
53.969	4.0
53.984	4.0
53.999	5.0
54.015	5.0
54.03	10.0
54.045	1.0
54.06	5.0
54.075	6.0
54.09	7.0
54.106	4.0
54.121	5.0
54.136	2.0
54.151	1.0
54.166	6.0
54.181	7.0
54.197	5.0
54.212	3.0
54.227	4.0
54.242	8.0
54.257	4.0
54.272	5.0
54.288	9.0
54.303	7.0
54.318	7.0
54.333	1.0
54.348	3.0
54.363	3.0
54.379	5.0
54.394	5.0
54.409	5.0
54.424	5.0
54.439	5.0
54.454	5.0
54.47	5.0
54.485	6.0
54.5	3.0
54.515	12.0
54.53	7.0
54.545	10.0
54.561	9.0
54.576	10.0
54.591	8.0
54.606	9.0
54.621	7.0
54.636	10.0
54.652	12.0
54.667	9.0
54.682	20.0
54.697	14.0
54.712	14.0
54.727	4.0
54.743	7.0
54.758	5.0
54.773	6.0
54.788	2.0
54.803	4.0
54.819	7.0
54.834	7.0
54.849	7.0
54.864	5.0
54.879	6.0
54.894	3.0
54.91	3.0
54.925	4.0
54.94	9.0
54.955	9.0
54.97	8.0
54.985	6.0
55.001	11.0
55.016	14.0
55.031	7.0
55.046	3.0
55.061	7.0
55.077	11.0
55.092	8.0
55.107	5.0
55.122	8.0
55.137	5.0
55.152	4.0
55.168	6.0
55.183	9.0
55.198	3.0
55.213	4.0
55.228	5.0
55.243	2.0
55.259	9.0
55.274	6.0
55.289	8.0
55.304	2.0
55.319	3.0
55.335	5.0
55.35	12.0
55.365	2.0
55.38	6.0
55.395	7.0
55.41	3.0
55.426	3.0
55.441	4.0
55.456	3.0
55.471	4.0
55.486	4.0
55.501	2.0
55.517	7.0
55.532	4.0
55.547	4.0
55.562	4.0
55.577	6.0
55.592	5.0
55.608	4.0
55.623	8.0
55.638	0.0
55.653	10.0
55.668	10.0
55.683	4.0
55.699	9.0
55.714	8.0
55.729	1.0
55.744	7.0
55.759	4.0
55.774	4.0
55.79	13.0
55.805	5.0
55.82	7.0
55.835	5.0
55.85	4.0
55.865	3.0
55.881	5.0
55.896	3.0
55.911	7.0
55.926	8.0
55.941	4.0
55.956	10.0
55.972	6.0
55.987	5.0
56.002	6.0
56.017	6.0
56.032	8.0
56.047	6.0
56.063	5.0
56.078	7.0
56.093	6.0
56.108	1.0
56.123	6.0
56.138	7.0
56.154	5.0
56.169	6.0
56.184	5.0
56.199	5.0
56.214	6.0
56.229	2.0
56.244	4.0
56.26	2.0
56.275	7.0
56.29	7.0
56.305	5.0
56.32	3.0
56.335	6.0
56.351	7.0
56.366	5.0
56.381	6.0
56.396	4.0
56.411	7.0
56.426	8.0
56.441	3.0
56.457	3.0
56.472	4.0
56.487	4.0
56.502	5.0
56.517	5.0
56.532	7.0
56.547	4.0
56.563	2.0
56.578	5.0
56.593	3.0
56.608	4.0
56.623	8.0
56.638	11.0
56.653	4.0
56.668	3.0
56.684	3.0
56.699	4.0
56.714	6.0
56.729	4.0
56.744	6.0
56.759	4.0
56.774	2.0
56.79	2.0
56.805	9.0
56.82	4.0
56.835	6.0
56.85	5.0
56.865	9.0
56.88	3.0
56.895	4.0
56.911	4.0
56.926	5.0
56.941	3.0
56.956	3.0
56.971	1.0
56.986	3.0
57.001	1.0
57.016	3.0
57.031	4.0
57.047	7.0
57.062	0.0
57.077	5.0
57.092	4.0
57.107	3.0
57.122	7.0
57.137	2.0
57.152	0.0
57.167	6.0
57.183	3.0
57.198	4.0
57.213	3.0
57.228	7.0
57.243	4.0
57.258	4.0
57.273	2.0
57.288	2.0
57.303	0.0
57.318	3.0
57.334	7.0
57.349	3.0
57.364	1.0
57.379	5.0
57.394	2.0
57.409	7.0
57.424	1.0
57.439	5.0
57.454	4.0
57.469	5.0
57.484	4.0
57.5	4.0
57.515	8.0
57.53	4.0
57.545	6.0
57.56	3.0
57.575	6.0
57.59	3.0
57.605	7.0
57.62	3.0
57.635	5.0
57.65	9.0
57.665	5.0
57.68	6.0
57.696	8.0
57.711	6.0
57.726	7.0
57.741	1.0
57.756	5.0
57.771	3.0
57.786	3.0
57.801	4.0
57.816	9.0
57.831	7.0
57.846	6.0
57.861	1.0
57.876	4.0
57.891	1.0
57.906	3.0
57.921	4.0
57.937	6.0
57.952	5.0
57.967	3.0
57.982	6.0
57.997	5.0
58.012	8.0
58.027	2.0
58.042	7.0
58.057	8.0
58.072	7.0
58.087	4.0
58.102	3.0
58.117	2.0
58.132	5.0
58.147	6.0
58.162	3.0
58.177	6.0
58.192	3.0
58.207	3.0
58.222	3.0
58.237	6.0
58.252	5.0
58.267	2.0
58.282	6.0
58.297	2.0
58.312	6.0
58.327	5.0
58.342	5.0
58.357	4.0
58.372	3.0
58.387	1.0
58.402	9.0
58.418	3.0
58.433	5.0
58.448	6.0
58.463	5.0
58.478	9.0
58.493	4.0
58.508	5.0
58.523	5.0
58.538	6.0
58.553	2.0
58.568	9.0
58.583	8.0
58.598	10.0
58.613	7.0
58.628	9.0
58.643	7.0
58.658	9.0
58.673	8.0
58.688	11.0
58.703	8.0
58.718	16.0
58.733	5.0
58.748	8.0
58.763	4.0
58.778	7.0
58.793	4.0
58.808	4.0
58.823	6.0
58.838	0.0
58.853	5.0
58.868	3.0
58.883	3.0
58.898	5.0
58.913	3.0
58.928	5.0
58.942	5.0
58.957	8.0
58.972	8.0
58.987	5.0
59.002	4.0
59.017	7.0
59.032	10.0
59.047	7.0
59.062	6.0
59.077	10.0
59.092	6.0
59.107	0.0
59.122	4.0
59.137	6.0
59.152	2.0
59.167	2.0
59.182	6.0
59.197	3.0
59.212	6.0
59.227	6.0
59.242	4.0
59.257	2.0
59.272	4.0
59.287	4.0
59.302	1.0
59.317	5.0
59.332	11.0
59.347	1.0
59.362	4.0
59.377	3.0
59.392	2.0
59.407	3.0
59.422	5.0
59.437	5.0
59.452	4.0
59.467	6.0
59.482	0.0
59.497	11.0
59.512	7.0
59.527	6.0
59.542	5.0
59.557	4.0
59.572	6.0
59.587	2.0
59.602	11.0
59.617	7.0
59.632	8.0
59.647	6.0
59.661	5.0
59.676	5.0
59.691	4.0
59.706	8.0
59.721	7.0
59.736	3.0
59.751	7.0
59.766	5.0
59.781	3.0
59.796	4.0
59.811	5.0
59.826	6.0
59.841	3.0
59.856	1.0
59.871	4.0
59.886	5.0
59.901	9.0
59.916	5.0
59.931	5.0
59.946	6.0
59.961	9.0
59.976	11.0
59.991	9.0
60.006	3.0
60.021	4.0
60.036	2.0
60.051	4.0
60.066	5.0
60.081	5.0
60.096	4.0
60.111	5.0
60.126	5.0
60.141	3.0
60.156	6.0
60.171	4.0
60.186	2.0
60.201	4.0
60.216	8.0
60.231	4.0
60.246	1.0
60.261	4.0
60.276	7.0
60.291	2.0
60.306	1.0
60.321	6.0
60.336	4.0
60.35	3.0
60.365	4.0
60.38	1.0
60.395	2.0
60.41	3.0
60.425	5.0
60.44	4.0
60.455	7.0
60.47	0.0
60.485	9.0
60.5	8.0
60.515	5.0
60.53	3.0
60.545	7.0
60.56	8.0
60.575	16.0
60.59	7.0
60.605	6.0
60.62	9.0
60.635	6.0
60.65	8.0
60.665	7.0
60.68	4.0
60.695	2.0
60.71	4.0
60.725	4.0
60.74	1.0
60.755	5.0
60.77	3.0
60.785	4.0
60.8	6.0
60.815	4.0
60.83	8.0
60.845	5.0
60.86	8.0
60.875	8.0
60.89	3.0
60.905	4.0
60.92	8.0
60.935	6.0
60.95	6.0
60.965	7.0
60.98	7.0
60.995	4.0
61.01	6.0
61.025	8.0
61.04	8.0
61.055	3.0
61.07	6.0
61.085	1.0
61.1	6.0
61.115	2.0
61.13	1.0
61.145	2.0
61.16	2.0
61.175	4.0
61.191	6.0
61.206	4.0
61.221	3.0
61.236	5.0
61.251	1.0
61.266	5.0
61.281	4.0
61.296	2.0
61.311	6.0
61.326	3.0
61.341	8.0
61.356	3.0
61.371	2.0
61.386	3.0
61.401	5.0
61.416	4.0
61.431	3.0
61.446	3.0
61.461	6.0
61.476	4.0
61.491	4.0
61.506	8.0
61.521	6.0
61.536	4.0
61.551	7.0
61.566	10.0
61.581	5.0
61.596	7.0
61.611	7.0
61.626	5.0
61.641	3.0
61.656	1.0
61.672	8.0
61.687	3.0
61.702	6.0
61.717	7.0
61.732	5.0
61.747	5.0
61.762	4.0
61.777	4.0
61.792	6.0
61.807	3.0
61.822	4.0
61.837	8.0
61.852	5.0
61.867	1.0
61.882	1.0
61.897	3.0
61.912	4.0
61.927	3.0
61.943	5.0
61.958	2.0
61.973	3.0
61.988	8.0
62.003	5.0
62.018	6.0
62.033	7.0
62.048	4.0
62.063	2.0
62.078	4.0
62.093	2.0
62.108	0.0
62.123	4.0
62.138	3.0
62.153	3.0
62.169	4.0
62.184	2.0
62.199	11.0
62.214	3.0
62.229	6.0
62.244	4.0
62.259	4.0
62.274	2.0
62.289	6.0
62.304	4.0
62.319	4.0
62.335	3.0
62.35	4.0
62.365	6.0
62.38	5.0
62.395	3.0
62.41	8.0
62.425	2.0
62.44	1.0
62.455	4.0
62.47	7.0
62.485	5.0
62.501	10.0
62.516	4.0
62.531	8.0
62.546	4.0
62.561	6.0
62.576	3.0
62.591	2.0
62.606	5.0
62.621	4.0
62.636	2.0
62.652	2.0
62.667	3.0
62.682	2.0
62.697	1.0
62.712	3.0
62.727	4.0
62.742	3.0
62.757	5.0
62.772	3.0
62.787	3.0
62.803	3.0
62.818	3.0
62.833	6.0
62.848	7.0
62.863	5.0
62.878	4.0
62.893	8.0
62.908	3.0
62.923	2.0
62.939	5.0
62.954	5.0
62.969	4.0
62.984	5.0
62.999	4.0
63.014	3.0
63.029	4.0
63.044	2.0
63.059	1.0
63.074	2.0
63.09	2.0
63.105	5.0
63.12	4.0
63.135	4.0
63.15	4.0
63.165	6.0
63.18	2.0
63.195	7.0
63.21	1.0
63.226	2.0
63.241	3.0
63.256	5.0
63.271	3.0
63.286	4.0
63.301	5.0
63.316	6.0
63.331	2.0
63.346	5.0
63.362	5.0
63.377	9.0
63.392	7.0
63.407	9.0
63.422	6.0
63.437	11.0
63.452	8.0
63.467	4.0
63.482	3.0
63.497	7.0
63.513	2.0
63.528	7.0
63.543	1.0
63.558	5.0
63.573	6.0
63.588	5.0
63.603	5.0
63.618	3.0
63.633	3.0
63.648	3.0
63.664	0.0
63.679	3.0
63.694	3.0
63.709	2.0
63.724	4.0
63.739	8.0
63.754	1.0
63.769	5.0
63.784	6.0
63.799	8.0
63.814	5.0
63.83	5.0
63.845	5.0
63.86	4.0
63.875	6.0
63.89	4.0
63.905	3.0
63.92	12.0
63.935	2.0
63.95	2.0
63.965	4.0
63.98	5.0
63.996	2.0
64.011	3.0
64.026	2.0
64.041	5.0
64.056	1.0
64.071	4.0
64.086	4.0
64.101	4.0
64.116	3.0
64.131	8.0
64.146	1.0
64.161	4.0
64.176	9.0
64.191	6.0
64.207	6.0
64.222	2.0
64.237	2.0
64.252	8.0
64.267	3.0
64.282	3.0
64.297	4.0
64.312	4.0
64.327	3.0
64.342	2.0
64.357	4.0
64.372	10.0
64.387	3.0
64.402	4.0
64.417	3.0
64.433	0.0
64.448	7.0
64.463	2.0
64.478	1.0
64.493	4.0
64.508	5.0
64.523	3.0
64.538	4.0
64.553	1.0
64.568	0.0
64.583	1.0
64.598	3.0
64.613	2.0
64.628	3.0
64.643	0.0
64.658	5.0
64.673	7.0
64.688	7.0
64.703	3.0
64.718	0.0
64.734	10.0
64.749	5.0
64.764	1.0
64.779	3.0
64.794	6.0
64.809	4.0
64.824	7.0
64.839	3.0
64.854	7.0
64.869	1.0
64.884	0.0
64.899	4.0
64.914	5.0
64.929	4.0
64.944	4.0
64.959	5.0
64.974	5.0
64.989	5.0
65.004	4.0
65.019	5.0
65.034	3.0
65.049	4.0
65.064	6.0
65.079	7.0
65.094	6.0
65.109	6.0
65.125	6.0
65.14	2.0
65.155	4.0
65.17	4.0
65.185	2.0
65.2	8.0
65.215	4.0
65.23	1.0
65.245	8.0
65.26	5.0
65.275	6.0
65.29	2.0
65.305	6.0
65.32	1.0
65.335	6.0
65.35	7.0
65.365	2.0
65.38	6.0
65.395	3.0
65.41	7.0
65.425	5.0
65.44	0.0
65.455	5.0
65.47	1.0
65.485	1.0
65.5	4.0
65.515	2.0
65.53	5.0
65.545	3.0
65.56	6.0
65.575	4.0
65.59	6.0
65.605	4.0
65.62	4.0
65.635	3.0
65.65	3.0
65.666	4.0
65.681	3.0
65.696	3.0
65.711	6.0
65.726	2.0
65.741	2.0
65.756	2.0
65.771	0.0
65.786	1.0
65.801	3.0
65.816	7.0
65.831	4.0
65.846	3.0
65.861	6.0
65.876	3.0
65.891	3.0
65.906	2.0
65.921	1.0
65.936	3.0
65.951	7.0
65.966	4.0
65.981	3.0
65.996	5.0
66.011	2.0
66.026	2.0
66.041	2.0
66.056	3.0
66.071	5.0
66.086	2.0
66.101	3.0
66.116	6.0
66.131	9.0
66.146	4.0
66.161	4.0
66.176	4.0
66.191	7.0
66.206	7.0
66.221	8.0
66.236	12.0
66.251	6.0
66.266	4.0
66.281	5.0
66.296	1.0
66.311	7.0
66.327	2.0
66.342	2.0
66.357	3.0
66.372	5.0
66.387	5.0
66.402	1.0
66.417	1.0
66.432	0.0
66.447	6.0
66.462	3.0
66.477	1.0
66.492	1.0
66.507	7.0
66.522	7.0
66.537	7.0
66.552	3.0
66.567	3.0
66.582	7.0
66.597	6.0
66.612	6.0
66.627	7.0
66.642	3.0
66.657	4.0
66.672	4.0
66.687	6.0
66.702	5.0
66.717	4.0
66.732	4.0
66.747	4.0
66.762	3.0
66.777	4.0
66.792	2.0
66.807	3.0
66.822	1.0
66.837	4.0
66.853	3.0
66.868	2.0
66.883	3.0
66.898	5.0
66.913	5.0
66.928	1.0
66.943	5.0
66.958	6.0
66.973	1.0
66.988	5.0
67.003	2.0
67.018	3.0
67.033	3.0
67.048	6.0
67.063	5.0
67.078	9.0
67.093	5.0
67.108	4.0
67.123	6.0
67.138	3.0
67.153	4.0
67.168	3.0
67.183	11.0
67.198	7.0
67.214	5.0
67.229	6.0
67.244	2.0
67.259	4.0
67.274	2.0
67.289	0.0
67.304	5.0
67.319	4.0
67.334	7.0
67.349	6.0
67.364	5.0
67.379	3.0
67.394	3.0
67.409	2.0
67.424	4.0
67.439	2.0
67.454	1.0
67.469	2.0
67.484	6.0
67.5	3.0
67.515	7.0
67.53	8.0
67.545	1.0
67.56	4.0
67.575	1.0
67.59	4.0
67.605	2.0
67.62	1.0
67.635	3.0
67.65	2.0
67.665	3.0
67.68	2.0
67.695	1.0
67.71	2.0
67.726	2.0
67.741	4.0
67.756	0.0
67.771	1.0
67.786	3.0
67.801	2.0
67.816	3.0
67.831	3.0
67.846	3.0
67.861	4.0
67.876	1.0
67.891	5.0
67.906	3.0
67.922	5.0
67.937	5.0
67.952	2.0
67.967	5.0
67.982	6.0
67.997	8.0
68.012	4.0
68.027	4.0
68.042	4.0
68.057	4.0
68.072	4.0
68.087	6.0
68.103	2.0
68.118	6.0
68.133	4.0
68.148	1.0
68.163	3.0
68.178	7.0
68.193	2.0
68.208	3.0
68.223	2.0
68.238	1.0
68.254	3.0
68.269	6.0
68.284	4.0
68.299	4.0
68.314	4.0
68.329	0.0
68.344	3.0
68.359	3.0
68.374	4.0
68.389	7.0
68.405	5.0
68.42	3.0
68.435	6.0
68.45	7.0
68.465	8.0
68.48	2.0
68.495	3.0
68.51	3.0
68.525	3.0
68.54	4.0
68.556	5.0
68.571	2.0
68.586	5.0
68.601	6.0
68.616	1.0
68.631	5.0
68.646	2.0
68.661	3.0
68.676	3.0
68.691	4.0
68.707	2.0
68.722	5.0
68.737	3.0
68.752	3.0
68.767	2.0
68.782	5.0
68.797	2.0
68.812	2.0
68.827	4.0
68.842	3.0
68.857	2.0
68.873	4.0
68.888	4.0
68.903	4.0
68.918	2.0
68.933	5.0
68.948	1.0
68.963	3.0
68.978	3.0
68.993	4.0
69.008	8.0
69.023	5.0
69.038	2.0
69.054	2.0
69.069	4.0
69.084	6.0
69.099	2.0
69.114	3.0
69.129	2.0
69.144	5.0
69.159	3.0
69.174	4.0
69.189	2.0
69.204	4.0
69.219	4.0
69.234	1.0
69.249	4.0
69.264	4.0
69.279	8.0
69.295	4.0
69.31	3.0
69.325	3.0
69.34	3.0
69.355	3.0
69.37	1.0
69.385	1.0
69.4	6.0
69.415	2.0
69.43	3.0
69.445	2.0
69.46	4.0
69.475	1.0
69.49	4.0
69.505	4.0
69.52	2.0
69.535	4.0
69.55	3.0
69.565	6.0
69.58	3.0
69.595	6.0
69.61	7.0
69.625	2.0
69.64	1.0
69.655	1.0
69.67	7.0
69.685	7.0
69.7	7.0
69.715	4.0
69.73	2.0
69.745	3.0
69.76	4.0
69.775	3.0
69.79	9.0
69.805	3.0
69.82	8.0
69.835	8.0
69.85	7.0
69.865	2.0
69.88	7.0
69.895	5.0
69.909	5.0
69.924	5.0
69.939	2.0
69.954	5.0
69.969	5.0
69.984	3.0
69.999	2.0
70.014	2.0
70.029	2.0
70.044	1.0
70.059	7.0
70.074	6.0
70.088	2.0
70.103	5.0
70.118	2.0
70.133	8.0
70.148	4.0
70.163	3.0
70.178	5.0
70.193	4.0
70.208	10.0
70.222	7.0
70.237	2.0
70.252	5.0
70.267	5.0
70.282	5.0
70.297	6.0
70.312	5.0
70.327	7.0
70.341	5.0
70.356	4.0
70.371	1.0
70.386	3.0
70.401	2.0
70.416	3.0
70.43	3.0
70.445	0.0
70.46	2.0
70.475	5.0
70.49	2.0
70.505	4.0
70.519	6.0
70.534	3.0
70.549	7.0
70.564	5.0
70.579	2.0
70.594	2.0
70.608	6.0
70.623	2.0
70.638	5.0
70.653	2.0
70.668	3.0
70.683	7.0
70.697	5.0
70.712	4.0
70.727	2.0
70.742	10.0
70.757	2.0
70.771	2.0
70.786	3.0
70.801	3.0
70.816	1.0
70.831	7.0
70.845	0.0
70.86	6.0
70.875	8.0
70.89	2.0
70.905	1.0
70.92	5.0
70.934	2.0
70.949	2.0
70.964	7.0
70.979	1.0
70.994	5.0
71.008	2.0
71.023	4.0
71.038	2.0
71.053	3.0
71.068	1.0
71.082	4.0
71.097	6.0
71.112	4.0
71.127	9.0
71.142	7.0
71.156	5.0
71.171	2.0
71.186	2.0
71.201	3.0
71.216	2.0
71.231	3.0
71.245	5.0
71.26	7.0
71.275	1.0
71.29	3.0
71.305	0.0
71.319	3.0
71.334	2.0
71.349	7.0
71.364	3.0
71.379	3.0
71.394	3.0
71.408	6.0
71.423	2.0
71.438	2.0
71.453	1.0
71.468	3.0
71.483	4.0
71.497	6.0
71.512	0.0
71.527	3.0
71.542	4.0
71.557	3.0
71.572	3.0
71.586	3.0
71.601	0.0
71.616	2.0
71.631	3.0
71.646	2.0
71.661	3.0
71.676	3.0
71.69	1.0
71.705	4.0
71.72	8.0
71.735	4.0
71.75	7.0
71.765	1.0
71.78	6.0
71.795	4.0
71.81	4.0
71.824	4.0
71.839	8.0
71.854	2.0
71.869	3.0
71.884	3.0
71.899	3.0
71.914	4.0
71.929	0.0
71.944	5.0
71.959	4.0
71.974	7.0
71.988	4.0
72.003	0.0
72.018	7.0
72.033	3.0
72.048	4.0
72.063	6.0
72.078	2.0
72.093	3.0
72.108	1.0
72.123	2.0
72.138	2.0
72.153	3.0
72.168	1.0
72.183	4.0
72.198	5.0
72.213	3.0
72.228	6.0
72.243	1.0
72.258	3.0
72.273	3.0
72.288	2.0
72.303	1.0
72.318	2.0
72.333	3.0
72.348	2.0
72.363	5.0
72.378	0.0
72.393	4.0
72.408	2.0
72.423	2.0
72.438	6.0
72.453	3.0
72.468	6.0
72.483	5.0
72.498	2.0
72.513	3.0
72.528	3.0
72.543	3.0
72.558	4.0
72.573	1.0
72.588	4.0
72.603	5.0
72.618	2.0
72.633	3.0
72.649	2.0
72.664	3.0
72.679	3.0
72.694	0.0
72.709	3.0
72.724	2.0
72.739	2.0
72.754	3.0
72.769	1.0
72.784	6.0
72.799	0.0
72.814	3.0
72.829	6.0
72.845	5.0
72.86	1.0
72.875	3.0
72.89	3.0
72.905	5.0
72.92	4.0
72.935	2.0
72.95	3.0
72.965	2.0
72.98	7.0
72.996	3.0
73.011	2.0
73.026	1.0
73.041	5.0
73.056	2.0
73.071	2.0
73.086	1.0
73.101	2.0
73.117	1.0
73.132	5.0
73.147	3.0
73.162	2.0
73.177	4.0
73.192	4.0
73.207	4.0
73.222	2.0
73.238	1.0
73.253	5.0
73.268	2.0
73.283	6.0
73.298	4.0
73.313	5.0
73.328	3.0
73.343	0.0
73.359	6.0
73.374	4.0
73.389	2.0
73.404	6.0
73.419	6.0
73.434	5.0
73.449	4.0
73.465	2.0
73.48	6.0
73.495	5.0
73.51	4.0
73.525	2.0
73.54	2.0
73.556	4.0
73.571	4.0
73.586	8.0
73.601	4.0
73.616	4.0
73.631	1.0
73.646	8.0
73.662	1.0
73.677	5.0
73.692	4.0
73.707	4.0
73.722	4.0
73.737	1.0
73.752	2.0
73.768	5.0
73.783	3.0
73.798	5.0
73.813	3.0
73.828	8.0
73.843	2.0
73.859	3.0
73.874	2.0
73.889	1.0
73.904	4.0
73.919	6.0
73.934	1.0
73.949	1.0
73.965	0.0
73.98	5.0
73.995	4.0
74.01	2.0
74.025	4.0
74.04	4.0
74.056	3.0
74.071	1.0
74.086	4.0
74.101	5.0
74.116	6.0
74.131	7.0
74.146	6.0
74.162	5.0
74.177	5.0
74.192	8.0
74.207	7.0
74.222	4.0
74.237	5.0
74.252	5.0
74.268	6.0
74.283	2.0
74.298	3.0
74.313	2.0
74.328	2.0
74.343	2.0
74.358	5.0
74.374	4.0
74.389	3.0
74.404	4.0
74.419	1.0
74.434	2.0
74.449	3.0
74.464	4.0
74.48	4.0
74.495	2.0
74.51	7.0
74.525	3.0
74.54	1.0
74.555	3.0
74.57	3.0
74.586	4.0
74.601	3.0
74.616	5.0
74.631	3.0
74.646	0.0
74.661	2.0
74.676	5.0
74.691	3.0
74.707	4.0
74.722	3.0
74.737	8.0
74.752	4.0
74.767	3.0
74.782	2.0
74.797	7.0
74.813	4.0
74.828	2.0
74.843	2.0
74.858	6.0
74.873	0.0
74.888	8.0
74.903	1.0
74.918	0.0
74.934	2.0
74.949	1.0
74.964	6.0
74.979	5.0
74.994	5.0
75.009	6.0
75.024	2.0
75.04	5.0
75.055	7.0
75.07	4.0
75.085	3.0
75.1	5.0
75.115	4.0
75.13	4.0
75.145	2.0
75.161	5.0
75.176	4.0
75.191	8.0
75.206	4.0
75.221	7.0
75.236	4.0
75.251	5.0
75.266	2.0
75.282	4.0
75.297	5.0
75.312	3.0
75.327	5.0
75.342	0.0
75.357	4.0
75.372	4.0
75.387	4.0
75.403	3.0
75.418	3.0
75.433	1.0
75.448	0.0
75.463	3.0
75.478	2.0
75.493	3.0
75.509	3.0
75.524	7.0
75.539	4.0
75.554	1.0
75.569	5.0
75.584	6.0
75.599	4.0
75.614	4.0
75.63	1.0
75.645	2.0
75.66	2.0
75.675	3.0
75.69	3.0
75.705	2.0
75.72	4.0
75.735	1.0
75.751	2.0
75.766	3.0
75.781	2.0
75.796	5.0
75.811	2.0
75.826	5.0
75.841	4.0
75.856	2.0
75.872	6.0
75.887	4.0
75.902	5.0
75.917	2.0
75.932	4.0
75.947	5.0
75.962	5.0
75.977	2.0
75.993	4.0
76.008	2.0
76.023	4.0
76.038	8.0
76.053	2.0
76.068	5.0
76.083	6.0
76.098	2.0
76.114	1.0
76.129	6.0
76.144	0.0
76.159	2.0
76.174	4.0
76.189	5.0
76.204	4.0
76.22	3.0
76.235	2.0
76.25	4.0
76.265	2.0
76.28	3.0
76.295	4.0
76.31	2.0
76.325	2.0
76.341	3.0
76.356	1.0
76.371	1.0
76.386	2.0
76.401	4.0
76.416	6.0
76.431	4.0
76.446	3.0
76.462	0.0
76.477	2.0
76.492	2.0
76.507	0.0
76.522	2.0
76.537	1.0
76.552	3.0
76.567	3.0
76.583	1.0
76.598	4.0
76.613	2.0
76.628	2.0
76.643	4.0
76.658	5.0
76.673	3.0
76.688	9.0
76.704	2.0
76.719	3.0
76.734	2.0
76.749	5.0
76.764	5.0
76.779	2.0
76.794	5.0
76.809	6.0
76.824	4.0
76.84	2.0
76.855	1.0
76.87	5.0
76.885	0.0
76.9	5.0
76.915	2.0
76.93	2.0
76.945	3.0
76.96	2.0
76.976	2.0
76.991	4.0
77.006	3.0
77.021	5.0
77.036	2.0
77.051	5.0
77.066	3.0
77.081	0.0
77.096	2.0
77.112	3.0
77.127	4.0
77.142	3.0
77.157	2.0
77.172	2.0
77.187	2.0
77.202	2.0
77.217	2.0
77.232	3.0
77.247	0.0
77.263	2.0
77.278	3.0
77.293	1.0
77.308	0.0
77.323	5.0
77.338	7.0
77.353	2.0
77.368	5.0
77.383	5.0
77.398	2.0
77.413	4.0
77.428	6.0
77.444	3.0
77.459	0.0
77.474	6.0
77.489	3.0
77.504	2.0
77.519	6.0
77.534	2.0
77.549	4.0
77.564	7.0
77.579	5.0
77.594	5.0
77.609	7.0
77.624	6.0
77.64	10.0
77.655	4.0
77.67	4.0
77.685	5.0
77.7	6.0
77.715	4.0
77.73	3.0
77.745	3.0
77.76	4.0
77.775	6.0
77.79	2.0
77.805	3.0
77.82	2.0
77.835	1.0
77.85	2.0
77.865	5.0
77.88	5.0
77.895	3.0
77.91	6.0
77.926	4.0
77.941	3.0
77.956	4.0
77.971	2.0
77.986	2.0
78.001	4.0
78.016	5.0
78.031	1.0
78.046	1.0
78.061	3.0
78.076	0.0
78.091	3.0
78.106	9.0
78.121	6.0
78.136	1.0
78.151	3.0
78.166	5.0
78.181	7.0
78.196	3.0
78.211	7.0
78.226	2.0
78.241	2.0
78.256	8.0
78.271	2.0
78.286	1.0
78.301	3.0
78.316	2.0
78.331	1.0
78.346	2.0
78.361	4.0
78.376	3.0
78.391	3.0
78.406	3.0
78.421	1.0
78.436	0.0
78.451	4.0
78.466	3.0
78.481	2.0
78.496	1.0
78.511	5.0
78.526	2.0
78.541	1.0
78.556	4.0
78.571	3.0
78.586	1.0
78.601	3.0
78.616	1.0
78.631	6.0
78.646	2.0
78.661	6.0
78.676	2.0
78.691	3.0
78.706	5.0
78.721	3.0
78.736	2.0
78.751	5.0
78.766	2.0
78.781	2.0
78.796	1.0
78.811	3.0
78.826	0.0
78.841	3.0
78.856	1.0
78.871	6.0
78.885	1.0
78.9	2.0
78.915	1.0
78.93	4.0
78.945	0.0
78.96	3.0
78.975	7.0
78.99	5.0
79.005	5.0
79.02	1.0
79.035	8.0
79.05	6.0
79.065	0.0
79.08	6.0
79.095	4.0
79.11	5.0
79.125	6.0
79.14	2.0
79.155	3.0
79.17	6.0
79.185	5.0
79.2	1.0
79.215	1.0
79.23	3.0
79.245	2.0
79.26	2.0
79.275	3.0
79.29	1.0
79.304	2.0
79.319	3.0
79.334	2.0
79.349	4.0
79.364	4.0
79.379	5.0
79.394	1.0
79.409	3.0
79.424	8.0
79.439	4.0
79.454	5.0
79.469	3.0
79.484	6.0
79.499	3.0
79.514	0.0
79.529	2.0
79.544	2.0
79.559	3.0
79.574	4.0
79.589	3.0
79.604	3.0
79.619	6.0
79.634	4.0
79.649	1.0
79.664	3.0
79.679	6.0
79.693	2.0
79.708	2.0
79.723	6.0
79.738	2.0
79.753	4.0
79.768	1.0
79.783	3.0
79.798	2.0
79.813	6.0
79.828	1.0
79.843	6.0
79.858	2.0
79.873	5.0
79.888	4.0
79.903	3.0
79.918	1.0
79.933	3.0
79.948	5.0
79.963	4.0
79.978	3.0
79.993	3.0
80.008	3.0
80.023	3.0
80.038	3.0
80.053	4.0
80.068	2.0
80.083	6.0
80.098	3.0
80.113	4.0
80.128	3.0
80.143	4.0
80.158	6.0
80.173	5.0
80.188	4.0
80.202	7.0
80.217	4.0
80.232	5.0
80.247	4.0
80.262	2.0
80.277	3.0
80.292	3.0
80.307	0.0
80.322	2.0
80.337	3.0
80.352	2.0
80.367	1.0
80.382	5.0
80.397	4.0
80.412	1.0
80.427	2.0
80.442	1.0
80.457	5.0
80.472	2.0
80.487	5.0
80.502	5.0
80.517	4.0
80.532	3.0
80.547	2.0
80.562	0.0
80.577	5.0
80.592	4.0
80.607	0.0
80.622	5.0
80.637	0.0
80.652	5.0
80.667	2.0
80.682	2.0
80.697	1.0
80.712	4.0
80.727	5.0
80.742	3.0
80.757	4.0
80.772	1.0
80.787	7.0
80.802	6.0
80.817	5.0
80.832	2.0
80.847	3.0
80.862	5.0
80.877	2.0
80.892	1.0
80.907	2.0
80.922	3.0
80.937	2.0
80.952	4.0
80.967	4.0
80.982	4.0
80.997	4.0
81.012	2.0
81.027	3.0
81.042	4.0
81.057	2.0
81.072	2.0
81.087	3.0
81.101	3.0
81.116	2.0
81.131	1.0
81.146	4.0
81.161	1.0
81.176	1.0
81.191	4.0
81.206	4.0
81.221	3.0
81.236	3.0
81.251	5.0
81.266	0.0
81.281	2.0
81.296	1.0
81.311	3.0
81.326	7.0
81.341	5.0
81.356	3.0
81.371	2.0
81.386	2.0
81.401	3.0
81.416	3.0
81.431	1.0
81.446	3.0
81.461	3.0
81.476	2.0
81.491	6.0
81.506	2.0
81.521	2.0
81.536	3.0
81.55	2.0
81.565	1.0
81.58	4.0
81.595	4.0
81.61	4.0
81.625	2.0
81.64	6.0
81.655	3.0
81.67	3.0
81.685	4.0
81.7	3.0
81.715	6.0
81.73	3.0
81.745	3.0
81.76	1.0
81.775	3.0
81.79	3.0
81.805	3.0
81.819	1.0
81.834	4.0
81.849	6.0
81.864	4.0
81.879	2.0
81.894	3.0
81.909	5.0
81.924	5.0
81.939	4.0
81.954	5.0
81.969	2.0
81.984	1.0
81.999	5.0
82.013	6.0
82.028	1.0
82.043	2.0
82.058	3.0
82.073	4.0
82.088	2.0
82.103	3.0
82.118	5.0
82.133	4.0
82.148	5.0
82.163	1.0
82.177	5.0
82.192	1.0
82.207	2.0
82.222	5.0
82.237	2.0
82.252	4.0
82.267	3.0
82.282	0.0
82.297	3.0
82.312	1.0
82.326	1.0
82.341	2.0
82.356	2.0
82.371	2.0
82.386	3.0
82.401	3.0
82.416	7.0
82.431	5.0
82.445	0.0
82.46	2.0
82.475	7.0
82.49	2.0
82.505	3.0
82.52	1.0
82.535	1.0
82.55	4.0
82.565	4.0
82.579	4.0
82.594	2.0
82.609	6.0
82.624	3.0
82.639	1.0
82.654	2.0
82.669	2.0
82.684	3.0
82.698	3.0
82.713	3.0
82.728	0.0
82.743	4.0
82.758	2.0
82.773	3.0
82.788	4.0
82.803	5.0
82.817	6.0
82.832	2.0
82.847	2.0
82.862	2.0
82.877	1.0
82.892	3.0
82.907	1.0
82.922	3.0
82.937	4.0
82.951	5.0
82.966	2.0
82.981	4.0
82.996	3.0
83.011	5.0
83.026	2.0
83.041	1.0
83.056	2.0
83.07	4.0
83.085	0.0
83.1	0.0
83.115	2.0
83.13	3.0
83.145	3.0
83.16	6.0
83.175	9.0
83.19	2.0
83.204	3.0
83.219	2.0
83.234	2.0
83.249	4.0
83.264	4.0
83.279	5.0
83.294	3.0
83.309	6.0
83.324	4.0
83.339	3.0
83.353	2.0
83.368	0.0
83.383	6.0
83.398	3.0
83.413	1.0
83.428	2.0
83.443	1.0
83.458	1.0
83.473	3.0
83.488	4.0
83.503	5.0
83.517	3.0
83.532	7.0
83.547	7.0
83.562	3.0
83.577	1.0
83.592	5.0
83.607	4.0
83.622	1.0
83.637	3.0
83.652	5.0
83.667	5.0
83.682	3.0
83.697	5.0
83.712	3.0
83.727	2.0
83.741	1.0
83.756	2.0
83.771	4.0
83.786	2.0
83.801	1.0
83.816	2.0
83.831	1.0
83.846	2.0
83.861	1.0
83.876	3.0
83.891	4.0
83.906	7.0
83.921	3.0
83.936	3.0
83.951	1.0
83.966	5.0
83.981	5.0
83.996	4.0
84.011	3.0
84.026	0.0
84.041	1.0
84.056	2.0
84.071	1.0
84.086	9.0
84.101	4.0
84.116	4.0
84.131	3.0
84.146	5.0
84.161	4.0
84.176	2.0
84.191	5.0
84.206	5.0
84.221	3.0
84.236	6.0
84.251	11.0
84.266	5.0
84.281	4.0
84.296	4.0
84.311	0.0
84.326	4.0
84.341	6.0
84.356	5.0
84.371	5.0
84.386	4.0
84.401	7.0
84.416	6.0
84.431	6.0
84.446	2.0
84.461	4.0
84.476	4.0
84.492	5.0
84.507	1.0
84.522	1.0
84.537	3.0
84.552	3.0
84.567	1.0
84.582	5.0
84.597	2.0
84.612	1.0
84.627	2.0
84.642	4.0
84.657	0.0
84.672	2.0
84.687	2.0
84.702	4.0
84.717	1.0
84.733	3.0
84.748	10.0
84.763	5.0
84.778	7.0
84.793	2.0
84.808	2.0
84.823	3.0
84.838	3.0
84.853	3.0
84.868	1.0
84.883	1.0
84.898	6.0
84.913	6.0
84.929	4.0
84.944	4.0
84.959	5.0
84.974	6.0
84.989	2.0
85.004	2.0
85.019	6.0
85.034	5.0
85.049	5.0
85.064	3.0
85.079	4.0
85.094	0.0
85.11	5.0
85.125	1.0
85.14	4.0
85.155	2.0
85.17	4.0
85.185	3.0
85.2	2.0
85.215	6.0
85.23	3.0
85.245	0.0
85.26	4.0
85.276	2.0
85.291	5.0
85.306	3.0
85.321	3.0
85.336	4.0
85.351	4.0
85.366	1.0
85.381	2.0
85.396	2.0
85.411	0.0
85.426	3.0
85.441	0.0
85.457	2.0
85.472	3.0
85.487	1.0
85.502	6.0
85.517	3.0
85.532	2.0
85.547	4.0
85.562	4.0
85.577	1.0
85.592	2.0
85.607	4.0
85.622	5.0
85.637	5.0
85.653	4.0
85.668	3.0
85.683	4.0
85.698	1.0
85.713	1.0
85.728	2.0
85.743	7.0
85.758	4.0
85.773	1.0
85.788	1.0
85.803	3.0
85.818	7.0
85.833	1.0
85.848	5.0
85.863	2.0
85.879	0.0
85.894	4.0
85.909	1.0
85.924	0.0
85.939	2.0
85.954	3.0
85.969	4.0
85.984	6.0
85.999	3.0
86.014	0.0
86.029	0.0
86.044	6.0
86.059	6.0
86.074	2.0
86.089	3.0
86.104	2.0
86.119	6.0
86.134	2.0
86.149	5.0
86.164	4.0
86.179	3.0
86.194	2.0
86.209	1.0
86.224	3.0
86.239	3.0
86.254	8.0
86.269	4.0
86.284	2.0
86.299	1.0
86.314	1.0
86.33	3.0
86.345	0.0
86.36	2.0
86.375	2.0
86.39	5.0
86.405	0.0
86.42	0.0
86.435	4.0
86.45	4.0
86.465	4.0
86.48	2.0
86.495	7.0
86.51	3.0
86.525	3.0
86.54	3.0
86.555	2.0
86.57	4.0
86.585	1.0
86.6	3.0
86.615	3.0
86.63	6.0
86.645	2.0
86.659	4.0
86.674	1.0
86.689	4.0
86.704	2.0
86.719	5.0
86.734	4.0
86.749	3.0
86.764	3.0
86.779	2.0
86.794	2.0
86.809	3.0
86.824	5.0
86.839	4.0
86.854	5.0
86.869	1.0
86.884	4.0
86.899	6.0
86.914	4.0
86.929	2.0
86.944	2.0
86.959	5.0
86.974	3.0
86.989	3.0
87.004	1.0
87.019	1.0
87.034	5.0
87.049	9.0
87.064	3.0
87.079	5.0
87.094	2.0
87.109	4.0
87.124	3.0
87.139	1.0
87.154	4.0
87.169	2.0
87.184	4.0
87.199	3.0
87.214	2.0
87.229	8.0
87.244	4.0
87.259	0.0
87.274	4.0
87.289	3.0
87.304	6.0
87.319	1.0
87.334	3.0
87.349	1.0
87.364	1.0
87.379	4.0
87.394	4.0
87.409	0.0
87.424	4.0
87.438	5.0
87.453	2.0
87.468	3.0
87.483	10.0
87.498	1.0
87.513	3.0
87.528	5.0
87.543	6.0
87.558	3.0
87.573	3.0
87.588	7.0
87.603	3.0
87.618	4.0
87.633	1.0
87.648	5.0
87.663	3.0
87.678	5.0
87.693	1.0
87.708	4.0
87.723	8.0
87.738	4.0
87.753	4.0
87.768	2.0
87.783	4.0
87.798	7.0
87.813	6.0
87.828	1.0
87.843	2.0
87.858	5.0
87.873	0.0
87.888	4.0
87.903	2.0
87.918	4.0
87.933	3.0
87.948	5.0
87.963	2.0
87.978	2.0
87.993	4.0
88.008	1.0
88.023	1.0
88.038	1.0
88.053	3.0
88.068	8.0
88.083	2.0
88.098	2.0
88.113	3.0
88.128	3.0
88.143	2.0
88.158	2.0
88.174	7.0
88.189	3.0
88.204	1.0
88.219	3.0
88.234	3.0
88.249	1.0
88.264	4.0
88.279	5.0
88.294	3.0
88.309	2.0
88.324	4.0
88.339	3.0
88.354	0.0
88.369	3.0
88.384	4.0
88.399	4.0
88.414	4.0
88.429	6.0
88.444	0.0
88.459	1.0
88.474	0.0
88.489	5.0
88.504	3.0
88.519	6.0
88.534	3.0
88.549	4.0
88.564	0.0
88.58	3.0
88.595	4.0
88.61	3.0
88.625	6.0
88.64	9.0
88.655	2.0
88.67	3.0
88.685	5.0
88.7	3.0
88.715	5.0
88.73	4.0
88.745	2.0
88.76	5.0
88.775	2.0
88.79	3.0
88.805	2.0
88.82	1.0
88.835	0.0
88.85	3.0
88.865	2.0
88.88	1.0
88.895	1.0
88.911	3.0
88.926	1.0
88.941	7.0
88.956	1.0
88.971	2.0
88.986	2.0
89.001	1.0
89.016	4.0
89.031	3.0
89.046	4.0
89.061	2.0
89.076	1.0
89.091	6.0
89.106	3.0
89.121	1.0
89.136	5.0
89.151	2.0
89.166	5.0
89.181	2.0
89.196	4.0
89.211	3.0
89.227	3.0
89.242	3.0
89.257	3.0
89.272	2.0
89.287	2.0
89.302	0.0
89.317	4.0
89.332	4.0
89.347	2.0
89.362	4.0
89.377	1.0
89.392	3.0
89.407	4.0
89.422	4.0
89.437	4.0
89.452	4.0
89.467	3.0
89.482	2.0
89.497	2.0
89.512	6.0
89.527	2.0
89.542	4.0
89.557	2.0
89.572	2.0
89.587	3.0
89.602	2.0
89.617	1.0
89.632	3.0
89.647	4.0
89.662	5.0
89.677	1.0
89.693	3.0
89.708	3.0
89.723	4.0
89.738	5.0
89.753	4.0
89.768	5.0
89.783	3.0
89.798	3.0
89.813	3.0
89.828	0.0
89.843	2.0
89.858	5.0
89.873	3.0
89.888	2.0
89.903	3.0
89.918	5.0
89.933	0.0
89.948	3.0
89.963	3.0
89.978	4.0
89.993	6.0
90.008	3.0
90.023	3.0
90.038	6.0
90.053	2.0
90.068	3.0
90.083	4.0
90.097	5.0
90.112	1.0
90.127	4.0
90.142	4.0
90.157	5.0
90.172	3.0
90.187	4.0
90.202	2.0
90.217	4.0
90.232	3.0
90.247	5.0
90.262	6.0
90.277	2.0
90.292	3.0
90.307	2.0
90.322	4.0
90.337	4.0
90.352	6.0
90.367	5.0
90.382	3.0
90.397	4.0
90.412	4.0
90.427	2.0
90.442	3.0
90.457	3.0
90.472	3.0
90.487	2.0
90.501	1.0
90.516	3.0
90.531	1.0
90.546	2.0
90.561	1.0
90.576	2.0
90.591	1.0
90.606	1.0
90.621	2.0
90.636	2.0
90.651	2.0
90.666	6.0
90.681	2.0
90.696	3.0
90.711	3.0
90.726	4.0
90.741	1.0
90.755	0.0
90.77	4.0
90.785	5.0
90.8	5.0
90.815	1.0
90.83	4.0
90.845	4.0
90.86	7.0
90.875	2.0
90.89	2.0
90.905	2.0
90.92	1.0
90.935	6.0
90.95	8.0
90.965	3.0
90.979	6.0
90.994	7.0
91.009	5.0
91.024	3.0
91.039	3.0
91.054	4.0
91.069	4.0
91.084	2.0
91.099	6.0
91.114	8.0
91.129	5.0
91.144	2.0
91.159	4.0
91.174	6.0
91.188	1.0
91.203	4.0
91.218	4.0
91.233	5.0
91.248	2.0
91.263	2.0
91.278	2.0
91.293	3.0
91.308	5.0
91.323	2.0
91.338	1.0
91.353	2.0
91.368	4.0
91.383	3.0
91.398	5.0
91.412	2.0
91.427	3.0
91.442	3.0
91.457	2.0
91.472	5.0
91.487	0.0
91.502	2.0
91.517	1.0
91.532	3.0
91.547	2.0
91.562	5.0
91.577	4.0
91.592	4.0
91.607	0.0
91.622	1.0
91.637	1.0
91.652	2.0
91.666	2.0
91.681	1.0
91.696	3.0
91.711	5.0
91.726	1.0
91.741	5.0
91.756	5.0
91.771	3.0
91.786	1.0
91.801	2.0
91.816	3.0
91.831	4.0
91.846	4.0
91.861	4.0
91.876	2.0
91.891	4.0
91.906	2.0
91.921	2.0
91.936	4.0
91.951	3.0
91.966	3.0
91.981	5.0
91.995	5.0
92.01	6.0
92.025	2.0
92.04	1.0
92.055	3.0
92.07	1.0
92.085	2.0
92.1	5.0
92.115	3.0
92.13	2.0
92.145	1.0
92.16	3.0
92.175	3.0
92.19	2.0
92.205	2.0
92.22	4.0
92.235	6.0
92.25	2.0
92.265	3.0
92.28	1.0
92.295	2.0
92.31	5.0
92.325	4.0
92.34	2.0
92.355	3.0
92.37	3.0
92.385	0.0
92.4	4.0
92.415	2.0
92.43	3.0
92.445	3.0
92.46	1.0
92.475	4.0
92.49	1.0
92.505	4.0
92.52	7.0
92.535	3.0
92.55	3.0
92.565	0.0
92.58	3.0
92.595	1.0
92.61	2.0
92.625	5.0
92.64	4.0
92.655	4.0
92.67	1.0
92.685	0.0
92.7	3.0
92.715	5.0
92.73	5.0
92.745	5.0
92.76	3.0
92.775	5.0
92.79	2.0
92.805	2.0
92.82	2.0
92.835	1.0
92.85	0.0
92.865	1.0
92.88	3.0
92.895	5.0
92.91	1.0
92.925	2.0
92.94	2.0
92.955	2.0
92.97	3.0
92.985	2.0
93.0	2.0
93.015	2.0
93.03	5.0
93.045	2.0
93.06	0.0
93.075	1.0
93.09	2.0
93.105	5.0
93.12	3.0
93.135	3.0
93.15	3.0
93.165	2.0
93.18	5.0
93.195	0.0
93.21	2.0
93.225	4.0
93.24	5.0
93.255	7.0
93.27	3.0
93.285	5.0
93.3	3.0
93.315	1.0
93.33	5.0
93.345	7.0
93.36	1.0
93.375	2.0
93.39	4.0
93.405	7.0
93.42	1.0
93.435	2.0
93.45	5.0
93.465	2.0
93.48	6.0
93.495	1.0
93.51	2.0
93.525	2.0
93.54	6.0
93.555	1.0
93.57	6.0
93.585	1.0
93.6	6.0
93.615	1.0
93.63	1.0
93.645	4.0
93.66	3.0
93.675	8.0
93.69	2.0
93.705	4.0
93.72	3.0
93.735	2.0
93.75	5.0
93.765	4.0
93.78	0.0
93.795	0.0
93.81	5.0
93.824	2.0
93.839	3.0
93.854	2.0
93.869	4.0
93.884	3.0
93.899	3.0
93.914	6.0
93.929	2.0
93.944	0.0
93.959	3.0
93.974	3.0
93.989	2.0
94.004	4.0
94.019	4.0
94.034	0.0
94.049	0.0
94.064	4.0
94.079	3.0
94.094	4.0
94.108	1.0
94.123	2.0
94.138	2.0
94.153	1.0
94.168	4.0
94.183	3.0
94.198	3.0
94.213	0.0
94.228	3.0
94.243	5.0
94.258	1.0
94.273	5.0
94.288	5.0
94.302	5.0
94.317	6.0
94.332	8.0
94.347	6.0
94.362	5.0
94.377	1.0
94.392	2.0
94.407	5.0
94.422	4.0
94.437	0.0
94.452	4.0
94.466	4.0
94.481	1.0
94.496	2.0
94.511	3.0
94.526	8.0
94.541	5.0
94.556	4.0
94.571	2.0
94.586	2.0
94.601	6.0
94.615	0.0
94.63	1.0
94.645	1.0
94.66	1.0
94.675	2.0
94.69	3.0
94.705	2.0
94.72	3.0
94.735	4.0
94.749	7.0
94.764	3.0
94.779	7.0
94.794	1.0
94.809	3.0
94.824	2.0
94.839	1.0
94.854	6.0
94.868	3.0
94.883	4.0
94.898	4.0
94.913	4.0
94.928	2.0
94.943	5.0
94.958	0.0
94.973	1.0
94.987	0.0
95.002	4.0
95.017	2.0
95.032	3.0
95.047	2.0
95.062	2.0
95.077	4.0
95.092	5.0
95.106	1.0
95.121	4.0
95.136	4.0
95.151	2.0
95.166	6.0
95.181	1.0
95.196	2.0
95.211	4.0
95.226	2.0
95.24	5.0
95.255	5.0
95.27	2.0
95.285	3.0
95.3	2.0
95.315	6.0
95.33	9.0
95.345	3.0
95.359	5.0
95.374	2.0
95.389	6.0
95.404	2.0
95.419	4.0
95.434	3.0
95.449	1.0
95.464	2.0
95.478	3.0
95.493	5.0
95.508	2.0
95.523	2.0
95.538	3.0
95.553	3.0
95.568	3.0
95.583	2.0
95.597	6.0
95.612	3.0
95.627	3.0
95.642	2.0
95.657	2.0
95.672	2.0
95.687	5.0
95.702	6.0
95.717	1.0
95.731	3.0
95.746	2.0
95.761	4.0
95.776	4.0
95.791	2.0
95.806	7.0
95.821	3.0
95.836	1.0
95.851	2.0
95.866	3.0
95.88	5.0
95.895	3.0
95.91	8.0
95.925	7.0
95.94	7.0
95.955	3.0
95.97	6.0
95.985	4.0
96.0	4.0
96.015	3.0
96.029	4.0
96.044	3.0
96.059	3.0
96.074	4.0
96.089	4.0
96.104	4.0
96.119	3.0
96.134	4.0
96.149	4.0
96.164	5.0
96.179	5.0
96.194	2.0
96.208	2.0
96.223	1.0
96.238	4.0
96.253	3.0
96.268	2.0
96.283	3.0
96.298	5.0
96.313	3.0
96.328	2.0
96.343	4.0
96.358	1.0
96.373	5.0
96.388	3.0
96.403	6.0
96.417	4.0
96.432	2.0
96.447	2.0
96.462	2.0
96.477	1.0
96.492	7.0
96.507	1.0
96.522	1.0
96.537	5.0
96.552	2.0
96.567	5.0
96.582	7.0
96.597	4.0
96.612	1.0
96.627	1.0
96.642	2.0
96.656	5.0
96.671	7.0
96.686	3.0
96.701	5.0
96.716	1.0
96.731	1.0
96.746	3.0
96.761	10.0
96.776	2.0
96.791	5.0
96.806	1.0
96.821	4.0
96.836	1.0
96.851	4.0
96.866	2.0
96.881	5.0
96.896	7.0
96.911	6.0
96.926	6.0
96.94	7.0
96.955	5.0
96.97	10.0
96.985	3.0
97.0	4.0
97.015	2.0
97.03	3.0
97.045	1.0
97.06	6.0
97.075	4.0
97.09	2.0
97.105	2.0
97.12	3.0
97.135	4.0
97.15	2.0
97.165	3.0
97.18	10.0
97.195	4.0
97.21	1.0
97.225	5.0
97.239	4.0
97.254	2.0
97.269	3.0
97.284	3.0
97.299	3.0
97.314	5.0
97.329	5.0
97.344	1.0
97.359	8.0
97.374	4.0
97.389	4.0
97.404	0.0
97.419	2.0
97.434	1.0
97.449	4.0
97.464	1.0
97.479	5.0
97.494	1.0
97.509	1.0
97.524	3.0
97.538	1.0
97.553	2.0
97.568	3.0
97.583	7.0
97.598	6.0
97.613	1.0
97.628	1.0
97.643	4.0
97.658	2.0
97.673	5.0
97.688	6.0
97.703	3.0
97.718	5.0
97.733	4.0
97.748	3.0
97.763	1.0
97.778	4.0
97.792	5.0
97.807	6.0
97.822	4.0
97.837	4.0
97.852	4.0
97.867	3.0
97.882	5.0
97.897	2.0
97.912	3.0
97.927	1.0
97.942	7.0
97.957	4.0
97.972	4.0
97.987	1.0
98.001	2.0
98.016	2.0
98.031	1.0
98.046	2.0
98.061	3.0
98.076	3.0
98.091	6.0
98.106	1.0
98.121	0.0
98.136	4.0
98.151	2.0
98.166	0.0
98.181	2.0
98.195	4.0
98.21	2.0
98.225	5.0
98.24	0.0
98.255	1.0
98.27	2.0
98.285	5.0
98.3	3.0
98.315	2.0
98.33	2.0
98.345	6.0
98.359	4.0
98.374	2.0
98.389	1.0
98.404	2.0
98.419	4.0
98.434	5.0
98.449	3.0
98.464	2.0
98.479	2.0
98.494	5.0
98.508	0.0
98.523	0.0
98.538	4.0
98.553	3.0
98.568	3.0
98.583	5.0
98.598	0.0
98.613	4.0
98.628	3.0
98.642	2.0
98.657	4.0
98.672	3.0
98.687	2.0
98.702	1.0
98.717	5.0
98.732	1.0
98.747	1.0
98.762	3.0
98.776	1.0
98.791	7.0
98.806	3.0
98.821	2.0
98.836	1.0
98.851	1.0
98.866	2.0
98.881	6.0
98.896	0.0
98.91	6.0
98.925	2.0
98.94	4.0
98.955	2.0
98.97	2.0
98.985	1.0
99.0	3.0
99.015	3.0
99.029	3.0
99.044	1.0
99.059	1.0
99.074	0.0
99.089	3.0
99.104	2.0
99.119	0.0
99.133	3.0
99.148	0.0
99.163	1.0
99.178	4.0
99.193	5.0
99.208	3.0
99.223	2.0
99.238	5.0
99.252	1.0
99.267	4.0
99.282	1.0
99.297	6.0
99.312	2.0
99.327	2.0
99.342	1.0
99.356	5.0
99.371	2.0
99.386	6.0
99.401	2.0
99.416	3.0
99.431	1.0
99.446	4.0
99.461	2.0
99.475	3.0
99.49	4.0
99.505	2.0
99.52	1.0
99.535	8.0
99.55	3.0
99.565	1.0
99.579	5.0
99.594	2.0
99.609	1.0
99.624	2.0
99.639	4.0
99.654	3.0
99.669	2.0
99.683	0.0
99.698	5.0
99.713	1.0
99.728	6.0
99.743	4.0
99.758	4.0
99.772	2.0
99.787	3.0
99.802	1.0
99.817	5.0
99.832	2.0
99.847	4.0
99.862	3.0
99.876	1.0
99.891	5.0
99.906	2.0
99.921	1.0
99.936	3.0
99.951	2.0
99.966	3.0
99.98	1.0
99.995	3.0
100.01	3.0
100.025	6.0
100.04	3.0
100.055	4.0
100.069	7.0
100.084	3.0
100.099	2.0
100.114	0.0
100.129	2.0
100.144	4.0
100.159	5.0
100.173	3.0
100.188	2.0
100.203	4.0
100.218	3.0
100.233	6.0
100.248	2.0
100.262	0.0
100.277	6.0
100.292	5.0
100.307	5.0
100.322	1.0
100.337	4.0
100.351	3.0
100.366	2.0
100.381	3.0
100.396	6.0
100.411	4.0
100.426	2.0
100.441	3.0
100.455	5.0
100.47	7.0
100.485	2.0
100.5	6.0
100.515	2.0
100.53	3.0
100.544	6.0
100.559	2.0
100.574	6.0
100.589	2.0
100.604	1.0
100.619	1.0
100.633	2.0
100.648	3.0
100.663	4.0
100.678	6.0
100.693	2.0
100.708	2.0
100.722	7.0
100.737	2.0
100.752	4.0
100.767	3.0
100.782	1.0
100.796	5.0
100.811	3.0
100.826	2.0
100.841	3.0
100.856	2.0
100.871	4.0
100.885	2.0
100.9	6.0
100.915	3.0
100.93	2.0
100.945	0.0
100.96	1.0
100.974	2.0
100.989	1.0
101.004	5.0
101.019	2.0
101.034	2.0
101.048	1.0
101.063	2.0
101.078	4.0
101.093	4.0
101.108	4.0
101.123	3.0
101.137	5.0
101.152	3.0
101.167	3.0
101.182	7.0
101.197	2.0
101.211	7.0
101.226	3.0
101.241	4.0
101.256	2.0
101.271	5.0
101.285	2.0
101.3	5.0
101.315	5.0
101.33	0.0
101.345	2.0
101.359	5.0
101.374	2.0
101.389	2.0
101.404	1.0
101.419	3.0
101.433	3.0
101.448	2.0
101.463	5.0
101.478	2.0
101.493	0.0
101.507	3.0
101.522	3.0
101.537	3.0
101.552	4.0
101.567	4.0
101.581	4.0
101.596	1.0
101.611	2.0
101.626	2.0
101.64	4.0
101.655	3.0
101.67	3.0
101.685	3.0
101.7	2.0
101.714	1.0
101.729	2.0
101.744	3.0
101.759	2.0
101.773	2.0
101.788	3.0
101.803	6.0
101.818	3.0
101.833	0.0
101.847	1.0
101.862	4.0
101.877	7.0
101.892	4.0
101.906	4.0
101.921	2.0
101.936	1.0
101.951	3.0
101.965	4.0
101.98	3.0
101.995	4.0
102.01	1.0
102.025	1.0
102.039	3.0
102.054	4.0
102.069	2.0
102.084	3.0
102.098	3.0
102.113	8.0
102.128	4.0
102.143	2.0
102.157	2.0
102.172	3.0
102.187	1.0
102.202	5.0
102.216	2.0
102.231	7.0
102.246	2.0
102.261	3.0
102.275	0.0
102.29	5.0
102.305	3.0
102.32	4.0
102.334	4.0
102.349	3.0
102.364	4.0
102.378	3.0
102.393	4.0
102.408	1.0
102.423	1.0
102.437	1.0
102.452	2.0
102.467	3.0
102.482	1.0
102.496	4.0
102.511	3.0
102.526	2.0
102.541	0.0
102.555	2.0
102.57	1.0
102.585	5.0
102.6	3.0
102.614	3.0
102.629	4.0
102.644	4.0
102.659	2.0
102.673	6.0
102.688	3.0
102.703	7.0
102.717	2.0
102.732	4.0
102.747	3.0
102.762	5.0
102.776	5.0
102.791	7.0
102.806	6.0
102.821	1.0
102.835	4.0
102.85	4.0
102.865	1.0
102.88	0.0
102.894	8.0
102.909	4.0
102.924	4.0
102.938	6.0
102.953	4.0
102.968	4.0
102.983	3.0
102.997	3.0
103.012	4.0
103.027	6.0
103.042	2.0
103.056	2.0
103.071	3.0
103.086	3.0
103.101	2.0
103.115	5.0
103.13	0.0
103.145	2.0
103.16	2.0
103.174	5.0
103.189	1.0
103.204	4.0
103.219	4.0
103.233	4.0
103.248	4.0
103.263	0.0
103.278	5.0
103.292	3.0
103.307	3.0
103.322	3.0
103.337	3.0
103.351	3.0
103.366	6.0
103.381	2.0
103.396	2.0
103.41	3.0
103.425	3.0
103.44	2.0
103.455	3.0
103.469	3.0
103.484	2.0
103.499	2.0
103.514	4.0
103.529	2.0
103.543	3.0
103.558	3.0
103.573	3.0
103.588	1.0
103.602	2.0
103.617	5.0
103.632	3.0
103.647	4.0
103.661	2.0
103.676	7.0
103.691	2.0
103.706	5.0
103.721	6.0
103.735	7.0
103.75	2.0
103.765	1.0
103.78	2.0
103.795	3.0
103.809	2.0
103.824	3.0
103.839	3.0
103.854	2.0
103.869	3.0
103.883	2.0
103.898	3.0
103.913	3.0
103.928	1.0
103.943	1.0
103.957	6.0
103.972	4.0
103.987	3.0
104.002	4.0
104.017	2.0
104.031	6.0
104.046	7.0
104.061	2.0
104.076	1.0
104.091	1.0
104.106	1.0
104.12	2.0
104.135	3.0
104.15	3.0
104.165	4.0
104.18	1.0
104.195	5.0
104.209	1.0
104.224	4.0
104.239	4.0
104.254	2.0
104.269	1.0
104.284	4.0
104.299	2.0
104.313	3.0
104.328	3.0
104.343	0.0
104.358	2.0
104.373	0.0
104.388	2.0
104.403	6.0
104.417	2.0
104.432	1.0
104.447	5.0
104.462	1.0
104.477	3.0
104.492	1.0
104.507	3.0
104.522	3.0
104.536	1.0
104.551	4.0
104.566	7.0
104.581	5.0
104.596	3.0
104.611	3.0
104.626	3.0
104.641	4.0
104.656	6.0
104.67	6.0
104.685	3.0
104.7	1.0
104.715	5.0
104.73	0.0
104.745	3.0
104.76	3.0
104.775	4.0
104.79	2.0
104.804	2.0
104.819	2.0
104.834	6.0
104.849	4.0
104.864	1.0
104.879	4.0
104.894	3.0
104.909	1.0
104.924	2.0
104.939	4.0
104.954	1.0
104.968	7.0
104.983	1.0
104.998	1.0
105.013	1.0
105.028	3.0
105.043	4.0
105.058	3.0
105.073	4.0
105.088	3.0
105.103	6.0
105.118	3.0
105.133	7.0
105.147	3.0
105.162	3.0
105.177	3.0
105.192	6.0
105.207	5.0
105.222	4.0
105.237	4.0
105.252	3.0
105.267	3.0
105.282	3.0
105.297	4.0
105.312	2.0
105.327	4.0
105.342	5.0
105.356	6.0
105.371	2.0
105.386	2.0
105.401	3.0
105.416	3.0
105.431	1.0
105.446	7.0
105.461	7.0
105.476	5.0
105.491	2.0
105.506	4.0
105.521	5.0
105.536	2.0
105.551	4.0
105.566	2.0
105.581	3.0
105.595	6.0
105.61	2.0
105.625	0.0
105.64	5.0
105.655	5.0
105.67	5.0
105.685	1.0
105.7	4.0
105.715	3.0
105.73	1.0
105.745	4.0
105.76	2.0
105.775	1.0
105.79	4.0
105.805	0.0
105.82	2.0
105.835	2.0
105.85	0.0
105.864	2.0
105.879	3.0
105.894	4.0
105.909	2.0
105.924	3.0
105.939	4.0
105.954	3.0
105.969	2.0
105.984	6.0
105.999	5.0
106.014	2.0
106.029	3.0
106.044	1.0
106.059	4.0
106.074	2.0
106.089	1.0
106.104	4.0
106.119	4.0
106.134	4.0
106.148	3.0
106.163	2.0
106.178	1.0
106.193	6.0
106.208	2.0
106.223	2.0
106.238	2.0
106.253	1.0
106.268	3.0
106.283	1.0
106.298	0.0
106.313	0.0
106.328	4.0
106.343	1.0
106.358	3.0
106.373	4.0
106.388	6.0
106.403	3.0
106.418	3.0
106.432	3.0
106.447	4.0
106.462	5.0
106.477	3.0
106.492	5.0
106.507	4.0
106.522	1.0
106.537	4.0
106.552	1.0
106.567	4.0
106.582	1.0
106.597	2.0
106.612	2.0
106.627	4.0
106.642	4.0
106.657	4.0
106.672	1.0
106.687	2.0
106.701	2.0
106.716	3.0
106.731	2.0
106.746	4.0
106.761	4.0
106.776	6.0
106.791	6.0
106.806	4.0
106.821	5.0
106.836	2.0
106.851	2.0
106.866	4.0
106.881	1.0
106.896	4.0
106.911	4.0
106.926	2.0
106.941	6.0
106.955	3.0
106.97	3.0
106.985	5.0
107.0	2.0
107.015	1.0
107.03	3.0
107.045	2.0
107.06	4.0
107.075	7.0
107.09	2.0
107.105	4.0
107.12	4.0
107.135	1.0
107.15	3.0
107.165	3.0
107.18	3.0
107.194	2.0
107.209	3.0
107.224	9.0
107.239	3.0
107.254	6.0
107.269	3.0
107.284	6.0
107.299	6.0
107.314	2.0
107.329	5.0
107.344	1.0
107.359	3.0
107.374	1.0
107.389	2.0
107.404	2.0
107.418	4.0
107.433	3.0
107.448	1.0
107.463	3.0
107.478	1.0
107.493	2.0
107.508	4.0
107.523	4.0
107.538	2.0
107.553	5.0
107.568	1.0
107.583	3.0
107.598	2.0
107.613	2.0
107.627	3.0
107.642	3.0
107.657	3.0
107.672	1.0
107.687	1.0
107.702	2.0
107.717	3.0
107.732	1.0
107.747	1.0
107.762	4.0
107.777	4.0
107.792	2.0
107.807	3.0
107.821	2.0
107.836	6.0
107.851	5.0
107.866	3.0
107.881	4.0
107.896	3.0
107.911	3.0
107.926	3.0
107.941	2.0
107.956	3.0
107.971	2.0
107.986	6.0
108.0	3.0
108.015	4.0
108.03	4.0
108.045	4.0
108.06	3.0
108.075	2.0
108.09	4.0
108.105	4.0
108.12	3.0
108.135	2.0
108.15	8.0
108.164	8.0
108.179	2.0
108.194	3.0
108.209	4.0
108.224	1.0
108.239	4.0
108.254	4.0
108.269	3.0
108.284	4.0
108.299	2.0
108.313	5.0
108.328	1.0
108.343	1.0
108.358	4.0
108.373	4.0
108.388	5.0
108.403	3.0
108.418	4.0
108.433	4.0
108.448	2.0
108.462	3.0
108.477	3.0
108.492	2.0
108.507	3.0
108.522	2.0
108.537	1.0
108.552	5.0
108.567	6.0
108.582	1.0
108.597	4.0
108.611	2.0
108.626	1.0
108.641	5.0
108.656	4.0
108.671	2.0
108.686	3.0
108.701	1.0
108.716	3.0
108.731	7.0
108.745	5.0
108.76	1.0
108.775	4.0
108.79	0.0
108.805	1.0
108.82	4.0
108.835	2.0
108.85	4.0
108.865	5.0
108.879	1.0
108.894	4.0
108.909	4.0
108.924	2.0
108.939	4.0
108.954	5.0
108.969	3.0
108.984	3.0
108.999	2.0
109.013	5.0
109.028	3.0
109.043	4.0
109.058	4.0
109.073	3.0
109.088	2.0
109.103	2.0
109.118	5.0
109.133	2.0
109.147	3.0
109.162	1.0
109.177	4.0
109.192	2.0
109.207	3.0
109.222	9.0
109.237	2.0
109.252	2.0
109.267	1.0
109.281	7.0
109.296	2.0
109.311	3.0
109.326	5.0
109.341	5.0
109.356	1.0
109.371	3.0
109.386	2.0
109.4	1.0
109.415	4.0
109.43	3.0
109.445	2.0
109.46	5.0
109.475	4.0
109.49	3.0
109.505	3.0
109.52	5.0
109.534	5.0
109.549	4.0
109.564	2.0
109.579	3.0
109.594	3.0
109.609	6.0
109.624	3.0
109.639	1.0
109.653	3.0
109.668	3.0
109.683	2.0
109.698	1.0
109.713	5.0
109.728	4.0
109.743	1.0
109.758	2.0
109.773	4.0
109.787	4.0
109.802	7.0
109.817	4.0
109.832	3.0
109.847	4.0
109.862	0.0
109.877	4.0
109.892	6.0
109.907	4.0
109.921	4.0
109.936	3.0
109.951	3.0
109.966	3.0
109.981	0.0
109.996	1.0
110.011	4.0
110.026	2.0
110.04	1.0
110.055	1.0
110.07	5.0
110.085	2.0
110.1	3.0
110.115	1.0
110.13	3.0
110.145	3.0
110.16	1.0
110.174	3.0
110.189	4.0
110.204	5.0
110.219	1.0
110.234	4.0
110.249	3.0
110.264	0.0
110.279	1.0
110.294	2.0
110.308	2.0
110.323	5.0
110.338	6.0
110.353	1.0
110.368	6.0
110.383	4.0
110.398	3.0
110.413	4.0
110.428	2.0
110.442	2.0
110.457	2.0
110.472	4.0
110.487	2.0
110.502	3.0
110.517	1.0
110.532	3.0
110.547	3.0
110.561	4.0
110.576	4.0
110.591	5.0
110.606	4.0
110.621	0.0
110.636	2.0
110.651	5.0
110.666	5.0
110.681	4.0
110.695	3.0
110.71	3.0
110.725	6.0
110.74	6.0
110.755	2.0
110.77	5.0
110.785	4.0
110.8	6.0
110.815	4.0
110.829	1.0
110.844	2.0
110.859	1.0
110.874	4.0
110.889	4.0
110.904	4.0
110.919	2.0
110.934	4.0
110.948	3.0
110.963	2.0
110.978	2.0
110.993	5.0
111.008	2.0
111.023	2.0
111.038	2.0
111.053	2.0
111.067	6.0
111.082	7.0
111.097	4.0
111.112	4.0
111.127	3.0
111.142	3.0
111.157	4.0
111.172	3.0
111.186	2.0
111.201	2.0
111.216	1.0
111.231	3.0
111.246	6.0
111.261	1.0
111.276	6.0
111.291	2.0
111.305	1.0
111.32	4.0
111.335	6.0
111.35	2.0
111.365	1.0
111.38	2.0
111.395	4.0
111.41	2.0
111.424	4.0
111.439	3.0
111.454	3.0
111.469	3.0
111.484	4.0
111.499	0.0
111.514	1.0
111.528	2.0
111.543	4.0
111.558	1.0
111.573	4.0
111.588	4.0
111.603	5.0
111.618	4.0
111.633	3.0
111.647	3.0
111.662	4.0
111.677	3.0
111.692	6.0
111.707	5.0
111.722	7.0
111.737	4.0
111.751	5.0
111.766	6.0
111.781	2.0
111.796	0.0
111.811	4.0
111.826	6.0
111.84	2.0
111.855	5.0
111.87	6.0
111.885	5.0
111.9	5.0
111.915	3.0
111.93	3.0
111.944	0.0
111.959	4.0
111.974	0.0
111.989	1.0
112.004	2.0
112.019	6.0
112.033	2.0
112.048	2.0
112.063	6.0
112.078	3.0
112.093	3.0
112.108	5.0
112.123	4.0
112.137	6.0
112.152	4.0
112.167	5.0
112.182	4.0
112.197	2.0
112.212	4.0
112.226	2.0
112.241	4.0
112.256	1.0
112.271	1.0
112.286	0.0
112.301	2.0
112.315	1.0
112.33	4.0
112.345	1.0
112.36	7.0
112.375	4.0
112.389	5.0
112.404	2.0
112.419	3.0
112.434	4.0
112.449	5.0
112.464	0.0
112.478	2.0
112.493	3.0
112.508	3.0
112.523	3.0
112.538	2.0
112.553	3.0
112.567	3.0
112.582	4.0
112.597	2.0
112.612	2.0
112.627	3.0
112.642	4.0
112.656	6.0
112.671	2.0
112.686	6.0
112.701	5.0
112.716	3.0
112.73	5.0
112.745	3.0
112.76	6.0
112.775	0.0
112.79	7.0
112.805	4.0
112.819	6.0
112.834	3.0
112.849	2.0
112.864	3.0
112.879	6.0
112.894	1.0
112.908	4.0
112.923	5.0
112.938	4.0
112.953	3.0
112.968	3.0
112.983	4.0
112.997	2.0
113.012	7.0
113.027	5.0
113.042	1.0
113.057	1.0
113.072	4.0
113.086	2.0
113.101	1.0
113.116	6.0
113.131	2.0
113.146	4.0
113.161	1.0
113.175	2.0
113.19	5.0
113.205	4.0
113.22	3.0
113.235	5.0
113.25	1.0
113.265	2.0
113.279	7.0
113.294	5.0
113.309	7.0
113.324	1.0
113.339	5.0
113.354	7.0
113.368	5.0
113.383	5.0
113.398	3.0
113.413	1.0
113.428	6.0
113.443	1.0
113.458	4.0
113.472	5.0
113.487	5.0
113.502	3.0
113.517	3.0
113.532	3.0
113.547	1.0
113.562	1.0
113.576	3.0
113.591	6.0
113.606	3.0
113.621	4.0
113.636	3.0
113.651	3.0
113.666	0.0
113.681	2.0
113.695	2.0
113.71	4.0
113.725	4.0
113.74	6.0
113.755	4.0
113.77	6.0
113.785	3.0
113.8	2.0
113.814	3.0
113.829	0.0
113.844	9.0
113.859	6.0
113.874	2.0
113.889	5.0
113.904	3.0
113.919	2.0
113.934	3.0
113.949	2.0
113.963	2.0
113.978	3.0
113.993	1.0
114.008	3.0
114.023	2.0
114.038	4.0
114.053	6.0
114.068	3.0
114.083	1.0
114.098	2.0
114.113	7.0
114.127	4.0
114.142	6.0
114.157	2.0
114.172	2.0
114.187	4.0
114.202	3.0
114.217	5.0
114.232	2.0
114.247	2.0
114.262	3.0
114.277	5.0
114.292	3.0
114.307	5.0
114.322	3.0
114.337	2.0
114.351	3.0
114.366	2.0
114.381	6.0
114.396	5.0
114.411	3.0
114.426	5.0
114.441	3.0
114.456	4.0
114.471	3.0
114.486	2.0
114.501	3.0
114.516	6.0
114.531	3.0
114.546	3.0
114.561	4.0
114.576	3.0
114.591	3.0
114.606	5.0
114.621	4.0
114.636	4.0
114.65	5.0
114.665	2.0
114.68	6.0
114.695	3.0
114.71	4.0
114.725	2.0
114.74	10.0
114.755	2.0
114.77	4.0
114.785	2.0
114.8	4.0
114.815	0.0
114.83	1.0
114.845	5.0
114.86	0.0
114.875	2.0
114.89	2.0
114.905	6.0
114.92	2.0
114.935	1.0
114.95	0.0
114.965	4.0
114.98	5.0
114.995	5.0
115.009	7.0
115.024	2.0
115.039	4.0
115.054	4.0
115.069	1.0
115.084	6.0
115.099	1.0
115.114	2.0
115.129	5.0
115.144	3.0
115.159	5.0
115.174	3.0
115.189	4.0
115.204	2.0
115.219	5.0
115.234	3.0
115.249	5.0
115.264	4.0
115.279	4.0
115.294	6.0
115.309	4.0
115.323	3.0
115.338	5.0
115.353	5.0
115.368	2.0
115.383	2.0
115.398	3.0
115.413	4.0
115.428	3.0
115.443	4.0
115.458	5.0
115.473	1.0
115.488	1.0
115.503	6.0
115.518	2.0
115.533	6.0
115.548	8.0
115.562	5.0
115.577	1.0
115.592	4.0
115.607	4.0
115.622	2.0
115.637	3.0
115.652	0.0
115.667	2.0
115.682	8.0
115.697	5.0
115.712	8.0
115.727	3.0
115.741	1.0
115.756	2.0
115.771	3.0
115.786	4.0
115.801	0.0
115.816	0.0
115.831	1.0
115.846	7.0
115.861	1.0
115.875	4.0
115.89	2.0
115.905	3.0
115.92	7.0
115.935	3.0
115.95	5.0
115.965	5.0
115.98	4.0
115.995	2.0
116.009	6.0
116.024	6.0
116.039	3.0
116.054	4.0
116.069	1.0
116.084	7.0
116.099	5.0
116.113	3.0
116.128	2.0
116.143	2.0
116.158	8.0
116.173	4.0
116.188	2.0
116.202	3.0
116.217	3.0
116.232	6.0
116.247	4.0
116.262	5.0
116.277	7.0
116.291	9.0
116.306	1.0
116.321	6.0
116.336	3.0
116.351	5.0
116.366	3.0
116.38	4.0
116.395	1.0
116.41	4.0
116.425	4.0
116.44	3.0
116.454	2.0
116.469	2.0
116.484	5.0
116.499	2.0
116.514	6.0
116.528	6.0
116.543	3.0
116.558	5.0
116.573	3.0
116.588	0.0
116.602	4.0
116.617	2.0
116.632	2.0
116.647	4.0
116.662	4.0
116.676	4.0
116.691	7.0
116.706	5.0
116.721	0.0
116.735	3.0
116.75	2.0
116.765	6.0
116.78	1.0
116.795	6.0
116.809	4.0
116.824	1.0
116.839	5.0
116.854	5.0
116.868	2.0
116.883	2.0
116.898	6.0
116.913	2.0
116.927	3.0
116.942	1.0
116.957	1.0
116.972	5.0
116.986	2.0
117.001	3.0
117.016	2.0
117.031	5.0
117.045	6.0
117.06	6.0
117.075	3.0
117.09	7.0
117.104	8.0
117.119	4.0
117.134	2.0
117.149	6.0
117.163	5.0
117.178	7.0
117.193	5.0
117.208	8.0
117.222	5.0
117.237	9.0
117.252	1.0
117.267	5.0
117.281	5.0
117.296	4.0
117.311	3.0
117.325	5.0
117.34	4.0
117.355	11.0
117.37	1.0
117.384	6.0
117.399	5.0
117.414	2.0
117.429	5.0
117.443	0.0
117.458	3.0
117.473	3.0
117.487	5.0
117.502	4.0
117.517	4.0
117.532	6.0
117.546	0.0
117.561	4.0
117.576	6.0
117.59	2.0
117.605	2.0
117.62	3.0
117.635	3.0
117.649	1.0
117.664	5.0
117.679	1.0
117.693	6.0
117.708	6.0
117.723	5.0
117.738	6.0
117.752	4.0
117.767	1.0
117.782	3.0
117.796	5.0
117.811	4.0
117.826	2.0
117.841	2.0
117.855	4.0
117.87	3.0
117.885	0.0
117.899	5.0
117.914	1.0
117.929	5.0
117.944	4.0
117.958	5.0
117.973	1.0
117.988	3.0
118.002	2.0
118.017	5.0
118.032	4.0
118.047	1.0
118.062	1.0
118.077	2.0
118.092	6.0
118.107	5.0
118.121	3.0
118.136	0.0
118.151	4.0
118.166	2.0
118.181	6.0
118.196	7.0
118.211	2.0
118.225	1.0
118.24	1.0
118.255	7.0
118.27	4.0
118.285	5.0
118.3	1.0
118.315	4.0
118.33	2.0
118.344	3.0
118.359	3.0
118.374	4.0
118.389	3.0
118.404	3.0
118.419	4.0
118.434	3.0
118.449	2.0
118.463	4.0
118.478	3.0
118.493	5.0
118.508	3.0
118.523	4.0
118.538	2.0
118.553	5.0
118.567	5.0
118.582	7.0
118.597	3.0
118.612	6.0
118.627	3.0
118.642	5.0
118.657	4.0
118.672	2.0
118.686	5.0
118.701	5.0
118.716	2.0
118.731	5.0
118.746	5.0
118.761	5.0
118.776	10.0
118.791	3.0
118.805	3.0
118.82	2.0
118.835	6.0
118.85	3.0
118.865	2.0
118.88	4.0
118.895	2.0
118.909	6.0
118.924	3.0
118.939	7.0
118.954	4.0
118.969	5.0
118.984	2.0
118.999	4.0
119.014	3.0
119.028	1.0
119.043	3.0
119.058	5.0
119.073	2.0
119.088	2.0
119.103	8.0
119.118	0.0
119.133	4.0
119.147	6.0
119.162	0.0
119.177	6.0
119.192	9.0
119.207	9.0
119.222	5.0
119.237	2.0
119.251	4.0
119.266	2.0
119.281	5.0
119.296	7.0
119.311	5.0
119.326	7.0
119.341	9.0
119.356	4.0
119.37	3.0
119.385	4.0
119.4	3.0
119.415	3.0
119.43	7.0
119.445	5.0
119.46	2.0
119.475	5.0
119.489	2.0
119.504	5.0
119.519	2.0
119.534	2.0
119.549	4.0
119.564	4.0
119.579	6.0
119.593	5.0
119.608	4.0
119.623	2.0
119.638	3.0
119.653	4.0
119.668	3.0
119.683	1.0
119.698	2.0
119.712	3.0
119.727	2.0
119.742	4.0
119.757	5.0
119.772	4.0
119.787	6.0
119.802	1.0
119.817	4.0
119.831	0.0
119.846	1.0
119.861	5.0
119.876	3.0
119.891	1.0
119.906	1.0
119.921	3.0
119.935	4.0
119.95	3.0
119.965	4.0
119.98	3.0
119.995	4.0
120.01	3.0
120.025	2.0
120.04	2.0
120.054	2.0
120.069	1.0
120.084	4.0
120.099	0.0
120.114	3.0
120.129	7.0
120.144	1.0
120.159	0.0
120.173	2.0
120.188	2.0
120.203	2.0
120.218	2.0
120.233	1.0
120.248	3.0
120.263	1.0
120.277	1.0
120.292	1.0
120.307	2.0
120.322	0.0
120.337	0.0
120.352	0.0
120.367	0.0
120.382	0.0
120.396	0.0
120.411	0.0
120.426	0.0
120.441	0.0
120.456	0.0
120.471	0.0
120.486	0.0
120.501	0.0
120.515	0.0
120.53	0.0
120.545	0.0
120.56	0.0
120.575	0.0
120.59	1.0
120.605	0.0
120.619	0.0
120.634	0.0
120.649	0.0
120.664	0.0
120.679	0.0
120.694	1.0
120.709	1.0
120.724	0.0
120.738	0.0
120.753	0.0
120.768	0.0
120.783	0.0
120.798	0.0
120.813	0.0
120.828	0.0
120.843	0.0
120.857	0.0
120.872	0.0
120.887	0.0
120.902	0.0
120.917	0.0
120.932	0.0
120.947	0.0
120.961	0.0
120.976	0.0
