-1.217	0.0
-1.202	0.0
-1.187	0.0
-1.172	0.0
-1.157	0.0
-1.142	0.0
-1.128	0.0
-1.113	0.0
-1.098	0.0
-1.083	0.0
-1.068	0.0
-1.054	0.0
-1.039	0.0
-1.024	0.0
-1.009	0.0
-0.994	0.0
-0.979	0.0
-0.965	0.0
-0.95	0.0
-0.935	0.0
-0.92	0.0
-0.905	0.0
-0.891	0.0
-0.876	0.0
-0.861	0.0
-0.846	0.0
-0.831	0.0
-0.816	0.0
-0.802	0.0
-0.787	0.0
-0.772	0.0
-0.757	0.0
-0.742	0.0
-0.728	0.0
-0.713	0.0
-0.698	0.0
-0.683	0.0
-0.668	0.0
-0.653	0.0
-0.639	0.0
-0.624	0.0
-0.609	0.0
-0.594	0.0
-0.579	0.0
-0.565	0.0
-0.55	0.0
-0.535	0.0
-0.52	0.0
-0.505	0.0
-0.49	0.0
-0.476	0.0
-0.461	0.0
-0.446	0.0
-0.431	0.0
-0.416	0.0
-0.401	0.0
-0.387	1.0
-0.372	0.0
-0.357	0.0
-0.342	0.0
-0.327	0.0
-0.313	0.0
-0.298	0.0
-0.283	0.0
-0.268	0.0
-0.253	0.0
-0.238	0.0
-0.224	0.0
-0.209	0.0
-0.194	0.0
-0.179	0.0
-0.164	0.0
-0.15	0.0
-0.135	0.0
-0.12	0.0
-0.105	0.0
-0.09	0.0
-0.075	0.0
-0.061	0.0
-0.046	0.0
-0.031	0.0
-0.016	0.0
-0.001	0.0
0.013	0.0
0.028	0.0
0.043	0.0
0.058	0.0
0.073	0.0
0.088	0.0
0.102	0.0
0.117	0.0
0.132	0.0
0.147	0.0
0.162	0.0
0.176	0.0
0.191	0.0
0.206	0.0
0.221	0.0
0.236	0.0
0.251	0.0
0.265	0.0
0.28	0.0
0.295	0.0
0.31	0.0
0.325	0.0
0.339	0.0
0.354	0.0
0.369	0.0
0.384	0.0
0.399	0.0
0.414	0.0
0.428	0.0
0.443	0.0
0.458	0.0
0.473	0.0
0.488	0.0
0.502	0.0
0.517	0.0
0.532	0.0
0.547	0.0
0.562	0.0
0.577	0.0
0.591	0.0
0.606	0.0
0.621	0.0
0.636	0.0
0.651	0.0
0.665	0.0
0.68	0.0
0.695	0.0
0.71	0.0
0.725	0.0
0.74	0.0
0.754	0.0
0.769	1.0
0.784	0.0
0.799	0.0
0.814	0.0
0.828	0.0
0.843	0.0
0.858	0.0
0.873	0.0
0.888	0.0
0.903	0.0
0.917	0.0
0.932	0.0
0.947	0.0
0.962	0.0
0.977	1.0
0.991	0.0
1.006	0.0
1.021	0.0
1.036	0.0
1.051	0.0
1.065	0.0
1.08	1.0
1.095	0.0
1.11	0.0
1.125	0.0
1.14	0.0
1.154	0.0
1.169	0.0
1.184	0.0
1.199	0.0
1.214	0.0
1.228	0.0
1.243	0.0
1.258	0.0
1.273	0.0
1.288	0.0
1.302	0.0
1.317	0.0
1.332	0.0
1.347	0.0
1.362	0.0
1.376	0.0
1.391	0.0
1.406	0.0
1.421	0.0
1.436	0.0
1.45	0.0
1.465	0.0
1.48	1.0
1.495	0.0
1.51	1.0
1.524	0.0
1.539	0.0
1.554	0.0
1.569	0.0
1.584	1.0
1.598	0.0
1.613	0.0
1.628	0.0
1.643	0.0
1.658	0.0
1.672	0.0
1.687	0.0
1.702	0.0
1.717	1.0
1.732	0.0
1.746	0.0
1.761	0.0
1.776	1.0
1.791	0.0
1.806	0.0
1.82	1.0
1.835	0.0
1.85	0.0
1.865	0.0
1.88	0.0
1.894	1.0
1.909	2.0
1.924	0.0
1.939	0.0
1.954	0.0
1.968	0.0
1.983	0.0
1.998	0.0
2.013	0.0
2.028	0.0
2.042	0.0
2.057	0.0
2.072	0.0
2.087	0.0
2.101	1.0
2.116	0.0
2.131	0.0
2.146	0.0
2.161	1.0
2.175	0.0
2.19	0.0
2.205	1.0
2.22	0.0
2.235	0.0
2.249	1.0
2.264	0.0
2.279	1.0
2.294	2.0
2.308	0.0
2.323	1.0
2.338	1.0
2.353	0.0
2.368	0.0
2.382	1.0
2.397	1.0
2.412	1.0
2.427	1.0
2.442	1.0
2.456	4.0
2.471	1.0
2.486	1.0
2.501	1.0
2.515	1.0
2.53	4.0
2.545	2.0
2.56	3.0
2.575	0.0
2.589	3.0
2.604	0.0
2.619	1.0
2.634	1.0
2.649	2.0
2.663	2.0
2.678	1.0
2.693	1.0
2.708	1.0
2.722	1.0
2.737	2.0
2.752	2.0
2.767	4.0
2.782	1.0
2.796	5.0
2.811	3.0
2.826	3.0
2.841	5.0
2.856	5.0
2.87	3.0
2.885	3.0
2.9	4.0
2.915	3.0
2.93	4.0
2.944	6.0
2.959	1.0
2.974	6.0
2.989	3.0
3.004	3.0
3.018	4.0
3.033	3.0
3.048	1.0
3.063	4.0
3.078	3.0
3.092	1.0
3.107	3.0
3.122	1.0
3.137	4.0
3.152	3.0
3.166	4.0
3.181	4.0
3.196	6.0
3.211	4.0
3.226	5.0
3.24	7.0
3.255	7.0
3.27	1.0
3.285	5.0
3.3	4.0
3.315	3.0
3.329	3.0
3.344	3.0
3.359	1.0
3.374	6.0
3.389	5.0
3.403	2.0
3.418	1.0
3.433	6.0
3.448	1.0
3.463	10.0
3.478	6.0
3.492	7.0
3.507	6.0
3.522	6.0
3.537	5.0
3.552	3.0
3.567	5.0
3.581	4.0
3.596	6.0
3.611	6.0
3.626	10.0
3.641	4.0
3.656	5.0
3.671	6.0
3.685	5.0
3.7	8.0
3.715	8.0
3.73	4.0
3.745	9.0
3.76	8.0
3.775	7.0
3.789	4.0
3.804	10.0
3.819	2.0
3.834	7.0
3.849	5.0
3.864	6.0
3.879	4.0
3.894	6.0
3.908	6.0
3.923	3.0
3.938	8.0
3.953	7.0
3.968	7.0
3.983	5.0
3.998	7.0
4.013	7.0
4.027	9.0
4.042	5.0
4.057	13.0
4.072	4.0
4.087	8.0
4.102	10.0
4.117	3.0
4.132	6.0
4.147	5.0
4.162	5.0
4.176	7.0
4.191	9.0
4.206	8.0
4.221	8.0
4.236	8.0
4.251	3.0
4.266	7.0
4.281	8.0
4.296	5.0
4.311	8.0
4.326	10.0
4.341	7.0
4.356	8.0
4.37	4.0
4.385	10.0
4.4	4.0
4.415	10.0
4.43	7.0
4.445	4.0
4.46	6.0
4.475	5.0
4.49	5.0
4.505	6.0
4.52	11.0
4.535	10.0
4.55	7.0
4.565	3.0
4.58	7.0
4.595	3.0
4.61	8.0
4.625	6.0
4.639	7.0
4.654	15.0
4.669	8.0
4.684	14.0
4.699	6.0
4.714	10.0
4.729	4.0
4.744	12.0
4.759	14.0
4.774	10.0
4.789	6.0
4.804	9.0
4.819	6.0
4.834	5.0
4.849	9.0
4.864	12.0
4.879	9.0
4.894	9.0
4.909	7.0
4.924	6.0
4.939	7.0
4.954	9.0
4.969	8.0
4.984	5.0
4.999	5.0
5.014	9.0
5.029	8.0
5.044	10.0
5.059	4.0
5.074	10.0
5.089	10.0
5.104	11.0
5.119	7.0
5.134	13.0
5.149	7.0
5.164	6.0
5.179	9.0
5.194	6.0
5.209	8.0
5.224	5.0
5.239	12.0
5.254	5.0
5.269	9.0
5.284	7.0
5.299	10.0
5.314	13.0
5.329	7.0
5.344	11.0
5.359	9.0
5.374	8.0
5.389	12.0
5.404	8.0
5.419	7.0
5.434	11.0
5.449	6.0
5.464	10.0
5.479	2.0
5.494	10.0
5.509	3.0
5.524	9.0
5.539	6.0
5.554	9.0
5.569	9.0
5.584	6.0
5.599	11.0
5.614	4.0
5.629	9.0
5.644	8.0
5.659	8.0
5.674	8.0
5.689	9.0
5.704	12.0
5.719	5.0
5.734	8.0
5.749	6.0
5.764	12.0
5.779	7.0
5.794	13.0
5.809	9.0
5.824	9.0
5.839	9.0
5.854	8.0
5.869	12.0
5.884	5.0
5.899	9.0
5.914	13.0
5.929	7.0
5.944	16.0
5.959	10.0
5.974	7.0
5.989	7.0
6.004	8.0
6.019	6.0
6.034	6.0
6.049	12.0
6.064	10.0
6.079	11.0
6.094	10.0
6.109	13.0
6.124	9.0
6.139	9.0
6.154	17.0
6.169	11.0
6.184	12.0
6.199	11.0
6.214	9.0
6.229	13.0
6.244	10.0
6.259	6.0
6.274	16.0
6.289	5.0
6.304	7.0
6.319	6.0
6.334	10.0
6.349	7.0
6.364	9.0
6.379	11.0
6.394	5.0
6.409	10.0
6.424	4.0
6.439	7.0
6.454	7.0
6.469	7.0
6.484	10.0
6.499	6.0
6.514	16.0
6.529	12.0
6.544	8.0
6.559	7.0
6.574	8.0
6.589	9.0
6.604	13.0
6.619	13.0
6.634	8.0
6.649	6.0
6.664	1.0
6.679	6.0
6.694	12.0
6.709	6.0
6.724	10.0
6.739	9.0
6.754	4.0
6.769	9.0
6.784	3.0
6.799	8.0
6.814	7.0
6.829	7.0
6.844	4.0
6.859	11.0
6.873	6.0
6.888	16.0
6.903	7.0
6.918	12.0
6.933	10.0
6.948	5.0
6.963	11.0
6.978	9.0
6.993	6.0
7.008	3.0
7.023	13.0
7.038	15.0
7.053	11.0
7.068	10.0
7.083	7.0
7.098	6.0
7.113	17.0
7.128	3.0
7.143	7.0
7.157	7.0
7.172	10.0
7.187	16.0
7.202	12.0
7.217	3.0
7.232	14.0
7.247	8.0
7.262	6.0
7.277	7.0
7.292	11.0
7.307	9.0
7.322	14.0
7.336	10.0
7.351	4.0
7.366	13.0
7.381	12.0
7.396	14.0
7.411	11.0
7.426	14.0
7.441	10.0
7.456	8.0
7.471	8.0
7.485	9.0
7.5	3.0
7.515	7.0
7.53	8.0
7.545	8.0
7.56	6.0
7.575	7.0
7.59	3.0
7.604	7.0
7.619	11.0
7.634	4.0
7.649	8.0
7.664	10.0
7.679	5.0
7.693	8.0
7.708	7.0
7.723	13.0
7.738	11.0
7.753	5.0
7.768	8.0
7.783	9.0
7.797	14.0
7.812	5.0
7.827	6.0
7.842	6.0
7.857	11.0
7.871	15.0
7.886	14.0
7.901	5.0
7.916	10.0
7.931	7.0
7.945	10.0
7.96	9.0
7.975	16.0
7.99	8.0
8.005	9.0
8.019	7.0
8.034	13.0
8.049	12.0
8.064	6.0
8.078	5.0
8.093	11.0
8.108	11.0
8.123	12.0
8.137	8.0
8.152	13.0
8.167	10.0
8.182	5.0
8.196	7.0
8.211	7.0
8.226	8.0
8.241	4.0
8.255	7.0
8.27	12.0
8.285	7.0
8.3	8.0
8.314	10.0
8.329	7.0
8.344	12.0
8.358	14.0
8.373	11.0
8.388	2.0
8.403	1.0
8.417	7.0
8.432	9.0
8.447	8.0
8.461	13.0
8.476	7.0
8.491	8.0
8.505	5.0
8.52	8.0
8.535	7.0
8.55	9.0
8.564	8.0
8.579	6.0
8.594	6.0
8.608	3.0
8.623	8.0
8.638	16.0
8.652	10.0
8.667	7.0
8.682	11.0
8.696	9.0
8.711	8.0
8.726	6.0
8.74	9.0
8.755	4.0
8.77	8.0
8.784	12.0
8.799	5.0
8.814	6.0
8.828	13.0
8.843	9.0
8.858	10.0
8.872	9.0
8.887	3.0
8.902	8.0
8.916	9.0
8.931	7.0
8.946	8.0
8.96	6.0
8.975	8.0
8.99	10.0
9.004	12.0
9.019	7.0
9.034	12.0
9.048	8.0
9.063	10.0
9.077	5.0
9.092	6.0
9.107	8.0
9.121	12.0
9.136	7.0
9.151	5.0
9.165	7.0
9.18	2.0
9.195	3.0
9.209	5.0
9.224	10.0
9.239	9.0
9.253	8.0
9.268	6.0
9.283	5.0
9.297	5.0
9.312	12.0
9.327	7.0
9.341	10.0
9.356	7.0
9.371	9.0
9.385	9.0
9.4	3.0
9.415	7.0
9.429	11.0
9.444	7.0
9.458	7.0
9.473	11.0
9.488	1.0
9.502	18.0
9.517	4.0
9.532	4.0
9.546	2.0
9.561	7.0
9.576	7.0
9.59	9.0
9.605	11.0
9.62	8.0
9.635	13.0
9.649	15.0
9.664	5.0
9.679	7.0
9.693	15.0
9.708	9.0
9.723	10.0
9.737	10.0
9.752	5.0
9.767	10.0
9.781	12.0
9.796	11.0
9.811	4.0
9.825	5.0
9.84	8.0
9.855	6.0
9.87	9.0
9.884	3.0
9.899	8.0
9.914	9.0
9.928	5.0
9.943	8.0
9.958	11.0
9.973	8.0
9.987	4.0
10.002	12.0
10.017	9.0
10.031	4.0
10.046	6.0
10.061	6.0
10.076	8.0
10.09	9.0
10.105	9.0
10.12	13.0
10.135	4.0
10.149	16.0
10.164	11.0
10.179	13.0
10.194	2.0
10.208	7.0
10.223	7.0
10.238	10.0
10.253	7.0
10.267	12.0
10.282	8.0
10.297	9.0
10.312	7.0
10.326	8.0
10.341	7.0
10.356	12.0
10.371	10.0
10.386	10.0
10.4	9.0
10.415	7.0
10.43	12.0
10.445	7.0
10.46	10.0
10.474	10.0
10.489	11.0
10.504	8.0
10.519	5.0
10.533	2.0
10.548	7.0
10.563	1.0
10.578	8.0
10.593	10.0
10.608	17.0
10.622	10.0
10.637	8.0
10.652	14.0
10.667	9.0
10.682	10.0
10.696	10.0
10.711	7.0
10.726	8.0
10.741	9.0
10.756	7.0
10.771	5.0
10.785	3.0
10.8	5.0
10.815	9.0
10.83	7.0
10.845	7.0
10.86	12.0
10.874	3.0
10.889	9.0
10.904	6.0
10.919	8.0
10.934	6.0
10.949	13.0
10.963	10.0
10.978	9.0
10.993	7.0
11.008	8.0
11.023	3.0
11.038	5.0
11.053	6.0
11.067	6.0
11.082	5.0
11.097	9.0
11.112	8.0
11.127	8.0
11.142	4.0
11.157	11.0
11.172	8.0
11.186	6.0
11.201	8.0
11.216	12.0
11.231	9.0
11.246	5.0
11.261	8.0
11.276	9.0
11.291	11.0
11.305	6.0
11.32	9.0
11.335	8.0
11.35	4.0
11.365	5.0
11.38	9.0
11.395	8.0
11.41	5.0
11.424	10.0
11.439	8.0
11.454	7.0
11.469	5.0
11.484	8.0
11.499	8.0
11.514	8.0
11.529	10.0
11.544	13.0
11.558	11.0
11.573	3.0
11.588	5.0
11.603	9.0
11.618	7.0
11.633	8.0
11.648	9.0
11.663	10.0
11.678	11.0
11.693	6.0
11.707	11.0
11.722	13.0
11.737	12.0
11.752	8.0
11.767	8.0
11.782	4.0
11.797	12.0
11.812	7.0
11.827	4.0
11.842	5.0
11.856	13.0
11.871	7.0
11.886	9.0
11.901	13.0
11.916	12.0
11.931	12.0
11.946	3.0
11.961	10.0
11.976	2.0
11.991	8.0
12.006	6.0
12.02	7.0
12.035	9.0
12.05	16.0
12.065	4.0
12.08	8.0
12.095	15.0
12.11	6.0
12.125	5.0
12.14	10.0
12.155	7.0
12.17	5.0
12.184	9.0
12.199	11.0
12.214	8.0
12.229	7.0
12.244	10.0
12.259	9.0
12.274	6.0
12.289	5.0
12.304	5.0
12.319	5.0
12.334	8.0
12.348	12.0
12.363	18.0
12.378	7.0
12.393	11.0
12.408	11.0
12.423	9.0
12.438	10.0
12.453	15.0
12.468	18.0
12.483	7.0
12.498	9.0
12.513	11.0
12.527	12.0
12.542	18.0
12.557	12.0
12.572	15.0
12.587	12.0
12.602	10.0
12.617	21.0
12.632	6.0
12.647	5.0
12.662	18.0
12.677	16.0
12.692	18.0
12.707	17.0
12.721	13.0
12.736	15.0
12.751	13.0
12.766	14.0
12.781	17.0
12.796	16.0
12.811	19.0
12.826	9.0
12.841	21.0
12.856	9.0
12.871	14.0
12.886	16.0
12.9	23.0
12.915	16.0
12.93	21.0
12.945	15.0
12.96	17.0
12.975	17.0
12.99	13.0
13.005	14.0
13.02	15.0
13.035	15.0
13.05	16.0
13.065	18.0
13.08	13.0
13.094	18.0
13.109	13.0
13.124	18.0
13.139	15.0
13.154	21.0
13.169	16.0
13.184	17.0
13.199	19.0
13.214	15.0
13.229	20.0
13.244	23.0
13.259	18.0
13.274	18.0
13.288	23.0
13.303	15.0
13.318	22.0
13.333	19.0
13.348	23.0
13.363	24.0
13.378	22.0
13.393	27.0
13.408	23.0
13.423	27.0
13.438	28.0
13.453	35.0
13.468	27.0
13.482	25.0
13.497	35.0
13.512	32.0
13.527	56.0
13.542	49.0
13.557	50.0
13.572	46.0
13.587	49.0
13.602	67.0
13.617	56.0
13.632	72.0
13.647	63.0
13.662	72.0
13.677	89.0
13.691	87.0
13.706	83.0
13.721	93.0
13.736	86.0
13.751	105.0
13.766	114.0
13.781	100.0
13.796	116.0
13.811	138.0
13.826	126.0
13.841	115.0
13.856	112.0
13.871	104.0
13.885	77.0
13.9	84.0
13.915	82.0
13.93	78.0
13.945	57.0
13.96	54.0
13.975	41.0
13.99	38.0
14.005	33.0
14.02	28.0
14.035	25.0
14.05	15.0
14.065	23.0
14.08	28.0
14.094	28.0
14.109	29.0
14.124	23.0
14.139	24.0
14.154	23.0
14.169	21.0
14.184	23.0
14.199	20.0
14.214	22.0
14.229	24.0
14.244	16.0
14.259	15.0
14.274	19.0
14.288	20.0
14.303	24.0
14.318	15.0
14.333	32.0
14.348	20.0
14.363	12.0
14.378	24.0
14.393	21.0
14.408	20.0
14.423	19.0
14.438	20.0
14.453	18.0
14.468	14.0
14.482	18.0
14.497	18.0
14.512	15.0
14.527	12.0
14.542	14.0
14.557	15.0
14.572	13.0
14.587	21.0
14.602	13.0
14.617	15.0
14.632	24.0
14.647	22.0
14.661	18.0
14.676	11.0
14.691	12.0
14.706	15.0
14.721	12.0
14.736	18.0
14.751	10.0
14.766	16.0
14.781	18.0
14.796	18.0
14.811	14.0
14.826	21.0
14.84	17.0
14.855	14.0
14.87	13.0
14.885	14.0
14.9	14.0
14.915	20.0
14.93	17.0
14.945	8.0
14.96	7.0
14.975	13.0
14.989	17.0
15.004	21.0
15.019	13.0
15.034	11.0
15.049	10.0
15.064	9.0
15.079	5.0
15.094	19.0
15.109	23.0
15.124	16.0
15.138	18.0
15.153	15.0
15.168	7.0
15.183	21.0
15.198	10.0
15.213	19.0
15.228	12.0
15.243	12.0
15.258	7.0
15.272	18.0
15.287	13.0
15.302	15.0
15.317	13.0
15.332	12.0
15.347	18.0
15.362	18.0
15.377	14.0
15.391	17.0
15.406	18.0
15.421	16.0
15.436	11.0
15.451	11.0
15.466	17.0
15.481	27.0
15.496	11.0
15.51	15.0
15.525	20.0
15.54	20.0
15.555	14.0
15.57	19.0
15.585	9.0
15.6	16.0
15.614	12.0
15.629	15.0
15.644	14.0
15.659	16.0
15.674	16.0
15.689	12.0
15.704	9.0
15.718	21.0
15.733	14.0
15.748	12.0
15.763	12.0
15.778	11.0
15.793	15.0
15.808	13.0
15.822	11.0
15.837	15.0
15.852	14.0
15.867	11.0
15.882	20.0
15.897	13.0
15.911	17.0
15.926	8.0
15.941	12.0
15.956	13.0
15.971	12.0
15.986	12.0
16.0	17.0
16.015	11.0
16.03	12.0
16.045	15.0
16.06	11.0
16.074	16.0
16.089	12.0
16.104	17.0
16.119	14.0
16.134	13.0
16.149	13.0
16.163	14.0
16.178	16.0
16.193	14.0
16.208	11.0
16.223	16.0
16.237	15.0
16.252	14.0
16.267	13.0
16.282	16.0
16.297	10.0
16.311	17.0
16.326	18.0
16.341	15.0
16.356	14.0
16.37	15.0
16.385	13.0
16.4	17.0
16.415	12.0
16.43	7.0
16.444	9.0
16.459	19.0
16.474	10.0
16.489	13.0
16.504	19.0
16.518	17.0
16.533	21.0
16.548	25.0
16.563	13.0
16.577	15.0
16.592	13.0
16.607	10.0
16.622	18.0
16.637	11.0
16.651	14.0
16.666	32.0
16.681	22.0
16.696	18.0
16.71	24.0
16.725	24.0
16.74	21.0
16.755	27.0
16.77	26.0
16.784	41.0
16.799	41.0
16.814	42.0
16.829	51.0
16.843	56.0
16.858	48.0
16.873	49.0
16.888	67.0
16.902	58.0
16.917	76.0
16.932	73.0
16.947	73.0
16.961	65.0
16.976	75.0
16.991	67.0
17.006	75.0
17.021	55.0
17.035	42.0
17.05	42.0
17.065	48.0
17.08	27.0
17.094	29.0
17.109	35.0
17.124	26.0
17.139	24.0
17.153	16.0
17.168	20.0
17.183	17.0
17.198	13.0
17.212	11.0
17.227	17.0
17.242	12.0
17.257	20.0
17.271	10.0
17.286	13.0
17.301	13.0
17.316	11.0
17.33	11.0
17.345	11.0
17.36	10.0
17.375	15.0
17.39	9.0
17.404	15.0
17.419	9.0
17.434	16.0
17.449	17.0
17.463	14.0
17.478	14.0
17.493	10.0
17.508	8.0
17.522	11.0
17.537	11.0
17.552	8.0
17.567	15.0
17.581	7.0
17.596	12.0
17.611	15.0
17.626	9.0
17.641	17.0
17.655	11.0
17.67	11.0
17.685	16.0
17.7	10.0
17.714	8.0
17.729	13.0
17.744	13.0
17.759	11.0
17.773	11.0
17.788	9.0
17.803	19.0
17.818	9.0
17.833	11.0
17.847	14.0
17.862	10.0
17.877	14.0
17.892	9.0
17.906	11.0
17.921	15.0
17.936	14.0
17.951	12.0
17.966	12.0
17.98	10.0
17.995	19.0
18.01	7.0
18.025	8.0
18.04	14.0
18.054	6.0
18.069	11.0
18.084	7.0
18.099	16.0
18.114	9.0
18.128	8.0
18.143	12.0
18.158	12.0
18.173	8.0
18.188	12.0
18.202	8.0
18.217	16.0
18.232	8.0
18.247	15.0
18.262	9.0
18.276	19.0
18.291	8.0
18.306	8.0
18.321	8.0
18.336	16.0
18.35	13.0
18.365	13.0
18.38	10.0
18.395	17.0
18.41	12.0
18.424	18.0
18.439	11.0
18.454	12.0
18.469	12.0
18.484	14.0
18.498	13.0
18.513	13.0
18.528	15.0
18.543	10.0
18.558	10.0
18.573	9.0
18.587	13.0
18.602	15.0
18.617	5.0
18.632	16.0
18.647	12.0
18.661	8.0
18.676	10.0
18.691	11.0
18.706	13.0
18.721	14.0
18.736	15.0
18.75	5.0
18.765	12.0
18.78	14.0
18.795	9.0
18.81	11.0
18.825	10.0
18.839	15.0
18.854	12.0
18.869	14.0
18.884	11.0
18.899	13.0
18.913	11.0
18.928	12.0
18.943	10.0
18.958	10.0
18.973	10.0
18.988	19.0
19.002	11.0
19.017	18.0
19.032	16.0
19.047	9.0
19.062	13.0
19.077	14.0
19.091	10.0
19.106	15.0
19.121	11.0
19.136	16.0
19.151	14.0
19.165	12.0
19.18	15.0
19.195	6.0
19.21	11.0
19.225	10.0
19.24	17.0
19.254	11.0
19.269	6.0
19.284	12.0
19.299	18.0
19.314	10.0
19.329	14.0
19.343	20.0
19.358	16.0
19.373	16.0
19.388	18.0
19.403	15.0
19.417	25.0
19.432	17.0
19.447	32.0
19.462	19.0
19.477	20.0
19.492	27.0
19.506	33.0
19.521	37.0
19.536	31.0
19.551	42.0
19.566	48.0
19.58	39.0
19.595	45.0
19.61	37.0
19.625	44.0
19.64	47.0
19.655	41.0
19.669	38.0
19.684	26.0
19.699	33.0
19.714	32.0
19.729	19.0
19.743	18.0
19.758	28.0
19.773	18.0
19.788	19.0
19.803	16.0
19.817	18.0
19.832	19.0
19.847	17.0
19.862	13.0
19.877	16.0
19.891	14.0
19.906	15.0
19.921	20.0
19.936	13.0
19.951	20.0
19.965	9.0
19.98	10.0
19.995	12.0
20.01	15.0
20.025	16.0
20.039	13.0
20.054	12.0
20.069	15.0
20.084	12.0
20.099	16.0
20.113	12.0
20.128	17.0
20.143	9.0
20.158	13.0
20.173	16.0
20.187	9.0
20.202	12.0
20.217	10.0
20.232	17.0
20.246	12.0
20.261	13.0
20.276	12.0
20.291	16.0
20.306	13.0
20.32	15.0
20.335	7.0
20.35	8.0
20.365	13.0
20.38	6.0
20.394	14.0
20.409	2.0
20.424	13.0
20.439	10.0
20.453	8.0
20.468	15.0
20.483	15.0
20.498	10.0
20.513	10.0
20.527	6.0
20.542	7.0
20.557	13.0
20.572	9.0
20.586	9.0
20.601	11.0
20.616	6.0
20.631	7.0
20.646	9.0
20.66	10.0
20.675	8.0
20.69	17.0
20.705	7.0
20.719	14.0
20.734	9.0
20.749	9.0
20.764	7.0
20.779	5.0
20.793	11.0
20.808	5.0
20.823	10.0
20.838	13.0
20.853	12.0
20.867	7.0
20.882	11.0
20.897	15.0
20.912	11.0
20.926	10.0
20.941	12.0
20.956	7.0
20.971	16.0
20.986	11.0
21.0	9.0
21.015	10.0
21.03	10.0
21.045	15.0
21.06	11.0
21.074	8.0
21.089	15.0
21.104	16.0
21.119	9.0
21.134	12.0
21.148	10.0
21.163	14.0
21.178	5.0
21.193	16.0
21.208	6.0
21.222	13.0
21.237	14.0
21.252	11.0
21.267	10.0
21.282	11.0
21.296	7.0
21.311	17.0
21.326	6.0
21.341	11.0
21.356	8.0
21.37	5.0
21.385	8.0
21.4	17.0
21.415	12.0
21.43	6.0
21.444	15.0
21.459	16.0
21.474	16.0
21.489	20.0
21.504	5.0
21.519	14.0
21.533	10.0
21.548	14.0
21.563	15.0
21.578	11.0
21.593	19.0
21.608	11.0
21.622	16.0
21.637	17.0
21.652	14.0
21.667	6.0
21.682	17.0
21.697	13.0
21.712	20.0
21.726	27.0
21.741	22.0
21.756	32.0
21.771	33.0
21.786	47.0
21.801	22.0
21.816	60.0
21.83	44.0
21.845	52.0
21.86	63.0
21.875	58.0
21.89	74.0
21.905	71.0
21.92	84.0
21.935	81.0
21.949	57.0
21.964	84.0
21.979	101.0
21.994	65.0
22.009	55.0
22.024	67.0
22.039	63.0
22.054	50.0
22.069	50.0
22.083	50.0
22.098	40.0
22.113	36.0
22.128	37.0
22.143	33.0
22.158	30.0
22.173	12.0
22.188	18.0
22.203	15.0
22.218	17.0
22.233	17.0
22.248	10.0
22.262	11.0
22.277	14.0
22.292	12.0
22.307	21.0
22.322	7.0
22.337	14.0
22.352	17.0
22.367	12.0
22.382	16.0
22.397	19.0
22.412	13.0
22.427	19.0
22.442	11.0
22.457	15.0
22.472	13.0
22.487	18.0
22.502	19.0
22.516	4.0
22.531	12.0
22.546	7.0
22.561	13.0
22.576	12.0
22.591	16.0
22.606	14.0
22.621	12.0
22.636	18.0
22.651	10.0
22.666	10.0
22.681	16.0
22.696	11.0
22.711	11.0
22.726	14.0
22.741	14.0
22.756	16.0
22.771	11.0
22.786	11.0
22.801	18.0
22.816	9.0
22.831	13.0
22.846	11.0
22.861	7.0
22.876	13.0
22.891	10.0
22.906	7.0
22.92	15.0
22.935	9.0
22.95	12.0
22.965	6.0
22.98	7.0
22.995	16.0
23.01	11.0
23.025	10.0
23.04	12.0
23.055	6.0
23.07	9.0
23.085	14.0
23.1	12.0
23.115	7.0
23.13	6.0
23.145	10.0
23.16	5.0
23.175	12.0
23.19	5.0
23.205	11.0
23.22	16.0
23.235	11.0
23.25	13.0
23.265	15.0
23.28	9.0
23.295	12.0
23.31	9.0
23.325	16.0
23.34	14.0
23.355	10.0
23.37	6.0
23.384	6.0
23.399	7.0
23.414	6.0
23.429	9.0
23.444	12.0
23.459	13.0
23.474	18.0
23.489	11.0
23.504	8.0
23.519	12.0
23.534	9.0
23.549	9.0
23.564	10.0
23.579	13.0
23.594	18.0
23.609	12.0
23.624	6.0
23.639	11.0
23.654	9.0
23.668	14.0
23.683	9.0
23.698	9.0
23.713	10.0
23.728	12.0
23.743	12.0
23.758	9.0
23.773	7.0
23.788	12.0
23.803	23.0
23.818	19.0
23.833	20.0
23.848	12.0
23.862	12.0
23.877	16.0
23.892	18.0
23.907	17.0
23.922	22.0
23.937	22.0
23.952	28.0
23.967	30.0
23.982	26.0
23.997	34.0
24.011	42.0
24.026	42.0
24.041	42.0
24.056	43.0
24.071	54.0
24.086	44.0
24.101	37.0
24.116	48.0
24.131	43.0
24.145	37.0
24.16	41.0
24.175	40.0
24.19	32.0
24.205	31.0
24.22	28.0
24.235	36.0
24.249	25.0
24.264	32.0
24.279	21.0
24.294	28.0
24.309	17.0
24.324	14.0
24.338	19.0
24.353	16.0
24.368	14.0
24.383	18.0
24.398	10.0
24.413	12.0
24.428	17.0
24.442	8.0
24.457	12.0
24.472	14.0
24.487	14.0
24.502	12.0
24.516	9.0
24.531	8.0
24.546	12.0
24.561	6.0
24.576	12.0
24.591	14.0
24.605	13.0
24.62	9.0
24.635	15.0
24.65	8.0
24.665	10.0
24.679	9.0
24.694	8.0
24.709	10.0
24.724	10.0
24.739	10.0
24.753	6.0
24.768	9.0
24.783	16.0
24.798	11.0
24.813	10.0
24.827	14.0
24.842	7.0
24.857	12.0
24.872	8.0
24.886	9.0
24.901	12.0
24.916	12.0
24.931	9.0
24.946	5.0
24.96	8.0
24.975	4.0
24.99	8.0
25.005	15.0
25.019	11.0
25.034	12.0
25.049	13.0
25.064	9.0
25.078	15.0
25.093	6.0
25.108	10.0
25.123	14.0
25.138	8.0
25.152	7.0
25.167	10.0
25.182	8.0
25.197	6.0
25.211	11.0
25.226	10.0
25.241	6.0
25.256	12.0
25.27	9.0
25.285	8.0
25.3	10.0
25.315	15.0
25.329	14.0
25.344	9.0
25.359	9.0
25.374	8.0
25.388	11.0
25.403	8.0
25.418	10.0
25.433	12.0
25.447	10.0
25.462	12.0
25.477	10.0
25.492	11.0
25.506	9.0
25.521	9.0
25.536	11.0
25.55	9.0
25.565	11.0
25.58	9.0
25.595	6.0
25.609	9.0
25.624	11.0
25.639	9.0
25.654	10.0
25.668	9.0
25.683	14.0
25.698	7.0
25.713	5.0
25.727	13.0
25.742	10.0
25.757	13.0
25.772	6.0
25.786	9.0
25.801	7.0
25.816	11.0
25.83	13.0
25.845	8.0
25.86	9.0
25.875	11.0
25.889	16.0
25.904	7.0
25.919	12.0
25.934	9.0
25.948	6.0
25.963	12.0
25.978	7.0
25.992	9.0
26.007	12.0
26.022	3.0
26.037	6.0
26.051	8.0
26.066	13.0
26.081	11.0
26.096	9.0
26.11	12.0
26.125	10.0
26.14	6.0
26.155	8.0
26.169	8.0
26.184	6.0
26.199	7.0
26.213	9.0
26.228	11.0
26.243	7.0
26.258	11.0
26.272	6.0
26.287	16.0
26.302	14.0
26.317	5.0
26.331	12.0
26.346	8.0
26.361	12.0
26.376	9.0
26.39	3.0
26.405	7.0
26.42	9.0
26.434	13.0
26.449	7.0
26.464	10.0
26.479	13.0
26.493	9.0
26.508	10.0
26.523	10.0
26.538	9.0
26.552	6.0
26.567	8.0
26.582	10.0
26.597	6.0
26.611	14.0
26.626	9.0
26.641	13.0
26.656	17.0
26.67	9.0
26.685	4.0
26.7	13.0
26.715	9.0
26.729	7.0
26.744	5.0
26.759	12.0
26.773	10.0
26.788	22.0
26.803	9.0
26.818	9.0
26.832	13.0
26.847	9.0
26.862	6.0
26.877	15.0
26.891	9.0
26.906	6.0
26.921	13.0
26.936	8.0
26.95	9.0
26.965	8.0
26.98	16.0
26.995	7.0
27.01	7.0
27.024	9.0
27.039	9.0
27.054	8.0
27.069	5.0
27.083	7.0
27.098	7.0
27.113	6.0
27.128	7.0
27.142	4.0
27.157	11.0
27.172	7.0
27.187	12.0
27.201	10.0
27.216	10.0
27.231	7.0
27.246	8.0
27.261	10.0
27.275	9.0
27.29	9.0
27.305	11.0
27.32	11.0
27.334	10.0
27.349	11.0
27.364	6.0
27.379	8.0
27.394	15.0
27.408	13.0
27.423	13.0
27.438	8.0
27.453	9.0
27.467	5.0
27.482	17.0
27.497	15.0
27.512	8.0
27.527	11.0
27.541	9.0
27.556	14.0
27.571	9.0
27.586	11.0
27.601	4.0
27.615	12.0
27.63	8.0
27.645	14.0
27.66	9.0
27.675	9.0
27.689	15.0
27.704	13.0
27.719	10.0
27.734	18.0
27.749	15.0
27.763	11.0
27.778	15.0
27.793	23.0
27.808	16.0
27.823	21.0
27.838	24.0
27.852	31.0
27.867	24.0
27.882	23.0
27.897	32.0
27.912	30.0
27.926	18.0
27.941	18.0
27.956	12.0
27.971	23.0
27.986	11.0
28.001	14.0
28.015	21.0
28.03	14.0
28.045	18.0
28.06	11.0
28.075	14.0
28.09	19.0
28.105	11.0
28.119	16.0
28.134	9.0
28.149	17.0
28.164	11.0
28.179	8.0
28.194	14.0
28.208	9.0
28.223	10.0
28.238	11.0
28.253	9.0
28.268	8.0
28.283	12.0
28.298	12.0
28.312	8.0
28.327	16.0
28.342	7.0
28.357	7.0
28.372	13.0
28.387	9.0
28.402	8.0
28.417	10.0
28.431	13.0
28.446	11.0
28.461	9.0
28.476	15.0
28.491	14.0
28.506	14.0
28.521	10.0
28.536	14.0
28.55	5.0
28.565	8.0
28.58	9.0
28.595	15.0
28.61	3.0
28.625	6.0
28.64	8.0
28.655	15.0
28.669	6.0
28.684	12.0
28.699	10.0
28.714	7.0
28.729	8.0
28.744	10.0
28.759	12.0
28.774	4.0
28.788	10.0
28.803	13.0
28.818	9.0
28.833	8.0
28.848	12.0
28.863	9.0
28.878	12.0
28.893	11.0
28.908	14.0
28.922	5.0
28.937	13.0
28.952	6.0
28.967	7.0
28.982	14.0
28.997	11.0
29.012	12.0
29.027	8.0
29.041	9.0
29.056	9.0
29.071	10.0
29.086	9.0
29.101	8.0
29.116	13.0
29.131	16.0
29.146	7.0
29.16	6.0
29.175	14.0
29.19	9.0
29.205	13.0
29.22	13.0
29.235	10.0
29.25	13.0
29.265	13.0
29.279	11.0
29.294	8.0
29.309	10.0
29.324	5.0
29.339	10.0
29.354	9.0
29.369	13.0
29.384	16.0
29.398	12.0
29.413	17.0
29.428	20.0
29.443	20.0
29.458	23.0
29.473	18.0
29.488	19.0
29.502	21.0
29.517	33.0
29.532	38.0
29.547	39.0
29.562	31.0
29.577	47.0
29.592	35.0
29.606	42.0
29.621	47.0
29.636	44.0
29.651	48.0
29.666	43.0
29.681	34.0
29.695	35.0
29.71	28.0
29.725	38.0
29.74	37.0
29.755	29.0
29.77	27.0
29.784	33.0
29.799	31.0
29.814	27.0
29.829	27.0
29.844	37.0
29.859	26.0
29.873	15.0
29.888	10.0
29.903	22.0
29.918	10.0
29.933	20.0
29.947	10.0
29.962	16.0
29.977	13.0
29.992	17.0
30.007	11.0
30.021	12.0
30.036	12.0
30.051	11.0
30.066	11.0
30.081	10.0
30.095	17.0
30.11	8.0
30.125	17.0
30.14	13.0
30.155	11.0
30.169	10.0
30.184	12.0
30.199	8.0
30.214	13.0
30.228	15.0
30.243	18.0
30.258	7.0
30.273	9.0
30.288	13.0
30.302	9.0
30.317	9.0
30.332	10.0
30.347	10.0
30.361	8.0
30.376	9.0
30.391	8.0
30.406	7.0
30.42	10.0
30.435	9.0
30.45	9.0
30.465	6.0
30.479	5.0
30.494	8.0
30.509	4.0
30.524	12.0
30.538	19.0
30.553	6.0
30.568	10.0
30.583	8.0
30.597	13.0
30.612	10.0
30.627	11.0
30.641	10.0
30.656	11.0
30.671	7.0
30.686	13.0
30.7	10.0
30.715	12.0
30.73	8.0
30.745	11.0
30.759	7.0
30.774	6.0
30.789	15.0
30.803	10.0
30.818	14.0
30.833	15.0
30.848	9.0
30.862	17.0
30.877	14.0
30.892	10.0
30.906	7.0
30.921	10.0
30.936	7.0
30.951	7.0
30.965	11.0
30.98	12.0
30.995	11.0
31.009	19.0
31.024	12.0
31.039	18.0
31.053	11.0
31.068	16.0
31.083	19.0
31.098	14.0
31.112	19.0
31.127	16.0
31.142	15.0
31.156	28.0
31.171	28.0
31.186	33.0
31.2	27.0
31.215	32.0
31.23	37.0
31.245	33.0
31.259	34.0
31.274	50.0
31.289	42.0
31.303	28.0
31.318	29.0
31.333	31.0
31.347	26.0
31.362	33.0
31.377	27.0
31.392	17.0
31.406	28.0
31.421	21.0
31.436	19.0
31.45	26.0
31.465	35.0
31.48	22.0
31.494	26.0
31.509	24.0
31.524	22.0
31.538	25.0
31.553	11.0
31.568	16.0
31.583	10.0
31.597	11.0
31.612	6.0
31.627	10.0
31.641	8.0
31.656	4.0
31.671	11.0
31.685	8.0
31.7	10.0
31.715	14.0
31.729	8.0
31.744	9.0
31.759	15.0
31.774	10.0
31.788	8.0
31.803	12.0
31.818	5.0
31.832	10.0
31.847	10.0
31.862	12.0
31.876	12.0
31.891	8.0
31.906	15.0
31.92	15.0
31.935	17.0
31.95	9.0
31.965	6.0
31.979	5.0
31.994	7.0
32.009	13.0
32.023	5.0
32.038	12.0
32.053	11.0
32.067	3.0
32.082	13.0
32.097	7.0
32.112	16.0
32.126	5.0
32.141	5.0
32.156	13.0
32.17	11.0
32.185	11.0
32.2	11.0
32.214	6.0
32.229	12.0
32.244	12.0
32.259	13.0
32.273	8.0
32.288	10.0
32.303	13.0
32.317	9.0
32.332	4.0
32.347	11.0
32.362	6.0
32.376	10.0
32.391	8.0
32.406	11.0
32.42	11.0
32.435	12.0
32.45	10.0
32.465	5.0
32.479	7.0
32.494	11.0
32.509	15.0
32.523	17.0
32.538	9.0
32.553	16.0
32.568	12.0
32.582	10.0
32.597	8.0
32.612	15.0
32.627	7.0
32.641	15.0
32.656	16.0
32.671	11.0
32.685	14.0
32.7	12.0
32.715	20.0
32.73	13.0
32.744	19.0
32.759	24.0
32.774	24.0
32.788	17.0
32.803	25.0
32.818	27.0
32.833	22.0
32.847	21.0
32.862	26.0
32.877	16.0
32.892	28.0
32.906	21.0
32.921	18.0
32.936	23.0
32.951	18.0
32.965	26.0
32.98	19.0
32.995	17.0
33.009	9.0
33.024	21.0
33.039	15.0
33.054	20.0
33.068	22.0
33.083	19.0
33.098	9.0
33.113	11.0
33.127	13.0
33.142	14.0
33.157	19.0
33.172	17.0
33.186	5.0
33.201	6.0
33.216	14.0
33.231	9.0
33.245	10.0
33.26	6.0
33.275	5.0
33.29	10.0
33.304	16.0
33.319	9.0
33.334	7.0
33.349	8.0
33.363	10.0
33.378	7.0
33.393	9.0
33.408	9.0
33.422	9.0
33.437	12.0
33.452	13.0
33.467	7.0
33.481	8.0
33.496	6.0
33.511	8.0
33.526	8.0
33.54	11.0
33.555	11.0
33.57	6.0
33.585	15.0
33.599	8.0
33.614	10.0
33.629	11.0
33.644	7.0
33.658	5.0
33.673	7.0
33.688	4.0
33.703	6.0
33.718	14.0
33.732	13.0
33.747	8.0
33.762	7.0
33.777	7.0
33.791	11.0
33.806	15.0
33.821	8.0
33.836	13.0
33.85	11.0
33.865	12.0
33.88	6.0
33.895	6.0
33.91	11.0
33.924	14.0
33.939	6.0
33.954	16.0
33.969	14.0
33.983	11.0
33.998	8.0
34.013	9.0
34.028	6.0
34.042	10.0
34.057	9.0
34.072	6.0
34.087	12.0
34.102	9.0
34.116	9.0
34.131	11.0
34.146	12.0
34.161	15.0
34.175	7.0
34.19	11.0
34.205	12.0
34.22	10.0
34.235	8.0
34.249	8.0
34.264	16.0
34.279	17.0
34.294	10.0
34.309	6.0
34.323	13.0
34.338	6.0
34.353	11.0
34.368	20.0
34.382	11.0
34.397	9.0
34.412	18.0
34.427	18.0
34.442	11.0
34.456	11.0
34.471	9.0
34.486	9.0
34.501	12.0
34.516	13.0
34.53	12.0
34.545	15.0
34.56	11.0
34.575	13.0
34.59	13.0
34.604	9.0
34.619	8.0
34.634	7.0
34.649	7.0
34.664	11.0
34.678	12.0
34.693	15.0
34.708	4.0
34.723	11.0
34.738	11.0
34.752	12.0
34.767	3.0
34.782	8.0
34.797	5.0
34.812	3.0
34.826	10.0
34.841	10.0
34.856	8.0
34.871	7.0
34.886	5.0
34.9	12.0
34.915	13.0
34.93	4.0
34.945	10.0
34.96	10.0
34.974	7.0
34.989	7.0
35.004	8.0
35.019	11.0
35.034	11.0
35.048	9.0
35.063	14.0
35.078	12.0
35.093	16.0
35.108	9.0
35.122	11.0
35.137	11.0
35.152	5.0
35.167	5.0
35.182	2.0
35.196	6.0
35.211	8.0
35.226	7.0
35.241	7.0
35.256	9.0
35.27	5.0
35.285	14.0
35.3	9.0
35.315	11.0
35.33	9.0
35.344	9.0
35.359	8.0
35.374	10.0
35.389	8.0
35.404	11.0
35.418	6.0
35.433	9.0
35.448	12.0
35.463	13.0
35.478	9.0
35.493	13.0
35.507	11.0
35.522	5.0
35.537	9.0
35.552	8.0
35.567	9.0
35.581	13.0
35.596	11.0
35.611	11.0
35.626	14.0
35.641	12.0
35.655	11.0
35.67	13.0
35.685	16.0
35.7	14.0
35.715	14.0
35.729	13.0
35.744	16.0
35.759	16.0
35.774	20.0
35.789	17.0
35.804	18.0
35.818	13.0
35.833	13.0
35.848	17.0
35.863	15.0
35.878	17.0
35.892	13.0
35.907	9.0
35.922	18.0
35.937	13.0
35.952	19.0
35.966	10.0
35.981	18.0
35.996	8.0
36.011	9.0
36.026	18.0
36.04	15.0
36.055	9.0
36.07	10.0
36.085	7.0
36.1	8.0
36.114	6.0
36.129	6.0
36.144	12.0
36.159	10.0
36.174	6.0
36.189	5.0
36.203	8.0
36.218	7.0
36.233	7.0
36.248	7.0
36.263	10.0
36.277	4.0
36.292	12.0
36.307	10.0
36.322	13.0
36.337	9.0
36.351	9.0
36.366	7.0
36.381	5.0
36.396	8.0
36.411	7.0
36.426	8.0
36.44	10.0
36.455	5.0
36.47	7.0
36.485	9.0
36.5	6.0
36.514	8.0
36.529	11.0
36.544	9.0
36.559	9.0
36.574	7.0
36.589	13.0
36.603	7.0
36.618	10.0
36.633	11.0
36.648	8.0
36.663	7.0
36.677	10.0
36.692	6.0
36.707	6.0
36.722	5.0
36.737	6.0
36.752	4.0
36.766	8.0
36.781	7.0
36.796	7.0
36.811	7.0
36.826	13.0
36.841	8.0
36.855	6.0
36.87	8.0
36.885	9.0
36.9	4.0
36.915	10.0
36.93	13.0
36.944	14.0
36.959	9.0
36.974	4.0
36.989	5.0
37.004	10.0
37.019	7.0
37.033	12.0
37.048	16.0
37.063	24.0
37.078	15.0
37.093	15.0
37.108	20.0
37.123	24.0
37.137	26.0
37.152	16.0
37.167	25.0
37.182	35.0
37.197	33.0
37.212	35.0
37.226	34.0
37.241	16.0
37.256	23.0
37.271	11.0
37.286	18.0
37.301	14.0
37.316	20.0
37.331	20.0
37.345	15.0
37.36	21.0
37.375	19.0
37.39	24.0
37.405	21.0
37.42	17.0
37.435	15.0
37.45	15.0
37.464	22.0
37.479	9.0
37.494	15.0
37.509	13.0
37.524	11.0
37.539	9.0
37.554	15.0
37.569	16.0
37.583	12.0
37.598	8.0
37.613	4.0
37.628	6.0
37.643	9.0
37.658	7.0
37.673	8.0
37.688	6.0
37.703	8.0
37.718	12.0
37.733	3.0
37.747	12.0
37.762	8.0
37.777	10.0
37.792	10.0
37.807	8.0
37.822	4.0
37.837	8.0
37.852	7.0
37.867	5.0
37.882	6.0
37.897	6.0
37.912	5.0
37.927	7.0
37.941	3.0
37.956	11.0
37.971	7.0
37.986	3.0
38.001	7.0
38.016	7.0
38.031	9.0
38.046	5.0
38.061	11.0
38.076	7.0
38.091	10.0
38.106	2.0
38.121	4.0
38.136	12.0
38.151	5.0
38.166	5.0
38.181	8.0
38.196	8.0
38.211	4.0
38.226	6.0
38.241	4.0
38.256	11.0
38.271	1.0
38.285	6.0
38.3	4.0
38.315	5.0
38.33	7.0
38.345	4.0
38.36	3.0
38.375	10.0
38.39	12.0
38.405	7.0
38.42	5.0
38.435	6.0
38.45	4.0
38.465	6.0
38.48	6.0
38.495	5.0
38.51	7.0
38.525	2.0
38.54	7.0
38.555	7.0
38.57	5.0
38.585	5.0
38.6	2.0
38.615	8.0
38.63	4.0
38.645	5.0
38.66	7.0
38.675	6.0
38.69	5.0
38.705	10.0
38.72	8.0
38.735	6.0
38.75	6.0
38.765	3.0
38.78	9.0
38.795	3.0
38.81	8.0
38.825	6.0
38.84	1.0
38.855	8.0
38.87	6.0
38.885	6.0
38.9	2.0
38.915	7.0
38.93	4.0
38.945	5.0
38.96	8.0
38.975	6.0
38.99	5.0
39.005	2.0
39.02	7.0
39.035	5.0
39.05	6.0
39.065	8.0
39.08	5.0
39.095	8.0
39.11	4.0
39.125	8.0
39.14	8.0
39.155	7.0
39.17	5.0
39.185	6.0
39.2	5.0
39.215	3.0
39.23	7.0
39.245	3.0
39.26	4.0
39.275	9.0
39.29	8.0
39.305	5.0
39.32	5.0
39.335	1.0
39.35	4.0
39.365	9.0
39.38	7.0
39.395	9.0
39.409	7.0
39.424	4.0
39.439	4.0
39.454	3.0
39.469	5.0
39.484	6.0
39.499	3.0
39.514	9.0
39.529	5.0
39.544	8.0
39.559	4.0
39.574	4.0
39.589	6.0
39.604	3.0
39.619	4.0
39.634	5.0
39.649	3.0
39.664	2.0
39.678	7.0
39.693	7.0
39.708	7.0
39.723	3.0
39.738	6.0
39.753	7.0
39.768	8.0
39.783	11.0
39.798	7.0
39.813	6.0
39.827	12.0
39.842	11.0
39.857	12.0
39.872	12.0
39.887	8.0
39.902	10.0
39.917	7.0
39.932	4.0
39.947	11.0
39.961	13.0
39.976	8.0
39.991	10.0
40.006	4.0
40.021	7.0
40.036	7.0
40.051	8.0
40.065	7.0
40.08	9.0
40.095	5.0
40.11	7.0
40.125	7.0
40.14	13.0
40.154	8.0
40.169	3.0
40.184	7.0
40.199	7.0
40.214	7.0
40.228	5.0
40.243	6.0
40.258	8.0
40.273	4.0
40.288	6.0
40.302	6.0
40.317	4.0
40.332	4.0
40.347	3.0
40.362	3.0
40.376	4.0
40.391	7.0
40.406	4.0
40.421	3.0
40.436	8.0
40.45	2.0
40.465	8.0
40.48	3.0
40.495	8.0
40.509	5.0
40.524	5.0
40.539	3.0
40.554	4.0
40.568	9.0
40.583	5.0
40.598	6.0
40.613	4.0
40.627	3.0
40.642	8.0
40.657	4.0
40.672	3.0
40.686	6.0
40.701	6.0
40.716	8.0
40.731	5.0
40.745	3.0
40.76	3.0
40.775	7.0
40.79	6.0
40.804	4.0
40.819	3.0
40.834	4.0
40.849	6.0
40.863	4.0
40.878	5.0
40.893	11.0
40.907	9.0
40.922	7.0
40.937	5.0
40.952	10.0
40.966	6.0
40.981	8.0
40.996	7.0
41.011	8.0
41.025	5.0
41.04	5.0
41.055	17.0
41.069	12.0
41.084	16.0
41.099	12.0
41.114	20.0
41.128	21.0
41.143	24.0
41.158	15.0
41.173	24.0
41.187	18.0
41.202	14.0
41.217	15.0
41.231	16.0
41.246	8.0
41.261	9.0
41.276	10.0
41.29	9.0
41.305	14.0
41.32	11.0
41.335	12.0
41.349	15.0
41.364	16.0
41.379	15.0
41.393	9.0
41.408	20.0
41.423	14.0
41.438	19.0
41.452	11.0
41.467	11.0
41.482	10.0
41.497	8.0
41.511	3.0
41.526	7.0
41.541	9.0
41.556	4.0
41.57	4.0
41.585	5.0
41.6	11.0
41.615	9.0
41.629	5.0
41.644	5.0
41.659	5.0
41.674	6.0
41.688	3.0
41.703	4.0
41.718	9.0
41.733	3.0
41.747	4.0
41.762	6.0
41.777	7.0
41.792	5.0
41.806	4.0
41.821	6.0
41.836	5.0
41.851	0.0
41.866	4.0
41.88	8.0
41.895	7.0
41.91	1.0
41.925	6.0
41.939	4.0
41.954	10.0
41.969	4.0
41.984	5.0
41.999	4.0
42.013	2.0
42.028	3.0
42.043	9.0
42.058	6.0
42.073	5.0
42.088	9.0
42.102	7.0
42.117	8.0
42.132	4.0
42.147	7.0
42.162	7.0
42.176	10.0
42.191	8.0
42.206	9.0
42.221	10.0
42.236	5.0
42.251	8.0
42.266	7.0
42.28	7.0
42.295	6.0
42.31	12.0
42.325	7.0
42.34	15.0
42.355	8.0
42.369	20.0
42.384	17.0
42.399	14.0
42.414	12.0
42.429	19.0
42.444	18.0
42.459	15.0
42.474	7.0
42.488	11.0
42.503	16.0
42.518	10.0
42.533	2.0
42.548	3.0
42.563	8.0
42.578	14.0
42.593	10.0
42.608	4.0
42.622	10.0
42.637	13.0
42.652	7.0
42.667	12.0
42.682	13.0
42.697	5.0
42.712	5.0
42.727	9.0
42.742	13.0
42.757	10.0
42.772	7.0
42.786	6.0
42.801	6.0
42.816	5.0
42.831	9.0
42.846	4.0
42.861	9.0
42.876	4.0
42.891	3.0
42.906	7.0
42.921	12.0
42.936	12.0
42.951	4.0
42.966	9.0
42.981	4.0
42.996	0.0
43.011	8.0
43.025	9.0
43.04	3.0
43.055	6.0
43.07	9.0
43.085	8.0
43.1	3.0
43.115	8.0
43.13	3.0
43.145	5.0
43.16	4.0
43.175	5.0
43.19	3.0
43.205	9.0
43.22	3.0
43.235	5.0
43.25	8.0
43.265	5.0
43.28	5.0
43.295	6.0
43.31	7.0
43.325	7.0
43.34	7.0
43.355	6.0
43.37	9.0
43.385	4.0
43.4	4.0
43.415	5.0
43.43	4.0
43.445	12.0
43.46	7.0
43.475	10.0
43.49	8.0
43.505	4.0
43.52	6.0
43.535	3.0
43.55	6.0
43.565	10.0
43.58	9.0
43.595	7.0
43.61	12.0
43.625	9.0
43.64	5.0
43.655	9.0
43.67	9.0
43.685	9.0
43.7	4.0
43.715	4.0
43.73	5.0
43.745	8.0
43.76	11.0
43.775	8.0
43.79	1.0
43.805	3.0
43.82	4.0
43.835	7.0
43.85	10.0
43.865	8.0
43.88	8.0
43.895	5.0
43.91	2.0
43.925	8.0
43.94	8.0
43.955	7.0
43.97	5.0
43.985	8.0
44.0	7.0
44.015	8.0
44.03	7.0
44.045	10.0
44.061	6.0
44.076	10.0
44.091	1.0
44.106	1.0
44.121	4.0
44.136	9.0
44.151	4.0
44.166	6.0
44.181	5.0
44.196	6.0
44.211	6.0
44.226	3.0
44.241	3.0
44.256	8.0
44.271	3.0
44.286	3.0
44.301	3.0
44.316	4.0
44.331	3.0
44.346	2.0
44.361	9.0
44.377	1.0
44.392	2.0
44.407	4.0
44.422	4.0
44.437	9.0
44.452	6.0
44.467	6.0
44.482	3.0
44.497	5.0
44.512	3.0
44.527	4.0
44.542	8.0
44.557	3.0
44.572	8.0
44.587	7.0
44.602	4.0
44.617	5.0
44.632	4.0
44.647	1.0
44.663	7.0
44.678	6.0
44.693	10.0
44.708	11.0
44.723	9.0
44.738	4.0
44.753	11.0
44.768	9.0
44.783	8.0
44.798	14.0
44.813	19.0
44.828	11.0
44.843	9.0
44.858	7.0
44.873	7.0
44.888	6.0
44.903	6.0
44.918	9.0
44.933	5.0
44.948	7.0
44.964	3.0
44.979	7.0
44.994	6.0
45.009	6.0
45.024	4.0
45.039	8.0
45.054	9.0
45.069	10.0
45.084	7.0
45.099	10.0
45.114	6.0
45.129	8.0
45.144	2.0
45.159	8.0
45.174	5.0
45.189	6.0
45.204	5.0
45.219	8.0
45.234	7.0
45.249	3.0
45.264	2.0
45.279	6.0
45.294	2.0
45.309	5.0
45.324	6.0
45.339	3.0
45.354	6.0
45.369	4.0
45.384	5.0
45.399	4.0
45.414	8.0
45.429	8.0
45.444	4.0
45.459	5.0
45.474	3.0
45.489	3.0
45.504	11.0
45.519	2.0
45.534	4.0
45.549	8.0
45.564	3.0
45.579	5.0
45.594	4.0
45.609	7.0
45.624	4.0
45.639	3.0
45.654	8.0
45.669	5.0
45.684	3.0
45.699	8.0
45.714	8.0
45.729	5.0
45.744	4.0
45.759	6.0
45.774	6.0
45.789	8.0
45.804	3.0
45.819	7.0
45.834	12.0
45.849	11.0
45.864	3.0
45.879	5.0
45.894	8.0
45.909	13.0
45.924	12.0
45.939	19.0
45.954	11.0
45.969	24.0
45.984	18.0
45.998	25.0
46.013	11.0
46.028	7.0
46.043	7.0
46.058	9.0
46.073	12.0
46.088	7.0
46.103	4.0
46.118	8.0
46.133	7.0
46.148	6.0
46.163	12.0
46.178	7.0
46.192	14.0
46.207	10.0
46.222	10.0
46.237	7.0
46.252	16.0
46.267	10.0
46.282	11.0
46.297	9.0
46.312	10.0
46.327	12.0
46.341	11.0
46.356	8.0
46.371	7.0
46.386	7.0
46.401	7.0
46.416	9.0
46.431	6.0
46.446	7.0
46.46	7.0
46.475	6.0
46.49	6.0
46.505	5.0
46.52	4.0
46.535	4.0
46.55	4.0
46.564	5.0
46.579	2.0
46.594	5.0
46.609	5.0
46.624	7.0
46.639	6.0
46.654	10.0
46.668	8.0
46.683	3.0
46.698	3.0
46.713	5.0
46.728	4.0
46.743	4.0
46.758	4.0
46.772	10.0
46.787	4.0
46.802	3.0
46.817	1.0
46.832	4.0
46.847	5.0
46.861	4.0
46.876	2.0
46.891	4.0
46.906	4.0
46.921	6.0
46.936	5.0
46.95	4.0
46.965	2.0
46.98	3.0
46.995	3.0
47.01	8.0
47.025	5.0
47.039	6.0
47.054	6.0
47.069	5.0
47.084	7.0
47.099	11.0
47.113	7.0
47.128	13.0
47.143	22.0
47.158	5.0
47.173	10.0
47.188	11.0
47.202	7.0
47.217	13.0
47.232	10.0
47.247	8.0
47.262	9.0
47.277	6.0
47.291	2.0
47.306	8.0
47.321	7.0
47.336	2.0
47.351	5.0
47.365	8.0
47.38	8.0
47.395	8.0
47.41	7.0
47.425	5.0
47.44	6.0
47.454	10.0
47.469	7.0
47.484	4.0
47.499	5.0
47.514	7.0
47.528	7.0
47.543	1.0
47.558	6.0
47.573	9.0
47.588	8.0
47.603	2.0
47.617	3.0
47.632	3.0
47.647	5.0
47.662	5.0
47.677	5.0
47.691	8.0
47.706	7.0
47.721	3.0
47.736	4.0
47.751	4.0
47.766	7.0
47.78	4.0
47.795	2.0
47.81	5.0
47.825	7.0
47.84	10.0
47.855	7.0
47.869	5.0
47.884	3.0
47.899	7.0
47.914	5.0
47.929	3.0
47.944	1.0
47.958	7.0
47.973	0.0
47.988	2.0
48.003	3.0
48.018	7.0
48.033	4.0
48.047	6.0
48.062	6.0
48.077	5.0
48.092	2.0
48.107	8.0
48.122	2.0
48.137	4.0
48.151	4.0
48.166	3.0
48.181	5.0
48.196	6.0
48.211	3.0
48.226	6.0
48.241	2.0
48.255	4.0
48.27	4.0
48.285	5.0
48.3	5.0
48.315	9.0
48.33	7.0
48.345	4.0
48.359	9.0
48.374	7.0
48.389	4.0
48.404	2.0
48.419	4.0
48.434	5.0
48.449	7.0
48.464	3.0
48.478	7.0
48.493	5.0
48.508	6.0
48.523	2.0
48.538	4.0
48.553	8.0
48.568	4.0
48.583	2.0
48.597	6.0
48.612	3.0
48.627	5.0
48.642	5.0
48.657	4.0
48.672	8.0
48.687	4.0
48.702	7.0
48.717	3.0
48.731	9.0
48.746	3.0
48.761	5.0
48.776	5.0
48.791	6.0
48.806	6.0
48.821	5.0
48.836	4.0
48.851	4.0
48.866	7.0
48.88	4.0
48.895	9.0
48.91	4.0
48.925	5.0
48.94	6.0
48.955	5.0
48.97	4.0
48.985	3.0
49.0	1.0
49.015	6.0
49.03	5.0
49.044	4.0
49.059	6.0
49.074	7.0
49.089	6.0
49.104	7.0
49.119	2.0
49.134	6.0
49.149	5.0
49.164	4.0
49.179	6.0
49.194	4.0
49.209	5.0
49.224	4.0
49.238	9.0
49.253	3.0
49.268	5.0
49.283	6.0
49.298	12.0
49.313	4.0
49.328	6.0
49.343	7.0
49.358	5.0
49.373	5.0
49.388	8.0
49.403	6.0
49.418	4.0
49.433	4.0
49.448	9.0
49.463	7.0
49.478	6.0
49.492	8.0
49.507	7.0
49.522	3.0
49.537	7.0
49.552	1.0
49.567	2.0
49.582	6.0
49.597	7.0
49.612	9.0
49.627	4.0
49.642	12.0
49.657	6.0
49.672	9.0
49.687	6.0
49.702	5.0
49.717	10.0
49.732	5.0
49.747	6.0
49.762	4.0
49.777	0.0
49.792	6.0
49.807	7.0
49.822	7.0
49.837	6.0
49.852	7.0
49.867	5.0
49.882	7.0
49.897	1.0
49.912	5.0
49.927	7.0
49.942	0.0
49.957	5.0
49.971	3.0
49.986	6.0
50.001	2.0
50.016	7.0
50.031	5.0
50.046	3.0
50.061	7.0
50.076	5.0
50.091	1.0
50.106	8.0
50.121	5.0
50.136	5.0
50.151	5.0
50.166	8.0
50.181	5.0
50.196	4.0
50.211	5.0
50.226	5.0
50.241	8.0
50.256	5.0
50.271	8.0
50.286	5.0
50.302	2.0
50.317	6.0
50.332	3.0
50.347	7.0
50.362	8.0
50.377	9.0
50.392	6.0
50.407	9.0
50.422	10.0
50.437	6.0
50.452	8.0
50.467	6.0
50.482	4.0
50.497	14.0
50.512	8.0
50.527	4.0
50.542	7.0
50.557	6.0
50.572	7.0
50.587	4.0
50.602	11.0
50.617	4.0
50.632	8.0
50.647	7.0
50.662	3.0
50.677	7.0
50.692	2.0
50.707	5.0
50.722	10.0
50.737	8.0
50.752	7.0
50.767	9.0
50.782	3.0
50.797	0.0
50.812	3.0
50.828	4.0
50.843	3.0
50.858	7.0
50.873	9.0
50.888	5.0
50.903	5.0
50.918	4.0
50.933	0.0
50.948	5.0
50.963	10.0
50.978	5.0
50.993	2.0
51.008	3.0
51.023	7.0
51.038	4.0
51.053	2.0
51.068	2.0
51.083	5.0
51.098	5.0
51.114	6.0
51.129	4.0
51.144	5.0
51.159	8.0
51.174	5.0
51.189	5.0
51.204	3.0
51.219	3.0
51.234	7.0
51.249	7.0
51.264	3.0
51.279	9.0
51.294	5.0
51.309	9.0
51.324	4.0
51.34	4.0
51.355	1.0
51.37	4.0
51.385	7.0
51.4	9.0
51.415	8.0
51.43	9.0
51.445	8.0
51.46	10.0
51.475	14.0
51.49	15.0
51.505	15.0
51.52	20.0
51.535	23.0
51.551	14.0
51.566	24.0
51.581	10.0
51.596	16.0
51.611	14.0
51.626	6.0
51.641	12.0
51.656	8.0
51.671	6.0
51.686	6.0
51.701	10.0
51.716	9.0
51.732	2.0
51.747	9.0
51.762	5.0
51.777	4.0
51.792	5.0
51.807	11.0
51.822	20.0
51.837	9.0
51.852	7.0
51.867	14.0
51.882	10.0
51.898	8.0
51.913	11.0
51.928	7.0
51.943	5.0
51.958	2.0
51.973	4.0
51.988	9.0
52.003	5.0
52.018	4.0
52.033	5.0
52.048	5.0
52.064	6.0
52.079	2.0
52.094	1.0
52.109	4.0
52.124	4.0
52.139	6.0
52.154	3.0
52.169	9.0
52.184	2.0
52.199	5.0
52.215	6.0
52.23	9.0
52.245	3.0
52.26	3.0
52.275	4.0
52.29	7.0
52.305	4.0
52.32	9.0
52.335	4.0
52.35	4.0
52.366	9.0
52.381	4.0
52.396	3.0
52.411	3.0
52.426	3.0
52.441	7.0
52.456	6.0
52.471	5.0
52.486	5.0
52.502	5.0
52.517	4.0
52.532	12.0
52.547	8.0
52.562	8.0
52.577	3.0
52.592	7.0
52.607	10.0
52.622	9.0
52.637	5.0
52.653	9.0
52.668	2.0
52.683	7.0
52.698	10.0
52.713	5.0
52.728	5.0
52.743	4.0
52.758	9.0
52.774	7.0
52.789	5.0
52.804	6.0
52.819	5.0
52.834	5.0
52.849	7.0
52.864	8.0
52.879	9.0
52.894	9.0
52.91	4.0
52.925	6.0
52.94	7.0
52.955	7.0
52.97	15.0
52.985	3.0
53.0	8.0
53.015	4.0
53.031	7.0
53.046	7.0
53.061	7.0
53.076	7.0
53.091	8.0
53.106	7.0
53.121	6.0
53.136	5.0
53.152	6.0
53.167	5.0
53.182	6.0
53.197	6.0
53.212	1.0
53.227	1.0
53.242	2.0
53.257	6.0
53.273	5.0
53.288	3.0
53.303	5.0
53.318	10.0
53.333	4.0
53.348	6.0
53.363	3.0
53.379	2.0
53.394	4.0
53.409	1.0
53.424	6.0
53.439	9.0
53.454	2.0
53.469	7.0
53.484	4.0
53.5	9.0
53.515	5.0
53.53	2.0
53.545	0.0
53.56	2.0
53.575	1.0
53.59	5.0
53.606	8.0
53.621	3.0
53.636	7.0
53.651	7.0
53.666	3.0
53.681	0.0
53.696	4.0
53.712	1.0
53.727	5.0
53.742	2.0
53.757	4.0
53.772	4.0
53.787	4.0
53.802	10.0
53.818	6.0
53.833	5.0
53.848	1.0
53.863	3.0
53.878	5.0
53.893	4.0
53.909	4.0
53.924	10.0
53.939	6.0
53.954	4.0
53.969	3.0
53.984	4.0
53.999	3.0
54.015	1.0
54.03	9.0
54.045	4.0
54.06	5.0
54.075	6.0
54.09	6.0
54.106	2.0
54.121	3.0
54.136	5.0
54.151	3.0
54.166	7.0
54.181	4.0
54.197	3.0
54.212	5.0
54.227	3.0
54.242	5.0
54.257	5.0
54.272	2.0
54.288	8.0
54.303	7.0
54.318	3.0
54.333	4.0
54.348	6.0
54.363	2.0
54.379	3.0
54.394	3.0
54.409	8.0
54.424	6.0
54.439	8.0
54.454	4.0
54.47	3.0
54.485	8.0
54.5	6.0
54.515	4.0
54.53	15.0
54.545	7.0
54.561	8.0
54.576	11.0
54.591	7.0
54.606	17.0
54.621	9.0
54.636	9.0
54.652	13.0
54.667	25.0
54.682	11.0
54.697	10.0
54.712	10.0
54.727	10.0
54.743	8.0
54.758	7.0
54.773	11.0
54.788	8.0
54.803	6.0
54.819	1.0
54.834	6.0
54.849	4.0
54.864	3.0
54.879	7.0
54.894	9.0
54.91	10.0
54.925	5.0
54.94	5.0
54.955	6.0
54.97	11.0
54.985	12.0
55.001	6.0
55.016	2.0
55.031	13.0
55.046	8.0
55.061	6.0
55.077	4.0
55.092	3.0
55.107	6.0
55.122	5.0
55.137	4.0
55.152	4.0
55.168	4.0
55.183	3.0
55.198	6.0
55.213	6.0
55.228	4.0
55.243	6.0
55.259	5.0
55.274	7.0
55.289	10.0
55.304	5.0
55.319	6.0
55.335	3.0
55.35	3.0
55.365	3.0
55.38	5.0
55.395	5.0
55.41	2.0
55.426	8.0
55.441	4.0
55.456	4.0
55.471	4.0
55.486	7.0
55.501	7.0
55.517	4.0
55.532	6.0
55.547	6.0
55.562	5.0
55.577	12.0
55.592	4.0
55.608	7.0
55.623	8.0
55.638	7.0
55.653	7.0
55.668	9.0
55.683	7.0
55.699	4.0
55.714	11.0
55.729	7.0
55.744	1.0
55.759	12.0
55.774	7.0
55.79	4.0
55.805	9.0
55.82	9.0
55.835	2.0
55.85	5.0
55.865	5.0
55.881	0.0
55.896	2.0
55.911	5.0
55.926	8.0
55.941	1.0
55.956	3.0
55.972	3.0
55.987	6.0
56.002	4.0
56.017	8.0
56.032	2.0
56.047	9.0
56.063	3.0
56.078	5.0
56.093	6.0
56.108	5.0
56.123	4.0
56.138	7.0
56.154	5.0
56.169	2.0
56.184	4.0
56.199	2.0
56.214	4.0
56.229	3.0
56.244	8.0
56.26	4.0
56.275	7.0
56.29	6.0
56.305	2.0
56.32	7.0
56.335	3.0
56.351	5.0
56.366	2.0
56.381	6.0
56.396	4.0
56.411	1.0
56.426	3.0
56.441	5.0
56.457	2.0
56.472	4.0
56.487	2.0
56.502	1.0
56.517	7.0
56.532	5.0
56.547	5.0
56.563	5.0
56.578	5.0
56.593	4.0
56.608	5.0
56.623	4.0
56.638	6.0
56.653	8.0
56.668	5.0
56.684	4.0
56.699	6.0
56.714	2.0
56.729	6.0
56.744	3.0
56.759	4.0
56.774	4.0
56.79	6.0
56.805	5.0
56.82	3.0
56.835	6.0
56.85	2.0
56.865	2.0
56.88	3.0
56.895	3.0
56.911	3.0
56.926	2.0
56.941	3.0
56.956	1.0
56.971	2.0
56.986	3.0
57.001	5.0
57.016	5.0
57.031	3.0
57.047	1.0
57.062	5.0
57.077	1.0
57.092	9.0
57.107	5.0
57.122	4.0
57.137	3.0
57.152	2.0
57.167	4.0
57.183	1.0
57.198	3.0
57.213	5.0
57.228	1.0
57.243	6.0
57.258	3.0
57.273	3.0
57.288	1.0
57.303	4.0
57.318	7.0
57.334	7.0
57.349	2.0
57.364	6.0
57.379	4.0
57.394	3.0
57.409	5.0
57.424	7.0
57.439	7.0
57.454	5.0
57.469	9.0
57.484	6.0
57.5	4.0
57.515	2.0
57.53	7.0
57.545	3.0
57.56	7.0
57.575	6.0
57.59	6.0
57.605	7.0
57.62	6.0
57.635	6.0
57.65	5.0
57.665	11.0
57.68	5.0
57.696	2.0
57.711	3.0
57.726	2.0
57.741	9.0
57.756	2.0
57.771	7.0
57.786	9.0
57.801	10.0
57.816	6.0
57.831	4.0
57.846	4.0
57.861	2.0
57.876	2.0
57.891	4.0
57.906	4.0
57.921	1.0
57.937	1.0
57.952	7.0
57.967	9.0
57.982	2.0
57.997	5.0
58.012	4.0
58.027	2.0
58.042	5.0
58.057	3.0
58.072	6.0
58.087	3.0
58.102	4.0
58.117	3.0
58.132	11.0
58.147	9.0
58.162	4.0
58.177	1.0
58.192	3.0
58.207	4.0
58.222	2.0
58.237	7.0
58.252	3.0
58.267	4.0
58.282	6.0
58.297	4.0
58.312	3.0
58.327	6.0
58.342	6.0
58.357	5.0
58.372	7.0
58.387	7.0
58.402	5.0
58.418	5.0
58.433	2.0
58.448	7.0
58.463	1.0
58.478	1.0
58.493	8.0
58.508	5.0
58.523	5.0
58.538	4.0
58.553	3.0
58.568	5.0
58.583	4.0
58.598	11.0
58.613	6.0
58.628	8.0
58.643	7.0
58.658	6.0
58.673	7.0
58.688	7.0
58.703	6.0
58.718	5.0
58.733	5.0
58.748	8.0
58.763	7.0
58.778	5.0
58.793	9.0
58.808	4.0
58.823	6.0
58.838	4.0
58.853	6.0
58.868	4.0
58.883	4.0
58.898	5.0
58.913	6.0
58.928	7.0
58.942	4.0
58.957	5.0
58.972	6.0
58.987	6.0
59.002	8.0
59.017	8.0
59.032	2.0
59.047	8.0
59.062	8.0
59.077	7.0
59.092	7.0
59.107	8.0
59.122	5.0
59.137	4.0
59.152	6.0
59.167	5.0
59.182	4.0
59.197	5.0
59.212	2.0
59.227	5.0
59.242	1.0
59.257	3.0
59.272	2.0
59.287	4.0
59.302	5.0
59.317	5.0
59.332	6.0
59.347	5.0
59.362	4.0
59.377	6.0
59.392	2.0
59.407	5.0
59.422	3.0
59.437	5.0
59.452	3.0
59.467	4.0
59.482	5.0
59.497	7.0
59.512	7.0
59.527	7.0
59.542	6.0
59.557	5.0
59.572	7.0
59.587	7.0
59.602	9.0
59.617	11.0
59.632	7.0
59.647	11.0
59.661	4.0
59.676	11.0
59.691	4.0
59.706	4.0
59.721	8.0
59.736	3.0
59.751	8.0
59.766	4.0
59.781	5.0
59.796	4.0
59.811	4.0
59.826	3.0
59.841	5.0
59.856	5.0
59.871	5.0
59.886	3.0
59.901	5.0
59.916	4.0
59.931	9.0
59.946	9.0
59.961	5.0
59.976	4.0
59.991	7.0
60.006	5.0
60.021	10.0
60.036	5.0
60.051	7.0
60.066	4.0
60.081	12.0
60.096	6.0
60.111	4.0
60.126	1.0
60.141	4.0
60.156	4.0
60.171	5.0
60.186	5.0
60.201	3.0
60.216	6.0
60.231	1.0
60.246	4.0
60.261	6.0
60.276	4.0
60.291	3.0
60.306	5.0
60.321	5.0
60.336	2.0
60.35	3.0
60.365	6.0
60.38	5.0
60.395	4.0
60.41	4.0
60.425	7.0
60.44	5.0
60.455	6.0
60.47	6.0
60.485	7.0
60.5	1.0
60.515	9.0
60.53	6.0
60.545	5.0
60.56	10.0
60.575	9.0
60.59	4.0
60.605	6.0
60.62	9.0
60.635	6.0
60.65	7.0
60.665	5.0
60.68	6.0
60.695	4.0
60.71	2.0
60.725	0.0
60.74	6.0
60.755	6.0
60.77	1.0
60.785	6.0
60.8	4.0
60.815	7.0
60.83	2.0
60.845	5.0
60.86	6.0
60.875	7.0
60.89	6.0
60.905	4.0
60.92	4.0
60.935	8.0
60.95	6.0
60.965	4.0
60.98	7.0
60.995	7.0
61.01	6.0
61.025	5.0
61.04	5.0
61.055	6.0
61.07	7.0
61.085	5.0
61.1	3.0
61.115	5.0
61.13	3.0
61.145	3.0
61.16	5.0
61.175	7.0
61.191	2.0
61.206	2.0
61.221	6.0
61.236	4.0
61.251	0.0
61.266	2.0
61.281	0.0
61.296	7.0
61.311	2.0
61.326	2.0
61.341	3.0
61.356	4.0
61.371	6.0
61.386	2.0
61.401	4.0
61.416	6.0
61.431	4.0
61.446	3.0
61.461	10.0
61.476	5.0
61.491	6.0
61.506	3.0
61.521	11.0
61.536	6.0
61.551	2.0
61.566	8.0
61.581	5.0
61.596	3.0
61.611	6.0
61.626	7.0
61.641	6.0
61.656	2.0
61.672	4.0
61.687	4.0
61.702	7.0
61.717	5.0
61.732	5.0
61.747	5.0
61.762	1.0
61.777	5.0
61.792	6.0
61.807	5.0
61.822	5.0
61.837	4.0
61.852	4.0
61.867	4.0
61.882	9.0
61.897	4.0
61.912	7.0
61.927	8.0
61.943	6.0
61.958	6.0
61.973	4.0
61.988	8.0
62.003	4.0
62.018	4.0
62.033	7.0
62.048	3.0
62.063	2.0
62.078	4.0
62.093	0.0
62.108	3.0
62.123	5.0
62.138	7.0
62.153	6.0
62.169	5.0
62.184	5.0
62.199	2.0
62.214	4.0
62.229	3.0
62.244	5.0
62.259	3.0
62.274	3.0
62.289	3.0
62.304	3.0
62.319	5.0
62.335	3.0
62.35	7.0
62.365	4.0
62.38	6.0
62.395	4.0
62.41	6.0
62.425	3.0
62.44	3.0
62.455	4.0
62.47	8.0
62.485	5.0
62.501	1.0
62.516	4.0
62.531	6.0
62.546	1.0
62.561	0.0
62.576	8.0
62.591	4.0
62.606	2.0
62.621	1.0
62.636	2.0
62.652	1.0
62.667	3.0
62.682	3.0
62.697	3.0
62.712	3.0
62.727	5.0
62.742	3.0
62.757	4.0
62.772	1.0
62.787	4.0
62.803	3.0
62.818	1.0
62.833	7.0
62.848	1.0
62.863	5.0
62.878	3.0
62.893	3.0
62.908	2.0
62.923	5.0
62.939	4.0
62.954	3.0
62.969	6.0
62.984	4.0
62.999	2.0
63.014	2.0
63.029	5.0
63.044	4.0
63.059	5.0
63.074	5.0
63.09	3.0
63.105	4.0
63.12	2.0
63.135	6.0
63.15	5.0
63.165	7.0
63.18	4.0
63.195	5.0
63.21	9.0
63.226	5.0
63.241	6.0
63.256	7.0
63.271	8.0
63.286	6.0
63.301	5.0
63.316	4.0
63.331	5.0
63.346	8.0
63.362	6.0
63.377	8.0
63.392	7.0
63.407	8.0
63.422	6.0
63.437	8.0
63.452	8.0
63.467	5.0
63.482	2.0
63.497	4.0
63.513	2.0
63.528	6.0
63.543	4.0
63.558	8.0
63.573	3.0
63.588	6.0
63.603	3.0
63.618	3.0
63.633	0.0
63.648	9.0
63.664	4.0
63.679	4.0
63.694	8.0
63.709	7.0
63.724	8.0
63.739	3.0
63.754	6.0
63.769	8.0
63.784	7.0
63.799	7.0
63.814	3.0
63.83	6.0
63.845	4.0
63.86	5.0
63.875	8.0
63.89	6.0
63.905	9.0
63.92	4.0
63.935	7.0
63.95	2.0
63.965	6.0
63.98	6.0
63.996	3.0
64.011	4.0
64.026	1.0
64.041	4.0
64.056	5.0
64.071	1.0
64.086	6.0
64.101	4.0
64.116	5.0
64.131	2.0
64.146	1.0
64.161	4.0
64.176	5.0
64.191	2.0
64.207	4.0
64.222	4.0
64.237	2.0
64.252	6.0
64.267	3.0
64.282	5.0
64.297	2.0
64.312	4.0
64.327	6.0
64.342	9.0
64.357	4.0
64.372	3.0
64.387	5.0
64.402	3.0
64.417	4.0
64.433	2.0
64.448	8.0
64.463	3.0
64.478	5.0
64.493	3.0
64.508	2.0
64.523	5.0
64.538	7.0
64.553	7.0
64.568	7.0
64.583	5.0
64.598	1.0
64.613	3.0
64.628	2.0
64.643	4.0
64.658	5.0
64.673	1.0
64.688	6.0
64.703	4.0
64.718	3.0
64.734	3.0
64.749	2.0
64.764	2.0
64.779	2.0
64.794	3.0
64.809	3.0
64.824	5.0
64.839	7.0
64.854	6.0
64.869	2.0
64.884	3.0
64.899	1.0
64.914	5.0
64.929	4.0
64.944	0.0
64.959	2.0
64.974	5.0
64.989	6.0
65.004	5.0
65.019	3.0
65.034	7.0
65.049	3.0
65.064	2.0
65.079	6.0
65.094	3.0
65.109	1.0
65.125	2.0
65.14	2.0
65.155	5.0
65.17	2.0
65.185	3.0
65.2	4.0
65.215	1.0
65.23	7.0
65.245	3.0
65.26	1.0
65.275	4.0
65.29	4.0
65.305	4.0
65.32	3.0
65.335	9.0
65.35	4.0
65.365	3.0
65.38	1.0
65.395	3.0
65.41	1.0
65.425	3.0
65.44	2.0
65.455	7.0
65.47	5.0
65.485	1.0
65.5	8.0
65.515	4.0
65.53	5.0
65.545	6.0
65.56	11.0
65.575	3.0
65.59	6.0
65.605	5.0
65.62	1.0
65.635	8.0
65.65	2.0
65.666	2.0
65.681	3.0
65.696	5.0
65.711	4.0
65.726	6.0
65.741	0.0
65.756	6.0
65.771	3.0
65.786	4.0
65.801	3.0
65.816	3.0
65.831	1.0
65.846	7.0
65.861	5.0
65.876	2.0
65.891	8.0
65.906	8.0
65.921	2.0
65.936	3.0
65.951	4.0
65.966	0.0
65.981	1.0
65.996	2.0
66.011	0.0
66.026	3.0
66.041	3.0
66.056	5.0
66.071	6.0
66.086	6.0
66.101	4.0
66.116	4.0
66.131	7.0
66.146	6.0
66.161	6.0
66.176	6.0
66.191	5.0
66.206	6.0
66.221	8.0
66.236	7.0
66.251	8.0
66.266	5.0
66.281	5.0
66.296	2.0
66.311	4.0
66.327	1.0
66.342	2.0
66.357	3.0
66.372	2.0
66.387	3.0
66.402	3.0
66.417	3.0
66.432	2.0
66.447	3.0
66.462	1.0
66.477	2.0
66.492	6.0
66.507	3.0
66.522	6.0
66.537	7.0
66.552	5.0
66.567	5.0
66.582	7.0
66.597	3.0
66.612	2.0
66.627	5.0
66.642	4.0
66.657	6.0
66.672	3.0
66.687	6.0
66.702	6.0
66.717	3.0
66.732	3.0
66.747	3.0
66.762	3.0
66.777	5.0
66.792	2.0
66.807	1.0
66.822	3.0
66.837	3.0
66.853	4.0
66.868	2.0
66.883	2.0
66.898	3.0
66.913	6.0
66.928	4.0
66.943	3.0
66.958	5.0
66.973	1.0
66.988	5.0
67.003	6.0
67.018	5.0
67.033	2.0
67.048	1.0
67.063	7.0
67.078	5.0
67.093	1.0
67.108	3.0
67.123	5.0
67.138	2.0
67.153	6.0
67.168	3.0
67.183	5.0
67.198	4.0
67.214	7.0
67.229	3.0
67.244	6.0
67.259	1.0
67.274	2.0
67.289	9.0
67.304	4.0
67.319	4.0
67.334	5.0
67.349	3.0
67.364	6.0
67.379	2.0
67.394	3.0
67.409	1.0
67.424	3.0
67.439	6.0
67.454	4.0
67.469	4.0
67.484	1.0
67.5	2.0
67.515	2.0
67.53	4.0
67.545	4.0
67.56	4.0
67.575	6.0
67.59	1.0
67.605	7.0
67.62	0.0
67.635	5.0
67.65	7.0
67.665	3.0
67.68	3.0
67.695	3.0
67.71	5.0
67.726	4.0
67.741	6.0
67.756	5.0
67.771	4.0
67.786	3.0
67.801	2.0
67.816	1.0
67.831	2.0
67.846	4.0
67.861	5.0
67.876	4.0
67.891	5.0
67.906	4.0
67.922	2.0
67.937	4.0
67.952	2.0
67.967	5.0
67.982	7.0
67.997	2.0
68.012	2.0
68.027	8.0
68.042	6.0
68.057	5.0
68.072	7.0
68.087	6.0
68.103	8.0
68.118	4.0
68.133	2.0
68.148	4.0
68.163	1.0
68.178	1.0
68.193	5.0
68.208	3.0
68.223	2.0
68.238	5.0
68.254	2.0
68.269	4.0
68.284	1.0
68.299	4.0
68.314	9.0
68.329	8.0
68.344	1.0
68.359	1.0
68.374	1.0
68.389	1.0
68.405	4.0
68.42	1.0
68.435	5.0
68.45	1.0
68.465	9.0
68.48	1.0
68.495	5.0
68.51	4.0
68.525	2.0
68.54	4.0
68.556	5.0
68.571	6.0
68.586	2.0
68.601	3.0
68.616	4.0
68.631	4.0
68.646	2.0
68.661	2.0
68.676	5.0
68.691	5.0
68.707	3.0
68.722	2.0
68.737	3.0
68.752	2.0
68.767	2.0
68.782	2.0
68.797	4.0
68.812	1.0
68.827	3.0
68.842	7.0
68.857	5.0
68.873	4.0
68.888	2.0
68.903	5.0
68.918	3.0
68.933	3.0
68.948	5.0
68.963	2.0
68.978	6.0
68.993	5.0
69.008	4.0
69.023	4.0
69.038	2.0
69.054	2.0
69.069	6.0
69.084	4.0
69.099	3.0
69.114	3.0
69.129	3.0
69.144	5.0
69.159	4.0
69.174	3.0
69.189	4.0
69.204	5.0
69.219	4.0
69.234	4.0
69.249	2.0
69.264	2.0
69.279	4.0
69.295	5.0
69.31	3.0
69.325	1.0
69.34	4.0
69.355	3.0
69.37	1.0
69.385	4.0
69.4	7.0
69.415	3.0
69.43	5.0
69.445	2.0
69.46	4.0
69.475	3.0
69.49	5.0
69.505	4.0
69.52	2.0
69.535	8.0
69.55	3.0
69.565	1.0
69.58	4.0
69.595	3.0
69.61	4.0
69.625	3.0
69.64	3.0
69.655	9.0
69.67	6.0
69.685	3.0
69.7	4.0
69.715	2.0
69.73	6.0
69.745	3.0
69.76	5.0
69.775	3.0
69.79	4.0
69.805	4.0
69.82	3.0
69.835	10.0
69.85	6.0
69.865	6.0
69.88	5.0
69.895	2.0
69.909	2.0
69.924	4.0
69.939	1.0
69.954	4.0
69.969	5.0
69.984	1.0
69.999	1.0
70.014	1.0
70.029	1.0
70.044	6.0
70.059	4.0
70.074	1.0
70.088	4.0
70.103	1.0
70.118	0.0
70.133	6.0
70.148	3.0
70.163	2.0
70.178	2.0
70.193	3.0
70.208	3.0
70.222	5.0
70.237	4.0
70.252	5.0
70.267	4.0
70.282	3.0
70.297	6.0
70.312	1.0
70.327	8.0
70.341	3.0
70.356	5.0
70.371	4.0
70.386	6.0
70.401	5.0
70.416	5.0
70.43	3.0
70.445	3.0
70.46	4.0
70.475	4.0
70.49	4.0
70.505	1.0
70.519	5.0
70.534	8.0
70.549	3.0
70.564	3.0
70.579	1.0
70.594	8.0
70.608	4.0
70.623	0.0
70.638	2.0
70.653	3.0
70.668	6.0
70.683	5.0
70.697	1.0
70.712	2.0
70.727	9.0
70.742	3.0
70.757	2.0
70.771	2.0
70.786	3.0
70.801	7.0
70.816	6.0
70.831	9.0
70.845	3.0
70.86	3.0
70.875	7.0
70.89	3.0
70.905	1.0
70.92	3.0
70.934	1.0
70.949	4.0
70.964	3.0
70.979	4.0
70.994	4.0
71.008	1.0
71.023	6.0
71.038	4.0
71.053	3.0
71.068	9.0
71.082	2.0
71.097	5.0
71.112	5.0
71.127	4.0
71.142	3.0
71.156	7.0
71.171	7.0
71.186	5.0
71.201	3.0
71.216	3.0
71.231	4.0
71.245	3.0
71.26	4.0
71.275	5.0
71.29	4.0
71.305	3.0
71.319	4.0
71.334	3.0
71.349	5.0
71.364	4.0
71.379	2.0
71.394	5.0
71.408	2.0
71.423	4.0
71.438	4.0
71.453	5.0
71.468	4.0
71.483	7.0
71.497	1.0
71.512	1.0
71.527	4.0
71.542	1.0
71.557	1.0
71.572	2.0
71.586	1.0
71.601	3.0
71.616	1.0
71.631	3.0
71.646	4.0
71.661	1.0
71.676	0.0
71.69	3.0
71.705	1.0
71.72	6.0
71.735	3.0
71.75	2.0
71.765	4.0
71.78	0.0
71.795	4.0
71.81	5.0
71.824	3.0
71.839	1.0
71.854	4.0
71.869	5.0
71.884	6.0
71.899	3.0
71.914	5.0
71.929	3.0
71.944	2.0
71.959	7.0
71.974	5.0
71.988	4.0
72.003	2.0
72.018	3.0
72.033	5.0
72.048	4.0
72.063	8.0
72.078	1.0
72.093	3.0
72.108	4.0
72.123	2.0
72.138	3.0
72.153	6.0
72.168	3.0
72.183	3.0
72.198	6.0
72.213	2.0
72.228	4.0
72.243	3.0
72.258	4.0
72.273	5.0
72.288	5.0
72.303	3.0
72.318	5.0
72.333	5.0
72.348	6.0
72.363	6.0
72.378	2.0
72.393	3.0
72.408	6.0
72.423	4.0
72.438	4.0
72.453	2.0
72.468	1.0
72.483	5.0
72.498	5.0
72.513	3.0
72.528	0.0
72.543	5.0
72.558	1.0
72.573	1.0
72.588	1.0
72.603	1.0
72.618	7.0
72.633	2.0
72.649	6.0
72.664	2.0
72.679	3.0
72.694	2.0
72.709	2.0
72.724	1.0
72.739	4.0
72.754	0.0
72.769	5.0
72.784	4.0
72.799	4.0
72.814	1.0
72.829	3.0
72.845	0.0
72.86	2.0
72.875	4.0
72.89	1.0
72.905	0.0
72.92	2.0
72.935	2.0
72.95	3.0
72.965	1.0
72.98	1.0
72.996	5.0
73.011	7.0
73.026	3.0
73.041	6.0
73.056	2.0
73.071	1.0
73.086	3.0
73.101	3.0
73.117	4.0
73.132	2.0
73.147	2.0
73.162	4.0
73.177	0.0
73.192	6.0
73.207	3.0
73.222	5.0
73.238	6.0
73.253	4.0
73.268	0.0
73.283	7.0
73.298	5.0
73.313	3.0
73.328	2.0
73.343	7.0
73.359	3.0
73.374	5.0
73.389	4.0
73.404	5.0
73.419	1.0
73.434	5.0
73.449	5.0
73.465	4.0
73.48	3.0
73.495	3.0
73.51	3.0
73.525	1.0
73.54	5.0
73.556	6.0
73.571	6.0
73.586	2.0
73.601	0.0
73.616	3.0
73.631	3.0
73.646	5.0
73.662	2.0
73.677	4.0
73.692	6.0
73.707	4.0
73.722	6.0
73.737	2.0
73.752	1.0
73.768	3.0
73.783	2.0
73.798	3.0
73.813	5.0
73.828	4.0
73.843	2.0
73.859	8.0
73.874	4.0
73.889	9.0
73.904	6.0
73.919	3.0
73.934	3.0
73.949	4.0
73.965	2.0
73.98	2.0
73.995	2.0
74.01	7.0
74.025	2.0
74.04	4.0
74.056	4.0
74.071	3.0
74.086	0.0
74.101	7.0
74.116	1.0
74.131	11.0
74.146	7.0
74.162	5.0
74.177	8.0
74.192	3.0
74.207	3.0
74.222	3.0
74.237	5.0
74.252	4.0
74.268	9.0
74.283	3.0
74.298	5.0
74.313	6.0
74.328	2.0
74.343	1.0
74.358	3.0
74.374	7.0
74.389	3.0
74.404	2.0
74.419	0.0
74.434	5.0
74.449	3.0
74.464	4.0
74.48	3.0
74.495	2.0
74.51	7.0
74.525	1.0
74.54	3.0
74.555	6.0
74.57	2.0
74.586	4.0
74.601	3.0
74.616	4.0
74.631	7.0
74.646	3.0
74.661	5.0
74.676	4.0
74.691	9.0
74.707	6.0
74.722	9.0
74.737	2.0
74.752	2.0
74.767	6.0
74.782	8.0
74.797	2.0
74.813	4.0
74.828	5.0
74.843	7.0
74.858	4.0
74.873	0.0
74.888	3.0
74.903	4.0
74.918	2.0
74.934	1.0
74.949	3.0
74.964	4.0
74.979	5.0
74.994	4.0
75.009	2.0
75.024	3.0
75.04	3.0
75.055	6.0
75.07	4.0
75.085	7.0
75.1	2.0
75.115	5.0
75.13	5.0
75.145	3.0
75.161	5.0
75.176	3.0
75.191	6.0
75.206	8.0
75.221	2.0
75.236	2.0
75.251	6.0
75.266	1.0
75.282	3.0
75.297	3.0
75.312	4.0
75.327	5.0
75.342	3.0
75.357	5.0
75.372	4.0
75.387	2.0
75.403	6.0
75.418	3.0
75.433	0.0
75.448	4.0
75.463	5.0
75.478	2.0
75.493	4.0
75.509	3.0
75.524	1.0
75.539	6.0
75.554	3.0
75.569	4.0
75.584	1.0
75.599	3.0
75.614	2.0
75.63	3.0
75.645	5.0
75.66	3.0
75.675	2.0
75.69	1.0
75.705	4.0
75.72	4.0
75.735	4.0
75.751	1.0
75.766	2.0
75.781	5.0
75.796	2.0
75.811	1.0
75.826	4.0
75.841	7.0
75.856	4.0
75.872	3.0
75.887	3.0
75.902	5.0
75.917	2.0
75.932	6.0
75.947	3.0
75.962	7.0
75.977	3.0
75.993	4.0
76.008	1.0
76.023	3.0
76.038	4.0
76.053	2.0
76.068	4.0
76.083	4.0
76.098	4.0
76.114	3.0
76.129	3.0
76.144	2.0
76.159	5.0
76.174	9.0
76.189	7.0
76.204	3.0
76.22	4.0
76.235	2.0
76.25	2.0
76.265	1.0
76.28	3.0
76.295	2.0
76.31	4.0
76.325	4.0
76.341	2.0
76.356	3.0
76.371	3.0
76.386	1.0
76.401	3.0
76.416	2.0
76.431	2.0
76.446	8.0
76.462	1.0
76.477	2.0
76.492	1.0
76.507	5.0
76.522	5.0
76.537	0.0
76.552	2.0
76.567	2.0
76.583	1.0
76.598	1.0
76.613	7.0
76.628	2.0
76.643	1.0
76.658	3.0
76.673	3.0
76.688	4.0
76.704	4.0
76.719	3.0
76.734	3.0
76.749	6.0
76.764	1.0
76.779	9.0
76.794	6.0
76.809	4.0
76.824	1.0
76.84	2.0
76.855	8.0
76.87	4.0
76.885	3.0
76.9	7.0
76.915	1.0
76.93	6.0
76.945	4.0
76.96	6.0
76.976	4.0
76.991	1.0
77.006	4.0
77.021	5.0
77.036	2.0
77.051	1.0
77.066	0.0
77.081	4.0
77.096	3.0
77.112	3.0
77.127	1.0
77.142	1.0
77.157	3.0
77.172	1.0
77.187	8.0
77.202	6.0
77.217	2.0
77.232	7.0
77.247	7.0
77.263	2.0
77.278	1.0
77.293	4.0
77.308	6.0
77.323	5.0
77.338	2.0
77.353	6.0
77.368	5.0
77.383	4.0
77.398	2.0
77.413	3.0
77.428	3.0
77.444	6.0
77.459	3.0
77.474	2.0
77.489	2.0
77.504	5.0
77.519	4.0
77.534	5.0
77.549	5.0
77.564	3.0
77.579	6.0
77.594	4.0
77.609	5.0
77.624	3.0
77.64	9.0
77.655	5.0
77.67	6.0
77.685	6.0
77.7	3.0
77.715	5.0
77.73	7.0
77.745	3.0
77.76	3.0
77.775	2.0
77.79	4.0
77.805	1.0
77.82	1.0
77.835	3.0
77.85	3.0
77.865	4.0
77.88	2.0
77.895	4.0
77.91	2.0
77.926	3.0
77.941	2.0
77.956	3.0
77.971	1.0
77.986	2.0
78.001	6.0
78.016	1.0
78.031	2.0
78.046	4.0
78.061	3.0
78.076	5.0
78.091	3.0
78.106	1.0
78.121	5.0
78.136	6.0
78.151	1.0
78.166	7.0
78.181	6.0
78.196	6.0
78.211	6.0
78.226	4.0
78.241	3.0
78.256	3.0
78.271	4.0
78.286	2.0
78.301	3.0
78.316	7.0
78.331	6.0
78.346	4.0
78.361	4.0
78.376	1.0
78.391	5.0
78.406	4.0
78.421	3.0
78.436	3.0
78.451	1.0
78.466	2.0
78.481	1.0
78.496	3.0
78.511	2.0
78.526	1.0
78.541	3.0
78.556	3.0
78.571	3.0
78.586	6.0
78.601	2.0
78.616	7.0
78.631	3.0
78.646	2.0
78.661	3.0
78.676	7.0
78.691	2.0
78.706	3.0
78.721	5.0
78.736	3.0
78.751	3.0
78.766	4.0
78.781	4.0
78.796	2.0
78.811	7.0
78.826	0.0
78.841	2.0
78.856	5.0
78.871	1.0
78.885	3.0
78.9	5.0
78.915	1.0
78.93	0.0
78.945	2.0
78.96	4.0
78.975	7.0
78.99	3.0
79.005	2.0
79.02	3.0
79.035	4.0
79.05	2.0
79.065	2.0
79.08	3.0
79.095	2.0
79.11	2.0
79.125	0.0
79.14	5.0
79.155	5.0
79.17	5.0
79.185	3.0
79.2	6.0
79.215	2.0
79.23	5.0
79.245	1.0
79.26	2.0
79.275	3.0
79.29	4.0
79.304	3.0
79.319	3.0
79.334	4.0
79.349	5.0
79.364	2.0
79.379	3.0
79.394	5.0
79.409	3.0
79.424	2.0
79.439	5.0
79.454	2.0
79.469	3.0
79.484	3.0
79.499	1.0
79.514	4.0
79.529	5.0
79.544	5.0
79.559	5.0
79.574	5.0
79.589	0.0
79.604	2.0
79.619	8.0
79.634	0.0
79.649	4.0
79.664	7.0
79.679	4.0
79.693	3.0
79.708	3.0
79.723	2.0
79.738	2.0
79.753	4.0
79.768	1.0
79.783	2.0
79.798	2.0
79.813	4.0
79.828	2.0
79.843	2.0
79.858	1.0
79.873	1.0
79.888	4.0
79.903	1.0
79.918	5.0
79.933	4.0
79.948	0.0
79.963	2.0
79.978	6.0
79.993	4.0
80.008	0.0
80.023	3.0
80.038	3.0
80.053	3.0
80.068	6.0
80.083	3.0
80.098	8.0
80.113	4.0
80.128	2.0
80.143	5.0
80.158	2.0
80.173	5.0
80.188	0.0
80.202	3.0
80.217	0.0
80.232	2.0
80.247	0.0
80.262	3.0
80.277	7.0
80.292	1.0
80.307	3.0
80.322	2.0
80.337	2.0
80.352	3.0
80.367	2.0
80.382	7.0
80.397	1.0
80.412	4.0
80.427	2.0
80.442	3.0
80.457	3.0
80.472	2.0
80.487	2.0
80.502	1.0
80.517	3.0
80.532	5.0
80.547	3.0
80.562	0.0
80.577	3.0
80.592	1.0
80.607	5.0
80.622	2.0
80.637	1.0
80.652	4.0
80.667	4.0
80.682	2.0
80.697	5.0
80.712	1.0
80.727	1.0
80.742	1.0
80.757	5.0
80.772	3.0
80.787	5.0
80.802	3.0
80.817	4.0
80.832	2.0
80.847	2.0
80.862	6.0
80.877	3.0
80.892	4.0
80.907	4.0
80.922	1.0
80.937	3.0
80.952	4.0
80.967	5.0
80.982	1.0
80.997	6.0
81.012	3.0
81.027	2.0
81.042	4.0
81.057	3.0
81.072	4.0
81.087	3.0
81.101	8.0
81.116	4.0
81.131	1.0
81.146	1.0
81.161	2.0
81.176	3.0
81.191	6.0
81.206	4.0
81.221	2.0
81.236	3.0
81.251	4.0
81.266	2.0
81.281	1.0
81.296	6.0
81.311	2.0
81.326	3.0
81.341	1.0
81.356	7.0
81.371	3.0
81.386	1.0
81.401	2.0
81.416	3.0
81.431	4.0
81.446	2.0
81.461	1.0
81.476	2.0
81.491	4.0
81.506	5.0
81.521	1.0
81.536	5.0
81.55	4.0
81.565	2.0
81.58	2.0
81.595	1.0
81.61	2.0
81.625	4.0
81.64	0.0
81.655	6.0
81.67	6.0
81.685	1.0
81.7	3.0
81.715	3.0
81.73	7.0
81.745	3.0
81.76	3.0
81.775	2.0
81.79	4.0
81.805	3.0
81.819	3.0
81.834	6.0
81.849	2.0
81.864	5.0
81.879	5.0
81.894	6.0
81.909	3.0
81.924	4.0
81.939	4.0
81.954	1.0
81.969	6.0
81.984	3.0
81.999	4.0
82.013	6.0
82.028	6.0
82.043	2.0
82.058	1.0
82.073	1.0
82.088	3.0
82.103	3.0
82.118	4.0
82.133	1.0
82.148	4.0
82.163	3.0
82.177	1.0
82.192	4.0
82.207	3.0
82.222	1.0
82.237	6.0
82.252	3.0
82.267	2.0
82.282	3.0
82.297	2.0
82.312	2.0
82.326	5.0
82.341	3.0
82.356	3.0
82.371	3.0
82.386	5.0
82.401	3.0
82.416	8.0
82.431	5.0
82.445	1.0
82.46	2.0
82.475	2.0
82.49	3.0
82.505	3.0
82.52	4.0
82.535	1.0
82.55	3.0
82.565	3.0
82.579	3.0
82.594	4.0
82.609	2.0
82.624	1.0
82.639	3.0
82.654	5.0
82.669	3.0
82.684	1.0
82.698	3.0
82.713	1.0
82.728	3.0
82.743	1.0
82.758	5.0
82.773	5.0
82.788	3.0
82.803	0.0
82.817	4.0
82.832	3.0
82.847	6.0
82.862	2.0
82.877	4.0
82.892	3.0
82.907	4.0
82.922	0.0
82.937	3.0
82.951	5.0
82.966	4.0
82.981	7.0
82.996	3.0
83.011	4.0
83.026	1.0
83.041	4.0
83.056	4.0
83.07	0.0
83.085	4.0
83.1	2.0
83.115	2.0
83.13	4.0
83.145	3.0
83.16	1.0
83.175	2.0
83.19	6.0
83.204	3.0
83.219	0.0
83.234	8.0
83.249	1.0
83.264	0.0
83.279	4.0
83.294	3.0
83.309	3.0
83.324	3.0
83.339	6.0
83.353	6.0
83.368	2.0
83.383	12.0
83.398	4.0
83.413	4.0
83.428	2.0
83.443	3.0
83.458	1.0
83.473	4.0
83.488	3.0
83.503	2.0
83.517	3.0
83.532	3.0
83.547	5.0
83.562	2.0
83.577	2.0
83.592	4.0
83.607	3.0
83.622	4.0
83.637	4.0
83.652	1.0
83.667	2.0
83.682	2.0
83.697	5.0
83.712	2.0
83.727	2.0
83.741	5.0
83.756	2.0
83.771	4.0
83.786	5.0
83.801	2.0
83.816	2.0
83.831	1.0
83.846	5.0
83.861	2.0
83.876	5.0
83.891	4.0
83.906	3.0
83.921	2.0
83.936	3.0
83.951	4.0
83.966	4.0
83.981	2.0
83.996	2.0
84.011	3.0
84.026	4.0
84.041	4.0
84.056	4.0
84.071	2.0
84.086	5.0
84.101	1.0
84.116	3.0
84.131	5.0
84.146	3.0
84.161	3.0
84.176	3.0
84.191	3.0
84.206	1.0
84.221	1.0
84.236	2.0
84.251	4.0
84.266	5.0
84.281	3.0
84.296	5.0
84.311	5.0
84.326	3.0
84.341	3.0
84.356	0.0
84.371	7.0
84.386	1.0
84.401	4.0
84.416	5.0
84.431	2.0
84.446	2.0
84.461	3.0
84.476	4.0
84.492	2.0
84.507	3.0
84.522	5.0
84.537	4.0
84.552	3.0
84.567	1.0
84.582	1.0
84.597	1.0
84.612	2.0
84.627	1.0
84.642	3.0
84.657	3.0
84.672	2.0
84.687	7.0
84.702	4.0
84.717	6.0
84.733	0.0
84.748	3.0
84.763	2.0
84.778	0.0
84.793	2.0
84.808	1.0
84.823	4.0
84.838	4.0
84.853	1.0
84.868	5.0
84.883	4.0
84.898	1.0
84.913	3.0
84.929	5.0
84.944	3.0
84.959	5.0
84.974	5.0
84.989	4.0
85.004	4.0
85.019	4.0
85.034	6.0
85.049	3.0
85.064	5.0
85.079	0.0
85.094	4.0
85.11	5.0
85.125	2.0
85.14	2.0
85.155	1.0
85.17	6.0
85.185	4.0
85.2	2.0
85.215	2.0
85.23	5.0
85.245	1.0
85.26	2.0
85.276	0.0
85.291	4.0
85.306	4.0
85.321	4.0
85.336	4.0
85.351	6.0
85.366	3.0
85.381	2.0
85.396	4.0
85.411	3.0
85.426	6.0
85.441	1.0
85.457	5.0
85.472	4.0
85.487	3.0
85.502	5.0
85.517	7.0
85.532	3.0
85.547	5.0
85.562	1.0
85.577	4.0
85.592	4.0
85.607	3.0
85.622	2.0
85.637	1.0
85.653	3.0
85.668	2.0
85.683	2.0
85.698	3.0
85.713	3.0
85.728	2.0
85.743	3.0
85.758	2.0
85.773	2.0
85.788	4.0
85.803	4.0
85.818	5.0
85.833	1.0
85.848	2.0
85.863	1.0
85.879	4.0
85.894	2.0
85.909	2.0
85.924	0.0
85.939	2.0
85.954	3.0
85.969	3.0
85.984	6.0
85.999	3.0
86.014	2.0
86.029	2.0
86.044	3.0
86.059	1.0
86.074	4.0
86.089	2.0
86.104	5.0
86.119	1.0
86.134	6.0
86.149	2.0
86.164	6.0
86.179	1.0
86.194	5.0
86.209	4.0
86.224	4.0
86.239	2.0
86.254	1.0
86.269	3.0
86.284	5.0
86.299	2.0
86.314	1.0
86.33	4.0
86.345	2.0
86.36	2.0
86.375	1.0
86.39	2.0
86.405	3.0
86.42	1.0
86.435	2.0
86.45	5.0
86.465	4.0
86.48	1.0
86.495	3.0
86.51	3.0
86.525	1.0
86.54	4.0
86.555	3.0
86.57	4.0
86.585	2.0
86.6	1.0
86.615	4.0
86.63	3.0
86.645	3.0
86.659	1.0
86.674	4.0
86.689	3.0
86.704	2.0
86.719	1.0
86.734	6.0
86.749	1.0
86.764	5.0
86.779	4.0
86.794	6.0
86.809	6.0
86.824	6.0
86.839	4.0
86.854	6.0
86.869	4.0
86.884	5.0
86.899	2.0
86.914	2.0
86.929	4.0
86.944	6.0
86.959	3.0
86.974	3.0
86.989	0.0
87.004	3.0
87.019	4.0
87.034	3.0
87.049	4.0
87.064	3.0
87.079	0.0
87.094	3.0
87.109	3.0
87.124	3.0
87.139	3.0
87.154	0.0
87.169	4.0
87.184	5.0
87.199	3.0
87.214	2.0
87.229	2.0
87.244	3.0
87.259	2.0
87.274	4.0
87.289	3.0
87.304	0.0
87.319	6.0
87.334	2.0
87.349	2.0
87.364	6.0
87.379	3.0
87.394	5.0
87.409	4.0
87.424	4.0
87.438	2.0
87.453	4.0
87.468	4.0
87.483	3.0
87.498	5.0
87.513	4.0
87.528	4.0
87.543	6.0
87.558	7.0
87.573	1.0
87.588	2.0
87.603	1.0
87.618	3.0
87.633	3.0
87.648	7.0
87.663	3.0
87.678	3.0
87.693	1.0
87.708	2.0
87.723	7.0
87.738	5.0
87.753	8.0
87.768	7.0
87.783	5.0
87.798	1.0
87.813	3.0
87.828	5.0
87.843	6.0
87.858	0.0
87.873	2.0
87.888	4.0
87.903	0.0
87.918	3.0
87.933	2.0
87.948	2.0
87.963	2.0
87.978	3.0
87.993	0.0
88.008	4.0
88.023	4.0
88.038	2.0
88.053	3.0
88.068	5.0
88.083	0.0
88.098	2.0
88.113	5.0
88.128	5.0
88.143	1.0
88.158	1.0
88.174	2.0
88.189	2.0
88.204	1.0
88.219	2.0
88.234	3.0
88.249	6.0
88.264	4.0
88.279	4.0
88.294	5.0
88.309	0.0
88.324	3.0
88.339	2.0
88.354	6.0
88.369	4.0
88.384	3.0
88.399	2.0
88.414	4.0
88.429	4.0
88.444	4.0
88.459	8.0
88.474	7.0
88.489	7.0
88.504	7.0
88.519	4.0
88.534	0.0
88.549	4.0
88.564	4.0
88.58	1.0
88.595	1.0
88.61	2.0
88.625	5.0
88.64	3.0
88.655	7.0
88.67	6.0
88.685	2.0
88.7	3.0
88.715	6.0
88.73	5.0
88.745	3.0
88.76	4.0
88.775	1.0
88.79	3.0
88.805	1.0
88.82	1.0
88.835	3.0
88.85	1.0
88.865	2.0
88.88	4.0
88.895	2.0
88.911	2.0
88.926	2.0
88.941	3.0
88.956	5.0
88.971	2.0
88.986	2.0
89.001	3.0
89.016	4.0
89.031	1.0
89.046	4.0
89.061	1.0
89.076	2.0
89.091	1.0
89.106	4.0
89.121	0.0
89.136	3.0
89.151	0.0
89.166	9.0
89.181	1.0
89.196	4.0
89.211	1.0
89.227	2.0
89.242	2.0
89.257	2.0
89.272	2.0
89.287	6.0
89.302	8.0
89.317	2.0
89.332	3.0
89.347	5.0
89.362	2.0
89.377	6.0
89.392	5.0
89.407	5.0
89.422	6.0
89.437	2.0
89.452	3.0
89.467	6.0
89.482	2.0
89.497	4.0
89.512	3.0
89.527	3.0
89.542	6.0
89.557	3.0
89.572	3.0
89.587	1.0
89.602	1.0
89.617	0.0
89.632	4.0
89.647	3.0
89.662	5.0
89.677	6.0
89.693	4.0
89.708	6.0
89.723	3.0
89.738	2.0
89.753	1.0
89.768	1.0
89.783	4.0
89.798	4.0
89.813	3.0
89.828	4.0
89.843	3.0
89.858	2.0
89.873	3.0
89.888	4.0
89.903	3.0
89.918	1.0
89.933	3.0
89.948	4.0
89.963	6.0
89.978	3.0
89.993	5.0
90.008	5.0
90.023	1.0
90.038	6.0
90.053	5.0
90.068	6.0
90.083	1.0
90.097	3.0
90.112	4.0
90.127	2.0
90.142	2.0
90.157	5.0
90.172	5.0
90.187	3.0
90.202	3.0
90.217	4.0
90.232	4.0
90.247	6.0
90.262	4.0
90.277	3.0
90.292	7.0
90.307	2.0
90.322	4.0
90.337	3.0
90.352	5.0
90.367	2.0
90.382	2.0
90.397	6.0
90.412	4.0
90.427	5.0
90.442	1.0
90.457	2.0
90.472	2.0
90.487	4.0
90.501	3.0
90.516	6.0
90.531	5.0
90.546	3.0
90.561	1.0
90.576	6.0
90.591	6.0
90.606	4.0
90.621	4.0
90.636	5.0
90.651	1.0
90.666	3.0
90.681	2.0
90.696	4.0
90.711	2.0
90.726	1.0
90.741	5.0
90.755	1.0
90.77	3.0
90.785	2.0
90.8	2.0
90.815	2.0
90.83	3.0
90.845	4.0
90.86	2.0
90.875	8.0
90.89	4.0
90.905	1.0
90.92	3.0
90.935	4.0
90.95	4.0
90.965	2.0
90.979	1.0
90.994	1.0
91.009	5.0
91.024	4.0
91.039	2.0
91.054	2.0
91.069	2.0
91.084	2.0
91.099	2.0
91.114	2.0
91.129	3.0
91.144	5.0
91.159	3.0
91.174	3.0
91.188	2.0
91.203	2.0
91.218	2.0
91.233	1.0
91.248	3.0
91.263	3.0
91.278	1.0
91.293	4.0
91.308	3.0
91.323	1.0
91.338	3.0
91.353	3.0
91.368	4.0
91.383	4.0
91.398	2.0
91.412	5.0
91.427	4.0
91.442	3.0
91.457	4.0
91.472	2.0
91.487	2.0
91.502	2.0
91.517	2.0
91.532	3.0
91.547	5.0
91.562	1.0
91.577	3.0
91.592	5.0
91.607	1.0
91.622	3.0
91.637	4.0
91.652	6.0
91.666	7.0
91.681	3.0
91.696	3.0
91.711	3.0
91.726	5.0
91.741	2.0
91.756	1.0
91.771	1.0
91.786	6.0
91.801	3.0
91.816	3.0
91.831	7.0
91.846	5.0
91.861	2.0
91.876	4.0
91.891	0.0
91.906	3.0
91.921	1.0
91.936	4.0
91.951	3.0
91.966	6.0
91.981	4.0
91.995	6.0
92.01	1.0
92.025	3.0
92.04	3.0
92.055	4.0
92.07	4.0
92.085	3.0
92.1	2.0
92.115	2.0
92.13	1.0
92.145	1.0
92.16	3.0
92.175	2.0
92.19	1.0
92.205	5.0
92.22	4.0
92.235	7.0
92.25	2.0
92.265	1.0
92.28	3.0
92.295	4.0
92.31	1.0
92.325	3.0
92.34	0.0
92.355	5.0
92.37	3.0
92.385	4.0
92.4	3.0
92.415	0.0
92.43	2.0
92.445	2.0
92.46	3.0
92.475	6.0
92.49	5.0
92.505	2.0
92.52	1.0
92.535	5.0
92.55	6.0
92.565	4.0
92.58	7.0
92.595	5.0
92.61	5.0
92.625	4.0
92.64	4.0
92.655	4.0
92.67	3.0
92.685	3.0
92.7	3.0
92.715	4.0
92.73	2.0
92.745	4.0
92.76	5.0
92.775	2.0
92.79	5.0
92.805	8.0
92.82	4.0
92.835	1.0
92.85	3.0
92.865	4.0
92.88	6.0
92.895	6.0
92.91	5.0
92.925	3.0
92.94	2.0
92.955	0.0
92.97	5.0
92.985	2.0
93.0	1.0
93.015	4.0
93.03	2.0
93.045	6.0
93.06	2.0
93.075	2.0
93.09	5.0
93.105	4.0
93.12	1.0
93.135	3.0
93.15	2.0
93.165	0.0
93.18	0.0
93.195	6.0
93.21	3.0
93.225	1.0
93.24	1.0
93.255	6.0
93.27	1.0
93.285	1.0
93.3	5.0
93.315	2.0
93.33	2.0
93.345	1.0
93.36	0.0
93.375	1.0
93.39	4.0
93.405	3.0
93.42	5.0
93.435	1.0
93.45	1.0
93.465	2.0
93.48	3.0
93.495	2.0
93.51	1.0
93.525	2.0
93.54	2.0
93.555	5.0
93.57	2.0
93.585	6.0
93.6	2.0
93.615	5.0
93.63	5.0
93.645	6.0
93.66	0.0
93.675	5.0
93.69	3.0
93.705	7.0
93.72	0.0
93.735	2.0
93.75	1.0
93.765	4.0
93.78	3.0
93.795	2.0
93.81	4.0
93.824	5.0
93.839	4.0
93.854	2.0
93.869	2.0
93.884	1.0
93.899	1.0
93.914	6.0
93.929	1.0
93.944	0.0
93.959	5.0
93.974	2.0
93.989	2.0
94.004	2.0
94.019	1.0
94.034	3.0
94.049	2.0
94.064	4.0
94.079	2.0
94.094	1.0
94.108	1.0
94.123	1.0
94.138	0.0
94.153	4.0
94.168	7.0
94.183	3.0
94.198	4.0
94.213	2.0
94.228	3.0
94.243	1.0
94.258	2.0
94.273	3.0
94.288	2.0
94.302	4.0
94.317	7.0
94.332	5.0
94.347	5.0
94.362	8.0
94.377	3.0
94.392	2.0
94.407	2.0
94.422	5.0
94.437	2.0
94.452	3.0
94.466	5.0
94.481	4.0
94.496	3.0
94.511	4.0
94.526	5.0
94.541	5.0
94.556	6.0
94.571	1.0
94.586	2.0
94.601	3.0
94.615	2.0
94.63	4.0
94.645	6.0
94.66	5.0
94.675	3.0
94.69	3.0
94.705	1.0
94.72	4.0
94.735	2.0
94.749	3.0
94.764	4.0
94.779	3.0
94.794	1.0
94.809	6.0
94.824	0.0
94.839	4.0
94.854	1.0
94.868	1.0
94.883	3.0
94.898	2.0
94.913	4.0
94.928	3.0
94.943	2.0
94.958	3.0
94.973	6.0
94.987	3.0
95.002	1.0
95.017	3.0
95.032	2.0
95.047	4.0
95.062	5.0
95.077	2.0
95.092	3.0
95.106	4.0
95.121	1.0
95.136	2.0
95.151	1.0
95.166	1.0
95.181	2.0
95.196	3.0
95.211	7.0
95.226	8.0
95.24	5.0
95.255	4.0
95.27	4.0
95.285	4.0
95.3	5.0
95.315	2.0
95.33	9.0
95.345	2.0
95.359	0.0
95.374	2.0
95.389	3.0
95.404	4.0
95.419	4.0
95.434	3.0
95.449	3.0
95.464	3.0
95.478	3.0
95.493	2.0
95.508	0.0
95.523	1.0
95.538	3.0
95.553	3.0
95.568	3.0
95.583	3.0
95.597	6.0
95.612	3.0
95.627	5.0
95.642	4.0
95.657	2.0
95.672	1.0
95.687	4.0
95.702	2.0
95.717	2.0
95.731	2.0
95.746	2.0
95.761	1.0
95.776	4.0
95.791	4.0
95.806	3.0
95.821	3.0
95.836	3.0
95.851	7.0
95.866	6.0
95.88	0.0
95.895	2.0
95.91	3.0
95.925	1.0
95.94	3.0
95.955	4.0
95.97	4.0
95.985	2.0
96.0	4.0
96.015	5.0
96.029	3.0
96.044	6.0
96.059	1.0
96.074	9.0
96.089	1.0
96.104	0.0
96.119	5.0
96.134	3.0
96.149	7.0
96.164	3.0
96.179	2.0
96.194	2.0
96.208	3.0
96.223	6.0
96.238	4.0
96.253	3.0
96.268	1.0
96.283	5.0
96.298	4.0
96.313	1.0
96.328	3.0
96.343	5.0
96.358	4.0
96.373	2.0
96.388	0.0
96.403	1.0
96.417	1.0
96.432	2.0
96.447	4.0
96.462	3.0
96.477	0.0
96.492	3.0
96.507	1.0
96.522	4.0
96.537	8.0
96.552	4.0
96.567	4.0
96.582	1.0
96.597	4.0
96.612	5.0
96.627	3.0
96.642	3.0
96.656	1.0
96.671	2.0
96.686	2.0
96.701	3.0
96.716	4.0
96.731	4.0
96.746	6.0
96.761	3.0
96.776	2.0
96.791	3.0
96.806	3.0
96.821	1.0
96.836	5.0
96.851	1.0
96.866	2.0
96.881	3.0
96.896	5.0
96.911	5.0
96.926	2.0
96.94	3.0
96.955	5.0
96.97	5.0
96.985	3.0
97.0	5.0
97.015	1.0
97.03	5.0
97.045	0.0
97.06	4.0
97.075	4.0
97.09	1.0
97.105	5.0
97.12	2.0
97.135	3.0
97.15	4.0
97.165	5.0
97.18	5.0
97.195	3.0
97.21	1.0
97.225	0.0
97.239	2.0
97.254	3.0
97.269	3.0
97.284	3.0
97.299	3.0
97.314	4.0
97.329	4.0
97.344	4.0
97.359	6.0
97.374	2.0
97.389	0.0
97.404	5.0
97.419	6.0
97.434	5.0
97.449	3.0
97.464	4.0
97.479	3.0
97.494	2.0
97.509	8.0
97.524	3.0
97.538	1.0
97.553	0.0
97.568	8.0
97.583	4.0
97.598	4.0
97.613	6.0
97.628	5.0
97.643	3.0
97.658	5.0
97.673	5.0
97.688	4.0
97.703	3.0
97.718	7.0
97.733	6.0
97.748	5.0
97.763	4.0
97.778	6.0
97.792	2.0
97.807	7.0
97.822	2.0
97.837	3.0
97.852	1.0
97.867	3.0
97.882	3.0
97.897	4.0
97.912	3.0
97.927	6.0
97.942	4.0
97.957	1.0
97.972	4.0
97.987	2.0
98.001	2.0
98.016	2.0
98.031	2.0
98.046	3.0
98.061	4.0
98.076	5.0
98.091	2.0
98.106	1.0
98.121	2.0
98.136	3.0
98.151	3.0
98.166	2.0
98.181	2.0
98.195	5.0
98.21	2.0
98.225	5.0
98.24	3.0
98.255	4.0
98.27	2.0
98.285	3.0
98.3	1.0
98.315	3.0
98.33	6.0
98.345	2.0
98.359	2.0
98.374	3.0
98.389	3.0
98.404	8.0
98.419	1.0
98.434	3.0
98.449	4.0
98.464	4.0
98.479	4.0
98.494	6.0
98.508	6.0
98.523	5.0
98.538	3.0
98.553	4.0
98.568	2.0
98.583	0.0
98.598	4.0
98.613	6.0
98.628	4.0
98.642	3.0
98.657	4.0
98.672	1.0
98.687	1.0
98.702	0.0
98.717	4.0
98.732	1.0
98.747	1.0
98.762	2.0
98.776	7.0
98.791	3.0
98.806	2.0
98.821	8.0
98.836	4.0
98.851	3.0
98.866	2.0
98.881	2.0
98.896	5.0
98.91	0.0
98.925	3.0
98.94	3.0
98.955	2.0
98.97	2.0
98.985	7.0
99.0	2.0
99.015	4.0
99.029	2.0
99.044	4.0
99.059	1.0
99.074	2.0
99.089	5.0
99.104	2.0
99.119	5.0
99.133	3.0
99.148	1.0
99.163	3.0
99.178	1.0
99.193	2.0
99.208	3.0
99.223	6.0
99.238	2.0
99.252	5.0
99.267	2.0
99.282	4.0
99.297	6.0
99.312	0.0
99.327	0.0
99.342	3.0
99.356	3.0
99.371	0.0
99.386	9.0
99.401	2.0
99.416	4.0
99.431	3.0
99.446	6.0
99.461	3.0
99.475	3.0
99.49	4.0
99.505	5.0
99.52	5.0
99.535	3.0
99.55	4.0
99.565	3.0
99.579	6.0
99.594	2.0
99.609	4.0
99.624	3.0
99.639	2.0
99.654	4.0
99.669	0.0
99.683	2.0
99.698	2.0
99.713	3.0
99.728	5.0
99.743	2.0
99.758	3.0
99.772	2.0
99.787	3.0
99.802	4.0
99.817	4.0
99.832	2.0
99.847	6.0
99.862	5.0
99.876	3.0
99.891	2.0
99.906	0.0
99.921	5.0
99.936	5.0
99.951	4.0
99.966	2.0
99.98	4.0
99.995	5.0
100.01	2.0
100.025	1.0
100.04	2.0
100.055	3.0
100.069	1.0
100.084	0.0
100.099	3.0
100.114	3.0
100.129	4.0
100.144	3.0
100.159	2.0
100.173	4.0
100.188	2.0
100.203	5.0
100.218	1.0
100.233	4.0
100.248	1.0
100.262	1.0
100.277	5.0
100.292	4.0
100.307	4.0
100.322	3.0
100.337	7.0
100.351	5.0
100.366	4.0
100.381	6.0
100.396	4.0
100.411	2.0
100.426	3.0
100.441	8.0
100.455	1.0
100.47	3.0
100.485	5.0
100.5	3.0
100.515	4.0
100.53	4.0
100.544	3.0
100.559	4.0
100.574	6.0
100.589	4.0
100.604	3.0
100.619	2.0
100.633	3.0
100.648	4.0
100.663	3.0
100.678	2.0
100.693	1.0
100.708	2.0
100.722	3.0
100.737	4.0
100.752	2.0
100.767	4.0
100.782	6.0
100.796	4.0
100.811	1.0
100.826	5.0
100.841	2.0
100.856	2.0
100.871	5.0
100.885	3.0
100.9	2.0
100.915	1.0
100.93	3.0
100.945	5.0
100.96	1.0
100.974	3.0
100.989	4.0
101.004	6.0
101.019	1.0
101.034	2.0
101.048	2.0
101.063	3.0
101.078	5.0
101.093	2.0
101.108	4.0
101.123	3.0
101.137	7.0
101.152	5.0
101.167	2.0
101.182	6.0
101.197	9.0
101.211	1.0
101.226	2.0
101.241	1.0
101.256	2.0
101.271	3.0
101.285	5.0
101.3	2.0
101.315	1.0
101.33	2.0
101.345	3.0
101.359	2.0
101.374	2.0
101.389	7.0
101.404	0.0
101.419	2.0
101.433	5.0
101.448	3.0
101.463	1.0
101.478	3.0
101.493	4.0
101.507	3.0
101.522	3.0
101.537	3.0
101.552	2.0
101.567	4.0
101.581	4.0
101.596	1.0
101.611	0.0
101.626	3.0
101.64	0.0
101.655	2.0
101.67	2.0
101.685	2.0
101.7	3.0
101.714	5.0
101.729	4.0
101.744	2.0
101.759	3.0
101.773	3.0
101.788	3.0
101.803	6.0
101.818	2.0
101.833	2.0
101.847	5.0
101.862	2.0
101.877	5.0
101.892	3.0
101.906	5.0
101.921	5.0
101.936	3.0
101.951	1.0
101.965	1.0
101.98	1.0
101.995	4.0
102.01	2.0
102.025	5.0
102.039	4.0
102.054	6.0
102.069	4.0
102.084	2.0
102.098	6.0
102.113	3.0
102.128	1.0
102.143	2.0
102.157	2.0
102.172	0.0
102.187	1.0
102.202	0.0
102.216	3.0
102.231	2.0
102.246	4.0
102.261	6.0
102.275	5.0
102.29	5.0
102.305	2.0
102.32	4.0
102.334	2.0
102.349	1.0
102.364	3.0
102.378	4.0
102.393	3.0
102.408	2.0
102.423	1.0
102.437	4.0
102.452	2.0
102.467	6.0
102.482	4.0
102.496	3.0
102.511	4.0
102.526	2.0
102.541	3.0
102.555	1.0
102.57	0.0
102.585	5.0
102.6	1.0
102.614	4.0
102.629	1.0
102.644	7.0
102.659	2.0
102.673	4.0
102.688	4.0
102.703	3.0
102.717	3.0
102.732	2.0
102.747	7.0
102.762	3.0
102.776	1.0
102.791	4.0
102.806	2.0
102.821	3.0
102.835	3.0
102.85	4.0
102.865	2.0
102.88	3.0
102.894	4.0
102.909	1.0
102.924	4.0
102.938	2.0
102.953	5.0
102.968	2.0
102.983	4.0
102.997	6.0
103.012	1.0
103.027	2.0
103.042	1.0
103.056	2.0
103.071	2.0
103.086	4.0
103.101	2.0
103.115	2.0
103.13	1.0
103.145	1.0
103.16	4.0
103.174	1.0
103.189	4.0
103.204	3.0
103.219	7.0
103.233	1.0
103.248	4.0
103.263	2.0
103.278	2.0
103.292	1.0
103.307	4.0
103.322	3.0
103.337	1.0
103.351	8.0
103.366	1.0
103.381	5.0
103.396	3.0
103.41	1.0
103.425	4.0
103.44	0.0
103.455	7.0
103.469	1.0
103.484	3.0
103.499	4.0
103.514	5.0
103.529	1.0
103.543	4.0
103.558	0.0
103.573	2.0
103.588	3.0
103.602	5.0
103.617	5.0
103.632	4.0
103.647	1.0
103.661	3.0
103.676	2.0
103.691	4.0
103.706	3.0
103.721	2.0
103.735	5.0
103.75	3.0
103.765	0.0
103.78	5.0
103.795	5.0
103.809	5.0
103.824	3.0
103.839	5.0
103.854	4.0
103.869	3.0
103.883	1.0
103.898	6.0
103.913	1.0
103.928	2.0
103.943	1.0
103.957	1.0
103.972	5.0
103.987	3.0
104.002	4.0
104.017	0.0
104.031	2.0
104.046	0.0
104.061	3.0
104.076	3.0
104.091	1.0
104.106	2.0
104.12	1.0
104.135	4.0
104.15	3.0
104.165	2.0
104.18	3.0
104.195	2.0
104.209	1.0
104.224	4.0
104.239	1.0
104.254	1.0
104.269	3.0
104.284	5.0
104.299	5.0
104.313	2.0
104.328	2.0
104.343	3.0
104.358	2.0
104.373	2.0
104.388	2.0
104.403	2.0
104.417	3.0
104.432	3.0
104.447	2.0
104.462	4.0
104.477	6.0
104.492	3.0
104.507	1.0
104.522	4.0
104.536	4.0
104.551	5.0
104.566	2.0
104.581	4.0
104.596	2.0
104.611	5.0
104.626	4.0
104.641	4.0
104.656	3.0
104.67	3.0
104.685	3.0
104.7	2.0
104.715	5.0
104.73	6.0
104.745	2.0
104.76	3.0
104.775	4.0
104.79	0.0
104.804	3.0
104.819	3.0
104.834	3.0
104.849	4.0
104.864	3.0
104.879	5.0
104.894	3.0
104.909	4.0
104.924	5.0
104.939	2.0
104.954	1.0
104.968	2.0
104.983	3.0
104.998	4.0
105.013	4.0
105.028	2.0
105.043	5.0
105.058	0.0
105.073	1.0
105.088	2.0
105.103	4.0
105.118	2.0
105.133	4.0
105.147	5.0
105.162	5.0
105.177	6.0
105.192	3.0
105.207	2.0
105.222	2.0
105.237	3.0
105.252	6.0
105.267	2.0
105.282	2.0
105.297	0.0
105.312	5.0
105.327	5.0
105.342	4.0
105.356	2.0
105.371	1.0
105.386	6.0
105.401	3.0
105.416	3.0
105.431	4.0
105.446	7.0
105.461	0.0
105.476	3.0
105.491	5.0
105.506	2.0
105.521	6.0
105.536	2.0
105.551	5.0
105.566	4.0
105.581	2.0
105.595	2.0
105.61	1.0
105.625	6.0
105.64	3.0
105.655	4.0
105.67	1.0
105.685	4.0
105.7	0.0
105.715	3.0
105.73	4.0
105.745	4.0
105.76	3.0
105.775	4.0
105.79	6.0
105.805	1.0
105.82	2.0
105.835	2.0
105.85	3.0
105.864	2.0
105.879	2.0
105.894	2.0
105.909	3.0
105.924	4.0
105.939	4.0
105.954	3.0
105.969	4.0
105.984	2.0
105.999	2.0
106.014	5.0
106.029	2.0
106.044	2.0
106.059	4.0
106.074	4.0
106.089	3.0
106.104	0.0
106.119	2.0
106.134	8.0
106.148	3.0
106.163	3.0
106.178	2.0
106.193	5.0
106.208	3.0
106.223	5.0
106.238	3.0
106.253	5.0
106.268	3.0
106.283	4.0
106.298	3.0
106.313	4.0
106.328	4.0
106.343	3.0
106.358	7.0
106.373	6.0
106.388	3.0
106.403	4.0
106.418	3.0
106.432	3.0
106.447	3.0
106.462	1.0
106.477	5.0
106.492	3.0
106.507	2.0
106.522	3.0
106.537	1.0
106.552	4.0
106.567	3.0
106.582	4.0
106.597	5.0
106.612	5.0
106.627	3.0
106.642	2.0
106.657	1.0
106.672	4.0
106.687	2.0
106.701	3.0
106.716	4.0
106.731	1.0
106.746	4.0
106.761	4.0
106.776	3.0
106.791	2.0
106.806	5.0
106.821	2.0
106.836	4.0
106.851	1.0
106.866	3.0
106.881	2.0
106.896	2.0
106.911	2.0
106.926	4.0
106.941	0.0
106.955	2.0
106.97	5.0
106.985	5.0
107.0	2.0
107.015	0.0
107.03	2.0
107.045	1.0
107.06	3.0
107.075	1.0
107.09	5.0
107.105	2.0
107.12	1.0
107.135	2.0
107.15	6.0
107.165	4.0
107.18	5.0
107.194	5.0
107.209	4.0
107.224	0.0
107.239	5.0
107.254	2.0
107.269	5.0
107.284	3.0
107.299	6.0
107.314	2.0
107.329	4.0
107.344	1.0
107.359	4.0
107.374	1.0
107.389	6.0
107.404	4.0
107.418	7.0
107.433	5.0
107.448	3.0
107.463	1.0
107.478	1.0
107.493	1.0
107.508	6.0
107.523	3.0
107.538	4.0
107.553	4.0
107.568	1.0
107.583	1.0
107.598	2.0
107.613	5.0
107.627	3.0
107.642	2.0
107.657	2.0
107.672	3.0
107.687	1.0
107.702	1.0
107.717	5.0
107.732	2.0
107.747	1.0
107.762	2.0
107.777	5.0
107.792	1.0
107.807	10.0
107.821	4.0
107.836	2.0
107.851	7.0
107.866	3.0
107.881	2.0
107.896	4.0
107.911	4.0
107.926	4.0
107.941	3.0
107.956	5.0
107.971	6.0
107.986	2.0
108.0	2.0
108.015	5.0
108.03	5.0
108.045	4.0
108.06	3.0
108.075	3.0
108.09	6.0
108.105	2.0
108.12	3.0
108.135	3.0
108.15	2.0
108.164	2.0
108.179	4.0
108.194	6.0
108.209	2.0
108.224	4.0
108.239	4.0
108.254	1.0
108.269	2.0
108.284	2.0
108.299	1.0
108.313	1.0
108.328	4.0
108.343	6.0
108.358	1.0
108.373	2.0
108.388	7.0
108.403	5.0
108.418	0.0
108.433	2.0
108.448	4.0
108.462	1.0
108.477	2.0
108.492	1.0
108.507	4.0
108.522	7.0
108.537	3.0
108.552	3.0
108.567	3.0
108.582	4.0
108.597	0.0
108.611	3.0
108.626	5.0
108.641	7.0
108.656	2.0
108.671	2.0
108.686	1.0
108.701	3.0
108.716	4.0
108.731	5.0
108.745	3.0
108.76	2.0
108.775	3.0
108.79	7.0
108.805	3.0
108.82	0.0
108.835	2.0
108.85	6.0
108.865	3.0
108.879	1.0
108.894	3.0
108.909	3.0
108.924	5.0
108.939	5.0
108.954	3.0
108.969	5.0
108.984	6.0
108.999	1.0
109.013	2.0
109.028	2.0
109.043	3.0
109.058	7.0
109.073	4.0
109.088	4.0
109.103	1.0
109.118	2.0
109.133	3.0
109.147	2.0
109.162	4.0
109.177	1.0
109.192	4.0
109.207	6.0
109.222	1.0
109.237	2.0
109.252	4.0
109.267	4.0
109.281	3.0
109.296	4.0
109.311	5.0
109.326	1.0
109.341	3.0
109.356	1.0
109.371	3.0
109.386	5.0
109.4	1.0
109.415	0.0
109.43	3.0
109.445	3.0
109.46	4.0
109.475	4.0
109.49	1.0
109.505	2.0
109.52	5.0
109.534	6.0
109.549	2.0
109.564	6.0
109.579	0.0
109.594	1.0
109.609	2.0
109.624	1.0
109.639	4.0
109.653	3.0
109.668	4.0
109.683	1.0
109.698	3.0
109.713	3.0
109.728	4.0
109.743	7.0
109.758	2.0
109.773	4.0
109.787	5.0
109.802	2.0
109.817	2.0
109.832	0.0
109.847	2.0
109.862	1.0
109.877	1.0
109.892	4.0
109.907	3.0
109.921	6.0
109.936	5.0
109.951	4.0
109.966	4.0
109.981	1.0
109.996	7.0
110.011	6.0
110.026	4.0
110.04	2.0
110.055	1.0
110.07	3.0
110.085	4.0
110.1	2.0
110.115	2.0
110.13	2.0
110.145	2.0
110.16	3.0
110.174	3.0
110.189	2.0
110.204	1.0
110.219	0.0
110.234	2.0
110.249	4.0
110.264	4.0
110.279	1.0
110.294	1.0
110.308	1.0
110.323	1.0
110.338	2.0
110.353	4.0
110.368	3.0
110.383	3.0
110.398	4.0
110.413	3.0
110.428	6.0
110.442	1.0
110.457	3.0
110.472	3.0
110.487	3.0
110.502	2.0
110.517	3.0
110.532	2.0
110.547	1.0
110.561	3.0
110.576	2.0
110.591	4.0
110.606	2.0
110.621	4.0
110.636	3.0
110.651	8.0
110.666	0.0
110.681	5.0
110.695	4.0
110.71	4.0
110.725	7.0
110.74	2.0
110.755	3.0
110.77	2.0
110.785	3.0
110.8	3.0
110.815	3.0
110.829	6.0
110.844	1.0
110.859	2.0
110.874	2.0
110.889	4.0
110.904	1.0
110.919	3.0
110.934	3.0
110.948	2.0
110.963	3.0
110.978	4.0
110.993	4.0
111.008	3.0
111.023	4.0
111.038	2.0
111.053	3.0
111.067	2.0
111.082	2.0
111.097	4.0
111.112	2.0
111.127	6.0
111.142	1.0
111.157	4.0
111.172	4.0
111.186	1.0
111.201	4.0
111.216	3.0
111.231	3.0
111.246	3.0
111.261	4.0
111.276	7.0
111.291	4.0
111.305	3.0
111.32	3.0
111.335	3.0
111.35	2.0
111.365	2.0
111.38	5.0
111.395	2.0
111.41	2.0
111.424	3.0
111.439	2.0
111.454	4.0
111.469	3.0
111.484	3.0
111.499	9.0
111.514	2.0
111.528	1.0
111.543	3.0
111.558	3.0
111.573	3.0
111.588	0.0
111.603	4.0
111.618	6.0
111.633	2.0
111.647	2.0
111.662	3.0
111.677	2.0
111.692	2.0
111.707	3.0
111.722	5.0
111.737	6.0
111.751	6.0
111.766	7.0
111.781	3.0
111.796	3.0
111.811	2.0
111.826	3.0
111.84	3.0
111.855	3.0
111.87	6.0
111.885	3.0
111.9	2.0
111.915	6.0
111.93	5.0
111.944	4.0
111.959	2.0
111.974	1.0
111.989	3.0
112.004	3.0
112.019	3.0
112.033	3.0
112.048	1.0
112.063	3.0
112.078	6.0
112.093	5.0
112.108	4.0
112.123	4.0
112.137	5.0
112.152	3.0
112.167	6.0
112.182	5.0
112.197	4.0
112.212	1.0
112.226	4.0
112.241	4.0
112.256	4.0
112.271	3.0
112.286	4.0
112.301	1.0
112.315	4.0
112.33	9.0
112.345	3.0
112.36	6.0
112.375	1.0
112.389	1.0
112.404	7.0
112.419	5.0
112.434	1.0
112.449	5.0
112.464	1.0
112.478	2.0
112.493	6.0
112.508	2.0
112.523	4.0
112.538	3.0
112.553	6.0
112.567	3.0
112.582	3.0
112.597	5.0
112.612	3.0
112.627	3.0
112.642	5.0
112.656	6.0
112.671	2.0
112.686	5.0
112.701	1.0
112.716	2.0
112.73	7.0
112.745	1.0
112.76	3.0
112.775	4.0
112.79	3.0
112.805	4.0
112.819	3.0
112.834	1.0
112.849	7.0
112.864	4.0
112.879	0.0
112.894	3.0
112.908	3.0
112.923	3.0
112.938	0.0
112.953	8.0
112.968	3.0
112.983	3.0
112.997	2.0
113.012	5.0
113.027	2.0
113.042	4.0
113.057	2.0
113.072	2.0
113.086	2.0
113.101	6.0
113.116	2.0
113.131	2.0
113.146	2.0
113.161	3.0
113.175	2.0
113.19	5.0
113.205	4.0
113.22	1.0
113.235	3.0
113.25	3.0
113.265	4.0
113.279	3.0
113.294	1.0
113.309	1.0
113.324	1.0
113.339	5.0
113.354	4.0
113.368	2.0
113.383	5.0
113.398	1.0
113.413	7.0
113.428	4.0
113.443	3.0
113.458	4.0
113.472	7.0
113.487	7.0
113.502	2.0
113.517	5.0
113.532	2.0
113.547	5.0
113.562	2.0
113.576	2.0
113.591	3.0
113.606	6.0
113.621	4.0
113.636	1.0
113.651	1.0
113.666	4.0
113.681	5.0
113.695	2.0
113.71	3.0
113.725	2.0
113.74	3.0
113.755	5.0
113.77	2.0
113.785	0.0
113.8	6.0
113.814	3.0
113.829	4.0
113.844	4.0
113.859	1.0
113.874	2.0
113.889	2.0
113.904	2.0
113.919	2.0
113.934	1.0
113.949	2.0
113.963	2.0
113.978	7.0
113.993	2.0
114.008	3.0
114.023	2.0
114.038	6.0
114.053	0.0
114.068	6.0
114.083	1.0
114.098	8.0
114.113	3.0
114.127	4.0
114.142	4.0
114.157	6.0
114.172	3.0
114.187	3.0
114.202	7.0
114.217	5.0
114.232	3.0
114.247	2.0
114.262	2.0
114.277	5.0
114.292	6.0
114.307	4.0
114.322	4.0
114.337	5.0
114.351	2.0
114.366	6.0
114.381	5.0
114.396	1.0
114.411	3.0
114.426	3.0
114.441	1.0
114.456	4.0
114.471	5.0
114.486	3.0
114.501	4.0
114.516	2.0
114.531	3.0
114.546	3.0
114.561	3.0
114.576	3.0
114.591	4.0
114.606	6.0
114.621	4.0
114.636	0.0
114.65	1.0
114.665	3.0
114.68	5.0
114.695	1.0
114.71	5.0
114.725	7.0
114.74	2.0
114.755	4.0
114.77	5.0
114.785	5.0
114.8	5.0
114.815	1.0
114.83	4.0
114.845	5.0
114.86	6.0
114.875	4.0
114.89	2.0
114.905	0.0
114.92	5.0
114.935	4.0
114.95	4.0
114.965	6.0
114.98	7.0
114.995	3.0
115.009	1.0
115.024	4.0
115.039	4.0
115.054	4.0
115.069	3.0
115.084	4.0
115.099	3.0
115.114	4.0
115.129	5.0
115.144	4.0
115.159	1.0
115.174	7.0
115.189	3.0
115.204	5.0
115.219	3.0
115.234	4.0
115.249	7.0
115.264	3.0
115.279	4.0
115.294	4.0
115.309	5.0
115.323	5.0
115.338	1.0
115.353	2.0
115.368	2.0
115.383	2.0
115.398	5.0
115.413	3.0
115.428	8.0
115.443	3.0
115.458	2.0
115.473	4.0
115.488	1.0
115.503	2.0
115.518	3.0
115.533	6.0
115.548	3.0
115.562	1.0
115.577	5.0
115.592	4.0
115.607	5.0
115.622	2.0
115.637	3.0
115.652	3.0
115.667	7.0
115.682	5.0
115.697	2.0
115.712	3.0
115.727	6.0
115.741	2.0
115.756	0.0
115.771	5.0
115.786	2.0
115.801	3.0
115.816	2.0
115.831	1.0
115.846	5.0
115.861	4.0
115.875	6.0
115.89	4.0
115.905	2.0
115.92	3.0
115.935	4.0
115.95	7.0
115.965	5.0
115.98	4.0
115.995	5.0
116.009	3.0
116.024	6.0
116.039	4.0
116.054	2.0
116.069	2.0
116.084	5.0
116.099	3.0
116.113	5.0
116.128	4.0
116.143	3.0
116.158	3.0
116.173	3.0
116.188	3.0
116.202	8.0
116.217	7.0
116.232	5.0
116.247	8.0
116.262	3.0
116.277	5.0
116.291	5.0
116.306	5.0
116.321	3.0
116.336	4.0
116.351	4.0
116.366	1.0
116.38	8.0
116.395	1.0
116.41	4.0
116.425	5.0
116.44	1.0
116.454	2.0
116.469	2.0
116.484	1.0
116.499	1.0
116.514	3.0
116.528	3.0
116.543	2.0
116.558	3.0
116.573	1.0
116.588	2.0
116.602	6.0
116.617	3.0
116.632	4.0
116.647	6.0
116.662	3.0
116.676	4.0
116.691	5.0
116.706	3.0
116.721	4.0
116.735	4.0
116.75	1.0
116.765	2.0
116.78	3.0
116.795	4.0
116.809	4.0
116.824	2.0
116.839	6.0
116.854	1.0
116.868	1.0
116.883	3.0
116.898	0.0
116.913	2.0
116.927	1.0
116.942	5.0
116.957	3.0
116.972	3.0
116.986	3.0
117.001	3.0
117.016	3.0
117.031	5.0
117.045	6.0
117.06	4.0
117.075	1.0
117.09	3.0
117.104	5.0
117.119	2.0
117.134	5.0
117.149	5.0
117.163	7.0
117.178	4.0
117.193	3.0
117.208	2.0
117.222	4.0
117.237	6.0
117.252	2.0
117.267	5.0
117.281	3.0
117.296	4.0
117.311	0.0
117.325	3.0
117.34	2.0
117.355	2.0
117.37	5.0
117.384	2.0
117.399	7.0
117.414	2.0
117.429	2.0
117.443	6.0
117.458	3.0
117.473	1.0
117.487	3.0
117.502	8.0
117.517	2.0
117.532	0.0
117.546	5.0
117.561	4.0
117.576	1.0
117.59	2.0
117.605	3.0
117.62	3.0
117.635	4.0
117.649	2.0
117.664	2.0
117.679	3.0
117.693	4.0
117.708	4.0
117.723	5.0
117.738	6.0
117.752	1.0
117.767	3.0
117.782	3.0
117.796	5.0
117.811	5.0
117.826	2.0
117.841	2.0
117.855	2.0
117.87	2.0
117.885	4.0
117.899	3.0
117.914	2.0
117.929	1.0
117.944	6.0
117.958	1.0
117.973	2.0
117.988	2.0
118.002	4.0
118.017	3.0
118.032	2.0
118.047	3.0
118.062	5.0
118.077	6.0
118.092	4.0
118.107	2.0
118.121	5.0
118.136	4.0
118.151	4.0
118.166	3.0
118.181	7.0
118.196	5.0
118.211	5.0
118.225	2.0
118.24	1.0
118.255	6.0
118.27	3.0
118.285	7.0
118.3	3.0
118.315	3.0
118.33	4.0
118.344	4.0
118.359	4.0
118.374	1.0
118.389	4.0
118.404	2.0
118.419	5.0
118.434	2.0
118.449	2.0
118.463	5.0
118.478	0.0
118.493	6.0
118.508	5.0
118.523	3.0
118.538	3.0
118.553	3.0
118.567	2.0
118.582	5.0
118.597	5.0
118.612	1.0
118.627	3.0
118.642	3.0
118.657	4.0
118.672	4.0
118.686	1.0
118.701	4.0
118.716	3.0
118.731	5.0
118.746	6.0
118.761	5.0
118.776	5.0
118.791	3.0
118.805	3.0
118.82	0.0
118.835	3.0
118.85	1.0
118.865	5.0
118.88	8.0
118.895	0.0
118.909	3.0
118.924	2.0
118.939	3.0
118.954	7.0
118.969	3.0
118.984	4.0
118.999	2.0
119.014	5.0
119.028	5.0
119.043	7.0
119.058	4.0
119.073	3.0
119.088	3.0
119.103	3.0
119.118	2.0
119.133	5.0
119.147	5.0
119.162	3.0
119.177	0.0
119.192	2.0
119.207	5.0
119.222	5.0
119.237	2.0
119.251	6.0
119.266	3.0
119.281	2.0
119.296	5.0
119.311	4.0
119.326	3.0
119.341	2.0
119.356	10.0
119.37	5.0
119.385	0.0
119.4	5.0
119.415	2.0
119.43	1.0
119.445	2.0
119.46	5.0
119.475	3.0
119.489	3.0
119.504	5.0
119.519	3.0
119.534	0.0
119.549	3.0
119.564	0.0
119.579	6.0
119.593	6.0
119.608	3.0
119.623	1.0
119.638	2.0
119.653	5.0
119.668	4.0
119.683	1.0
119.698	4.0
119.712	1.0
119.727	3.0
119.742	2.0
119.757	3.0
119.772	2.0
119.787	2.0
119.802	4.0
119.817	1.0
119.831	4.0
119.846	1.0
119.861	5.0
119.876	0.0
119.891	2.0
119.906	2.0
119.921	2.0
119.935	2.0
119.95	4.0
119.965	5.0
119.98	0.0
119.995	3.0
120.01	2.0
120.025	2.0
120.04	3.0
120.054	3.0
120.069	2.0
120.084	0.0
120.099	2.0
120.114	3.0
120.129	3.0
120.144	0.0
120.159	3.0
120.173	0.0
120.188	1.0
120.203	0.0
120.218	3.0
120.233	1.0
120.248	1.0
120.263	1.0
120.277	0.0
120.292	0.0
120.307	0.0
120.322	0.0
120.337	0.0
120.352	0.0
120.367	1.0
120.382	1.0
120.396	0.0
120.411	0.0
120.426	0.0
120.441	0.0
120.456	0.0
120.471	1.0
120.486	0.0
120.501	0.0
120.515	0.0
120.53	0.0
120.545	0.0
120.56	0.0
120.575	1.0
120.59	0.0
120.605	0.0
120.619	1.0
120.634	0.0
120.649	0.0
120.664	0.0
120.679	0.0
120.694	1.0
120.709	0.0
120.724	0.0
120.738	0.0
120.753	0.0
120.768	0.0
120.783	0.0
120.798	0.0
120.813	0.0
120.828	0.0
120.843	0.0
120.857	0.0
120.872	1.0
120.887	0.0
120.902	1.0
120.917	0.0
120.932	0.0
120.947	0.0
120.961	1.0
120.976	0.0
