-1.217	0.0
-1.202	0.0
-1.187	1.0
-1.172	0.0
-1.157	0.0
-1.142	0.0
-1.128	0.0
-1.113	1.0
-1.098	1.0
-1.083	0.0
-1.068	0.0
-1.054	0.0
-1.039	0.0
-1.024	0.0
-1.009	1.0
-0.994	0.0
-0.979	0.0
-0.965	0.0
-0.95	0.0
-0.935	0.0
-0.92	0.0
-0.905	0.0
-0.891	0.0
-0.876	0.0
-0.861	0.0
-0.846	0.0
-0.831	0.0
-0.816	0.0
-0.802	0.0
-0.787	0.0
-0.772	1.0
-0.757	0.0
-0.742	0.0
-0.728	0.0
-0.713	0.0
-0.698	0.0
-0.683	0.0
-0.668	0.0
-0.653	0.0
-0.639	0.0
-0.624	0.0
-0.609	0.0
-0.594	0.0
-0.579	0.0
-0.565	0.0
-0.55	0.0
-0.535	0.0
-0.52	0.0
-0.505	0.0
-0.49	0.0
-0.476	0.0
-0.461	0.0
-0.446	0.0
-0.431	0.0
-0.416	0.0
-0.401	0.0
-0.387	0.0
-0.372	0.0
-0.357	0.0
-0.342	0.0
-0.327	0.0
-0.313	1.0
-0.298	0.0
-0.283	0.0
-0.268	0.0
-0.253	0.0
-0.238	0.0
-0.224	0.0
-0.209	0.0
-0.194	0.0
-0.179	0.0
-0.164	0.0
-0.15	0.0
-0.135	0.0
-0.12	0.0
-0.105	0.0
-0.09	0.0
-0.075	0.0
-0.061	0.0
-0.046	0.0
-0.031	0.0
-0.016	0.0
-0.001	0.0
0.013	0.0
0.028	0.0
0.043	0.0
0.058	0.0
0.073	0.0
0.088	0.0
0.102	0.0
0.117	0.0
0.132	0.0
0.147	0.0
0.162	0.0
0.176	0.0
0.191	0.0
0.206	1.0
0.221	0.0
0.236	0.0
0.251	0.0
0.265	0.0
0.28	0.0
0.295	0.0
0.31	0.0
0.325	0.0
0.339	0.0
0.354	0.0
0.369	0.0
0.384	0.0
0.399	0.0
0.414	0.0
0.428	0.0
0.443	0.0
0.458	0.0
0.473	0.0
0.488	0.0
0.502	0.0
0.517	0.0
0.532	0.0
0.547	0.0
0.562	0.0
0.577	0.0
0.591	0.0
0.606	0.0
0.621	0.0
0.636	0.0
0.651	0.0
0.665	0.0
0.68	0.0
0.695	0.0
0.71	0.0
0.725	0.0
0.74	0.0
0.754	0.0
0.769	0.0
0.784	0.0
0.799	0.0
0.814	0.0
0.828	0.0
0.843	0.0
0.858	0.0
0.873	0.0
0.888	0.0
0.903	0.0
0.917	0.0
0.932	0.0
0.947	0.0
0.962	0.0
0.977	0.0
0.991	0.0
1.006	0.0
1.021	1.0
1.036	0.0
1.051	0.0
1.065	0.0
1.08	0.0
1.095	0.0
1.11	0.0
1.125	0.0
1.14	0.0
1.154	0.0
1.169	0.0
1.184	0.0
1.199	0.0
1.214	0.0
1.228	0.0
1.243	0.0
1.258	0.0
1.273	0.0
1.288	0.0
1.302	0.0
1.317	0.0
1.332	0.0
1.347	0.0
1.362	0.0
1.376	0.0
1.391	0.0
1.406	0.0
1.421	0.0
1.436	0.0
1.45	1.0
1.465	0.0
1.48	0.0
1.495	0.0
1.51	0.0
1.524	0.0
1.539	0.0
1.554	0.0
1.569	0.0
1.584	0.0
1.598	0.0
1.613	0.0
1.628	1.0
1.643	0.0
1.658	0.0
1.672	0.0
1.687	0.0
1.702	0.0
1.717	0.0
1.732	0.0
1.746	0.0
1.761	0.0
1.776	0.0
1.791	0.0
1.806	0.0
1.82	0.0
1.835	0.0
1.85	0.0
1.865	0.0
1.88	0.0
1.894	0.0
1.909	0.0
1.924	0.0
1.939	0.0
1.954	0.0
1.968	0.0
1.983	0.0
1.998	0.0
2.013	0.0
2.028	0.0
2.042	0.0
2.057	0.0
2.072	1.0
2.087	0.0
2.101	0.0
2.116	0.0
2.131	0.0
2.146	0.0
2.161	0.0
2.175	0.0
2.19	0.0
2.205	2.0
2.22	0.0
2.235	0.0
2.249	1.0
2.264	0.0
2.279	0.0
2.294	1.0
2.308	0.0
2.323	0.0
2.338	2.0
2.353	1.0
2.368	0.0
2.382	0.0
2.397	1.0
2.412	2.0
2.427	4.0
2.442	1.0
2.456	1.0
2.471	1.0
2.486	1.0
2.501	3.0
2.515	2.0
2.53	2.0
2.545	0.0
2.56	1.0
2.575	3.0
2.589	4.0
2.604	2.0
2.619	2.0
2.634	0.0
2.649	2.0
2.663	3.0
2.678	4.0
2.693	1.0
2.708	1.0
2.722	4.0
2.737	4.0
2.752	2.0
2.767	0.0
2.782	0.0
2.796	0.0
2.811	3.0
2.826	3.0
2.841	4.0
2.856	4.0
2.87	3.0
2.885	0.0
2.9	3.0
2.915	3.0
2.93	7.0
2.944	4.0
2.959	2.0
2.974	0.0
2.989	1.0
3.004	4.0
3.018	4.0
3.033	5.0
3.048	5.0
3.063	4.0
3.078	3.0
3.092	2.0
3.107	4.0
3.122	1.0
3.137	3.0
3.152	3.0
3.166	1.0
3.181	4.0
3.196	3.0
3.211	6.0
3.226	3.0
3.24	6.0
3.255	2.0
3.27	6.0
3.285	2.0
3.3	6.0
3.315	5.0
3.329	1.0
3.344	6.0
3.359	2.0
3.374	5.0
3.389	10.0
3.403	5.0
3.418	1.0
3.433	6.0
3.448	7.0
3.463	1.0
3.478	2.0
3.492	10.0
3.507	3.0
3.522	10.0
3.537	5.0
3.552	5.0
3.567	5.0
3.581	9.0
3.596	8.0
3.611	3.0
3.626	5.0
3.641	5.0
3.656	8.0
3.671	4.0
3.685	5.0
3.7	4.0
3.715	9.0
3.73	8.0
3.745	4.0
3.76	7.0
3.775	6.0
3.789	9.0
3.804	5.0
3.819	12.0
3.834	5.0
3.849	5.0
3.864	9.0
3.879	3.0
3.894	3.0
3.908	1.0
3.923	5.0
3.938	8.0
3.953	6.0
3.968	5.0
3.983	6.0
3.998	3.0
4.013	5.0
4.027	9.0
4.042	2.0
4.057	5.0
4.072	12.0
4.087	6.0
4.102	8.0
4.117	4.0
4.132	5.0
4.147	3.0
4.162	5.0
4.176	5.0
4.191	9.0
4.206	6.0
4.221	6.0
4.236	6.0
4.251	4.0
4.266	7.0
4.281	12.0
4.296	10.0
4.311	9.0
4.326	5.0
4.341	6.0
4.356	12.0
4.37	6.0
4.385	7.0
4.4	5.0
4.415	6.0
4.43	5.0
4.445	3.0
4.46	8.0
4.475	5.0
4.49	2.0
4.505	9.0
4.52	10.0
4.535	5.0
4.55	9.0
4.565	4.0
4.58	8.0
4.595	6.0
4.61	9.0
4.625	3.0
4.639	10.0
4.654	6.0
4.669	8.0
4.684	6.0
4.699	11.0
4.714	13.0
4.729	5.0
4.744	4.0
4.759	6.0
4.774	6.0
4.789	9.0
4.804	6.0
4.819	4.0
4.834	6.0
4.849	12.0
4.864	6.0
4.879	12.0
4.894	7.0
4.909	10.0
4.924	7.0
4.939	6.0
4.954	9.0
4.969	8.0
4.984	8.0
4.999	7.0
5.014	7.0
5.029	8.0
5.044	10.0
5.059	8.0
5.074	9.0
5.089	3.0
5.104	4.0
5.119	4.0
5.134	8.0
5.149	7.0
5.164	9.0
5.179	7.0
5.194	7.0
5.209	10.0
5.224	10.0
5.239	4.0
5.254	8.0
5.269	6.0
5.284	6.0
5.299	9.0
5.314	9.0
5.329	6.0
5.344	9.0
5.359	3.0
5.374	8.0
5.389	5.0
5.404	5.0
5.419	8.0
5.434	7.0
5.449	5.0
5.464	4.0
5.479	12.0
5.494	4.0
5.509	14.0
5.524	4.0
5.539	7.0
5.554	6.0
5.569	4.0
5.584	12.0
5.599	6.0
5.614	6.0
5.629	9.0
5.644	8.0
5.659	11.0
5.674	13.0
5.689	13.0
5.704	12.0
5.719	4.0
5.734	6.0
5.749	5.0
5.764	8.0
5.779	15.0
5.794	9.0
5.809	7.0
5.824	11.0
5.839	8.0
5.854	8.0
5.869	9.0
5.884	11.0
5.899	8.0
5.914	11.0
5.929	6.0
5.944	7.0
5.959	12.0
5.974	9.0
5.989	9.0
6.004	9.0
6.019	9.0
6.034	6.0
6.049	13.0
6.064	8.0
6.079	7.0
6.094	9.0
6.109	7.0
6.124	6.0
6.139	8.0
6.154	8.0
6.169	6.0
6.184	9.0
6.199	12.0
6.214	6.0
6.229	13.0
6.244	15.0
6.259	6.0
6.274	6.0
6.289	8.0
6.304	10.0
6.319	8.0
6.334	10.0
6.349	9.0
6.364	3.0
6.379	11.0
6.394	9.0
6.409	12.0
6.424	7.0
6.439	8.0
6.454	8.0
6.469	13.0
6.484	12.0
6.499	8.0
6.514	10.0
6.529	11.0
6.544	5.0
6.559	7.0
6.574	8.0
6.589	13.0
6.604	10.0
6.619	7.0
6.634	8.0
6.649	2.0
6.664	8.0
6.679	7.0
6.694	6.0
6.709	13.0
6.724	15.0
6.739	13.0
6.754	7.0
6.769	10.0
6.784	5.0
6.799	11.0
6.814	9.0
6.829	7.0
6.844	13.0
6.859	10.0
6.873	7.0
6.888	8.0
6.903	3.0
6.918	5.0
6.933	15.0
6.948	6.0
6.963	13.0
6.978	8.0
6.993	11.0
7.008	8.0
7.023	7.0
7.038	7.0
7.053	9.0
7.068	8.0
7.083	9.0
7.098	6.0
7.113	11.0
7.128	4.0
7.143	6.0
7.157	7.0
7.172	10.0
7.187	14.0
7.202	6.0
7.217	6.0
7.232	7.0
7.247	7.0
7.262	11.0
7.277	11.0
7.292	7.0
7.307	10.0
7.322	7.0
7.336	7.0
7.351	10.0
7.366	3.0
7.381	5.0
7.396	13.0
7.411	4.0
7.426	9.0
7.441	10.0
7.456	10.0
7.471	11.0
7.485	8.0
7.5	10.0
7.515	8.0
7.53	9.0
7.545	11.0
7.56	12.0
7.575	9.0
7.59	7.0
7.604	5.0
7.619	10.0
7.634	15.0
7.649	4.0
7.664	5.0
7.679	13.0
7.693	8.0
7.708	9.0
7.723	6.0
7.738	10.0
7.753	8.0
7.768	6.0
7.783	9.0
7.797	5.0
7.812	5.0
7.827	5.0
7.842	9.0
7.857	6.0
7.871	16.0
7.886	6.0
7.901	9.0
7.916	9.0
7.931	6.0
7.945	8.0
7.96	8.0
7.975	4.0
7.99	7.0
8.005	8.0
8.019	7.0
8.034	12.0
8.049	7.0
8.064	9.0
8.078	8.0
8.093	7.0
8.108	7.0
8.123	7.0
8.137	15.0
8.152	12.0
8.167	10.0
8.182	10.0
8.196	8.0
8.211	7.0
8.226	4.0
8.241	16.0
8.255	12.0
8.27	6.0
8.285	5.0
8.3	14.0
8.314	8.0
8.329	11.0
8.344	8.0
8.358	5.0
8.373	11.0
8.388	8.0
8.403	6.0
8.417	9.0
8.432	11.0
8.447	9.0
8.461	9.0
8.476	15.0
8.491	10.0
8.505	13.0
8.52	8.0
8.535	5.0
8.55	7.0
8.564	10.0
8.579	9.0
8.594	7.0
8.608	14.0
8.623	6.0
8.638	6.0
8.652	8.0
8.667	13.0
8.682	5.0
8.696	10.0
8.711	9.0
8.726	6.0
8.74	13.0
8.755	6.0
8.77	12.0
8.784	5.0
8.799	6.0
8.814	14.0
8.828	8.0
8.843	11.0
8.858	8.0
8.872	11.0
8.887	9.0
8.902	6.0
8.916	4.0
8.931	10.0
8.946	6.0
8.96	14.0
8.975	7.0
8.99	9.0
9.004	5.0
9.019	9.0
9.034	9.0
9.048	8.0
9.063	5.0
9.077	4.0
9.092	10.0
9.107	9.0
9.121	5.0
9.136	6.0
9.151	9.0
9.165	6.0
9.18	13.0
9.195	5.0
9.209	11.0
9.224	6.0
9.239	6.0
9.253	4.0
9.268	11.0
9.283	7.0
9.297	11.0
9.312	11.0
9.327	7.0
9.341	4.0
9.356	8.0
9.371	10.0
9.385	12.0
9.4	10.0
9.415	8.0
9.429	6.0
9.444	13.0
9.458	9.0
9.473	3.0
9.488	6.0
9.502	6.0
9.517	7.0
9.532	6.0
9.546	6.0
9.561	13.0
9.576	4.0
9.59	2.0
9.605	8.0
9.62	6.0
9.635	6.0
9.649	3.0
9.664	6.0
9.679	9.0
9.693	10.0
9.708	6.0
9.723	14.0
9.737	9.0
9.752	10.0
9.767	4.0
9.781	6.0
9.796	6.0
9.811	5.0
9.825	7.0
9.84	6.0
9.855	7.0
9.87	7.0
9.884	6.0
9.899	9.0
9.914	6.0
9.928	9.0
9.943	7.0
9.958	3.0
9.973	7.0
9.987	7.0
10.002	5.0
10.017	5.0
10.031	10.0
10.046	14.0
10.061	5.0
10.076	9.0
10.09	8.0
10.105	6.0
10.12	6.0
10.135	12.0
10.149	9.0
10.164	8.0
10.179	5.0
10.194	3.0
10.208	8.0
10.223	4.0
10.238	9.0
10.253	9.0
10.267	7.0
10.282	6.0
10.297	7.0
10.312	9.0
10.326	12.0
10.341	10.0
10.356	7.0
10.371	14.0
10.386	17.0
10.4	5.0
10.415	4.0
10.43	4.0
10.445	7.0
10.46	5.0
10.474	8.0
10.489	7.0
10.504	5.0
10.519	7.0
10.533	16.0
10.548	4.0
10.563	8.0
10.578	14.0
10.593	9.0
10.608	7.0
10.622	13.0
10.637	9.0
10.652	10.0
10.667	6.0
10.682	10.0
10.696	14.0
10.711	8.0
10.726	6.0
10.741	6.0
10.756	11.0
10.771	8.0
10.785	8.0
10.8	9.0
10.815	9.0
10.83	3.0
10.845	7.0
10.86	7.0
10.874	7.0
10.889	8.0
10.904	7.0
10.919	5.0
10.934	3.0
10.949	8.0
10.963	4.0
10.978	6.0
10.993	8.0
11.008	5.0
11.023	12.0
11.038	6.0
11.053	6.0
11.067	9.0
11.082	12.0
11.097	6.0
11.112	10.0
11.127	6.0
11.142	8.0
11.157	7.0
11.172	4.0
11.186	7.0
11.201	13.0
11.216	5.0
11.231	7.0
11.246	10.0
11.261	7.0
11.276	3.0
11.291	5.0
11.305	6.0
11.32	7.0
11.335	8.0
11.35	10.0
11.365	3.0
11.38	7.0
11.395	9.0
11.41	10.0
11.424	7.0
11.439	7.0
11.454	7.0
11.469	9.0
11.484	4.0
11.499	5.0
11.514	9.0
11.529	7.0
11.544	5.0
11.558	11.0
11.573	9.0
11.588	14.0
11.603	3.0
11.618	10.0
11.633	13.0
11.648	11.0
11.663	8.0
11.678	8.0
11.693	9.0
11.707	12.0
11.722	9.0
11.737	9.0
11.752	9.0
11.767	9.0
11.782	3.0
11.797	6.0
11.812	10.0
11.827	4.0
11.842	12.0
11.856	12.0
11.871	8.0
11.886	12.0
11.901	12.0
11.916	10.0
11.931	13.0
11.946	12.0
11.961	5.0
11.976	11.0
11.991	11.0
12.006	10.0
12.02	9.0
12.035	6.0
12.05	5.0
12.065	9.0
12.08	6.0
12.095	8.0
12.11	12.0
12.125	9.0
12.14	6.0
12.155	17.0
12.17	6.0
12.184	13.0
12.199	20.0
12.214	9.0
12.229	12.0
12.244	13.0
12.259	14.0
12.274	10.0
12.289	15.0
12.304	9.0
12.319	8.0
12.334	14.0
12.348	7.0
12.363	10.0
12.378	20.0
12.393	6.0
12.408	9.0
12.423	13.0
12.438	11.0
12.453	11.0
12.468	8.0
12.483	11.0
12.498	14.0
12.513	17.0
12.527	10.0
12.542	11.0
12.557	10.0
12.572	16.0
12.587	13.0
12.602	16.0
12.617	13.0
12.632	14.0
12.647	15.0
12.662	16.0
12.677	18.0
12.692	17.0
12.707	11.0
12.721	17.0
12.736	17.0
12.751	15.0
12.766	16.0
12.781	15.0
12.796	12.0
12.811	10.0
12.826	11.0
12.841	14.0
12.856	11.0
12.871	16.0
12.886	10.0
12.9	13.0
12.915	15.0
12.93	18.0
12.945	24.0
12.96	15.0
12.975	14.0
12.99	13.0
13.005	24.0
13.02	15.0
13.035	13.0
13.05	12.0
13.065	20.0
13.08	21.0
13.094	20.0
13.109	17.0
13.124	18.0
13.139	20.0
13.154	16.0
13.169	18.0
13.184	21.0
13.199	12.0
13.214	14.0
13.229	12.0
13.244	15.0
13.259	18.0
13.274	27.0
13.288	13.0
13.303	22.0
13.318	16.0
13.333	20.0
13.348	22.0
13.363	19.0
13.378	24.0
13.393	21.0
13.408	25.0
13.423	24.0
13.438	25.0
13.453	34.0
13.468	35.0
13.482	29.0
13.497	36.0
13.512	36.0
13.527	41.0
13.542	40.0
13.557	51.0
13.572	49.0
13.587	53.0
13.602	77.0
13.617	71.0
13.632	70.0
13.647	67.0
13.662	87.0
13.677	90.0
13.691	69.0
13.706	80.0
13.721	99.0
13.736	96.0
13.751	97.0
13.766	107.0
13.781	121.0
13.796	132.0
13.811	139.0
13.826	144.0
13.841	128.0
13.856	106.0
13.871	98.0
13.885	87.0
13.9	87.0
13.915	87.0
13.93	78.0
13.945	65.0
13.96	55.0
13.975	45.0
13.99	36.0
14.005	33.0
14.02	33.0
14.035	24.0
14.05	21.0
14.065	17.0
14.08	26.0
14.094	21.0
14.109	26.0
14.124	26.0
14.139	19.0
14.154	21.0
14.169	18.0
14.184	23.0
14.199	18.0
14.214	25.0
14.229	28.0
14.244	17.0
14.259	14.0
14.274	13.0
14.288	13.0
14.303	21.0
14.318	16.0
14.333	17.0
14.348	21.0
14.363	12.0
14.378	15.0
14.393	14.0
14.408	15.0
14.423	20.0
14.438	22.0
14.453	14.0
14.468	11.0
14.482	16.0
14.497	26.0
14.512	11.0
14.527	12.0
14.542	15.0
14.557	18.0
14.572	12.0
14.587	22.0
14.602	20.0
14.617	15.0
14.632	18.0
14.647	10.0
14.661	21.0
14.676	16.0
14.691	16.0
14.706	16.0
14.721	9.0
14.736	15.0
14.751	20.0
14.766	14.0
14.781	19.0
14.796	10.0
14.811	12.0
14.826	12.0
14.84	17.0
14.855	11.0
14.87	12.0
14.885	19.0
14.9	18.0
14.915	21.0
14.93	15.0
14.945	16.0
14.96	18.0
14.975	15.0
14.989	15.0
15.004	14.0
15.019	20.0
15.034	22.0
15.049	15.0
15.064	12.0
15.079	19.0
15.094	14.0
15.109	16.0
15.124	15.0
15.138	14.0
15.153	14.0
15.168	15.0
15.183	19.0
15.198	13.0
15.213	14.0
15.228	12.0
15.243	16.0
15.258	13.0
15.272	19.0
15.287	12.0
15.302	21.0
15.317	10.0
15.332	13.0
15.347	12.0
15.362	18.0
15.377	12.0
15.391	10.0
15.406	10.0
15.421	23.0
15.436	11.0
15.451	16.0
15.466	18.0
15.481	20.0
15.496	9.0
15.51	22.0
15.525	16.0
15.54	21.0
15.555	13.0
15.57	14.0
15.585	17.0
15.6	18.0
15.614	13.0
15.629	15.0
15.644	12.0
15.659	15.0
15.674	5.0
15.689	17.0
15.704	16.0
15.718	9.0
15.733	15.0
15.748	13.0
15.763	14.0
15.778	19.0
15.793	14.0
15.808	21.0
15.822	9.0
15.837	14.0
15.852	11.0
15.867	21.0
15.882	11.0
15.897	14.0
15.911	17.0
15.926	8.0
15.941	12.0
15.956	11.0
15.971	13.0
15.986	14.0
16.0	10.0
16.015	12.0
16.03	21.0
16.045	16.0
16.06	15.0
16.074	7.0
16.089	13.0
16.104	20.0
16.119	14.0
16.134	7.0
16.149	13.0
16.163	15.0
16.178	12.0
16.193	18.0
16.208	15.0
16.223	14.0
16.237	14.0
16.252	11.0
16.267	19.0
16.282	14.0
16.297	20.0
16.311	13.0
16.326	17.0
16.341	17.0
16.356	13.0
16.37	18.0
16.385	15.0
16.4	10.0
16.415	12.0
16.43	17.0
16.444	14.0
16.459	11.0
16.474	10.0
16.489	12.0
16.504	18.0
16.518	17.0
16.533	9.0
16.548	8.0
16.563	24.0
16.577	17.0
16.592	17.0
16.607	19.0
16.622	21.0
16.637	13.0
16.651	13.0
16.666	21.0
16.681	17.0
16.696	27.0
16.71	21.0
16.725	32.0
16.74	23.0
16.755	40.0
16.77	19.0
16.784	34.0
16.799	36.0
16.814	31.0
16.829	36.0
16.843	48.0
16.858	48.0
16.873	56.0
16.888	62.0
16.902	57.0
16.917	63.0
16.932	64.0
16.947	65.0
16.961	73.0
16.976	86.0
16.991	92.0
17.006	65.0
17.021	43.0
17.035	57.0
17.05	44.0
17.065	42.0
17.08	55.0
17.094	33.0
17.109	31.0
17.124	28.0
17.139	25.0
17.153	20.0
17.168	17.0
17.183	18.0
17.198	11.0
17.212	10.0
17.227	11.0
17.242	8.0
17.257	16.0
17.271	22.0
17.286	18.0
17.301	10.0
17.316	15.0
17.33	12.0
17.345	11.0
17.36	10.0
17.375	10.0
17.39	15.0
17.404	15.0
17.419	14.0
17.434	14.0
17.449	11.0
17.463	7.0
17.478	11.0
17.493	14.0
17.508	9.0
17.522	17.0
17.537	11.0
17.552	19.0
17.567	13.0
17.581	10.0
17.596	10.0
17.611	15.0
17.626	13.0
17.641	13.0
17.655	8.0
17.67	10.0
17.685	11.0
17.7	17.0
17.714	8.0
17.729	12.0
17.744	11.0
17.759	15.0
17.773	12.0
17.788	19.0
17.803	15.0
17.818	4.0
17.833	7.0
17.847	7.0
17.862	15.0
17.877	13.0
17.892	9.0
17.906	12.0
17.921	10.0
17.936	12.0
17.951	12.0
17.966	10.0
17.98	10.0
17.995	9.0
18.01	9.0
18.025	9.0
18.04	19.0
18.054	11.0
18.069	14.0
18.084	16.0
18.099	7.0
18.114	11.0
18.128	11.0
18.143	12.0
18.158	12.0
18.173	18.0
18.188	13.0
18.202	11.0
18.217	10.0
18.232	14.0
18.247	18.0
18.262	10.0
18.276	10.0
18.291	11.0
18.306	5.0
18.321	14.0
18.336	13.0
18.35	7.0
18.365	15.0
18.38	12.0
18.395	9.0
18.41	11.0
18.424	9.0
18.439	8.0
18.454	9.0
18.469	12.0
18.484	10.0
18.498	9.0
18.513	14.0
18.528	9.0
18.543	7.0
18.558	9.0
18.573	9.0
18.587	15.0
18.602	10.0
18.617	7.0
18.632	10.0
18.647	13.0
18.661	13.0
18.676	11.0
18.691	14.0
18.706	10.0
18.721	12.0
18.736	15.0
18.75	8.0
18.765	10.0
18.78	7.0
18.795	11.0
18.81	7.0
18.825	13.0
18.839	8.0
18.854	11.0
18.869	7.0
18.884	7.0
18.899	9.0
18.913	11.0
18.928	11.0
18.943	18.0
18.958	14.0
18.973	9.0
18.988	11.0
19.002	13.0
19.017	10.0
19.032	16.0
19.047	13.0
19.062	8.0
19.077	7.0
19.091	15.0
19.106	11.0
19.121	10.0
19.136	17.0
19.151	9.0
19.165	11.0
19.18	7.0
19.195	15.0
19.21	12.0
19.225	7.0
19.24	17.0
19.254	18.0
19.269	16.0
19.284	10.0
19.299	13.0
19.314	19.0
19.329	11.0
19.343	22.0
19.358	16.0
19.373	16.0
19.388	11.0
19.403	23.0
19.417	19.0
19.432	32.0
19.447	25.0
19.462	16.0
19.477	20.0
19.492	30.0
19.506	34.0
19.521	37.0
19.536	35.0
19.551	33.0
19.566	38.0
19.58	36.0
19.595	43.0
19.61	36.0
19.625	55.0
19.64	33.0
19.655	39.0
19.669	33.0
19.684	35.0
19.699	31.0
19.714	30.0
19.729	34.0
19.743	19.0
19.758	20.0
19.773	25.0
19.788	17.0
19.803	15.0
19.817	11.0
19.832	7.0
19.847	17.0
19.862	11.0
19.877	13.0
19.891	13.0
19.906	18.0
19.921	12.0
19.936	14.0
19.951	10.0
19.965	12.0
19.98	12.0
19.995	9.0
20.01	11.0
20.025	15.0
20.039	9.0
20.054	4.0
20.069	17.0
20.084	9.0
20.099	15.0
20.113	8.0
20.128	7.0
20.143	12.0
20.158	16.0
20.173	6.0
20.187	7.0
20.202	7.0
20.217	11.0
20.232	13.0
20.246	10.0
20.261	10.0
20.276	14.0
20.291	6.0
20.306	16.0
20.32	11.0
20.335	10.0
20.35	9.0
20.365	8.0
20.38	11.0
20.394	6.0
20.409	15.0
20.424	7.0
20.439	12.0
20.453	8.0
20.468	8.0
20.483	19.0
20.498	10.0
20.513	8.0
20.527	15.0
20.542	13.0
20.557	14.0
20.572	13.0
20.586	10.0
20.601	11.0
20.616	16.0
20.631	14.0
20.646	12.0
20.66	15.0
20.675	12.0
20.69	10.0
20.705	15.0
20.719	8.0
20.734	13.0
20.749	10.0
20.764	9.0
20.779	14.0
20.793	11.0
20.808	13.0
20.823	13.0
20.838	16.0
20.853	10.0
20.867	16.0
20.882	10.0
20.897	9.0
20.912	6.0
20.926	16.0
20.941	9.0
20.956	7.0
20.971	7.0
20.986	17.0
21.0	12.0
21.015	10.0
21.03	14.0
21.045	11.0
21.06	6.0
21.074	6.0
21.089	14.0
21.104	10.0
21.119	10.0
21.134	13.0
21.148	13.0
21.163	7.0
21.178	18.0
21.193	11.0
21.208	15.0
21.222	12.0
21.237	8.0
21.252	16.0
21.267	12.0
21.282	13.0
21.296	6.0
21.311	4.0
21.326	16.0
21.341	14.0
21.356	16.0
21.37	14.0
21.385	11.0
21.4	9.0
21.415	16.0
21.43	15.0
21.444	11.0
21.459	24.0
21.474	20.0
21.489	16.0
21.504	9.0
21.519	14.0
21.533	15.0
21.548	10.0
21.563	14.0
21.578	16.0
21.593	14.0
21.608	15.0
21.622	17.0
21.637	19.0
21.652	16.0
21.667	18.0
21.682	17.0
21.697	22.0
21.712	19.0
21.726	19.0
21.741	20.0
21.756	31.0
21.771	26.0
21.786	38.0
21.801	33.0
21.816	34.0
21.83	40.0
21.845	43.0
21.86	58.0
21.875	73.0
21.89	56.0
21.905	78.0
21.92	72.0
21.935	77.0
21.949	76.0
21.964	80.0
21.979	66.0
21.994	63.0
22.009	59.0
22.024	65.0
22.039	68.0
22.054	44.0
22.069	40.0
22.083	51.0
22.098	31.0
22.113	37.0
22.128	41.0
22.143	27.0
22.158	21.0
22.173	21.0
22.188	25.0
22.203	12.0
22.218	11.0
22.233	17.0
22.248	13.0
22.262	10.0
22.277	16.0
22.292	9.0
22.307	14.0
22.322	7.0
22.337	13.0
22.352	18.0
22.367	15.0
22.382	12.0
22.397	10.0
22.412	9.0
22.427	12.0
22.442	10.0
22.457	12.0
22.472	20.0
22.487	9.0
22.502	6.0
22.516	15.0
22.531	16.0
22.546	9.0
22.561	19.0
22.576	15.0
22.591	9.0
22.606	11.0
22.621	13.0
22.636	11.0
22.651	8.0
22.666	9.0
22.681	18.0
22.696	18.0
22.711	8.0
22.726	5.0
22.741	11.0
22.756	10.0
22.771	10.0
22.786	8.0
22.801	8.0
22.816	18.0
22.831	10.0
22.846	15.0
22.861	6.0
22.876	14.0
22.891	14.0
22.906	8.0
22.92	5.0
22.935	12.0
22.95	5.0
22.965	10.0
22.98	9.0
22.995	12.0
23.01	13.0
23.025	11.0
23.04	4.0
23.055	10.0
23.07	10.0
23.085	11.0
23.1	7.0
23.115	9.0
23.13	2.0
23.145	6.0
23.16	13.0
23.175	9.0
23.19	6.0
23.205	9.0
23.22	11.0
23.235	6.0
23.25	8.0
23.265	17.0
23.28	3.0
23.295	7.0
23.31	13.0
23.325	12.0
23.34	7.0
23.355	11.0
23.37	9.0
23.384	7.0
23.399	6.0
23.414	9.0
23.429	6.0
23.444	11.0
23.459	12.0
23.474	13.0
23.489	10.0
23.504	9.0
23.519	11.0
23.534	8.0
23.549	14.0
23.564	13.0
23.579	11.0
23.594	8.0
23.609	17.0
23.624	11.0
23.639	9.0
23.654	12.0
23.668	15.0
23.683	6.0
23.698	9.0
23.713	18.0
23.728	17.0
23.743	13.0
23.758	4.0
23.773	17.0
23.788	16.0
23.803	14.0
23.818	13.0
23.833	19.0
23.848	14.0
23.862	19.0
23.877	24.0
23.892	22.0
23.907	21.0
23.922	30.0
23.937	25.0
23.952	30.0
23.967	33.0
23.982	36.0
23.997	45.0
24.011	31.0
24.026	49.0
24.041	43.0
24.056	48.0
24.071	44.0
24.086	48.0
24.101	54.0
24.116	48.0
24.131	60.0
24.145	50.0
24.16	46.0
24.175	29.0
24.19	36.0
24.205	40.0
24.22	36.0
24.235	37.0
24.249	34.0
24.264	32.0
24.279	18.0
24.294	16.0
24.309	14.0
24.324	15.0
24.338	15.0
24.353	21.0
24.368	10.0
24.383	11.0
24.398	15.0
24.413	8.0
24.428	8.0
24.442	13.0
24.457	7.0
24.472	18.0
24.487	9.0
24.502	10.0
24.516	6.0
24.531	9.0
24.546	11.0
24.561	8.0
24.576	13.0
24.591	18.0
24.605	6.0
24.62	7.0
24.635	13.0
24.65	10.0
24.665	8.0
24.679	10.0
24.694	7.0
24.709	12.0
24.724	12.0
24.739	13.0
24.753	16.0
24.768	10.0
24.783	12.0
24.798	9.0
24.813	13.0
24.827	13.0
24.842	10.0
24.857	13.0
24.872	10.0
24.886	6.0
24.901	12.0
24.916	8.0
24.931	7.0
24.946	5.0
24.96	5.0
24.975	12.0
24.99	8.0
25.005	9.0
25.019	12.0
25.034	18.0
25.049	15.0
25.064	6.0
25.078	12.0
25.093	10.0
25.108	10.0
25.123	6.0
25.138	12.0
25.152	8.0
25.167	6.0
25.182	9.0
25.197	13.0
25.211	16.0
25.226	11.0
25.241	6.0
25.256	11.0
25.27	13.0
25.285	14.0
25.3	8.0
25.315	8.0
25.329	9.0
25.344	10.0
25.359	14.0
25.374	10.0
25.388	14.0
25.403	7.0
25.418	5.0
25.433	7.0
25.447	9.0
25.462	9.0
25.477	5.0
25.492	7.0
25.506	7.0
25.521	8.0
25.536	6.0
25.55	11.0
25.565	10.0
25.58	9.0
25.595	13.0
25.609	10.0
25.624	10.0
25.639	14.0
25.654	14.0
25.668	9.0
25.683	7.0
25.698	9.0
25.713	6.0
25.727	11.0
25.742	6.0
25.757	10.0
25.772	10.0
25.786	8.0
25.801	7.0
25.816	11.0
25.83	10.0
25.845	12.0
25.86	6.0
25.875	6.0
25.889	6.0
25.904	5.0
25.919	8.0
25.934	7.0
25.948	10.0
25.963	12.0
25.978	10.0
25.992	13.0
26.007	9.0
26.022	11.0
26.037	8.0
26.051	11.0
26.066	12.0
26.081	10.0
26.096	12.0
26.11	10.0
26.125	5.0
26.14	9.0
26.155	11.0
26.169	10.0
26.184	9.0
26.199	11.0
26.213	18.0
26.228	7.0
26.243	14.0
26.258	6.0
26.272	9.0
26.287	10.0
26.302	7.0
26.317	1.0
26.331	13.0
26.346	12.0
26.361	9.0
26.376	16.0
26.39	9.0
26.405	10.0
26.42	14.0
26.434	5.0
26.449	13.0
26.464	7.0
26.479	9.0
26.493	7.0
26.508	15.0
26.523	9.0
26.538	11.0
26.552	12.0
26.567	9.0
26.582	9.0
26.597	13.0
26.611	12.0
26.626	7.0
26.641	9.0
26.656	9.0
26.67	10.0
26.685	7.0
26.7	7.0
26.715	9.0
26.729	4.0
26.744	10.0
26.759	11.0
26.773	10.0
26.788	6.0
26.803	14.0
26.818	7.0
26.832	8.0
26.847	7.0
26.862	8.0
26.877	9.0
26.891	8.0
26.906	11.0
26.921	11.0
26.936	7.0
26.95	11.0
26.965	13.0
26.98	7.0
26.995	10.0
27.01	10.0
27.024	12.0
27.039	10.0
27.054	10.0
27.069	10.0
27.083	8.0
27.098	17.0
27.113	7.0
27.128	7.0
27.142	9.0
27.157	7.0
27.172	14.0
27.187	7.0
27.201	10.0
27.216	5.0
27.231	13.0
27.246	9.0
27.261	16.0
27.275	15.0
27.29	8.0
27.305	14.0
27.32	12.0
27.334	8.0
27.349	5.0
27.364	8.0
27.379	9.0
27.394	9.0
27.408	4.0
27.423	11.0
27.438	10.0
27.453	9.0
27.467	17.0
27.482	12.0
27.497	10.0
27.512	7.0
27.527	6.0
27.541	10.0
27.556	8.0
27.571	7.0
27.586	13.0
27.601	16.0
27.615	15.0
27.63	14.0
27.645	14.0
27.66	16.0
27.675	14.0
27.689	7.0
27.704	12.0
27.719	10.0
27.734	22.0
27.749	14.0
27.763	21.0
27.778	16.0
27.793	22.0
27.808	24.0
27.823	26.0
27.838	20.0
27.852	21.0
27.867	16.0
27.882	22.0
27.897	25.0
27.912	19.0
27.926	20.0
27.941	23.0
27.956	27.0
27.971	19.0
27.986	20.0
28.001	13.0
28.015	22.0
28.03	19.0
28.045	12.0
28.06	20.0
28.075	25.0
28.09	21.0
28.105	15.0
28.119	14.0
28.134	13.0
28.149	17.0
28.164	15.0
28.179	10.0
28.194	9.0
28.208	9.0
28.223	13.0
28.238	10.0
28.253	16.0
28.268	20.0
28.283	9.0
28.298	11.0
28.312	7.0
28.327	10.0
28.342	11.0
28.357	8.0
28.372	7.0
28.387	15.0
28.402	10.0
28.417	9.0
28.431	6.0
28.446	11.0
28.461	11.0
28.476	4.0
28.491	9.0
28.506	6.0
28.521	9.0
28.536	14.0
28.55	8.0
28.565	14.0
28.58	14.0
28.595	4.0
28.61	5.0
28.625	5.0
28.64	9.0
28.655	10.0
28.669	7.0
28.684	11.0
28.699	9.0
28.714	11.0
28.729	10.0
28.744	9.0
28.759	11.0
28.774	9.0
28.788	13.0
28.803	9.0
28.818	9.0
28.833	12.0
28.848	16.0
28.863	10.0
28.878	16.0
28.893	11.0
28.908	9.0
28.922	11.0
28.937	10.0
28.952	13.0
28.967	7.0
28.982	9.0
28.997	4.0
29.012	15.0
29.027	12.0
29.041	3.0
29.056	8.0
29.071	10.0
29.086	11.0
29.101	11.0
29.116	8.0
29.131	10.0
29.146	7.0
29.16	5.0
29.175	12.0
29.19	12.0
29.205	6.0
29.22	7.0
29.235	12.0
29.25	15.0
29.265	14.0
29.279	7.0
29.294	13.0
29.309	14.0
29.324	15.0
29.339	14.0
29.354	15.0
29.369	16.0
29.384	17.0
29.398	12.0
29.413	20.0
29.428	19.0
29.443	19.0
29.458	17.0
29.473	25.0
29.488	24.0
29.502	32.0
29.517	25.0
29.532	28.0
29.547	45.0
29.562	37.0
29.577	43.0
29.592	50.0
29.606	56.0
29.621	55.0
29.636	46.0
29.651	38.0
29.666	44.0
29.681	51.0
29.695	36.0
29.71	39.0
29.725	38.0
29.74	28.0
29.755	23.0
29.77	28.0
29.784	31.0
29.799	31.0
29.814	28.0
29.829	29.0
29.844	16.0
29.859	15.0
29.873	11.0
29.888	20.0
29.903	12.0
29.918	17.0
29.933	12.0
29.947	14.0
29.962	6.0
29.977	17.0
29.992	15.0
30.007	14.0
30.021	7.0
30.036	13.0
30.051	10.0
30.066	10.0
30.081	11.0
30.095	19.0
30.11	9.0
30.125	12.0
30.14	9.0
30.155	10.0
30.169	8.0
30.184	9.0
30.199	10.0
30.214	10.0
30.228	7.0
30.243	12.0
30.258	11.0
30.273	10.0
30.288	17.0
30.302	16.0
30.317	6.0
30.332	7.0
30.347	17.0
30.361	8.0
30.376	7.0
30.391	15.0
30.406	12.0
30.42	10.0
30.435	12.0
30.45	19.0
30.465	8.0
30.479	13.0
30.494	15.0
30.509	18.0
30.524	10.0
30.538	11.0
30.553	12.0
30.568	9.0
30.583	11.0
30.597	7.0
30.612	8.0
30.627	9.0
30.641	8.0
30.656	9.0
30.671	13.0
30.686	13.0
30.7	12.0
30.715	16.0
30.73	6.0
30.745	12.0
30.759	7.0
30.774	6.0
30.789	9.0
30.803	12.0
30.818	13.0
30.833	11.0
30.848	9.0
30.862	11.0
30.877	8.0
30.892	13.0
30.906	8.0
30.921	14.0
30.936	12.0
30.951	6.0
30.965	13.0
30.98	17.0
30.995	11.0
31.009	18.0
31.024	16.0
31.039	15.0
31.053	13.0
31.068	20.0
31.083	18.0
31.098	16.0
31.112	22.0
31.127	10.0
31.142	23.0
31.156	17.0
31.171	30.0
31.186	36.0
31.2	30.0
31.215	36.0
31.23	26.0
31.245	41.0
31.259	36.0
31.274	29.0
31.289	28.0
31.303	30.0
31.318	36.0
31.333	34.0
31.347	26.0
31.362	22.0
31.377	18.0
31.392	27.0
31.406	24.0
31.421	25.0
31.436	21.0
31.45	34.0
31.465	27.0
31.48	22.0
31.494	17.0
31.509	15.0
31.524	21.0
31.538	16.0
31.553	8.0
31.568	16.0
31.583	9.0
31.597	6.0
31.612	13.0
31.627	9.0
31.641	6.0
31.656	14.0
31.671	12.0
31.685	10.0
31.7	11.0
31.715	11.0
31.729	11.0
31.744	9.0
31.759	10.0
31.774	13.0
31.788	7.0
31.803	13.0
31.818	10.0
31.832	17.0
31.847	9.0
31.862	9.0
31.876	11.0
31.891	13.0
31.906	21.0
31.92	12.0
31.935	9.0
31.95	6.0
31.965	12.0
31.979	6.0
31.994	11.0
32.009	8.0
32.023	10.0
32.038	9.0
32.053	11.0
32.067	8.0
32.082	6.0
32.097	11.0
32.112	9.0
32.126	9.0
32.141	13.0
32.156	8.0
32.17	10.0
32.185	13.0
32.2	9.0
32.214	12.0
32.229	15.0
32.244	9.0
32.259	10.0
32.273	10.0
32.288	6.0
32.303	8.0
32.317	7.0
32.332	17.0
32.347	14.0
32.362	6.0
32.376	12.0
32.391	6.0
32.406	4.0
32.42	11.0
32.435	8.0
32.45	6.0
32.465	6.0
32.479	11.0
32.494	9.0
32.509	5.0
32.523	4.0
32.538	15.0
32.553	17.0
32.568	13.0
32.582	10.0
32.597	6.0
32.612	11.0
32.627	15.0
32.641	14.0
32.656	17.0
32.671	19.0
32.685	15.0
32.7	23.0
32.715	17.0
32.73	25.0
32.744	19.0
32.759	20.0
32.774	22.0
32.788	24.0
32.803	22.0
32.818	25.0
32.833	22.0
32.847	24.0
32.862	24.0
32.877	25.0
32.892	30.0
32.906	31.0
32.921	25.0
32.936	20.0
32.951	15.0
32.965	14.0
32.98	21.0
32.995	14.0
33.009	24.0
33.024	23.0
33.039	20.0
33.054	12.0
33.068	17.0
33.083	20.0
33.098	14.0
33.113	14.0
33.127	12.0
33.142	14.0
33.157	14.0
33.172	10.0
33.186	6.0
33.201	6.0
33.216	12.0
33.231	15.0
33.245	11.0
33.26	11.0
33.275	11.0
33.29	6.0
33.304	15.0
33.319	12.0
33.334	9.0
33.349	9.0
33.363	5.0
33.378	8.0
33.393	8.0
33.408	16.0
33.422	10.0
33.437	11.0
33.452	12.0
33.467	14.0
33.481	3.0
33.496	9.0
33.511	4.0
33.526	13.0
33.54	7.0
33.555	6.0
33.57	10.0
33.585	10.0
33.599	15.0
33.614	13.0
33.629	14.0
33.644	10.0
33.658	10.0
33.673	8.0
33.688	11.0
33.703	6.0
33.718	10.0
33.732	8.0
33.747	6.0
33.762	11.0
33.777	9.0
33.791	7.0
33.806	7.0
33.821	8.0
33.836	12.0
33.85	10.0
33.865	9.0
33.88	13.0
33.895	5.0
33.91	10.0
33.924	16.0
33.939	9.0
33.954	7.0
33.969	7.0
33.983	11.0
33.998	4.0
34.013	8.0
34.028	4.0
34.042	11.0
34.057	8.0
34.072	6.0
34.087	9.0
34.102	10.0
34.116	15.0
34.131	10.0
34.146	13.0
34.161	11.0
34.175	17.0
34.19	14.0
34.205	16.0
34.22	11.0
34.235	19.0
34.249	10.0
34.264	10.0
34.279	17.0
34.294	16.0
34.309	22.0
34.323	13.0
34.338	18.0
34.353	18.0
34.368	8.0
34.382	19.0
34.397	9.0
34.412	11.0
34.427	17.0
34.442	11.0
34.456	14.0
34.471	12.0
34.486	6.0
34.501	20.0
34.516	12.0
34.53	11.0
34.545	15.0
34.56	17.0
34.575	14.0
34.59	14.0
34.604	3.0
34.619	18.0
34.634	12.0
34.649	9.0
34.664	10.0
34.678	12.0
34.693	5.0
34.708	13.0
34.723	9.0
34.738	7.0
34.752	8.0
34.767	10.0
34.782	9.0
34.797	7.0
34.812	9.0
34.826	13.0
34.841	12.0
34.856	4.0
34.871	2.0
34.886	10.0
34.9	8.0
34.915	9.0
34.93	15.0
34.945	11.0
34.96	9.0
34.974	14.0
34.989	11.0
35.004	13.0
35.019	7.0
35.034	9.0
35.048	9.0
35.063	10.0
35.078	10.0
35.093	10.0
35.108	12.0
35.122	7.0
35.137	5.0
35.152	9.0
35.167	12.0
35.182	9.0
35.196	9.0
35.211	10.0
35.226	6.0
35.241	8.0
35.256	6.0
35.27	9.0
35.285	6.0
35.3	5.0
35.315	7.0
35.33	8.0
35.344	5.0
35.359	12.0
35.374	7.0
35.389	13.0
35.404	15.0
35.418	10.0
35.433	9.0
35.448	9.0
35.463	10.0
35.478	7.0
35.493	9.0
35.507	9.0
35.522	4.0
35.537	10.0
35.552	6.0
35.567	3.0
35.581	9.0
35.596	11.0
35.611	10.0
35.626	9.0
35.641	13.0
35.655	11.0
35.67	20.0
35.685	12.0
35.7	13.0
35.715	18.0
35.729	17.0
35.744	18.0
35.759	14.0
35.774	24.0
35.789	11.0
35.804	18.0
35.818	23.0
35.833	20.0
35.848	24.0
35.863	20.0
35.878	15.0
35.892	17.0
35.907	18.0
35.922	14.0
35.937	13.0
35.952	16.0
35.966	14.0
35.981	9.0
35.996	11.0
36.011	18.0
36.026	14.0
36.04	15.0
36.055	12.0
36.07	11.0
36.085	10.0
36.1	7.0
36.114	10.0
36.129	12.0
36.144	17.0
36.159	9.0
36.174	11.0
36.189	6.0
36.203	9.0
36.218	8.0
36.233	7.0
36.248	8.0
36.263	6.0
36.277	6.0
36.292	3.0
36.307	9.0
36.322	8.0
36.337	10.0
36.351	4.0
36.366	9.0
36.381	9.0
36.396	9.0
36.411	2.0
36.426	6.0
36.44	8.0
36.455	4.0
36.47	6.0
36.485	6.0
36.5	4.0
36.514	6.0
36.529	9.0
36.544	7.0
36.559	9.0
36.574	6.0
36.589	12.0
36.603	9.0
36.618	5.0
36.633	11.0
36.648	6.0
36.663	6.0
36.677	4.0
36.692	13.0
36.707	7.0
36.722	8.0
36.737	8.0
36.752	12.0
36.766	7.0
36.781	11.0
36.796	8.0
36.811	11.0
36.826	8.0
36.841	9.0
36.855	10.0
36.87	11.0
36.885	12.0
36.9	7.0
36.915	4.0
36.93	5.0
36.944	2.0
36.959	7.0
36.974	8.0
36.989	9.0
37.004	9.0
37.019	13.0
37.033	14.0
37.048	10.0
37.063	7.0
37.078	15.0
37.093	18.0
37.108	13.0
37.123	14.0
37.137	24.0
37.152	30.0
37.167	26.0
37.182	20.0
37.197	30.0
37.212	35.0
37.226	33.0
37.241	21.0
37.256	18.0
37.271	26.0
37.286	19.0
37.301	20.0
37.316	12.0
37.331	15.0
37.345	11.0
37.36	15.0
37.375	17.0
37.39	16.0
37.405	6.0
37.42	22.0
37.435	14.0
37.45	21.0
37.464	11.0
37.479	16.0
37.494	11.0
37.509	11.0
37.524	14.0
37.539	8.0
37.554	5.0
37.569	4.0
37.583	5.0
37.598	10.0
37.613	9.0
37.628	7.0
37.643	7.0
37.658	3.0
37.673	10.0
37.688	9.0
37.703	6.0
37.718	3.0
37.733	4.0
37.747	7.0
37.762	7.0
37.777	7.0
37.792	6.0
37.807	4.0
37.822	5.0
37.837	14.0
37.852	5.0
37.867	8.0
37.882	4.0
37.897	7.0
37.912	6.0
37.927	6.0
37.941	5.0
37.956	3.0
37.971	5.0
37.986	5.0
38.001	7.0
38.016	9.0
38.031	7.0
38.046	8.0
38.061	7.0
38.076	7.0
38.091	6.0
38.106	4.0
38.121	6.0
38.136	4.0
38.151	2.0
38.166	8.0
38.181	11.0
38.196	9.0
38.211	12.0
38.226	8.0
38.241	2.0
38.256	3.0
38.271	4.0
38.285	3.0
38.3	3.0
38.315	7.0
38.33	11.0
38.345	10.0
38.36	11.0
38.375	3.0
38.39	4.0
38.405	3.0
38.42	9.0
38.435	2.0
38.45	2.0
38.465	4.0
38.48	7.0
38.495	3.0
38.51	4.0
38.525	5.0
38.54	7.0
38.555	7.0
38.57	8.0
38.585	8.0
38.6	11.0
38.615	4.0
38.63	5.0
38.645	6.0
38.66	5.0
38.675	8.0
38.69	9.0
38.705	6.0
38.72	4.0
38.735	5.0
38.75	8.0
38.765	6.0
38.78	6.0
38.795	5.0
38.81	6.0
38.825	3.0
38.84	9.0
38.855	3.0
38.87	4.0
38.885	4.0
38.9	10.0
38.915	4.0
38.93	3.0
38.945	1.0
38.96	4.0
38.975	9.0
38.99	7.0
39.005	9.0
39.02	4.0
39.035	4.0
39.05	3.0
39.065	3.0
39.08	5.0
39.095	5.0
39.11	5.0
39.125	5.0
39.14	4.0
39.155	5.0
39.17	8.0
39.185	4.0
39.2	8.0
39.215	1.0
39.23	8.0
39.245	6.0
39.26	0.0
39.275	9.0
39.29	6.0
39.305	3.0
39.32	8.0
39.335	10.0
39.35	9.0
39.365	6.0
39.38	12.0
39.395	9.0
39.409	3.0
39.424	7.0
39.439	4.0
39.454	5.0
39.469	7.0
39.484	11.0
39.499	3.0
39.514	1.0
39.529	4.0
39.544	13.0
39.559	6.0
39.574	5.0
39.589	4.0
39.604	4.0
39.619	6.0
39.634	5.0
39.649	6.0
39.664	4.0
39.678	9.0
39.693	7.0
39.708	8.0
39.723	6.0
39.738	6.0
39.753	3.0
39.768	6.0
39.783	8.0
39.798	8.0
39.813	9.0
39.827	8.0
39.842	11.0
39.857	11.0
39.872	12.0
39.887	6.0
39.902	8.0
39.917	7.0
39.932	6.0
39.947	4.0
39.961	8.0
39.976	7.0
39.991	4.0
40.006	13.0
40.021	13.0
40.036	9.0
40.051	4.0
40.065	5.0
40.08	7.0
40.095	6.0
40.11	9.0
40.125	11.0
40.14	8.0
40.154	8.0
40.169	7.0
40.184	7.0
40.199	11.0
40.214	6.0
40.228	10.0
40.243	7.0
40.258	3.0
40.273	6.0
40.288	6.0
40.302	4.0
40.317	7.0
40.332	6.0
40.347	0.0
40.362	3.0
40.376	12.0
40.391	6.0
40.406	4.0
40.421	5.0
40.436	10.0
40.45	4.0
40.465	4.0
40.48	9.0
40.495	5.0
40.509	3.0
40.524	3.0
40.539	4.0
40.554	10.0
40.568	3.0
40.583	3.0
40.598	5.0
40.613	5.0
40.627	5.0
40.642	7.0
40.657	4.0
40.672	6.0
40.686	11.0
40.701	10.0
40.716	8.0
40.731	7.0
40.745	11.0
40.76	4.0
40.775	8.0
40.79	5.0
40.804	5.0
40.819	6.0
40.834	1.0
40.849	6.0
40.863	11.0
40.878	3.0
40.893	8.0
40.907	3.0
40.922	8.0
40.937	7.0
40.952	6.0
40.966	3.0
40.981	7.0
40.996	11.0
41.011	19.0
41.025	9.0
41.04	6.0
41.055	12.0
41.069	20.0
41.084	17.0
41.099	15.0
41.114	16.0
41.128	18.0
41.143	17.0
41.158	25.0
41.173	16.0
41.187	24.0
41.202	16.0
41.217	10.0
41.231	15.0
41.246	9.0
41.261	10.0
41.276	15.0
41.29	12.0
41.305	11.0
41.32	13.0
41.335	11.0
41.349	11.0
41.364	13.0
41.379	11.0
41.393	13.0
41.408	13.0
41.423	16.0
41.438	8.0
41.452	17.0
41.467	6.0
41.482	11.0
41.497	7.0
41.511	7.0
41.526	7.0
41.541	4.0
41.556	7.0
41.57	18.0
41.585	11.0
41.6	7.0
41.615	8.0
41.629	7.0
41.644	5.0
41.659	7.0
41.674	4.0
41.688	8.0
41.703	3.0
41.718	13.0
41.733	3.0
41.747	10.0
41.762	6.0
41.777	6.0
41.792	6.0
41.806	13.0
41.821	6.0
41.836	4.0
41.851	1.0
41.866	3.0
41.88	2.0
41.895	9.0
41.91	6.0
41.925	6.0
41.939	7.0
41.954	4.0
41.969	6.0
41.984	7.0
41.999	1.0
42.013	2.0
42.028	2.0
42.043	13.0
42.058	7.0
42.073	4.0
42.088	7.0
42.102	4.0
42.117	5.0
42.132	3.0
42.147	9.0
42.162	9.0
42.176	6.0
42.191	7.0
42.206	10.0
42.221	5.0
42.236	10.0
42.251	6.0
42.266	11.0
42.28	9.0
42.295	12.0
42.31	10.0
42.325	8.0
42.34	14.0
42.355	15.0
42.369	16.0
42.384	21.0
42.399	20.0
42.414	22.0
42.429	14.0
42.444	18.0
42.459	16.0
42.474	16.0
42.488	15.0
42.503	11.0
42.518	7.0
42.533	6.0
42.548	8.0
42.563	5.0
42.578	14.0
42.593	11.0
42.608	13.0
42.622	10.0
42.637	12.0
42.652	13.0
42.667	9.0
42.682	12.0
42.697	8.0
42.712	9.0
42.727	9.0
42.742	5.0
42.757	9.0
42.772	8.0
42.786	4.0
42.801	8.0
42.816	9.0
42.831	3.0
42.846	3.0
42.861	4.0
42.876	10.0
42.891	7.0
42.906	4.0
42.921	5.0
42.936	6.0
42.951	6.0
42.966	3.0
42.981	8.0
42.996	7.0
43.011	5.0
43.025	6.0
43.04	4.0
43.055	6.0
43.07	7.0
43.085	2.0
43.1	7.0
43.115	10.0
43.13	7.0
43.145	7.0
43.16	5.0
43.175	2.0
43.19	5.0
43.205	7.0
43.22	2.0
43.235	5.0
43.25	8.0
43.265	3.0
43.28	2.0
43.295	5.0
43.31	7.0
43.325	3.0
43.34	4.0
43.355	6.0
43.37	6.0
43.385	3.0
43.4	5.0
43.415	2.0
43.43	8.0
43.445	5.0
43.46	3.0
43.475	6.0
43.49	6.0
43.505	7.0
43.52	5.0
43.535	11.0
43.55	10.0
43.565	10.0
43.58	14.0
43.595	8.0
43.61	8.0
43.625	13.0
43.64	13.0
43.655	6.0
43.67	9.0
43.685	10.0
43.7	7.0
43.715	5.0
43.73	2.0
43.745	6.0
43.76	3.0
43.775	5.0
43.79	8.0
43.805	2.0
43.82	5.0
43.835	6.0
43.85	7.0
43.865	11.0
43.88	4.0
43.895	7.0
43.91	5.0
43.925	10.0
43.94	6.0
43.955	8.0
43.97	4.0
43.985	6.0
44.0	4.0
44.015	4.0
44.03	6.0
44.045	3.0
44.061	5.0
44.076	9.0
44.091	3.0
44.106	8.0
44.121	4.0
44.136	4.0
44.151	3.0
44.166	7.0
44.181	5.0
44.196	4.0
44.211	3.0
44.226	8.0
44.241	8.0
44.256	1.0
44.271	5.0
44.286	2.0
44.301	7.0
44.316	2.0
44.331	8.0
44.346	7.0
44.361	5.0
44.377	8.0
44.392	6.0
44.407	5.0
44.422	4.0
44.437	8.0
44.452	4.0
44.467	5.0
44.482	3.0
44.497	7.0
44.512	6.0
44.527	8.0
44.542	4.0
44.557	3.0
44.572	2.0
44.587	6.0
44.602	6.0
44.617	4.0
44.632	6.0
44.647	2.0
44.663	4.0
44.678	3.0
44.693	7.0
44.708	11.0
44.723	11.0
44.738	13.0
44.753	10.0
44.768	8.0
44.783	9.0
44.798	11.0
44.813	13.0
44.828	11.0
44.843	9.0
44.858	10.0
44.873	8.0
44.888	11.0
44.903	5.0
44.918	7.0
44.933	4.0
44.948	7.0
44.964	9.0
44.979	7.0
44.994	9.0
45.009	8.0
45.024	12.0
45.039	10.0
45.054	5.0
45.069	8.0
45.084	12.0
45.099	9.0
45.114	11.0
45.129	12.0
45.144	10.0
45.159	10.0
45.174	4.0
45.189	7.0
45.204	5.0
45.219	7.0
45.234	8.0
45.249	5.0
45.264	3.0
45.279	7.0
45.294	3.0
45.309	7.0
45.324	6.0
45.339	3.0
45.354	12.0
45.369	7.0
45.384	4.0
45.399	3.0
45.414	8.0
45.429	5.0
45.444	8.0
45.459	5.0
45.474	6.0
45.489	8.0
45.504	8.0
45.519	5.0
45.534	6.0
45.549	3.0
45.564	9.0
45.579	8.0
45.594	3.0
45.609	5.0
45.624	2.0
45.639	3.0
45.654	5.0
45.669	2.0
45.684	5.0
45.699	3.0
45.714	2.0
45.729	9.0
45.744	8.0
45.759	7.0
45.774	7.0
45.789	1.0
45.804	3.0
45.819	6.0
45.834	3.0
45.849	9.0
45.864	8.0
45.879	9.0
45.894	12.0
45.909	8.0
45.924	11.0
45.939	10.0
45.954	16.0
45.969	23.0
45.984	16.0
45.998	22.0
46.013	17.0
46.028	14.0
46.043	12.0
46.058	12.0
46.073	15.0
46.088	8.0
46.103	6.0
46.118	7.0
46.133	7.0
46.148	4.0
46.163	8.0
46.178	9.0
46.192	14.0
46.207	5.0
46.222	7.0
46.237	13.0
46.252	10.0
46.267	14.0
46.282	14.0
46.297	10.0
46.312	10.0
46.327	12.0
46.341	4.0
46.356	4.0
46.371	9.0
46.386	8.0
46.401	4.0
46.416	1.0
46.431	4.0
46.446	5.0
46.46	3.0
46.475	7.0
46.49	7.0
46.505	4.0
46.52	4.0
46.535	4.0
46.55	6.0
46.564	8.0
46.579	5.0
46.594	3.0
46.609	5.0
46.624	9.0
46.639	6.0
46.654	4.0
46.668	5.0
46.683	7.0
46.698	7.0
46.713	5.0
46.728	5.0
46.743	7.0
46.758	2.0
46.772	3.0
46.787	4.0
46.802	3.0
46.817	8.0
46.832	6.0
46.847	8.0
46.861	7.0
46.876	3.0
46.891	6.0
46.906	6.0
46.921	6.0
46.936	9.0
46.95	7.0
46.965	6.0
46.98	5.0
46.995	8.0
47.01	3.0
47.025	6.0
47.039	13.0
47.054	8.0
47.069	6.0
47.084	9.0
47.099	6.0
47.113	8.0
47.128	13.0
47.143	8.0
47.158	10.0
47.173	9.0
47.188	11.0
47.202	6.0
47.217	9.0
47.232	7.0
47.247	13.0
47.262	4.0
47.277	8.0
47.291	5.0
47.306	5.0
47.321	4.0
47.336	13.0
47.351	10.0
47.365	9.0
47.38	10.0
47.395	7.0
47.41	8.0
47.425	9.0
47.44	9.0
47.454	8.0
47.469	10.0
47.484	5.0
47.499	9.0
47.514	12.0
47.528	4.0
47.543	3.0
47.558	6.0
47.573	4.0
47.588	4.0
47.603	1.0
47.617	5.0
47.632	2.0
47.647	6.0
47.662	6.0
47.677	6.0
47.691	5.0
47.706	7.0
47.721	4.0
47.736	2.0
47.751	7.0
47.766	1.0
47.78	6.0
47.795	5.0
47.81	6.0
47.825	4.0
47.84	5.0
47.855	6.0
47.869	5.0
47.884	2.0
47.899	5.0
47.914	5.0
47.929	4.0
47.944	1.0
47.958	3.0
47.973	4.0
47.988	4.0
48.003	2.0
48.018	4.0
48.033	5.0
48.047	6.0
48.062	8.0
48.077	5.0
48.092	4.0
48.107	4.0
48.122	3.0
48.137	3.0
48.151	4.0
48.166	6.0
48.181	4.0
48.196	4.0
48.211	4.0
48.226	6.0
48.241	8.0
48.255	4.0
48.27	6.0
48.285	5.0
48.3	7.0
48.315	4.0
48.33	3.0
48.345	1.0
48.359	1.0
48.374	7.0
48.389	5.0
48.404	5.0
48.419	5.0
48.434	5.0
48.449	5.0
48.464	3.0
48.478	5.0
48.493	3.0
48.508	4.0
48.523	10.0
48.538	2.0
48.553	5.0
48.568	2.0
48.583	3.0
48.597	6.0
48.612	2.0
48.627	2.0
48.642	3.0
48.657	9.0
48.672	4.0
48.687	2.0
48.702	6.0
48.717	6.0
48.731	2.0
48.746	4.0
48.761	6.0
48.776	1.0
48.791	1.0
48.806	1.0
48.821	2.0
48.836	7.0
48.851	6.0
48.866	5.0
48.88	4.0
48.895	7.0
48.91	4.0
48.925	2.0
48.94	8.0
48.955	5.0
48.97	8.0
48.985	10.0
49.0	8.0
49.015	3.0
49.03	5.0
49.044	3.0
49.059	2.0
49.074	4.0
49.089	0.0
49.104	5.0
49.119	1.0
49.134	2.0
49.149	3.0
49.164	10.0
49.179	6.0
49.194	1.0
49.209	8.0
49.224	6.0
49.238	3.0
49.253	7.0
49.268	6.0
49.283	3.0
49.298	9.0
49.313	6.0
49.328	10.0
49.343	6.0
49.358	9.0
49.373	6.0
49.388	6.0
49.403	4.0
49.418	5.0
49.433	6.0
49.448	10.0
49.463	6.0
49.478	3.0
49.492	7.0
49.507	6.0
49.522	5.0
49.537	4.0
49.552	5.0
49.567	5.0
49.582	3.0
49.597	6.0
49.612	1.0
49.627	2.0
49.642	5.0
49.657	2.0
49.672	4.0
49.687	13.0
49.702	7.0
49.717	11.0
49.732	7.0
49.747	7.0
49.762	4.0
49.777	3.0
49.792	7.0
49.807	7.0
49.822	2.0
49.837	2.0
49.852	1.0
49.867	4.0
49.882	3.0
49.897	3.0
49.912	1.0
49.927	4.0
49.942	11.0
49.957	3.0
49.971	1.0
49.986	7.0
50.001	4.0
50.016	7.0
50.031	5.0
50.046	5.0
50.061	5.0
50.076	7.0
50.091	9.0
50.106	6.0
50.121	5.0
50.136	6.0
50.151	2.0
50.166	6.0
50.181	4.0
50.196	3.0
50.211	2.0
50.226	10.0
50.241	5.0
50.256	8.0
50.271	2.0
50.286	5.0
50.302	2.0
50.317	5.0
50.332	5.0
50.347	5.0
50.362	9.0
50.377	8.0
50.392	12.0
50.407	8.0
50.422	7.0
50.437	12.0
50.452	6.0
50.467	8.0
50.482	8.0
50.497	6.0
50.512	0.0
50.527	7.0
50.542	10.0
50.557	6.0
50.572	11.0
50.587	8.0
50.602	3.0
50.617	5.0
50.632	2.0
50.647	3.0
50.662	4.0
50.677	5.0
50.692	5.0
50.707	6.0
50.722	2.0
50.737	9.0
50.752	8.0
50.767	6.0
50.782	5.0
50.797	5.0
50.812	5.0
50.828	9.0
50.843	4.0
50.858	1.0
50.873	6.0
50.888	14.0
50.903	6.0
50.918	4.0
50.933	2.0
50.948	4.0
50.963	6.0
50.978	6.0
50.993	2.0
51.008	6.0
51.023	8.0
51.038	6.0
51.053	7.0
51.068	5.0
51.083	5.0
51.098	4.0
51.114	6.0
51.129	2.0
51.144	4.0
51.159	3.0
51.174	6.0
51.189	2.0
51.204	3.0
51.219	4.0
51.234	4.0
51.249	10.0
51.264	5.0
51.279	2.0
51.294	3.0
51.309	6.0
51.324	6.0
51.34	7.0
51.355	8.0
51.37	5.0
51.385	6.0
51.4	2.0
51.415	5.0
51.43	6.0
51.445	9.0
51.46	8.0
51.475	9.0
51.49	9.0
51.505	23.0
51.52	18.0
51.535	16.0
51.551	12.0
51.566	18.0
51.581	15.0
51.596	14.0
51.611	11.0
51.626	6.0
51.641	6.0
51.656	5.0
51.671	9.0
51.686	5.0
51.701	6.0
51.716	6.0
51.732	6.0
51.747	6.0
51.762	8.0
51.777	12.0
51.792	10.0
51.807	7.0
51.822	11.0
51.837	11.0
51.852	20.0
51.867	4.0
51.882	10.0
51.898	12.0
51.913	11.0
51.928	9.0
51.943	7.0
51.958	5.0
51.973	7.0
51.988	11.0
52.003	5.0
52.018	2.0
52.033	7.0
52.048	5.0
52.064	5.0
52.079	1.0
52.094	6.0
52.109	3.0
52.124	6.0
52.139	3.0
52.154	7.0
52.169	6.0
52.184	4.0
52.199	2.0
52.215	6.0
52.23	5.0
52.245	3.0
52.26	6.0
52.275	4.0
52.29	13.0
52.305	2.0
52.32	3.0
52.335	4.0
52.35	4.0
52.366	8.0
52.381	2.0
52.396	1.0
52.411	9.0
52.426	5.0
52.441	6.0
52.456	3.0
52.471	3.0
52.486	5.0
52.502	7.0
52.517	2.0
52.532	8.0
52.547	6.0
52.562	7.0
52.577	6.0
52.592	9.0
52.607	8.0
52.622	5.0
52.637	8.0
52.653	7.0
52.668	5.0
52.683	6.0
52.698	6.0
52.713	10.0
52.728	5.0
52.743	4.0
52.758	5.0
52.774	6.0
52.789	7.0
52.804	4.0
52.819	3.0
52.834	6.0
52.849	7.0
52.864	5.0
52.879	8.0
52.894	7.0
52.91	9.0
52.925	7.0
52.94	9.0
52.955	5.0
52.97	12.0
52.985	3.0
53.0	8.0
53.015	4.0
53.031	11.0
53.046	4.0
53.061	10.0
53.076	9.0
53.091	2.0
53.106	4.0
53.121	3.0
53.136	5.0
53.152	3.0
53.167	7.0
53.182	1.0
53.197	2.0
53.212	5.0
53.227	7.0
53.242	3.0
53.257	8.0
53.273	4.0
53.288	7.0
53.303	5.0
53.318	3.0
53.333	3.0
53.348	7.0
53.363	2.0
53.379	5.0
53.394	5.0
53.409	4.0
53.424	5.0
53.439	2.0
53.454	2.0
53.469	5.0
53.484	9.0
53.5	6.0
53.515	6.0
53.53	6.0
53.545	2.0
53.56	5.0
53.575	4.0
53.59	3.0
53.606	15.0
53.621	3.0
53.636	5.0
53.651	7.0
53.666	3.0
53.681	2.0
53.696	6.0
53.712	5.0
53.727	4.0
53.742	4.0
53.757	3.0
53.772	5.0
53.787	1.0
53.802	8.0
53.818	4.0
53.833	3.0
53.848	11.0
53.863	6.0
53.878	2.0
53.893	7.0
53.909	4.0
53.924	4.0
53.939	1.0
53.954	2.0
53.969	8.0
53.984	2.0
53.999	2.0
54.015	4.0
54.03	6.0
54.045	4.0
54.06	8.0
54.075	8.0
54.09	4.0
54.106	1.0
54.121	3.0
54.136	3.0
54.151	3.0
54.166	7.0
54.181	1.0
54.197	0.0
54.212	4.0
54.227	3.0
54.242	6.0
54.257	8.0
54.272	6.0
54.288	6.0
54.303	4.0
54.318	3.0
54.333	6.0
54.348	2.0
54.363	8.0
54.379	4.0
54.394	5.0
54.409	7.0
54.424	5.0
54.439	4.0
54.454	7.0
54.47	7.0
54.485	7.0
54.5	3.0
54.515	6.0
54.53	6.0
54.545	11.0
54.561	10.0
54.576	10.0
54.591	9.0
54.606	6.0
54.621	10.0
54.636	11.0
54.652	14.0
54.667	9.0
54.682	11.0
54.697	11.0
54.712	20.0
54.727	4.0
54.743	7.0
54.758	13.0
54.773	3.0
54.788	5.0
54.803	5.0
54.819	7.0
54.834	4.0
54.849	5.0
54.864	2.0
54.879	3.0
54.894	5.0
54.91	7.0
54.925	8.0
54.94	10.0
54.955	7.0
54.97	10.0
54.985	4.0
55.001	13.0
55.016	12.0
55.031	3.0
55.046	8.0
55.061	10.0
55.077	4.0
55.092	6.0
55.107	5.0
55.122	2.0
55.137	6.0
55.152	2.0
55.168	5.0
55.183	5.0
55.198	7.0
55.213	1.0
55.228	4.0
55.243	6.0
55.259	6.0
55.274	5.0
55.289	3.0
55.304	6.0
55.319	8.0
55.335	5.0
55.35	4.0
55.365	3.0
55.38	5.0
55.395	6.0
55.41	3.0
55.426	2.0
55.441	3.0
55.456	4.0
55.471	5.0
55.486	4.0
55.501	4.0
55.517	7.0
55.532	6.0
55.547	8.0
55.562	3.0
55.577	6.0
55.592	8.0
55.608	4.0
55.623	4.0
55.638	5.0
55.653	5.0
55.668	6.0
55.683	10.0
55.699	7.0
55.714	5.0
55.729	6.0
55.744	4.0
55.759	2.0
55.774	4.0
55.79	2.0
55.805	9.0
55.82	3.0
55.835	6.0
55.85	4.0
55.865	4.0
55.881	1.0
55.896	14.0
55.911	4.0
55.926	5.0
55.941	6.0
55.956	3.0
55.972	4.0
55.987	4.0
56.002	4.0
56.017	9.0
56.032	6.0
56.047	4.0
56.063	5.0
56.078	4.0
56.093	9.0
56.108	7.0
56.123	4.0
56.138	8.0
56.154	9.0
56.169	2.0
56.184	6.0
56.199	3.0
56.214	4.0
56.229	5.0
56.244	2.0
56.26	10.0
56.275	2.0
56.29	5.0
56.305	8.0
56.32	4.0
56.335	2.0
56.351	3.0
56.366	3.0
56.381	9.0
56.396	3.0
56.411	5.0
56.426	3.0
56.441	5.0
56.457	6.0
56.472	9.0
56.487	1.0
56.502	3.0
56.517	6.0
56.532	3.0
56.547	7.0
56.563	7.0
56.578	4.0
56.593	7.0
56.608	5.0
56.623	4.0
56.638	4.0
56.653	4.0
56.668	4.0
56.684	3.0
56.699	5.0
56.714	5.0
56.729	5.0
56.744	5.0
56.759	3.0
56.774	2.0
56.79	5.0
56.805	4.0
56.82	6.0
56.835	5.0
56.85	4.0
56.865	5.0
56.88	3.0
56.895	3.0
56.911	8.0
56.926	4.0
56.941	2.0
56.956	9.0
56.971	4.0
56.986	4.0
57.001	3.0
57.016	2.0
57.031	5.0
57.047	5.0
57.062	3.0
57.077	2.0
57.092	7.0
57.107	3.0
57.122	1.0
57.137	1.0
57.152	8.0
57.167	6.0
57.183	7.0
57.198	6.0
57.213	8.0
57.228	8.0
57.243	1.0
57.258	2.0
57.273	5.0
57.288	3.0
57.303	4.0
57.318	6.0
57.334	2.0
57.349	7.0
57.364	3.0
57.379	3.0
57.394	2.0
57.409	4.0
57.424	6.0
57.439	0.0
57.454	4.0
57.469	4.0
57.484	3.0
57.5	1.0
57.515	3.0
57.53	3.0
57.545	3.0
57.56	1.0
57.575	1.0
57.59	5.0
57.605	3.0
57.62	5.0
57.635	7.0
57.65	8.0
57.665	1.0
57.68	6.0
57.696	5.0
57.711	3.0
57.726	5.0
57.741	8.0
57.756	6.0
57.771	2.0
57.786	4.0
57.801	6.0
57.816	3.0
57.831	2.0
57.846	6.0
57.861	3.0
57.876	4.0
57.891	5.0
57.906	5.0
57.921	1.0
57.937	7.0
57.952	2.0
57.967	3.0
57.982	6.0
57.997	4.0
58.012	5.0
58.027	3.0
58.042	8.0
58.057	7.0
58.072	4.0
58.087	7.0
58.102	5.0
58.117	3.0
58.132	6.0
58.147	5.0
58.162	0.0
58.177	2.0
58.192	3.0
58.207	5.0
58.222	4.0
58.237	3.0
58.252	7.0
58.267	4.0
58.282	5.0
58.297	4.0
58.312	5.0
58.327	5.0
58.342	4.0
58.357	2.0
58.372	3.0
58.387	2.0
58.402	2.0
58.418	2.0
58.433	5.0
58.448	2.0
58.463	6.0
58.478	5.0
58.493	5.0
58.508	0.0
58.523	3.0
58.538	3.0
58.553	9.0
58.568	12.0
58.583	7.0
58.598	12.0
58.613	9.0
58.628	10.0
58.643	9.0
58.658	6.0
58.673	12.0
58.688	7.0
58.703	2.0
58.718	8.0
58.733	3.0
58.748	7.0
58.763	3.0
58.778	3.0
58.793	7.0
58.808	6.0
58.823	9.0
58.838	4.0
58.853	5.0
58.868	5.0
58.883	5.0
58.898	5.0
58.913	4.0
58.928	4.0
58.942	3.0
58.957	8.0
58.972	5.0
58.987	8.0
59.002	4.0
59.017	7.0
59.032	6.0
59.047	11.0
59.062	8.0
59.077	2.0
59.092	8.0
59.107	5.0
59.122	8.0
59.137	4.0
59.152	4.0
59.167	5.0
59.182	7.0
59.197	3.0
59.212	1.0
59.227	5.0
59.242	5.0
59.257	3.0
59.272	1.0
59.287	6.0
59.302	4.0
59.317	2.0
59.332	8.0
59.347	4.0
59.362	5.0
59.377	3.0
59.392	5.0
59.407	2.0
59.422	4.0
59.437	5.0
59.452	7.0
59.467	7.0
59.482	3.0
59.497	7.0
59.512	12.0
59.527	3.0
59.542	4.0
59.557	8.0
59.572	5.0
59.587	6.0
59.602	9.0
59.617	11.0
59.632	2.0
59.647	8.0
59.661	8.0
59.676	7.0
59.691	9.0
59.706	6.0
59.721	11.0
59.736	6.0
59.751	5.0
59.766	6.0
59.781	2.0
59.796	4.0
59.811	8.0
59.826	4.0
59.841	5.0
59.856	7.0
59.871	3.0
59.886	5.0
59.901	3.0
59.916	7.0
59.931	7.0
59.946	7.0
59.961	3.0
59.976	8.0
59.991	7.0
60.006	11.0
60.021	7.0
60.036	4.0
60.051	6.0
60.066	4.0
60.081	1.0
60.096	8.0
60.111	6.0
60.126	4.0
60.141	4.0
60.156	3.0
60.171	4.0
60.186	5.0
60.201	2.0
60.216	4.0
60.231	2.0
60.246	7.0
60.261	4.0
60.276	5.0
60.291	3.0
60.306	4.0
60.321	5.0
60.336	5.0
60.35	4.0
60.365	3.0
60.38	2.0
60.395	6.0
60.41	0.0
60.425	5.0
60.44	5.0
60.455	4.0
60.47	12.0
60.485	5.0
60.5	10.0
60.515	5.0
60.53	4.0
60.545	7.0
60.56	5.0
60.575	10.0
60.59	3.0
60.605	6.0
60.62	6.0
60.635	6.0
60.65	5.0
60.665	5.0
60.68	1.0
60.695	6.0
60.71	3.0
60.725	6.0
60.74	9.0
60.755	4.0
60.77	7.0
60.785	2.0
60.8	5.0
60.815	6.0
60.83	8.0
60.845	4.0
60.86	6.0
60.875	6.0
60.89	3.0
60.905	3.0
60.92	8.0
60.935	11.0
60.95	9.0
60.965	6.0
60.98	8.0
60.995	6.0
61.01	3.0
61.025	6.0
61.04	4.0
61.055	3.0
61.07	3.0
61.085	2.0
61.1	4.0
61.115	3.0
61.13	5.0
61.145	3.0
61.16	4.0
61.175	1.0
61.191	4.0
61.206	5.0
61.221	2.0
61.236	0.0
61.251	2.0
61.266	6.0
61.281	4.0
61.296	5.0
61.311	8.0
61.326	4.0
61.341	7.0
61.356	6.0
61.371	4.0
61.386	4.0
61.401	6.0
61.416	4.0
61.431	7.0
61.446	4.0
61.461	5.0
61.476	7.0
61.491	7.0
61.506	14.0
61.521	1.0
61.536	3.0
61.551	7.0
61.566	5.0
61.581	1.0
61.596	2.0
61.611	5.0
61.626	4.0
61.641	5.0
61.656	6.0
61.672	4.0
61.687	5.0
61.702	3.0
61.717	4.0
61.732	3.0
61.747	4.0
61.762	2.0
61.777	5.0
61.792	5.0
61.807	3.0
61.822	3.0
61.837	5.0
61.852	5.0
61.867	5.0
61.882	4.0
61.897	3.0
61.912	7.0
61.927	4.0
61.943	4.0
61.958	4.0
61.973	1.0
61.988	7.0
62.003	5.0
62.018	2.0
62.033	2.0
62.048	4.0
62.063	2.0
62.078	4.0
62.093	6.0
62.108	5.0
62.123	2.0
62.138	4.0
62.153	5.0
62.169	3.0
62.184	1.0
62.199	5.0
62.214	5.0
62.229	2.0
62.244	7.0
62.259	4.0
62.274	5.0
62.289	5.0
62.304	2.0
62.319	3.0
62.335	4.0
62.35	4.0
62.365	5.0
62.38	3.0
62.395	4.0
62.41	7.0
62.425	2.0
62.44	3.0
62.455	2.0
62.47	5.0
62.485	2.0
62.501	4.0
62.516	6.0
62.531	5.0
62.546	4.0
62.561	3.0
62.576	7.0
62.591	2.0
62.606	5.0
62.621	3.0
62.636	5.0
62.652	9.0
62.667	4.0
62.682	2.0
62.697	2.0
62.712	1.0
62.727	2.0
62.742	5.0
62.757	5.0
62.772	6.0
62.787	2.0
62.803	4.0
62.818	5.0
62.833	5.0
62.848	5.0
62.863	4.0
62.878	3.0
62.893	3.0
62.908	3.0
62.923	3.0
62.939	6.0
62.954	6.0
62.969	6.0
62.984	5.0
62.999	9.0
63.014	5.0
63.029	1.0
63.044	2.0
63.059	1.0
63.074	5.0
63.09	6.0
63.105	7.0
63.12	1.0
63.135	3.0
63.15	2.0
63.165	3.0
63.18	5.0
63.195	3.0
63.21	0.0
63.226	5.0
63.241	3.0
63.256	10.0
63.271	3.0
63.286	4.0
63.301	3.0
63.316	3.0
63.331	7.0
63.346	1.0
63.362	6.0
63.377	6.0
63.392	1.0
63.407	10.0
63.422	10.0
63.437	5.0
63.452	5.0
63.467	6.0
63.482	0.0
63.497	12.0
63.513	4.0
63.528	3.0
63.543	4.0
63.558	7.0
63.573	1.0
63.588	4.0
63.603	1.0
63.618	7.0
63.633	5.0
63.648	4.0
63.664	6.0
63.679	4.0
63.694	5.0
63.709	1.0
63.724	5.0
63.739	10.0
63.754	2.0
63.769	4.0
63.784	9.0
63.799	6.0
63.814	6.0
63.83	2.0
63.845	5.0
63.86	4.0
63.875	7.0
63.89	5.0
63.905	6.0
63.92	1.0
63.935	5.0
63.95	8.0
63.965	6.0
63.98	6.0
63.996	3.0
64.011	3.0
64.026	4.0
64.041	6.0
64.056	2.0
64.071	3.0
64.086	3.0
64.101	3.0
64.116	3.0
64.131	5.0
64.146	6.0
64.161	2.0
64.176	3.0
64.191	1.0
64.207	0.0
64.222	5.0
64.237	3.0
64.252	1.0
64.267	6.0
64.282	3.0
64.297	3.0
64.312	3.0
64.327	2.0
64.342	6.0
64.357	6.0
64.372	1.0
64.387	3.0
64.402	4.0
64.417	0.0
64.433	5.0
64.448	6.0
64.463	7.0
64.478	3.0
64.493	5.0
64.508	5.0
64.523	5.0
64.538	2.0
64.553	4.0
64.568	2.0
64.583	5.0
64.598	5.0
64.613	7.0
64.628	1.0
64.643	4.0
64.658	4.0
64.673	3.0
64.688	1.0
64.703	2.0
64.718	1.0
64.734	6.0
64.749	5.0
64.764	5.0
64.779	4.0
64.794	9.0
64.809	4.0
64.824	3.0
64.839	1.0
64.854	5.0
64.869	2.0
64.884	5.0
64.899	3.0
64.914	3.0
64.929	4.0
64.944	6.0
64.959	4.0
64.974	4.0
64.989	6.0
65.004	5.0
65.019	3.0
65.034	1.0
65.049	6.0
65.064	4.0
65.079	5.0
65.094	6.0
65.109	3.0
65.125	4.0
65.14	3.0
65.155	3.0
65.17	8.0
65.185	4.0
65.2	7.0
65.215	4.0
65.23	5.0
65.245	6.0
65.26	2.0
65.275	9.0
65.29	7.0
65.305	2.0
65.32	3.0
65.335	8.0
65.35	4.0
65.365	3.0
65.38	6.0
65.395	3.0
65.41	1.0
65.425	4.0
65.44	4.0
65.455	0.0
65.47	6.0
65.485	2.0
65.5	3.0
65.515	3.0
65.53	4.0
65.545	1.0
65.56	5.0
65.575	2.0
65.59	1.0
65.605	2.0
65.62	0.0
65.635	1.0
65.65	4.0
65.666	4.0
65.681	4.0
65.696	7.0
65.711	6.0
65.726	3.0
65.741	9.0
65.756	5.0
65.771	5.0
65.786	3.0
65.801	6.0
65.816	2.0
65.831	4.0
65.846	5.0
65.861	3.0
65.876	3.0
65.891	6.0
65.906	3.0
65.921	2.0
65.936	2.0
65.951	6.0
65.966	3.0
65.981	2.0
65.996	2.0
66.011	4.0
66.026	6.0
66.041	5.0
66.056	3.0
66.071	7.0
66.086	2.0
66.101	1.0
66.116	7.0
66.131	8.0
66.146	12.0
66.161	11.0
66.176	5.0
66.191	9.0
66.206	11.0
66.221	11.0
66.236	7.0
66.251	7.0
66.266	3.0
66.281	6.0
66.296	7.0
66.311	5.0
66.327	6.0
66.342	1.0
66.357	5.0
66.372	6.0
66.387	5.0
66.402	7.0
66.417	3.0
66.432	0.0
66.447	5.0
66.462	0.0
66.477	2.0
66.492	3.0
66.507	0.0
66.522	8.0
66.537	4.0
66.552	7.0
66.567	3.0
66.582	5.0
66.597	7.0
66.612	6.0
66.627	1.0
66.642	8.0
66.657	7.0
66.672	8.0
66.687	5.0
66.702	4.0
66.717	4.0
66.732	6.0
66.747	5.0
66.762	3.0
66.777	5.0
66.792	3.0
66.807	3.0
66.822	4.0
66.837	5.0
66.853	3.0
66.868	1.0
66.883	1.0
66.898	1.0
66.913	4.0
66.928	5.0
66.943	2.0
66.958	5.0
66.973	3.0
66.988	4.0
67.003	6.0
67.018	4.0
67.033	4.0
67.048	8.0
67.063	7.0
67.078	8.0
67.093	4.0
67.108	3.0
67.123	3.0
67.138	4.0
67.153	2.0
67.168	2.0
67.183	4.0
67.198	9.0
67.214	4.0
67.229	1.0
67.244	5.0
67.259	2.0
67.274	4.0
67.289	4.0
67.304	2.0
67.319	2.0
67.334	2.0
67.349	1.0
67.364	5.0
67.379	5.0
67.394	4.0
67.409	4.0
67.424	3.0
67.439	3.0
67.454	0.0
67.469	5.0
67.484	1.0
67.5	2.0
67.515	5.0
67.53	2.0
67.545	4.0
67.56	1.0
67.575	2.0
67.59	3.0
67.605	1.0
67.62	5.0
67.635	8.0
67.65	5.0
67.665	1.0
67.68	3.0
67.695	4.0
67.71	3.0
67.726	2.0
67.741	4.0
67.756	5.0
67.771	3.0
67.786	5.0
67.801	4.0
67.816	5.0
67.831	2.0
67.846	5.0
67.861	3.0
67.876	4.0
67.891	7.0
67.906	3.0
67.922	8.0
67.937	4.0
67.952	4.0
67.967	4.0
67.982	2.0
67.997	3.0
68.012	6.0
68.027	7.0
68.042	4.0
68.057	3.0
68.072	4.0
68.087	5.0
68.103	1.0
68.118	2.0
68.133	4.0
68.148	5.0
68.163	3.0
68.178	5.0
68.193	0.0
68.208	1.0
68.223	1.0
68.238	4.0
68.254	2.0
68.269	5.0
68.284	3.0
68.299	3.0
68.314	5.0
68.329	4.0
68.344	2.0
68.359	5.0
68.374	5.0
68.389	2.0
68.405	3.0
68.42	1.0
68.435	3.0
68.45	6.0
68.465	3.0
68.48	2.0
68.495	3.0
68.51	2.0
68.525	3.0
68.54	3.0
68.556	6.0
68.571	2.0
68.586	5.0
68.601	3.0
68.616	6.0
68.631	4.0
68.646	7.0
68.661	3.0
68.676	5.0
68.691	3.0
68.707	5.0
68.722	1.0
68.737	2.0
68.752	1.0
68.767	2.0
68.782	4.0
68.797	2.0
68.812	5.0
68.827	3.0
68.842	6.0
68.857	2.0
68.873	1.0
68.888	4.0
68.903	3.0
68.918	2.0
68.933	7.0
68.948	5.0
68.963	6.0
68.978	2.0
68.993	4.0
69.008	2.0
69.023	3.0
69.038	4.0
69.054	5.0
69.069	2.0
69.084	3.0
69.099	3.0
69.114	5.0
69.129	7.0
69.144	2.0
69.159	4.0
69.174	3.0
69.189	10.0
69.204	1.0
69.219	5.0
69.234	3.0
69.249	5.0
69.264	4.0
69.279	4.0
69.295	5.0
69.31	3.0
69.325	3.0
69.34	1.0
69.355	4.0
69.37	7.0
69.385	4.0
69.4	4.0
69.415	4.0
69.43	1.0
69.445	2.0
69.46	1.0
69.475	6.0
69.49	5.0
69.505	1.0
69.52	5.0
69.535	0.0
69.55	2.0
69.565	2.0
69.58	5.0
69.595	0.0
69.61	2.0
69.625	1.0
69.64	6.0
69.655	6.0
69.67	3.0
69.685	5.0
69.7	6.0
69.715	4.0
69.73	7.0
69.745	9.0
69.76	17.0
69.775	6.0
69.79	11.0
69.805	6.0
69.82	8.0
69.835	11.0
69.85	10.0
69.865	7.0
69.88	2.0
69.895	4.0
69.909	5.0
69.924	4.0
69.939	5.0
69.954	5.0
69.969	3.0
69.984	2.0
69.999	2.0
70.014	4.0
70.029	4.0
70.044	2.0
70.059	3.0
70.074	5.0
70.088	4.0
70.103	5.0
70.118	2.0
70.133	6.0
70.148	2.0
70.163	1.0
70.178	3.0
70.193	1.0
70.208	7.0
70.222	3.0
70.237	5.0
70.252	3.0
70.267	7.0
70.282	3.0
70.297	6.0
70.312	3.0
70.327	2.0
70.341	2.0
70.356	4.0
70.371	3.0
70.386	4.0
70.401	2.0
70.416	3.0
70.43	3.0
70.445	3.0
70.46	1.0
70.475	4.0
70.49	4.0
70.505	2.0
70.519	5.0
70.534	7.0
70.549	2.0
70.564	4.0
70.579	4.0
70.594	3.0
70.608	6.0
70.623	6.0
70.638	6.0
70.653	5.0
70.668	8.0
70.683	5.0
70.697	2.0
70.712	3.0
70.727	5.0
70.742	3.0
70.757	2.0
70.771	4.0
70.786	6.0
70.801	6.0
70.816	2.0
70.831	2.0
70.845	1.0
70.86	5.0
70.875	1.0
70.89	1.0
70.905	9.0
70.92	5.0
70.934	4.0
70.949	4.0
70.964	3.0
70.979	3.0
70.994	3.0
71.008	3.0
71.023	3.0
71.038	2.0
71.053	1.0
71.068	4.0
71.082	4.0
71.097	3.0
71.112	4.0
71.127	4.0
71.142	2.0
71.156	5.0
71.171	2.0
71.186	3.0
71.201	3.0
71.216	4.0
71.231	3.0
71.245	7.0
71.26	4.0
71.275	4.0
71.29	1.0
71.305	4.0
71.319	3.0
71.334	2.0
71.349	2.0
71.364	2.0
71.379	2.0
71.394	1.0
71.408	3.0
71.423	5.0
71.438	3.0
71.453	3.0
71.468	0.0
71.483	4.0
71.497	4.0
71.512	3.0
71.527	3.0
71.542	3.0
71.557	4.0
71.572	2.0
71.586	2.0
71.601	4.0
71.616	6.0
71.631	5.0
71.646	3.0
71.661	1.0
71.676	4.0
71.69	3.0
71.705	4.0
71.72	1.0
71.735	3.0
71.75	1.0
71.765	1.0
71.78	3.0
71.795	2.0
71.81	7.0
71.824	4.0
71.839	6.0
71.854	2.0
71.869	3.0
71.884	5.0
71.899	2.0
71.914	7.0
71.929	2.0
71.944	1.0
71.959	3.0
71.974	3.0
71.988	2.0
72.003	2.0
72.018	2.0
72.033	6.0
72.048	3.0
72.063	5.0
72.078	3.0
72.093	3.0
72.108	2.0
72.123	3.0
72.138	5.0
72.153	3.0
72.168	5.0
72.183	4.0
72.198	3.0
72.213	0.0
72.228	3.0
72.243	3.0
72.258	4.0
72.273	2.0
72.288	3.0
72.303	2.0
72.318	8.0
72.333	6.0
72.348	0.0
72.363	3.0
72.378	5.0
72.393	3.0
72.408	3.0
72.423	3.0
72.438	4.0
72.453	2.0
72.468	0.0
72.483	0.0
72.498	12.0
72.513	2.0
72.528	1.0
72.543	4.0
72.558	3.0
72.573	3.0
72.588	2.0
72.603	7.0
72.618	4.0
72.633	5.0
72.649	3.0
72.664	4.0
72.679	3.0
72.694	3.0
72.709	4.0
72.724	7.0
72.739	4.0
72.754	2.0
72.769	7.0
72.784	4.0
72.799	5.0
72.814	3.0
72.829	2.0
72.845	2.0
72.86	5.0
72.875	2.0
72.89	2.0
72.905	5.0
72.92	3.0
72.935	2.0
72.95	7.0
72.965	4.0
72.98	1.0
72.996	6.0
73.011	5.0
73.026	4.0
73.041	5.0
73.056	3.0
73.071	4.0
73.086	3.0
73.101	2.0
73.117	5.0
73.132	4.0
73.147	2.0
73.162	4.0
73.177	3.0
73.192	4.0
73.207	6.0
73.222	1.0
73.238	4.0
73.253	5.0
73.268	5.0
73.283	4.0
73.298	3.0
73.313	4.0
73.328	3.0
73.343	8.0
73.359	5.0
73.374	2.0
73.389	0.0
73.404	4.0
73.419	3.0
73.434	3.0
73.449	6.0
73.465	4.0
73.48	1.0
73.495	3.0
73.51	3.0
73.525	4.0
73.54	1.0
73.556	1.0
73.571	3.0
73.586	3.0
73.601	2.0
73.616	2.0
73.631	7.0
73.646	2.0
73.662	3.0
73.677	3.0
73.692	5.0
73.707	5.0
73.722	4.0
73.737	3.0
73.752	3.0
73.768	2.0
73.783	6.0
73.798	7.0
73.813	0.0
73.828	3.0
73.843	1.0
73.859	1.0
73.874	3.0
73.889	2.0
73.904	6.0
73.919	1.0
73.934	5.0
73.949	0.0
73.965	5.0
73.98	3.0
73.995	3.0
74.01	2.0
74.025	1.0
74.04	2.0
74.056	2.0
74.071	4.0
74.086	4.0
74.101	4.0
74.116	5.0
74.131	9.0
74.146	8.0
74.162	6.0
74.177	5.0
74.192	6.0
74.207	8.0
74.222	10.0
74.237	8.0
74.252	8.0
74.268	6.0
74.283	5.0
74.298	6.0
74.313	2.0
74.328	3.0
74.343	4.0
74.358	2.0
74.374	3.0
74.389	2.0
74.404	2.0
74.419	5.0
74.434	1.0
74.449	3.0
74.464	3.0
74.48	1.0
74.495	1.0
74.51	4.0
74.525	5.0
74.54	2.0
74.555	1.0
74.57	3.0
74.586	3.0
74.601	4.0
74.616	4.0
74.631	3.0
74.646	4.0
74.661	6.0
74.676	7.0
74.691	5.0
74.707	1.0
74.722	3.0
74.737	1.0
74.752	8.0
74.767	4.0
74.782	5.0
74.797	6.0
74.813	3.0
74.828	3.0
74.843	6.0
74.858	3.0
74.873	3.0
74.888	4.0
74.903	5.0
74.918	4.0
74.934	3.0
74.949	1.0
74.964	3.0
74.979	3.0
74.994	1.0
75.009	6.0
75.024	4.0
75.04	3.0
75.055	5.0
75.07	2.0
75.085	3.0
75.1	4.0
75.115	2.0
75.13	5.0
75.145	3.0
75.161	5.0
75.176	1.0
75.191	5.0
75.206	5.0
75.221	3.0
75.236	2.0
75.251	5.0
75.266	2.0
75.282	2.0
75.297	6.0
75.312	1.0
75.327	5.0
75.342	3.0
75.357	4.0
75.372	2.0
75.387	3.0
75.403	1.0
75.418	3.0
75.433	2.0
75.448	2.0
75.463	3.0
75.478	3.0
75.493	3.0
75.509	5.0
75.524	3.0
75.539	5.0
75.554	3.0
75.569	3.0
75.584	2.0
75.599	7.0
75.614	4.0
75.63	4.0
75.645	0.0
75.66	9.0
75.675	3.0
75.69	6.0
75.705	2.0
75.72	3.0
75.735	1.0
75.751	4.0
75.766	4.0
75.781	7.0
75.796	2.0
75.811	3.0
75.826	3.0
75.841	2.0
75.856	2.0
75.872	5.0
75.887	4.0
75.902	4.0
75.917	3.0
75.932	7.0
75.947	2.0
75.962	1.0
75.977	5.0
75.993	2.0
76.008	0.0
76.023	4.0
76.038	5.0
76.053	1.0
76.068	3.0
76.083	3.0
76.098	4.0
76.114	0.0
76.129	6.0
76.144	3.0
76.159	3.0
76.174	3.0
76.189	2.0
76.204	7.0
76.22	1.0
76.235	3.0
76.25	2.0
76.265	3.0
76.28	4.0
76.295	6.0
76.31	4.0
76.325	1.0
76.341	4.0
76.356	3.0
76.371	2.0
76.386	2.0
76.401	6.0
76.416	2.0
76.431	6.0
76.446	6.0
76.462	5.0
76.477	1.0
76.492	2.0
76.507	2.0
76.522	4.0
76.537	2.0
76.552	2.0
76.567	1.0
76.583	3.0
76.598	7.0
76.613	3.0
76.628	3.0
76.643	6.0
76.658	4.0
76.673	4.0
76.688	2.0
76.704	6.0
76.719	3.0
76.734	3.0
76.749	4.0
76.764	6.0
76.779	10.0
76.794	3.0
76.809	5.0
76.824	4.0
76.84	4.0
76.855	5.0
76.87	4.0
76.885	4.0
76.9	0.0
76.915	5.0
76.93	7.0
76.945	5.0
76.96	0.0
76.976	2.0
76.991	3.0
77.006	3.0
77.021	5.0
77.036	4.0
77.051	3.0
77.066	1.0
77.081	2.0
77.096	2.0
77.112	7.0
77.127	3.0
77.142	4.0
77.157	4.0
77.172	4.0
77.187	3.0
77.202	4.0
77.217	1.0
77.232	4.0
77.247	5.0
77.263	5.0
77.278	5.0
77.293	4.0
77.308	3.0
77.323	5.0
77.338	2.0
77.353	2.0
77.368	1.0
77.383	4.0
77.398	3.0
77.413	5.0
77.428	4.0
77.444	3.0
77.459	3.0
77.474	4.0
77.489	1.0
77.504	0.0
77.519	4.0
77.534	2.0
77.549	4.0
77.564	4.0
77.579	5.0
77.594	2.0
77.609	7.0
77.624	4.0
77.64	5.0
77.655	2.0
77.67	7.0
77.685	4.0
77.7	3.0
77.715	3.0
77.73	5.0
77.745	3.0
77.76	3.0
77.775	4.0
77.79	4.0
77.805	2.0
77.82	1.0
77.835	5.0
77.85	3.0
77.865	0.0
77.88	4.0
77.895	3.0
77.91	1.0
77.926	3.0
77.941	2.0
77.956	0.0
77.971	0.0
77.986	2.0
78.001	1.0
78.016	1.0
78.031	2.0
78.046	4.0
78.061	2.0
78.076	2.0
78.091	3.0
78.106	9.0
78.121	4.0
78.136	4.0
78.151	5.0
78.166	1.0
78.181	4.0
78.196	7.0
78.211	5.0
78.226	4.0
78.241	4.0
78.256	5.0
78.271	4.0
78.286	3.0
78.301	4.0
78.316	5.0
78.331	0.0
78.346	3.0
78.361	3.0
78.376	5.0
78.391	3.0
78.406	5.0
78.421	4.0
78.436	3.0
78.451	5.0
78.466	2.0
78.481	5.0
78.496	5.0
78.511	3.0
78.526	5.0
78.541	0.0
78.556	2.0
78.571	4.0
78.586	3.0
78.601	4.0
78.616	2.0
78.631	2.0
78.646	3.0
78.661	1.0
78.676	1.0
78.691	1.0
78.706	1.0
78.721	5.0
78.736	4.0
78.751	2.0
78.766	3.0
78.781	2.0
78.796	0.0
78.811	4.0
78.826	5.0
78.841	6.0
78.856	1.0
78.871	2.0
78.885	3.0
78.9	6.0
78.915	3.0
78.93	2.0
78.945	2.0
78.96	2.0
78.975	5.0
78.99	4.0
79.005	2.0
79.02	1.0
79.035	1.0
79.05	4.0
79.065	3.0
79.08	2.0
79.095	2.0
79.11	5.0
79.125	1.0
79.14	7.0
79.155	6.0
79.17	4.0
79.185	4.0
79.2	2.0
79.215	1.0
79.23	0.0
79.245	2.0
79.26	3.0
79.275	1.0
79.29	5.0
79.304	2.0
79.319	4.0
79.334	3.0
79.349	3.0
79.364	6.0
79.379	10.0
79.394	3.0
79.409	3.0
79.424	3.0
79.439	3.0
79.454	0.0
79.469	3.0
79.484	3.0
79.499	3.0
79.514	2.0
79.529	2.0
79.544	4.0
79.559	3.0
79.574	2.0
79.589	4.0
79.604	1.0
79.619	5.0
79.634	2.0
79.649	5.0
79.664	2.0
79.679	3.0
79.693	1.0
79.708	3.0
79.723	8.0
79.738	2.0
79.753	3.0
79.768	3.0
79.783	4.0
79.798	2.0
79.813	4.0
79.828	2.0
79.843	2.0
79.858	2.0
79.873	1.0
79.888	4.0
79.903	0.0
79.918	7.0
79.933	1.0
79.948	5.0
79.963	3.0
79.978	3.0
79.993	2.0
80.008	7.0
80.023	2.0
80.038	0.0
80.053	2.0
80.068	3.0
80.083	5.0
80.098	1.0
80.113	3.0
80.128	4.0
80.143	1.0
80.158	2.0
80.173	5.0
80.188	3.0
80.202	5.0
80.217	1.0
80.232	5.0
80.247	3.0
80.262	4.0
80.277	5.0
80.292	3.0
80.307	3.0
80.322	4.0
80.337	1.0
80.352	4.0
80.367	6.0
80.382	4.0
80.397	0.0
80.412	1.0
80.427	3.0
80.442	3.0
80.457	4.0
80.472	1.0
80.487	1.0
80.502	1.0
80.517	7.0
80.532	5.0
80.547	3.0
80.562	2.0
80.577	3.0
80.592	5.0
80.607	2.0
80.622	1.0
80.637	5.0
80.652	7.0
80.667	6.0
80.682	2.0
80.697	3.0
80.712	3.0
80.727	2.0
80.742	1.0
80.757	2.0
80.772	2.0
80.787	3.0
80.802	1.0
80.817	4.0
80.832	8.0
80.847	2.0
80.862	4.0
80.877	1.0
80.892	4.0
80.907	1.0
80.922	1.0
80.937	5.0
80.952	4.0
80.967	5.0
80.982	2.0
80.997	3.0
81.012	5.0
81.027	3.0
81.042	6.0
81.057	4.0
81.072	1.0
81.087	5.0
81.101	2.0
81.116	3.0
81.131	3.0
81.146	2.0
81.161	2.0
81.176	3.0
81.191	6.0
81.206	4.0
81.221	2.0
81.236	2.0
81.251	2.0
81.266	6.0
81.281	0.0
81.296	1.0
81.311	7.0
81.326	2.0
81.341	5.0
81.356	4.0
81.371	4.0
81.386	3.0
81.401	0.0
81.416	1.0
81.431	3.0
81.446	5.0
81.461	2.0
81.476	3.0
81.491	5.0
81.506	5.0
81.521	6.0
81.536	4.0
81.55	7.0
81.565	6.0
81.58	3.0
81.595	2.0
81.61	6.0
81.625	6.0
81.64	1.0
81.655	4.0
81.67	5.0
81.685	3.0
81.7	1.0
81.715	1.0
81.73	3.0
81.745	0.0
81.76	2.0
81.775	5.0
81.79	2.0
81.805	3.0
81.819	3.0
81.834	4.0
81.849	5.0
81.864	5.0
81.879	3.0
81.894	4.0
81.909	3.0
81.924	6.0
81.939	5.0
81.954	5.0
81.969	4.0
81.984	1.0
81.999	6.0
82.013	3.0
82.028	4.0
82.043	7.0
82.058	1.0
82.073	6.0
82.088	5.0
82.103	3.0
82.118	2.0
82.133	2.0
82.148	4.0
82.163	2.0
82.177	1.0
82.192	5.0
82.207	3.0
82.222	0.0
82.237	3.0
82.252	3.0
82.267	6.0
82.282	4.0
82.297	1.0
82.312	5.0
82.326	0.0
82.341	5.0
82.356	3.0
82.371	2.0
82.386	1.0
82.401	3.0
82.416	2.0
82.431	5.0
82.445	6.0
82.46	3.0
82.475	4.0
82.49	3.0
82.505	2.0
82.52	2.0
82.535	1.0
82.55	0.0
82.565	3.0
82.579	0.0
82.594	2.0
82.609	2.0
82.624	2.0
82.639	2.0
82.654	4.0
82.669	0.0
82.684	3.0
82.698	2.0
82.713	3.0
82.728	1.0
82.743	1.0
82.758	2.0
82.773	2.0
82.788	2.0
82.803	1.0
82.817	2.0
82.832	3.0
82.847	5.0
82.862	0.0
82.877	5.0
82.892	9.0
82.907	0.0
82.922	3.0
82.937	6.0
82.951	2.0
82.966	1.0
82.981	4.0
82.996	6.0
83.011	3.0
83.026	3.0
83.041	3.0
83.056	5.0
83.07	3.0
83.085	2.0
83.1	2.0
83.115	4.0
83.13	4.0
83.145	0.0
83.16	1.0
83.175	2.0
83.19	1.0
83.204	4.0
83.219	3.0
83.234	3.0
83.249	3.0
83.264	1.0
83.279	1.0
83.294	1.0
83.309	3.0
83.324	4.0
83.339	1.0
83.353	3.0
83.368	3.0
83.383	2.0
83.398	2.0
83.413	2.0
83.428	1.0
83.443	1.0
83.458	2.0
83.473	3.0
83.488	3.0
83.503	2.0
83.517	3.0
83.532	4.0
83.547	1.0
83.562	4.0
83.577	5.0
83.592	7.0
83.607	3.0
83.622	3.0
83.637	2.0
83.652	5.0
83.667	3.0
83.682	1.0
83.697	5.0
83.712	2.0
83.727	2.0
83.741	4.0
83.756	2.0
83.771	7.0
83.786	2.0
83.801	1.0
83.816	0.0
83.831	1.0
83.846	3.0
83.861	1.0
83.876	3.0
83.891	0.0
83.906	1.0
83.921	0.0
83.936	2.0
83.951	3.0
83.966	4.0
83.981	3.0
83.996	6.0
84.011	1.0
84.026	5.0
84.041	1.0
84.056	3.0
84.071	2.0
84.086	0.0
84.101	3.0
84.116	3.0
84.131	0.0
84.146	3.0
84.161	4.0
84.176	4.0
84.191	8.0
84.206	5.0
84.221	6.0
84.236	6.0
84.251	2.0
84.266	2.0
84.281	4.0
84.296	5.0
84.311	6.0
84.326	6.0
84.341	3.0
84.356	4.0
84.371	5.0
84.386	3.0
84.401	7.0
84.416	2.0
84.431	2.0
84.446	3.0
84.461	4.0
84.476	1.0
84.492	2.0
84.507	2.0
84.522	3.0
84.537	2.0
84.552	4.0
84.567	3.0
84.582	2.0
84.597	1.0
84.612	3.0
84.627	4.0
84.642	2.0
84.657	1.0
84.672	3.0
84.687	3.0
84.702	1.0
84.717	4.0
84.733	2.0
84.748	2.0
84.763	3.0
84.778	3.0
84.793	5.0
84.808	2.0
84.823	5.0
84.838	3.0
84.853	3.0
84.868	1.0
84.883	3.0
84.898	4.0
84.913	3.0
84.929	5.0
84.944	5.0
84.959	4.0
84.974	1.0
84.989	4.0
85.004	1.0
85.019	2.0
85.034	5.0
85.049	8.0
85.064	3.0
85.079	3.0
85.094	3.0
85.11	2.0
85.125	4.0
85.14	3.0
85.155	4.0
85.17	0.0
85.185	5.0
85.2	0.0
85.215	5.0
85.23	3.0
85.245	1.0
85.26	2.0
85.276	1.0
85.291	6.0
85.306	3.0
85.321	3.0
85.336	3.0
85.351	1.0
85.366	3.0
85.381	2.0
85.396	1.0
85.411	7.0
85.426	5.0
85.441	3.0
85.457	1.0
85.472	2.0
85.487	3.0
85.502	1.0
85.517	1.0
85.532	7.0
85.547	4.0
85.562	3.0
85.577	4.0
85.592	5.0
85.607	3.0
85.622	2.0
85.637	2.0
85.653	4.0
85.668	2.0
85.683	3.0
85.698	1.0
85.713	2.0
85.728	1.0
85.743	0.0
85.758	3.0
85.773	2.0
85.788	1.0
85.803	6.0
85.818	3.0
85.833	3.0
85.848	1.0
85.863	3.0
85.879	3.0
85.894	0.0
85.909	3.0
85.924	2.0
85.939	3.0
85.954	4.0
85.969	5.0
85.984	6.0
85.999	3.0
86.014	1.0
86.029	2.0
86.044	2.0
86.059	2.0
86.074	3.0
86.089	2.0
86.104	2.0
86.119	6.0
86.134	2.0
86.149	6.0
86.164	0.0
86.179	2.0
86.194	4.0
86.209	4.0
86.224	4.0
86.239	4.0
86.254	3.0
86.269	3.0
86.284	3.0
86.299	1.0
86.314	2.0
86.33	2.0
86.345	7.0
86.36	4.0
86.375	4.0
86.39	4.0
86.405	1.0
86.42	3.0
86.435	2.0
86.45	8.0
86.465	2.0
86.48	10.0
86.495	2.0
86.51	4.0
86.525	3.0
86.54	2.0
86.555	1.0
86.57	3.0
86.585	1.0
86.6	4.0
86.615	4.0
86.63	0.0
86.645	1.0
86.659	4.0
86.674	2.0
86.689	6.0
86.704	1.0
86.719	1.0
86.734	2.0
86.749	3.0
86.764	1.0
86.779	8.0
86.794	3.0
86.809	2.0
86.824	6.0
86.839	4.0
86.854	5.0
86.869	3.0
86.884	3.0
86.899	1.0
86.914	9.0
86.929	3.0
86.944	2.0
86.959	5.0
86.974	6.0
86.989	4.0
87.004	2.0
87.019	5.0
87.034	1.0
87.049	2.0
87.064	3.0
87.079	2.0
87.094	2.0
87.109	1.0
87.124	2.0
87.139	6.0
87.154	2.0
87.169	1.0
87.184	3.0
87.199	2.0
87.214	1.0
87.229	5.0
87.244	5.0
87.259	3.0
87.274	3.0
87.289	1.0
87.304	2.0
87.319	7.0
87.334	2.0
87.349	2.0
87.364	2.0
87.379	1.0
87.394	3.0
87.409	2.0
87.424	6.0
87.438	1.0
87.453	2.0
87.468	2.0
87.483	0.0
87.498	4.0
87.513	5.0
87.528	5.0
87.543	7.0
87.558	6.0
87.573	3.0
87.588	4.0
87.603	6.0
87.618	11.0
87.633	3.0
87.648	3.0
87.663	5.0
87.678	7.0
87.693	2.0
87.708	7.0
87.723	1.0
87.738	3.0
87.753	1.0
87.768	8.0
87.783	2.0
87.798	1.0
87.813	7.0
87.828	2.0
87.843	2.0
87.858	1.0
87.873	5.0
87.888	0.0
87.903	3.0
87.918	1.0
87.933	3.0
87.948	3.0
87.963	3.0
87.978	1.0
87.993	3.0
88.008	4.0
88.023	1.0
88.038	1.0
88.053	0.0
88.068	6.0
88.083	4.0
88.098	3.0
88.113	3.0
88.128	3.0
88.143	1.0
88.158	1.0
88.174	4.0
88.189	2.0
88.204	4.0
88.219	2.0
88.234	4.0
88.249	6.0
88.264	4.0
88.279	1.0
88.294	6.0
88.309	3.0
88.324	4.0
88.339	3.0
88.354	0.0
88.369	4.0
88.384	5.0
88.399	7.0
88.414	3.0
88.429	3.0
88.444	7.0
88.459	3.0
88.474	2.0
88.489	4.0
88.504	1.0
88.519	4.0
88.534	0.0
88.549	2.0
88.564	5.0
88.58	3.0
88.595	3.0
88.61	2.0
88.625	4.0
88.64	3.0
88.655	3.0
88.67	2.0
88.685	2.0
88.7	3.0
88.715	2.0
88.73	1.0
88.745	0.0
88.76	4.0
88.775	2.0
88.79	1.0
88.805	3.0
88.82	2.0
88.835	0.0
88.85	3.0
88.865	2.0
88.88	4.0
88.895	2.0
88.911	0.0
88.926	4.0
88.941	4.0
88.956	1.0
88.971	6.0
88.986	2.0
89.001	4.0
89.016	3.0
89.031	2.0
89.046	7.0
89.061	1.0
89.076	2.0
89.091	0.0
89.106	3.0
89.121	1.0
89.136	5.0
89.151	2.0
89.166	8.0
89.181	1.0
89.196	1.0
89.211	3.0
89.227	3.0
89.242	3.0
89.257	2.0
89.272	4.0
89.287	5.0
89.302	2.0
89.317	4.0
89.332	3.0
89.347	2.0
89.362	2.0
89.377	3.0
89.392	3.0
89.407	4.0
89.422	4.0
89.437	4.0
89.452	3.0
89.467	1.0
89.482	2.0
89.497	5.0
89.512	7.0
89.527	2.0
89.542	1.0
89.557	2.0
89.572	6.0
89.587	2.0
89.602	3.0
89.617	4.0
89.632	2.0
89.647	2.0
89.662	6.0
89.677	3.0
89.693	4.0
89.708	1.0
89.723	1.0
89.738	4.0
89.753	1.0
89.768	2.0
89.783	0.0
89.798	4.0
89.813	5.0
89.828	6.0
89.843	1.0
89.858	5.0
89.873	4.0
89.888	3.0
89.903	1.0
89.918	5.0
89.933	1.0
89.948	1.0
89.963	4.0
89.978	2.0
89.993	1.0
90.008	3.0
90.023	1.0
90.038	4.0
90.053	2.0
90.068	1.0
90.083	2.0
90.097	2.0
90.112	6.0
90.127	3.0
90.142	4.0
90.157	5.0
90.172	3.0
90.187	2.0
90.202	3.0
90.217	4.0
90.232	5.0
90.247	4.0
90.262	3.0
90.277	5.0
90.292	12.0
90.307	4.0
90.322	3.0
90.337	2.0
90.352	9.0
90.367	6.0
90.382	3.0
90.397	1.0
90.412	5.0
90.427	5.0
90.442	2.0
90.457	5.0
90.472	0.0
90.487	4.0
90.501	1.0
90.516	7.0
90.531	1.0
90.546	4.0
90.561	0.0
90.576	2.0
90.591	3.0
90.606	6.0
90.621	0.0
90.636	3.0
90.651	0.0
90.666	3.0
90.681	2.0
90.696	4.0
90.711	0.0
90.726	4.0
90.741	3.0
90.755	1.0
90.77	6.0
90.785	1.0
90.8	4.0
90.815	2.0
90.83	3.0
90.845	2.0
90.86	0.0
90.875	5.0
90.89	3.0
90.905	3.0
90.92	4.0
90.935	3.0
90.95	3.0
90.965	4.0
90.979	5.0
90.994	3.0
91.009	3.0
91.024	1.0
91.039	3.0
91.054	6.0
91.069	4.0
91.084	5.0
91.099	1.0
91.114	3.0
91.129	5.0
91.144	4.0
91.159	1.0
91.174	3.0
91.188	2.0
91.203	6.0
91.218	2.0
91.233	4.0
91.248	3.0
91.263	3.0
91.278	3.0
91.293	2.0
91.308	5.0
91.323	1.0
91.338	1.0
91.353	1.0
91.368	5.0
91.383	4.0
91.398	3.0
91.412	1.0
91.427	1.0
91.442	3.0
91.457	0.0
91.472	1.0
91.487	2.0
91.502	2.0
91.517	1.0
91.532	2.0
91.547	3.0
91.562	4.0
91.577	2.0
91.592	5.0
91.607	2.0
91.622	5.0
91.637	4.0
91.652	4.0
91.666	5.0
91.681	1.0
91.696	2.0
91.711	3.0
91.726	6.0
91.741	4.0
91.756	3.0
91.771	2.0
91.786	5.0
91.801	4.0
91.816	2.0
91.831	5.0
91.846	1.0
91.861	2.0
91.876	2.0
91.891	2.0
91.906	5.0
91.921	1.0
91.936	4.0
91.951	4.0
91.966	0.0
91.981	2.0
91.995	5.0
92.01	1.0
92.025	3.0
92.04	2.0
92.055	2.0
92.07	3.0
92.085	2.0
92.1	4.0
92.115	3.0
92.13	2.0
92.145	6.0
92.16	1.0
92.175	3.0
92.19	1.0
92.205	5.0
92.22	1.0
92.235	3.0
92.25	2.0
92.265	5.0
92.28	3.0
92.295	4.0
92.31	6.0
92.325	3.0
92.34	1.0
92.355	6.0
92.37	2.0
92.385	0.0
92.4	4.0
92.415	4.0
92.43	4.0
92.445	3.0
92.46	3.0
92.475	1.0
92.49	4.0
92.505	2.0
92.52	2.0
92.535	6.0
92.55	2.0
92.565	3.0
92.58	1.0
92.595	1.0
92.61	1.0
92.625	3.0
92.64	3.0
92.655	3.0
92.67	0.0
92.685	2.0
92.7	2.0
92.715	4.0
92.73	2.0
92.745	1.0
92.76	1.0
92.775	3.0
92.79	3.0
92.805	4.0
92.82	5.0
92.835	4.0
92.85	3.0
92.865	1.0
92.88	4.0
92.895	2.0
92.91	2.0
92.925	2.0
92.94	8.0
92.955	5.0
92.97	5.0
92.985	3.0
93.0	2.0
93.015	4.0
93.03	2.0
93.045	0.0
93.06	4.0
93.075	3.0
93.09	1.0
93.105	4.0
93.12	5.0
93.135	4.0
93.15	1.0
93.165	1.0
93.18	6.0
93.195	2.0
93.21	6.0
93.225	1.0
93.24	1.0
93.255	0.0
93.27	1.0
93.285	2.0
93.3	3.0
93.315	3.0
93.33	0.0
93.345	1.0
93.36	3.0
93.375	3.0
93.39	3.0
93.405	1.0
93.42	2.0
93.435	4.0
93.45	3.0
93.465	1.0
93.48	2.0
93.495	3.0
93.51	5.0
93.525	5.0
93.54	2.0
93.555	2.0
93.57	2.0
93.585	2.0
93.6	5.0
93.615	3.0
93.63	2.0
93.645	2.0
93.66	2.0
93.675	3.0
93.69	4.0
93.705	4.0
93.72	0.0
93.735	2.0
93.75	0.0
93.765	1.0
93.78	3.0
93.795	1.0
93.81	2.0
93.824	1.0
93.839	2.0
93.854	6.0
93.869	0.0
93.884	1.0
93.899	3.0
93.914	6.0
93.929	4.0
93.944	1.0
93.959	2.0
93.974	8.0
93.989	3.0
94.004	2.0
94.019	2.0
94.034	2.0
94.049	3.0
94.064	8.0
94.079	4.0
94.094	4.0
94.108	2.0
94.123	1.0
94.138	2.0
94.153	6.0
94.168	3.0
94.183	3.0
94.198	2.0
94.213	4.0
94.228	2.0
94.243	5.0
94.258	2.0
94.273	4.0
94.288	5.0
94.302	5.0
94.317	7.0
94.332	7.0
94.347	2.0
94.362	3.0
94.377	5.0
94.392	5.0
94.407	7.0
94.422	3.0
94.437	5.0
94.452	5.0
94.466	6.0
94.481	5.0
94.496	5.0
94.511	1.0
94.526	4.0
94.541	1.0
94.556	2.0
94.571	4.0
94.586	2.0
94.601	3.0
94.615	2.0
94.63	2.0
94.645	2.0
94.66	3.0
94.675	4.0
94.69	8.0
94.705	4.0
94.72	3.0
94.735	4.0
94.749	0.0
94.764	2.0
94.779	2.0
94.794	4.0
94.809	4.0
94.824	3.0
94.839	2.0
94.854	4.0
94.868	4.0
94.883	4.0
94.898	0.0
94.913	3.0
94.928	2.0
94.943	4.0
94.958	2.0
94.973	4.0
94.987	4.0
95.002	2.0
95.017	5.0
95.032	6.0
95.047	3.0
95.062	5.0
95.077	6.0
95.092	7.0
95.106	6.0
95.121	5.0
95.136	3.0
95.151	4.0
95.166	4.0
95.181	3.0
95.196	2.0
95.211	2.0
95.226	6.0
95.24	6.0
95.255	6.0
95.27	3.0
95.285	7.0
95.3	2.0
95.315	2.0
95.33	3.0
95.345	5.0
95.359	3.0
95.374	3.0
95.389	2.0
95.404	0.0
95.419	3.0
95.434	3.0
95.449	2.0
95.464	6.0
95.478	2.0
95.493	2.0
95.508	4.0
95.523	2.0
95.538	1.0
95.553	1.0
95.568	2.0
95.583	0.0
95.597	2.0
95.612	1.0
95.627	1.0
95.642	3.0
95.657	2.0
95.672	1.0
95.687	2.0
95.702	6.0
95.717	3.0
95.731	1.0
95.746	5.0
95.761	5.0
95.776	5.0
95.791	7.0
95.806	0.0
95.821	0.0
95.836	6.0
95.851	3.0
95.866	4.0
95.88	3.0
95.895	4.0
95.91	2.0
95.925	4.0
95.94	3.0
95.955	0.0
95.97	4.0
95.985	6.0
96.0	1.0
96.015	4.0
96.029	5.0
96.044	4.0
96.059	2.0
96.074	3.0
96.089	5.0
96.104	9.0
96.119	1.0
96.134	4.0
96.149	0.0
96.164	0.0
96.179	4.0
96.194	4.0
96.208	1.0
96.223	5.0
96.238	3.0
96.253	1.0
96.268	2.0
96.283	3.0
96.298	3.0
96.313	3.0
96.328	5.0
96.343	3.0
96.358	2.0
96.373	1.0
96.388	2.0
96.403	2.0
96.417	3.0
96.432	5.0
96.447	2.0
96.462	5.0
96.477	0.0
96.492	1.0
96.507	3.0
96.522	4.0
96.537	4.0
96.552	0.0
96.567	6.0
96.582	1.0
96.597	1.0
96.612	2.0
96.627	5.0
96.642	5.0
96.656	2.0
96.671	6.0
96.686	2.0
96.701	1.0
96.716	2.0
96.731	5.0
96.746	3.0
96.761	2.0
96.776	2.0
96.791	2.0
96.806	1.0
96.821	3.0
96.836	3.0
96.851	3.0
96.866	4.0
96.881	4.0
96.896	2.0
96.911	2.0
96.926	5.0
96.94	3.0
96.955	4.0
96.97	5.0
96.985	5.0
97.0	4.0
97.015	2.0
97.03	4.0
97.045	5.0
97.06	1.0
97.075	7.0
97.09	1.0
97.105	6.0
97.12	5.0
97.135	7.0
97.15	5.0
97.165	3.0
97.18	4.0
97.195	2.0
97.21	3.0
97.225	2.0
97.239	1.0
97.254	0.0
97.269	1.0
97.284	3.0
97.299	1.0
97.314	3.0
97.329	2.0
97.344	5.0
97.359	4.0
97.374	6.0
97.389	1.0
97.404	5.0
97.419	1.0
97.434	2.0
97.449	6.0
97.464	5.0
97.479	6.0
97.494	2.0
97.509	2.0
97.524	4.0
97.538	4.0
97.553	9.0
97.568	1.0
97.583	5.0
97.598	3.0
97.613	2.0
97.628	2.0
97.643	2.0
97.658	4.0
97.673	2.0
97.688	6.0
97.703	1.0
97.718	2.0
97.733	7.0
97.748	2.0
97.763	2.0
97.778	5.0
97.792	3.0
97.807	2.0
97.822	4.0
97.837	2.0
97.852	4.0
97.867	5.0
97.882	6.0
97.897	2.0
97.912	3.0
97.927	3.0
97.942	2.0
97.957	2.0
97.972	4.0
97.987	5.0
98.001	3.0
98.016	3.0
98.031	5.0
98.046	3.0
98.061	1.0
98.076	4.0
98.091	1.0
98.106	3.0
98.121	4.0
98.136	3.0
98.151	4.0
98.166	4.0
98.181	3.0
98.195	1.0
98.21	3.0
98.225	4.0
98.24	6.0
98.255	1.0
98.27	2.0
98.285	3.0
98.3	1.0
98.315	4.0
98.33	2.0
98.345	4.0
98.359	2.0
98.374	9.0
98.389	2.0
98.404	0.0
98.419	2.0
98.434	5.0
98.449	5.0
98.464	2.0
98.479	4.0
98.494	1.0
98.508	3.0
98.523	5.0
98.538	1.0
98.553	1.0
98.568	2.0
98.583	2.0
98.598	0.0
98.613	2.0
98.628	6.0
98.642	3.0
98.657	0.0
98.672	5.0
98.687	4.0
98.702	1.0
98.717	4.0
98.732	2.0
98.747	5.0
98.762	3.0
98.776	3.0
98.791	4.0
98.806	2.0
98.821	5.0
98.836	3.0
98.851	4.0
98.866	2.0
98.881	5.0
98.896	2.0
98.91	1.0
98.925	4.0
98.94	5.0
98.955	2.0
98.97	1.0
98.985	4.0
99.0	4.0
99.015	0.0
99.029	2.0
99.044	0.0
99.059	1.0
99.074	2.0
99.089	1.0
99.104	2.0
99.119	5.0
99.133	2.0
99.148	5.0
99.163	5.0
99.178	3.0
99.193	5.0
99.208	3.0
99.223	3.0
99.238	2.0
99.252	3.0
99.267	2.0
99.282	4.0
99.297	3.0
99.312	4.0
99.327	2.0
99.342	4.0
99.356	5.0
99.371	7.0
99.386	3.0
99.401	4.0
99.416	4.0
99.431	1.0
99.446	1.0
99.461	5.0
99.475	4.0
99.49	2.0
99.505	2.0
99.52	3.0
99.535	5.0
99.55	3.0
99.565	1.0
99.579	3.0
99.594	2.0
99.609	5.0
99.624	2.0
99.639	3.0
99.654	4.0
99.669	2.0
99.683	8.0
99.698	4.0
99.713	0.0
99.728	2.0
99.743	4.0
99.758	3.0
99.772	3.0
99.787	3.0
99.802	4.0
99.817	2.0
99.832	2.0
99.847	2.0
99.862	3.0
99.876	2.0
99.891	2.0
99.906	5.0
99.921	5.0
99.936	4.0
99.951	3.0
99.966	2.0
99.98	8.0
99.995	0.0
100.01	3.0
100.025	2.0
100.04	1.0
100.055	3.0
100.069	2.0
100.084	4.0
100.099	2.0
100.114	5.0
100.129	4.0
100.144	4.0
100.159	3.0
100.173	5.0
100.188	1.0
100.203	5.0
100.218	4.0
100.233	4.0
100.248	4.0
100.262	2.0
100.277	10.0
100.292	0.0
100.307	3.0
100.322	4.0
100.337	4.0
100.351	4.0
100.366	6.0
100.381	4.0
100.396	4.0
100.411	4.0
100.426	5.0
100.441	4.0
100.455	1.0
100.47	3.0
100.485	5.0
100.5	4.0
100.515	4.0
100.53	2.0
100.544	0.0
100.559	1.0
100.574	1.0
100.589	5.0
100.604	2.0
100.619	5.0
100.633	3.0
100.648	3.0
100.663	7.0
100.678	1.0
100.693	7.0
100.708	3.0
100.722	2.0
100.737	6.0
100.752	1.0
100.767	3.0
100.782	4.0
100.796	4.0
100.811	4.0
100.826	8.0
100.841	3.0
100.856	3.0
100.871	3.0
100.885	3.0
100.9	7.0
100.915	5.0
100.93	4.0
100.945	2.0
100.96	4.0
100.974	6.0
100.989	1.0
101.004	6.0
101.019	1.0
101.034	5.0
101.048	5.0
101.063	4.0
101.078	3.0
101.093	5.0
101.108	7.0
101.123	5.0
101.137	3.0
101.152	4.0
101.167	5.0
101.182	4.0
101.197	0.0
101.211	1.0
101.226	6.0
101.241	5.0
101.256	3.0
101.271	7.0
101.285	5.0
101.3	0.0
101.315	6.0
101.33	4.0
101.345	3.0
101.359	3.0
101.374	4.0
101.389	3.0
101.404	3.0
101.419	4.0
101.433	5.0
101.448	4.0
101.463	1.0
101.478	0.0
101.493	6.0
101.507	0.0
101.522	2.0
101.537	6.0
101.552	3.0
101.567	5.0
101.581	5.0
101.596	4.0
101.611	2.0
101.626	4.0
101.64	1.0
101.655	0.0
101.67	3.0
101.685	1.0
101.7	3.0
101.714	2.0
101.729	2.0
101.744	3.0
101.759	3.0
101.773	5.0
101.788	6.0
101.803	4.0
101.818	1.0
101.833	4.0
101.847	3.0
101.862	5.0
101.877	2.0
101.892	1.0
101.906	3.0
101.921	3.0
101.936	5.0
101.951	3.0
101.965	5.0
101.98	2.0
101.995	6.0
102.01	2.0
102.025	5.0
102.039	3.0
102.054	2.0
102.069	4.0
102.084	2.0
102.098	3.0
102.113	5.0
102.128	4.0
102.143	3.0
102.157	4.0
102.172	2.0
102.187	3.0
102.202	0.0
102.216	4.0
102.231	2.0
102.246	1.0
102.261	2.0
102.275	3.0
102.29	2.0
102.305	4.0
102.32	4.0
102.334	4.0
102.349	4.0
102.364	0.0
102.378	4.0
102.393	2.0
102.408	3.0
102.423	1.0
102.437	2.0
102.452	2.0
102.467	2.0
102.482	0.0
102.496	4.0
102.511	2.0
102.526	5.0
102.541	3.0
102.555	0.0
102.57	8.0
102.585	5.0
102.6	3.0
102.614	0.0
102.629	4.0
102.644	1.0
102.659	5.0
102.673	4.0
102.688	5.0
102.703	4.0
102.717	7.0
102.732	4.0
102.747	6.0
102.762	5.0
102.776	3.0
102.791	3.0
102.806	4.0
102.821	2.0
102.835	4.0
102.85	2.0
102.865	2.0
102.88	3.0
102.894	4.0
102.909	4.0
102.924	4.0
102.938	4.0
102.953	3.0
102.968	3.0
102.983	4.0
102.997	1.0
103.012	0.0
103.027	1.0
103.042	5.0
103.056	3.0
103.071	3.0
103.086	1.0
103.101	2.0
103.115	7.0
103.13	4.0
103.145	3.0
103.16	1.0
103.174	2.0
103.189	2.0
103.204	2.0
103.219	5.0
103.233	1.0
103.248	1.0
103.263	3.0
103.278	3.0
103.292	0.0
103.307	3.0
103.322	2.0
103.337	1.0
103.351	1.0
103.366	2.0
103.381	6.0
103.396	0.0
103.41	5.0
103.425	7.0
103.44	4.0
103.455	3.0
103.469	3.0
103.484	5.0
103.499	2.0
103.514	2.0
103.529	6.0
103.543	2.0
103.558	1.0
103.573	3.0
103.588	3.0
103.602	8.0
103.617	4.0
103.632	1.0
103.647	4.0
103.661	3.0
103.676	6.0
103.691	2.0
103.706	3.0
103.721	1.0
103.735	1.0
103.75	1.0
103.765	2.0
103.78	2.0
103.795	4.0
103.809	3.0
103.824	2.0
103.839	1.0
103.854	1.0
103.869	3.0
103.883	4.0
103.898	1.0
103.913	3.0
103.928	4.0
103.943	6.0
103.957	9.0
103.972	3.0
103.987	3.0
104.002	3.0
104.017	3.0
104.031	0.0
104.046	5.0
104.061	4.0
104.076	2.0
104.091	2.0
104.106	2.0
104.12	1.0
104.135	1.0
104.15	2.0
104.165	2.0
104.18	2.0
104.195	1.0
104.209	1.0
104.224	4.0
104.239	5.0
104.254	4.0
104.269	0.0
104.284	0.0
104.299	1.0
104.313	3.0
104.328	1.0
104.343	3.0
104.358	4.0
104.373	2.0
104.388	4.0
104.403	4.0
104.417	6.0
104.432	1.0
104.447	2.0
104.462	3.0
104.477	5.0
104.492	2.0
104.507	2.0
104.522	4.0
104.536	3.0
104.551	7.0
104.566	5.0
104.581	5.0
104.596	5.0
104.611	2.0
104.626	5.0
104.641	4.0
104.656	4.0
104.67	4.0
104.685	3.0
104.7	6.0
104.715	5.0
104.73	5.0
104.745	5.0
104.76	2.0
104.775	3.0
104.79	3.0
104.804	1.0
104.819	3.0
104.834	2.0
104.849	1.0
104.864	2.0
104.879	2.0
104.894	4.0
104.909	2.0
104.924	0.0
104.939	2.0
104.954	1.0
104.968	1.0
104.983	4.0
104.998	3.0
105.013	3.0
105.028	1.0
105.043	5.0
105.058	9.0
105.073	3.0
105.088	1.0
105.103	0.0
105.118	1.0
105.133	5.0
105.147	1.0
105.162	0.0
105.177	2.0
105.192	2.0
105.207	5.0
105.222	6.0
105.237	1.0
105.252	2.0
105.267	4.0
105.282	1.0
105.297	2.0
105.312	2.0
105.327	1.0
105.342	4.0
105.356	4.0
105.371	1.0
105.386	3.0
105.401	3.0
105.416	6.0
105.431	2.0
105.446	4.0
105.461	1.0
105.476	3.0
105.491	6.0
105.506	3.0
105.521	0.0
105.536	4.0
105.551	3.0
105.566	2.0
105.581	3.0
105.595	3.0
105.61	1.0
105.625	2.0
105.64	2.0
105.655	5.0
105.67	3.0
105.685	3.0
105.7	3.0
105.715	4.0
105.73	3.0
105.745	1.0
105.76	3.0
105.775	2.0
105.79	2.0
105.805	2.0
105.82	3.0
105.835	2.0
105.85	1.0
105.864	4.0
105.879	4.0
105.894	5.0
105.909	2.0
105.924	1.0
105.939	1.0
105.954	5.0
105.969	3.0
105.984	2.0
105.999	3.0
106.014	5.0
106.029	3.0
106.044	3.0
106.059	5.0
106.074	2.0
106.089	4.0
106.104	2.0
106.119	3.0
106.134	3.0
106.148	2.0
106.163	5.0
106.178	2.0
106.193	2.0
106.208	3.0
106.223	2.0
106.238	4.0
106.253	1.0
106.268	4.0
106.283	4.0
106.298	2.0
106.313	7.0
106.328	2.0
106.343	3.0
106.358	2.0
106.373	4.0
106.388	3.0
106.403	4.0
106.418	4.0
106.432	2.0
106.447	0.0
106.462	4.0
106.477	4.0
106.492	1.0
106.507	1.0
106.522	2.0
106.537	3.0
106.552	6.0
106.567	4.0
106.582	2.0
106.597	4.0
106.612	2.0
106.627	5.0
106.642	0.0
106.657	1.0
106.672	0.0
106.687	4.0
106.701	2.0
106.716	2.0
106.731	2.0
106.746	5.0
106.761	4.0
106.776	5.0
106.791	2.0
106.806	2.0
106.821	2.0
106.836	2.0
106.851	2.0
106.866	3.0
106.881	2.0
106.896	0.0
106.911	5.0
106.926	4.0
106.941	1.0
106.955	3.0
106.97	4.0
106.985	6.0
107.0	1.0
107.015	1.0
107.03	4.0
107.045	3.0
107.06	0.0
107.075	3.0
107.09	6.0
107.105	1.0
107.12	5.0
107.135	4.0
107.15	4.0
107.165	5.0
107.18	4.0
107.194	6.0
107.209	6.0
107.224	6.0
107.239	4.0
107.254	1.0
107.269	3.0
107.284	5.0
107.299	1.0
107.314	4.0
107.329	1.0
107.344	7.0
107.359	5.0
107.374	4.0
107.389	0.0
107.404	5.0
107.418	0.0
107.433	2.0
107.448	4.0
107.463	3.0
107.478	4.0
107.493	1.0
107.508	3.0
107.523	2.0
107.538	3.0
107.553	5.0
107.568	1.0
107.583	0.0
107.598	4.0
107.613	2.0
107.627	4.0
107.642	5.0
107.657	3.0
107.672	4.0
107.687	3.0
107.702	2.0
107.717	1.0
107.732	2.0
107.747	2.0
107.762	3.0
107.777	1.0
107.792	6.0
107.807	3.0
107.821	3.0
107.836	1.0
107.851	3.0
107.866	2.0
107.881	2.0
107.896	4.0
107.911	1.0
107.926	7.0
107.941	2.0
107.956	2.0
107.971	0.0
107.986	4.0
108.0	6.0
108.015	4.0
108.03	3.0
108.045	4.0
108.06	7.0
108.075	6.0
108.09	5.0
108.105	2.0
108.12	9.0
108.135	7.0
108.15	4.0
108.164	4.0
108.179	5.0
108.194	3.0
108.209	8.0
108.224	1.0
108.239	8.0
108.254	2.0
108.269	1.0
108.284	1.0
108.299	4.0
108.313	5.0
108.328	5.0
108.343	2.0
108.358	4.0
108.373	4.0
108.388	5.0
108.403	3.0
108.418	3.0
108.433	2.0
108.448	3.0
108.462	0.0
108.477	2.0
108.492	2.0
108.507	6.0
108.522	0.0
108.537	5.0
108.552	2.0
108.567	2.0
108.582	3.0
108.597	5.0
108.611	3.0
108.626	1.0
108.641	3.0
108.656	5.0
108.671	0.0
108.686	2.0
108.701	3.0
108.716	6.0
108.731	1.0
108.745	2.0
108.76	5.0
108.775	3.0
108.79	3.0
108.805	5.0
108.82	4.0
108.835	1.0
108.85	5.0
108.865	2.0
108.879	5.0
108.894	3.0
108.909	4.0
108.924	2.0
108.939	7.0
108.954	3.0
108.969	2.0
108.984	4.0
108.999	8.0
109.013	5.0
109.028	2.0
109.043	5.0
109.058	4.0
109.073	3.0
109.088	0.0
109.103	3.0
109.118	1.0
109.133	1.0
109.147	5.0
109.162	5.0
109.177	3.0
109.192	2.0
109.207	4.0
109.222	1.0
109.237	4.0
109.252	1.0
109.267	3.0
109.281	8.0
109.296	4.0
109.311	2.0
109.326	2.0
109.341	5.0
109.356	2.0
109.371	2.0
109.386	2.0
109.4	7.0
109.415	4.0
109.43	3.0
109.445	1.0
109.46	4.0
109.475	2.0
109.49	2.0
109.505	8.0
109.52	3.0
109.534	4.0
109.549	7.0
109.564	2.0
109.579	0.0
109.594	1.0
109.609	5.0
109.624	4.0
109.639	3.0
109.653	6.0
109.668	1.0
109.683	2.0
109.698	0.0
109.713	2.0
109.728	2.0
109.743	3.0
109.758	1.0
109.773	6.0
109.787	2.0
109.802	3.0
109.817	3.0
109.832	5.0
109.847	2.0
109.862	4.0
109.877	3.0
109.892	2.0
109.907	2.0
109.921	3.0
109.936	0.0
109.951	3.0
109.966	5.0
109.981	3.0
109.996	2.0
110.011	4.0
110.026	0.0
110.04	3.0
110.055	2.0
110.07	3.0
110.085	4.0
110.1	2.0
110.115	2.0
110.13	4.0
110.145	8.0
110.16	5.0
110.174	1.0
110.189	2.0
110.204	2.0
110.219	3.0
110.234	2.0
110.249	3.0
110.264	2.0
110.279	2.0
110.294	2.0
110.308	3.0
110.323	3.0
110.338	0.0
110.353	1.0
110.368	6.0
110.383	1.0
110.398	2.0
110.413	3.0
110.428	3.0
110.442	2.0
110.457	4.0
110.472	2.0
110.487	3.0
110.502	2.0
110.517	4.0
110.532	5.0
110.547	1.0
110.561	3.0
110.576	1.0
110.591	8.0
110.606	1.0
110.621	2.0
110.636	2.0
110.651	2.0
110.666	3.0
110.681	3.0
110.695	7.0
110.71	4.0
110.725	2.0
110.74	3.0
110.755	3.0
110.77	3.0
110.785	1.0
110.8	8.0
110.815	8.0
110.829	2.0
110.844	2.0
110.859	4.0
110.874	3.0
110.889	3.0
110.904	2.0
110.919	6.0
110.934	1.0
110.948	2.0
110.963	5.0
110.978	2.0
110.993	5.0
111.008	2.0
111.023	6.0
111.038	2.0
111.053	2.0
111.067	3.0
111.082	4.0
111.097	1.0
111.112	5.0
111.127	2.0
111.142	1.0
111.157	1.0
111.172	3.0
111.186	1.0
111.201	2.0
111.216	3.0
111.231	1.0
111.246	2.0
111.261	4.0
111.276	3.0
111.291	6.0
111.305	5.0
111.32	0.0
111.335	2.0
111.35	5.0
111.365	2.0
111.38	4.0
111.395	4.0
111.41	4.0
111.424	3.0
111.439	2.0
111.454	5.0
111.469	5.0
111.484	5.0
111.499	2.0
111.514	1.0
111.528	4.0
111.543	6.0
111.558	5.0
111.573	6.0
111.588	0.0
111.603	5.0
111.618	4.0
111.633	5.0
111.647	3.0
111.662	1.0
111.677	3.0
111.692	2.0
111.707	3.0
111.722	5.0
111.737	3.0
111.751	6.0
111.766	5.0
111.781	4.0
111.796	2.0
111.811	4.0
111.826	2.0
111.84	1.0
111.855	2.0
111.87	1.0
111.885	6.0
111.9	2.0
111.915	4.0
111.93	4.0
111.944	4.0
111.959	6.0
111.974	4.0
111.989	6.0
112.004	2.0
112.019	4.0
112.033	3.0
112.048	4.0
112.063	2.0
112.078	1.0
112.093	3.0
112.108	5.0
112.123	3.0
112.137	5.0
112.152	2.0
112.167	2.0
112.182	5.0
112.197	8.0
112.212	2.0
112.226	1.0
112.241	3.0
112.256	5.0
112.271	4.0
112.286	4.0
112.301	4.0
112.315	5.0
112.33	1.0
112.345	1.0
112.36	4.0
112.375	3.0
112.389	1.0
112.404	2.0
112.419	4.0
112.434	3.0
112.449	3.0
112.464	2.0
112.478	1.0
112.493	3.0
112.508	0.0
112.523	5.0
112.538	4.0
112.553	4.0
112.567	4.0
112.582	2.0
112.597	2.0
112.612	3.0
112.627	2.0
112.642	3.0
112.656	4.0
112.671	7.0
112.686	3.0
112.701	4.0
112.716	2.0
112.73	1.0
112.745	3.0
112.76	3.0
112.775	3.0
112.79	5.0
112.805	3.0
112.819	2.0
112.834	4.0
112.849	5.0
112.864	4.0
112.879	3.0
112.894	3.0
112.908	1.0
112.923	4.0
112.938	4.0
112.953	4.0
112.968	3.0
112.983	2.0
112.997	1.0
113.012	2.0
113.027	5.0
113.042	2.0
113.057	1.0
113.072	2.0
113.086	6.0
113.101	2.0
113.116	5.0
113.131	4.0
113.146	4.0
113.161	0.0
113.175	6.0
113.19	6.0
113.205	3.0
113.22	2.0
113.235	3.0
113.25	5.0
113.265	2.0
113.279	2.0
113.294	2.0
113.309	6.0
113.324	2.0
113.339	2.0
113.354	2.0
113.368	4.0
113.383	4.0
113.398	3.0
113.413	4.0
113.428	6.0
113.443	4.0
113.458	6.0
113.472	1.0
113.487	6.0
113.502	4.0
113.517	5.0
113.532	4.0
113.547	3.0
113.562	4.0
113.576	2.0
113.591	5.0
113.606	5.0
113.621	2.0
113.636	3.0
113.651	4.0
113.666	5.0
113.681	2.0
113.695	3.0
113.71	1.0
113.725	6.0
113.74	5.0
113.755	3.0
113.77	4.0
113.785	2.0
113.8	1.0
113.814	4.0
113.829	3.0
113.844	3.0
113.859	2.0
113.874	5.0
113.889	2.0
113.904	2.0
113.919	5.0
113.934	7.0
113.949	3.0
113.963	3.0
113.978	1.0
113.993	3.0
114.008	3.0
114.023	1.0
114.038	4.0
114.053	3.0
114.068	5.0
114.083	4.0
114.098	8.0
114.113	2.0
114.127	2.0
114.142	2.0
114.157	4.0
114.172	3.0
114.187	4.0
114.202	5.0
114.217	3.0
114.232	2.0
114.247	2.0
114.262	4.0
114.277	1.0
114.292	1.0
114.307	1.0
114.322	6.0
114.337	4.0
114.351	4.0
114.366	5.0
114.381	3.0
114.396	4.0
114.411	9.0
114.426	5.0
114.441	3.0
114.456	1.0
114.471	2.0
114.486	1.0
114.501	8.0
114.516	2.0
114.531	1.0
114.546	1.0
114.561	3.0
114.576	2.0
114.591	0.0
114.606	7.0
114.621	2.0
114.636	1.0
114.65	4.0
114.665	5.0
114.68	2.0
114.695	2.0
114.71	3.0
114.725	1.0
114.74	3.0
114.755	2.0
114.77	1.0
114.785	5.0
114.8	1.0
114.815	2.0
114.83	4.0
114.845	6.0
114.86	4.0
114.875	6.0
114.89	4.0
114.905	4.0
114.92	4.0
114.935	1.0
114.95	8.0
114.965	2.0
114.98	4.0
114.995	5.0
115.009	4.0
115.024	7.0
115.039	3.0
115.054	5.0
115.069	2.0
115.084	5.0
115.099	8.0
115.114	7.0
115.129	4.0
115.144	7.0
115.159	3.0
115.174	3.0
115.189	5.0
115.204	4.0
115.219	4.0
115.234	4.0
115.249	4.0
115.264	2.0
115.279	6.0
115.294	5.0
115.309	7.0
115.323	6.0
115.338	10.0
115.353	5.0
115.368	2.0
115.383	4.0
115.398	3.0
115.413	3.0
115.428	1.0
115.443	7.0
115.458	7.0
115.473	2.0
115.488	3.0
115.503	2.0
115.518	2.0
115.533	3.0
115.548	7.0
115.562	3.0
115.577	3.0
115.592	3.0
115.607	5.0
115.622	8.0
115.637	5.0
115.652	2.0
115.667	2.0
115.682	2.0
115.697	1.0
115.712	2.0
115.727	5.0
115.741	5.0
115.756	0.0
115.771	1.0
115.786	4.0
115.801	2.0
115.816	1.0
115.831	0.0
115.846	4.0
115.861	3.0
115.875	3.0
115.89	2.0
115.905	1.0
115.92	1.0
115.935	2.0
115.95	0.0
115.965	1.0
115.98	2.0
115.995	5.0
116.009	1.0
116.024	3.0
116.039	1.0
116.054	4.0
116.069	4.0
116.084	3.0
116.099	2.0
116.113	1.0
116.128	5.0
116.143	6.0
116.158	5.0
116.173	6.0
116.188	6.0
116.202	4.0
116.217	4.0
116.232	5.0
116.247	2.0
116.262	6.0
116.277	5.0
116.291	2.0
116.306	2.0
116.321	9.0
116.336	2.0
116.351	4.0
116.366	3.0
116.38	2.0
116.395	3.0
116.41	2.0
116.425	1.0
116.44	1.0
116.454	3.0
116.469	7.0
116.484	4.0
116.499	3.0
116.514	1.0
116.528	3.0
116.543	1.0
116.558	3.0
116.573	4.0
116.588	4.0
116.602	5.0
116.617	5.0
116.632	2.0
116.647	3.0
116.662	2.0
116.676	3.0
116.691	3.0
116.706	2.0
116.721	4.0
116.735	3.0
116.75	5.0
116.765	2.0
116.78	6.0
116.795	4.0
116.809	9.0
116.824	3.0
116.839	2.0
116.854	6.0
116.868	3.0
116.883	1.0
116.898	4.0
116.913	2.0
116.927	3.0
116.942	2.0
116.957	4.0
116.972	6.0
116.986	3.0
117.001	1.0
117.016	4.0
117.031	0.0
117.045	3.0
117.06	0.0
117.075	4.0
117.09	0.0
117.104	5.0
117.119	8.0
117.134	8.0
117.149	5.0
117.163	2.0
117.178	5.0
117.193	5.0
117.208	5.0
117.222	4.0
117.237	4.0
117.252	5.0
117.267	2.0
117.281	2.0
117.296	2.0
117.311	4.0
117.325	4.0
117.34	2.0
117.355	5.0
117.37	3.0
117.384	4.0
117.399	4.0
117.414	5.0
117.429	4.0
117.443	4.0
117.458	4.0
117.473	6.0
117.487	3.0
117.502	4.0
117.517	4.0
117.532	4.0
117.546	1.0
117.561	5.0
117.576	3.0
117.59	5.0
117.605	5.0
117.62	4.0
117.635	2.0
117.649	3.0
117.664	2.0
117.679	8.0
117.693	4.0
117.708	6.0
117.723	5.0
117.738	2.0
117.752	3.0
117.767	5.0
117.782	4.0
117.796	5.0
117.811	5.0
117.826	5.0
117.841	2.0
117.855	3.0
117.87	1.0
117.885	2.0
117.899	1.0
117.914	1.0
117.929	3.0
117.944	3.0
117.958	5.0
117.973	1.0
117.988	2.0
118.002	7.0
118.017	2.0
118.032	2.0
118.047	3.0
118.062	4.0
118.077	6.0
118.092	6.0
118.107	4.0
118.121	4.0
118.136	8.0
118.151	4.0
118.166	5.0
118.181	4.0
118.196	5.0
118.211	4.0
118.225	2.0
118.24	4.0
118.255	7.0
118.27	3.0
118.285	3.0
118.3	7.0
118.315	4.0
118.33	5.0
118.344	3.0
118.359	3.0
118.374	5.0
118.389	5.0
118.404	4.0
118.419	5.0
118.434	5.0
118.449	6.0
118.463	3.0
118.478	2.0
118.493	5.0
118.508	2.0
118.523	5.0
118.538	2.0
118.553	4.0
118.567	5.0
118.582	5.0
118.597	1.0
118.612	3.0
118.627	3.0
118.642	2.0
118.657	4.0
118.672	7.0
118.686	5.0
118.701	3.0
118.716	6.0
118.731	3.0
118.746	3.0
118.761	4.0
118.776	4.0
118.791	3.0
118.805	4.0
118.82	1.0
118.835	5.0
118.85	6.0
118.865	3.0
118.88	5.0
118.895	4.0
118.909	1.0
118.924	4.0
118.939	2.0
118.954	4.0
118.969	5.0
118.984	7.0
118.999	7.0
119.014	4.0
119.028	2.0
119.043	3.0
119.058	3.0
119.073	2.0
119.088	3.0
119.103	2.0
119.118	6.0
119.133	3.0
119.147	4.0
119.162	5.0
119.177	3.0
119.192	4.0
119.207	8.0
119.222	4.0
119.237	0.0
119.251	7.0
119.266	6.0
119.281	3.0
119.296	3.0
119.311	3.0
119.326	5.0
119.341	2.0
119.356	3.0
119.37	4.0
119.385	3.0
119.4	0.0
119.415	9.0
119.43	3.0
119.445	4.0
119.46	3.0
119.475	8.0
119.489	2.0
119.504	4.0
119.519	3.0
119.534	4.0
119.549	5.0
119.564	1.0
119.579	3.0
119.593	4.0
119.608	5.0
119.623	3.0
119.638	6.0
119.653	5.0
119.668	1.0
119.683	2.0
119.698	6.0
119.712	6.0
119.727	4.0
119.742	1.0
119.757	2.0
119.772	2.0
119.787	3.0
119.802	3.0
119.817	5.0
119.831	1.0
119.846	4.0
119.861	2.0
119.876	0.0
119.891	4.0
119.906	0.0
119.921	6.0
119.935	3.0
119.95	3.0
119.965	4.0
119.98	1.0
119.995	5.0
120.01	3.0
120.025	3.0
120.04	1.0
120.054	2.0
120.069	2.0
120.084	2.0
120.099	4.0
120.114	4.0
120.129	0.0
120.144	1.0
120.159	4.0
120.173	0.0
120.188	1.0
120.203	0.0
120.218	1.0
120.233	2.0
120.248	0.0
120.263	0.0
120.277	1.0
120.292	1.0
120.307	1.0
120.322	1.0
120.337	0.0
120.352	0.0
120.367	0.0
120.382	1.0
120.396	0.0
120.411	0.0
120.426	1.0
120.441	0.0
120.456	0.0
120.471	0.0
120.486	0.0
120.501	0.0
120.515	0.0
120.53	0.0
120.545	0.0
120.56	0.0
120.575	0.0
120.59	0.0
120.605	0.0
120.619	0.0
120.634	1.0
120.649	0.0
120.664	0.0
120.679	0.0
120.694	1.0
120.709	0.0
120.724	0.0
120.738	0.0
120.753	0.0
120.768	0.0
120.783	0.0
120.798	0.0
120.813	0.0
120.828	0.0
120.843	0.0
120.857	0.0
120.872	0.0
120.887	0.0
120.902	0.0
120.917	0.0
120.932	0.0
120.947	0.0
120.961	0.0
120.976	0.0
