-1.217	0.0
-1.202	0.0
-1.187	0.0
-1.172	0.0
-1.157	0.0
-1.142	0.0
-1.128	0.0
-1.113	0.0
-1.098	1.0
-1.083	0.0
-1.068	0.0
-1.054	0.0
-1.039	0.0
-1.024	0.0
-1.009	0.0
-0.994	0.0
-0.979	0.0
-0.965	0.0
-0.95	0.0
-0.935	0.0
-0.92	0.0
-0.905	0.0
-0.891	0.0
-0.876	0.0
-0.861	0.0
-0.846	0.0
-0.831	0.0
-0.816	0.0
-0.802	0.0
-0.787	0.0
-0.772	0.0
-0.757	0.0
-0.742	0.0
-0.728	0.0
-0.713	0.0
-0.698	0.0
-0.683	1.0
-0.668	0.0
-0.653	0.0
-0.639	0.0
-0.624	0.0
-0.609	0.0
-0.594	0.0
-0.579	0.0
-0.565	0.0
-0.55	0.0
-0.535	0.0
-0.52	0.0
-0.505	0.0
-0.49	0.0
-0.476	0.0
-0.461	0.0
-0.446	0.0
-0.431	0.0
-0.416	0.0
-0.401	1.0
-0.387	0.0
-0.372	0.0
-0.357	1.0
-0.342	0.0
-0.327	0.0
-0.313	0.0
-0.298	0.0
-0.283	0.0
-0.268	0.0
-0.253	0.0
-0.238	0.0
-0.224	0.0
-0.209	0.0
-0.194	0.0
-0.179	0.0
-0.164	0.0
-0.15	0.0
-0.135	1.0
-0.12	0.0
-0.105	0.0
-0.09	0.0
-0.075	0.0
-0.061	0.0
-0.046	0.0
-0.031	0.0
-0.016	0.0
-0.001	0.0
0.013	0.0
0.028	0.0
0.043	0.0
0.058	0.0
0.073	0.0
0.088	0.0
0.102	0.0
0.117	0.0
0.132	0.0
0.147	0.0
0.162	0.0
0.176	0.0
0.191	0.0
0.206	1.0
0.221	0.0
0.236	0.0
0.251	0.0
0.265	0.0
0.28	0.0
0.295	0.0
0.31	0.0
0.325	0.0
0.339	0.0
0.354	0.0
0.369	0.0
0.384	0.0
0.399	0.0
0.414	0.0
0.428	0.0
0.443	0.0
0.458	0.0
0.473	0.0
0.488	0.0
0.502	0.0
0.517	0.0
0.532	0.0
0.547	0.0
0.562	0.0
0.577	0.0
0.591	0.0
0.606	0.0
0.621	0.0
0.636	0.0
0.651	0.0
0.665	0.0
0.68	0.0
0.695	0.0
0.71	0.0
0.725	0.0
0.74	0.0
0.754	0.0
0.769	0.0
0.784	0.0
0.799	0.0
0.814	1.0
0.828	0.0
0.843	0.0
0.858	0.0
0.873	0.0
0.888	0.0
0.903	0.0
0.917	0.0
0.932	0.0
0.947	0.0
0.962	0.0
0.977	0.0
0.991	0.0
1.006	0.0
1.021	0.0
1.036	0.0
1.051	0.0
1.065	0.0
1.08	0.0
1.095	0.0
1.11	0.0
1.125	0.0
1.14	0.0
1.154	0.0
1.169	0.0
1.184	0.0
1.199	0.0
1.214	0.0
1.228	1.0
1.243	0.0
1.258	0.0
1.273	0.0
1.288	0.0
1.302	1.0
1.317	1.0
1.332	0.0
1.347	0.0
1.362	0.0
1.376	0.0
1.391	0.0
1.406	0.0
1.421	0.0
1.436	0.0
1.45	0.0
1.465	0.0
1.48	0.0
1.495	1.0
1.51	0.0
1.524	0.0
1.539	0.0
1.554	0.0
1.569	0.0
1.584	0.0
1.598	0.0
1.613	0.0
1.628	0.0
1.643	0.0
1.658	0.0
1.672	0.0
1.687	0.0
1.702	0.0
1.717	1.0
1.732	0.0
1.746	1.0
1.761	0.0
1.776	0.0
1.791	0.0
1.806	0.0
1.82	0.0
1.835	0.0
1.85	1.0
1.865	1.0
1.88	0.0
1.894	0.0
1.909	0.0
1.924	0.0
1.939	0.0
1.954	0.0
1.968	1.0
1.983	0.0
1.998	0.0
2.013	1.0
2.028	0.0
2.042	0.0
2.057	0.0
2.072	0.0
2.087	0.0
2.101	0.0
2.116	0.0
2.131	0.0
2.146	1.0
2.161	0.0
2.175	0.0
2.19	1.0
2.205	0.0
2.22	0.0
2.235	1.0
2.249	0.0
2.264	2.0
2.279	0.0
2.294	0.0
2.308	1.0
2.323	1.0
2.338	2.0
2.353	2.0
2.368	2.0
2.382	1.0
2.397	2.0
2.412	0.0
2.427	0.0
2.442	1.0
2.456	3.0
2.471	0.0
2.486	2.0
2.501	1.0
2.515	3.0
2.53	4.0
2.545	2.0
2.56	4.0
2.575	4.0
2.589	2.0
2.604	2.0
2.619	2.0
2.634	2.0
2.649	3.0
2.663	2.0
2.678	1.0
2.693	3.0
2.708	3.0
2.722	4.0
2.737	2.0
2.752	3.0
2.767	1.0
2.782	4.0
2.796	1.0
2.811	3.0
2.826	0.0
2.841	4.0
2.856	3.0
2.87	5.0
2.885	4.0
2.9	6.0
2.915	4.0
2.93	2.0
2.944	3.0
2.959	5.0
2.974	3.0
2.989	2.0
3.004	1.0
3.018	5.0
3.033	4.0
3.048	4.0
3.063	6.0
3.078	6.0
3.092	4.0
3.107	10.0
3.122	4.0
3.137	2.0
3.152	4.0
3.166	1.0
3.181	4.0
3.196	3.0
3.211	5.0
3.226	1.0
3.24	3.0
3.255	4.0
3.27	3.0
3.285	3.0
3.3	6.0
3.315	5.0
3.329	4.0
3.344	9.0
3.359	9.0
3.374	4.0
3.389	4.0
3.403	3.0
3.418	7.0
3.433	1.0
3.448	10.0
3.463	5.0
3.478	3.0
3.492	6.0
3.507	6.0
3.522	2.0
3.537	11.0
3.552	2.0
3.567	6.0
3.581	12.0
3.596	2.0
3.611	5.0
3.626	7.0
3.641	8.0
3.656	7.0
3.671	4.0
3.685	9.0
3.7	4.0
3.715	4.0
3.73	4.0
3.745	5.0
3.76	4.0
3.775	6.0
3.789	4.0
3.804	5.0
3.819	8.0
3.834	7.0
3.849	8.0
3.864	4.0
3.879	7.0
3.894	7.0
3.908	1.0
3.923	9.0
3.938	5.0
3.953	6.0
3.968	6.0
3.983	7.0
3.998	7.0
4.013	5.0
4.027	4.0
4.042	5.0
4.057	9.0
4.072	11.0
4.087	5.0
4.102	4.0
4.117	7.0
4.132	9.0
4.147	9.0
4.162	3.0
4.176	8.0
4.191	5.0
4.206	5.0
4.221	9.0
4.236	10.0
4.251	4.0
4.266	5.0
4.281	7.0
4.296	5.0
4.311	12.0
4.326	3.0
4.341	4.0
4.356	12.0
4.37	8.0
4.385	5.0
4.4	6.0
4.415	3.0
4.43	4.0
4.445	11.0
4.46	6.0
4.475	9.0
4.49	10.0
4.505	10.0
4.52	5.0
4.535	7.0
4.55	9.0
4.565	4.0
4.58	5.0
4.595	5.0
4.61	8.0
4.625	7.0
4.639	5.0
4.654	12.0
4.669	8.0
4.684	8.0
4.699	4.0
4.714	15.0
4.729	7.0
4.744	9.0
4.759	10.0
4.774	5.0
4.789	9.0
4.804	7.0
4.819	7.0
4.834	12.0
4.849	5.0
4.864	5.0
4.879	9.0
4.894	8.0
4.909	5.0
4.924	7.0
4.939	4.0
4.954	9.0
4.969	8.0
4.984	11.0
4.999	12.0
5.014	11.0
5.029	5.0
5.044	9.0
5.059	6.0
5.074	5.0
5.089	8.0
5.104	3.0
5.119	5.0
5.134	10.0
5.149	9.0
5.164	8.0
5.179	7.0
5.194	5.0
5.209	14.0
5.224	9.0
5.239	7.0
5.254	12.0
5.269	7.0
5.284	6.0
5.299	11.0
5.314	6.0
5.329	5.0
5.344	4.0
5.359	5.0
5.374	16.0
5.389	4.0
5.404	6.0
5.419	10.0
5.434	4.0
5.449	9.0
5.464	12.0
5.479	11.0
5.494	5.0
5.509	5.0
5.524	7.0
5.539	6.0
5.554	8.0
5.569	8.0
5.584	11.0
5.599	8.0
5.614	9.0
5.629	10.0
5.644	11.0
5.659	6.0
5.674	7.0
5.689	7.0
5.704	2.0
5.719	6.0
5.734	8.0
5.749	5.0
5.764	10.0
5.779	9.0
5.794	9.0
5.809	12.0
5.824	4.0
5.839	14.0
5.854	12.0
5.869	7.0
5.884	5.0
5.899	7.0
5.914	8.0
5.929	15.0
5.944	13.0
5.959	8.0
5.974	7.0
5.989	9.0
6.004	7.0
6.019	10.0
6.034	10.0
6.049	3.0
6.064	7.0
6.079	11.0
6.094	6.0
6.109	8.0
6.124	11.0
6.139	7.0
6.154	7.0
6.169	13.0
6.184	8.0
6.199	8.0
6.214	10.0
6.229	9.0
6.244	7.0
6.259	11.0
6.274	4.0
6.289	7.0
6.304	3.0
6.319	13.0
6.334	4.0
6.349	8.0
6.364	14.0
6.379	8.0
6.394	5.0
6.409	8.0
6.424	7.0
6.439	10.0
6.454	7.0
6.469	9.0
6.484	10.0
6.499	10.0
6.514	10.0
6.529	7.0
6.544	6.0
6.559	7.0
6.574	8.0
6.589	13.0
6.604	9.0
6.619	8.0
6.634	7.0
6.649	4.0
6.664	7.0
6.679	6.0
6.694	13.0
6.709	6.0
6.724	7.0
6.739	16.0
6.754	10.0
6.769	8.0
6.784	11.0
6.799	7.0
6.814	15.0
6.829	9.0
6.844	7.0
6.859	5.0
6.873	15.0
6.888	6.0
6.903	5.0
6.918	12.0
6.933	5.0
6.948	8.0
6.963	11.0
6.978	9.0
6.993	9.0
7.008	5.0
7.023	13.0
7.038	8.0
7.053	4.0
7.068	9.0
7.083	5.0
7.098	11.0
7.113	8.0
7.128	9.0
7.143	9.0
7.157	8.0
7.172	10.0
7.187	8.0
7.202	4.0
7.217	8.0
7.232	7.0
7.247	9.0
7.262	7.0
7.277	8.0
7.292	7.0
7.307	5.0
7.322	8.0
7.336	8.0
7.351	14.0
7.366	9.0
7.381	5.0
7.396	8.0
7.411	9.0
7.426	9.0
7.441	5.0
7.456	7.0
7.471	9.0
7.485	11.0
7.5	7.0
7.515	3.0
7.53	6.0
7.545	6.0
7.56	12.0
7.575	13.0
7.59	10.0
7.604	6.0
7.619	11.0
7.634	12.0
7.649	7.0
7.664	10.0
7.679	6.0
7.693	12.0
7.708	10.0
7.723	11.0
7.738	13.0
7.753	7.0
7.768	16.0
7.783	6.0
7.797	8.0
7.812	8.0
7.827	7.0
7.842	13.0
7.857	9.0
7.871	9.0
7.886	10.0
7.901	6.0
7.916	10.0
7.931	3.0
7.945	11.0
7.96	8.0
7.975	11.0
7.99	12.0
8.005	9.0
8.019	4.0
8.034	4.0
8.049	9.0
8.064	7.0
8.078	14.0
8.093	15.0
8.108	8.0
8.123	5.0
8.137	7.0
8.152	5.0
8.167	12.0
8.182	7.0
8.196	8.0
8.211	3.0
8.226	6.0
8.241	4.0
8.255	6.0
8.27	8.0
8.285	15.0
8.3	8.0
8.314	10.0
8.329	7.0
8.344	10.0
8.358	12.0
8.373	12.0
8.388	9.0
8.403	2.0
8.417	17.0
8.432	7.0
8.447	8.0
8.461	5.0
8.476	12.0
8.491	10.0
8.505	11.0
8.52	7.0
8.535	14.0
8.55	13.0
8.564	7.0
8.579	9.0
8.594	8.0
8.608	13.0
8.623	6.0
8.638	8.0
8.652	6.0
8.667	5.0
8.682	11.0
8.696	6.0
8.711	7.0
8.726	6.0
8.74	10.0
8.755	8.0
8.77	7.0
8.784	7.0
8.799	11.0
8.814	6.0
8.828	9.0
8.843	3.0
8.858	12.0
8.872	9.0
8.887	10.0
8.902	7.0
8.916	9.0
8.931	9.0
8.946	9.0
8.96	8.0
8.975	2.0
8.99	8.0
9.004	15.0
9.019	12.0
9.034	5.0
9.048	6.0
9.063	6.0
9.077	6.0
9.092	9.0
9.107	7.0
9.121	15.0
9.136	14.0
9.151	6.0
9.165	11.0
9.18	4.0
9.195	12.0
9.209	8.0
9.224	10.0
9.239	10.0
9.253	8.0
9.268	17.0
9.283	6.0
9.297	7.0
9.312	12.0
9.327	14.0
9.341	5.0
9.356	3.0
9.371	10.0
9.385	11.0
9.4	11.0
9.415	11.0
9.429	15.0
9.444	5.0
9.458	9.0
9.473	12.0
9.488	9.0
9.502	10.0
9.517	7.0
9.532	6.0
9.546	10.0
9.561	6.0
9.576	16.0
9.59	7.0
9.605	8.0
9.62	14.0
9.635	12.0
9.649	4.0
9.664	10.0
9.679	7.0
9.693	10.0
9.708	7.0
9.723	14.0
9.737	6.0
9.752	12.0
9.767	7.0
9.781	11.0
9.796	7.0
9.811	10.0
9.825	7.0
9.84	11.0
9.855	8.0
9.87	12.0
9.884	8.0
9.899	9.0
9.914	3.0
9.928	8.0
9.943	9.0
9.958	2.0
9.973	7.0
9.987	6.0
10.002	8.0
10.017	4.0
10.031	4.0
10.046	6.0
10.061	10.0
10.076	10.0
10.09	9.0
10.105	8.0
10.12	7.0
10.135	9.0
10.149	7.0
10.164	5.0
10.179	6.0
10.194	7.0
10.208	3.0
10.223	7.0
10.238	12.0
10.253	9.0
10.267	14.0
10.282	8.0
10.297	5.0
10.312	10.0
10.326	3.0
10.341	5.0
10.356	14.0
10.371	11.0
10.386	12.0
10.4	10.0
10.415	14.0
10.43	5.0
10.445	3.0
10.46	6.0
10.474	4.0
10.489	6.0
10.504	8.0
10.519	12.0
10.533	15.0
10.548	6.0
10.563	14.0
10.578	9.0
10.593	10.0
10.608	13.0
10.622	14.0
10.637	14.0
10.652	3.0
10.667	9.0
10.682	8.0
10.696	8.0
10.711	7.0
10.726	8.0
10.741	8.0
10.756	7.0
10.771	6.0
10.785	7.0
10.8	4.0
10.815	12.0
10.83	4.0
10.845	11.0
10.86	9.0
10.874	9.0
10.889	12.0
10.904	6.0
10.919	6.0
10.934	11.0
10.949	6.0
10.963	5.0
10.978	2.0
10.993	8.0
11.008	10.0
11.023	6.0
11.038	10.0
11.053	9.0
11.067	8.0
11.082	9.0
11.097	3.0
11.112	4.0
11.127	6.0
11.142	9.0
11.157	7.0
11.172	5.0
11.186	5.0
11.201	8.0
11.216	6.0
11.231	4.0
11.246	6.0
11.261	7.0
11.276	10.0
11.291	11.0
11.305	8.0
11.32	6.0
11.335	7.0
11.35	6.0
11.365	12.0
11.38	9.0
11.395	7.0
11.41	16.0
11.424	9.0
11.439	8.0
11.454	10.0
11.469	14.0
11.484	9.0
11.499	5.0
11.514	13.0
11.529	10.0
11.544	5.0
11.558	7.0
11.573	10.0
11.588	10.0
11.603	10.0
11.618	7.0
11.633	5.0
11.648	7.0
11.663	17.0
11.678	11.0
11.693	10.0
11.707	4.0
11.722	6.0
11.737	11.0
11.752	15.0
11.767	5.0
11.782	10.0
11.797	6.0
11.812	9.0
11.827	9.0
11.842	9.0
11.856	8.0
11.871	6.0
11.886	12.0
11.901	7.0
11.916	12.0
11.931	3.0
11.946	17.0
11.961	8.0
11.976	7.0
11.991	7.0
12.006	8.0
12.02	10.0
12.035	7.0
12.05	15.0
12.065	10.0
12.08	12.0
12.095	10.0
12.11	8.0
12.125	9.0
12.14	6.0
12.155	12.0
12.17	12.0
12.184	9.0
12.199	6.0
12.214	6.0
12.229	11.0
12.244	9.0
12.259	9.0
12.274	7.0
12.289	7.0
12.304	17.0
12.319	9.0
12.334	9.0
12.348	7.0
12.363	10.0
12.378	8.0
12.393	10.0
12.408	7.0
12.423	13.0
12.438	12.0
12.453	10.0
12.468	16.0
12.483	9.0
12.498	8.0
12.513	10.0
12.527	13.0
12.542	18.0
12.557	17.0
12.572	10.0
12.587	14.0
12.602	13.0
12.617	17.0
12.632	10.0
12.647	10.0
12.662	15.0
12.677	10.0
12.692	14.0
12.707	16.0
12.721	21.0
12.736	8.0
12.751	12.0
12.766	16.0
12.781	11.0
12.796	15.0
12.811	9.0
12.826	7.0
12.841	22.0
12.856	17.0
12.871	9.0
12.886	14.0
12.9	16.0
12.915	16.0
12.93	14.0
12.945	12.0
12.96	15.0
12.975	15.0
12.99	17.0
13.005	11.0
13.02	23.0
13.035	18.0
13.05	15.0
13.065	15.0
13.08	17.0
13.094	19.0
13.109	12.0
13.124	18.0
13.139	14.0
13.154	11.0
13.169	30.0
13.184	15.0
13.199	28.0
13.214	9.0
13.229	21.0
13.244	21.0
13.259	14.0
13.274	22.0
13.288	18.0
13.303	13.0
13.318	21.0
13.333	23.0
13.348	22.0
13.363	24.0
13.378	29.0
13.393	30.0
13.408	27.0
13.423	25.0
13.438	35.0
13.453	37.0
13.468	23.0
13.482	29.0
13.497	34.0
13.512	35.0
13.527	49.0
13.542	37.0
13.557	66.0
13.572	56.0
13.587	41.0
13.602	69.0
13.617	42.0
13.632	51.0
13.647	73.0
13.662	77.0
13.677	77.0
13.691	90.0
13.706	90.0
13.721	82.0
13.736	107.0
13.751	97.0
13.766	109.0
13.781	122.0
13.796	124.0
13.811	116.0
13.826	132.0
13.841	138.0
13.856	116.0
13.871	120.0
13.885	106.0
13.9	98.0
13.915	79.0
13.93	77.0
13.945	68.0
13.96	56.0
13.975	33.0
13.99	36.0
14.005	27.0
14.02	29.0
14.035	25.0
14.05	21.0
14.065	37.0
14.08	23.0
14.094	37.0
14.109	32.0
14.124	16.0
14.139	16.0
14.154	18.0
14.169	16.0
14.184	17.0
14.199	23.0
14.214	20.0
14.229	23.0
14.244	20.0
14.259	17.0
14.274	13.0
14.288	18.0
14.303	17.0
14.318	23.0
14.333	18.0
14.348	20.0
14.363	11.0
14.378	17.0
14.393	16.0
14.408	14.0
14.423	21.0
14.438	13.0
14.453	16.0
14.468	18.0
14.482	20.0
14.497	20.0
14.512	12.0
14.527	15.0
14.542	18.0
14.557	21.0
14.572	13.0
14.587	21.0
14.602	18.0
14.617	15.0
14.632	9.0
14.647	18.0
14.661	23.0
14.676	15.0
14.691	20.0
14.706	16.0
14.721	11.0
14.736	13.0
14.751	16.0
14.766	21.0
14.781	9.0
14.796	16.0
14.811	20.0
14.826	26.0
14.84	14.0
14.855	25.0
14.87	14.0
14.885	19.0
14.9	13.0
14.915	11.0
14.93	12.0
14.945	6.0
14.96	17.0
14.975	13.0
14.989	18.0
15.004	12.0
15.019	14.0
15.034	14.0
15.049	10.0
15.064	18.0
15.079	18.0
15.094	13.0
15.109	17.0
15.124	16.0
15.138	15.0
15.153	17.0
15.168	17.0
15.183	14.0
15.198	11.0
15.213	17.0
15.228	15.0
15.243	12.0
15.258	16.0
15.272	20.0
15.287	14.0
15.302	24.0
15.317	18.0
15.332	14.0
15.347	6.0
15.362	14.0
15.377	15.0
15.391	7.0
15.406	11.0
15.421	6.0
15.436	14.0
15.451	19.0
15.466	15.0
15.481	12.0
15.496	11.0
15.51	11.0
15.525	17.0
15.54	13.0
15.555	21.0
15.57	14.0
15.585	8.0
15.6	10.0
15.614	22.0
15.629	14.0
15.644	16.0
15.659	17.0
15.674	22.0
15.689	9.0
15.704	18.0
15.718	11.0
15.733	13.0
15.748	11.0
15.763	13.0
15.778	12.0
15.793	8.0
15.808	25.0
15.822	16.0
15.837	16.0
15.852	17.0
15.867	20.0
15.882	22.0
15.897	7.0
15.911	13.0
15.926	5.0
15.941	13.0
15.956	13.0
15.971	13.0
15.986	22.0
16.0	17.0
16.015	15.0
16.03	16.0
16.045	16.0
16.06	9.0
16.074	20.0
16.089	14.0
16.104	9.0
16.119	12.0
16.134	20.0
16.149	21.0
16.163	21.0
16.178	13.0
16.193	19.0
16.208	20.0
16.223	13.0
16.237	20.0
16.252	19.0
16.267	9.0
16.282	15.0
16.297	12.0
16.311	18.0
16.326	16.0
16.341	9.0
16.356	7.0
16.37	13.0
16.385	19.0
16.4	18.0
16.415	11.0
16.43	17.0
16.444	9.0
16.459	14.0
16.474	13.0
16.489	13.0
16.504	18.0
16.518	6.0
16.533	14.0
16.548	19.0
16.563	23.0
16.577	21.0
16.592	11.0
16.607	20.0
16.622	22.0
16.637	14.0
16.651	17.0
16.666	24.0
16.681	19.0
16.696	20.0
16.71	28.0
16.725	27.0
16.74	30.0
16.755	28.0
16.77	36.0
16.784	46.0
16.799	31.0
16.814	33.0
16.829	36.0
16.843	43.0
16.858	62.0
16.873	43.0
16.888	57.0
16.902	68.0
16.917	64.0
16.932	85.0
16.947	78.0
16.961	85.0
16.976	66.0
16.991	78.0
17.006	55.0
17.021	56.0
17.035	61.0
17.05	48.0
17.065	50.0
17.08	44.0
17.094	32.0
17.109	26.0
17.124	26.0
17.139	22.0
17.153	26.0
17.168	21.0
17.183	23.0
17.198	18.0
17.212	10.0
17.227	16.0
17.242	16.0
17.257	22.0
17.271	15.0
17.286	18.0
17.301	19.0
17.316	14.0
17.33	16.0
17.345	23.0
17.36	14.0
17.375	13.0
17.39	12.0
17.404	15.0
17.419	14.0
17.434	11.0
17.449	13.0
17.463	13.0
17.478	10.0
17.493	18.0
17.508	15.0
17.522	16.0
17.537	14.0
17.552	16.0
17.567	12.0
17.581	14.0
17.596	14.0
17.611	14.0
17.626	11.0
17.641	10.0
17.655	16.0
17.67	13.0
17.685	17.0
17.7	14.0
17.714	10.0
17.729	11.0
17.744	13.0
17.759	13.0
17.773	14.0
17.788	19.0
17.803	8.0
17.818	15.0
17.833	13.0
17.847	6.0
17.862	9.0
17.877	14.0
17.892	12.0
17.906	8.0
17.921	15.0
17.936	19.0
17.951	10.0
17.966	9.0
17.98	9.0
17.995	14.0
18.01	9.0
18.025	10.0
18.04	8.0
18.054	10.0
18.069	13.0
18.084	12.0
18.099	13.0
18.114	16.0
18.128	17.0
18.143	6.0
18.158	12.0
18.173	17.0
18.188	12.0
18.202	15.0
18.217	9.0
18.232	11.0
18.247	18.0
18.262	10.0
18.276	11.0
18.291	11.0
18.306	11.0
18.321	7.0
18.336	15.0
18.35	15.0
18.365	15.0
18.38	15.0
18.395	11.0
18.41	14.0
18.424	11.0
18.439	13.0
18.454	13.0
18.469	8.0
18.484	12.0
18.498	16.0
18.513	13.0
18.528	16.0
18.543	15.0
18.558	10.0
18.573	14.0
18.587	13.0
18.602	11.0
18.617	18.0
18.632	8.0
18.647	10.0
18.661	11.0
18.676	8.0
18.691	25.0
18.706	10.0
18.721	7.0
18.736	10.0
18.75	8.0
18.765	15.0
18.78	10.0
18.795	15.0
18.81	8.0
18.825	17.0
18.839	23.0
18.854	11.0
18.869	12.0
18.884	15.0
18.899	13.0
18.913	7.0
18.928	8.0
18.943	13.0
18.958	9.0
18.973	13.0
18.988	14.0
19.002	9.0
19.017	13.0
19.032	8.0
19.047	15.0
19.062	9.0
19.077	8.0
19.091	12.0
19.106	15.0
19.121	17.0
19.136	8.0
19.151	17.0
19.165	13.0
19.18	12.0
19.195	15.0
19.21	9.0
19.225	13.0
19.24	11.0
19.254	16.0
19.269	12.0
19.284	14.0
19.299	12.0
19.314	14.0
19.329	13.0
19.343	20.0
19.358	16.0
19.373	22.0
19.388	18.0
19.403	15.0
19.417	24.0
19.432	21.0
19.447	24.0
19.462	27.0
19.477	29.0
19.492	23.0
19.506	27.0
19.521	33.0
19.536	35.0
19.551	47.0
19.566	34.0
19.58	49.0
19.595	31.0
19.61	43.0
19.625	37.0
19.64	38.0
19.655	36.0
19.669	34.0
19.684	37.0
19.699	37.0
19.714	22.0
19.729	27.0
19.743	28.0
19.758	24.0
19.773	17.0
19.788	17.0
19.803	27.0
19.817	13.0
19.832	12.0
19.847	17.0
19.862	17.0
19.877	11.0
19.891	13.0
19.906	14.0
19.921	13.0
19.936	7.0
19.951	14.0
19.965	20.0
19.98	21.0
19.995	8.0
20.01	14.0
20.025	13.0
20.039	14.0
20.054	8.0
20.069	8.0
20.084	9.0
20.099	12.0
20.113	10.0
20.128	5.0
20.143	12.0
20.158	12.0
20.173	13.0
20.187	16.0
20.202	12.0
20.217	12.0
20.232	20.0
20.246	17.0
20.261	9.0
20.276	6.0
20.291	12.0
20.306	15.0
20.32	12.0
20.335	10.0
20.35	19.0
20.365	13.0
20.38	21.0
20.394	14.0
20.409	9.0
20.424	13.0
20.439	14.0
20.453	19.0
20.468	7.0
20.483	11.0
20.498	8.0
20.513	12.0
20.527	7.0
20.542	10.0
20.557	13.0
20.572	15.0
20.586	12.0
20.601	8.0
20.616	13.0
20.631	10.0
20.646	17.0
20.66	8.0
20.675	9.0
20.69	14.0
20.705	10.0
20.719	12.0
20.734	13.0
20.749	11.0
20.764	9.0
20.779	7.0
20.793	14.0
20.808	20.0
20.823	12.0
20.838	12.0
20.853	9.0
20.867	16.0
20.882	5.0
20.897	18.0
20.912	15.0
20.926	12.0
20.941	11.0
20.956	13.0
20.971	11.0
20.986	11.0
21.0	10.0
21.015	10.0
21.03	14.0
21.045	10.0
21.06	12.0
21.074	14.0
21.089	12.0
21.104	14.0
21.119	11.0
21.134	15.0
21.148	11.0
21.163	11.0
21.178	11.0
21.193	9.0
21.208	15.0
21.222	17.0
21.237	22.0
21.252	10.0
21.267	8.0
21.282	3.0
21.296	10.0
21.311	13.0
21.326	11.0
21.341	10.0
21.356	16.0
21.37	17.0
21.385	8.0
21.4	11.0
21.415	16.0
21.43	15.0
21.444	12.0
21.459	12.0
21.474	11.0
21.489	13.0
21.504	12.0
21.519	8.0
21.533	14.0
21.548	11.0
21.563	12.0
21.578	12.0
21.593	11.0
21.608	17.0
21.622	14.0
21.637	12.0
21.652	15.0
21.667	17.0
21.682	16.0
21.697	18.0
21.712	23.0
21.726	21.0
21.741	22.0
21.756	19.0
21.771	31.0
21.786	30.0
21.801	36.0
21.816	47.0
21.83	34.0
21.845	47.0
21.86	58.0
21.875	75.0
21.89	67.0
21.905	69.0
21.92	89.0
21.935	71.0
21.949	84.0
21.964	78.0
21.979	74.0
21.994	89.0
22.009	91.0
22.024	62.0
22.039	55.0
22.054	57.0
22.069	48.0
22.083	52.0
22.098	51.0
22.113	41.0
22.128	38.0
22.143	29.0
22.158	22.0
22.173	11.0
22.188	21.0
22.203	24.0
22.218	16.0
22.233	20.0
22.248	19.0
22.262	16.0
22.277	8.0
22.292	16.0
22.307	19.0
22.322	14.0
22.337	15.0
22.352	10.0
22.367	11.0
22.382	15.0
22.397	10.0
22.412	11.0
22.427	5.0
22.442	10.0
22.457	10.0
22.472	16.0
22.487	6.0
22.502	11.0
22.516	12.0
22.531	19.0
22.546	13.0
22.561	8.0
22.576	15.0
22.591	14.0
22.606	16.0
22.621	12.0
22.636	11.0
22.651	16.0
22.666	10.0
22.681	20.0
22.696	8.0
22.711	11.0
22.726	16.0
22.741	6.0
22.756	7.0
22.771	6.0
22.786	13.0
22.801	11.0
22.816	14.0
22.831	13.0
22.846	12.0
22.861	5.0
22.876	10.0
22.891	13.0
22.906	11.0
22.92	13.0
22.935	12.0
22.95	15.0
22.965	9.0
22.98	13.0
22.995	9.0
23.01	7.0
23.025	12.0
23.04	13.0
23.055	17.0
23.07	7.0
23.085	10.0
23.1	7.0
23.115	12.0
23.13	11.0
23.145	10.0
23.16	11.0
23.175	9.0
23.19	12.0
23.205	12.0
23.22	12.0
23.235	5.0
23.25	10.0
23.265	7.0
23.28	9.0
23.295	11.0
23.31	10.0
23.325	10.0
23.34	12.0
23.355	10.0
23.37	12.0
23.384	11.0
23.399	10.0
23.414	10.0
23.429	13.0
23.444	14.0
23.459	7.0
23.474	10.0
23.489	8.0
23.504	4.0
23.519	12.0
23.534	11.0
23.549	9.0
23.564	9.0
23.579	10.0
23.594	12.0
23.609	9.0
23.624	5.0
23.639	10.0
23.654	17.0
23.668	9.0
23.683	14.0
23.698	15.0
23.713	6.0
23.728	9.0
23.743	19.0
23.758	11.0
23.773	15.0
23.788	11.0
23.803	9.0
23.818	13.0
23.833	11.0
23.848	16.0
23.862	19.0
23.877	18.0
23.892	19.0
23.907	28.0
23.922	26.0
23.937	25.0
23.952	31.0
23.967	33.0
23.982	22.0
23.997	43.0
24.011	40.0
24.026	46.0
24.041	46.0
24.056	52.0
24.071	52.0
24.086	47.0
24.101	40.0
24.116	47.0
24.131	42.0
24.145	43.0
24.16	36.0
24.175	42.0
24.19	39.0
24.205	29.0
24.22	29.0
24.235	32.0
24.249	33.0
24.264	27.0
24.279	28.0
24.294	27.0
24.309	28.0
24.324	17.0
24.338	21.0
24.353	19.0
24.368	14.0
24.383	11.0
24.398	18.0
24.413	15.0
24.428	10.0
24.442	9.0
24.457	5.0
24.472	14.0
24.487	7.0
24.502	14.0
24.516	10.0
24.531	10.0
24.546	9.0
24.561	7.0
24.576	10.0
24.591	13.0
24.605	9.0
24.62	8.0
24.635	11.0
24.65	12.0
24.665	11.0
24.679	10.0
24.694	8.0
24.709	10.0
24.724	18.0
24.739	10.0
24.753	8.0
24.768	7.0
24.783	12.0
24.798	14.0
24.813	6.0
24.827	7.0
24.842	10.0
24.857	6.0
24.872	15.0
24.886	10.0
24.901	14.0
24.916	11.0
24.931	9.0
24.946	13.0
24.96	14.0
24.975	9.0
24.99	12.0
25.005	9.0
25.019	12.0
25.034	11.0
25.049	8.0
25.064	6.0
25.078	5.0
25.093	8.0
25.108	13.0
25.123	10.0
25.138	10.0
25.152	9.0
25.167	11.0
25.182	7.0
25.197	3.0
25.211	11.0
25.226	7.0
25.241	7.0
25.256	14.0
25.27	18.0
25.285	10.0
25.3	7.0
25.315	8.0
25.329	10.0
25.344	11.0
25.359	8.0
25.374	16.0
25.388	8.0
25.403	6.0
25.418	12.0
25.433	13.0
25.447	6.0
25.462	7.0
25.477	15.0
25.492	11.0
25.506	12.0
25.521	10.0
25.536	8.0
25.55	10.0
25.565	11.0
25.58	12.0
25.595	9.0
25.609	11.0
25.624	18.0
25.639	9.0
25.654	8.0
25.668	13.0
25.683	7.0
25.698	8.0
25.713	9.0
25.727	10.0
25.742	9.0
25.757	8.0
25.772	10.0
25.786	14.0
25.801	7.0
25.816	16.0
25.83	12.0
25.845	11.0
25.86	7.0
25.875	15.0
25.889	7.0
25.904	11.0
25.919	5.0
25.934	12.0
25.948	9.0
25.963	10.0
25.978	4.0
25.992	15.0
26.007	8.0
26.022	9.0
26.037	12.0
26.051	8.0
26.066	8.0
26.081	11.0
26.096	14.0
26.11	8.0
26.125	8.0
26.14	9.0
26.155	12.0
26.169	11.0
26.184	11.0
26.199	10.0
26.213	15.0
26.228	12.0
26.243	11.0
26.258	12.0
26.272	13.0
26.287	10.0
26.302	9.0
26.317	8.0
26.331	14.0
26.346	6.0
26.361	16.0
26.376	7.0
26.39	9.0
26.405	11.0
26.42	14.0
26.434	10.0
26.449	16.0
26.464	12.0
26.479	9.0
26.493	10.0
26.508	11.0
26.523	10.0
26.538	10.0
26.552	11.0
26.567	11.0
26.582	6.0
26.597	4.0
26.611	9.0
26.626	14.0
26.641	10.0
26.656	8.0
26.67	7.0
26.685	14.0
26.7	8.0
26.715	12.0
26.729	11.0
26.744	15.0
26.759	6.0
26.773	9.0
26.788	16.0
26.803	9.0
26.818	7.0
26.832	15.0
26.847	8.0
26.862	11.0
26.877	12.0
26.891	8.0
26.906	12.0
26.921	14.0
26.936	6.0
26.95	9.0
26.965	6.0
26.98	12.0
26.995	8.0
27.01	11.0
27.024	7.0
27.039	8.0
27.054	12.0
27.069	7.0
27.083	10.0
27.098	7.0
27.113	11.0
27.128	9.0
27.142	17.0
27.157	8.0
27.172	12.0
27.187	10.0
27.201	13.0
27.216	13.0
27.231	8.0
27.246	17.0
27.261	8.0
27.275	8.0
27.29	11.0
27.305	11.0
27.32	10.0
27.334	7.0
27.349	8.0
27.364	6.0
27.379	13.0
27.394	15.0
27.408	13.0
27.423	5.0
27.438	9.0
27.453	12.0
27.467	12.0
27.482	10.0
27.497	6.0
27.512	11.0
27.527	17.0
27.541	11.0
27.556	10.0
27.571	16.0
27.586	5.0
27.601	12.0
27.615	3.0
27.63	14.0
27.645	12.0
27.66	16.0
27.675	20.0
27.689	18.0
27.704	16.0
27.719	10.0
27.734	12.0
27.749	17.0
27.763	18.0
27.778	22.0
27.793	15.0
27.808	11.0
27.823	10.0
27.838	20.0
27.852	23.0
27.867	27.0
27.882	25.0
27.897	20.0
27.912	24.0
27.926	23.0
27.941	26.0
27.956	17.0
27.971	16.0
27.986	26.0
28.001	20.0
28.015	20.0
28.03	21.0
28.045	11.0
28.06	15.0
28.075	17.0
28.09	13.0
28.105	15.0
28.119	18.0
28.134	14.0
28.149	23.0
28.164	7.0
28.179	13.0
28.194	10.0
28.208	12.0
28.223	11.0
28.238	6.0
28.253	5.0
28.268	12.0
28.283	7.0
28.298	12.0
28.312	11.0
28.327	6.0
28.342	10.0
28.357	13.0
28.372	11.0
28.387	10.0
28.402	9.0
28.417	16.0
28.431	9.0
28.446	9.0
28.461	14.0
28.476	11.0
28.491	14.0
28.506	12.0
28.521	9.0
28.536	13.0
28.55	14.0
28.565	11.0
28.58	11.0
28.595	13.0
28.61	9.0
28.625	9.0
28.64	9.0
28.655	13.0
28.669	10.0
28.684	11.0
28.699	9.0
28.714	15.0
28.729	9.0
28.744	14.0
28.759	11.0
28.774	9.0
28.788	5.0
28.803	14.0
28.818	15.0
28.833	6.0
28.848	8.0
28.863	15.0
28.878	8.0
28.893	12.0
28.908	20.0
28.922	9.0
28.937	8.0
28.952	11.0
28.967	19.0
28.982	11.0
28.997	7.0
29.012	12.0
29.027	7.0
29.041	7.0
29.056	6.0
29.071	11.0
29.086	11.0
29.101	6.0
29.116	11.0
29.131	9.0
29.146	6.0
29.16	9.0
29.175	12.0
29.19	7.0
29.205	27.0
29.22	14.0
29.235	11.0
29.25	10.0
29.265	9.0
29.279	10.0
29.294	12.0
29.309	14.0
29.324	16.0
29.339	13.0
29.354	13.0
29.369	15.0
29.384	16.0
29.398	7.0
29.413	17.0
29.428	23.0
29.443	23.0
29.458	14.0
29.473	20.0
29.488	30.0
29.502	34.0
29.517	38.0
29.532	34.0
29.547	38.0
29.562	45.0
29.577	43.0
29.592	38.0
29.606	44.0
29.621	50.0
29.636	58.0
29.651	47.0
29.666	45.0
29.681	34.0
29.695	44.0
29.71	41.0
29.725	34.0
29.74	41.0
29.755	31.0
29.77	29.0
29.784	36.0
29.799	26.0
29.814	32.0
29.829	19.0
29.844	26.0
29.859	23.0
29.873	11.0
29.888	20.0
29.903	21.0
29.918	10.0
29.933	11.0
29.947	12.0
29.962	12.0
29.977	18.0
29.992	14.0
30.007	17.0
30.021	16.0
30.036	9.0
30.051	6.0
30.066	14.0
30.081	12.0
30.095	8.0
30.11	10.0
30.125	14.0
30.14	10.0
30.155	15.0
30.169	13.0
30.184	11.0
30.199	9.0
30.214	6.0
30.228	14.0
30.243	16.0
30.258	13.0
30.273	14.0
30.288	16.0
30.302	18.0
30.317	13.0
30.332	11.0
30.347	17.0
30.361	12.0
30.376	4.0
30.391	20.0
30.406	12.0
30.42	15.0
30.435	6.0
30.45	15.0
30.465	5.0
30.479	10.0
30.494	14.0
30.509	14.0
30.524	16.0
30.538	14.0
30.553	12.0
30.568	15.0
30.583	13.0
30.597	17.0
30.612	12.0
30.627	7.0
30.641	13.0
30.656	14.0
30.671	14.0
30.686	6.0
30.7	5.0
30.715	7.0
30.73	10.0
30.745	11.0
30.759	15.0
30.774	10.0
30.789	9.0
30.803	14.0
30.818	12.0
30.833	13.0
30.848	14.0
30.862	17.0
30.877	13.0
30.892	8.0
30.906	14.0
30.921	7.0
30.936	13.0
30.951	16.0
30.965	10.0
30.98	14.0
30.995	6.0
31.009	11.0
31.024	13.0
31.039	13.0
31.053	11.0
31.068	10.0
31.083	12.0
31.098	21.0
31.112	22.0
31.127	17.0
31.142	19.0
31.156	27.0
31.171	32.0
31.186	35.0
31.2	32.0
31.215	30.0
31.23	43.0
31.245	46.0
31.259	39.0
31.274	35.0
31.289	41.0
31.303	37.0
31.318	32.0
31.333	35.0
31.347	31.0
31.362	29.0
31.377	29.0
31.392	28.0
31.406	20.0
31.421	26.0
31.436	35.0
31.45	26.0
31.465	23.0
31.48	23.0
31.494	31.0
31.509	16.0
31.524	8.0
31.538	13.0
31.553	18.0
31.568	17.0
31.583	13.0
31.597	16.0
31.612	12.0
31.627	8.0
31.641	13.0
31.656	19.0
31.671	12.0
31.685	15.0
31.7	11.0
31.715	6.0
31.729	10.0
31.744	14.0
31.759	7.0
31.774	10.0
31.788	15.0
31.803	11.0
31.818	8.0
31.832	4.0
31.847	7.0
31.862	10.0
31.876	12.0
31.891	13.0
31.906	6.0
31.92	14.0
31.935	6.0
31.95	7.0
31.965	4.0
31.979	11.0
31.994	9.0
32.009	13.0
32.023	11.0
32.038	10.0
32.053	12.0
32.067	6.0
32.082	11.0
32.097	9.0
32.112	11.0
32.126	14.0
32.141	11.0
32.156	8.0
32.17	14.0
32.185	5.0
32.2	11.0
32.214	9.0
32.229	12.0
32.244	11.0
32.259	16.0
32.273	9.0
32.288	10.0
32.303	4.0
32.317	13.0
32.332	5.0
32.347	7.0
32.362	18.0
32.376	19.0
32.391	13.0
32.406	9.0
32.42	14.0
32.435	9.0
32.45	10.0
32.465	6.0
32.479	6.0
32.494	9.0
32.509	7.0
32.523	14.0
32.538	8.0
32.553	9.0
32.568	14.0
32.582	7.0
32.597	6.0
32.612	17.0
32.627	9.0
32.641	7.0
32.656	9.0
32.671	12.0
32.685	11.0
32.7	17.0
32.715	16.0
32.73	11.0
32.744	17.0
32.759	20.0
32.774	26.0
32.788	30.0
32.803	30.0
32.818	26.0
32.833	31.0
32.847	25.0
32.862	19.0
32.877	20.0
32.892	29.0
32.906	14.0
32.921	14.0
32.936	16.0
32.951	23.0
32.965	11.0
32.98	25.0
32.995	15.0
33.009	16.0
33.024	16.0
33.039	13.0
33.054	18.0
33.068	21.0
33.083	22.0
33.098	13.0
33.113	13.0
33.127	13.0
33.142	16.0
33.157	10.0
33.172	14.0
33.186	5.0
33.201	10.0
33.216	10.0
33.231	13.0
33.245	19.0
33.26	14.0
33.275	15.0
33.29	10.0
33.304	12.0
33.319	12.0
33.334	14.0
33.349	7.0
33.363	11.0
33.378	13.0
33.393	9.0
33.408	11.0
33.422	8.0
33.437	11.0
33.452	8.0
33.467	8.0
33.481	16.0
33.496	10.0
33.511	17.0
33.526	6.0
33.54	6.0
33.555	17.0
33.57	10.0
33.585	5.0
33.599	7.0
33.614	7.0
33.629	12.0
33.644	8.0
33.658	8.0
33.673	12.0
33.688	4.0
33.703	14.0
33.718	9.0
33.732	5.0
33.747	12.0
33.762	8.0
33.777	11.0
33.791	8.0
33.806	8.0
33.821	8.0
33.836	11.0
33.85	6.0
33.865	8.0
33.88	16.0
33.895	6.0
33.91	12.0
33.924	12.0
33.939	8.0
33.954	16.0
33.969	10.0
33.983	10.0
33.998	11.0
34.013	10.0
34.028	11.0
34.042	8.0
34.057	10.0
34.072	9.0
34.087	9.0
34.102	14.0
34.116	15.0
34.131	13.0
34.146	14.0
34.161	7.0
34.175	11.0
34.19	16.0
34.205	14.0
34.22	8.0
34.235	14.0
34.249	19.0
34.264	12.0
34.279	16.0
34.294	11.0
34.309	11.0
34.323	20.0
34.338	8.0
34.353	12.0
34.368	11.0
34.382	13.0
34.397	11.0
34.412	8.0
34.427	9.0
34.442	10.0
34.456	10.0
34.471	13.0
34.486	11.0
34.501	13.0
34.516	10.0
34.53	12.0
34.545	13.0
34.56	14.0
34.575	8.0
34.59	13.0
34.604	15.0
34.619	11.0
34.634	12.0
34.649	10.0
34.664	10.0
34.678	12.0
34.693	13.0
34.708	10.0
34.723	6.0
34.738	13.0
34.752	7.0
34.767	10.0
34.782	9.0
34.797	11.0
34.812	10.0
34.826	3.0
34.841	14.0
34.856	9.0
34.871	11.0
34.886	4.0
34.9	6.0
34.915	5.0
34.93	10.0
34.945	10.0
34.96	12.0
34.974	6.0
34.989	10.0
35.004	14.0
35.019	5.0
35.034	10.0
35.048	5.0
35.063	9.0
35.078	5.0
35.093	8.0
35.108	10.0
35.122	8.0
35.137	8.0
35.152	6.0
35.167	6.0
35.182	9.0
35.196	11.0
35.211	7.0
35.226	12.0
35.241	8.0
35.256	8.0
35.27	8.0
35.285	13.0
35.3	7.0
35.315	9.0
35.33	10.0
35.344	6.0
35.359	8.0
35.374	13.0
35.389	11.0
35.404	12.0
35.418	6.0
35.433	10.0
35.448	9.0
35.463	8.0
35.478	11.0
35.493	14.0
35.507	8.0
35.522	7.0
35.537	7.0
35.552	13.0
35.567	8.0
35.581	12.0
35.596	9.0
35.611	9.0
35.626	10.0
35.641	12.0
35.655	22.0
35.67	10.0
35.685	19.0
35.7	18.0
35.715	18.0
35.729	17.0
35.744	27.0
35.759	21.0
35.774	17.0
35.789	20.0
35.804	21.0
35.818	19.0
35.833	14.0
35.848	17.0
35.863	13.0
35.878	13.0
35.892	14.0
35.907	13.0
35.922	20.0
35.937	13.0
35.952	11.0
35.966	12.0
35.981	17.0
35.996	15.0
36.011	19.0
36.026	8.0
36.04	15.0
36.055	10.0
36.07	13.0
36.085	12.0
36.1	10.0
36.114	7.0
36.129	8.0
36.144	11.0
36.159	12.0
36.174	6.0
36.189	8.0
36.203	6.0
36.218	7.0
36.233	4.0
36.248	9.0
36.263	14.0
36.277	4.0
36.292	11.0
36.307	8.0
36.322	11.0
36.337	4.0
36.351	11.0
36.366	8.0
36.381	11.0
36.396	5.0
36.411	9.0
36.426	10.0
36.44	6.0
36.455	5.0
36.47	11.0
36.485	4.0
36.5	9.0
36.514	10.0
36.529	3.0
36.544	9.0
36.559	8.0
36.574	11.0
36.589	8.0
36.603	10.0
36.618	14.0
36.633	4.0
36.648	2.0
36.663	10.0
36.677	6.0
36.692	6.0
36.707	4.0
36.722	5.0
36.737	10.0
36.752	12.0
36.766	6.0
36.781	5.0
36.796	8.0
36.811	10.0
36.826	7.0
36.841	9.0
36.855	11.0
36.87	7.0
36.885	15.0
36.9	7.0
36.915	11.0
36.93	12.0
36.944	9.0
36.959	11.0
36.974	9.0
36.989	14.0
37.004	16.0
37.019	10.0
37.033	15.0
37.048	15.0
37.063	13.0
37.078	16.0
37.093	28.0
37.108	19.0
37.123	15.0
37.137	30.0
37.152	28.0
37.167	24.0
37.182	29.0
37.197	26.0
37.212	20.0
37.226	23.0
37.241	22.0
37.256	14.0
37.271	23.0
37.286	17.0
37.301	27.0
37.316	16.0
37.331	14.0
37.345	23.0
37.36	23.0
37.375	16.0
37.39	22.0
37.405	16.0
37.42	15.0
37.435	19.0
37.45	19.0
37.464	15.0
37.479	15.0
37.494	10.0
37.509	13.0
37.524	8.0
37.539	6.0
37.554	11.0
37.569	8.0
37.583	5.0
37.598	6.0
37.613	12.0
37.628	8.0
37.643	6.0
37.658	3.0
37.673	6.0
37.688	6.0
37.703	5.0
37.718	4.0
37.733	12.0
37.747	8.0
37.762	4.0
37.777	4.0
37.792	11.0
37.807	6.0
37.822	10.0
37.837	6.0
37.852	6.0
37.867	7.0
37.882	4.0
37.897	8.0
37.912	6.0
37.927	3.0
37.941	7.0
37.956	8.0
37.971	10.0
37.986	5.0
38.001	16.0
38.016	8.0
38.031	5.0
38.046	12.0
38.061	5.0
38.076	7.0
38.091	5.0
38.106	5.0
38.121	3.0
38.136	8.0
38.151	9.0
38.166	7.0
38.181	7.0
38.196	12.0
38.211	5.0
38.226	5.0
38.241	3.0
38.256	7.0
38.271	4.0
38.285	7.0
38.3	2.0
38.315	10.0
38.33	6.0
38.345	6.0
38.36	9.0
38.375	6.0
38.39	13.0
38.405	5.0
38.42	6.0
38.435	4.0
38.45	3.0
38.465	2.0
38.48	11.0
38.495	5.0
38.51	5.0
38.525	3.0
38.54	11.0
38.555	4.0
38.57	6.0
38.585	7.0
38.6	5.0
38.615	6.0
38.63	4.0
38.645	9.0
38.66	8.0
38.675	8.0
38.69	9.0
38.705	4.0
38.72	9.0
38.735	9.0
38.75	6.0
38.765	4.0
38.78	3.0
38.795	9.0
38.81	3.0
38.825	5.0
38.84	4.0
38.855	5.0
38.87	3.0
38.885	3.0
38.9	9.0
38.915	7.0
38.93	7.0
38.945	6.0
38.96	7.0
38.975	5.0
38.99	11.0
39.005	4.0
39.02	6.0
39.035	8.0
39.05	4.0
39.065	6.0
39.08	5.0
39.095	7.0
39.11	6.0
39.125	5.0
39.14	8.0
39.155	6.0
39.17	7.0
39.185	7.0
39.2	8.0
39.215	7.0
39.23	7.0
39.245	7.0
39.26	9.0
39.275	4.0
39.29	7.0
39.305	6.0
39.32	5.0
39.335	7.0
39.35	7.0
39.365	10.0
39.38	4.0
39.395	4.0
39.409	8.0
39.424	3.0
39.439	2.0
39.454	4.0
39.469	4.0
39.484	2.0
39.499	8.0
39.514	4.0
39.529	10.0
39.544	6.0
39.559	7.0
39.574	5.0
39.589	2.0
39.604	8.0
39.619	3.0
39.634	3.0
39.649	6.0
39.664	11.0
39.678	5.0
39.693	9.0
39.708	4.0
39.723	6.0
39.738	6.0
39.753	6.0
39.768	10.0
39.783	8.0
39.798	6.0
39.813	12.0
39.827	7.0
39.842	8.0
39.857	5.0
39.872	6.0
39.887	10.0
39.902	12.0
39.917	7.0
39.932	7.0
39.947	8.0
39.961	4.0
39.976	7.0
39.991	4.0
40.006	7.0
40.021	16.0
40.036	3.0
40.051	7.0
40.065	7.0
40.08	6.0
40.095	8.0
40.11	8.0
40.125	7.0
40.14	8.0
40.154	6.0
40.169	2.0
40.184	7.0
40.199	1.0
40.214	4.0
40.228	1.0
40.243	5.0
40.258	6.0
40.273	9.0
40.288	9.0
40.302	5.0
40.317	6.0
40.332	2.0
40.347	10.0
40.362	6.0
40.376	7.0
40.391	5.0
40.406	7.0
40.421	6.0
40.436	8.0
40.45	8.0
40.465	7.0
40.48	2.0
40.495	2.0
40.509	6.0
40.524	4.0
40.539	5.0
40.554	6.0
40.568	7.0
40.583	5.0
40.598	8.0
40.613	2.0
40.627	7.0
40.642	2.0
40.657	8.0
40.672	5.0
40.686	4.0
40.701	4.0
40.716	9.0
40.731	5.0
40.745	3.0
40.76	1.0
40.775	2.0
40.79	12.0
40.804	11.0
40.819	7.0
40.834	7.0
40.849	7.0
40.863	4.0
40.878	6.0
40.893	14.0
40.907	8.0
40.922	10.0
40.937	6.0
40.952	6.0
40.966	6.0
40.981	13.0
40.996	12.0
41.011	9.0
41.025	11.0
41.04	15.0
41.055	13.0
41.069	16.0
41.084	24.0
41.099	23.0
41.114	25.0
41.128	13.0
41.143	18.0
41.158	16.0
41.173	32.0
41.187	16.0
41.202	11.0
41.217	10.0
41.231	14.0
41.246	16.0
41.261	14.0
41.276	16.0
41.29	11.0
41.305	10.0
41.32	12.0
41.335	12.0
41.349	9.0
41.364	19.0
41.379	9.0
41.393	12.0
41.408	12.0
41.423	16.0
41.438	16.0
41.452	7.0
41.467	11.0
41.482	6.0
41.497	11.0
41.511	13.0
41.526	9.0
41.541	5.0
41.556	8.0
41.57	7.0
41.585	7.0
41.6	4.0
41.615	2.0
41.629	9.0
41.644	6.0
41.659	6.0
41.674	3.0
41.688	6.0
41.703	5.0
41.718	7.0
41.733	3.0
41.747	10.0
41.762	4.0
41.777	3.0
41.792	9.0
41.806	7.0
41.821	5.0
41.836	8.0
41.851	10.0
41.866	8.0
41.88	4.0
41.895	4.0
41.91	9.0
41.925	7.0
41.939	3.0
41.954	2.0
41.969	5.0
41.984	6.0
41.999	6.0
42.013	5.0
42.028	5.0
42.043	5.0
42.058	6.0
42.073	6.0
42.088	7.0
42.102	4.0
42.117	4.0
42.132	6.0
42.147	4.0
42.162	6.0
42.176	4.0
42.191	9.0
42.206	8.0
42.221	8.0
42.236	7.0
42.251	11.0
42.266	7.0
42.28	12.0
42.295	13.0
42.31	16.0
42.325	12.0
42.34	12.0
42.355	18.0
42.369	15.0
42.384	17.0
42.399	15.0
42.414	21.0
42.429	8.0
42.444	18.0
42.459	8.0
42.474	8.0
42.488	10.0
42.503	14.0
42.518	13.0
42.533	9.0
42.548	5.0
42.563	13.0
42.578	10.0
42.593	7.0
42.608	14.0
42.622	12.0
42.637	11.0
42.652	13.0
42.667	11.0
42.682	10.0
42.697	10.0
42.712	16.0
42.727	11.0
42.742	7.0
42.757	11.0
42.772	6.0
42.786	5.0
42.801	9.0
42.816	5.0
42.831	5.0
42.846	7.0
42.861	5.0
42.876	3.0
42.891	7.0
42.906	6.0
42.921	5.0
42.936	9.0
42.951	7.0
42.966	7.0
42.981	8.0
42.996	6.0
43.011	5.0
43.025	5.0
43.04	7.0
43.055	3.0
43.07	5.0
43.085	4.0
43.1	4.0
43.115	3.0
43.13	10.0
43.145	4.0
43.16	6.0
43.175	5.0
43.19	4.0
43.205	6.0
43.22	8.0
43.235	4.0
43.25	1.0
43.265	4.0
43.28	4.0
43.295	5.0
43.31	2.0
43.325	2.0
43.34	5.0
43.355	5.0
43.37	3.0
43.385	8.0
43.4	13.0
43.415	2.0
43.43	6.0
43.445	2.0
43.46	10.0
43.475	10.0
43.49	12.0
43.505	5.0
43.52	4.0
43.535	9.0
43.55	8.0
43.565	6.0
43.58	10.0
43.595	8.0
43.61	4.0
43.625	6.0
43.64	11.0
43.655	9.0
43.67	13.0
43.685	6.0
43.7	4.0
43.715	12.0
43.73	7.0
43.745	4.0
43.76	4.0
43.775	12.0
43.79	9.0
43.805	11.0
43.82	4.0
43.835	6.0
43.85	7.0
43.865	3.0
43.88	17.0
43.895	6.0
43.91	11.0
43.925	7.0
43.94	4.0
43.955	6.0
43.97	5.0
43.985	6.0
44.0	8.0
44.015	6.0
44.03	10.0
44.045	10.0
44.061	4.0
44.076	7.0
44.091	6.0
44.106	5.0
44.121	9.0
44.136	5.0
44.151	13.0
44.166	4.0
44.181	5.0
44.196	3.0
44.211	10.0
44.226	6.0
44.241	4.0
44.256	6.0
44.271	13.0
44.286	5.0
44.301	3.0
44.316	2.0
44.331	3.0
44.346	6.0
44.361	10.0
44.377	2.0
44.392	5.0
44.407	1.0
44.422	5.0
44.437	10.0
44.452	3.0
44.467	2.0
44.482	11.0
44.497	6.0
44.512	9.0
44.527	10.0
44.542	4.0
44.557	3.0
44.572	8.0
44.587	4.0
44.602	6.0
44.617	5.0
44.632	7.0
44.647	8.0
44.663	3.0
44.678	10.0
44.693	13.0
44.708	3.0
44.723	8.0
44.738	9.0
44.753	16.0
44.768	9.0
44.783	7.0
44.798	8.0
44.813	20.0
44.828	11.0
44.843	12.0
44.858	9.0
44.873	16.0
44.888	6.0
44.903	5.0
44.918	8.0
44.933	10.0
44.948	3.0
44.964	3.0
44.979	7.0
44.994	7.0
45.009	9.0
45.024	7.0
45.039	10.0
45.054	5.0
45.069	7.0
45.084	5.0
45.099	9.0
45.114	11.0
45.129	9.0
45.144	6.0
45.159	5.0
45.174	10.0
45.189	9.0
45.204	6.0
45.219	7.0
45.234	7.0
45.249	4.0
45.264	6.0
45.279	7.0
45.294	10.0
45.309	8.0
45.324	9.0
45.339	2.0
45.354	8.0
45.369	5.0
45.384	5.0
45.399	8.0
45.414	6.0
45.429	7.0
45.444	5.0
45.459	2.0
45.474	8.0
45.489	3.0
45.504	2.0
45.519	7.0
45.534	7.0
45.549	5.0
45.564	4.0
45.579	4.0
45.594	5.0
45.609	6.0
45.624	5.0
45.639	4.0
45.654	1.0
45.669	5.0
45.684	6.0
45.699	7.0
45.714	6.0
45.729	9.0
45.744	4.0
45.759	5.0
45.774	5.0
45.789	5.0
45.804	10.0
45.819	4.0
45.834	11.0
45.849	6.0
45.864	14.0
45.879	6.0
45.894	12.0
45.909	18.0
45.924	18.0
45.939	13.0
45.954	13.0
45.969	9.0
45.984	22.0
45.998	15.0
46.013	19.0
46.028	15.0
46.043	17.0
46.058	13.0
46.073	8.0
46.088	17.0
46.103	11.0
46.118	9.0
46.133	4.0
46.148	9.0
46.163	7.0
46.178	6.0
46.192	9.0
46.207	9.0
46.222	9.0
46.237	13.0
46.252	6.0
46.267	7.0
46.282	15.0
46.297	14.0
46.312	12.0
46.327	12.0
46.341	9.0
46.356	10.0
46.371	3.0
46.386	6.0
46.401	7.0
46.416	10.0
46.431	4.0
46.446	2.0
46.46	3.0
46.475	3.0
46.49	2.0
46.505	9.0
46.52	10.0
46.535	7.0
46.55	4.0
46.564	5.0
46.579	5.0
46.594	7.0
46.609	3.0
46.624	8.0
46.639	5.0
46.654	6.0
46.668	5.0
46.683	6.0
46.698	3.0
46.713	4.0
46.728	5.0
46.743	4.0
46.758	1.0
46.772	8.0
46.787	6.0
46.802	9.0
46.817	3.0
46.832	4.0
46.847	3.0
46.861	7.0
46.876	5.0
46.891	5.0
46.906	2.0
46.921	11.0
46.936	1.0
46.95	5.0
46.965	2.0
46.98	7.0
46.995	8.0
47.01	6.0
47.025	6.0
47.039	6.0
47.054	6.0
47.069	8.0
47.084	6.0
47.099	10.0
47.113	11.0
47.128	7.0
47.143	10.0
47.158	10.0
47.173	6.0
47.188	4.0
47.202	8.0
47.217	3.0
47.232	6.0
47.247	2.0
47.262	5.0
47.277	4.0
47.291	7.0
47.306	3.0
47.321	4.0
47.336	6.0
47.351	7.0
47.365	9.0
47.38	9.0
47.395	10.0
47.41	8.0
47.425	5.0
47.44	5.0
47.454	11.0
47.469	5.0
47.484	3.0
47.499	5.0
47.514	2.0
47.528	4.0
47.543	5.0
47.558	6.0
47.573	6.0
47.588	5.0
47.603	6.0
47.617	4.0
47.632	3.0
47.647	5.0
47.662	3.0
47.677	4.0
47.691	5.0
47.706	4.0
47.721	5.0
47.736	4.0
47.751	2.0
47.766	4.0
47.78	2.0
47.795	3.0
47.81	7.0
47.825	7.0
47.84	5.0
47.855	5.0
47.869	8.0
47.884	5.0
47.899	2.0
47.914	5.0
47.929	7.0
47.944	6.0
47.958	9.0
47.973	6.0
47.988	3.0
48.003	4.0
48.018	1.0
48.033	5.0
48.047	3.0
48.062	6.0
48.077	5.0
48.092	8.0
48.107	5.0
48.122	5.0
48.137	6.0
48.151	9.0
48.166	6.0
48.181	2.0
48.196	6.0
48.211	4.0
48.226	9.0
48.241	6.0
48.255	8.0
48.27	4.0
48.285	3.0
48.3	6.0
48.315	6.0
48.33	4.0
48.345	3.0
48.359	4.0
48.374	2.0
48.389	0.0
48.404	5.0
48.419	8.0
48.434	4.0
48.449	9.0
48.464	4.0
48.478	4.0
48.493	1.0
48.508	7.0
48.523	4.0
48.538	3.0
48.553	7.0
48.568	4.0
48.583	6.0
48.597	4.0
48.612	10.0
48.627	8.0
48.642	3.0
48.657	5.0
48.672	3.0
48.687	2.0
48.702	5.0
48.717	4.0
48.731	2.0
48.746	3.0
48.761	4.0
48.776	4.0
48.791	4.0
48.806	5.0
48.821	7.0
48.836	6.0
48.851	8.0
48.866	2.0
48.88	2.0
48.895	5.0
48.91	9.0
48.925	2.0
48.94	6.0
48.955	4.0
48.97	6.0
48.985	3.0
49.0	4.0
49.015	5.0
49.03	7.0
49.044	2.0
49.059	3.0
49.074	6.0
49.089	2.0
49.104	5.0
49.119	6.0
49.134	7.0
49.149	5.0
49.164	5.0
49.179	8.0
49.194	3.0
49.209	5.0
49.224	7.0
49.238	6.0
49.253	5.0
49.268	5.0
49.283	3.0
49.298	6.0
49.313	3.0
49.328	12.0
49.343	4.0
49.358	12.0
49.373	4.0
49.388	5.0
49.403	5.0
49.418	11.0
49.433	7.0
49.448	5.0
49.463	7.0
49.478	7.0
49.492	10.0
49.507	2.0
49.522	3.0
49.537	4.0
49.552	3.0
49.567	5.0
49.582	6.0
49.597	7.0
49.612	1.0
49.627	8.0
49.642	9.0
49.657	7.0
49.672	6.0
49.687	4.0
49.702	3.0
49.717	3.0
49.732	9.0
49.747	11.0
49.762	1.0
49.777	3.0
49.792	3.0
49.807	4.0
49.822	4.0
49.837	5.0
49.852	4.0
49.867	6.0
49.882	4.0
49.897	5.0
49.912	11.0
49.927	3.0
49.942	8.0
49.957	8.0
49.971	5.0
49.986	6.0
50.001	7.0
50.016	6.0
50.031	2.0
50.046	5.0
50.061	2.0
50.076	3.0
50.091	5.0
50.106	1.0
50.121	4.0
50.136	6.0
50.151	6.0
50.166	4.0
50.181	7.0
50.196	3.0
50.211	6.0
50.226	8.0
50.241	3.0
50.256	4.0
50.271	5.0
50.286	7.0
50.302	7.0
50.317	10.0
50.332	7.0
50.347	9.0
50.362	7.0
50.377	4.0
50.392	7.0
50.407	3.0
50.422	7.0
50.437	6.0
50.452	8.0
50.467	9.0
50.482	11.0
50.497	4.0
50.512	9.0
50.527	6.0
50.542	2.0
50.557	4.0
50.572	5.0
50.587	4.0
50.602	9.0
50.617	6.0
50.632	4.0
50.647	10.0
50.662	6.0
50.677	7.0
50.692	2.0
50.707	9.0
50.722	5.0
50.737	6.0
50.752	7.0
50.767	7.0
50.782	4.0
50.797	9.0
50.812	5.0
50.828	4.0
50.843	3.0
50.858	4.0
50.873	5.0
50.888	5.0
50.903	5.0
50.918	4.0
50.933	7.0
50.948	6.0
50.963	4.0
50.978	3.0
50.993	4.0
51.008	4.0
51.023	5.0
51.038	5.0
51.053	5.0
51.068	2.0
51.083	3.0
51.098	4.0
51.114	7.0
51.129	3.0
51.144	4.0
51.159	7.0
51.174	6.0
51.189	8.0
51.204	4.0
51.219	9.0
51.234	2.0
51.249	6.0
51.264	4.0
51.279	3.0
51.294	6.0
51.309	6.0
51.324	4.0
51.34	3.0
51.355	9.0
51.37	6.0
51.385	6.0
51.4	11.0
51.415	10.0
51.43	11.0
51.445	12.0
51.46	12.0
51.475	12.0
51.49	8.0
51.505	9.0
51.52	16.0
51.535	13.0
51.551	18.0
51.566	20.0
51.581	10.0
51.596	15.0
51.611	12.0
51.626	12.0
51.641	9.0
51.656	8.0
51.671	8.0
51.686	9.0
51.701	9.0
51.716	6.0
51.732	7.0
51.747	4.0
51.762	12.0
51.777	9.0
51.792	11.0
51.807	13.0
51.822	12.0
51.837	8.0
51.852	10.0
51.867	18.0
51.882	13.0
51.898	15.0
51.913	5.0
51.928	3.0
51.943	11.0
51.958	6.0
51.973	7.0
51.988	5.0
52.003	3.0
52.018	3.0
52.033	6.0
52.048	5.0
52.064	4.0
52.079	6.0
52.094	5.0
52.109	0.0
52.124	7.0
52.139	6.0
52.154	3.0
52.169	5.0
52.184	4.0
52.199	4.0
52.215	5.0
52.23	3.0
52.245	3.0
52.26	7.0
52.275	5.0
52.29	5.0
52.305	4.0
52.32	1.0
52.335	1.0
52.35	9.0
52.366	2.0
52.381	1.0
52.396	6.0
52.411	4.0
52.426	7.0
52.441	4.0
52.456	2.0
52.471	13.0
52.486	10.0
52.502	8.0
52.517	7.0
52.532	12.0
52.547	9.0
52.562	9.0
52.577	6.0
52.592	6.0
52.607	9.0
52.622	13.0
52.637	7.0
52.653	7.0
52.668	6.0
52.683	4.0
52.698	3.0
52.713	4.0
52.728	11.0
52.743	8.0
52.758	7.0
52.774	6.0
52.789	3.0
52.804	4.0
52.819	6.0
52.834	6.0
52.849	7.0
52.864	11.0
52.879	5.0
52.894	6.0
52.91	10.0
52.925	10.0
52.94	7.0
52.955	6.0
52.97	7.0
52.985	5.0
53.0	9.0
53.015	8.0
53.031	4.0
53.046	1.0
53.061	5.0
53.076	6.0
53.091	11.0
53.106	7.0
53.121	6.0
53.136	7.0
53.152	4.0
53.167	8.0
53.182	8.0
53.197	6.0
53.212	1.0
53.227	4.0
53.242	11.0
53.257	4.0
53.273	2.0
53.288	9.0
53.303	3.0
53.318	3.0
53.333	7.0
53.348	4.0
53.363	3.0
53.379	4.0
53.394	3.0
53.409	5.0
53.424	1.0
53.439	9.0
53.454	8.0
53.469	4.0
53.484	4.0
53.5	2.0
53.515	7.0
53.53	3.0
53.545	4.0
53.56	7.0
53.575	6.0
53.59	2.0
53.606	6.0
53.621	5.0
53.636	4.0
53.651	6.0
53.666	6.0
53.681	2.0
53.696	1.0
53.712	6.0
53.727	6.0
53.742	6.0
53.757	6.0
53.772	12.0
53.787	2.0
53.802	7.0
53.818	7.0
53.833	4.0
53.848	6.0
53.863	4.0
53.878	2.0
53.893	2.0
53.909	10.0
53.924	2.0
53.939	5.0
53.954	4.0
53.969	2.0
53.984	7.0
53.999	9.0
54.015	8.0
54.03	4.0
54.045	3.0
54.06	6.0
54.075	7.0
54.09	5.0
54.106	3.0
54.121	6.0
54.136	6.0
54.151	3.0
54.166	3.0
54.181	2.0
54.197	4.0
54.212	6.0
54.227	4.0
54.242	4.0
54.257	6.0
54.272	4.0
54.288	2.0
54.303	8.0
54.318	8.0
54.333	5.0
54.348	4.0
54.363	5.0
54.379	5.0
54.394	5.0
54.409	4.0
54.424	4.0
54.439	4.0
54.454	7.0
54.47	8.0
54.485	7.0
54.5	8.0
54.515	8.0
54.53	8.0
54.545	10.0
54.561	9.0
54.576	4.0
54.591	9.0
54.606	6.0
54.621	4.0
54.636	12.0
54.652	10.0
54.667	11.0
54.682	9.0
54.697	8.0
54.712	5.0
54.727	13.0
54.743	7.0
54.758	5.0
54.773	10.0
54.788	4.0
54.803	4.0
54.819	5.0
54.834	5.0
54.849	1.0
54.864	5.0
54.879	7.0
54.894	8.0
54.91	6.0
54.925	5.0
54.94	5.0
54.955	3.0
54.97	7.0
54.985	10.0
55.001	11.0
55.016	8.0
55.031	7.0
55.046	5.0
55.061	17.0
55.077	4.0
55.092	4.0
55.107	2.0
55.122	8.0
55.137	7.0
55.152	3.0
55.168	5.0
55.183	4.0
55.198	1.0
55.213	8.0
55.228	4.0
55.243	5.0
55.259	3.0
55.274	4.0
55.289	4.0
55.304	7.0
55.319	3.0
55.335	4.0
55.35	0.0
55.365	1.0
55.38	4.0
55.395	3.0
55.41	5.0
55.426	7.0
55.441	5.0
55.456	2.0
55.471	8.0
55.486	6.0
55.501	7.0
55.517	8.0
55.532	3.0
55.547	9.0
55.562	5.0
55.577	3.0
55.592	6.0
55.608	10.0
55.623	4.0
55.638	4.0
55.653	12.0
55.668	12.0
55.683	5.0
55.699	3.0
55.714	4.0
55.729	2.0
55.744	6.0
55.759	4.0
55.774	4.0
55.79	6.0
55.805	3.0
55.82	3.0
55.835	6.0
55.85	4.0
55.865	4.0
55.881	5.0
55.896	4.0
55.911	5.0
55.926	5.0
55.941	4.0
55.956	5.0
55.972	5.0
55.987	7.0
56.002	8.0
56.017	11.0
56.032	6.0
56.047	8.0
56.063	7.0
56.078	8.0
56.093	2.0
56.108	4.0
56.123	7.0
56.138	7.0
56.154	3.0
56.169	4.0
56.184	8.0
56.199	4.0
56.214	3.0
56.229	8.0
56.244	4.0
56.26	5.0
56.275	5.0
56.29	2.0
56.305	4.0
56.32	6.0
56.335	7.0
56.351	4.0
56.366	2.0
56.381	5.0
56.396	7.0
56.411	1.0
56.426	5.0
56.441	5.0
56.457	8.0
56.472	2.0
56.487	6.0
56.502	6.0
56.517	8.0
56.532	2.0
56.547	6.0
56.563	1.0
56.578	5.0
56.593	5.0
56.608	3.0
56.623	6.0
56.638	4.0
56.653	4.0
56.668	4.0
56.684	5.0
56.699	3.0
56.714	3.0
56.729	8.0
56.744	7.0
56.759	9.0
56.774	1.0
56.79	8.0
56.805	5.0
56.82	3.0
56.835	10.0
56.85	6.0
56.865	3.0
56.88	3.0
56.895	5.0
56.911	5.0
56.926	3.0
56.941	7.0
56.956	2.0
56.971	3.0
56.986	3.0
57.001	3.0
57.016	1.0
57.031	5.0
57.047	5.0
57.062	3.0
57.077	5.0
57.092	2.0
57.107	2.0
57.122	5.0
57.137	3.0
57.152	1.0
57.167	5.0
57.183	6.0
57.198	7.0
57.213	3.0
57.228	3.0
57.243	3.0
57.258	2.0
57.273	8.0
57.288	8.0
57.303	5.0
57.318	3.0
57.334	4.0
57.349	4.0
57.364	4.0
57.379	5.0
57.394	4.0
57.409	4.0
57.424	3.0
57.439	3.0
57.454	4.0
57.469	2.0
57.484	2.0
57.5	5.0
57.515	3.0
57.53	1.0
57.545	4.0
57.56	4.0
57.575	4.0
57.59	5.0
57.605	7.0
57.62	5.0
57.635	1.0
57.65	5.0
57.665	6.0
57.68	4.0
57.696	5.0
57.711	6.0
57.726	8.0
57.741	7.0
57.756	3.0
57.771	8.0
57.786	5.0
57.801	5.0
57.816	10.0
57.831	5.0
57.846	4.0
57.861	7.0
57.876	5.0
57.891	4.0
57.906	3.0
57.921	6.0
57.937	6.0
57.952	0.0
57.967	6.0
57.982	4.0
57.997	6.0
58.012	3.0
58.027	6.0
58.042	3.0
58.057	6.0
58.072	6.0
58.087	6.0
58.102	3.0
58.117	6.0
58.132	3.0
58.147	3.0
58.162	5.0
58.177	1.0
58.192	6.0
58.207	2.0
58.222	4.0
58.237	4.0
58.252	3.0
58.267	5.0
58.282	3.0
58.297	2.0
58.312	5.0
58.327	5.0
58.342	6.0
58.357	5.0
58.372	3.0
58.387	2.0
58.402	4.0
58.418	3.0
58.433	2.0
58.448	2.0
58.463	4.0
58.478	2.0
58.493	11.0
58.508	3.0
58.523	8.0
58.538	5.0
58.553	4.0
58.568	4.0
58.583	9.0
58.598	9.0
58.613	5.0
58.628	8.0
58.643	11.0
58.658	9.0
58.673	9.0
58.688	12.0
58.703	5.0
58.718	9.0
58.733	1.0
58.748	8.0
58.763	2.0
58.778	3.0
58.793	5.0
58.808	7.0
58.823	5.0
58.838	2.0
58.853	7.0
58.868	3.0
58.883	3.0
58.898	3.0
58.913	9.0
58.928	8.0
58.942	3.0
58.957	3.0
58.972	8.0
58.987	8.0
59.002	4.0
59.017	4.0
59.032	5.0
59.047	4.0
59.062	7.0
59.077	3.0
59.092	3.0
59.107	6.0
59.122	7.0
59.137	8.0
59.152	5.0
59.167	3.0
59.182	2.0
59.197	5.0
59.212	8.0
59.227	5.0
59.242	4.0
59.257	2.0
59.272	1.0
59.287	6.0
59.302	2.0
59.317	1.0
59.332	2.0
59.347	1.0
59.362	3.0
59.377	11.0
59.392	1.0
59.407	6.0
59.422	3.0
59.437	4.0
59.452	5.0
59.467	4.0
59.482	4.0
59.497	7.0
59.512	10.0
59.527	4.0
59.542	3.0
59.557	12.0
59.572	8.0
59.587	10.0
59.602	7.0
59.617	10.0
59.632	5.0
59.647	10.0
59.661	7.0
59.676	13.0
59.691	8.0
59.706	5.0
59.721	7.0
59.736	6.0
59.751	4.0
59.766	6.0
59.781	4.0
59.796	1.0
59.811	3.0
59.826	2.0
59.841	4.0
59.856	7.0
59.871	5.0
59.886	6.0
59.901	9.0
59.916	3.0
59.931	4.0
59.946	8.0
59.961	3.0
59.976	14.0
59.991	7.0
60.006	4.0
60.021	3.0
60.036	8.0
60.051	6.0
60.066	11.0
60.081	7.0
60.096	7.0
60.111	3.0
60.126	4.0
60.141	3.0
60.156	3.0
60.171	3.0
60.186	0.0
60.201	6.0
60.216	2.0
60.231	7.0
60.246	6.0
60.261	5.0
60.276	6.0
60.291	4.0
60.306	4.0
60.321	7.0
60.336	2.0
60.35	5.0
60.365	4.0
60.38	4.0
60.395	2.0
60.41	7.0
60.425	3.0
60.44	3.0
60.455	6.0
60.47	4.0
60.485	5.0
60.5	4.0
60.515	8.0
60.53	10.0
60.545	7.0
60.56	7.0
60.575	8.0
60.59	9.0
60.605	9.0
60.62	9.0
60.635	5.0
60.65	8.0
60.665	7.0
60.68	5.0
60.695	2.0
60.71	7.0
60.725	4.0
60.74	3.0
60.755	4.0
60.77	3.0
60.785	0.0
60.8	4.0
60.815	3.0
60.83	5.0
60.845	1.0
60.86	6.0
60.875	9.0
60.89	5.0
60.905	4.0
60.92	3.0
60.935	6.0
60.95	2.0
60.965	7.0
60.98	5.0
60.995	6.0
61.01	7.0
61.025	5.0
61.04	2.0
61.055	5.0
61.07	5.0
61.085	1.0
61.1	5.0
61.115	1.0
61.13	9.0
61.145	3.0
61.16	1.0
61.175	5.0
61.191	7.0
61.206	6.0
61.221	2.0
61.236	1.0
61.251	6.0
61.266	2.0
61.281	3.0
61.296	3.0
61.311	7.0
61.326	2.0
61.341	4.0
61.356	6.0
61.371	5.0
61.386	6.0
61.401	3.0
61.416	7.0
61.431	5.0
61.446	4.0
61.461	5.0
61.476	3.0
61.491	11.0
61.506	7.0
61.521	3.0
61.536	9.0
61.551	8.0
61.566	4.0
61.581	5.0
61.596	7.0
61.611	5.0
61.626	8.0
61.641	7.0
61.656	4.0
61.672	3.0
61.687	4.0
61.702	6.0
61.717	7.0
61.732	6.0
61.747	5.0
61.762	4.0
61.777	2.0
61.792	3.0
61.807	3.0
61.822	9.0
61.837	1.0
61.852	4.0
61.867	4.0
61.882	5.0
61.897	5.0
61.912	10.0
61.927	2.0
61.943	3.0
61.958	4.0
61.973	3.0
61.988	8.0
62.003	4.0
62.018	7.0
62.033	2.0
62.048	5.0
62.063	4.0
62.078	3.0
62.093	3.0
62.108	8.0
62.123	2.0
62.138	1.0
62.153	6.0
62.169	7.0
62.184	3.0
62.199	4.0
62.214	6.0
62.229	2.0
62.244	3.0
62.259	11.0
62.274	7.0
62.289	4.0
62.304	2.0
62.319	3.0
62.335	2.0
62.35	2.0
62.365	4.0
62.38	7.0
62.395	6.0
62.41	2.0
62.425	6.0
62.44	4.0
62.455	3.0
62.47	5.0
62.485	5.0
62.501	7.0
62.516	6.0
62.531	10.0
62.546	5.0
62.561	3.0
62.576	3.0
62.591	3.0
62.606	4.0
62.621	5.0
62.636	5.0
62.652	4.0
62.667	1.0
62.682	2.0
62.697	4.0
62.712	3.0
62.727	3.0
62.742	5.0
62.757	5.0
62.772	3.0
62.787	8.0
62.803	9.0
62.818	4.0
62.833	3.0
62.848	5.0
62.863	5.0
62.878	6.0
62.893	5.0
62.908	7.0
62.923	1.0
62.939	3.0
62.954	0.0
62.969	4.0
62.984	5.0
62.999	4.0
63.014	4.0
63.029	1.0
63.044	5.0
63.059	6.0
63.074	4.0
63.09	1.0
63.105	1.0
63.12	4.0
63.135	4.0
63.15	6.0
63.165	8.0
63.18	2.0
63.195	5.0
63.21	5.0
63.226	4.0
63.241	1.0
63.256	4.0
63.271	1.0
63.286	3.0
63.301	2.0
63.316	2.0
63.331	9.0
63.346	6.0
63.362	6.0
63.377	4.0
63.392	8.0
63.407	4.0
63.422	12.0
63.437	6.0
63.452	6.0
63.467	10.0
63.482	5.0
63.497	3.0
63.513	8.0
63.528	4.0
63.543	3.0
63.558	6.0
63.573	4.0
63.588	3.0
63.603	6.0
63.618	5.0
63.633	1.0
63.648	2.0
63.664	4.0
63.679	5.0
63.694	2.0
63.709	7.0
63.724	6.0
63.739	6.0
63.754	7.0
63.769	6.0
63.784	4.0
63.799	3.0
63.814	5.0
63.83	5.0
63.845	1.0
63.86	1.0
63.875	4.0
63.89	7.0
63.905	9.0
63.92	5.0
63.935	5.0
63.95	5.0
63.965	2.0
63.98	0.0
63.996	6.0
64.011	3.0
64.026	2.0
64.041	6.0
64.056	1.0
64.071	6.0
64.086	7.0
64.101	4.0
64.116	4.0
64.131	5.0
64.146	4.0
64.161	2.0
64.176	4.0
64.191	4.0
64.207	1.0
64.222	5.0
64.237	1.0
64.252	7.0
64.267	3.0
64.282	3.0
64.297	4.0
64.312	4.0
64.327	3.0
64.342	2.0
64.357	2.0
64.372	10.0
64.387	3.0
64.402	8.0
64.417	7.0
64.433	3.0
64.448	3.0
64.463	3.0
64.478	4.0
64.493	4.0
64.508	5.0
64.523	2.0
64.538	2.0
64.553	1.0
64.568	2.0
64.583	5.0
64.598	7.0
64.613	3.0
64.628	2.0
64.643	5.0
64.658	6.0
64.673	6.0
64.688	0.0
64.703	3.0
64.718	2.0
64.734	2.0
64.749	5.0
64.764	3.0
64.779	4.0
64.794	1.0
64.809	7.0
64.824	5.0
64.839	3.0
64.854	4.0
64.869	2.0
64.884	3.0
64.899	3.0
64.914	8.0
64.929	2.0
64.944	7.0
64.959	5.0
64.974	1.0
64.989	5.0
65.004	4.0
65.019	3.0
65.034	4.0
65.049	9.0
65.064	4.0
65.079	3.0
65.094	3.0
65.109	2.0
65.125	6.0
65.14	3.0
65.155	3.0
65.17	6.0
65.185	3.0
65.2	2.0
65.215	4.0
65.23	4.0
65.245	5.0
65.26	2.0
65.275	10.0
65.29	4.0
65.305	9.0
65.32	3.0
65.335	5.0
65.35	6.0
65.365	3.0
65.38	5.0
65.395	5.0
65.41	5.0
65.425	3.0
65.44	3.0
65.455	6.0
65.47	7.0
65.485	3.0
65.5	5.0
65.515	2.0
65.53	1.0
65.545	2.0
65.56	4.0
65.575	6.0
65.59	2.0
65.605	4.0
65.62	2.0
65.635	4.0
65.65	5.0
65.666	6.0
65.681	6.0
65.696	4.0
65.711	5.0
65.726	7.0
65.741	3.0
65.756	7.0
65.771	3.0
65.786	5.0
65.801	3.0
65.816	5.0
65.831	2.0
65.846	2.0
65.861	4.0
65.876	1.0
65.891	4.0
65.906	3.0
65.921	9.0
65.936	2.0
65.951	5.0
65.966	3.0
65.981	5.0
65.996	4.0
66.011	3.0
66.026	2.0
66.041	6.0
66.056	4.0
66.071	7.0
66.086	6.0
66.101	7.0
66.116	5.0
66.131	0.0
66.146	10.0
66.161	6.0
66.176	9.0
66.191	8.0
66.206	1.0
66.221	6.0
66.236	7.0
66.251	5.0
66.266	7.0
66.281	7.0
66.296	2.0
66.311	7.0
66.327	2.0
66.342	3.0
66.357	5.0
66.372	6.0
66.387	3.0
66.402	4.0
66.417	2.0
66.432	2.0
66.447	7.0
66.462	7.0
66.477	1.0
66.492	6.0
66.507	3.0
66.522	3.0
66.537	4.0
66.552	5.0
66.567	4.0
66.582	4.0
66.597	3.0
66.612	5.0
66.627	1.0
66.642	10.0
66.657	6.0
66.672	4.0
66.687	8.0
66.702	11.0
66.717	6.0
66.732	6.0
66.747	3.0
66.762	5.0
66.777	3.0
66.792	6.0
66.807	3.0
66.822	6.0
66.837	0.0
66.853	1.0
66.868	4.0
66.883	3.0
66.898	7.0
66.913	1.0
66.928	0.0
66.943	6.0
66.958	1.0
66.973	5.0
66.988	4.0
67.003	4.0
67.018	4.0
67.033	4.0
67.048	4.0
67.063	1.0
67.078	4.0
67.093	4.0
67.108	5.0
67.123	8.0
67.138	2.0
67.153	7.0
67.168	6.0
67.183	3.0
67.198	6.0
67.214	1.0
67.229	4.0
67.244	4.0
67.259	5.0
67.274	4.0
67.289	4.0
67.304	5.0
67.319	1.0
67.334	2.0
67.349	6.0
67.364	6.0
67.379	5.0
67.394	2.0
67.409	2.0
67.424	3.0
67.439	6.0
67.454	6.0
67.469	7.0
67.484	4.0
67.5	5.0
67.515	5.0
67.53	7.0
67.545	4.0
67.56	6.0
67.575	5.0
67.59	4.0
67.605	5.0
67.62	3.0
67.635	6.0
67.65	5.0
67.665	1.0
67.68	7.0
67.695	5.0
67.71	4.0
67.726	1.0
67.741	7.0
67.756	4.0
67.771	3.0
67.786	4.0
67.801	1.0
67.816	4.0
67.831	2.0
67.846	2.0
67.861	6.0
67.876	4.0
67.891	6.0
67.906	6.0
67.922	5.0
67.937	3.0
67.952	3.0
67.967	4.0
67.982	1.0
67.997	5.0
68.012	1.0
68.027	5.0
68.042	3.0
68.057	4.0
68.072	4.0
68.087	7.0
68.103	3.0
68.118	5.0
68.133	3.0
68.148	2.0
68.163	3.0
68.178	3.0
68.193	6.0
68.208	3.0
68.223	1.0
68.238	3.0
68.254	1.0
68.269	1.0
68.284	3.0
68.299	2.0
68.314	4.0
68.329	4.0
68.344	6.0
68.359	4.0
68.374	2.0
68.389	8.0
68.405	3.0
68.42	2.0
68.435	6.0
68.45	9.0
68.465	4.0
68.48	6.0
68.495	4.0
68.51	4.0
68.525	4.0
68.54	1.0
68.556	3.0
68.571	1.0
68.586	4.0
68.601	4.0
68.616	0.0
68.631	2.0
68.646	3.0
68.661	5.0
68.676	2.0
68.691	3.0
68.707	5.0
68.722	4.0
68.737	7.0
68.752	2.0
68.767	2.0
68.782	3.0
68.797	2.0
68.812	2.0
68.827	5.0
68.842	1.0
68.857	3.0
68.873	6.0
68.888	6.0
68.903	4.0
68.918	5.0
68.933	3.0
68.948	5.0
68.963	6.0
68.978	7.0
68.993	2.0
69.008	2.0
69.023	3.0
69.038	5.0
69.054	2.0
69.069	1.0
69.084	6.0
69.099	2.0
69.114	6.0
69.129	3.0
69.144	2.0
69.159	3.0
69.174	5.0
69.189	5.0
69.204	5.0
69.219	4.0
69.234	0.0
69.249	4.0
69.264	1.0
69.279	3.0
69.295	6.0
69.31	4.0
69.325	3.0
69.34	5.0
69.355	3.0
69.37	1.0
69.385	3.0
69.4	2.0
69.415	2.0
69.43	3.0
69.445	4.0
69.46	4.0
69.475	4.0
69.49	1.0
69.505	3.0
69.52	2.0
69.535	4.0
69.55	6.0
69.565	3.0
69.58	4.0
69.595	7.0
69.61	2.0
69.625	5.0
69.64	4.0
69.655	4.0
69.67	7.0
69.685	4.0
69.7	4.0
69.715	2.0
69.73	6.0
69.745	9.0
69.76	8.0
69.775	7.0
69.79	12.0
69.805	4.0
69.82	9.0
69.835	2.0
69.85	10.0
69.865	4.0
69.88	5.0
69.895	5.0
69.909	3.0
69.924	4.0
69.939	2.0
69.954	3.0
69.969	4.0
69.984	7.0
69.999	5.0
70.014	4.0
70.029	5.0
70.044	3.0
70.059	0.0
70.074	6.0
70.088	8.0
70.103	3.0
70.118	8.0
70.133	4.0
70.148	4.0
70.163	1.0
70.178	1.0
70.193	5.0
70.208	1.0
70.222	4.0
70.237	0.0
70.252	10.0
70.267	3.0
70.282	3.0
70.297	10.0
70.312	6.0
70.327	6.0
70.341	9.0
70.356	4.0
70.371	8.0
70.386	5.0
70.401	7.0
70.416	3.0
70.43	3.0
70.445	4.0
70.46	4.0
70.475	4.0
70.49	4.0
70.505	6.0
70.519	4.0
70.534	6.0
70.549	7.0
70.564	7.0
70.579	4.0
70.594	8.0
70.608	4.0
70.623	3.0
70.638	1.0
70.653	4.0
70.668	6.0
70.683	6.0
70.697	2.0
70.712	4.0
70.727	6.0
70.742	8.0
70.757	1.0
70.771	7.0
70.786	2.0
70.801	2.0
70.816	7.0
70.831	1.0
70.845	3.0
70.86	2.0
70.875	4.0
70.89	0.0
70.905	4.0
70.92	6.0
70.934	2.0
70.949	2.0
70.964	3.0
70.979	4.0
70.994	6.0
71.008	5.0
71.023	3.0
71.038	7.0
71.053	2.0
71.068	6.0
71.082	3.0
71.097	5.0
71.112	4.0
71.127	5.0
71.142	2.0
71.156	4.0
71.171	1.0
71.186	2.0
71.201	5.0
71.216	12.0
71.231	1.0
71.245	5.0
71.26	7.0
71.275	4.0
71.29	3.0
71.305	2.0
71.319	2.0
71.334	5.0
71.349	4.0
71.364	4.0
71.379	1.0
71.394	3.0
71.408	4.0
71.423	4.0
71.438	3.0
71.453	2.0
71.468	1.0
71.483	6.0
71.497	3.0
71.512	6.0
71.527	2.0
71.542	2.0
71.557	6.0
71.572	2.0
71.586	1.0
71.601	5.0
71.616	2.0
71.631	7.0
71.646	2.0
71.661	3.0
71.676	3.0
71.69	6.0
71.705	6.0
71.72	2.0
71.735	3.0
71.75	5.0
71.765	3.0
71.78	3.0
71.795	4.0
71.81	4.0
71.824	4.0
71.839	3.0
71.854	1.0
71.869	7.0
71.884	6.0
71.899	2.0
71.914	4.0
71.929	0.0
71.944	3.0
71.959	2.0
71.974	1.0
71.988	3.0
72.003	0.0
72.018	3.0
72.033	1.0
72.048	6.0
72.063	6.0
72.078	2.0
72.093	4.0
72.108	3.0
72.123	3.0
72.138	2.0
72.153	1.0
72.168	3.0
72.183	3.0
72.198	6.0
72.213	1.0
72.228	4.0
72.243	4.0
72.258	6.0
72.273	4.0
72.288	0.0
72.303	2.0
72.318	2.0
72.333	2.0
72.348	6.0
72.363	5.0
72.378	0.0
72.393	2.0
72.408	2.0
72.423	5.0
72.438	2.0
72.453	1.0
72.468	7.0
72.483	2.0
72.498	5.0
72.513	3.0
72.528	4.0
72.543	1.0
72.558	1.0
72.573	6.0
72.588	1.0
72.603	3.0
72.618	5.0
72.633	3.0
72.649	4.0
72.664	7.0
72.679	7.0
72.694	2.0
72.709	4.0
72.724	4.0
72.739	1.0
72.754	5.0
72.769	3.0
72.784	0.0
72.799	3.0
72.814	4.0
72.829	3.0
72.845	4.0
72.86	3.0
72.875	2.0
72.89	2.0
72.905	1.0
72.92	0.0
72.935	6.0
72.95	4.0
72.965	3.0
72.98	3.0
72.996	4.0
73.011	6.0
73.026	2.0
73.041	4.0
73.056	0.0
73.071	4.0
73.086	2.0
73.101	5.0
73.117	3.0
73.132	1.0
73.147	3.0
73.162	5.0
73.177	0.0
73.192	3.0
73.207	1.0
73.222	6.0
73.238	3.0
73.253	6.0
73.268	6.0
73.283	6.0
73.298	4.0
73.313	3.0
73.328	6.0
73.343	5.0
73.359	1.0
73.374	9.0
73.389	7.0
73.404	3.0
73.419	2.0
73.434	5.0
73.449	4.0
73.465	9.0
73.48	2.0
73.495	2.0
73.51	2.0
73.525	6.0
73.54	7.0
73.556	6.0
73.571	3.0
73.586	3.0
73.601	4.0
73.616	3.0
73.631	1.0
73.646	4.0
73.662	5.0
73.677	4.0
73.692	6.0
73.707	7.0
73.722	2.0
73.737	5.0
73.752	6.0
73.768	3.0
73.783	4.0
73.798	2.0
73.813	4.0
73.828	3.0
73.843	3.0
73.859	2.0
73.874	0.0
73.889	6.0
73.904	3.0
73.919	1.0
73.934	6.0
73.949	4.0
73.965	3.0
73.98	4.0
73.995	4.0
74.01	5.0
74.025	6.0
74.04	4.0
74.056	3.0
74.071	4.0
74.086	3.0
74.101	6.0
74.116	2.0
74.131	6.0
74.146	3.0
74.162	8.0
74.177	8.0
74.192	4.0
74.207	6.0
74.222	10.0
74.237	8.0
74.252	4.0
74.268	4.0
74.283	3.0
74.298	3.0
74.313	6.0
74.328	2.0
74.343	3.0
74.358	3.0
74.374	6.0
74.389	4.0
74.404	3.0
74.419	4.0
74.434	5.0
74.449	6.0
74.464	4.0
74.48	7.0
74.495	6.0
74.51	2.0
74.525	5.0
74.54	6.0
74.555	1.0
74.57	1.0
74.586	5.0
74.601	4.0
74.616	7.0
74.631	7.0
74.646	10.0
74.661	6.0
74.676	5.0
74.691	7.0
74.707	8.0
74.722	3.0
74.737	9.0
74.752	3.0
74.767	3.0
74.782	4.0
74.797	7.0
74.813	1.0
74.828	1.0
74.843	0.0
74.858	4.0
74.873	5.0
74.888	1.0
74.903	5.0
74.918	1.0
74.934	3.0
74.949	6.0
74.964	5.0
74.979	6.0
74.994	4.0
75.009	7.0
75.024	5.0
75.04	0.0
75.055	6.0
75.07	4.0
75.085	3.0
75.1	4.0
75.115	1.0
75.13	4.0
75.145	2.0
75.161	7.0
75.176	1.0
75.191	2.0
75.206	2.0
75.221	4.0
75.236	2.0
75.251	3.0
75.266	2.0
75.282	5.0
75.297	2.0
75.312	2.0
75.327	4.0
75.342	4.0
75.357	5.0
75.372	3.0
75.387	2.0
75.403	9.0
75.418	4.0
75.433	5.0
75.448	3.0
75.463	5.0
75.478	2.0
75.493	2.0
75.509	4.0
75.524	2.0
75.539	3.0
75.554	4.0
75.569	1.0
75.584	3.0
75.599	2.0
75.614	8.0
75.63	5.0
75.645	3.0
75.66	2.0
75.675	1.0
75.69	5.0
75.705	3.0
75.72	6.0
75.735	5.0
75.751	3.0
75.766	1.0
75.781	5.0
75.796	5.0
75.811	4.0
75.826	4.0
75.841	4.0
75.856	1.0
75.872	8.0
75.887	2.0
75.902	6.0
75.917	8.0
75.932	2.0
75.947	4.0
75.962	3.0
75.977	4.0
75.993	3.0
76.008	3.0
76.023	2.0
76.038	1.0
76.053	6.0
76.068	2.0
76.083	3.0
76.098	1.0
76.114	1.0
76.129	3.0
76.144	3.0
76.159	2.0
76.174	5.0
76.189	4.0
76.204	2.0
76.22	3.0
76.235	5.0
76.25	6.0
76.265	6.0
76.28	2.0
76.295	1.0
76.31	6.0
76.325	6.0
76.341	3.0
76.356	4.0
76.371	2.0
76.386	2.0
76.401	2.0
76.416	0.0
76.431	5.0
76.446	7.0
76.462	8.0
76.477	4.0
76.492	2.0
76.507	6.0
76.522	7.0
76.537	3.0
76.552	4.0
76.567	4.0
76.583	1.0
76.598	2.0
76.613	3.0
76.628	4.0
76.643	2.0
76.658	2.0
76.673	6.0
76.688	3.0
76.704	5.0
76.719	5.0
76.734	3.0
76.749	5.0
76.764	3.0
76.779	6.0
76.794	3.0
76.809	3.0
76.824	4.0
76.84	6.0
76.855	4.0
76.87	3.0
76.885	5.0
76.9	2.0
76.915	1.0
76.93	5.0
76.945	6.0
76.96	2.0
76.976	2.0
76.991	3.0
77.006	2.0
77.021	7.0
77.036	5.0
77.051	0.0
77.066	4.0
77.081	6.0
77.096	6.0
77.112	1.0
77.127	7.0
77.142	3.0
77.157	5.0
77.172	7.0
77.187	3.0
77.202	2.0
77.217	3.0
77.232	2.0
77.247	6.0
77.263	3.0
77.278	6.0
77.293	5.0
77.308	2.0
77.323	5.0
77.338	4.0
77.353	2.0
77.368	10.0
77.383	1.0
77.398	5.0
77.413	2.0
77.428	8.0
77.444	4.0
77.459	4.0
77.474	5.0
77.489	4.0
77.504	3.0
77.519	5.0
77.534	2.0
77.549	3.0
77.564	3.0
77.579	2.0
77.594	1.0
77.609	6.0
77.624	5.0
77.64	6.0
77.655	10.0
77.67	5.0
77.685	5.0
77.7	6.0
77.715	4.0
77.73	3.0
77.745	4.0
77.76	6.0
77.775	6.0
77.79	3.0
77.805	5.0
77.82	5.0
77.835	1.0
77.85	2.0
77.865	4.0
77.88	7.0
77.895	0.0
77.91	2.0
77.926	3.0
77.941	0.0
77.956	0.0
77.971	4.0
77.986	4.0
78.001	2.0
78.016	2.0
78.031	8.0
78.046	2.0
78.061	4.0
78.076	3.0
78.091	3.0
78.106	1.0
78.121	2.0
78.136	3.0
78.151	2.0
78.166	3.0
78.181	1.0
78.196	1.0
78.211	6.0
78.226	7.0
78.241	6.0
78.256	3.0
78.271	2.0
78.286	2.0
78.301	3.0
78.316	0.0
78.331	5.0
78.346	1.0
78.361	2.0
78.376	4.0
78.391	2.0
78.406	2.0
78.421	2.0
78.436	3.0
78.451	3.0
78.466	4.0
78.481	0.0
78.496	3.0
78.511	6.0
78.526	1.0
78.541	3.0
78.556	4.0
78.571	4.0
78.586	2.0
78.601	3.0
78.616	5.0
78.631	7.0
78.646	2.0
78.661	3.0
78.676	4.0
78.691	0.0
78.706	3.0
78.721	2.0
78.736	0.0
78.751	1.0
78.766	4.0
78.781	2.0
78.796	4.0
78.811	2.0
78.826	1.0
78.841	2.0
78.856	7.0
78.871	1.0
78.885	2.0
78.9	2.0
78.915	6.0
78.93	3.0
78.945	2.0
78.96	4.0
78.975	2.0
78.99	7.0
79.005	1.0
79.02	3.0
79.035	4.0
79.05	1.0
79.065	4.0
79.08	3.0
79.095	5.0
79.11	1.0
79.125	0.0
79.14	2.0
79.155	1.0
79.17	2.0
79.185	7.0
79.2	2.0
79.215	3.0
79.23	2.0
79.245	2.0
79.26	3.0
79.275	1.0
79.29	2.0
79.304	3.0
79.319	3.0
79.334	1.0
79.349	2.0
79.364	5.0
79.379	3.0
79.394	5.0
79.409	3.0
79.424	1.0
79.439	2.0
79.454	2.0
79.469	2.0
79.484	4.0
79.499	1.0
79.514	4.0
79.529	2.0
79.544	0.0
79.559	1.0
79.574	5.0
79.589	3.0
79.604	7.0
79.619	1.0
79.634	3.0
79.649	3.0
79.664	4.0
79.679	1.0
79.693	2.0
79.708	0.0
79.723	3.0
79.738	6.0
79.753	2.0
79.768	1.0
79.783	2.0
79.798	4.0
79.813	4.0
79.828	4.0
79.843	5.0
79.858	2.0
79.873	5.0
79.888	1.0
79.903	3.0
79.918	4.0
79.933	1.0
79.948	4.0
79.963	7.0
79.978	5.0
79.993	5.0
80.008	1.0
80.023	3.0
80.038	2.0
80.053	1.0
80.068	4.0
80.083	1.0
80.098	5.0
80.113	6.0
80.128	0.0
80.143	4.0
80.158	7.0
80.173	5.0
80.188	2.0
80.202	8.0
80.217	3.0
80.232	5.0
80.247	7.0
80.262	1.0
80.277	3.0
80.292	6.0
80.307	3.0
80.322	3.0
80.337	4.0
80.352	2.0
80.367	3.0
80.382	3.0
80.397	2.0
80.412	1.0
80.427	2.0
80.442	5.0
80.457	3.0
80.472	2.0
80.487	1.0
80.502	2.0
80.517	2.0
80.532	4.0
80.547	1.0
80.562	7.0
80.577	3.0
80.592	5.0
80.607	4.0
80.622	4.0
80.637	2.0
80.652	2.0
80.667	5.0
80.682	6.0
80.697	3.0
80.712	2.0
80.727	5.0
80.742	2.0
80.757	6.0
80.772	2.0
80.787	3.0
80.802	1.0
80.817	2.0
80.832	0.0
80.847	5.0
80.862	6.0
80.877	5.0
80.892	1.0
80.907	1.0
80.922	3.0
80.937	0.0
80.952	1.0
80.967	6.0
80.982	7.0
80.997	4.0
81.012	0.0
81.027	5.0
81.042	6.0
81.057	2.0
81.072	5.0
81.087	5.0
81.101	3.0
81.116	3.0
81.131	4.0
81.146	1.0
81.161	1.0
81.176	2.0
81.191	3.0
81.206	2.0
81.221	2.0
81.236	1.0
81.251	2.0
81.266	6.0
81.281	4.0
81.296	6.0
81.311	2.0
81.326	3.0
81.341	4.0
81.356	2.0
81.371	4.0
81.386	0.0
81.401	1.0
81.416	1.0
81.431	3.0
81.446	2.0
81.461	2.0
81.476	1.0
81.491	1.0
81.506	4.0
81.521	5.0
81.536	3.0
81.55	1.0
81.565	1.0
81.58	2.0
81.595	2.0
81.61	6.0
81.625	6.0
81.64	8.0
81.655	5.0
81.67	5.0
81.685	3.0
81.7	1.0
81.715	5.0
81.73	5.0
81.745	4.0
81.76	5.0
81.775	6.0
81.79	2.0
81.805	4.0
81.819	7.0
81.834	4.0
81.849	3.0
81.864	6.0
81.879	2.0
81.894	5.0
81.909	7.0
81.924	3.0
81.939	4.0
81.954	1.0
81.969	3.0
81.984	4.0
81.999	1.0
82.013	4.0
82.028	4.0
82.043	2.0
82.058	4.0
82.073	2.0
82.088	2.0
82.103	2.0
82.118	3.0
82.133	2.0
82.148	3.0
82.163	1.0
82.177	3.0
82.192	3.0
82.207	4.0
82.222	6.0
82.237	5.0
82.252	6.0
82.267	2.0
82.282	3.0
82.297	3.0
82.312	3.0
82.326	4.0
82.341	2.0
82.356	6.0
82.371	2.0
82.386	5.0
82.401	0.0
82.416	4.0
82.431	1.0
82.445	0.0
82.46	2.0
82.475	2.0
82.49	3.0
82.505	4.0
82.52	2.0
82.535	2.0
82.55	3.0
82.565	1.0
82.579	4.0
82.594	2.0
82.609	1.0
82.624	2.0
82.639	3.0
82.654	1.0
82.669	1.0
82.684	2.0
82.698	2.0
82.713	2.0
82.728	2.0
82.743	2.0
82.758	3.0
82.773	2.0
82.788	3.0
82.803	4.0
82.817	5.0
82.832	2.0
82.847	1.0
82.862	0.0
82.877	1.0
82.892	0.0
82.907	4.0
82.922	3.0
82.937	5.0
82.951	0.0
82.966	7.0
82.981	3.0
82.996	2.0
83.011	4.0
83.026	4.0
83.041	5.0
83.056	2.0
83.07	6.0
83.085	0.0
83.1	4.0
83.115	0.0
83.13	2.0
83.145	3.0
83.16	3.0
83.175	3.0
83.19	1.0
83.204	2.0
83.219	4.0
83.234	3.0
83.249	2.0
83.264	2.0
83.279	0.0
83.294	4.0
83.309	5.0
83.324	2.0
83.339	3.0
83.353	5.0
83.368	3.0
83.383	1.0
83.398	5.0
83.413	2.0
83.428	7.0
83.443	0.0
83.458	1.0
83.473	6.0
83.488	6.0
83.503	4.0
83.517	5.0
83.532	2.0
83.547	7.0
83.562	5.0
83.577	5.0
83.592	1.0
83.607	4.0
83.622	3.0
83.637	2.0
83.652	0.0
83.667	3.0
83.682	2.0
83.697	1.0
83.712	4.0
83.727	3.0
83.741	5.0
83.756	1.0
83.771	2.0
83.786	3.0
83.801	3.0
83.816	1.0
83.831	3.0
83.846	2.0
83.861	0.0
83.876	3.0
83.891	4.0
83.906	1.0
83.921	5.0
83.936	1.0
83.951	3.0
83.966	3.0
83.981	1.0
83.996	7.0
84.011	3.0
84.026	3.0
84.041	6.0
84.056	5.0
84.071	2.0
84.086	2.0
84.101	1.0
84.116	3.0
84.131	1.0
84.146	7.0
84.161	0.0
84.176	4.0
84.191	2.0
84.206	3.0
84.221	2.0
84.236	1.0
84.251	3.0
84.266	6.0
84.281	7.0
84.296	8.0
84.311	3.0
84.326	4.0
84.341	5.0
84.356	7.0
84.371	1.0
84.386	6.0
84.401	1.0
84.416	6.0
84.431	7.0
84.446	5.0
84.461	4.0
84.476	4.0
84.492	4.0
84.507	1.0
84.522	2.0
84.537	3.0
84.552	2.0
84.567	7.0
84.582	2.0
84.597	3.0
84.612	5.0
84.627	2.0
84.642	0.0
84.657	0.0
84.672	4.0
84.687	5.0
84.702	5.0
84.717	1.0
84.733	1.0
84.748	2.0
84.763	1.0
84.778	4.0
84.793	3.0
84.808	1.0
84.823	1.0
84.838	4.0
84.853	0.0
84.868	5.0
84.883	3.0
84.898	4.0
84.913	4.0
84.929	4.0
84.944	4.0
84.959	1.0
84.974	2.0
84.989	3.0
85.004	5.0
85.019	2.0
85.034	5.0
85.049	4.0
85.064	5.0
85.079	5.0
85.094	2.0
85.11	5.0
85.125	2.0
85.14	7.0
85.155	4.0
85.17	4.0
85.185	3.0
85.2	3.0
85.215	2.0
85.23	2.0
85.245	2.0
85.26	4.0
85.276	1.0
85.291	1.0
85.306	1.0
85.321	4.0
85.336	5.0
85.351	0.0
85.366	3.0
85.381	4.0
85.396	2.0
85.411	3.0
85.426	1.0
85.441	1.0
85.457	1.0
85.472	4.0
85.487	4.0
85.502	3.0
85.517	2.0
85.532	6.0
85.547	0.0
85.562	2.0
85.577	5.0
85.592	3.0
85.607	3.0
85.622	4.0
85.637	2.0
85.653	2.0
85.668	4.0
85.683	4.0
85.698	2.0
85.713	2.0
85.728	2.0
85.743	5.0
85.758	4.0
85.773	3.0
85.788	5.0
85.803	3.0
85.818	5.0
85.833	0.0
85.848	2.0
85.863	2.0
85.879	4.0
85.894	4.0
85.909	2.0
85.924	1.0
85.939	4.0
85.954	4.0
85.969	0.0
85.984	4.0
85.999	0.0
86.014	3.0
86.029	1.0
86.044	4.0
86.059	2.0
86.074	6.0
86.089	3.0
86.104	0.0
86.119	3.0
86.134	4.0
86.149	3.0
86.164	5.0
86.179	1.0
86.194	4.0
86.209	2.0
86.224	1.0
86.239	3.0
86.254	3.0
86.269	3.0
86.284	6.0
86.299	4.0
86.314	4.0
86.33	2.0
86.345	3.0
86.36	5.0
86.375	0.0
86.39	3.0
86.405	5.0
86.42	4.0
86.435	5.0
86.45	1.0
86.465	1.0
86.48	1.0
86.495	4.0
86.51	1.0
86.525	2.0
86.54	4.0
86.555	4.0
86.57	1.0
86.585	6.0
86.6	3.0
86.615	2.0
86.63	4.0
86.645	2.0
86.659	2.0
86.674	4.0
86.689	2.0
86.704	2.0
86.719	3.0
86.734	2.0
86.749	2.0
86.764	2.0
86.779	2.0
86.794	3.0
86.809	1.0
86.824	5.0
86.839	8.0
86.854	2.0
86.869	4.0
86.884	3.0
86.899	2.0
86.914	3.0
86.929	2.0
86.944	7.0
86.959	7.0
86.974	2.0
86.989	1.0
87.004	3.0
87.019	3.0
87.034	3.0
87.049	5.0
87.064	3.0
87.079	1.0
87.094	4.0
87.109	2.0
87.124	1.0
87.139	1.0
87.154	3.0
87.169	3.0
87.184	2.0
87.199	2.0
87.214	8.0
87.229	4.0
87.244	1.0
87.259	5.0
87.274	2.0
87.289	2.0
87.304	3.0
87.319	2.0
87.334	3.0
87.349	6.0
87.364	5.0
87.379	4.0
87.394	2.0
87.409	4.0
87.424	6.0
87.438	4.0
87.453	2.0
87.468	4.0
87.483	2.0
87.498	3.0
87.513	7.0
87.528	3.0
87.543	2.0
87.558	6.0
87.573	4.0
87.588	3.0
87.603	5.0
87.618	2.0
87.633	2.0
87.648	2.0
87.663	5.0
87.678	6.0
87.693	3.0
87.708	2.0
87.723	4.0
87.738	4.0
87.753	5.0
87.768	4.0
87.783	5.0
87.798	3.0
87.813	8.0
87.828	6.0
87.843	5.0
87.858	5.0
87.873	3.0
87.888	1.0
87.903	1.0
87.918	2.0
87.933	6.0
87.948	2.0
87.963	2.0
87.978	2.0
87.993	4.0
88.008	2.0
88.023	2.0
88.038	2.0
88.053	0.0
88.068	1.0
88.083	3.0
88.098	3.0
88.113	2.0
88.128	2.0
88.143	6.0
88.158	2.0
88.174	1.0
88.189	2.0
88.204	5.0
88.219	6.0
88.234	5.0
88.249	3.0
88.264	3.0
88.279	2.0
88.294	3.0
88.309	7.0
88.324	1.0
88.339	3.0
88.354	0.0
88.369	4.0
88.384	3.0
88.399	3.0
88.414	3.0
88.429	4.0
88.444	3.0
88.459	1.0
88.474	5.0
88.489	7.0
88.504	5.0
88.519	4.0
88.534	8.0
88.549	0.0
88.564	3.0
88.58	4.0
88.595	1.0
88.61	4.0
88.625	4.0
88.64	5.0
88.655	3.0
88.67	3.0
88.685	2.0
88.7	2.0
88.715	4.0
88.73	2.0
88.745	7.0
88.76	7.0
88.775	4.0
88.79	1.0
88.805	2.0
88.82	1.0
88.835	3.0
88.85	2.0
88.865	2.0
88.88	2.0
88.895	1.0
88.911	4.0
88.926	0.0
88.941	5.0
88.956	2.0
88.971	2.0
88.986	1.0
89.001	1.0
89.016	3.0
89.031	3.0
89.046	2.0
89.061	6.0
89.076	4.0
89.091	4.0
89.106	6.0
89.121	2.0
89.136	2.0
89.151	2.0
89.166	5.0
89.181	5.0
89.196	2.0
89.211	4.0
89.227	2.0
89.242	4.0
89.257	6.0
89.272	2.0
89.287	1.0
89.302	8.0
89.317	3.0
89.332	4.0
89.347	4.0
89.362	2.0
89.377	2.0
89.392	3.0
89.407	2.0
89.422	4.0
89.437	5.0
89.452	9.0
89.467	5.0
89.482	3.0
89.497	2.0
89.512	6.0
89.527	4.0
89.542	2.0
89.557	2.0
89.572	4.0
89.587	2.0
89.602	1.0
89.617	2.0
89.632	1.0
89.647	3.0
89.662	3.0
89.677	2.0
89.693	3.0
89.708	5.0
89.723	5.0
89.738	8.0
89.753	3.0
89.768	3.0
89.783	3.0
89.798	9.0
89.813	3.0
89.828	3.0
89.843	0.0
89.858	2.0
89.873	1.0
89.888	0.0
89.903	3.0
89.918	4.0
89.933	3.0
89.948	3.0
89.963	4.0
89.978	1.0
89.993	1.0
90.008	2.0
90.023	3.0
90.038	6.0
90.053	2.0
90.068	5.0
90.083	4.0
90.097	1.0
90.112	6.0
90.127	6.0
90.142	3.0
90.157	5.0
90.172	5.0
90.187	4.0
90.202	1.0
90.217	6.0
90.232	3.0
90.247	1.0
90.262	6.0
90.277	1.0
90.292	8.0
90.307	2.0
90.322	4.0
90.337	3.0
90.352	5.0
90.367	2.0
90.382	4.0
90.397	10.0
90.412	2.0
90.427	5.0
90.442	7.0
90.457	3.0
90.472	3.0
90.487	3.0
90.501	4.0
90.516	6.0
90.531	3.0
90.546	3.0
90.561	2.0
90.576	3.0
90.591	4.0
90.606	5.0
90.621	2.0
90.636	7.0
90.651	3.0
90.666	1.0
90.681	3.0
90.696	2.0
90.711	5.0
90.726	3.0
90.741	2.0
90.755	3.0
90.77	4.0
90.785	4.0
90.8	3.0
90.815	6.0
90.83	2.0
90.845	1.0
90.86	3.0
90.875	4.0
90.89	1.0
90.905	3.0
90.92	1.0
90.935	2.0
90.95	8.0
90.965	6.0
90.979	5.0
90.994	3.0
91.009	2.0
91.024	3.0
91.039	3.0
91.054	2.0
91.069	2.0
91.084	2.0
91.099	1.0
91.114	6.0
91.129	7.0
91.144	4.0
91.159	3.0
91.174	3.0
91.188	2.0
91.203	1.0
91.218	3.0
91.233	5.0
91.248	0.0
91.263	3.0
91.278	2.0
91.293	8.0
91.308	2.0
91.323	3.0
91.338	1.0
91.353	2.0
91.368	5.0
91.383	1.0
91.398	4.0
91.412	1.0
91.427	4.0
91.442	1.0
91.457	3.0
91.472	4.0
91.487	0.0
91.502	4.0
91.517	5.0
91.532	2.0
91.547	7.0
91.562	1.0
91.577	0.0
91.592	1.0
91.607	4.0
91.622	5.0
91.637	2.0
91.652	7.0
91.666	5.0
91.681	2.0
91.696	4.0
91.711	4.0
91.726	2.0
91.741	3.0
91.756	4.0
91.771	4.0
91.786	0.0
91.801	2.0
91.816	1.0
91.831	4.0
91.846	2.0
91.861	6.0
91.876	3.0
91.891	6.0
91.906	1.0
91.921	2.0
91.936	4.0
91.951	3.0
91.966	3.0
91.981	1.0
91.995	6.0
92.01	0.0
92.025	5.0
92.04	2.0
92.055	4.0
92.07	3.0
92.085	7.0
92.1	0.0
92.115	6.0
92.13	6.0
92.145	2.0
92.16	5.0
92.175	4.0
92.19	3.0
92.205	2.0
92.22	0.0
92.235	2.0
92.25	4.0
92.265	2.0
92.28	3.0
92.295	0.0
92.31	2.0
92.325	2.0
92.34	2.0
92.355	1.0
92.37	3.0
92.385	3.0
92.4	3.0
92.415	1.0
92.43	3.0
92.445	6.0
92.46	6.0
92.475	1.0
92.49	2.0
92.505	1.0
92.52	2.0
92.535	4.0
92.55	4.0
92.565	6.0
92.58	3.0
92.595	6.0
92.61	3.0
92.625	6.0
92.64	1.0
92.655	4.0
92.67	8.0
92.685	3.0
92.7	3.0
92.715	1.0
92.73	1.0
92.745	4.0
92.76	2.0
92.775	2.0
92.79	2.0
92.805	3.0
92.82	1.0
92.835	5.0
92.85	3.0
92.865	4.0
92.88	3.0
92.895	1.0
92.91	5.0
92.925	5.0
92.94	2.0
92.955	4.0
92.97	1.0
92.985	6.0
93.0	1.0
93.015	2.0
93.03	3.0
93.045	5.0
93.06	1.0
93.075	3.0
93.09	4.0
93.105	5.0
93.12	3.0
93.135	5.0
93.15	1.0
93.165	3.0
93.18	1.0
93.195	3.0
93.21	1.0
93.225	3.0
93.24	3.0
93.255	2.0
93.27	3.0
93.285	0.0
93.3	3.0
93.315	2.0
93.33	4.0
93.345	3.0
93.36	3.0
93.375	6.0
93.39	3.0
93.405	3.0
93.42	3.0
93.435	2.0
93.45	4.0
93.465	3.0
93.48	0.0
93.495	3.0
93.51	5.0
93.525	7.0
93.54	5.0
93.555	3.0
93.57	4.0
93.585	3.0
93.6	10.0
93.615	3.0
93.63	2.0
93.645	3.0
93.66	3.0
93.675	4.0
93.69	5.0
93.705	3.0
93.72	2.0
93.735	1.0
93.75	5.0
93.765	1.0
93.78	3.0
93.795	3.0
93.81	6.0
93.824	2.0
93.839	1.0
93.854	2.0
93.869	4.0
93.884	4.0
93.899	2.0
93.914	3.0
93.929	2.0
93.944	3.0
93.959	5.0
93.974	2.0
93.989	2.0
94.004	4.0
94.019	3.0
94.034	0.0
94.049	3.0
94.064	2.0
94.079	2.0
94.094	3.0
94.108	5.0
94.123	3.0
94.138	5.0
94.153	4.0
94.168	5.0
94.183	4.0
94.198	4.0
94.213	5.0
94.228	2.0
94.243	2.0
94.258	5.0
94.273	3.0
94.288	1.0
94.302	3.0
94.317	5.0
94.332	3.0
94.347	4.0
94.362	2.0
94.377	3.0
94.392	6.0
94.407	6.0
94.422	3.0
94.437	5.0
94.452	6.0
94.466	6.0
94.481	8.0
94.496	7.0
94.511	4.0
94.526	7.0
94.541	3.0
94.556	1.0
94.571	1.0
94.586	1.0
94.601	2.0
94.615	0.0
94.63	3.0
94.645	5.0
94.66	1.0
94.675	4.0
94.69	2.0
94.705	1.0
94.72	3.0
94.735	2.0
94.749	3.0
94.764	5.0
94.779	5.0
94.794	3.0
94.809	4.0
94.824	2.0
94.839	1.0
94.854	1.0
94.868	3.0
94.883	3.0
94.898	1.0
94.913	4.0
94.928	7.0
94.943	3.0
94.958	3.0
94.973	0.0
94.987	3.0
95.002	4.0
95.017	3.0
95.032	3.0
95.047	3.0
95.062	1.0
95.077	1.0
95.092	5.0
95.106	8.0
95.121	3.0
95.136	8.0
95.151	3.0
95.166	2.0
95.181	2.0
95.196	6.0
95.211	3.0
95.226	7.0
95.24	3.0
95.255	1.0
95.27	3.0
95.285	0.0
95.3	4.0
95.315	5.0
95.33	1.0
95.345	4.0
95.359	3.0
95.374	1.0
95.389	3.0
95.404	4.0
95.419	3.0
95.434	6.0
95.449	3.0
95.464	3.0
95.478	2.0
95.493	6.0
95.508	2.0
95.523	2.0
95.538	2.0
95.553	3.0
95.568	3.0
95.583	5.0
95.597	5.0
95.612	3.0
95.627	0.0
95.642	4.0
95.657	3.0
95.672	3.0
95.687	5.0
95.702	2.0
95.717	2.0
95.731	0.0
95.746	3.0
95.761	4.0
95.776	6.0
95.791	5.0
95.806	3.0
95.821	4.0
95.836	3.0
95.851	4.0
95.866	4.0
95.88	4.0
95.895	1.0
95.91	5.0
95.925	5.0
95.94	4.0
95.955	7.0
95.97	8.0
95.985	9.0
96.0	1.0
96.015	1.0
96.029	2.0
96.044	7.0
96.059	1.0
96.074	3.0
96.089	4.0
96.104	6.0
96.119	2.0
96.134	3.0
96.149	6.0
96.164	5.0
96.179	2.0
96.194	7.0
96.208	2.0
96.223	0.0
96.238	4.0
96.253	3.0
96.268	6.0
96.283	1.0
96.298	3.0
96.313	3.0
96.328	4.0
96.343	3.0
96.358	5.0
96.373	2.0
96.388	5.0
96.403	4.0
96.417	2.0
96.432	2.0
96.447	6.0
96.462	2.0
96.477	3.0
96.492	5.0
96.507	2.0
96.522	5.0
96.537	5.0
96.552	1.0
96.567	7.0
96.582	4.0
96.597	6.0
96.612	5.0
96.627	3.0
96.642	2.0
96.656	5.0
96.671	3.0
96.686	4.0
96.701	2.0
96.716	6.0
96.731	1.0
96.746	0.0
96.761	1.0
96.776	6.0
96.791	1.0
96.806	4.0
96.821	0.0
96.836	0.0
96.851	1.0
96.866	4.0
96.881	3.0
96.896	5.0
96.911	3.0
96.926	6.0
96.94	5.0
96.955	5.0
96.97	1.0
96.985	4.0
97.0	3.0
97.015	2.0
97.03	6.0
97.045	4.0
97.06	2.0
97.075	0.0
97.09	4.0
97.105	6.0
97.12	3.0
97.135	1.0
97.15	3.0
97.165	3.0
97.18	4.0
97.195	1.0
97.21	6.0
97.225	1.0
97.239	1.0
97.254	3.0
97.269	5.0
97.284	4.0
97.299	4.0
97.314	4.0
97.329	3.0
97.344	0.0
97.359	2.0
97.374	4.0
97.389	1.0
97.404	0.0
97.419	2.0
97.434	4.0
97.449	2.0
97.464	3.0
97.479	5.0
97.494	3.0
97.509	6.0
97.524	1.0
97.538	1.0
97.553	4.0
97.568	3.0
97.583	4.0
97.598	4.0
97.613	0.0
97.628	2.0
97.643	4.0
97.658	3.0
97.673	2.0
97.688	6.0
97.703	4.0
97.718	5.0
97.733	4.0
97.748	3.0
97.763	3.0
97.778	5.0
97.792	6.0
97.807	3.0
97.822	4.0
97.837	3.0
97.852	2.0
97.867	1.0
97.882	3.0
97.897	8.0
97.912	2.0
97.927	4.0
97.942	2.0
97.957	3.0
97.972	2.0
97.987	3.0
98.001	3.0
98.016	3.0
98.031	8.0
98.046	3.0
98.061	3.0
98.076	2.0
98.091	2.0
98.106	0.0
98.121	2.0
98.136	7.0
98.151	3.0
98.166	2.0
98.181	5.0
98.195	0.0
98.21	1.0
98.225	3.0
98.24	1.0
98.255	3.0
98.27	3.0
98.285	3.0
98.3	3.0
98.315	3.0
98.33	7.0
98.345	1.0
98.359	3.0
98.374	6.0
98.389	3.0
98.404	4.0
98.419	4.0
98.434	3.0
98.449	1.0
98.464	2.0
98.479	3.0
98.494	3.0
98.508	3.0
98.523	2.0
98.538	2.0
98.553	3.0
98.568	4.0
98.583	4.0
98.598	3.0
98.613	8.0
98.628	4.0
98.642	4.0
98.657	2.0
98.672	2.0
98.687	4.0
98.702	3.0
98.717	1.0
98.732	3.0
98.747	2.0
98.762	3.0
98.776	2.0
98.791	7.0
98.806	5.0
98.821	3.0
98.836	0.0
98.851	4.0
98.866	3.0
98.881	3.0
98.896	2.0
98.91	3.0
98.925	5.0
98.94	3.0
98.955	4.0
98.97	2.0
98.985	1.0
99.0	5.0
99.015	0.0
99.029	2.0
99.044	4.0
99.059	4.0
99.074	5.0
99.089	4.0
99.104	2.0
99.119	1.0
99.133	1.0
99.148	2.0
99.163	3.0
99.178	7.0
99.193	2.0
99.208	2.0
99.223	3.0
99.238	3.0
99.252	2.0
99.267	5.0
99.282	6.0
99.297	5.0
99.312	5.0
99.327	4.0
99.342	2.0
99.356	2.0
99.371	4.0
99.386	4.0
99.401	3.0
99.416	3.0
99.431	4.0
99.446	0.0
99.461	1.0
99.475	2.0
99.49	3.0
99.505	4.0
99.52	4.0
99.535	2.0
99.55	3.0
99.565	4.0
99.579	3.0
99.594	2.0
99.609	4.0
99.624	2.0
99.639	3.0
99.654	5.0
99.669	3.0
99.683	2.0
99.698	0.0
99.713	2.0
99.728	1.0
99.743	1.0
99.758	6.0
99.772	3.0
99.787	1.0
99.802	2.0
99.817	4.0
99.832	4.0
99.847	1.0
99.862	5.0
99.876	1.0
99.891	3.0
99.906	5.0
99.921	3.0
99.936	4.0
99.951	0.0
99.966	3.0
99.98	3.0
99.995	3.0
100.01	6.0
100.025	4.0
100.04	3.0
100.055	4.0
100.069	1.0
100.084	4.0
100.099	2.0
100.114	2.0
100.129	1.0
100.144	1.0
100.159	1.0
100.173	2.0
100.188	1.0
100.203	3.0
100.218	4.0
100.233	3.0
100.248	4.0
100.262	2.0
100.277	5.0
100.292	4.0
100.307	3.0
100.322	2.0
100.337	6.0
100.351	2.0
100.366	4.0
100.381	4.0
100.396	2.0
100.411	2.0
100.426	3.0
100.441	5.0
100.455	1.0
100.47	2.0
100.485	4.0
100.5	3.0
100.515	0.0
100.53	1.0
100.544	1.0
100.559	2.0
100.574	4.0
100.589	5.0
100.604	5.0
100.619	0.0
100.633	3.0
100.648	6.0
100.663	3.0
100.678	0.0
100.693	4.0
100.708	2.0
100.722	7.0
100.737	4.0
100.752	3.0
100.767	2.0
100.782	1.0
100.796	3.0
100.811	2.0
100.826	1.0
100.841	1.0
100.856	3.0
100.871	3.0
100.885	3.0
100.9	2.0
100.915	3.0
100.93	3.0
100.945	2.0
100.96	3.0
100.974	4.0
100.989	4.0
101.004	5.0
101.019	2.0
101.034	7.0
101.048	3.0
101.063	3.0
101.078	3.0
101.093	5.0
101.108	5.0
101.123	5.0
101.137	5.0
101.152	6.0
101.167	5.0
101.182	6.0
101.197	4.0
101.211	3.0
101.226	8.0
101.241	2.0
101.256	3.0
101.271	1.0
101.285	8.0
101.3	6.0
101.315	5.0
101.33	5.0
101.345	1.0
101.359	4.0
101.374	4.0
101.389	2.0
101.404	5.0
101.419	2.0
101.433	3.0
101.448	1.0
101.463	2.0
101.478	1.0
101.493	5.0
101.507	4.0
101.522	2.0
101.537	3.0
101.552	6.0
101.567	0.0
101.581	1.0
101.596	3.0
101.611	4.0
101.626	1.0
101.64	1.0
101.655	5.0
101.67	0.0
101.685	3.0
101.7	3.0
101.714	3.0
101.729	3.0
101.744	3.0
101.759	1.0
101.773	3.0
101.788	3.0
101.803	10.0
101.818	5.0
101.833	2.0
101.847	4.0
101.862	2.0
101.877	2.0
101.892	3.0
101.906	6.0
101.921	2.0
101.936	5.0
101.951	2.0
101.965	8.0
101.98	4.0
101.995	4.0
102.01	4.0
102.025	6.0
102.039	8.0
102.054	2.0
102.069	5.0
102.084	2.0
102.098	2.0
102.113	2.0
102.128	1.0
102.143	6.0
102.157	3.0
102.172	6.0
102.187	1.0
102.202	3.0
102.216	1.0
102.231	2.0
102.246	3.0
102.261	4.0
102.275	3.0
102.29	3.0
102.305	4.0
102.32	6.0
102.334	2.0
102.349	2.0
102.364	1.0
102.378	4.0
102.393	4.0
102.408	3.0
102.423	2.0
102.437	3.0
102.452	4.0
102.467	3.0
102.482	4.0
102.496	1.0
102.511	2.0
102.526	7.0
102.541	4.0
102.555	7.0
102.57	3.0
102.585	2.0
102.6	1.0
102.614	5.0
102.629	4.0
102.644	3.0
102.659	4.0
102.673	4.0
102.688	8.0
102.703	2.0
102.717	5.0
102.732	1.0
102.747	4.0
102.762	2.0
102.776	5.0
102.791	6.0
102.806	9.0
102.821	3.0
102.835	7.0
102.85	6.0
102.865	5.0
102.88	2.0
102.894	4.0
102.909	3.0
102.924	0.0
102.938	2.0
102.953	1.0
102.968	5.0
102.983	5.0
102.997	2.0
103.012	7.0
103.027	2.0
103.042	1.0
103.056	2.0
103.071	6.0
103.086	5.0
103.101	1.0
103.115	2.0
103.13	4.0
103.145	5.0
103.16	2.0
103.174	1.0
103.189	3.0
103.204	3.0
103.219	5.0
103.233	1.0
103.248	2.0
103.263	2.0
103.278	1.0
103.292	6.0
103.307	4.0
103.322	4.0
103.337	3.0
103.351	0.0
103.366	5.0
103.381	5.0
103.396	3.0
103.41	3.0
103.425	4.0
103.44	4.0
103.455	4.0
103.469	1.0
103.484	2.0
103.499	1.0
103.514	3.0
103.529	1.0
103.543	1.0
103.558	3.0
103.573	2.0
103.588	3.0
103.602	0.0
103.617	0.0
103.632	4.0
103.647	7.0
103.661	2.0
103.676	2.0
103.691	2.0
103.706	4.0
103.721	0.0
103.735	3.0
103.75	5.0
103.765	2.0
103.78	2.0
103.795	3.0
103.809	3.0
103.824	2.0
103.839	8.0
103.854	7.0
103.869	7.0
103.883	1.0
103.898	4.0
103.913	6.0
103.928	1.0
103.943	3.0
103.957	1.0
103.972	2.0
103.987	7.0
104.002	0.0
104.017	5.0
104.031	1.0
104.046	2.0
104.061	3.0
104.076	3.0
104.091	2.0
104.106	5.0
104.12	7.0
104.135	4.0
104.15	2.0
104.165	6.0
104.18	3.0
104.195	3.0
104.209	3.0
104.224	0.0
104.239	3.0
104.254	3.0
104.269	1.0
104.284	5.0
104.299	4.0
104.313	4.0
104.328	4.0
104.343	1.0
104.358	3.0
104.373	4.0
104.388	3.0
104.403	4.0
104.417	1.0
104.432	6.0
104.447	2.0
104.462	0.0
104.477	4.0
104.492	3.0
104.507	4.0
104.522	5.0
104.536	3.0
104.551	4.0
104.566	5.0
104.581	4.0
104.596	1.0
104.611	4.0
104.626	1.0
104.641	1.0
104.656	3.0
104.67	4.0
104.685	4.0
104.7	6.0
104.715	5.0
104.73	5.0
104.745	7.0
104.76	5.0
104.775	1.0
104.79	3.0
104.804	2.0
104.819	7.0
104.834	1.0
104.849	4.0
104.864	5.0
104.879	1.0
104.894	1.0
104.909	3.0
104.924	1.0
104.939	3.0
104.954	2.0
104.968	2.0
104.983	3.0
104.998	3.0
105.013	8.0
105.028	3.0
105.043	3.0
105.058	1.0
105.073	2.0
105.088	3.0
105.103	4.0
105.118	7.0
105.133	1.0
105.147	1.0
105.162	3.0
105.177	4.0
105.192	5.0
105.207	1.0
105.222	6.0
105.237	3.0
105.252	1.0
105.267	0.0
105.282	5.0
105.297	4.0
105.312	3.0
105.327	3.0
105.342	3.0
105.356	1.0
105.371	1.0
105.386	4.0
105.401	3.0
105.416	6.0
105.431	4.0
105.446	3.0
105.461	2.0
105.476	3.0
105.491	3.0
105.506	2.0
105.521	5.0
105.536	3.0
105.551	4.0
105.566	8.0
105.581	4.0
105.595	6.0
105.61	2.0
105.625	3.0
105.64	2.0
105.655	2.0
105.67	3.0
105.685	2.0
105.7	3.0
105.715	5.0
105.73	2.0
105.745	7.0
105.76	3.0
105.775	1.0
105.79	4.0
105.805	1.0
105.82	2.0
105.835	4.0
105.85	1.0
105.864	2.0
105.879	3.0
105.894	3.0
105.909	1.0
105.924	4.0
105.939	4.0
105.954	1.0
105.969	1.0
105.984	3.0
105.999	0.0
106.014	1.0
106.029	0.0
106.044	2.0
106.059	3.0
106.074	2.0
106.089	1.0
106.104	3.0
106.119	1.0
106.134	1.0
106.148	2.0
106.163	0.0
106.178	1.0
106.193	1.0
106.208	2.0
106.223	7.0
106.238	3.0
106.253	2.0
106.268	1.0
106.283	5.0
106.298	5.0
106.313	3.0
106.328	6.0
106.343	5.0
106.358	3.0
106.373	2.0
106.388	2.0
106.403	1.0
106.418	2.0
106.432	1.0
106.447	2.0
106.462	7.0
106.477	1.0
106.492	3.0
106.507	1.0
106.522	1.0
106.537	5.0
106.552	2.0
106.567	3.0
106.582	1.0
106.597	4.0
106.612	3.0
106.627	5.0
106.642	2.0
106.657	5.0
106.672	0.0
106.687	7.0
106.701	2.0
106.716	2.0
106.731	1.0
106.746	4.0
106.761	3.0
106.776	4.0
106.791	3.0
106.806	8.0
106.821	5.0
106.836	1.0
106.851	2.0
106.866	0.0
106.881	3.0
106.896	3.0
106.911	1.0
106.926	5.0
106.941	4.0
106.955	2.0
106.97	4.0
106.985	4.0
107.0	3.0
107.015	3.0
107.03	4.0
107.045	8.0
107.06	1.0
107.075	5.0
107.09	6.0
107.105	5.0
107.12	7.0
107.135	6.0
107.15	5.0
107.165	6.0
107.18	5.0
107.194	5.0
107.209	3.0
107.224	5.0
107.239	3.0
107.254	7.0
107.269	4.0
107.284	5.0
107.299	4.0
107.314	2.0
107.329	3.0
107.344	3.0
107.359	5.0
107.374	5.0
107.389	4.0
107.404	3.0
107.418	3.0
107.433	3.0
107.448	2.0
107.463	1.0
107.478	6.0
107.493	1.0
107.508	1.0
107.523	1.0
107.538	5.0
107.553	1.0
107.568	2.0
107.583	2.0
107.598	1.0
107.613	6.0
107.627	1.0
107.642	7.0
107.657	2.0
107.672	5.0
107.687	2.0
107.702	1.0
107.717	3.0
107.732	6.0
107.747	4.0
107.762	5.0
107.777	1.0
107.792	1.0
107.807	3.0
107.821	3.0
107.836	1.0
107.851	3.0
107.866	3.0
107.881	1.0
107.896	1.0
107.911	3.0
107.926	5.0
107.941	1.0
107.956	4.0
107.971	6.0
107.986	2.0
108.0	3.0
108.015	4.0
108.03	7.0
108.045	9.0
108.06	3.0
108.075	4.0
108.09	6.0
108.105	5.0
108.12	4.0
108.135	4.0
108.15	4.0
108.164	1.0
108.179	7.0
108.194	5.0
108.209	2.0
108.224	4.0
108.239	6.0
108.254	2.0
108.269	4.0
108.284	5.0
108.299	2.0
108.313	2.0
108.328	3.0
108.343	6.0
108.358	0.0
108.373	1.0
108.388	3.0
108.403	3.0
108.418	1.0
108.433	5.0
108.448	3.0
108.462	3.0
108.477	3.0
108.492	6.0
108.507	4.0
108.522	6.0
108.537	1.0
108.552	4.0
108.567	2.0
108.582	5.0
108.597	1.0
108.611	4.0
108.626	2.0
108.641	0.0
108.656	1.0
108.671	1.0
108.686	4.0
108.701	2.0
108.716	5.0
108.731	0.0
108.745	1.0
108.76	2.0
108.775	5.0
108.79	5.0
108.805	2.0
108.82	1.0
108.835	5.0
108.85	3.0
108.865	3.0
108.879	1.0
108.894	3.0
108.909	4.0
108.924	3.0
108.939	3.0
108.954	5.0
108.969	7.0
108.984	4.0
108.999	4.0
109.013	5.0
109.028	3.0
109.043	3.0
109.058	2.0
109.073	4.0
109.088	4.0
109.103	3.0
109.118	6.0
109.133	3.0
109.147	3.0
109.162	3.0
109.177	6.0
109.192	1.0
109.207	2.0
109.222	3.0
109.237	0.0
109.252	1.0
109.267	3.0
109.281	1.0
109.296	2.0
109.311	3.0
109.326	3.0
109.341	2.0
109.356	2.0
109.371	5.0
109.386	5.0
109.4	2.0
109.415	3.0
109.43	2.0
109.445	1.0
109.46	8.0
109.475	4.0
109.49	2.0
109.505	2.0
109.52	4.0
109.534	1.0
109.549	4.0
109.564	4.0
109.579	6.0
109.594	2.0
109.609	2.0
109.624	3.0
109.639	3.0
109.653	1.0
109.668	3.0
109.683	3.0
109.698	0.0
109.713	1.0
109.728	5.0
109.743	2.0
109.758	0.0
109.773	2.0
109.787	2.0
109.802	5.0
109.817	4.0
109.832	6.0
109.847	6.0
109.862	3.0
109.877	5.0
109.892	0.0
109.907	2.0
109.921	2.0
109.936	2.0
109.951	6.0
109.966	3.0
109.981	3.0
109.996	1.0
110.011	1.0
110.026	6.0
110.04	0.0
110.055	4.0
110.07	4.0
110.085	5.0
110.1	5.0
110.115	4.0
110.13	1.0
110.145	4.0
110.16	5.0
110.174	6.0
110.189	0.0
110.204	3.0
110.219	1.0
110.234	6.0
110.249	5.0
110.264	1.0
110.279	2.0
110.294	1.0
110.308	1.0
110.323	4.0
110.338	4.0
110.353	5.0
110.368	1.0
110.383	3.0
110.398	3.0
110.413	2.0
110.428	7.0
110.442	9.0
110.457	1.0
110.472	3.0
110.487	1.0
110.502	3.0
110.517	3.0
110.532	5.0
110.547	4.0
110.561	2.0
110.576	2.0
110.591	2.0
110.606	5.0
110.621	6.0
110.636	4.0
110.651	6.0
110.666	4.0
110.681	3.0
110.695	4.0
110.71	3.0
110.725	5.0
110.74	4.0
110.755	5.0
110.77	4.0
110.785	1.0
110.8	3.0
110.815	1.0
110.829	2.0
110.844	3.0
110.859	1.0
110.874	5.0
110.889	5.0
110.904	4.0
110.919	5.0
110.934	4.0
110.948	6.0
110.963	5.0
110.978	2.0
110.993	5.0
111.008	5.0
111.023	2.0
111.038	3.0
111.053	4.0
111.067	1.0
111.082	4.0
111.097	0.0
111.112	0.0
111.127	2.0
111.142	7.0
111.157	1.0
111.172	0.0
111.186	3.0
111.201	4.0
111.216	2.0
111.231	6.0
111.246	3.0
111.261	3.0
111.276	1.0
111.291	5.0
111.305	3.0
111.32	4.0
111.335	2.0
111.35	5.0
111.365	2.0
111.38	3.0
111.395	4.0
111.41	3.0
111.424	2.0
111.439	6.0
111.454	3.0
111.469	0.0
111.484	4.0
111.499	3.0
111.514	1.0
111.528	2.0
111.543	5.0
111.558	1.0
111.573	5.0
111.588	1.0
111.603	3.0
111.618	5.0
111.633	4.0
111.647	6.0
111.662	7.0
111.677	17.0
111.692	2.0
111.707	3.0
111.722	3.0
111.737	3.0
111.751	4.0
111.766	1.0
111.781	5.0
111.796	2.0
111.811	5.0
111.826	3.0
111.84	4.0
111.855	2.0
111.87	3.0
111.885	4.0
111.9	2.0
111.915	1.0
111.93	5.0
111.944	3.0
111.959	0.0
111.974	1.0
111.989	6.0
112.004	3.0
112.019	5.0
112.033	4.0
112.048	5.0
112.063	3.0
112.078	5.0
112.093	7.0
112.108	2.0
112.123	2.0
112.137	4.0
112.152	3.0
112.167	2.0
112.182	3.0
112.197	3.0
112.212	3.0
112.226	4.0
112.241	3.0
112.256	3.0
112.271	4.0
112.286	5.0
112.301	1.0
112.315	3.0
112.33	3.0
112.345	2.0
112.36	2.0
112.375	4.0
112.389	3.0
112.404	2.0
112.419	4.0
112.434	5.0
112.449	4.0
112.464	10.0
112.478	1.0
112.493	5.0
112.508	4.0
112.523	3.0
112.538	3.0
112.553	3.0
112.567	3.0
112.582	1.0
112.597	4.0
112.612	0.0
112.627	8.0
112.642	3.0
112.656	4.0
112.671	4.0
112.686	4.0
112.701	4.0
112.716	7.0
112.73	2.0
112.745	2.0
112.76	4.0
112.775	0.0
112.79	6.0
112.805	2.0
112.819	4.0
112.834	6.0
112.849	3.0
112.864	6.0
112.879	4.0
112.894	6.0
112.908	3.0
112.923	2.0
112.938	5.0
112.953	1.0
112.968	4.0
112.983	3.0
112.997	1.0
113.012	5.0
113.027	3.0
113.042	2.0
113.057	2.0
113.072	5.0
113.086	3.0
113.101	3.0
113.116	2.0
113.131	5.0
113.146	5.0
113.161	4.0
113.175	5.0
113.19	4.0
113.205	2.0
113.22	5.0
113.235	0.0
113.25	2.0
113.265	2.0
113.279	2.0
113.294	6.0
113.309	2.0
113.324	3.0
113.339	3.0
113.354	7.0
113.368	1.0
113.383	3.0
113.398	4.0
113.413	1.0
113.428	3.0
113.443	4.0
113.458	0.0
113.472	4.0
113.487	4.0
113.502	3.0
113.517	9.0
113.532	5.0
113.547	5.0
113.562	3.0
113.576	3.0
113.591	5.0
113.606	3.0
113.621	5.0
113.636	4.0
113.651	1.0
113.666	6.0
113.681	3.0
113.695	3.0
113.71	3.0
113.725	3.0
113.74	3.0
113.755	3.0
113.77	4.0
113.785	7.0
113.8	5.0
113.814	5.0
113.829	2.0
113.844	3.0
113.859	3.0
113.874	2.0
113.889	3.0
113.904	4.0
113.919	5.0
113.934	9.0
113.949	2.0
113.963	4.0
113.978	3.0
113.993	5.0
114.008	3.0
114.023	5.0
114.038	4.0
114.053	3.0
114.068	6.0
114.083	3.0
114.098	2.0
114.113	7.0
114.127	0.0
114.142	4.0
114.157	1.0
114.172	4.0
114.187	3.0
114.202	2.0
114.217	3.0
114.232	4.0
114.247	7.0
114.262	0.0
114.277	2.0
114.292	5.0
114.307	4.0
114.322	2.0
114.337	3.0
114.351	3.0
114.366	8.0
114.381	3.0
114.396	4.0
114.411	7.0
114.426	3.0
114.441	2.0
114.456	1.0
114.471	4.0
114.486	2.0
114.501	7.0
114.516	3.0
114.531	2.0
114.546	1.0
114.561	3.0
114.576	3.0
114.591	3.0
114.606	1.0
114.621	2.0
114.636	4.0
114.65	2.0
114.665	4.0
114.68	5.0
114.695	3.0
114.71	4.0
114.725	4.0
114.74	2.0
114.755	1.0
114.77	1.0
114.785	3.0
114.8	4.0
114.815	1.0
114.83	4.0
114.845	4.0
114.86	3.0
114.875	0.0
114.89	3.0
114.905	3.0
114.92	5.0
114.935	4.0
114.95	4.0
114.965	4.0
114.98	5.0
114.995	2.0
115.009	3.0
115.024	3.0
115.039	7.0
115.054	5.0
115.069	5.0
115.084	6.0
115.099	2.0
115.114	5.0
115.129	4.0
115.144	4.0
115.159	1.0
115.174	1.0
115.189	4.0
115.204	5.0
115.219	6.0
115.234	5.0
115.249	4.0
115.264	5.0
115.279	5.0
115.294	2.0
115.309	3.0
115.323	6.0
115.338	3.0
115.353	4.0
115.368	2.0
115.383	5.0
115.398	4.0
115.413	2.0
115.428	2.0
115.443	6.0
115.458	6.0
115.473	4.0
115.488	3.0
115.503	3.0
115.518	2.0
115.533	5.0
115.548	5.0
115.562	2.0
115.577	7.0
115.592	1.0
115.607	4.0
115.622	5.0
115.637	4.0
115.652	3.0
115.667	6.0
115.682	5.0
115.697	1.0
115.712	3.0
115.727	5.0
115.741	9.0
115.756	4.0
115.771	6.0
115.786	2.0
115.801	4.0
115.816	9.0
115.831	1.0
115.846	3.0
115.861	1.0
115.875	3.0
115.89	1.0
115.905	4.0
115.92	4.0
115.935	2.0
115.95	2.0
115.965	1.0
115.98	2.0
115.995	6.0
116.009	3.0
116.024	6.0
116.039	1.0
116.054	2.0
116.069	0.0
116.084	4.0
116.099	2.0
116.113	2.0
116.128	3.0
116.143	3.0
116.158	3.0
116.173	4.0
116.188	3.0
116.202	6.0
116.217	2.0
116.232	3.0
116.247	5.0
116.262	4.0
116.277	6.0
116.291	5.0
116.306	4.0
116.321	1.0
116.336	4.0
116.351	4.0
116.366	6.0
116.38	4.0
116.395	5.0
116.41	1.0
116.425	3.0
116.44	2.0
116.454	5.0
116.469	3.0
116.484	6.0
116.499	2.0
116.514	4.0
116.528	3.0
116.543	4.0
116.558	1.0
116.573	6.0
116.588	2.0
116.602	5.0
116.617	2.0
116.632	3.0
116.647	2.0
116.662	5.0
116.676	3.0
116.691	3.0
116.706	3.0
116.721	6.0
116.735	4.0
116.75	6.0
116.765	4.0
116.78	2.0
116.795	0.0
116.809	5.0
116.824	5.0
116.839	1.0
116.854	3.0
116.868	3.0
116.883	5.0
116.898	4.0
116.913	4.0
116.927	2.0
116.942	7.0
116.957	2.0
116.972	6.0
116.986	5.0
117.001	1.0
117.016	2.0
117.031	4.0
117.045	2.0
117.06	5.0
117.075	1.0
117.09	2.0
117.104	5.0
117.119	5.0
117.134	4.0
117.149	3.0
117.163	4.0
117.178	3.0
117.193	5.0
117.208	5.0
117.222	2.0
117.237	5.0
117.252	4.0
117.267	4.0
117.281	2.0
117.296	1.0
117.311	3.0
117.325	2.0
117.34	3.0
117.355	5.0
117.37	4.0
117.384	5.0
117.399	6.0
117.414	1.0
117.429	4.0
117.443	4.0
117.458	2.0
117.473	3.0
117.487	2.0
117.502	4.0
117.517	4.0
117.532	5.0
117.546	3.0
117.561	2.0
117.576	4.0
117.59	2.0
117.605	5.0
117.62	4.0
117.635	4.0
117.649	3.0
117.664	2.0
117.679	2.0
117.693	1.0
117.708	4.0
117.723	2.0
117.738	2.0
117.752	3.0
117.767	2.0
117.782	2.0
117.796	5.0
117.811	1.0
117.826	4.0
117.841	6.0
117.855	2.0
117.87	1.0
117.885	8.0
117.899	7.0
117.914	7.0
117.929	2.0
117.944	1.0
117.958	6.0
117.973	1.0
117.988	3.0
118.002	3.0
118.017	1.0
118.032	1.0
118.047	3.0
118.062	4.0
118.077	9.0
118.092	2.0
118.107	2.0
118.121	1.0
118.136	5.0
118.151	5.0
118.166	7.0
118.181	4.0
118.196	9.0
118.211	6.0
118.225	7.0
118.24	2.0
118.255	2.0
118.27	6.0
118.285	5.0
118.3	5.0
118.315	5.0
118.33	4.0
118.344	2.0
118.359	6.0
118.374	3.0
118.389	1.0
118.404	5.0
118.419	5.0
118.434	7.0
118.449	0.0
118.463	2.0
118.478	1.0
118.493	7.0
118.508	1.0
118.523	4.0
118.538	7.0
118.553	4.0
118.567	1.0
118.582	0.0
118.597	5.0
118.612	2.0
118.627	2.0
118.642	3.0
118.657	4.0
118.672	4.0
118.686	6.0
118.701	7.0
118.716	4.0
118.731	7.0
118.746	2.0
118.761	3.0
118.776	6.0
118.791	2.0
118.805	5.0
118.82	4.0
118.835	4.0
118.85	2.0
118.865	4.0
118.88	3.0
118.895	5.0
118.909	5.0
118.924	3.0
118.939	5.0
118.954	3.0
118.969	4.0
118.984	5.0
118.999	6.0
119.014	1.0
119.028	3.0
119.043	5.0
119.058	4.0
119.073	3.0
119.088	4.0
119.103	4.0
119.118	3.0
119.133	4.0
119.147	4.0
119.162	5.0
119.177	6.0
119.192	1.0
119.207	0.0
119.222	5.0
119.237	1.0
119.251	5.0
119.266	3.0
119.281	1.0
119.296	3.0
119.311	2.0
119.326	2.0
119.341	4.0
119.356	3.0
119.37	4.0
119.385	1.0
119.4	6.0
119.415	1.0
119.43	2.0
119.445	4.0
119.46	5.0
119.475	5.0
119.489	1.0
119.504	7.0
119.519	0.0
119.534	2.0
119.549	0.0
119.564	2.0
119.579	2.0
119.593	4.0
119.608	4.0
119.623	4.0
119.638	4.0
119.653	2.0
119.668	5.0
119.683	1.0
119.698	2.0
119.712	3.0
119.727	2.0
119.742	6.0
119.757	1.0
119.772	6.0
119.787	7.0
119.802	3.0
119.817	4.0
119.831	6.0
119.846	1.0
119.861	6.0
119.876	3.0
119.891	4.0
119.906	5.0
119.921	2.0
119.935	7.0
119.95	5.0
119.965	2.0
119.98	2.0
119.995	2.0
120.01	2.0
120.025	2.0
120.04	3.0
120.054	2.0
120.069	3.0
120.084	1.0
120.099	2.0
120.114	0.0
120.129	3.0
120.144	4.0
120.159	1.0
120.173	2.0
120.188	1.0
120.203	2.0
120.218	2.0
120.233	1.0
120.248	1.0
120.263	1.0
120.277	0.0
120.292	1.0
120.307	0.0
120.322	0.0
120.337	1.0
120.352	0.0
120.367	0.0
120.382	0.0
120.396	0.0
120.411	1.0
120.426	0.0
120.441	0.0
120.456	0.0
120.471	0.0
120.486	0.0
120.501	0.0
120.515	1.0
120.53	0.0
120.545	1.0
120.56	0.0
120.575	0.0
120.59	0.0
120.605	0.0
120.619	0.0
120.634	0.0
120.649	0.0
120.664	0.0
120.679	0.0
120.694	0.0
120.709	0.0
120.724	0.0
120.738	0.0
120.753	0.0
120.768	0.0
120.783	0.0
120.798	0.0
120.813	0.0
120.828	0.0
120.843	0.0
120.857	0.0
120.872	0.0
120.887	0.0
120.902	0.0
120.917	0.0
120.932	0.0
120.947	0.0
120.961	0.0
120.976	0.0
