-1.217	0.0
-1.202	0.0
-1.187	0.0
-1.172	1.0
-1.157	0.0
-1.142	0.0
-1.128	0.0
-1.113	0.0
-1.098	0.0
-1.083	0.0
-1.068	0.0
-1.054	0.0
-1.039	0.0
-1.024	0.0
-1.009	0.0
-0.994	0.0
-0.979	0.0
-0.965	0.0
-0.95	0.0
-0.935	0.0
-0.92	0.0
-0.905	0.0
-0.891	0.0
-0.876	0.0
-0.861	0.0
-0.846	0.0
-0.831	0.0
-0.816	0.0
-0.802	0.0
-0.787	0.0
-0.772	0.0
-0.757	0.0
-0.742	0.0
-0.728	0.0
-0.713	0.0
-0.698	0.0
-0.683	1.0
-0.668	0.0
-0.653	0.0
-0.639	0.0
-0.624	0.0
-0.609	0.0
-0.594	0.0
-0.579	0.0
-0.565	0.0
-0.55	0.0
-0.535	0.0
-0.52	0.0
-0.505	0.0
-0.49	0.0
-0.476	1.0
-0.461	0.0
-0.446	0.0
-0.431	0.0
-0.416	0.0
-0.401	0.0
-0.387	0.0
-0.372	0.0
-0.357	0.0
-0.342	0.0
-0.327	0.0
-0.313	0.0
-0.298	0.0
-0.283	0.0
-0.268	1.0
-0.253	0.0
-0.238	0.0
-0.224	0.0
-0.209	0.0
-0.194	0.0
-0.179	0.0
-0.164	0.0
-0.15	0.0
-0.135	0.0
-0.12	0.0
-0.105	0.0
-0.09	0.0
-0.075	0.0
-0.061	0.0
-0.046	0.0
-0.031	0.0
-0.016	0.0
-0.001	1.0
0.013	0.0
0.028	0.0
0.043	0.0
0.058	0.0
0.073	0.0
0.088	0.0
0.102	0.0
0.117	0.0
0.132	0.0
0.147	0.0
0.162	0.0
0.176	0.0
0.191	0.0
0.206	0.0
0.221	0.0
0.236	0.0
0.251	0.0
0.265	0.0
0.28	0.0
0.295	0.0
0.31	0.0
0.325	0.0
0.339	0.0
0.354	0.0
0.369	0.0
0.384	0.0
0.399	0.0
0.414	0.0
0.428	0.0
0.443	0.0
0.458	0.0
0.473	0.0
0.488	0.0
0.502	0.0
0.517	0.0
0.532	0.0
0.547	0.0
0.562	0.0
0.577	0.0
0.591	0.0
0.606	0.0
0.621	0.0
0.636	0.0
0.651	0.0
0.665	0.0
0.68	0.0
0.695	0.0
0.71	1.0
0.725	0.0
0.74	0.0
0.754	0.0
0.769	0.0
0.784	0.0
0.799	0.0
0.814	0.0
0.828	0.0
0.843	0.0
0.858	0.0
0.873	1.0
0.888	0.0
0.903	0.0
0.917	0.0
0.932	0.0
0.947	0.0
0.962	0.0
0.977	0.0
0.991	0.0
1.006	0.0
1.021	0.0
1.036	0.0
1.051	0.0
1.065	0.0
1.08	0.0
1.095	0.0
1.11	0.0
1.125	0.0
1.14	0.0
1.154	0.0
1.169	0.0
1.184	0.0
1.199	0.0
1.214	1.0
1.228	0.0
1.243	0.0
1.258	0.0
1.273	0.0
1.288	0.0
1.302	0.0
1.317	0.0
1.332	0.0
1.347	0.0
1.362	0.0
1.376	0.0
1.391	0.0
1.406	0.0
1.421	0.0
1.436	0.0
1.45	0.0
1.465	0.0
1.48	0.0
1.495	0.0
1.51	0.0
1.524	0.0
1.539	0.0
1.554	0.0
1.569	0.0
1.584	0.0
1.598	0.0
1.613	0.0
1.628	0.0
1.643	0.0
1.658	1.0
1.672	0.0
1.687	0.0
1.702	0.0
1.717	0.0
1.732	0.0
1.746	0.0
1.761	0.0
1.776	0.0
1.791	0.0
1.806	0.0
1.82	0.0
1.835	0.0
1.85	0.0
1.865	0.0
1.88	0.0
1.894	1.0
1.909	0.0
1.924	0.0
1.939	0.0
1.954	0.0
1.968	0.0
1.983	0.0
1.998	0.0
2.013	0.0
2.028	0.0
2.042	0.0
2.057	0.0
2.072	0.0
2.087	0.0
2.101	1.0
2.116	0.0
2.131	0.0
2.146	0.0
2.161	1.0
2.175	0.0
2.19	1.0
2.205	0.0
2.22	0.0
2.235	0.0
2.249	1.0
2.264	0.0
2.279	0.0
2.294	1.0
2.308	2.0
2.323	0.0
2.338	3.0
2.353	0.0
2.368	0.0
2.382	0.0
2.397	0.0
2.412	2.0
2.427	1.0
2.442	2.0
2.456	4.0
2.471	0.0
2.486	2.0
2.501	4.0
2.515	3.0
2.53	2.0
2.545	4.0
2.56	1.0
2.575	5.0
2.589	4.0
2.604	2.0
2.619	2.0
2.634	2.0
2.649	1.0
2.663	2.0
2.678	0.0
2.693	6.0
2.708	1.0
2.722	4.0
2.737	3.0
2.752	2.0
2.767	3.0
2.782	4.0
2.796	4.0
2.811	3.0
2.826	2.0
2.841	1.0
2.856	3.0
2.87	3.0
2.885	4.0
2.9	3.0
2.915	2.0
2.93	3.0
2.944	4.0
2.959	4.0
2.974	3.0
2.989	4.0
3.004	4.0
3.018	1.0
3.033	4.0
3.048	5.0
3.063	4.0
3.078	4.0
3.092	5.0
3.107	2.0
3.122	3.0
3.137	3.0
3.152	3.0
3.166	5.0
3.181	4.0
3.196	3.0
3.211	3.0
3.226	3.0
3.24	2.0
3.255	4.0
3.27	6.0
3.285	4.0
3.3	4.0
3.315	5.0
3.329	1.0
3.344	6.0
3.359	4.0
3.374	3.0
3.389	2.0
3.403	5.0
3.418	12.0
3.433	4.0
3.448	6.0
3.463	6.0
3.478	4.0
3.492	7.0
3.507	6.0
3.522	9.0
3.537	10.0
3.552	4.0
3.567	6.0
3.581	5.0
3.596	3.0
3.611	3.0
3.626	0.0
3.641	7.0
3.656	6.0
3.671	4.0
3.685	8.0
3.7	6.0
3.715	6.0
3.73	3.0
3.745	8.0
3.76	5.0
3.775	6.0
3.789	11.0
3.804	14.0
3.819	4.0
3.834	6.0
3.849	6.0
3.864	2.0
3.879	3.0
3.894	7.0
3.908	5.0
3.923	7.0
3.938	2.0
3.953	10.0
3.968	11.0
3.983	7.0
3.998	3.0
4.013	9.0
4.027	2.0
4.042	10.0
4.057	2.0
4.072	8.0
4.087	4.0
4.102	8.0
4.117	13.0
4.132	6.0
4.147	3.0
4.162	5.0
4.176	6.0
4.191	7.0
4.206	5.0
4.221	8.0
4.236	6.0
4.251	4.0
4.266	8.0
4.281	9.0
4.296	8.0
4.311	6.0
4.326	4.0
4.341	10.0
4.356	6.0
4.37	9.0
4.385	7.0
4.4	6.0
4.415	5.0
4.43	9.0
4.445	6.0
4.46	4.0
4.475	5.0
4.49	10.0
4.505	8.0
4.52	5.0
4.535	8.0
4.55	7.0
4.565	11.0
4.58	8.0
4.595	9.0
4.61	7.0
4.625	9.0
4.639	3.0
4.654	6.0
4.669	5.0
4.684	7.0
4.699	11.0
4.714	5.0
4.729	16.0
4.744	9.0
4.759	5.0
4.774	6.0
4.789	7.0
4.804	4.0
4.819	9.0
4.834	4.0
4.849	8.0
4.864	6.0
4.879	8.0
4.894	8.0
4.909	8.0
4.924	8.0
4.939	6.0
4.954	4.0
4.969	10.0
4.984	7.0
4.999	3.0
5.014	4.0
5.029	9.0
5.044	1.0
5.059	8.0
5.074	10.0
5.089	3.0
5.104	8.0
5.119	3.0
5.134	12.0
5.149	4.0
5.164	4.0
5.179	12.0
5.194	10.0
5.209	9.0
5.224	12.0
5.239	7.0
5.254	9.0
5.269	5.0
5.284	11.0
5.299	8.0
5.314	2.0
5.329	4.0
5.344	11.0
5.359	11.0
5.374	13.0
5.389	11.0
5.404	9.0
5.419	7.0
5.434	2.0
5.449	7.0
5.464	3.0
5.479	11.0
5.494	8.0
5.509	9.0
5.524	9.0
5.539	7.0
5.554	13.0
5.569	9.0
5.584	11.0
5.599	11.0
5.614	5.0
5.629	9.0
5.644	8.0
5.659	6.0
5.674	8.0
5.689	8.0
5.704	11.0
5.719	13.0
5.734	10.0
5.749	10.0
5.764	7.0
5.779	4.0
5.794	10.0
5.809	5.0
5.824	12.0
5.839	12.0
5.854	5.0
5.869	8.0
5.884	8.0
5.899	10.0
5.914	5.0
5.929	6.0
5.944	9.0
5.959	9.0
5.974	8.0
5.989	15.0
6.004	8.0
6.019	1.0
6.034	9.0
6.049	16.0
6.064	9.0
6.079	7.0
6.094	2.0
6.109	11.0
6.124	9.0
6.139	7.0
6.154	11.0
6.169	16.0
6.184	2.0
6.199	5.0
6.214	5.0
6.229	10.0
6.244	8.0
6.259	5.0
6.274	15.0
6.289	6.0
6.304	6.0
6.319	6.0
6.334	8.0
6.349	9.0
6.364	12.0
6.379	12.0
6.394	4.0
6.409	6.0
6.424	13.0
6.439	9.0
6.454	10.0
6.469	9.0
6.484	5.0
6.499	8.0
6.514	13.0
6.529	8.0
6.544	11.0
6.559	6.0
6.574	10.0
6.589	11.0
6.604	8.0
6.619	9.0
6.634	14.0
6.649	7.0
6.664	9.0
6.679	8.0
6.694	11.0
6.709	10.0
6.724	10.0
6.739	7.0
6.754	9.0
6.769	13.0
6.784	8.0
6.799	6.0
6.814	11.0
6.829	8.0
6.844	9.0
6.859	6.0
6.873	8.0
6.888	8.0
6.903	8.0
6.918	3.0
6.933	9.0
6.948	9.0
6.963	4.0
6.978	6.0
6.993	9.0
7.008	8.0
7.023	6.0
7.038	4.0
7.053	10.0
7.068	13.0
7.083	8.0
7.098	13.0
7.113	8.0
7.128	10.0
7.143	10.0
7.157	8.0
7.172	16.0
7.187	7.0
7.202	5.0
7.217	7.0
7.232	14.0
7.247	7.0
7.262	17.0
7.277	9.0
7.292	7.0
7.307	8.0
7.322	8.0
7.336	9.0
7.351	6.0
7.366	9.0
7.381	5.0
7.396	9.0
7.411	15.0
7.426	7.0
7.441	9.0
7.456	7.0
7.471	12.0
7.485	7.0
7.5	8.0
7.515	13.0
7.53	10.0
7.545	7.0
7.56	9.0
7.575	8.0
7.59	7.0
7.604	12.0
7.619	7.0
7.634	9.0
7.649	11.0
7.664	4.0
7.679	10.0
7.693	3.0
7.708	10.0
7.723	11.0
7.738	9.0
7.753	6.0
7.768	7.0
7.783	14.0
7.797	6.0
7.812	11.0
7.827	3.0
7.842	9.0
7.857	7.0
7.871	10.0
7.886	6.0
7.901	8.0
7.916	11.0
7.931	6.0
7.945	8.0
7.96	11.0
7.975	13.0
7.99	9.0
8.005	4.0
8.019	9.0
8.034	9.0
8.049	8.0
8.064	4.0
8.078	9.0
8.093	6.0
8.108	7.0
8.123	10.0
8.137	12.0
8.152	10.0
8.167	7.0
8.182	15.0
8.196	9.0
8.211	8.0
8.226	10.0
8.241	4.0
8.255	8.0
8.27	4.0
8.285	3.0
8.3	6.0
8.314	2.0
8.329	8.0
8.344	5.0
8.358	12.0
8.373	5.0
8.388	8.0
8.403	11.0
8.417	6.0
8.432	8.0
8.447	6.0
8.461	12.0
8.476	12.0
8.491	6.0
8.505	9.0
8.52	7.0
8.535	11.0
8.55	8.0
8.564	4.0
8.579	8.0
8.594	10.0
8.608	7.0
8.623	9.0
8.638	13.0
8.652	11.0
8.667	9.0
8.682	8.0
8.696	11.0
8.711	10.0
8.726	13.0
8.74	4.0
8.755	9.0
8.77	14.0
8.784	11.0
8.799	7.0
8.814	9.0
8.828	8.0
8.843	7.0
8.858	14.0
8.872	10.0
8.887	9.0
8.902	12.0
8.916	9.0
8.931	9.0
8.946	11.0
8.96	9.0
8.975	5.0
8.99	10.0
9.004	11.0
9.019	8.0
9.034	5.0
9.048	9.0
9.063	8.0
9.077	13.0
9.092	8.0
9.107	10.0
9.121	6.0
9.136	13.0
9.151	10.0
9.165	8.0
9.18	5.0
9.195	9.0
9.209	9.0
9.224	9.0
9.239	9.0
9.253	6.0
9.268	6.0
9.283	8.0
9.297	7.0
9.312	6.0
9.327	8.0
9.341	6.0
9.356	3.0
9.371	4.0
9.385	11.0
9.4	10.0
9.415	5.0
9.429	10.0
9.444	6.0
9.458	13.0
9.473	3.0
9.488	12.0
9.502	9.0
9.517	3.0
9.532	7.0
9.546	4.0
9.561	7.0
9.576	7.0
9.59	4.0
9.605	8.0
9.62	5.0
9.635	7.0
9.649	19.0
9.664	9.0
9.679	13.0
9.693	8.0
9.708	10.0
9.723	12.0
9.737	9.0
9.752	13.0
9.767	5.0
9.781	11.0
9.796	12.0
9.811	9.0
9.825	8.0
9.84	9.0
9.855	5.0
9.87	7.0
9.884	7.0
9.899	10.0
9.914	9.0
9.928	9.0
9.943	4.0
9.958	10.0
9.973	8.0
9.987	9.0
10.002	8.0
10.017	13.0
10.031	12.0
10.046	8.0
10.061	10.0
10.076	12.0
10.09	11.0
10.105	9.0
10.12	7.0
10.135	11.0
10.149	12.0
10.164	10.0
10.179	11.0
10.194	9.0
10.208	12.0
10.223	9.0
10.238	11.0
10.253	10.0
10.267	7.0
10.282	8.0
10.297	10.0
10.312	6.0
10.326	11.0
10.341	3.0
10.356	6.0
10.371	4.0
10.386	13.0
10.4	3.0
10.415	7.0
10.43	7.0
10.445	12.0
10.46	11.0
10.474	4.0
10.489	2.0
10.504	6.0
10.519	6.0
10.533	7.0
10.548	5.0
10.563	14.0
10.578	9.0
10.593	12.0
10.608	8.0
10.622	7.0
10.637	11.0
10.652	6.0
10.667	7.0
10.682	6.0
10.696	9.0
10.711	7.0
10.726	5.0
10.741	10.0
10.756	7.0
10.771	11.0
10.785	6.0
10.8	12.0
10.815	7.0
10.83	6.0
10.845	2.0
10.86	4.0
10.874	7.0
10.889	9.0
10.904	15.0
10.919	8.0
10.934	9.0
10.949	5.0
10.963	8.0
10.978	4.0
10.993	9.0
11.008	7.0
11.023	12.0
11.038	8.0
11.053	2.0
11.067	6.0
11.082	12.0
11.097	6.0
11.112	13.0
11.127	10.0
11.142	5.0
11.157	8.0
11.172	12.0
11.186	9.0
11.201	7.0
11.216	3.0
11.231	9.0
11.246	9.0
11.261	7.0
11.276	8.0
11.291	7.0
11.305	5.0
11.32	6.0
11.335	4.0
11.35	10.0
11.365	16.0
11.38	4.0
11.395	12.0
11.41	6.0
11.424	9.0
11.439	6.0
11.454	10.0
11.469	10.0
11.484	3.0
11.499	7.0
11.514	9.0
11.529	5.0
11.544	11.0
11.558	8.0
11.573	8.0
11.588	7.0
11.603	6.0
11.618	3.0
11.633	12.0
11.648	5.0
11.663	9.0
11.678	9.0
11.693	8.0
11.707	4.0
11.722	7.0
11.737	8.0
11.752	7.0
11.767	6.0
11.782	8.0
11.797	3.0
11.812	5.0
11.827	8.0
11.842	12.0
11.856	9.0
11.871	7.0
11.886	10.0
11.901	15.0
11.916	11.0
11.931	8.0
11.946	6.0
11.961	9.0
11.976	9.0
11.991	9.0
12.006	12.0
12.02	11.0
12.035	11.0
12.05	12.0
12.065	10.0
12.08	9.0
12.095	16.0
12.11	12.0
12.125	11.0
12.14	10.0
12.155	10.0
12.17	10.0
12.184	5.0
12.199	10.0
12.214	12.0
12.229	10.0
12.244	10.0
12.259	7.0
12.274	7.0
12.289	5.0
12.304	9.0
12.319	9.0
12.334	14.0
12.348	14.0
12.363	10.0
12.378	12.0
12.393	12.0
12.408	9.0
12.423	13.0
12.438	14.0
12.453	12.0
12.468	13.0
12.483	11.0
12.498	11.0
12.513	17.0
12.527	5.0
12.542	18.0
12.557	12.0
12.572	12.0
12.587	13.0
12.602	9.0
12.617	9.0
12.632	7.0
12.647	15.0
12.662	7.0
12.677	8.0
12.692	17.0
12.707	10.0
12.721	19.0
12.736	20.0
12.751	14.0
12.766	5.0
12.781	11.0
12.796	10.0
12.811	20.0
12.826	9.0
12.841	9.0
12.856	13.0
12.871	12.0
12.886	18.0
12.9	13.0
12.915	12.0
12.93	16.0
12.945	14.0
12.96	16.0
12.975	15.0
12.99	10.0
13.005	15.0
13.02	17.0
13.035	14.0
13.05	16.0
13.065	19.0
13.08	15.0
13.094	16.0
13.109	18.0
13.124	10.0
13.139	14.0
13.154	18.0
13.169	19.0
13.184	19.0
13.199	20.0
13.214	10.0
13.229	20.0
13.244	22.0
13.259	18.0
13.274	18.0
13.288	14.0
13.303	18.0
13.318	21.0
13.333	20.0
13.348	19.0
13.363	24.0
13.378	18.0
13.393	21.0
13.408	33.0
13.423	28.0
13.438	36.0
13.453	27.0
13.468	40.0
13.482	37.0
13.497	36.0
13.512	56.0
13.527	46.0
13.542	40.0
13.557	44.0
13.572	42.0
13.587	51.0
13.602	68.0
13.617	77.0
13.632	80.0
13.647	74.0
13.662	68.0
13.677	79.0
13.691	68.0
13.706	72.0
13.721	91.0
13.736	105.0
13.751	118.0
13.766	116.0
13.781	125.0
13.796	137.0
13.811	122.0
13.826	132.0
13.841	142.0
13.856	105.0
13.871	124.0
13.885	97.0
13.9	84.0
13.915	76.0
13.93	61.0
13.945	46.0
13.96	57.0
13.975	32.0
13.99	43.0
14.005	38.0
14.02	33.0
14.035	27.0
14.05	29.0
14.065	33.0
14.08	28.0
14.094	18.0
14.109	23.0
14.124	18.0
14.139	21.0
14.154	18.0
14.169	18.0
14.184	28.0
14.199	29.0
14.214	22.0
14.229	27.0
14.244	15.0
14.259	28.0
14.274	15.0
14.288	27.0
14.303	18.0
14.318	20.0
14.333	22.0
14.348	20.0
14.363	19.0
14.378	14.0
14.393	18.0
14.408	30.0
14.423	20.0
14.438	19.0
14.453	16.0
14.468	12.0
14.482	17.0
14.497	19.0
14.512	16.0
14.527	21.0
14.542	21.0
14.557	20.0
14.572	14.0
14.587	12.0
14.602	25.0
14.617	10.0
14.632	17.0
14.647	17.0
14.661	22.0
14.676	21.0
14.691	15.0
14.706	19.0
14.721	16.0
14.736	11.0
14.751	11.0
14.766	23.0
14.781	15.0
14.796	16.0
14.811	18.0
14.826	17.0
14.84	13.0
14.855	18.0
14.87	19.0
14.885	14.0
14.9	23.0
14.915	22.0
14.93	13.0
14.945	23.0
14.96	10.0
14.975	12.0
14.989	15.0
15.004	9.0
15.019	12.0
15.034	11.0
15.049	15.0
15.064	12.0
15.079	15.0
15.094	16.0
15.109	19.0
15.124	14.0
15.138	19.0
15.153	16.0
15.168	6.0
15.183	13.0
15.198	13.0
15.213	14.0
15.228	9.0
15.243	21.0
15.258	17.0
15.272	15.0
15.287	19.0
15.302	14.0
15.317	16.0
15.332	20.0
15.347	16.0
15.362	18.0
15.377	8.0
15.391	11.0
15.406	13.0
15.421	15.0
15.436	13.0
15.451	13.0
15.466	12.0
15.481	14.0
15.496	17.0
15.51	12.0
15.525	14.0
15.54	15.0
15.555	12.0
15.57	15.0
15.585	18.0
15.6	18.0
15.614	14.0
15.629	23.0
15.644	23.0
15.659	18.0
15.674	17.0
15.689	11.0
15.704	10.0
15.718	13.0
15.733	16.0
15.748	10.0
15.763	15.0
15.778	7.0
15.793	16.0
15.808	13.0
15.822	11.0
15.837	14.0
15.852	21.0
15.867	11.0
15.882	11.0
15.897	18.0
15.911	12.0
15.926	8.0
15.941	11.0
15.956	14.0
15.971	13.0
15.986	15.0
16.0	16.0
16.015	17.0
16.03	15.0
16.045	17.0
16.06	9.0
16.074	15.0
16.089	12.0
16.104	18.0
16.119	15.0
16.134	12.0
16.149	14.0
16.163	15.0
16.178	11.0
16.193	11.0
16.208	10.0
16.223	12.0
16.237	19.0
16.252	17.0
16.267	13.0
16.282	17.0
16.297	19.0
16.311	10.0
16.326	15.0
16.341	10.0
16.356	14.0
16.37	16.0
16.385	11.0
16.4	14.0
16.415	13.0
16.43	14.0
16.444	6.0
16.459	11.0
16.474	15.0
16.489	11.0
16.504	10.0
16.518	12.0
16.533	18.0
16.548	16.0
16.563	16.0
16.577	13.0
16.592	18.0
16.607	19.0
16.622	19.0
16.637	18.0
16.651	17.0
16.666	21.0
16.681	16.0
16.696	26.0
16.71	26.0
16.725	24.0
16.74	31.0
16.755	31.0
16.77	24.0
16.784	37.0
16.799	40.0
16.814	42.0
16.829	35.0
16.843	37.0
16.858	48.0
16.873	53.0
16.888	51.0
16.902	69.0
16.917	64.0
16.932	65.0
16.947	65.0
16.961	74.0
16.976	66.0
16.991	79.0
17.006	61.0
17.021	51.0
17.035	61.0
17.05	58.0
17.065	37.0
17.08	28.0
17.094	29.0
17.109	29.0
17.124	26.0
17.139	21.0
17.153	19.0
17.168	18.0
17.183	20.0
17.198	18.0
17.212	15.0
17.227	17.0
17.242	13.0
17.257	12.0
17.271	15.0
17.286	18.0
17.301	13.0
17.316	18.0
17.33	10.0
17.345	10.0
17.36	11.0
17.375	12.0
17.39	14.0
17.404	8.0
17.419	13.0
17.434	9.0
17.449	10.0
17.463	15.0
17.478	11.0
17.493	13.0
17.508	15.0
17.522	18.0
17.537	20.0
17.552	10.0
17.567	11.0
17.581	6.0
17.596	14.0
17.611	22.0
17.626	5.0
17.641	11.0
17.655	8.0
17.67	13.0
17.685	16.0
17.7	10.0
17.714	12.0
17.729	8.0
17.744	13.0
17.759	11.0
17.773	10.0
17.788	12.0
17.803	9.0
17.818	10.0
17.833	16.0
17.847	10.0
17.862	13.0
17.877	19.0
17.892	14.0
17.906	13.0
17.921	11.0
17.936	6.0
17.951	12.0
17.966	13.0
17.98	13.0
17.995	11.0
18.01	9.0
18.025	14.0
18.04	14.0
18.054	13.0
18.069	14.0
18.084	10.0
18.099	12.0
18.114	9.0
18.128	10.0
18.143	17.0
18.158	14.0
18.173	11.0
18.188	15.0
18.202	11.0
18.217	16.0
18.232	9.0
18.247	13.0
18.262	8.0
18.276	12.0
18.291	13.0
18.306	22.0
18.321	11.0
18.336	14.0
18.35	12.0
18.365	9.0
18.38	9.0
18.395	7.0
18.41	12.0
18.424	5.0
18.439	8.0
18.454	12.0
18.469	9.0
18.484	6.0
18.498	14.0
18.513	12.0
18.528	15.0
18.543	16.0
18.558	16.0
18.573	11.0
18.587	11.0
18.602	14.0
18.617	16.0
18.632	13.0
18.647	7.0
18.661	6.0
18.676	13.0
18.691	12.0
18.706	13.0
18.721	11.0
18.736	16.0
18.75	17.0
18.765	12.0
18.78	6.0
18.795	9.0
18.81	13.0
18.825	12.0
18.839	14.0
18.854	4.0
18.869	10.0
18.884	12.0
18.899	11.0
18.913	14.0
18.928	14.0
18.943	13.0
18.958	13.0
18.973	9.0
18.988	15.0
19.002	9.0
19.017	9.0
19.032	14.0
19.047	13.0
19.062	11.0
19.077	11.0
19.091	10.0
19.106	9.0
19.121	10.0
19.136	19.0
19.151	10.0
19.165	8.0
19.18	8.0
19.195	12.0
19.21	16.0
19.225	17.0
19.24	7.0
19.254	12.0
19.269	9.0
19.284	10.0
19.299	8.0
19.314	7.0
19.329	6.0
19.343	15.0
19.358	10.0
19.373	15.0
19.388	13.0
19.403	19.0
19.417	23.0
19.432	19.0
19.447	29.0
19.462	18.0
19.477	36.0
19.492	18.0
19.506	32.0
19.521	38.0
19.536	30.0
19.551	33.0
19.566	39.0
19.58	52.0
19.595	48.0
19.61	41.0
19.625	46.0
19.64	45.0
19.655	30.0
19.669	41.0
19.684	32.0
19.699	20.0
19.714	30.0
19.729	23.0
19.743	17.0
19.758	26.0
19.773	25.0
19.788	20.0
19.803	12.0
19.817	15.0
19.832	19.0
19.847	21.0
19.862	20.0
19.877	17.0
19.891	11.0
19.906	8.0
19.921	14.0
19.936	12.0
19.951	10.0
19.965	14.0
19.98	10.0
19.995	16.0
20.01	12.0
20.025	10.0
20.039	12.0
20.054	12.0
20.069	12.0
20.084	8.0
20.099	9.0
20.113	15.0
20.128	14.0
20.143	11.0
20.158	7.0
20.173	8.0
20.187	12.0
20.202	11.0
20.217	7.0
20.232	6.0
20.246	7.0
20.261	7.0
20.276	12.0
20.291	9.0
20.306	8.0
20.32	10.0
20.335	12.0
20.35	14.0
20.365	9.0
20.38	10.0
20.394	9.0
20.409	7.0
20.424	13.0
20.439	12.0
20.453	12.0
20.468	12.0
20.483	7.0
20.498	8.0
20.513	7.0
20.527	7.0
20.542	10.0
20.557	8.0
20.572	11.0
20.586	7.0
20.601	17.0
20.616	11.0
20.631	10.0
20.646	10.0
20.66	14.0
20.675	9.0
20.69	9.0
20.705	14.0
20.719	13.0
20.734	6.0
20.749	9.0
20.764	13.0
20.779	12.0
20.793	11.0
20.808	13.0
20.823	18.0
20.838	16.0
20.853	15.0
20.867	13.0
20.882	6.0
20.897	12.0
20.912	10.0
20.926	10.0
20.941	9.0
20.956	13.0
20.971	13.0
20.986	5.0
21.0	3.0
21.015	10.0
21.03	12.0
21.045	12.0
21.06	12.0
21.074	9.0
21.089	17.0
21.104	14.0
21.119	9.0
21.134	16.0
21.148	6.0
21.163	11.0
21.178	10.0
21.193	10.0
21.208	10.0
21.222	11.0
21.237	18.0
21.252	7.0
21.267	16.0
21.282	8.0
21.296	8.0
21.311	13.0
21.326	11.0
21.341	10.0
21.356	10.0
21.37	12.0
21.385	13.0
21.4	5.0
21.415	10.0
21.43	11.0
21.444	12.0
21.459	11.0
21.474	15.0
21.489	14.0
21.504	13.0
21.519	22.0
21.533	15.0
21.548	15.0
21.563	12.0
21.578	13.0
21.593	15.0
21.608	10.0
21.622	11.0
21.637	26.0
21.652	13.0
21.667	14.0
21.682	21.0
21.697	23.0
21.712	16.0
21.726	17.0
21.741	19.0
21.756	29.0
21.771	25.0
21.786	35.0
21.801	34.0
21.816	42.0
21.83	49.0
21.845	44.0
21.86	58.0
21.875	73.0
21.89	65.0
21.905	74.0
21.92	83.0
21.935	83.0
21.949	84.0
21.964	71.0
21.979	78.0
21.994	87.0
22.009	52.0
22.024	61.0
22.039	61.0
22.054	48.0
22.069	45.0
22.083	40.0
22.098	45.0
22.113	34.0
22.128	31.0
22.143	33.0
22.158	24.0
22.173	10.0
22.188	14.0
22.203	11.0
22.218	16.0
22.233	14.0
22.248	12.0
22.262	15.0
22.277	14.0
22.292	15.0
22.307	16.0
22.322	10.0
22.337	11.0
22.352	13.0
22.367	13.0
22.382	11.0
22.397	15.0
22.412	7.0
22.427	21.0
22.442	7.0
22.457	9.0
22.472	18.0
22.487	16.0
22.502	9.0
22.516	10.0
22.531	11.0
22.546	13.0
22.561	10.0
22.576	17.0
22.591	17.0
22.606	7.0
22.621	6.0
22.636	11.0
22.651	14.0
22.666	6.0
22.681	5.0
22.696	8.0
22.711	13.0
22.726	10.0
22.741	14.0
22.756	12.0
22.771	12.0
22.786	10.0
22.801	9.0
22.816	13.0
22.831	11.0
22.846	8.0
22.861	8.0
22.876	10.0
22.891	8.0
22.906	14.0
22.92	9.0
22.935	13.0
22.95	10.0
22.965	12.0
22.98	13.0
22.995	12.0
23.01	7.0
23.025	5.0
23.04	17.0
23.055	6.0
23.07	10.0
23.085	5.0
23.1	10.0
23.115	6.0
23.13	7.0
23.145	10.0
23.16	10.0
23.175	11.0
23.19	10.0
23.205	12.0
23.22	13.0
23.235	14.0
23.25	10.0
23.265	11.0
23.28	6.0
23.295	9.0
23.31	12.0
23.325	10.0
23.34	9.0
23.355	9.0
23.37	13.0
23.384	6.0
23.399	8.0
23.414	13.0
23.429	10.0
23.444	15.0
23.459	6.0
23.474	8.0
23.489	12.0
23.504	10.0
23.519	15.0
23.534	14.0
23.549	9.0
23.564	12.0
23.579	14.0
23.594	18.0
23.609	8.0
23.624	11.0
23.639	9.0
23.654	7.0
23.668	11.0
23.683	6.0
23.698	11.0
23.713	13.0
23.728	12.0
23.743	10.0
23.758	10.0
23.773	16.0
23.788	15.0
23.803	7.0
23.818	16.0
23.833	11.0
23.848	20.0
23.862	11.0
23.877	16.0
23.892	17.0
23.907	23.0
23.922	25.0
23.937	30.0
23.952	21.0
23.967	36.0
23.982	42.0
23.997	38.0
24.011	42.0
24.026	45.0
24.041	49.0
24.056	42.0
24.071	60.0
24.086	41.0
24.101	50.0
24.116	56.0
24.131	48.0
24.145	41.0
24.16	32.0
24.175	22.0
24.19	38.0
24.205	30.0
24.22	32.0
24.235	38.0
24.249	27.0
24.264	18.0
24.279	21.0
24.294	17.0
24.309	18.0
24.324	18.0
24.338	19.0
24.353	19.0
24.368	17.0
24.383	15.0
24.398	8.0
24.413	9.0
24.428	22.0
24.442	5.0
24.457	13.0
24.472	12.0
24.487	8.0
24.502	8.0
24.516	9.0
24.531	10.0
24.546	12.0
24.561	8.0
24.576	10.0
24.591	20.0
24.605	11.0
24.62	11.0
24.635	11.0
24.65	12.0
24.665	13.0
24.679	10.0
24.694	17.0
24.709	6.0
24.724	12.0
24.739	16.0
24.753	7.0
24.768	11.0
24.783	9.0
24.798	17.0
24.813	11.0
24.827	11.0
24.842	8.0
24.857	8.0
24.872	8.0
24.886	3.0
24.901	15.0
24.916	8.0
24.931	8.0
24.946	6.0
24.96	11.0
24.975	17.0
24.99	8.0
25.005	9.0
25.019	10.0
25.034	5.0
25.049	9.0
25.064	8.0
25.078	3.0
25.093	10.0
25.108	17.0
25.123	11.0
25.138	8.0
25.152	11.0
25.167	10.0
25.182	6.0
25.197	6.0
25.211	8.0
25.226	9.0
25.241	5.0
25.256	7.0
25.27	4.0
25.285	4.0
25.3	10.0
25.315	15.0
25.329	10.0
25.344	16.0
25.359	8.0
25.374	6.0
25.388	14.0
25.403	11.0
25.418	13.0
25.433	5.0
25.447	16.0
25.462	9.0
25.477	16.0
25.492	6.0
25.506	7.0
25.521	12.0
25.536	9.0
25.55	10.0
25.565	11.0
25.58	9.0
25.595	10.0
25.609	10.0
25.624	8.0
25.639	9.0
25.654	7.0
25.668	5.0
25.683	11.0
25.698	9.0
25.713	9.0
25.727	11.0
25.742	14.0
25.757	11.0
25.772	6.0
25.786	7.0
25.801	9.0
25.816	5.0
25.83	6.0
25.845	10.0
25.86	7.0
25.875	6.0
25.889	14.0
25.904	9.0
25.919	15.0
25.934	9.0
25.948	13.0
25.963	5.0
25.978	14.0
25.992	14.0
26.007	7.0
26.022	14.0
26.037	11.0
26.051	6.0
26.066	8.0
26.081	12.0
26.096	14.0
26.11	12.0
26.125	7.0
26.14	8.0
26.155	7.0
26.169	11.0
26.184	12.0
26.199	10.0
26.213	16.0
26.228	6.0
26.243	17.0
26.258	10.0
26.272	10.0
26.287	11.0
26.302	7.0
26.317	8.0
26.331	17.0
26.346	15.0
26.361	9.0
26.376	13.0
26.39	6.0
26.405	12.0
26.42	14.0
26.434	10.0
26.449	6.0
26.464	7.0
26.479	13.0
26.493	7.0
26.508	10.0
26.523	17.0
26.538	5.0
26.552	11.0
26.567	5.0
26.582	11.0
26.597	10.0
26.611	8.0
26.626	14.0
26.641	4.0
26.656	11.0
26.67	6.0
26.685	9.0
26.7	10.0
26.715	15.0
26.729	10.0
26.744	10.0
26.759	14.0
26.773	9.0
26.788	13.0
26.803	10.0
26.818	7.0
26.832	13.0
26.847	7.0
26.862	6.0
26.877	10.0
26.891	10.0
26.906	10.0
26.921	6.0
26.936	7.0
26.95	7.0
26.965	8.0
26.98	8.0
26.995	10.0
27.01	9.0
27.024	7.0
27.039	3.0
27.054	6.0
27.069	14.0
27.083	4.0
27.098	14.0
27.113	4.0
27.128	12.0
27.142	10.0
27.157	11.0
27.172	7.0
27.187	8.0
27.201	7.0
27.216	8.0
27.231	6.0
27.246	11.0
27.261	13.0
27.275	12.0
27.29	6.0
27.305	5.0
27.32	9.0
27.334	5.0
27.349	10.0
27.364	9.0
27.379	2.0
27.394	9.0
27.408	8.0
27.423	4.0
27.438	13.0
27.453	7.0
27.467	10.0
27.482	6.0
27.497	7.0
27.512	16.0
27.527	5.0
27.541	6.0
27.556	13.0
27.571	6.0
27.586	9.0
27.601	16.0
27.615	13.0
27.63	11.0
27.645	10.0
27.66	17.0
27.675	10.0
27.689	16.0
27.704	17.0
27.719	10.0
27.734	21.0
27.749	15.0
27.763	25.0
27.778	18.0
27.793	24.0
27.808	24.0
27.823	29.0
27.838	22.0
27.852	25.0
27.867	22.0
27.882	25.0
27.897	20.0
27.912	17.0
27.926	31.0
27.941	24.0
27.956	14.0
27.971	13.0
27.986	20.0
28.001	11.0
28.015	15.0
28.03	21.0
28.045	15.0
28.06	17.0
28.075	12.0
28.09	14.0
28.105	14.0
28.119	15.0
28.134	20.0
28.149	12.0
28.164	12.0
28.179	10.0
28.194	18.0
28.208	8.0
28.223	16.0
28.238	12.0
28.253	11.0
28.268	15.0
28.283	14.0
28.298	4.0
28.312	14.0
28.327	13.0
28.342	12.0
28.357	10.0
28.372	13.0
28.387	8.0
28.402	4.0
28.417	11.0
28.431	16.0
28.446	10.0
28.461	7.0
28.476	9.0
28.491	12.0
28.506	9.0
28.521	11.0
28.536	8.0
28.55	14.0
28.565	10.0
28.58	5.0
28.595	12.0
28.61	10.0
28.625	17.0
28.64	7.0
28.655	10.0
28.669	9.0
28.684	10.0
28.699	15.0
28.714	6.0
28.729	12.0
28.744	13.0
28.759	10.0
28.774	9.0
28.788	13.0
28.803	9.0
28.818	10.0
28.833	6.0
28.848	7.0
28.863	12.0
28.878	16.0
28.893	7.0
28.908	7.0
28.922	4.0
28.937	8.0
28.952	4.0
28.967	9.0
28.982	11.0
28.997	10.0
29.012	9.0
29.027	11.0
29.041	9.0
29.056	11.0
29.071	8.0
29.086	11.0
29.101	9.0
29.116	15.0
29.131	9.0
29.146	8.0
29.16	11.0
29.175	16.0
29.19	14.0
29.205	10.0
29.22	20.0
29.235	16.0
29.25	9.0
29.265	11.0
29.279	11.0
29.294	13.0
29.309	15.0
29.324	13.0
29.339	11.0
29.354	14.0
29.369	12.0
29.384	21.0
29.398	13.0
29.413	19.0
29.428	13.0
29.443	18.0
29.458	20.0
29.473	33.0
29.488	24.0
29.502	34.0
29.517	36.0
29.532	34.0
29.547	45.0
29.562	42.0
29.577	44.0
29.592	48.0
29.606	49.0
29.621	46.0
29.636	58.0
29.651	50.0
29.666	34.0
29.681	36.0
29.695	46.0
29.71	31.0
29.725	31.0
29.74	23.0
29.755	26.0
29.77	26.0
29.784	31.0
29.799	33.0
29.814	35.0
29.829	26.0
29.844	23.0
29.859	23.0
29.873	17.0
29.888	17.0
29.903	21.0
29.918	15.0
29.933	11.0
29.947	13.0
29.962	15.0
29.977	10.0
29.992	12.0
30.007	7.0
30.021	17.0
30.036	14.0
30.051	15.0
30.066	10.0
30.081	18.0
30.095	11.0
30.11	9.0
30.125	14.0
30.14	12.0
30.155	17.0
30.169	9.0
30.184	8.0
30.199	18.0
30.214	12.0
30.228	10.0
30.243	21.0
30.258	10.0
30.273	6.0
30.288	13.0
30.302	14.0
30.317	7.0
30.332	10.0
30.347	13.0
30.361	15.0
30.376	14.0
30.391	14.0
30.406	6.0
30.42	9.0
30.435	9.0
30.45	14.0
30.465	10.0
30.479	15.0
30.494	8.0
30.509	11.0
30.524	12.0
30.538	19.0
30.553	16.0
30.568	9.0
30.583	10.0
30.597	7.0
30.612	10.0
30.627	6.0
30.641	15.0
30.656	10.0
30.671	16.0
30.686	7.0
30.7	8.0
30.715	5.0
30.73	6.0
30.745	9.0
30.759	8.0
30.774	14.0
30.789	16.0
30.803	15.0
30.818	10.0
30.833	17.0
30.848	8.0
30.862	12.0
30.877	9.0
30.892	14.0
30.906	9.0
30.921	10.0
30.936	10.0
30.951	6.0
30.965	9.0
30.98	11.0
30.995	8.0
31.009	8.0
31.024	12.0
31.039	19.0
31.053	11.0
31.068	15.0
31.083	11.0
31.098	20.0
31.112	11.0
31.127	21.0
31.142	22.0
31.156	23.0
31.171	21.0
31.186	29.0
31.2	29.0
31.215	28.0
31.23	40.0
31.245	36.0
31.259	22.0
31.274	41.0
31.289	37.0
31.303	39.0
31.318	34.0
31.333	30.0
31.347	27.0
31.362	21.0
31.377	26.0
31.392	27.0
31.406	33.0
31.421	28.0
31.436	18.0
31.45	25.0
31.465	28.0
31.48	17.0
31.494	20.0
31.509	25.0
31.524	17.0
31.538	13.0
31.553	13.0
31.568	15.0
31.583	12.0
31.597	8.0
31.612	7.0
31.627	8.0
31.641	8.0
31.656	9.0
31.671	11.0
31.685	8.0
31.7	10.0
31.715	13.0
31.729	12.0
31.744	7.0
31.759	11.0
31.774	14.0
31.788	10.0
31.803	13.0
31.818	10.0
31.832	6.0
31.847	10.0
31.862	7.0
31.876	8.0
31.891	11.0
31.906	10.0
31.92	10.0
31.935	7.0
31.95	7.0
31.965	12.0
31.979	10.0
31.994	15.0
32.009	12.0
32.023	9.0
32.038	15.0
32.053	16.0
32.067	9.0
32.082	12.0
32.097	7.0
32.112	10.0
32.126	9.0
32.141	9.0
32.156	9.0
32.17	6.0
32.185	4.0
32.2	8.0
32.214	7.0
32.229	13.0
32.244	7.0
32.259	12.0
32.273	10.0
32.288	8.0
32.303	11.0
32.317	16.0
32.332	12.0
32.347	8.0
32.362	9.0
32.376	4.0
32.391	10.0
32.406	11.0
32.42	6.0
32.435	8.0
32.45	11.0
32.465	12.0
32.479	6.0
32.494	7.0
32.509	4.0
32.523	10.0
32.538	13.0
32.553	6.0
32.568	10.0
32.582	8.0
32.597	8.0
32.612	12.0
32.627	14.0
32.641	13.0
32.656	10.0
32.671	10.0
32.685	8.0
32.7	21.0
32.715	22.0
32.73	29.0
32.744	15.0
32.759	19.0
32.774	14.0
32.788	22.0
32.803	32.0
32.818	33.0
32.833	36.0
32.847	23.0
32.862	20.0
32.877	31.0
32.892	29.0
32.906	27.0
32.921	24.0
32.936	18.0
32.951	9.0
32.965	15.0
32.98	24.0
32.995	16.0
33.009	21.0
33.024	23.0
33.039	16.0
33.054	19.0
33.068	13.0
33.083	10.0
33.098	14.0
33.113	17.0
33.127	16.0
33.142	12.0
33.157	15.0
33.172	8.0
33.186	12.0
33.201	11.0
33.216	12.0
33.231	15.0
33.245	10.0
33.26	8.0
33.275	10.0
33.29	11.0
33.304	13.0
33.319	14.0
33.334	9.0
33.349	9.0
33.363	12.0
33.378	11.0
33.393	15.0
33.408	11.0
33.422	11.0
33.437	5.0
33.452	8.0
33.467	12.0
33.481	7.0
33.496	9.0
33.511	6.0
33.526	10.0
33.54	8.0
33.555	15.0
33.57	4.0
33.585	12.0
33.599	9.0
33.614	4.0
33.629	6.0
33.644	7.0
33.658	8.0
33.673	5.0
33.688	8.0
33.703	7.0
33.718	11.0
33.732	10.0
33.747	13.0
33.762	10.0
33.777	8.0
33.791	14.0
33.806	9.0
33.821	7.0
33.836	6.0
33.85	11.0
33.865	7.0
33.88	9.0
33.895	10.0
33.91	10.0
33.924	12.0
33.939	7.0
33.954	6.0
33.969	10.0
33.983	5.0
33.998	12.0
34.013	12.0
34.028	8.0
34.042	13.0
34.057	7.0
34.072	13.0
34.087	9.0
34.102	9.0
34.116	11.0
34.131	16.0
34.146	14.0
34.161	13.0
34.175	10.0
34.19	8.0
34.205	16.0
34.22	12.0
34.235	13.0
34.249	22.0
34.264	9.0
34.279	10.0
34.294	14.0
34.309	17.0
34.323	18.0
34.338	13.0
34.353	10.0
34.368	9.0
34.382	17.0
34.397	14.0
34.412	13.0
34.427	13.0
34.442	12.0
34.456	10.0
34.471	12.0
34.486	9.0
34.501	11.0
34.516	17.0
34.53	10.0
34.545	10.0
34.56	11.0
34.575	6.0
34.59	9.0
34.604	11.0
34.619	9.0
34.634	9.0
34.649	9.0
34.664	9.0
34.678	10.0
34.693	9.0
34.708	10.0
34.723	7.0
34.738	2.0
34.752	11.0
34.767	11.0
34.782	4.0
34.797	9.0
34.812	9.0
34.826	8.0
34.841	3.0
34.856	11.0
34.871	7.0
34.886	4.0
34.9	6.0
34.915	11.0
34.93	5.0
34.945	8.0
34.96	6.0
34.974	6.0
34.989	7.0
35.004	11.0
35.019	12.0
35.034	8.0
35.048	7.0
35.063	5.0
35.078	8.0
35.093	8.0
35.108	4.0
35.122	11.0
35.137	11.0
35.152	6.0
35.167	7.0
35.182	10.0
35.196	6.0
35.211	5.0
35.226	9.0
35.241	10.0
35.256	4.0
35.27	6.0
35.285	8.0
35.3	6.0
35.315	11.0
35.33	13.0
35.344	11.0
35.359	11.0
35.374	12.0
35.389	11.0
35.404	4.0
35.418	4.0
35.433	5.0
35.448	8.0
35.463	12.0
35.478	6.0
35.493	7.0
35.507	5.0
35.522	15.0
35.537	5.0
35.552	11.0
35.567	13.0
35.581	6.0
35.596	5.0
35.611	10.0
35.626	16.0
35.641	13.0
35.655	25.0
35.67	14.0
35.685	10.0
35.7	18.0
35.715	17.0
35.729	16.0
35.744	23.0
35.759	14.0
35.774	16.0
35.789	12.0
35.804	22.0
35.818	11.0
35.833	19.0
35.848	15.0
35.863	9.0
35.878	13.0
35.892	19.0
35.907	12.0
35.922	16.0
35.937	8.0
35.952	10.0
35.966	14.0
35.981	19.0
35.996	10.0
36.011	17.0
36.026	18.0
36.04	14.0
36.055	10.0
36.07	14.0
36.085	15.0
36.1	6.0
36.114	5.0
36.129	13.0
36.144	8.0
36.159	10.0
36.174	12.0
36.189	10.0
36.203	7.0
36.218	5.0
36.233	11.0
36.248	5.0
36.263	9.0
36.277	11.0
36.292	9.0
36.307	7.0
36.322	9.0
36.337	11.0
36.351	5.0
36.366	9.0
36.381	9.0
36.396	7.0
36.411	8.0
36.426	6.0
36.44	5.0
36.455	7.0
36.47	4.0
36.485	5.0
36.5	10.0
36.514	3.0
36.529	5.0
36.544	8.0
36.559	6.0
36.574	7.0
36.589	4.0
36.603	9.0
36.618	8.0
36.633	10.0
36.648	9.0
36.663	6.0
36.677	11.0
36.692	7.0
36.707	4.0
36.722	8.0
36.737	9.0
36.752	6.0
36.766	6.0
36.781	9.0
36.796	5.0
36.811	7.0
36.826	5.0
36.841	10.0
36.855	8.0
36.87	10.0
36.885	10.0
36.9	6.0
36.915	10.0
36.93	6.0
36.944	5.0
36.959	13.0
36.974	4.0
36.989	9.0
37.004	9.0
37.019	14.0
37.033	9.0
37.048	17.0
37.063	8.0
37.078	14.0
37.093	21.0
37.108	15.0
37.123	31.0
37.137	19.0
37.152	28.0
37.167	25.0
37.182	33.0
37.197	34.0
37.212	27.0
37.226	19.0
37.241	26.0
37.256	22.0
37.271	18.0
37.286	13.0
37.301	15.0
37.316	18.0
37.331	19.0
37.345	14.0
37.36	26.0
37.375	24.0
37.39	17.0
37.405	21.0
37.42	16.0
37.435	16.0
37.45	17.0
37.464	11.0
37.479	12.0
37.494	10.0
37.509	9.0
37.524	7.0
37.539	13.0
37.554	8.0
37.569	9.0
37.583	7.0
37.598	9.0
37.613	4.0
37.628	7.0
37.643	2.0
37.658	9.0
37.673	4.0
37.688	5.0
37.703	6.0
37.718	3.0
37.733	6.0
37.747	9.0
37.762	4.0
37.777	6.0
37.792	7.0
37.807	9.0
37.822	11.0
37.837	5.0
37.852	7.0
37.867	6.0
37.882	5.0
37.897	5.0
37.912	9.0
37.927	9.0
37.941	8.0
37.956	5.0
37.971	6.0
37.986	8.0
38.001	7.0
38.016	12.0
38.031	6.0
38.046	8.0
38.061	8.0
38.076	7.0
38.091	5.0
38.106	7.0
38.121	6.0
38.136	11.0
38.151	3.0
38.166	10.0
38.181	4.0
38.196	6.0
38.211	10.0
38.226	4.0
38.241	5.0
38.256	6.0
38.271	7.0
38.285	3.0
38.3	7.0
38.315	8.0
38.33	7.0
38.345	6.0
38.36	6.0
38.375	5.0
38.39	9.0
38.405	5.0
38.42	7.0
38.435	5.0
38.45	10.0
38.465	12.0
38.48	4.0
38.495	8.0
38.51	8.0
38.525	7.0
38.54	6.0
38.555	6.0
38.57	2.0
38.585	5.0
38.6	9.0
38.615	7.0
38.63	5.0
38.645	9.0
38.66	10.0
38.675	6.0
38.69	2.0
38.705	8.0
38.72	11.0
38.735	4.0
38.75	7.0
38.765	5.0
38.78	6.0
38.795	8.0
38.81	6.0
38.825	5.0
38.84	8.0
38.855	6.0
38.87	6.0
38.885	7.0
38.9	6.0
38.915	5.0
38.93	4.0
38.945	6.0
38.96	3.0
38.975	6.0
38.99	4.0
39.005	5.0
39.02	7.0
39.035	3.0
39.05	3.0
39.065	7.0
39.08	7.0
39.095	3.0
39.11	8.0
39.125	3.0
39.14	8.0
39.155	4.0
39.17	9.0
39.185	6.0
39.2	5.0
39.215	7.0
39.23	3.0
39.245	5.0
39.26	14.0
39.275	8.0
39.29	5.0
39.305	6.0
39.32	6.0
39.335	5.0
39.35	7.0
39.365	5.0
39.38	10.0
39.395	3.0
39.409	2.0
39.424	7.0
39.439	10.0
39.454	2.0
39.469	6.0
39.484	7.0
39.499	4.0
39.514	9.0
39.529	5.0
39.544	6.0
39.559	5.0
39.574	9.0
39.589	6.0
39.604	7.0
39.619	7.0
39.634	5.0
39.649	10.0
39.664	5.0
39.678	6.0
39.693	2.0
39.708	7.0
39.723	7.0
39.738	8.0
39.753	6.0
39.768	6.0
39.783	4.0
39.798	11.0
39.813	9.0
39.827	10.0
39.842	12.0
39.857	11.0
39.872	10.0
39.887	7.0
39.902	10.0
39.917	6.0
39.932	7.0
39.947	6.0
39.961	7.0
39.976	8.0
39.991	6.0
40.006	3.0
40.021	9.0
40.036	7.0
40.051	7.0
40.065	9.0
40.08	7.0
40.095	7.0
40.11	6.0
40.125	15.0
40.14	7.0
40.154	5.0
40.169	6.0
40.184	10.0
40.199	3.0
40.214	3.0
40.228	7.0
40.243	5.0
40.258	9.0
40.273	6.0
40.288	6.0
40.302	9.0
40.317	7.0
40.332	7.0
40.347	6.0
40.362	6.0
40.376	4.0
40.391	6.0
40.406	9.0
40.421	8.0
40.436	3.0
40.45	7.0
40.465	6.0
40.48	7.0
40.495	7.0
40.509	9.0
40.524	4.0
40.539	7.0
40.554	4.0
40.568	6.0
40.583	6.0
40.598	3.0
40.613	9.0
40.627	6.0
40.642	3.0
40.657	4.0
40.672	5.0
40.686	3.0
40.701	6.0
40.716	9.0
40.731	7.0
40.745	4.0
40.76	7.0
40.775	6.0
40.79	5.0
40.804	8.0
40.819	6.0
40.834	6.0
40.849	3.0
40.863	5.0
40.878	8.0
40.893	11.0
40.907	9.0
40.922	4.0
40.937	6.0
40.952	12.0
40.966	4.0
40.981	8.0
40.996	11.0
41.011	13.0
41.025	16.0
41.04	11.0
41.055	12.0
41.069	16.0
41.084	13.0
41.099	13.0
41.114	20.0
41.128	17.0
41.143	26.0
41.158	23.0
41.173	24.0
41.187	15.0
41.202	18.0
41.217	11.0
41.231	13.0
41.246	11.0
41.261	13.0
41.276	7.0
41.29	11.0
41.305	10.0
41.32	4.0
41.335	9.0
41.349	12.0
41.364	11.0
41.379	14.0
41.393	7.0
41.408	14.0
41.423	17.0
41.438	10.0
41.452	15.0
41.467	14.0
41.482	9.0
41.497	10.0
41.511	6.0
41.526	2.0
41.541	5.0
41.556	10.0
41.57	2.0
41.585	7.0
41.6	2.0
41.615	6.0
41.629	5.0
41.644	5.0
41.659	2.0
41.674	4.0
41.688	4.0
41.703	8.0
41.718	5.0
41.733	5.0
41.747	5.0
41.762	4.0
41.777	4.0
41.792	3.0
41.806	4.0
41.821	5.0
41.836	5.0
41.851	9.0
41.866	5.0
41.88	9.0
41.895	2.0
41.91	5.0
41.925	9.0
41.939	8.0
41.954	4.0
41.969	4.0
41.984	10.0
41.999	5.0
42.013	3.0
42.028	9.0
42.043	10.0
42.058	3.0
42.073	10.0
42.088	5.0
42.102	9.0
42.117	5.0
42.132	10.0
42.147	8.0
42.162	4.0
42.176	7.0
42.191	9.0
42.206	4.0
42.221	5.0
42.236	7.0
42.251	7.0
42.266	5.0
42.28	9.0
42.295	4.0
42.31	11.0
42.325	12.0
42.34	10.0
42.355	13.0
42.369	10.0
42.384	12.0
42.399	22.0
42.414	20.0
42.429	15.0
42.444	10.0
42.459	11.0
42.474	17.0
42.488	12.0
42.503	4.0
42.518	13.0
42.533	13.0
42.548	6.0
42.563	11.0
42.578	11.0
42.593	9.0
42.608	9.0
42.622	4.0
42.637	8.0
42.652	13.0
42.667	6.0
42.682	10.0
42.697	12.0
42.712	9.0
42.727	9.0
42.742	11.0
42.757	10.0
42.772	7.0
42.786	5.0
42.801	10.0
42.816	7.0
42.831	8.0
42.846	4.0
42.861	8.0
42.876	4.0
42.891	3.0
42.906	8.0
42.921	8.0
42.936	10.0
42.951	1.0
42.966	9.0
42.981	3.0
42.996	4.0
43.011	3.0
43.025	4.0
43.04	3.0
43.055	7.0
43.07	1.0
43.085	6.0
43.1	7.0
43.115	6.0
43.13	4.0
43.145	4.0
43.16	3.0
43.175	3.0
43.19	3.0
43.205	0.0
43.22	7.0
43.235	5.0
43.25	8.0
43.265	8.0
43.28	4.0
43.295	0.0
43.31	8.0
43.325	5.0
43.34	10.0
43.355	7.0
43.37	4.0
43.385	6.0
43.4	4.0
43.415	7.0
43.43	5.0
43.445	8.0
43.46	7.0
43.475	5.0
43.49	8.0
43.505	10.0
43.52	4.0
43.535	7.0
43.55	5.0
43.565	7.0
43.58	9.0
43.595	4.0
43.61	13.0
43.625	12.0
43.64	9.0
43.655	10.0
43.67	4.0
43.685	9.0
43.7	7.0
43.715	7.0
43.73	5.0
43.745	7.0
43.76	6.0
43.775	7.0
43.79	5.0
43.805	7.0
43.82	3.0
43.835	7.0
43.85	7.0
43.865	4.0
43.88	6.0
43.895	9.0
43.91	5.0
43.925	13.0
43.94	3.0
43.955	10.0
43.97	6.0
43.985	10.0
44.0	2.0
44.015	1.0
44.03	7.0
44.045	8.0
44.061	5.0
44.076	8.0
44.091	3.0
44.106	7.0
44.121	7.0
44.136	3.0
44.151	3.0
44.166	9.0
44.181	11.0
44.196	3.0
44.211	13.0
44.226	5.0
44.241	4.0
44.256	3.0
44.271	2.0
44.286	5.0
44.301	3.0
44.316	6.0
44.331	6.0
44.346	3.0
44.361	7.0
44.377	3.0
44.392	7.0
44.407	6.0
44.422	10.0
44.437	4.0
44.452	6.0
44.467	7.0
44.482	6.0
44.497	7.0
44.512	4.0
44.527	4.0
44.542	4.0
44.557	4.0
44.572	4.0
44.587	6.0
44.602	6.0
44.617	4.0
44.632	6.0
44.647	6.0
44.663	6.0
44.678	4.0
44.693	6.0
44.708	13.0
44.723	9.0
44.738	9.0
44.753	6.0
44.768	9.0
44.783	11.0
44.798	10.0
44.813	7.0
44.828	12.0
44.843	14.0
44.858	15.0
44.873	4.0
44.888	11.0
44.903	5.0
44.918	10.0
44.933	7.0
44.948	6.0
44.964	4.0
44.979	8.0
44.994	6.0
45.009	7.0
45.024	9.0
45.039	9.0
45.054	13.0
45.069	6.0
45.084	7.0
45.099	4.0
45.114	12.0
45.129	8.0
45.144	6.0
45.159	4.0
45.174	9.0
45.189	6.0
45.204	6.0
45.219	5.0
45.234	5.0
45.249	6.0
45.264	4.0
45.279	7.0
45.294	9.0
45.309	6.0
45.324	2.0
45.339	6.0
45.354	6.0
45.369	5.0
45.384	5.0
45.399	5.0
45.414	7.0
45.429	4.0
45.444	8.0
45.459	4.0
45.474	4.0
45.489	6.0
45.504	3.0
45.519	2.0
45.534	8.0
45.549	4.0
45.564	2.0
45.579	6.0
45.594	6.0
45.609	1.0
45.624	6.0
45.639	5.0
45.654	3.0
45.669	0.0
45.684	6.0
45.699	1.0
45.714	10.0
45.729	4.0
45.744	8.0
45.759	2.0
45.774	4.0
45.789	7.0
45.804	10.0
45.819	5.0
45.834	2.0
45.849	11.0
45.864	15.0
45.879	9.0
45.894	13.0
45.909	14.0
45.924	10.0
45.939	10.0
45.954	20.0
45.969	20.0
45.984	21.0
45.998	16.0
46.013	10.0
46.028	10.0
46.043	9.0
46.058	9.0
46.073	9.0
46.088	11.0
46.103	13.0
46.118	8.0
46.133	9.0
46.148	7.0
46.163	7.0
46.178	10.0
46.192	12.0
46.207	9.0
46.222	11.0
46.237	15.0
46.252	14.0
46.267	9.0
46.282	10.0
46.297	9.0
46.312	11.0
46.327	10.0
46.341	6.0
46.356	10.0
46.371	5.0
46.386	8.0
46.401	5.0
46.416	5.0
46.431	6.0
46.446	5.0
46.46	7.0
46.475	8.0
46.49	6.0
46.505	5.0
46.52	3.0
46.535	1.0
46.55	6.0
46.564	8.0
46.579	6.0
46.594	4.0
46.609	4.0
46.624	5.0
46.639	8.0
46.654	8.0
46.668	3.0
46.683	8.0
46.698	5.0
46.713	4.0
46.728	3.0
46.743	7.0
46.758	4.0
46.772	10.0
46.787	5.0
46.802	8.0
46.817	7.0
46.832	3.0
46.847	8.0
46.861	8.0
46.876	6.0
46.891	4.0
46.906	5.0
46.921	6.0
46.936	4.0
46.95	8.0
46.965	10.0
46.98	8.0
46.995	6.0
47.01	7.0
47.025	5.0
47.039	4.0
47.054	5.0
47.069	7.0
47.084	11.0
47.099	6.0
47.113	7.0
47.128	9.0
47.143	10.0
47.158	5.0
47.173	9.0
47.188	9.0
47.202	5.0
47.217	2.0
47.232	5.0
47.247	7.0
47.262	7.0
47.277	4.0
47.291	4.0
47.306	9.0
47.321	5.0
47.336	6.0
47.351	8.0
47.365	1.0
47.38	8.0
47.395	4.0
47.41	4.0
47.425	6.0
47.44	4.0
47.454	2.0
47.469	7.0
47.484	8.0
47.499	3.0
47.514	7.0
47.528	9.0
47.543	4.0
47.558	3.0
47.573	6.0
47.588	7.0
47.603	10.0
47.617	9.0
47.632	0.0
47.647	4.0
47.662	8.0
47.677	3.0
47.691	5.0
47.706	0.0
47.721	3.0
47.736	4.0
47.751	5.0
47.766	2.0
47.78	3.0
47.795	1.0
47.81	9.0
47.825	3.0
47.84	6.0
47.855	1.0
47.869	8.0
47.884	4.0
47.899	6.0
47.914	4.0
47.929	4.0
47.944	3.0
47.958	2.0
47.973	6.0
47.988	3.0
48.003	8.0
48.018	7.0
48.033	2.0
48.047	7.0
48.062	6.0
48.077	7.0
48.092	3.0
48.107	7.0
48.122	6.0
48.137	3.0
48.151	4.0
48.166	5.0
48.181	2.0
48.196	3.0
48.211	3.0
48.226	5.0
48.241	5.0
48.255	8.0
48.27	5.0
48.285	3.0
48.3	3.0
48.315	3.0
48.33	4.0
48.345	5.0
48.359	4.0
48.374	6.0
48.389	0.0
48.404	6.0
48.419	7.0
48.434	7.0
48.449	3.0
48.464	4.0
48.478	3.0
48.493	2.0
48.508	5.0
48.523	1.0
48.538	4.0
48.553	4.0
48.568	7.0
48.583	4.0
48.597	4.0
48.612	4.0
48.627	6.0
48.642	2.0
48.657	6.0
48.672	4.0
48.687	7.0
48.702	2.0
48.717	6.0
48.731	5.0
48.746	10.0
48.761	3.0
48.776	3.0
48.791	1.0
48.806	1.0
48.821	7.0
48.836	3.0
48.851	5.0
48.866	8.0
48.88	8.0
48.895	4.0
48.91	5.0
48.925	3.0
48.94	3.0
48.955	2.0
48.97	9.0
48.985	2.0
49.0	6.0
49.015	6.0
49.03	5.0
49.044	5.0
49.059	2.0
49.074	5.0
49.089	5.0
49.104	3.0
49.119	3.0
49.134	5.0
49.149	7.0
49.164	5.0
49.179	5.0
49.194	8.0
49.209	4.0
49.224	5.0
49.238	7.0
49.253	12.0
49.268	4.0
49.283	3.0
49.298	8.0
49.313	7.0
49.328	4.0
49.343	5.0
49.358	10.0
49.373	4.0
49.388	11.0
49.403	8.0
49.418	7.0
49.433	1.0
49.448	9.0
49.463	4.0
49.478	8.0
49.492	4.0
49.507	8.0
49.522	6.0
49.537	3.0
49.552	5.0
49.567	5.0
49.582	5.0
49.597	5.0
49.612	8.0
49.627	8.0
49.642	5.0
49.657	9.0
49.672	3.0
49.687	13.0
49.702	5.0
49.717	4.0
49.732	6.0
49.747	5.0
49.762	3.0
49.777	4.0
49.792	4.0
49.807	7.0
49.822	5.0
49.837	1.0
49.852	6.0
49.867	10.0
49.882	8.0
49.897	8.0
49.912	2.0
49.927	8.0
49.942	8.0
49.957	2.0
49.971	3.0
49.986	1.0
50.001	9.0
50.016	7.0
50.031	7.0
50.046	5.0
50.061	7.0
50.076	4.0
50.091	5.0
50.106	3.0
50.121	8.0
50.136	4.0
50.151	7.0
50.166	5.0
50.181	5.0
50.196	6.0
50.211	4.0
50.226	5.0
50.241	5.0
50.256	10.0
50.271	1.0
50.286	1.0
50.302	4.0
50.317	9.0
50.332	9.0
50.347	3.0
50.362	4.0
50.377	4.0
50.392	4.0
50.407	7.0
50.422	2.0
50.437	11.0
50.452	3.0
50.467	11.0
50.482	7.0
50.497	9.0
50.512	7.0
50.527	8.0
50.542	3.0
50.557	3.0
50.572	3.0
50.587	6.0
50.602	7.0
50.617	4.0
50.632	2.0
50.647	6.0
50.662	3.0
50.677	6.0
50.692	6.0
50.707	7.0
50.722	7.0
50.737	5.0
50.752	9.0
50.767	6.0
50.782	9.0
50.797	1.0
50.812	6.0
50.828	8.0
50.843	7.0
50.858	6.0
50.873	6.0
50.888	9.0
50.903	3.0
50.918	4.0
50.933	4.0
50.948	9.0
50.963	5.0
50.978	8.0
50.993	3.0
51.008	4.0
51.023	3.0
51.038	2.0
51.053	4.0
51.068	4.0
51.083	0.0
51.098	5.0
51.114	5.0
51.129	5.0
51.144	2.0
51.159	5.0
51.174	7.0
51.189	6.0
51.204	2.0
51.219	6.0
51.234	5.0
51.249	6.0
51.264	3.0
51.279	6.0
51.294	1.0
51.309	6.0
51.324	12.0
51.34	5.0
51.355	6.0
51.37	7.0
51.385	5.0
51.4	6.0
51.415	10.0
51.43	5.0
51.445	10.0
51.46	17.0
51.475	10.0
51.49	22.0
51.505	18.0
51.52	19.0
51.535	14.0
51.551	16.0
51.566	8.0
51.581	6.0
51.596	12.0
51.611	14.0
51.626	15.0
51.641	2.0
51.656	10.0
51.671	2.0
51.686	3.0
51.701	5.0
51.716	4.0
51.732	7.0
51.747	3.0
51.762	7.0
51.777	6.0
51.792	7.0
51.807	5.0
51.822	8.0
51.837	10.0
51.852	11.0
51.867	13.0
51.882	10.0
51.898	11.0
51.913	6.0
51.928	7.0
51.943	10.0
51.958	11.0
51.973	4.0
51.988	4.0
52.003	7.0
52.018	2.0
52.033	5.0
52.048	3.0
52.064	4.0
52.079	2.0
52.094	4.0
52.109	7.0
52.124	8.0
52.139	3.0
52.154	3.0
52.169	3.0
52.184	3.0
52.199	8.0
52.215	3.0
52.23	7.0
52.245	4.0
52.26	2.0
52.275	11.0
52.29	2.0
52.305	7.0
52.32	5.0
52.335	3.0
52.35	5.0
52.366	2.0
52.381	4.0
52.396	4.0
52.411	5.0
52.426	5.0
52.441	10.0
52.456	6.0
52.471	4.0
52.486	5.0
52.502	6.0
52.517	10.0
52.532	4.0
52.547	8.0
52.562	13.0
52.577	12.0
52.592	7.0
52.607	6.0
52.622	11.0
52.637	6.0
52.653	0.0
52.668	9.0
52.683	5.0
52.698	6.0
52.713	8.0
52.728	5.0
52.743	5.0
52.758	6.0
52.774	2.0
52.789	3.0
52.804	5.0
52.819	4.0
52.834	7.0
52.849	6.0
52.864	7.0
52.879	9.0
52.894	5.0
52.91	3.0
52.925	12.0
52.94	10.0
52.955	8.0
52.97	7.0
52.985	8.0
53.0	10.0
53.015	6.0
53.031	7.0
53.046	3.0
53.061	4.0
53.076	6.0
53.091	9.0
53.106	6.0
53.121	8.0
53.136	5.0
53.152	3.0
53.167	6.0
53.182	7.0
53.197	6.0
53.212	4.0
53.227	2.0
53.242	8.0
53.257	2.0
53.273	4.0
53.288	6.0
53.303	8.0
53.318	3.0
53.333	5.0
53.348	4.0
53.363	2.0
53.379	6.0
53.394	2.0
53.409	1.0
53.424	4.0
53.439	4.0
53.454	7.0
53.469	3.0
53.484	5.0
53.5	8.0
53.515	2.0
53.53	1.0
53.545	4.0
53.56	3.0
53.575	4.0
53.59	5.0
53.606	3.0
53.621	3.0
53.636	5.0
53.651	4.0
53.666	4.0
53.681	4.0
53.696	7.0
53.712	7.0
53.727	3.0
53.742	10.0
53.757	6.0
53.772	6.0
53.787	4.0
53.802	6.0
53.818	6.0
53.833	5.0
53.848	5.0
53.863	10.0
53.878	4.0
53.893	6.0
53.909	3.0
53.924	9.0
53.939	3.0
53.954	4.0
53.969	4.0
53.984	2.0
53.999	3.0
54.015	3.0
54.03	5.0
54.045	5.0
54.06	7.0
54.075	8.0
54.09	6.0
54.106	5.0
54.121	7.0
54.136	5.0
54.151	6.0
54.166	3.0
54.181	3.0
54.197	4.0
54.212	2.0
54.227	3.0
54.242	6.0
54.257	3.0
54.272	7.0
54.288	0.0
54.303	4.0
54.318	5.0
54.333	5.0
54.348	3.0
54.363	5.0
54.379	7.0
54.394	6.0
54.409	7.0
54.424	4.0
54.439	7.0
54.454	6.0
54.47	4.0
54.485	8.0
54.5	5.0
54.515	7.0
54.53	3.0
54.545	8.0
54.561	5.0
54.576	8.0
54.591	13.0
54.606	13.0
54.621	9.0
54.636	13.0
54.652	12.0
54.667	8.0
54.682	9.0
54.697	12.0
54.712	13.0
54.727	11.0
54.743	5.0
54.758	7.0
54.773	3.0
54.788	5.0
54.803	3.0
54.819	5.0
54.834	10.0
54.849	3.0
54.864	13.0
54.879	6.0
54.894	4.0
54.91	4.0
54.925	10.0
54.94	8.0
54.955	12.0
54.97	6.0
54.985	9.0
55.001	12.0
55.016	3.0
55.031	9.0
55.046	5.0
55.061	13.0
55.077	6.0
55.092	7.0
55.107	13.0
55.122	4.0
55.137	1.0
55.152	9.0
55.168	5.0
55.183	5.0
55.198	7.0
55.213	9.0
55.228	1.0
55.243	3.0
55.259	4.0
55.274	2.0
55.289	6.0
55.304	4.0
55.319	4.0
55.335	4.0
55.35	6.0
55.365	2.0
55.38	0.0
55.395	7.0
55.41	2.0
55.426	3.0
55.441	4.0
55.456	4.0
55.471	4.0
55.486	0.0
55.501	3.0
55.517	4.0
55.532	4.0
55.547	4.0
55.562	3.0
55.577	7.0
55.592	7.0
55.608	5.0
55.623	8.0
55.638	7.0
55.653	9.0
55.668	5.0
55.683	6.0
55.699	9.0
55.714	9.0
55.729	8.0
55.744	8.0
55.759	5.0
55.774	3.0
55.79	3.0
55.805	4.0
55.82	3.0
55.835	5.0
55.85	5.0
55.865	3.0
55.881	6.0
55.896	4.0
55.911	9.0
55.926	7.0
55.941	5.0
55.956	4.0
55.972	4.0
55.987	5.0
56.002	6.0
56.017	2.0
56.032	4.0
56.047	6.0
56.063	10.0
56.078	7.0
56.093	6.0
56.108	6.0
56.123	6.0
56.138	1.0
56.154	3.0
56.169	8.0
56.184	8.0
56.199	5.0
56.214	4.0
56.229	3.0
56.244	8.0
56.26	5.0
56.275	5.0
56.29	6.0
56.305	3.0
56.32	5.0
56.335	2.0
56.351	4.0
56.366	5.0
56.381	6.0
56.396	7.0
56.411	2.0
56.426	4.0
56.441	2.0
56.457	6.0
56.472	5.0
56.487	5.0
56.502	3.0
56.517	2.0
56.532	3.0
56.547	6.0
56.563	2.0
56.578	0.0
56.593	3.0
56.608	4.0
56.623	2.0
56.638	5.0
56.653	3.0
56.668	2.0
56.684	1.0
56.699	4.0
56.714	5.0
56.729	0.0
56.744	5.0
56.759	7.0
56.774	3.0
56.79	2.0
56.805	5.0
56.82	5.0
56.835	4.0
56.85	2.0
56.865	6.0
56.88	4.0
56.895	6.0
56.911	7.0
56.926	5.0
56.941	2.0
56.956	4.0
56.971	4.0
56.986	5.0
57.001	3.0
57.016	7.0
57.031	2.0
57.047	4.0
57.062	5.0
57.077	3.0
57.092	3.0
57.107	5.0
57.122	4.0
57.137	5.0
57.152	6.0
57.167	3.0
57.183	6.0
57.198	4.0
57.213	3.0
57.228	3.0
57.243	5.0
57.258	2.0
57.273	1.0
57.288	6.0
57.303	5.0
57.318	7.0
57.334	5.0
57.349	3.0
57.364	7.0
57.379	3.0
57.394	4.0
57.409	3.0
57.424	5.0
57.439	3.0
57.454	5.0
57.469	5.0
57.484	5.0
57.5	6.0
57.515	5.0
57.53	4.0
57.545	9.0
57.56	6.0
57.575	5.0
57.59	7.0
57.605	6.0
57.62	6.0
57.635	9.0
57.65	6.0
57.665	6.0
57.68	5.0
57.696	7.0
57.711	9.0
57.726	3.0
57.741	4.0
57.756	5.0
57.771	9.0
57.786	4.0
57.801	1.0
57.816	4.0
57.831	4.0
57.846	9.0
57.861	6.0
57.876	5.0
57.891	4.0
57.906	2.0
57.921	8.0
57.937	4.0
57.952	2.0
57.967	10.0
57.982	7.0
57.997	0.0
58.012	5.0
58.027	2.0
58.042	0.0
58.057	2.0
58.072	4.0
58.087	5.0
58.102	6.0
58.117	5.0
58.132	4.0
58.147	4.0
58.162	4.0
58.177	3.0
58.192	3.0
58.207	3.0
58.222	3.0
58.237	6.0
58.252	2.0
58.267	4.0
58.282	3.0
58.297	4.0
58.312	3.0
58.327	3.0
58.342	5.0
58.357	6.0
58.372	3.0
58.387	5.0
58.402	5.0
58.418	8.0
58.433	3.0
58.448	2.0
58.463	3.0
58.478	2.0
58.493	7.0
58.508	1.0
58.523	7.0
58.538	4.0
58.553	7.0
58.568	6.0
58.583	4.0
58.598	7.0
58.613	7.0
58.628	10.0
58.643	10.0
58.658	7.0
58.673	7.0
58.688	8.0
58.703	8.0
58.718	12.0
58.733	2.0
58.748	8.0
58.763	9.0
58.778	6.0
58.793	4.0
58.808	3.0
58.823	5.0
58.838	4.0
58.853	7.0
58.868	10.0
58.883	3.0
58.898	3.0
58.913	5.0
58.928	8.0
58.942	6.0
58.957	6.0
58.972	7.0
58.987	5.0
59.002	7.0
59.017	3.0
59.032	6.0
59.047	9.0
59.062	4.0
59.077	6.0
59.092	7.0
59.107	5.0
59.122	5.0
59.137	4.0
59.152	2.0
59.167	6.0
59.182	5.0
59.197	4.0
59.212	4.0
59.227	4.0
59.242	1.0
59.257	5.0
59.272	5.0
59.287	2.0
59.302	2.0
59.317	1.0
59.332	4.0
59.347	5.0
59.362	4.0
59.377	5.0
59.392	4.0
59.407	8.0
59.422	5.0
59.437	11.0
59.452	4.0
59.467	2.0
59.482	5.0
59.497	7.0
59.512	6.0
59.527	3.0
59.542	6.0
59.557	8.0
59.572	9.0
59.587	8.0
59.602	8.0
59.617	9.0
59.632	4.0
59.647	6.0
59.661	7.0
59.676	4.0
59.691	7.0
59.706	6.0
59.721	5.0
59.736	5.0
59.751	5.0
59.766	5.0
59.781	5.0
59.796	4.0
59.811	8.0
59.826	6.0
59.841	4.0
59.856	8.0
59.871	5.0
59.886	2.0
59.901	5.0
59.916	5.0
59.931	3.0
59.946	5.0
59.961	2.0
59.976	7.0
59.991	2.0
60.006	6.0
60.021	8.0
60.036	9.0
60.051	4.0
60.066	6.0
60.081	2.0
60.096	7.0
60.111	4.0
60.126	11.0
60.141	7.0
60.156	8.0
60.171	3.0
60.186	4.0
60.201	6.0
60.216	4.0
60.231	2.0
60.246	8.0
60.261	5.0
60.276	0.0
60.291	5.0
60.306	4.0
60.321	5.0
60.336	3.0
60.35	6.0
60.365	6.0
60.38	7.0
60.395	3.0
60.41	1.0
60.425	3.0
60.44	4.0
60.455	6.0
60.47	5.0
60.485	2.0
60.5	2.0
60.515	7.0
60.53	3.0
60.545	6.0
60.56	2.0
60.575	6.0
60.59	9.0
60.605	7.0
60.62	11.0
60.635	7.0
60.65	5.0
60.665	6.0
60.68	7.0
60.695	5.0
60.71	0.0
60.725	4.0
60.74	2.0
60.755	3.0
60.77	1.0
60.785	3.0
60.8	7.0
60.815	4.0
60.83	3.0
60.845	5.0
60.86	5.0
60.875	6.0
60.89	6.0
60.905	6.0
60.92	2.0
60.935	7.0
60.95	7.0
60.965	7.0
60.98	3.0
60.995	6.0
61.01	3.0
61.025	7.0
61.04	6.0
61.055	6.0
61.07	6.0
61.085	2.0
61.1	8.0
61.115	4.0
61.13	4.0
61.145	5.0
61.16	6.0
61.175	4.0
61.191	6.0
61.206	0.0
61.221	3.0
61.236	2.0
61.251	2.0
61.266	3.0
61.281	1.0
61.296	4.0
61.311	3.0
61.326	5.0
61.341	2.0
61.356	6.0
61.371	6.0
61.386	4.0
61.401	7.0
61.416	7.0
61.431	1.0
61.446	3.0
61.461	9.0
61.476	4.0
61.491	4.0
61.506	7.0
61.521	3.0
61.536	5.0
61.551	8.0
61.566	2.0
61.581	3.0
61.596	0.0
61.611	5.0
61.626	3.0
61.641	8.0
61.656	3.0
61.672	3.0
61.687	1.0
61.702	3.0
61.717	3.0
61.732	1.0
61.747	7.0
61.762	8.0
61.777	1.0
61.792	7.0
61.807	9.0
61.822	3.0
61.837	4.0
61.852	6.0
61.867	2.0
61.882	2.0
61.897	5.0
61.912	6.0
61.927	9.0
61.943	9.0
61.958	5.0
61.973	11.0
61.988	5.0
62.003	4.0
62.018	2.0
62.033	4.0
62.048	3.0
62.063	3.0
62.078	2.0
62.093	6.0
62.108	6.0
62.123	3.0
62.138	2.0
62.153	4.0
62.169	2.0
62.184	3.0
62.199	5.0
62.214	4.0
62.229	2.0
62.244	4.0
62.259	6.0
62.274	3.0
62.289	6.0
62.304	4.0
62.319	8.0
62.335	0.0
62.35	2.0
62.365	2.0
62.38	1.0
62.395	6.0
62.41	1.0
62.425	3.0
62.44	8.0
62.455	2.0
62.47	5.0
62.485	4.0
62.501	3.0
62.516	3.0
62.531	7.0
62.546	3.0
62.561	2.0
62.576	4.0
62.591	2.0
62.606	0.0
62.621	3.0
62.636	5.0
62.652	3.0
62.667	1.0
62.682	7.0
62.697	3.0
62.712	5.0
62.727	3.0
62.742	3.0
62.757	4.0
62.772	4.0
62.787	4.0
62.803	3.0
62.818	5.0
62.833	2.0
62.848	8.0
62.863	2.0
62.878	6.0
62.893	3.0
62.908	3.0
62.923	12.0
62.939	2.0
62.954	4.0
62.969	3.0
62.984	0.0
62.999	3.0
63.014	3.0
63.029	2.0
63.044	5.0
63.059	2.0
63.074	5.0
63.09	8.0
63.105	6.0
63.12	6.0
63.135	5.0
63.15	4.0
63.165	5.0
63.18	7.0
63.195	5.0
63.21	6.0
63.226	2.0
63.241	1.0
63.256	9.0
63.271	4.0
63.286	5.0
63.301	4.0
63.316	2.0
63.331	4.0
63.346	7.0
63.362	8.0
63.377	6.0
63.392	13.0
63.407	8.0
63.422	8.0
63.437	13.0
63.452	8.0
63.467	5.0
63.482	2.0
63.497	4.0
63.513	2.0
63.528	4.0
63.543	2.0
63.558	7.0
63.573	7.0
63.588	3.0
63.603	6.0
63.618	6.0
63.633	9.0
63.648	4.0
63.664	1.0
63.679	3.0
63.694	5.0
63.709	6.0
63.724	3.0
63.739	5.0
63.754	5.0
63.769	6.0
63.784	1.0
63.799	2.0
63.814	4.0
63.83	3.0
63.845	6.0
63.86	5.0
63.875	6.0
63.89	5.0
63.905	4.0
63.92	5.0
63.935	2.0
63.95	4.0
63.965	3.0
63.98	4.0
63.996	4.0
64.011	3.0
64.026	5.0
64.041	2.0
64.056	3.0
64.071	4.0
64.086	3.0
64.101	5.0
64.116	1.0
64.131	3.0
64.146	2.0
64.161	5.0
64.176	3.0
64.191	8.0
64.207	2.0
64.222	3.0
64.237	6.0
64.252	7.0
64.267	2.0
64.282	3.0
64.297	4.0
64.312	7.0
64.327	2.0
64.342	5.0
64.357	1.0
64.372	7.0
64.387	6.0
64.402	2.0
64.417	3.0
64.433	6.0
64.448	2.0
64.463	4.0
64.478	3.0
64.493	3.0
64.508	2.0
64.523	1.0
64.538	5.0
64.553	4.0
64.568	7.0
64.583	4.0
64.598	3.0
64.613	6.0
64.628	4.0
64.643	5.0
64.658	5.0
64.673	2.0
64.688	4.0
64.703	5.0
64.718	4.0
64.734	3.0
64.749	6.0
64.764	3.0
64.779	2.0
64.794	5.0
64.809	5.0
64.824	3.0
64.839	1.0
64.854	0.0
64.869	2.0
64.884	6.0
64.899	9.0
64.914	1.0
64.929	7.0
64.944	3.0
64.959	5.0
64.974	2.0
64.989	2.0
65.004	4.0
65.019	3.0
65.034	2.0
65.049	8.0
65.064	6.0
65.079	5.0
65.094	2.0
65.109	6.0
65.125	1.0
65.14	2.0
65.155	4.0
65.17	4.0
65.185	6.0
65.2	8.0
65.215	2.0
65.23	2.0
65.245	6.0
65.26	4.0
65.275	8.0
65.29	5.0
65.305	6.0
65.32	2.0
65.335	1.0
65.35	7.0
65.365	2.0
65.38	8.0
65.395	4.0
65.41	2.0
65.425	6.0
65.44	4.0
65.455	3.0
65.47	4.0
65.485	3.0
65.5	8.0
65.515	6.0
65.53	8.0
65.545	3.0
65.56	4.0
65.575	7.0
65.59	3.0
65.605	2.0
65.62	2.0
65.635	3.0
65.65	4.0
65.666	2.0
65.681	6.0
65.696	2.0
65.711	7.0
65.726	5.0
65.741	5.0
65.756	4.0
65.771	2.0
65.786	5.0
65.801	7.0
65.816	3.0
65.831	3.0
65.846	5.0
65.861	4.0
65.876	7.0
65.891	4.0
65.906	4.0
65.921	8.0
65.936	4.0
65.951	2.0
65.966	4.0
65.981	2.0
65.996	5.0
66.011	5.0
66.026	0.0
66.041	4.0
66.056	2.0
66.071	5.0
66.086	1.0
66.101	8.0
66.116	13.0
66.131	6.0
66.146	3.0
66.161	11.0
66.176	7.0
66.191	4.0
66.206	8.0
66.221	8.0
66.236	12.0
66.251	4.0
66.266	5.0
66.281	5.0
66.296	9.0
66.311	4.0
66.327	11.0
66.342	4.0
66.357	8.0
66.372	4.0
66.387	6.0
66.402	2.0
66.417	4.0
66.432	8.0
66.447	3.0
66.462	2.0
66.477	7.0
66.492	3.0
66.507	6.0
66.522	1.0
66.537	4.0
66.552	4.0
66.567	7.0
66.582	3.0
66.597	3.0
66.612	4.0
66.627	3.0
66.642	8.0
66.657	3.0
66.672	1.0
66.687	5.0
66.702	6.0
66.717	7.0
66.732	3.0
66.747	4.0
66.762	4.0
66.777	5.0
66.792	6.0
66.807	4.0
66.822	2.0
66.837	6.0
66.853	6.0
66.868	2.0
66.883	1.0
66.898	5.0
66.913	3.0
66.928	4.0
66.943	1.0
66.958	3.0
66.973	3.0
66.988	3.0
67.003	2.0
67.018	3.0
67.033	6.0
67.048	3.0
67.063	3.0
67.078	1.0
67.093	6.0
67.108	4.0
67.123	9.0
67.138	6.0
67.153	2.0
67.168	2.0
67.183	6.0
67.198	2.0
67.214	3.0
67.229	4.0
67.244	6.0
67.259	4.0
67.274	2.0
67.289	3.0
67.304	2.0
67.319	6.0
67.334	3.0
67.349	1.0
67.364	5.0
67.379	3.0
67.394	3.0
67.409	1.0
67.424	3.0
67.439	1.0
67.454	4.0
67.469	9.0
67.484	0.0
67.5	4.0
67.515	1.0
67.53	5.0
67.545	5.0
67.56	5.0
67.575	4.0
67.59	5.0
67.605	4.0
67.62	5.0
67.635	4.0
67.65	3.0
67.665	1.0
67.68	3.0
67.695	2.0
67.71	1.0
67.726	3.0
67.741	4.0
67.756	0.0
67.771	3.0
67.786	4.0
67.801	6.0
67.816	3.0
67.831	4.0
67.846	2.0
67.861	1.0
67.876	3.0
67.891	1.0
67.906	2.0
67.922	2.0
67.937	0.0
67.952	4.0
67.967	4.0
67.982	4.0
67.997	4.0
68.012	5.0
68.027	3.0
68.042	7.0
68.057	7.0
68.072	3.0
68.087	4.0
68.103	5.0
68.118	5.0
68.133	2.0
68.148	4.0
68.163	3.0
68.178	2.0
68.193	4.0
68.208	6.0
68.223	3.0
68.238	3.0
68.254	3.0
68.269	5.0
68.284	0.0
68.299	3.0
68.314	4.0
68.329	5.0
68.344	1.0
68.359	2.0
68.374	5.0
68.389	5.0
68.405	6.0
68.42	7.0
68.435	3.0
68.45	4.0
68.465	4.0
68.48	5.0
68.495	3.0
68.51	7.0
68.525	7.0
68.54	3.0
68.556	6.0
68.571	1.0
68.586	1.0
68.601	5.0
68.616	0.0
68.631	4.0
68.646	3.0
68.661	3.0
68.676	5.0
68.691	3.0
68.707	1.0
68.722	7.0
68.737	5.0
68.752	2.0
68.767	4.0
68.782	3.0
68.797	1.0
68.812	3.0
68.827	3.0
68.842	1.0
68.857	4.0
68.873	7.0
68.888	7.0
68.903	3.0
68.918	9.0
68.933	0.0
68.948	4.0
68.963	2.0
68.978	6.0
68.993	2.0
69.008	2.0
69.023	1.0
69.038	2.0
69.054	3.0
69.069	4.0
69.084	6.0
69.099	2.0
69.114	4.0
69.129	5.0
69.144	4.0
69.159	1.0
69.174	5.0
69.189	2.0
69.204	1.0
69.219	6.0
69.234	1.0
69.249	5.0
69.264	7.0
69.279	5.0
69.295	3.0
69.31	1.0
69.325	5.0
69.34	8.0
69.355	4.0
69.37	8.0
69.385	3.0
69.4	8.0
69.415	5.0
69.43	4.0
69.445	5.0
69.46	2.0
69.475	3.0
69.49	2.0
69.505	6.0
69.52	5.0
69.535	5.0
69.55	4.0
69.565	2.0
69.58	1.0
69.595	6.0
69.61	1.0
69.625	6.0
69.64	6.0
69.655	3.0
69.67	8.0
69.685	3.0
69.7	5.0
69.715	7.0
69.73	4.0
69.745	7.0
69.76	11.0
69.775	8.0
69.79	4.0
69.805	2.0
69.82	2.0
69.835	3.0
69.85	5.0
69.865	5.0
69.88	6.0
69.895	3.0
69.909	4.0
69.924	2.0
69.939	1.0
69.954	3.0
69.969	5.0
69.984	3.0
69.999	2.0
70.014	4.0
70.029	3.0
70.044	1.0
70.059	0.0
70.074	1.0
70.088	4.0
70.103	6.0
70.118	7.0
70.133	6.0
70.148	6.0
70.163	2.0
70.178	3.0
70.193	5.0
70.208	3.0
70.222	4.0
70.237	4.0
70.252	7.0
70.267	6.0
70.282	6.0
70.297	4.0
70.312	6.0
70.327	2.0
70.341	5.0
70.356	2.0
70.371	3.0
70.386	2.0
70.401	6.0
70.416	2.0
70.43	2.0
70.445	2.0
70.46	3.0
70.475	4.0
70.49	4.0
70.505	0.0
70.519	1.0
70.534	2.0
70.549	3.0
70.564	7.0
70.579	2.0
70.594	5.0
70.608	8.0
70.623	3.0
70.638	2.0
70.653	8.0
70.668	6.0
70.683	6.0
70.697	8.0
70.712	5.0
70.727	8.0
70.742	3.0
70.757	4.0
70.771	2.0
70.786	5.0
70.801	2.0
70.816	3.0
70.831	3.0
70.845	4.0
70.86	1.0
70.875	5.0
70.89	5.0
70.905	3.0
70.92	5.0
70.934	4.0
70.949	1.0
70.964	5.0
70.979	0.0
70.994	5.0
71.008	4.0
71.023	3.0
71.038	1.0
71.053	1.0
71.068	2.0
71.082	3.0
71.097	4.0
71.112	5.0
71.127	5.0
71.142	4.0
71.156	5.0
71.171	5.0
71.186	4.0
71.201	2.0
71.216	4.0
71.231	5.0
71.245	4.0
71.26	0.0
71.275	3.0
71.29	4.0
71.305	1.0
71.319	4.0
71.334	3.0
71.349	4.0
71.364	4.0
71.379	1.0
71.394	3.0
71.408	3.0
71.423	2.0
71.438	0.0
71.453	1.0
71.468	1.0
71.483	4.0
71.497	5.0
71.512	4.0
71.527	3.0
71.542	1.0
71.557	3.0
71.572	5.0
71.586	2.0
71.601	1.0
71.616	4.0
71.631	3.0
71.646	2.0
71.661	1.0
71.676	5.0
71.69	4.0
71.705	3.0
71.72	3.0
71.735	7.0
71.75	4.0
71.765	3.0
71.78	1.0
71.795	3.0
71.81	5.0
71.824	3.0
71.839	6.0
71.854	0.0
71.869	1.0
71.884	4.0
71.899	1.0
71.914	4.0
71.929	2.0
71.944	1.0
71.959	1.0
71.974	3.0
71.988	2.0
72.003	5.0
72.018	4.0
72.033	3.0
72.048	3.0
72.063	3.0
72.078	0.0
72.093	2.0
72.108	2.0
72.123	3.0
72.138	4.0
72.153	6.0
72.168	2.0
72.183	3.0
72.198	2.0
72.213	6.0
72.228	5.0
72.243	4.0
72.258	4.0
72.273	1.0
72.288	1.0
72.303	3.0
72.318	3.0
72.333	1.0
72.348	2.0
72.363	3.0
72.378	2.0
72.393	1.0
72.408	3.0
72.423	1.0
72.438	8.0
72.453	6.0
72.468	2.0
72.483	5.0
72.498	4.0
72.513	3.0
72.528	3.0
72.543	3.0
72.558	4.0
72.573	6.0
72.588	2.0
72.603	4.0
72.618	1.0
72.633	5.0
72.649	2.0
72.664	6.0
72.679	4.0
72.694	4.0
72.709	3.0
72.724	4.0
72.739	3.0
72.754	2.0
72.769	3.0
72.784	1.0
72.799	1.0
72.814	3.0
72.829	7.0
72.845	3.0
72.86	3.0
72.875	3.0
72.89	0.0
72.905	3.0
72.92	5.0
72.935	3.0
72.95	3.0
72.965	1.0
72.98	2.0
72.996	3.0
73.011	2.0
73.026	2.0
73.041	1.0
73.056	2.0
73.071	1.0
73.086	4.0
73.101	5.0
73.117	1.0
73.132	2.0
73.147	0.0
73.162	7.0
73.177	6.0
73.192	7.0
73.207	3.0
73.222	7.0
73.238	3.0
73.253	2.0
73.268	4.0
73.283	5.0
73.298	2.0
73.313	6.0
73.328	8.0
73.343	3.0
73.359	7.0
73.374	5.0
73.389	4.0
73.404	3.0
73.419	7.0
73.434	3.0
73.449	5.0
73.465	3.0
73.48	5.0
73.495	3.0
73.51	5.0
73.525	7.0
73.54	0.0
73.556	1.0
73.571	4.0
73.586	5.0
73.601	3.0
73.616	4.0
73.631	2.0
73.646	4.0
73.662	4.0
73.677	4.0
73.692	0.0
73.707	4.0
73.722	3.0
73.737	4.0
73.752	7.0
73.768	1.0
73.783	4.0
73.798	1.0
73.813	0.0
73.828	3.0
73.843	3.0
73.859	1.0
73.874	1.0
73.889	6.0
73.904	3.0
73.919	3.0
73.934	2.0
73.949	2.0
73.965	2.0
73.98	1.0
73.995	2.0
74.01	4.0
74.025	3.0
74.04	8.0
74.056	0.0
74.071	3.0
74.086	3.0
74.101	5.0
74.116	3.0
74.131	5.0
74.146	8.0
74.162	9.0
74.177	5.0
74.192	9.0
74.207	7.0
74.222	10.0
74.237	10.0
74.252	1.0
74.268	3.0
74.283	6.0
74.298	7.0
74.313	4.0
74.328	5.0
74.343	1.0
74.358	2.0
74.374	0.0
74.389	1.0
74.404	6.0
74.419	0.0
74.434	0.0
74.449	6.0
74.464	1.0
74.48	6.0
74.495	3.0
74.51	3.0
74.525	2.0
74.54	4.0
74.555	2.0
74.57	1.0
74.586	7.0
74.601	2.0
74.616	7.0
74.631	3.0
74.646	9.0
74.661	3.0
74.676	6.0
74.691	5.0
74.707	5.0
74.722	2.0
74.737	4.0
74.752	4.0
74.767	2.0
74.782	2.0
74.797	1.0
74.813	6.0
74.828	4.0
74.843	4.0
74.858	5.0
74.873	4.0
74.888	3.0
74.903	2.0
74.918	3.0
74.934	2.0
74.949	3.0
74.964	4.0
74.979	3.0
74.994	4.0
75.009	6.0
75.024	4.0
75.04	5.0
75.055	2.0
75.07	4.0
75.085	3.0
75.1	6.0
75.115	0.0
75.13	4.0
75.145	1.0
75.161	10.0
75.176	3.0
75.191	3.0
75.206	3.0
75.221	4.0
75.236	5.0
75.251	0.0
75.266	4.0
75.282	2.0
75.297	2.0
75.312	6.0
75.327	3.0
75.342	1.0
75.357	3.0
75.372	2.0
75.387	2.0
75.403	5.0
75.418	2.0
75.433	6.0
75.448	0.0
75.463	2.0
75.478	3.0
75.493	3.0
75.509	5.0
75.524	7.0
75.539	3.0
75.554	7.0
75.569	3.0
75.584	1.0
75.599	6.0
75.614	3.0
75.63	4.0
75.645	4.0
75.66	5.0
75.675	0.0
75.69	1.0
75.705	2.0
75.72	1.0
75.735	2.0
75.751	4.0
75.766	7.0
75.781	2.0
75.796	3.0
75.811	3.0
75.826	1.0
75.841	3.0
75.856	3.0
75.872	1.0
75.887	4.0
75.902	4.0
75.917	4.0
75.932	3.0
75.947	1.0
75.962	2.0
75.977	4.0
75.993	4.0
76.008	4.0
76.023	1.0
76.038	3.0
76.053	4.0
76.068	1.0
76.083	3.0
76.098	4.0
76.114	2.0
76.129	3.0
76.144	7.0
76.159	3.0
76.174	3.0
76.189	4.0
76.204	4.0
76.22	2.0
76.235	5.0
76.25	1.0
76.265	7.0
76.28	1.0
76.295	2.0
76.31	6.0
76.325	0.0
76.341	6.0
76.356	1.0
76.371	6.0
76.386	2.0
76.401	5.0
76.416	3.0
76.431	5.0
76.446	3.0
76.462	2.0
76.477	5.0
76.492	2.0
76.507	2.0
76.522	4.0
76.537	3.0
76.552	2.0
76.567	2.0
76.583	3.0
76.598	1.0
76.613	4.0
76.628	5.0
76.643	3.0
76.658	3.0
76.673	5.0
76.688	7.0
76.704	9.0
76.719	5.0
76.734	3.0
76.749	5.0
76.764	3.0
76.779	8.0
76.794	3.0
76.809	4.0
76.824	5.0
76.84	4.0
76.855	1.0
76.87	7.0
76.885	2.0
76.9	2.0
76.915	0.0
76.93	3.0
76.945	4.0
76.96	2.0
76.976	4.0
76.991	4.0
77.006	6.0
77.021	2.0
77.036	1.0
77.051	0.0
77.066	3.0
77.081	4.0
77.096	4.0
77.112	1.0
77.127	2.0
77.142	1.0
77.157	6.0
77.172	6.0
77.187	2.0
77.202	2.0
77.217	6.0
77.232	2.0
77.247	3.0
77.263	2.0
77.278	3.0
77.293	3.0
77.308	5.0
77.323	6.0
77.338	2.0
77.353	4.0
77.368	3.0
77.383	4.0
77.398	5.0
77.413	1.0
77.428	7.0
77.444	6.0
77.459	1.0
77.474	4.0
77.489	7.0
77.504	2.0
77.519	3.0
77.534	6.0
77.549	4.0
77.564	3.0
77.579	1.0
77.594	8.0
77.609	7.0
77.624	4.0
77.64	2.0
77.655	3.0
77.67	5.0
77.685	3.0
77.7	1.0
77.715	3.0
77.73	4.0
77.745	2.0
77.76	4.0
77.775	4.0
77.79	3.0
77.805	6.0
77.82	2.0
77.835	5.0
77.85	3.0
77.865	2.0
77.88	4.0
77.895	1.0
77.91	2.0
77.926	3.0
77.941	3.0
77.956	3.0
77.971	1.0
77.986	4.0
78.001	1.0
78.016	4.0
78.031	7.0
78.046	3.0
78.061	5.0
78.076	3.0
78.091	1.0
78.106	2.0
78.121	6.0
78.136	7.0
78.151	3.0
78.166	3.0
78.181	3.0
78.196	5.0
78.211	2.0
78.226	5.0
78.241	3.0
78.256	0.0
78.271	1.0
78.286	5.0
78.301	1.0
78.316	1.0
78.331	1.0
78.346	3.0
78.361	1.0
78.376	2.0
78.391	2.0
78.406	2.0
78.421	2.0
78.436	3.0
78.451	1.0
78.466	2.0
78.481	2.0
78.496	1.0
78.511	1.0
78.526	1.0
78.541	0.0
78.556	2.0
78.571	5.0
78.586	3.0
78.601	5.0
78.616	4.0
78.631	1.0
78.646	2.0
78.661	1.0
78.676	5.0
78.691	2.0
78.706	1.0
78.721	4.0
78.736	6.0
78.751	4.0
78.766	2.0
78.781	2.0
78.796	3.0
78.811	5.0
78.826	0.0
78.841	5.0
78.856	3.0
78.871	3.0
78.885	3.0
78.9	3.0
78.915	3.0
78.93	1.0
78.945	2.0
78.96	0.0
78.975	3.0
78.99	2.0
79.005	2.0
79.02	6.0
79.035	5.0
79.05	2.0
79.065	2.0
79.08	1.0
79.095	1.0
79.11	1.0
79.125	5.0
79.14	3.0
79.155	1.0
79.17	1.0
79.185	4.0
79.2	6.0
79.215	3.0
79.23	7.0
79.245	3.0
79.26	4.0
79.275	4.0
79.29	2.0
79.304	3.0
79.319	5.0
79.334	3.0
79.349	3.0
79.364	4.0
79.379	2.0
79.394	2.0
79.409	5.0
79.424	0.0
79.439	1.0
79.454	5.0
79.469	3.0
79.484	3.0
79.499	2.0
79.514	7.0
79.529	3.0
79.544	0.0
79.559	2.0
79.574	3.0
79.589	4.0
79.604	3.0
79.619	3.0
79.634	1.0
79.649	4.0
79.664	2.0
79.679	5.0
79.693	6.0
79.708	1.0
79.723	3.0
79.738	1.0
79.753	4.0
79.768	0.0
79.783	4.0
79.798	4.0
79.813	2.0
79.828	1.0
79.843	1.0
79.858	6.0
79.873	8.0
79.888	4.0
79.903	3.0
79.918	2.0
79.933	5.0
79.948	4.0
79.963	6.0
79.978	6.0
79.993	6.0
80.008	2.0
80.023	4.0
80.038	3.0
80.053	2.0
80.068	3.0
80.083	5.0
80.098	1.0
80.113	4.0
80.128	2.0
80.143	4.0
80.158	3.0
80.173	4.0
80.188	1.0
80.202	3.0
80.217	4.0
80.232	6.0
80.247	2.0
80.262	4.0
80.277	3.0
80.292	1.0
80.307	2.0
80.322	2.0
80.337	1.0
80.352	1.0
80.367	3.0
80.382	3.0
80.397	3.0
80.412	2.0
80.427	2.0
80.442	3.0
80.457	3.0
80.472	4.0
80.487	2.0
80.502	1.0
80.517	2.0
80.532	3.0
80.547	5.0
80.562	1.0
80.577	2.0
80.592	4.0
80.607	1.0
80.622	6.0
80.637	3.0
80.652	3.0
80.667	1.0
80.682	4.0
80.697	2.0
80.712	2.0
80.727	5.0
80.742	5.0
80.757	6.0
80.772	1.0
80.787	3.0
80.802	4.0
80.817	0.0
80.832	2.0
80.847	4.0
80.862	2.0
80.877	4.0
80.892	2.0
80.907	4.0
80.922	2.0
80.937	3.0
80.952	3.0
80.967	4.0
80.982	4.0
80.997	3.0
81.012	5.0
81.027	1.0
81.042	6.0
81.057	1.0
81.072	2.0
81.087	1.0
81.101	3.0
81.116	1.0
81.131	2.0
81.146	5.0
81.161	6.0
81.176	2.0
81.191	6.0
81.206	2.0
81.221	3.0
81.236	0.0
81.251	3.0
81.266	4.0
81.281	1.0
81.296	2.0
81.311	3.0
81.326	3.0
81.341	2.0
81.356	4.0
81.371	3.0
81.386	3.0
81.401	6.0
81.416	0.0
81.431	2.0
81.446	3.0
81.461	2.0
81.476	6.0
81.491	2.0
81.506	1.0
81.521	6.0
81.536	2.0
81.55	3.0
81.565	9.0
81.58	2.0
81.595	2.0
81.61	3.0
81.625	3.0
81.64	2.0
81.655	3.0
81.67	2.0
81.685	6.0
81.7	1.0
81.715	5.0
81.73	5.0
81.745	4.0
81.76	3.0
81.775	3.0
81.79	2.0
81.805	0.0
81.819	2.0
81.834	6.0
81.849	6.0
81.864	7.0
81.879	4.0
81.894	2.0
81.909	5.0
81.924	4.0
81.939	0.0
81.954	2.0
81.969	2.0
81.984	4.0
81.999	1.0
82.013	3.0
82.028	3.0
82.043	4.0
82.058	6.0
82.073	2.0
82.088	0.0
82.103	2.0
82.118	1.0
82.133	1.0
82.148	3.0
82.163	4.0
82.177	5.0
82.192	5.0
82.207	2.0
82.222	1.0
82.237	3.0
82.252	1.0
82.267	2.0
82.282	1.0
82.297	1.0
82.312	3.0
82.326	0.0
82.341	3.0
82.356	5.0
82.371	3.0
82.386	3.0
82.401	4.0
82.416	3.0
82.431	0.0
82.445	8.0
82.46	3.0
82.475	2.0
82.49	5.0
82.505	2.0
82.52	3.0
82.535	4.0
82.55	3.0
82.565	5.0
82.579	3.0
82.594	2.0
82.609	2.0
82.624	3.0
82.639	3.0
82.654	3.0
82.669	4.0
82.684	3.0
82.698	2.0
82.713	2.0
82.728	2.0
82.743	2.0
82.758	2.0
82.773	4.0
82.788	1.0
82.803	2.0
82.817	5.0
82.832	1.0
82.847	1.0
82.862	4.0
82.877	3.0
82.892	2.0
82.907	3.0
82.922	1.0
82.937	7.0
82.951	2.0
82.966	1.0
82.981	3.0
82.996	5.0
83.011	3.0
83.026	0.0
83.041	0.0
83.056	0.0
83.07	5.0
83.085	1.0
83.1	3.0
83.115	3.0
83.13	3.0
83.145	4.0
83.16	9.0
83.175	4.0
83.19	2.0
83.204	3.0
83.219	5.0
83.234	1.0
83.249	4.0
83.264	2.0
83.279	4.0
83.294	3.0
83.309	2.0
83.324	1.0
83.339	3.0
83.353	7.0
83.368	1.0
83.383	6.0
83.398	6.0
83.413	6.0
83.428	3.0
83.443	3.0
83.458	3.0
83.473	2.0
83.488	3.0
83.503	2.0
83.517	7.0
83.532	4.0
83.547	3.0
83.562	2.0
83.577	4.0
83.592	4.0
83.607	2.0
83.622	2.0
83.637	8.0
83.652	3.0
83.667	2.0
83.682	4.0
83.697	5.0
83.712	0.0
83.727	5.0
83.741	1.0
83.756	1.0
83.771	5.0
83.786	1.0
83.801	3.0
83.816	1.0
83.831	3.0
83.846	5.0
83.861	2.0
83.876	2.0
83.891	3.0
83.906	4.0
83.921	3.0
83.936	2.0
83.951	1.0
83.966	6.0
83.981	1.0
83.996	3.0
84.011	4.0
84.026	2.0
84.041	1.0
84.056	1.0
84.071	3.0
84.086	4.0
84.101	6.0
84.116	4.0
84.131	2.0
84.146	4.0
84.161	3.0
84.176	5.0
84.191	5.0
84.206	6.0
84.221	4.0
84.236	4.0
84.251	1.0
84.266	1.0
84.281	6.0
84.296	3.0
84.311	2.0
84.326	4.0
84.341	5.0
84.356	4.0
84.371	8.0
84.386	4.0
84.401	5.0
84.416	4.0
84.431	6.0
84.446	3.0
84.461	5.0
84.476	5.0
84.492	3.0
84.507	1.0
84.522	3.0
84.537	5.0
84.552	6.0
84.567	2.0
84.582	4.0
84.597	3.0
84.612	4.0
84.627	3.0
84.642	5.0
84.657	5.0
84.672	2.0
84.687	3.0
84.702	3.0
84.717	2.0
84.733	3.0
84.748	3.0
84.763	2.0
84.778	2.0
84.793	1.0
84.808	2.0
84.823	3.0
84.838	2.0
84.853	4.0
84.868	4.0
84.883	2.0
84.898	3.0
84.913	6.0
84.929	3.0
84.944	5.0
84.959	5.0
84.974	3.0
84.989	3.0
85.004	4.0
85.019	2.0
85.034	4.0
85.049	6.0
85.064	2.0
85.079	1.0
85.094	2.0
85.11	5.0
85.125	5.0
85.14	6.0
85.155	3.0
85.17	4.0
85.185	3.0
85.2	3.0
85.215	2.0
85.23	2.0
85.245	7.0
85.26	6.0
85.276	1.0
85.291	10.0
85.306	1.0
85.321	2.0
85.336	2.0
85.351	4.0
85.366	6.0
85.381	1.0
85.396	3.0
85.411	2.0
85.426	6.0
85.441	0.0
85.457	2.0
85.472	4.0
85.487	1.0
85.502	1.0
85.517	5.0
85.532	6.0
85.547	3.0
85.562	2.0
85.577	3.0
85.592	1.0
85.607	5.0
85.622	1.0
85.637	3.0
85.653	3.0
85.668	3.0
85.683	5.0
85.698	2.0
85.713	3.0
85.728	4.0
85.743	3.0
85.758	1.0
85.773	6.0
85.788	3.0
85.803	4.0
85.818	2.0
85.833	4.0
85.848	2.0
85.863	2.0
85.879	5.0
85.894	1.0
85.909	3.0
85.924	2.0
85.939	3.0
85.954	1.0
85.969	1.0
85.984	6.0
85.999	1.0
86.014	5.0
86.029	1.0
86.044	3.0
86.059	3.0
86.074	3.0
86.089	2.0
86.104	3.0
86.119	2.0
86.134	4.0
86.149	1.0
86.164	2.0
86.179	0.0
86.194	1.0
86.209	3.0
86.224	6.0
86.239	2.0
86.254	3.0
86.269	1.0
86.284	2.0
86.299	5.0
86.314	1.0
86.33	1.0
86.345	4.0
86.36	2.0
86.375	3.0
86.39	4.0
86.405	2.0
86.42	1.0
86.435	2.0
86.45	2.0
86.465	4.0
86.48	1.0
86.495	0.0
86.51	5.0
86.525	3.0
86.54	6.0
86.555	4.0
86.57	4.0
86.585	2.0
86.6	4.0
86.615	4.0
86.63	1.0
86.645	4.0
86.659	5.0
86.674	4.0
86.689	4.0
86.704	6.0
86.719	4.0
86.734	0.0
86.749	4.0
86.764	5.0
86.779	1.0
86.794	2.0
86.809	2.0
86.824	4.0
86.839	3.0
86.854	2.0
86.869	1.0
86.884	3.0
86.899	3.0
86.914	4.0
86.929	9.0
86.944	9.0
86.959	5.0
86.974	5.0
86.989	4.0
87.004	1.0
87.019	2.0
87.034	1.0
87.049	1.0
87.064	2.0
87.079	5.0
87.094	5.0
87.109	3.0
87.124	0.0
87.139	2.0
87.154	1.0
87.169	3.0
87.184	2.0
87.199	3.0
87.214	3.0
87.229	1.0
87.244	2.0
87.259	1.0
87.274	5.0
87.289	3.0
87.304	3.0
87.319	3.0
87.334	1.0
87.349	2.0
87.364	1.0
87.379	1.0
87.394	2.0
87.409	5.0
87.424	5.0
87.438	3.0
87.453	4.0
87.468	3.0
87.483	4.0
87.498	5.0
87.513	4.0
87.528	6.0
87.543	2.0
87.558	5.0
87.573	2.0
87.588	6.0
87.603	5.0
87.618	4.0
87.633	4.0
87.648	2.0
87.663	8.0
87.678	7.0
87.693	3.0
87.708	2.0
87.723	7.0
87.738	3.0
87.753	1.0
87.768	7.0
87.783	10.0
87.798	5.0
87.813	2.0
87.828	5.0
87.843	4.0
87.858	4.0
87.873	1.0
87.888	5.0
87.903	4.0
87.918	1.0
87.933	1.0
87.948	2.0
87.963	4.0
87.978	3.0
87.993	2.0
88.008	1.0
88.023	3.0
88.038	2.0
88.053	2.0
88.068	2.0
88.083	6.0
88.098	3.0
88.113	6.0
88.128	4.0
88.143	4.0
88.158	4.0
88.174	2.0
88.189	3.0
88.204	4.0
88.219	3.0
88.234	1.0
88.249	4.0
88.264	4.0
88.279	1.0
88.294	2.0
88.309	3.0
88.324	3.0
88.339	4.0
88.354	3.0
88.369	8.0
88.384	4.0
88.399	3.0
88.414	7.0
88.429	4.0
88.444	1.0
88.459	1.0
88.474	6.0
88.489	4.0
88.504	4.0
88.519	2.0
88.534	0.0
88.549	2.0
88.564	2.0
88.58	2.0
88.595	5.0
88.61	6.0
88.625	5.0
88.64	4.0
88.655	6.0
88.67	2.0
88.685	4.0
88.7	0.0
88.715	0.0
88.73	5.0
88.745	3.0
88.76	2.0
88.775	2.0
88.79	3.0
88.805	3.0
88.82	0.0
88.835	2.0
88.85	4.0
88.865	4.0
88.88	3.0
88.895	0.0
88.911	2.0
88.926	0.0
88.941	2.0
88.956	5.0
88.971	4.0
88.986	1.0
89.001	4.0
89.016	2.0
89.031	0.0
89.046	3.0
89.061	1.0
89.076	6.0
89.091	1.0
89.106	3.0
89.121	1.0
89.136	6.0
89.151	6.0
89.166	6.0
89.181	6.0
89.196	5.0
89.211	4.0
89.227	0.0
89.242	3.0
89.257	0.0
89.272	1.0
89.287	0.0
89.302	4.0
89.317	0.0
89.332	6.0
89.347	1.0
89.362	3.0
89.377	3.0
89.392	3.0
89.407	2.0
89.422	1.0
89.437	4.0
89.452	2.0
89.467	8.0
89.482	3.0
89.497	3.0
89.512	6.0
89.527	2.0
89.542	4.0
89.557	2.0
89.572	3.0
89.587	6.0
89.602	4.0
89.617	0.0
89.632	5.0
89.647	6.0
89.662	1.0
89.677	2.0
89.693	0.0
89.708	5.0
89.723	0.0
89.738	5.0
89.753	1.0
89.768	3.0
89.783	3.0
89.798	2.0
89.813	7.0
89.828	1.0
89.843	3.0
89.858	5.0
89.873	1.0
89.888	4.0
89.903	4.0
89.918	1.0
89.933	3.0
89.948	7.0
89.963	7.0
89.978	1.0
89.993	5.0
90.008	1.0
90.023	0.0
90.038	5.0
90.053	1.0
90.068	3.0
90.083	3.0
90.097	5.0
90.112	0.0
90.127	3.0
90.142	2.0
90.157	4.0
90.172	4.0
90.187	3.0
90.202	6.0
90.217	6.0
90.232	5.0
90.247	5.0
90.262	1.0
90.277	6.0
90.292	7.0
90.307	7.0
90.322	3.0
90.337	5.0
90.352	4.0
90.367	4.0
90.382	4.0
90.397	8.0
90.412	3.0
90.427	3.0
90.442	1.0
90.457	5.0
90.472	3.0
90.487	6.0
90.501	2.0
90.516	4.0
90.531	6.0
90.546	1.0
90.561	2.0
90.576	1.0
90.591	2.0
90.606	3.0
90.621	2.0
90.636	1.0
90.651	3.0
90.666	3.0
90.681	5.0
90.696	3.0
90.711	3.0
90.726	2.0
90.741	5.0
90.755	2.0
90.77	2.0
90.785	3.0
90.8	1.0
90.815	3.0
90.83	5.0
90.845	3.0
90.86	1.0
90.875	2.0
90.89	3.0
90.905	1.0
90.92	5.0
90.935	4.0
90.95	1.0
90.965	6.0
90.979	1.0
90.994	2.0
91.009	4.0
91.024	1.0
91.039	0.0
91.054	6.0
91.069	5.0
91.084	3.0
91.099	6.0
91.114	5.0
91.129	2.0
91.144	4.0
91.159	6.0
91.174	3.0
91.188	1.0
91.203	2.0
91.218	4.0
91.233	3.0
91.248	3.0
91.263	4.0
91.278	0.0
91.293	3.0
91.308	5.0
91.323	4.0
91.338	2.0
91.353	2.0
91.368	2.0
91.383	6.0
91.398	4.0
91.412	4.0
91.427	2.0
91.442	5.0
91.457	0.0
91.472	3.0
91.487	1.0
91.502	2.0
91.517	3.0
91.532	4.0
91.547	0.0
91.562	4.0
91.577	1.0
91.592	3.0
91.607	4.0
91.622	0.0
91.637	4.0
91.652	4.0
91.666	1.0
91.681	2.0
91.696	3.0
91.711	4.0
91.726	0.0
91.741	2.0
91.756	2.0
91.771	3.0
91.786	1.0
91.801	1.0
91.816	3.0
91.831	1.0
91.846	5.0
91.861	3.0
91.876	1.0
91.891	1.0
91.906	4.0
91.921	3.0
91.936	2.0
91.951	2.0
91.966	1.0
91.981	1.0
91.995	2.0
92.01	3.0
92.025	3.0
92.04	7.0
92.055	3.0
92.07	2.0
92.085	3.0
92.1	5.0
92.115	2.0
92.13	4.0
92.145	3.0
92.16	0.0
92.175	2.0
92.19	3.0
92.205	5.0
92.22	3.0
92.235	2.0
92.25	3.0
92.265	2.0
92.28	0.0
92.295	3.0
92.31	2.0
92.325	5.0
92.34	2.0
92.355	4.0
92.37	3.0
92.385	2.0
92.4	2.0
92.415	2.0
92.43	3.0
92.445	0.0
92.46	4.0
92.475	5.0
92.49	5.0
92.505	4.0
92.52	2.0
92.535	3.0
92.55	0.0
92.565	4.0
92.58	6.0
92.595	3.0
92.61	2.0
92.625	4.0
92.64	3.0
92.655	3.0
92.67	1.0
92.685	1.0
92.7	2.0
92.715	4.0
92.73	3.0
92.745	7.0
92.76	2.0
92.775	3.0
92.79	2.0
92.805	1.0
92.82	6.0
92.835	1.0
92.85	5.0
92.865	5.0
92.88	3.0
92.895	2.0
92.91	3.0
92.925	0.0
92.94	4.0
92.955	2.0
92.97	5.0
92.985	8.0
93.0	1.0
93.015	9.0
93.03	1.0
93.045	0.0
93.06	6.0
93.075	5.0
93.09	4.0
93.105	2.0
93.12	4.0
93.135	1.0
93.15	3.0
93.165	2.0
93.18	2.0
93.195	3.0
93.21	3.0
93.225	1.0
93.24	2.0
93.255	2.0
93.27	1.0
93.285	5.0
93.3	2.0
93.315	2.0
93.33	2.0
93.345	2.0
93.36	5.0
93.375	3.0
93.39	5.0
93.405	4.0
93.42	3.0
93.435	3.0
93.45	4.0
93.465	3.0
93.48	4.0
93.495	2.0
93.51	1.0
93.525	3.0
93.54	3.0
93.555	5.0
93.57	1.0
93.585	2.0
93.6	1.0
93.615	3.0
93.63	4.0
93.645	4.0
93.66	3.0
93.675	5.0
93.69	1.0
93.705	3.0
93.72	1.0
93.735	3.0
93.75	1.0
93.765	4.0
93.78	6.0
93.795	5.0
93.81	1.0
93.824	5.0
93.839	2.0
93.854	2.0
93.869	4.0
93.884	3.0
93.899	4.0
93.914	3.0
93.929	3.0
93.944	4.0
93.959	5.0
93.974	5.0
93.989	1.0
94.004	2.0
94.019	3.0
94.034	0.0
94.049	6.0
94.064	2.0
94.079	3.0
94.094	4.0
94.108	3.0
94.123	3.0
94.138	2.0
94.153	2.0
94.168	1.0
94.183	2.0
94.198	5.0
94.213	2.0
94.228	6.0
94.243	1.0
94.258	2.0
94.273	3.0
94.288	3.0
94.302	3.0
94.317	5.0
94.332	2.0
94.347	3.0
94.362	7.0
94.377	2.0
94.392	0.0
94.407	8.0
94.422	2.0
94.437	7.0
94.452	4.0
94.466	2.0
94.481	1.0
94.496	3.0
94.511	5.0
94.526	3.0
94.541	2.0
94.556	4.0
94.571	5.0
94.586	3.0
94.601	7.0
94.615	3.0
94.63	3.0
94.645	3.0
94.66	1.0
94.675	1.0
94.69	5.0
94.705	2.0
94.72	3.0
94.735	5.0
94.749	0.0
94.764	6.0
94.779	4.0
94.794	3.0
94.809	6.0
94.824	2.0
94.839	4.0
94.854	1.0
94.868	6.0
94.883	2.0
94.898	1.0
94.913	5.0
94.928	5.0
94.943	2.0
94.958	3.0
94.973	3.0
94.987	2.0
95.002	2.0
95.017	6.0
95.032	3.0
95.047	3.0
95.062	7.0
95.077	5.0
95.092	8.0
95.106	3.0
95.121	3.0
95.136	3.0
95.151	4.0
95.166	3.0
95.181	8.0
95.196	6.0
95.211	5.0
95.226	6.0
95.24	1.0
95.255	4.0
95.27	2.0
95.285	4.0
95.3	1.0
95.315	3.0
95.33	5.0
95.345	3.0
95.359	1.0
95.374	3.0
95.389	4.0
95.404	2.0
95.419	2.0
95.434	5.0
95.449	0.0
95.464	3.0
95.478	1.0
95.493	7.0
95.508	3.0
95.523	2.0
95.538	4.0
95.553	5.0
95.568	3.0
95.583	5.0
95.597	4.0
95.612	2.0
95.627	4.0
95.642	4.0
95.657	5.0
95.672	0.0
95.687	3.0
95.702	3.0
95.717	4.0
95.731	1.0
95.746	5.0
95.761	2.0
95.776	2.0
95.791	5.0
95.806	7.0
95.821	2.0
95.836	4.0
95.851	4.0
95.866	3.0
95.88	6.0
95.895	4.0
95.91	2.0
95.925	2.0
95.94	2.0
95.955	4.0
95.97	2.0
95.985	6.0
96.0	2.0
96.015	5.0
96.029	3.0
96.044	5.0
96.059	5.0
96.074	6.0
96.089	5.0
96.104	1.0
96.119	2.0
96.134	5.0
96.149	2.0
96.164	4.0
96.179	5.0
96.194	4.0
96.208	0.0
96.223	2.0
96.238	3.0
96.253	2.0
96.268	1.0
96.283	3.0
96.298	3.0
96.313	2.0
96.328	5.0
96.343	2.0
96.358	8.0
96.373	0.0
96.388	2.0
96.403	4.0
96.417	2.0
96.432	2.0
96.447	2.0
96.462	0.0
96.477	0.0
96.492	3.0
96.507	2.0
96.522	2.0
96.537	3.0
96.552	1.0
96.567	6.0
96.582	2.0
96.597	0.0
96.612	3.0
96.627	5.0
96.642	4.0
96.656	2.0
96.671	3.0
96.686	1.0
96.701	3.0
96.716	3.0
96.731	3.0
96.746	2.0
96.761	3.0
96.776	4.0
96.791	2.0
96.806	3.0
96.821	4.0
96.836	2.0
96.851	2.0
96.866	3.0
96.881	4.0
96.896	6.0
96.911	1.0
96.926	6.0
96.94	4.0
96.955	3.0
96.97	3.0
96.985	5.0
97.0	3.0
97.015	4.0
97.03	4.0
97.045	2.0
97.06	9.0
97.075	5.0
97.09	4.0
97.105	6.0
97.12	3.0
97.135	3.0
97.15	3.0
97.165	3.0
97.18	3.0
97.195	2.0
97.21	3.0
97.225	1.0
97.239	3.0
97.254	2.0
97.269	2.0
97.284	2.0
97.299	3.0
97.314	1.0
97.329	6.0
97.344	1.0
97.359	0.0
97.374	1.0
97.389	2.0
97.404	3.0
97.419	3.0
97.434	2.0
97.449	1.0
97.464	4.0
97.479	3.0
97.494	3.0
97.509	6.0
97.524	2.0
97.538	3.0
97.553	2.0
97.568	3.0
97.583	4.0
97.598	3.0
97.613	4.0
97.628	3.0
97.643	4.0
97.658	4.0
97.673	3.0
97.688	3.0
97.703	4.0
97.718	2.0
97.733	4.0
97.748	2.0
97.763	1.0
97.778	4.0
97.792	1.0
97.807	5.0
97.822	3.0
97.837	4.0
97.852	4.0
97.867	4.0
97.882	7.0
97.897	2.0
97.912	2.0
97.927	2.0
97.942	5.0
97.957	1.0
97.972	3.0
97.987	0.0
98.001	4.0
98.016	1.0
98.031	2.0
98.046	4.0
98.061	2.0
98.076	4.0
98.091	3.0
98.106	4.0
98.121	5.0
98.136	5.0
98.151	3.0
98.166	5.0
98.181	2.0
98.195	3.0
98.21	5.0
98.225	3.0
98.24	1.0
98.255	4.0
98.27	2.0
98.285	0.0
98.3	2.0
98.315	3.0
98.33	2.0
98.345	6.0
98.359	4.0
98.374	0.0
98.389	1.0
98.404	0.0
98.419	4.0
98.434	3.0
98.449	3.0
98.464	0.0
98.479	2.0
98.494	1.0
98.508	4.0
98.523	3.0
98.538	5.0
98.553	3.0
98.568	1.0
98.583	3.0
98.598	5.0
98.613	2.0
98.628	1.0
98.642	4.0
98.657	0.0
98.672	2.0
98.687	3.0
98.702	2.0
98.717	1.0
98.732	2.0
98.747	3.0
98.762	2.0
98.776	3.0
98.791	6.0
98.806	4.0
98.821	1.0
98.836	2.0
98.851	4.0
98.866	4.0
98.881	5.0
98.896	3.0
98.91	9.0
98.925	4.0
98.94	3.0
98.955	3.0
98.97	2.0
98.985	3.0
99.0	2.0
99.015	3.0
99.029	1.0
99.044	5.0
99.059	5.0
99.074	2.0
99.089	4.0
99.104	4.0
99.119	1.0
99.133	4.0
99.148	6.0
99.163	1.0
99.178	2.0
99.193	5.0
99.208	4.0
99.223	9.0
99.238	3.0
99.252	5.0
99.267	3.0
99.282	9.0
99.297	1.0
99.312	6.0
99.327	7.0
99.342	1.0
99.356	0.0
99.371	3.0
99.386	0.0
99.401	3.0
99.416	3.0
99.431	1.0
99.446	0.0
99.461	2.0
99.475	2.0
99.49	3.0
99.505	2.0
99.52	8.0
99.535	3.0
99.55	4.0
99.565	1.0
99.579	3.0
99.594	5.0
99.609	4.0
99.624	3.0
99.639	9.0
99.654	4.0
99.669	2.0
99.683	3.0
99.698	4.0
99.713	2.0
99.728	6.0
99.743	4.0
99.758	4.0
99.772	6.0
99.787	4.0
99.802	3.0
99.817	1.0
99.832	0.0
99.847	3.0
99.862	2.0
99.876	4.0
99.891	3.0
99.906	4.0
99.921	7.0
99.936	4.0
99.951	3.0
99.966	2.0
99.98	3.0
99.995	1.0
100.01	4.0
100.025	4.0
100.04	4.0
100.055	1.0
100.069	2.0
100.084	4.0
100.099	1.0
100.114	1.0
100.129	4.0
100.144	3.0
100.159	4.0
100.173	1.0
100.188	4.0
100.203	2.0
100.218	5.0
100.233	2.0
100.248	2.0
100.262	3.0
100.277	3.0
100.292	5.0
100.307	1.0
100.322	2.0
100.337	3.0
100.351	5.0
100.366	2.0
100.381	2.0
100.396	8.0
100.411	2.0
100.426	4.0
100.441	1.0
100.455	1.0
100.47	5.0
100.485	3.0
100.5	3.0
100.515	4.0
100.53	2.0
100.544	2.0
100.559	4.0
100.574	3.0
100.589	3.0
100.604	3.0
100.619	5.0
100.633	2.0
100.648	5.0
100.663	3.0
100.678	2.0
100.693	3.0
100.708	2.0
100.722	2.0
100.737	4.0
100.752	4.0
100.767	3.0
100.782	2.0
100.796	1.0
100.811	3.0
100.826	4.0
100.841	9.0
100.856	3.0
100.871	1.0
100.885	2.0
100.9	1.0
100.915	4.0
100.93	4.0
100.945	3.0
100.96	6.0
100.974	8.0
100.989	3.0
101.004	3.0
101.019	2.0
101.034	2.0
101.048	0.0
101.063	3.0
101.078	5.0
101.093	2.0
101.108	4.0
101.123	3.0
101.137	2.0
101.152	6.0
101.167	5.0
101.182	3.0
101.197	5.0
101.211	6.0
101.226	6.0
101.241	1.0
101.256	2.0
101.271	3.0
101.285	1.0
101.3	5.0
101.315	5.0
101.33	5.0
101.345	3.0
101.359	0.0
101.374	1.0
101.389	1.0
101.404	4.0
101.419	0.0
101.433	3.0
101.448	0.0
101.463	2.0
101.478	3.0
101.493	4.0
101.507	4.0
101.522	3.0
101.537	4.0
101.552	2.0
101.567	2.0
101.581	2.0
101.596	1.0
101.611	3.0
101.626	3.0
101.64	5.0
101.655	4.0
101.67	1.0
101.685	1.0
101.7	2.0
101.714	6.0
101.729	0.0
101.744	0.0
101.759	3.0
101.773	3.0
101.788	2.0
101.803	4.0
101.818	1.0
101.833	2.0
101.847	3.0
101.862	4.0
101.877	6.0
101.892	1.0
101.906	4.0
101.921	5.0
101.936	3.0
101.951	4.0
101.965	5.0
101.98	6.0
101.995	1.0
102.01	3.0
102.025	3.0
102.039	4.0
102.054	3.0
102.069	8.0
102.084	2.0
102.098	5.0
102.113	0.0
102.128	3.0
102.143	5.0
102.157	1.0
102.172	7.0
102.187	2.0
102.202	5.0
102.216	4.0
102.231	5.0
102.246	3.0
102.261	3.0
102.275	0.0
102.29	0.0
102.305	8.0
102.32	3.0
102.334	3.0
102.349	3.0
102.364	3.0
102.378	7.0
102.393	7.0
102.408	1.0
102.423	4.0
102.437	4.0
102.452	6.0
102.467	4.0
102.482	4.0
102.496	4.0
102.511	1.0
102.526	1.0
102.541	3.0
102.555	2.0
102.57	4.0
102.585	1.0
102.6	0.0
102.614	1.0
102.629	1.0
102.644	5.0
102.659	2.0
102.673	5.0
102.688	1.0
102.703	5.0
102.717	2.0
102.732	0.0
102.747	1.0
102.762	4.0
102.776	3.0
102.791	6.0
102.806	2.0
102.821	4.0
102.835	0.0
102.85	2.0
102.865	4.0
102.88	4.0
102.894	7.0
102.909	1.0
102.924	1.0
102.938	2.0
102.953	6.0
102.968	3.0
102.983	2.0
102.997	3.0
103.012	3.0
103.027	4.0
103.042	5.0
103.056	2.0
103.071	2.0
103.086	4.0
103.101	3.0
103.115	2.0
103.13	3.0
103.145	3.0
103.16	3.0
103.174	3.0
103.189	1.0
103.204	5.0
103.219	2.0
103.233	1.0
103.248	1.0
103.263	3.0
103.278	3.0
103.292	1.0
103.307	3.0
103.322	3.0
103.337	1.0
103.351	4.0
103.366	1.0
103.381	3.0
103.396	3.0
103.41	2.0
103.425	6.0
103.44	4.0
103.455	2.0
103.469	2.0
103.484	4.0
103.499	2.0
103.514	4.0
103.529	3.0
103.543	2.0
103.558	2.0
103.573	5.0
103.588	5.0
103.602	0.0
103.617	1.0
103.632	7.0
103.647	3.0
103.661	3.0
103.676	4.0
103.691	2.0
103.706	1.0
103.721	5.0
103.735	2.0
103.75	4.0
103.765	3.0
103.78	2.0
103.795	7.0
103.809	4.0
103.824	2.0
103.839	3.0
103.854	5.0
103.869	1.0
103.883	6.0
103.898	2.0
103.913	2.0
103.928	3.0
103.943	0.0
103.957	5.0
103.972	6.0
103.987	2.0
104.002	4.0
104.017	2.0
104.031	0.0
104.046	2.0
104.061	2.0
104.076	2.0
104.091	2.0
104.106	3.0
104.12	5.0
104.135	4.0
104.15	3.0
104.165	4.0
104.18	4.0
104.195	4.0
104.209	2.0
104.224	4.0
104.239	2.0
104.254	2.0
104.269	2.0
104.284	5.0
104.299	2.0
104.313	5.0
104.328	3.0
104.343	5.0
104.358	0.0
104.373	5.0
104.388	4.0
104.403	0.0
104.417	4.0
104.432	1.0
104.447	2.0
104.462	4.0
104.477	3.0
104.492	4.0
104.507	2.0
104.522	6.0
104.536	2.0
104.551	3.0
104.566	8.0
104.581	6.0
104.596	0.0
104.611	8.0
104.626	3.0
104.641	3.0
104.656	8.0
104.67	2.0
104.685	8.0
104.7	1.0
104.715	3.0
104.73	1.0
104.745	1.0
104.76	0.0
104.775	3.0
104.79	5.0
104.804	3.0
104.819	4.0
104.834	2.0
104.849	6.0
104.864	6.0
104.879	2.0
104.894	3.0
104.909	4.0
104.924	3.0
104.939	6.0
104.954	0.0
104.968	4.0
104.983	6.0
104.998	3.0
105.013	3.0
105.028	2.0
105.043	4.0
105.058	1.0
105.073	3.0
105.088	2.0
105.103	3.0
105.118	5.0
105.133	2.0
105.147	1.0
105.162	2.0
105.177	1.0
105.192	4.0
105.207	0.0
105.222	3.0
105.237	3.0
105.252	2.0
105.267	2.0
105.282	3.0
105.297	4.0
105.312	3.0
105.327	7.0
105.342	1.0
105.356	9.0
105.371	3.0
105.386	5.0
105.401	2.0
105.416	2.0
105.431	3.0
105.446	3.0
105.461	2.0
105.476	10.0
105.491	3.0
105.506	4.0
105.521	6.0
105.536	3.0
105.551	3.0
105.566	3.0
105.581	4.0
105.595	2.0
105.61	1.0
105.625	5.0
105.64	0.0
105.655	2.0
105.67	6.0
105.685	3.0
105.7	4.0
105.715	3.0
105.73	2.0
105.745	3.0
105.76	7.0
105.775	1.0
105.79	1.0
105.805	7.0
105.82	2.0
105.835	5.0
105.85	1.0
105.864	4.0
105.879	0.0
105.894	3.0
105.909	2.0
105.924	2.0
105.939	1.0
105.954	3.0
105.969	5.0
105.984	3.0
105.999	1.0
106.014	3.0
106.029	5.0
106.044	5.0
106.059	2.0
106.074	1.0
106.089	2.0
106.104	1.0
106.119	2.0
106.134	2.0
106.148	4.0
106.163	3.0
106.178	4.0
106.193	2.0
106.208	3.0
106.223	7.0
106.238	1.0
106.253	3.0
106.268	4.0
106.283	3.0
106.298	1.0
106.313	2.0
106.328	4.0
106.343	5.0
106.358	3.0
106.373	1.0
106.388	2.0
106.403	6.0
106.418	3.0
106.432	2.0
106.447	4.0
106.462	3.0
106.477	4.0
106.492	0.0
106.507	0.0
106.522	3.0
106.537	2.0
106.552	0.0
106.567	4.0
106.582	1.0
106.597	3.0
106.612	2.0
106.627	6.0
106.642	1.0
106.657	0.0
106.672	2.0
106.687	3.0
106.701	7.0
106.716	2.0
106.731	4.0
106.746	4.0
106.761	5.0
106.776	2.0
106.791	3.0
106.806	2.0
106.821	6.0
106.836	2.0
106.851	5.0
106.866	2.0
106.881	2.0
106.896	2.0
106.911	2.0
106.926	4.0
106.941	3.0
106.955	2.0
106.97	0.0
106.985	1.0
107.0	4.0
107.015	4.0
107.03	5.0
107.045	2.0
107.06	3.0
107.075	2.0
107.09	2.0
107.105	3.0
107.12	3.0
107.135	4.0
107.15	9.0
107.165	5.0
107.18	6.0
107.194	4.0
107.209	6.0
107.224	4.0
107.239	6.0
107.254	1.0
107.269	3.0
107.284	7.0
107.299	1.0
107.314	3.0
107.329	5.0
107.344	3.0
107.359	4.0
107.374	2.0
107.389	2.0
107.404	2.0
107.418	5.0
107.433	3.0
107.448	5.0
107.463	1.0
107.478	1.0
107.493	1.0
107.508	3.0
107.523	3.0
107.538	4.0
107.553	3.0
107.568	4.0
107.583	8.0
107.598	10.0
107.613	3.0
107.627	4.0
107.642	4.0
107.657	4.0
107.672	1.0
107.687	0.0
107.702	2.0
107.717	1.0
107.732	2.0
107.747	3.0
107.762	5.0
107.777	4.0
107.792	3.0
107.807	4.0
107.821	6.0
107.836	3.0
107.851	5.0
107.866	4.0
107.881	4.0
107.896	5.0
107.911	2.0
107.926	3.0
107.941	3.0
107.956	2.0
107.971	7.0
107.986	4.0
108.0	3.0
108.015	2.0
108.03	5.0
108.045	7.0
108.06	4.0
108.075	0.0
108.09	2.0
108.105	3.0
108.12	9.0
108.135	5.0
108.15	8.0
108.164	4.0
108.179	4.0
108.194	4.0
108.209	5.0
108.224	5.0
108.239	2.0
108.254	6.0
108.269	2.0
108.284	1.0
108.299	6.0
108.313	2.0
108.328	1.0
108.343	4.0
108.358	5.0
108.373	4.0
108.388	1.0
108.403	2.0
108.418	3.0
108.433	2.0
108.448	3.0
108.462	4.0
108.477	4.0
108.492	2.0
108.507	5.0
108.522	3.0
108.537	3.0
108.552	1.0
108.567	6.0
108.582	4.0
108.597	4.0
108.611	3.0
108.626	5.0
108.641	3.0
108.656	3.0
108.671	5.0
108.686	2.0
108.701	3.0
108.716	1.0
108.731	0.0
108.745	4.0
108.76	1.0
108.775	5.0
108.79	2.0
108.805	4.0
108.82	5.0
108.835	0.0
108.85	5.0
108.865	5.0
108.879	2.0
108.894	1.0
108.909	4.0
108.924	5.0
108.939	4.0
108.954	0.0
108.969	3.0
108.984	1.0
108.999	5.0
109.013	3.0
109.028	2.0
109.043	7.0
109.058	4.0
109.073	1.0
109.088	3.0
109.103	6.0
109.118	7.0
109.133	3.0
109.147	5.0
109.162	5.0
109.177	2.0
109.192	1.0
109.207	6.0
109.222	1.0
109.237	3.0
109.252	2.0
109.267	4.0
109.281	3.0
109.296	4.0
109.311	3.0
109.326	5.0
109.341	2.0
109.356	1.0
109.371	0.0
109.386	3.0
109.4	4.0
109.415	2.0
109.43	6.0
109.445	4.0
109.46	2.0
109.475	4.0
109.49	2.0
109.505	3.0
109.52	4.0
109.534	2.0
109.549	2.0
109.564	1.0
109.579	3.0
109.594	4.0
109.609	2.0
109.624	5.0
109.639	2.0
109.653	0.0
109.668	2.0
109.683	3.0
109.698	2.0
109.713	2.0
109.728	6.0
109.743	4.0
109.758	5.0
109.773	3.0
109.787	1.0
109.802	6.0
109.817	3.0
109.832	1.0
109.847	4.0
109.862	0.0
109.877	4.0
109.892	2.0
109.907	0.0
109.921	5.0
109.936	2.0
109.951	1.0
109.966	1.0
109.981	6.0
109.996	0.0
110.011	1.0
110.026	2.0
110.04	2.0
110.055	3.0
110.07	3.0
110.085	3.0
110.1	7.0
110.115	5.0
110.13	0.0
110.145	7.0
110.16	2.0
110.174	5.0
110.189	1.0
110.204	1.0
110.219	3.0
110.234	4.0
110.249	4.0
110.264	5.0
110.279	1.0
110.294	4.0
110.308	7.0
110.323	4.0
110.338	5.0
110.353	2.0
110.368	0.0
110.383	3.0
110.398	2.0
110.413	3.0
110.428	3.0
110.442	1.0
110.457	3.0
110.472	2.0
110.487	3.0
110.502	3.0
110.517	9.0
110.532	4.0
110.547	2.0
110.561	0.0
110.576	2.0
110.591	3.0
110.606	2.0
110.621	4.0
110.636	2.0
110.651	5.0
110.666	5.0
110.681	3.0
110.695	2.0
110.71	4.0
110.725	3.0
110.74	2.0
110.755	2.0
110.77	2.0
110.785	4.0
110.8	4.0
110.815	0.0
110.829	3.0
110.844	3.0
110.859	3.0
110.874	4.0
110.889	6.0
110.904	4.0
110.919	3.0
110.934	2.0
110.948	4.0
110.963	3.0
110.978	1.0
110.993	4.0
111.008	2.0
111.023	6.0
111.038	4.0
111.053	1.0
111.067	4.0
111.082	3.0
111.097	3.0
111.112	3.0
111.127	7.0
111.142	6.0
111.157	2.0
111.172	5.0
111.186	3.0
111.201	5.0
111.216	2.0
111.231	3.0
111.246	5.0
111.261	2.0
111.276	2.0
111.291	0.0
111.305	4.0
111.32	2.0
111.335	1.0
111.35	2.0
111.365	1.0
111.38	6.0
111.395	2.0
111.41	3.0
111.424	1.0
111.439	3.0
111.454	4.0
111.469	5.0
111.484	4.0
111.499	1.0
111.514	4.0
111.528	4.0
111.543	2.0
111.558	4.0
111.573	1.0
111.588	6.0
111.603	7.0
111.618	4.0
111.633	2.0
111.647	5.0
111.662	2.0
111.677	4.0
111.692	1.0
111.707	3.0
111.722	2.0
111.737	1.0
111.751	2.0
111.766	3.0
111.781	3.0
111.796	3.0
111.811	2.0
111.826	4.0
111.84	8.0
111.855	5.0
111.87	5.0
111.885	4.0
111.9	8.0
111.915	5.0
111.93	3.0
111.944	0.0
111.959	4.0
111.974	7.0
111.989	2.0
112.004	1.0
112.019	1.0
112.033	4.0
112.048	2.0
112.063	2.0
112.078	3.0
112.093	3.0
112.108	4.0
112.123	3.0
112.137	1.0
112.152	1.0
112.167	2.0
112.182	3.0
112.197	6.0
112.212	4.0
112.226	0.0
112.241	3.0
112.256	3.0
112.271	1.0
112.286	4.0
112.301	2.0
112.315	4.0
112.33	2.0
112.345	0.0
112.36	5.0
112.375	4.0
112.389	4.0
112.404	2.0
112.419	1.0
112.434	3.0
112.449	3.0
112.464	3.0
112.478	5.0
112.493	2.0
112.508	3.0
112.523	3.0
112.538	2.0
112.553	7.0
112.567	3.0
112.582	3.0
112.597	4.0
112.612	8.0
112.627	2.0
112.642	2.0
112.656	4.0
112.671	6.0
112.686	3.0
112.701	4.0
112.716	4.0
112.73	4.0
112.745	3.0
112.76	5.0
112.775	5.0
112.79	3.0
112.805	6.0
112.819	4.0
112.834	2.0
112.849	7.0
112.864	5.0
112.879	4.0
112.894	3.0
112.908	1.0
112.923	2.0
112.938	4.0
112.953	5.0
112.968	3.0
112.983	1.0
112.997	5.0
113.012	6.0
113.027	1.0
113.042	5.0
113.057	4.0
113.072	6.0
113.086	2.0
113.101	4.0
113.116	0.0
113.131	0.0
113.146	6.0
113.161	1.0
113.175	7.0
113.19	2.0
113.205	5.0
113.22	1.0
113.235	3.0
113.25	5.0
113.265	3.0
113.279	4.0
113.294	6.0
113.309	5.0
113.324	2.0
113.339	4.0
113.354	4.0
113.368	4.0
113.383	6.0
113.398	2.0
113.413	2.0
113.428	1.0
113.443	5.0
113.458	3.0
113.472	3.0
113.487	7.0
113.502	4.0
113.517	3.0
113.532	3.0
113.547	4.0
113.562	3.0
113.576	3.0
113.591	0.0
113.606	3.0
113.621	4.0
113.636	2.0
113.651	2.0
113.666	3.0
113.681	2.0
113.695	5.0
113.71	5.0
113.725	2.0
113.74	4.0
113.755	4.0
113.77	3.0
113.785	6.0
113.8	3.0
113.814	1.0
113.829	3.0
113.844	4.0
113.859	3.0
113.874	4.0
113.889	0.0
113.904	2.0
113.919	1.0
113.934	3.0
113.949	5.0
113.963	4.0
113.978	2.0
113.993	4.0
114.008	6.0
114.023	5.0
114.038	3.0
114.053	2.0
114.068	3.0
114.083	4.0
114.098	4.0
114.113	4.0
114.127	3.0
114.142	14.0
114.157	2.0
114.172	3.0
114.187	5.0
114.202	4.0
114.217	2.0
114.232	5.0
114.247	5.0
114.262	2.0
114.277	4.0
114.292	2.0
114.307	2.0
114.322	2.0
114.337	4.0
114.351	2.0
114.366	1.0
114.381	1.0
114.396	4.0
114.411	2.0
114.426	5.0
114.441	5.0
114.456	5.0
114.471	7.0
114.486	2.0
114.501	6.0
114.516	2.0
114.531	4.0
114.546	6.0
114.561	2.0
114.576	3.0
114.591	4.0
114.606	2.0
114.621	3.0
114.636	4.0
114.65	0.0
114.665	1.0
114.68	2.0
114.695	6.0
114.71	4.0
114.725	7.0
114.74	2.0
114.755	2.0
114.77	6.0
114.785	5.0
114.8	8.0
114.815	7.0
114.83	3.0
114.845	7.0
114.86	4.0
114.875	2.0
114.89	6.0
114.905	4.0
114.92	3.0
114.935	2.0
114.95	2.0
114.965	1.0
114.98	0.0
114.995	3.0
115.009	4.0
115.024	1.0
115.039	5.0
115.054	2.0
115.069	4.0
115.084	0.0
115.099	1.0
115.114	2.0
115.129	2.0
115.144	2.0
115.159	4.0
115.174	2.0
115.189	4.0
115.204	2.0
115.219	5.0
115.234	2.0
115.249	4.0
115.264	9.0
115.279	7.0
115.294	8.0
115.309	9.0
115.323	1.0
115.338	8.0
115.353	3.0
115.368	6.0
115.383	2.0
115.398	3.0
115.413	5.0
115.428	1.0
115.443	1.0
115.458	4.0
115.473	4.0
115.488	4.0
115.503	4.0
115.518	1.0
115.533	1.0
115.548	3.0
115.562	3.0
115.577	3.0
115.592	7.0
115.607	1.0
115.622	2.0
115.637	1.0
115.652	4.0
115.667	2.0
115.682	2.0
115.697	5.0
115.712	4.0
115.727	2.0
115.741	0.0
115.756	5.0
115.771	2.0
115.786	4.0
115.801	6.0
115.816	5.0
115.831	2.0
115.846	3.0
115.861	5.0
115.875	1.0
115.89	1.0
115.905	3.0
115.92	3.0
115.935	7.0
115.95	4.0
115.965	2.0
115.98	4.0
115.995	5.0
116.009	6.0
116.024	2.0
116.039	5.0
116.054	8.0
116.069	4.0
116.084	2.0
116.099	4.0
116.113	4.0
116.128	2.0
116.143	5.0
116.158	2.0
116.173	3.0
116.188	5.0
116.202	6.0
116.217	4.0
116.232	4.0
116.247	5.0
116.262	5.0
116.277	2.0
116.291	4.0
116.306	1.0
116.321	8.0
116.336	4.0
116.351	4.0
116.366	9.0
116.38	1.0
116.395	3.0
116.41	4.0
116.425	5.0
116.44	4.0
116.454	2.0
116.469	0.0
116.484	3.0
116.499	2.0
116.514	2.0
116.528	5.0
116.543	2.0
116.558	4.0
116.573	2.0
116.588	3.0
116.602	6.0
116.617	5.0
116.632	3.0
116.647	4.0
116.662	0.0
116.676	2.0
116.691	2.0
116.706	2.0
116.721	2.0
116.735	6.0
116.75	1.0
116.765	3.0
116.78	4.0
116.795	5.0
116.809	2.0
116.824	1.0
116.839	3.0
116.854	4.0
116.868	1.0
116.883	1.0
116.898	0.0
116.913	1.0
116.927	6.0
116.942	2.0
116.957	4.0
116.972	3.0
116.986	2.0
117.001	3.0
117.016	3.0
117.031	4.0
117.045	1.0
117.06	4.0
117.075	1.0
117.09	7.0
117.104	6.0
117.119	4.0
117.134	6.0
117.149	1.0
117.163	2.0
117.178	5.0
117.193	3.0
117.208	4.0
117.222	5.0
117.237	7.0
117.252	2.0
117.267	5.0
117.281	4.0
117.296	2.0
117.311	6.0
117.325	5.0
117.34	1.0
117.355	3.0
117.37	5.0
117.384	4.0
117.399	4.0
117.414	1.0
117.429	3.0
117.443	3.0
117.458	6.0
117.473	5.0
117.487	7.0
117.502	1.0
117.517	7.0
117.532	4.0
117.546	3.0
117.561	3.0
117.576	2.0
117.59	4.0
117.605	5.0
117.62	2.0
117.635	2.0
117.649	5.0
117.664	1.0
117.679	7.0
117.693	2.0
117.708	3.0
117.723	3.0
117.738	3.0
117.752	3.0
117.767	4.0
117.782	1.0
117.796	2.0
117.811	6.0
117.826	2.0
117.841	5.0
117.855	4.0
117.87	5.0
117.885	2.0
117.899	3.0
117.914	5.0
117.929	3.0
117.944	5.0
117.958	5.0
117.973	4.0
117.988	5.0
118.002	1.0
118.017	5.0
118.032	3.0
118.047	6.0
118.062	5.0
118.077	5.0
118.092	2.0
118.107	6.0
118.121	2.0
118.136	6.0
118.151	7.0
118.166	6.0
118.181	6.0
118.196	1.0
118.211	5.0
118.225	2.0
118.24	2.0
118.255	3.0
118.27	7.0
118.285	5.0
118.3	5.0
118.315	5.0
118.33	3.0
118.344	1.0
118.359	3.0
118.374	2.0
118.389	5.0
118.404	2.0
118.419	3.0
118.434	6.0
118.449	1.0
118.463	3.0
118.478	5.0
118.493	4.0
118.508	2.0
118.523	6.0
118.538	9.0
118.553	3.0
118.567	4.0
118.582	3.0
118.597	3.0
118.612	1.0
118.627	3.0
118.642	3.0
118.657	4.0
118.672	7.0
118.686	8.0
118.701	3.0
118.716	3.0
118.731	3.0
118.746	2.0
118.761	0.0
118.776	2.0
118.791	4.0
118.805	4.0
118.82	5.0
118.835	4.0
118.85	2.0
118.865	2.0
118.88	1.0
118.895	2.0
118.909	1.0
118.924	1.0
118.939	6.0
118.954	3.0
118.969	8.0
118.984	2.0
118.999	1.0
119.014	5.0
119.028	5.0
119.043	3.0
119.058	4.0
119.073	3.0
119.088	6.0
119.103	4.0
119.118	2.0
119.133	4.0
119.147	5.0
119.162	3.0
119.177	4.0
119.192	1.0
119.207	3.0
119.222	4.0
119.237	5.0
119.251	3.0
119.266	3.0
119.281	7.0
119.296	3.0
119.311	6.0
119.326	1.0
119.341	4.0
119.356	5.0
119.37	2.0
119.385	3.0
119.4	2.0
119.415	5.0
119.43	6.0
119.445	3.0
119.46	1.0
119.475	1.0
119.489	4.0
119.504	4.0
119.519	5.0
119.534	2.0
119.549	5.0
119.564	5.0
119.579	2.0
119.593	1.0
119.608	4.0
119.623	1.0
119.638	6.0
119.653	1.0
119.668	1.0
119.683	2.0
119.698	4.0
119.712	3.0
119.727	3.0
119.742	4.0
119.757	2.0
119.772	1.0
119.787	3.0
119.802	2.0
119.817	4.0
119.831	4.0
119.846	3.0
119.861	1.0
119.876	4.0
119.891	2.0
119.906	5.0
119.921	3.0
119.935	3.0
119.95	7.0
119.965	0.0
119.98	2.0
119.995	3.0
120.01	1.0
120.025	3.0
120.04	4.0
120.054	1.0
120.069	1.0
120.084	2.0
120.099	1.0
120.114	0.0
120.129	1.0
120.144	3.0
120.159	1.0
120.173	2.0
120.188	1.0
120.203	1.0
120.218	0.0
120.233	0.0
120.248	0.0
120.263	0.0
120.277	1.0
120.292	2.0
120.307	0.0
120.322	0.0
120.337	1.0
120.352	0.0
120.367	0.0
120.382	0.0
120.396	1.0
120.411	0.0
120.426	0.0
120.441	1.0
120.456	0.0
120.471	0.0
120.486	0.0
120.501	0.0
120.515	0.0
120.53	0.0
120.545	0.0
120.56	0.0
120.575	0.0
120.59	0.0
120.605	0.0
120.619	0.0
120.634	0.0
120.649	0.0
120.664	0.0
120.679	0.0
120.694	0.0
120.709	0.0
120.724	0.0
120.738	0.0
120.753	0.0
120.768	0.0
120.783	0.0
120.798	0.0
120.813	0.0
120.828	0.0
120.843	0.0
120.857	0.0
120.872	0.0
120.887	0.0
120.902	0.0
120.917	1.0
120.932	0.0
120.947	0.0
120.961	0.0
120.976	0.0
