-1.217	0.0
-1.202	0.0
-1.187	0.0
-1.172	0.0
-1.157	0.0
-1.142	0.0
-1.128	0.0
-1.113	0.0
-1.098	0.0
-1.083	0.0
-1.068	0.0
-1.054	0.0
-1.039	0.0
-1.024	0.0
-1.009	0.0
-0.994	0.0
-0.979	0.0
-0.965	0.0
-0.95	0.0
-0.935	0.0
-0.92	0.0
-0.905	0.0
-0.891	0.0
-0.876	0.0
-0.861	0.0
-0.846	0.0
-0.831	0.0
-0.816	0.0
-0.802	0.0
-0.787	0.0
-0.772	0.0
-0.757	0.0
-0.742	0.0
-0.728	0.0
-0.713	0.0
-0.698	0.0
-0.683	0.0
-0.668	0.0
-0.653	0.0
-0.639	0.0
-0.624	0.0
-0.609	0.0
-0.594	0.0
-0.579	0.0
-0.565	0.0
-0.55	0.0
-0.535	0.0
-0.52	0.0
-0.505	0.0
-0.49	0.0
-0.476	0.0
-0.461	0.0
-0.446	0.0
-0.431	0.0
-0.416	0.0
-0.401	0.0
-0.387	0.0
-0.372	1.0
-0.357	0.0
-0.342	0.0
-0.327	0.0
-0.313	0.0
-0.298	0.0
-0.283	0.0
-0.268	0.0
-0.253	0.0
-0.238	0.0
-0.224	0.0
-0.209	0.0
-0.194	0.0
-0.179	0.0
-0.164	0.0
-0.15	0.0
-0.135	0.0
-0.12	0.0
-0.105	0.0
-0.09	0.0
-0.075	0.0
-0.061	0.0
-0.046	0.0
-0.031	0.0
-0.016	0.0
-0.001	0.0
0.013	1.0
0.028	0.0
0.043	0.0
0.058	0.0
0.073	0.0
0.088	0.0
0.102	0.0
0.117	0.0
0.132	0.0
0.147	0.0
0.162	0.0
0.176	0.0
0.191	0.0
0.206	0.0
0.221	1.0
0.236	0.0
0.251	0.0
0.265	0.0
0.28	0.0
0.295	0.0
0.31	0.0
0.325	0.0
0.339	0.0
0.354	0.0
0.369	0.0
0.384	0.0
0.399	0.0
0.414	0.0
0.428	0.0
0.443	0.0
0.458	0.0
0.473	0.0
0.488	0.0
0.502	0.0
0.517	0.0
0.532	0.0
0.547	0.0
0.562	0.0
0.577	0.0
0.591	0.0
0.606	0.0
0.621	0.0
0.636	0.0
0.651	0.0
0.665	0.0
0.68	0.0
0.695	0.0
0.71	0.0
0.725	0.0
0.74	0.0
0.754	0.0
0.769	0.0
0.784	0.0
0.799	0.0
0.814	0.0
0.828	0.0
0.843	0.0
0.858	0.0
0.873	0.0
0.888	0.0
0.903	0.0
0.917	0.0
0.932	0.0
0.947	0.0
0.962	0.0
0.977	0.0
0.991	0.0
1.006	0.0
1.021	0.0
1.036	0.0
1.051	0.0
1.065	0.0
1.08	0.0
1.095	0.0
1.11	0.0
1.125	0.0
1.14	0.0
1.154	0.0
1.169	0.0
1.184	0.0
1.199	0.0
1.214	0.0
1.228	0.0
1.243	0.0
1.258	0.0
1.273	0.0
1.288	0.0
1.302	0.0
1.317	0.0
1.332	0.0
1.347	0.0
1.362	0.0
1.376	0.0
1.391	0.0
1.406	0.0
1.421	0.0
1.436	0.0
1.45	0.0
1.465	0.0
1.48	0.0
1.495	0.0
1.51	1.0
1.524	0.0
1.539	0.0
1.554	1.0
1.569	0.0
1.584	0.0
1.598	0.0
1.613	0.0
1.628	0.0
1.643	0.0
1.658	0.0
1.672	0.0
1.687	0.0
1.702	0.0
1.717	0.0
1.732	0.0
1.746	0.0
1.761	0.0
1.776	0.0
1.791	0.0
1.806	0.0
1.82	0.0
1.835	0.0
1.85	0.0
1.865	0.0
1.88	0.0
1.894	0.0
1.909	0.0
1.924	0.0
1.939	0.0
1.954	0.0
1.968	0.0
1.983	0.0
1.998	1.0
2.013	0.0
2.028	1.0
2.042	1.0
2.057	0.0
2.072	0.0
2.087	0.0
2.101	0.0
2.116	0.0
2.131	0.0
2.146	0.0
2.161	1.0
2.175	2.0
2.19	2.0
2.205	0.0
2.22	0.0
2.235	0.0
2.249	0.0
2.264	0.0
2.279	0.0
2.294	0.0
2.308	0.0
2.323	1.0
2.338	2.0
2.353	2.0
2.368	0.0
2.382	1.0
2.397	1.0
2.412	1.0
2.427	1.0
2.442	2.0
2.456	3.0
2.471	1.0
2.486	2.0
2.501	1.0
2.515	0.0
2.53	1.0
2.545	1.0
2.56	1.0
2.575	1.0
2.589	6.0
2.604	3.0
2.619	3.0
2.634	3.0
2.649	2.0
2.663	2.0
2.678	3.0
2.693	2.0
2.708	2.0
2.722	1.0
2.737	6.0
2.752	5.0
2.767	0.0
2.782	3.0
2.796	2.0
2.811	2.0
2.826	4.0
2.841	2.0
2.856	5.0
2.87	4.0
2.885	2.0
2.9	1.0
2.915	3.0
2.93	9.0
2.944	3.0
2.959	3.0
2.974	4.0
2.989	4.0
3.004	3.0
3.018	8.0
3.033	1.0
3.048	2.0
3.063	3.0
3.078	11.0
3.092	3.0
3.107	5.0
3.122	6.0
3.137	3.0
3.152	3.0
3.166	3.0
3.181	5.0
3.196	7.0
3.211	6.0
3.226	4.0
3.24	5.0
3.255	5.0
3.27	4.0
3.285	10.0
3.3	7.0
3.315	4.0
3.329	4.0
3.344	4.0
3.359	2.0
3.374	3.0
3.389	4.0
3.403	7.0
3.418	2.0
3.433	4.0
3.448	3.0
3.463	4.0
3.478	2.0
3.492	9.0
3.507	9.0
3.522	4.0
3.537	7.0
3.552	8.0
3.567	6.0
3.581	5.0
3.596	4.0
3.611	3.0
3.626	2.0
3.641	1.0
3.656	7.0
3.671	9.0
3.685	7.0
3.7	4.0
3.715	10.0
3.73	7.0
3.745	8.0
3.76	5.0
3.775	4.0
3.789	5.0
3.804	3.0
3.819	8.0
3.834	7.0
3.849	8.0
3.864	8.0
3.879	8.0
3.894	4.0
3.908	7.0
3.923	9.0
3.938	9.0
3.953	7.0
3.968	8.0
3.983	7.0
3.998	5.0
4.013	6.0
4.027	6.0
4.042	4.0
4.057	7.0
4.072	6.0
4.087	9.0
4.102	4.0
4.117	6.0
4.132	6.0
4.147	5.0
4.162	9.0
4.176	8.0
4.191	8.0
4.206	7.0
4.221	9.0
4.236	7.0
4.251	5.0
4.266	6.0
4.281	3.0
4.296	8.0
4.311	8.0
4.326	9.0
4.341	7.0
4.356	5.0
4.37	6.0
4.385	8.0
4.4	8.0
4.415	10.0
4.43	9.0
4.445	12.0
4.46	6.0
4.475	9.0
4.49	7.0
4.505	8.0
4.52	4.0
4.535	11.0
4.55	5.0
4.565	7.0
4.58	8.0
4.595	8.0
4.61	7.0
4.625	7.0
4.639	8.0
4.654	9.0
4.669	6.0
4.684	10.0
4.699	5.0
4.714	10.0
4.729	4.0
4.744	4.0
4.759	9.0
4.774	5.0
4.789	7.0
4.804	9.0
4.819	6.0
4.834	3.0
4.849	8.0
4.864	13.0
4.879	1.0
4.894	12.0
4.909	9.0
4.924	8.0
4.939	7.0
4.954	7.0
4.969	9.0
4.984	8.0
4.999	4.0
5.014	9.0
5.029	7.0
5.044	13.0
5.059	9.0
5.074	1.0
5.089	5.0
5.104	11.0
5.119	7.0
5.134	8.0
5.149	7.0
5.164	8.0
5.179	4.0
5.194	8.0
5.209	7.0
5.224	12.0
5.239	7.0
5.254	8.0
5.269	6.0
5.284	5.0
5.299	6.0
5.314	12.0
5.329	15.0
5.344	7.0
5.359	9.0
5.374	10.0
5.389	4.0
5.404	8.0
5.419	7.0
5.434	12.0
5.449	13.0
5.464	13.0
5.479	6.0
5.494	11.0
5.509	3.0
5.524	6.0
5.539	17.0
5.554	9.0
5.569	10.0
5.584	8.0
5.599	4.0
5.614	8.0
5.629	13.0
5.644	10.0
5.659	9.0
5.674	6.0
5.689	10.0
5.704	8.0
5.719	14.0
5.734	12.0
5.749	8.0
5.764	11.0
5.779	7.0
5.794	5.0
5.809	10.0
5.824	10.0
5.839	17.0
5.854	9.0
5.869	5.0
5.884	7.0
5.899	11.0
5.914	11.0
5.929	9.0
5.944	10.0
5.959	10.0
5.974	12.0
5.989	13.0
6.004	10.0
6.019	12.0
6.034	13.0
6.049	4.0
6.064	7.0
6.079	13.0
6.094	9.0
6.109	16.0
6.124	12.0
6.139	10.0
6.154	4.0
6.169	15.0
6.184	7.0
6.199	12.0
6.214	8.0
6.229	8.0
6.244	6.0
6.259	14.0
6.274	9.0
6.289	8.0
6.304	14.0
6.319	12.0
6.334	5.0
6.349	11.0
6.364	12.0
6.379	11.0
6.394	10.0
6.409	8.0
6.424	12.0
6.439	8.0
6.454	8.0
6.469	9.0
6.484	13.0
6.499	9.0
6.514	8.0
6.529	6.0
6.544	8.0
6.559	8.0
6.574	10.0
6.589	8.0
6.604	7.0
6.619	13.0
6.634	8.0
6.649	10.0
6.664	8.0
6.679	12.0
6.694	4.0
6.709	6.0
6.724	10.0
6.739	11.0
6.754	6.0
6.769	8.0
6.784	11.0
6.799	9.0
6.814	5.0
6.829	11.0
6.844	12.0
6.859	14.0
6.873	11.0
6.888	11.0
6.903	11.0
6.918	10.0
6.933	7.0
6.948	5.0
6.963	10.0
6.978	13.0
6.993	9.0
7.008	10.0
7.023	12.0
7.038	7.0
7.053	10.0
7.068	9.0
7.083	9.0
7.098	8.0
7.113	9.0
7.128	10.0
7.143	12.0
7.157	6.0
7.172	7.0
7.187	9.0
7.202	11.0
7.217	5.0
7.232	10.0
7.247	13.0
7.262	9.0
7.277	9.0
7.292	9.0
7.307	6.0
7.322	3.0
7.336	17.0
7.351	11.0
7.366	10.0
7.381	15.0
7.396	6.0
7.411	5.0
7.426	9.0
7.441	12.0
7.456	7.0
7.471	11.0
7.485	8.0
7.5	11.0
7.515	14.0
7.53	10.0
7.545	10.0
7.56	15.0
7.575	10.0
7.59	13.0
7.604	7.0
7.619	6.0
7.634	8.0
7.649	11.0
7.664	8.0
7.679	9.0
7.693	6.0
7.708	7.0
7.723	13.0
7.738	9.0
7.753	11.0
7.768	11.0
7.783	5.0
7.797	9.0
7.812	8.0
7.827	13.0
7.842	3.0
7.857	4.0
7.871	13.0
7.886	6.0
7.901	9.0
7.916	13.0
7.931	4.0
7.945	8.0
7.96	10.0
7.975	13.0
7.99	14.0
8.005	13.0
8.019	4.0
8.034	18.0
8.049	14.0
8.064	10.0
8.078	8.0
8.093	6.0
8.108	10.0
8.123	13.0
8.137	8.0
8.152	4.0
8.167	9.0
8.182	6.0
8.196	11.0
8.211	6.0
8.226	18.0
8.241	9.0
8.255	11.0
8.27	6.0
8.285	6.0
8.3	8.0
8.314	9.0
8.329	7.0
8.344	12.0
8.358	5.0
8.373	7.0
8.388	6.0
8.403	11.0
8.417	11.0
8.432	8.0
8.447	8.0
8.461	3.0
8.476	5.0
8.491	4.0
8.505	7.0
8.52	17.0
8.535	6.0
8.55	12.0
8.564	6.0
8.579	6.0
8.594	17.0
8.608	16.0
8.623	13.0
8.638	8.0
8.652	7.0
8.667	11.0
8.682	6.0
8.696	8.0
8.711	9.0
8.726	15.0
8.74	5.0
8.755	10.0
8.77	12.0
8.784	4.0
8.799	7.0
8.814	5.0
8.828	12.0
8.843	8.0
8.858	12.0
8.872	9.0
8.887	7.0
8.902	19.0
8.916	2.0
8.931	10.0
8.946	14.0
8.96	13.0
8.975	6.0
8.99	7.0
9.004	8.0
9.019	14.0
9.034	8.0
9.048	10.0
9.063	14.0
9.077	15.0
9.092	7.0
9.107	8.0
9.121	7.0
9.136	11.0
9.151	8.0
9.165	9.0
9.18	4.0
9.195	9.0
9.209	10.0
9.224	7.0
9.239	15.0
9.253	15.0
9.268	9.0
9.283	5.0
9.297	10.0
9.312	4.0
9.327	7.0
9.341	6.0
9.356	5.0
9.371	4.0
9.385	7.0
9.4	9.0
9.415	6.0
9.429	10.0
9.444	11.0
9.458	10.0
9.473	7.0
9.488	8.0
9.502	9.0
9.517	12.0
9.532	11.0
9.546	5.0
9.561	8.0
9.576	8.0
9.59	10.0
9.605	8.0
9.62	6.0
9.635	7.0
9.649	17.0
9.664	10.0
9.679	5.0
9.693	3.0
9.708	6.0
9.723	10.0
9.737	6.0
9.752	9.0
9.767	11.0
9.781	7.0
9.796	6.0
9.811	4.0
9.825	11.0
9.84	6.0
9.855	8.0
9.87	10.0
9.884	12.0
9.899	13.0
9.914	7.0
9.928	4.0
9.943	8.0
9.958	8.0
9.973	11.0
9.987	5.0
10.002	6.0
10.017	7.0
10.031	7.0
10.046	8.0
10.061	8.0
10.076	8.0
10.09	13.0
10.105	10.0
10.12	7.0
10.135	8.0
10.149	8.0
10.164	8.0
10.179	6.0
10.194	11.0
10.208	6.0
10.223	7.0
10.238	7.0
10.253	7.0
10.267	18.0
10.282	12.0
10.297	12.0
10.312	11.0
10.326	8.0
10.341	8.0
10.356	7.0
10.371	8.0
10.386	7.0
10.4	6.0
10.415	9.0
10.43	4.0
10.445	6.0
10.46	7.0
10.474	8.0
10.489	5.0
10.504	9.0
10.519	6.0
10.533	9.0
10.548	10.0
10.563	8.0
10.578	7.0
10.593	13.0
10.608	5.0
10.622	6.0
10.637	8.0
10.652	10.0
10.667	7.0
10.682	7.0
10.696	13.0
10.711	8.0
10.726	13.0
10.741	6.0
10.756	10.0
10.771	9.0
10.785	9.0
10.8	8.0
10.815	6.0
10.83	6.0
10.845	7.0
10.86	12.0
10.874	12.0
10.889	12.0
10.904	9.0
10.919	9.0
10.934	11.0
10.949	5.0
10.963	5.0
10.978	7.0
10.993	3.0
11.008	3.0
11.023	6.0
11.038	7.0
11.053	5.0
11.067	8.0
11.082	5.0
11.097	8.0
11.112	9.0
11.127	7.0
11.142	11.0
11.157	5.0
11.172	13.0
11.186	4.0
11.201	11.0
11.216	6.0
11.231	5.0
11.246	9.0
11.261	7.0
11.276	5.0
11.291	8.0
11.305	13.0
11.32	10.0
11.335	7.0
11.35	11.0
11.365	12.0
11.38	7.0
11.395	7.0
11.41	6.0
11.424	3.0
11.439	5.0
11.454	12.0
11.469	10.0
11.484	7.0
11.499	6.0
11.514	4.0
11.529	6.0
11.544	8.0
11.558	10.0
11.573	9.0
11.588	16.0
11.603	6.0
11.618	12.0
11.633	6.0
11.648	6.0
11.663	16.0
11.678	5.0
11.693	7.0
11.707	4.0
11.722	7.0
11.737	3.0
11.752	14.0
11.767	5.0
11.782	8.0
11.797	10.0
11.812	7.0
11.827	10.0
11.842	16.0
11.856	8.0
11.871	7.0
11.886	8.0
11.901	13.0
11.916	8.0
11.931	11.0
11.946	14.0
11.961	10.0
11.976	18.0
11.991	9.0
12.006	5.0
12.02	12.0
12.035	10.0
12.05	9.0
12.065	8.0
12.08	8.0
12.095	8.0
12.11	15.0
12.125	6.0
12.14	10.0
12.155	11.0
12.17	11.0
12.184	9.0
12.199	10.0
12.214	12.0
12.229	7.0
12.244	9.0
12.259	9.0
12.274	8.0
12.289	14.0
12.304	20.0
12.319	10.0
12.334	9.0
12.348	8.0
12.363	14.0
12.378	12.0
12.393	8.0
12.408	10.0
12.423	7.0
12.438	16.0
12.453	6.0
12.468	15.0
12.483	12.0
12.498	10.0
12.513	13.0
12.527	10.0
12.542	12.0
12.557	17.0
12.572	14.0
12.587	16.0
12.602	13.0
12.617	14.0
12.632	15.0
12.647	11.0
12.662	11.0
12.677	9.0
12.692	14.0
12.707	13.0
12.721	10.0
12.736	9.0
12.751	16.0
12.766	13.0
12.781	15.0
12.796	10.0
12.811	22.0
12.826	15.0
12.841	18.0
12.856	20.0
12.871	18.0
12.886	12.0
12.9	19.0
12.915	16.0
12.93	22.0
12.945	14.0
12.96	15.0
12.975	15.0
12.99	16.0
13.005	21.0
13.02	16.0
13.035	13.0
13.05	14.0
13.065	15.0
13.08	15.0
13.094	15.0
13.109	26.0
13.124	12.0
13.139	15.0
13.154	11.0
13.169	24.0
13.184	19.0
13.199	24.0
13.214	16.0
13.229	13.0
13.244	21.0
13.259	19.0
13.274	18.0
13.288	16.0
13.303	20.0
13.318	26.0
13.333	25.0
13.348	28.0
13.363	17.0
13.378	18.0
13.393	27.0
13.408	29.0
13.423	17.0
13.438	31.0
13.453	34.0
13.468	46.0
13.482	40.0
13.497	46.0
13.512	52.0
13.527	43.0
13.542	38.0
13.557	54.0
13.572	64.0
13.587	65.0
13.602	77.0
13.617	63.0
13.632	64.0
13.647	66.0
13.662	86.0
13.677	84.0
13.691	92.0
13.706	80.0
13.721	99.0
13.736	100.0
13.751	89.0
13.766	111.0
13.781	103.0
13.796	128.0
13.811	119.0
13.826	155.0
13.841	143.0
13.856	118.0
13.871	117.0
13.885	109.0
13.9	106.0
13.915	72.0
13.93	82.0
13.945	67.0
13.96	48.0
13.975	44.0
13.99	46.0
14.005	25.0
14.02	23.0
14.035	23.0
14.05	23.0
14.065	27.0
14.08	33.0
14.094	28.0
14.109	22.0
14.124	17.0
14.139	20.0
14.154	28.0
14.169	18.0
14.184	21.0
14.199	20.0
14.214	12.0
14.229	15.0
14.244	14.0
14.259	26.0
14.274	18.0
14.288	17.0
14.303	14.0
14.318	18.0
14.333	24.0
14.348	12.0
14.363	29.0
14.378	16.0
14.393	18.0
14.408	19.0
14.423	19.0
14.438	15.0
14.453	24.0
14.468	15.0
14.482	17.0
14.497	16.0
14.512	25.0
14.527	12.0
14.542	17.0
14.557	13.0
14.572	11.0
14.587	15.0
14.602	17.0
14.617	13.0
14.632	19.0
14.647	16.0
14.661	17.0
14.676	12.0
14.691	18.0
14.706	9.0
14.721	20.0
14.736	20.0
14.751	15.0
14.766	10.0
14.781	14.0
14.796	10.0
14.811	20.0
14.826	16.0
14.84	12.0
14.855	27.0
14.87	23.0
14.885	13.0
14.9	15.0
14.915	13.0
14.93	13.0
14.945	18.0
14.96	13.0
14.975	12.0
14.989	13.0
15.004	12.0
15.019	7.0
15.034	20.0
15.049	7.0
15.064	15.0
15.079	12.0
15.094	19.0
15.109	14.0
15.124	16.0
15.138	16.0
15.153	14.0
15.168	14.0
15.183	13.0
15.198	16.0
15.213	21.0
15.228	15.0
15.243	13.0
15.258	19.0
15.272	17.0
15.287	13.0
15.302	15.0
15.317	20.0
15.332	13.0
15.347	13.0
15.362	12.0
15.377	14.0
15.391	12.0
15.406	17.0
15.421	14.0
15.436	21.0
15.451	17.0
15.466	19.0
15.481	16.0
15.496	17.0
15.51	9.0
15.525	20.0
15.54	16.0
15.555	14.0
15.57	18.0
15.585	14.0
15.6	12.0
15.614	17.0
15.629	18.0
15.644	15.0
15.659	10.0
15.674	13.0
15.689	14.0
15.704	13.0
15.718	17.0
15.733	16.0
15.748	9.0
15.763	9.0
15.778	16.0
15.793	18.0
15.808	16.0
15.822	13.0
15.837	14.0
15.852	17.0
15.867	16.0
15.882	11.0
15.897	18.0
15.911	20.0
15.926	12.0
15.941	14.0
15.956	7.0
15.971	13.0
15.986	19.0
16.0	12.0
16.015	13.0
16.03	17.0
16.045	11.0
16.06	8.0
16.074	15.0
16.089	11.0
16.104	17.0
16.119	14.0
16.134	10.0
16.149	13.0
16.163	19.0
16.178	13.0
16.193	15.0
16.208	16.0
16.223	17.0
16.237	14.0
16.252	13.0
16.267	16.0
16.282	11.0
16.297	14.0
16.311	15.0
16.326	4.0
16.341	12.0
16.356	8.0
16.37	14.0
16.385	13.0
16.4	16.0
16.415	21.0
16.43	17.0
16.444	14.0
16.459	16.0
16.474	11.0
16.489	11.0
16.504	19.0
16.518	16.0
16.533	22.0
16.548	16.0
16.563	26.0
16.577	15.0
16.592	15.0
16.607	18.0
16.622	14.0
16.637	20.0
16.651	11.0
16.666	31.0
16.681	20.0
16.696	27.0
16.71	21.0
16.725	29.0
16.74	36.0
16.755	33.0
16.77	29.0
16.784	44.0
16.799	38.0
16.814	42.0
16.829	46.0
16.843	42.0
16.858	59.0
16.873	44.0
16.888	69.0
16.902	81.0
16.917	70.0
16.932	87.0
16.947	64.0
16.961	73.0
16.976	72.0
16.991	61.0
17.006	65.0
17.021	63.0
17.035	65.0
17.05	46.0
17.065	35.0
17.08	40.0
17.094	32.0
17.109	34.0
17.124	27.0
17.139	26.0
17.153	24.0
17.168	17.0
17.183	14.0
17.198	15.0
17.212	20.0
17.227	17.0
17.242	10.0
17.257	17.0
17.271	16.0
17.286	17.0
17.301	9.0
17.316	12.0
17.33	10.0
17.345	11.0
17.36	13.0
17.375	16.0
17.39	13.0
17.404	17.0
17.419	7.0
17.434	20.0
17.449	13.0
17.463	12.0
17.478	16.0
17.493	13.0
17.508	17.0
17.522	16.0
17.537	12.0
17.552	18.0
17.567	11.0
17.581	10.0
17.596	15.0
17.611	12.0
17.626	14.0
17.641	11.0
17.655	6.0
17.67	14.0
17.685	10.0
17.7	11.0
17.714	4.0
17.729	14.0
17.744	14.0
17.759	13.0
17.773	11.0
17.788	14.0
17.803	18.0
17.818	8.0
17.833	10.0
17.847	14.0
17.862	14.0
17.877	15.0
17.892	14.0
17.906	14.0
17.921	8.0
17.936	12.0
17.951	7.0
17.966	8.0
17.98	16.0
17.995	10.0
18.01	16.0
18.025	13.0
18.04	8.0
18.054	15.0
18.069	11.0
18.084	13.0
18.099	10.0
18.114	11.0
18.128	11.0
18.143	14.0
18.158	15.0
18.173	8.0
18.188	14.0
18.202	15.0
18.217	16.0
18.232	15.0
18.247	11.0
18.262	18.0
18.276	17.0
18.291	8.0
18.306	12.0
18.321	17.0
18.336	11.0
18.35	8.0
18.365	13.0
18.38	19.0
18.395	11.0
18.41	11.0
18.424	14.0
18.439	11.0
18.454	16.0
18.469	14.0
18.484	7.0
18.498	6.0
18.513	14.0
18.528	6.0
18.543	9.0
18.558	11.0
18.573	15.0
18.587	11.0
18.602	11.0
18.617	6.0
18.632	17.0
18.647	12.0
18.661	9.0
18.676	16.0
18.691	11.0
18.706	17.0
18.721	12.0
18.736	17.0
18.75	11.0
18.765	13.0
18.78	7.0
18.795	18.0
18.81	8.0
18.825	12.0
18.839	13.0
18.854	11.0
18.869	16.0
18.884	23.0
18.899	13.0
18.913	7.0
18.928	8.0
18.943	10.0
18.958	10.0
18.973	13.0
18.988	16.0
19.002	13.0
19.017	11.0
19.032	13.0
19.047	11.0
19.062	14.0
19.077	9.0
19.091	20.0
19.106	8.0
19.121	11.0
19.136	11.0
19.151	8.0
19.165	14.0
19.18	12.0
19.195	13.0
19.21	15.0
19.225	17.0
19.24	9.0
19.254	12.0
19.269	15.0
19.284	16.0
19.299	9.0
19.314	13.0
19.329	19.0
19.343	19.0
19.358	16.0
19.373	16.0
19.388	14.0
19.403	18.0
19.417	11.0
19.432	17.0
19.447	22.0
19.462	25.0
19.477	24.0
19.492	34.0
19.506	29.0
19.521	31.0
19.536	33.0
19.551	27.0
19.566	39.0
19.58	35.0
19.595	36.0
19.61	34.0
19.625	41.0
19.64	46.0
19.655	42.0
19.669	32.0
19.684	36.0
19.699	28.0
19.714	26.0
19.729	28.0
19.743	20.0
19.758	18.0
19.773	24.0
19.788	17.0
19.803	15.0
19.817	17.0
19.832	14.0
19.847	20.0
19.862	8.0
19.877	9.0
19.891	7.0
19.906	12.0
19.921	16.0
19.936	7.0
19.951	10.0
19.965	21.0
19.98	8.0
19.995	9.0
20.01	17.0
20.025	15.0
20.039	7.0
20.054	15.0
20.069	9.0
20.084	13.0
20.099	10.0
20.113	4.0
20.128	8.0
20.143	15.0
20.158	15.0
20.173	9.0
20.187	10.0
20.202	14.0
20.217	4.0
20.232	12.0
20.246	9.0
20.261	18.0
20.276	10.0
20.291	11.0
20.306	11.0
20.32	8.0
20.335	14.0
20.35	8.0
20.365	17.0
20.38	13.0
20.394	17.0
20.409	15.0
20.424	13.0
20.439	12.0
20.453	13.0
20.468	13.0
20.483	11.0
20.498	18.0
20.513	9.0
20.527	6.0
20.542	15.0
20.557	12.0
20.572	9.0
20.586	9.0
20.601	5.0
20.616	11.0
20.631	6.0
20.646	7.0
20.66	9.0
20.675	12.0
20.69	14.0
20.705	13.0
20.719	10.0
20.734	6.0
20.749	8.0
20.764	11.0
20.779	11.0
20.793	9.0
20.808	19.0
20.823	11.0
20.838	13.0
20.853	12.0
20.867	13.0
20.882	10.0
20.897	12.0
20.912	8.0
20.926	11.0
20.941	4.0
20.956	11.0
20.971	9.0
20.986	10.0
21.0	13.0
21.015	16.0
21.03	15.0
21.045	13.0
21.06	7.0
21.074	13.0
21.089	11.0
21.104	12.0
21.119	12.0
21.134	12.0
21.148	14.0
21.163	10.0
21.178	11.0
21.193	8.0
21.208	13.0
21.222	17.0
21.237	13.0
21.252	11.0
21.267	9.0
21.282	11.0
21.296	10.0
21.311	11.0
21.326	11.0
21.341	7.0
21.356	9.0
21.37	14.0
21.385	17.0
21.4	14.0
21.415	14.0
21.43	13.0
21.444	10.0
21.459	13.0
21.474	9.0
21.489	21.0
21.504	18.0
21.519	12.0
21.533	5.0
21.548	13.0
21.563	13.0
21.578	10.0
21.593	16.0
21.608	12.0
21.622	20.0
21.637	18.0
21.652	15.0
21.667	23.0
21.682	18.0
21.697	20.0
21.712	22.0
21.726	17.0
21.741	23.0
21.756	23.0
21.771	25.0
21.786	26.0
21.801	34.0
21.816	42.0
21.83	55.0
21.845	42.0
21.86	40.0
21.875	64.0
21.89	59.0
21.905	61.0
21.92	71.0
21.935	74.0
21.949	78.0
21.964	84.0
21.979	69.0
21.994	87.0
22.009	88.0
22.024	55.0
22.039	55.0
22.054	48.0
22.069	55.0
22.083	42.0
22.098	41.0
22.113	34.0
22.128	51.0
22.143	36.0
22.158	31.0
22.173	25.0
22.188	20.0
22.203	10.0
22.218	9.0
22.233	16.0
22.248	8.0
22.262	16.0
22.277	13.0
22.292	13.0
22.307	11.0
22.322	9.0
22.337	14.0
22.352	8.0
22.367	19.0
22.382	10.0
22.397	10.0
22.412	11.0
22.427	14.0
22.442	11.0
22.457	8.0
22.472	11.0
22.487	15.0
22.502	20.0
22.516	15.0
22.531	7.0
22.546	9.0
22.561	10.0
22.576	15.0
22.591	14.0
22.606	18.0
22.621	15.0
22.636	15.0
22.651	8.0
22.666	10.0
22.681	9.0
22.696	13.0
22.711	13.0
22.726	9.0
22.741	17.0
22.756	10.0
22.771	10.0
22.786	9.0
22.801	10.0
22.816	13.0
22.831	14.0
22.846	17.0
22.861	7.0
22.876	13.0
22.891	8.0
22.906	9.0
22.92	5.0
22.935	14.0
22.95	16.0
22.965	7.0
22.98	8.0
22.995	15.0
23.01	13.0
23.025	10.0
23.04	13.0
23.055	7.0
23.07	9.0
23.085	9.0
23.1	10.0
23.115	12.0
23.13	6.0
23.145	8.0
23.16	2.0
23.175	11.0
23.19	12.0
23.205	12.0
23.22	11.0
23.235	8.0
23.25	12.0
23.265	17.0
23.28	12.0
23.295	11.0
23.31	2.0
23.325	10.0
23.34	9.0
23.355	12.0
23.37	11.0
23.384	6.0
23.399	8.0
23.414	11.0
23.429	17.0
23.444	12.0
23.459	12.0
23.474	15.0
23.489	4.0
23.504	16.0
23.519	11.0
23.534	8.0
23.549	8.0
23.564	15.0
23.579	9.0
23.594	16.0
23.609	9.0
23.624	13.0
23.639	11.0
23.654	6.0
23.668	16.0
23.683	6.0
23.698	9.0
23.713	14.0
23.728	13.0
23.743	11.0
23.758	14.0
23.773	9.0
23.788	12.0
23.803	13.0
23.818	16.0
23.833	9.0
23.848	11.0
23.862	17.0
23.877	16.0
23.892	23.0
23.907	23.0
23.922	26.0
23.937	32.0
23.952	28.0
23.967	25.0
23.982	29.0
23.997	36.0
24.011	39.0
24.026	47.0
24.041	38.0
24.056	65.0
24.071	44.0
24.086	55.0
24.101	43.0
24.116	56.0
24.131	44.0
24.145	46.0
24.16	45.0
24.175	42.0
24.19	37.0
24.205	40.0
24.22	34.0
24.235	40.0
24.249	23.0
24.264	35.0
24.279	21.0
24.294	16.0
24.309	18.0
24.324	19.0
24.338	11.0
24.353	15.0
24.368	8.0
24.383	20.0
24.398	13.0
24.413	15.0
24.428	13.0
24.442	13.0
24.457	7.0
24.472	10.0
24.487	10.0
24.502	11.0
24.516	12.0
24.531	17.0
24.546	12.0
24.561	13.0
24.576	7.0
24.591	14.0
24.605	5.0
24.62	8.0
24.635	16.0
24.65	8.0
24.665	8.0
24.679	14.0
24.694	10.0
24.709	18.0
24.724	13.0
24.739	11.0
24.753	13.0
24.768	13.0
24.783	10.0
24.798	10.0
24.813	19.0
24.827	6.0
24.842	7.0
24.857	9.0
24.872	12.0
24.886	9.0
24.901	15.0
24.916	8.0
24.931	12.0
24.946	11.0
24.96	7.0
24.975	8.0
24.99	8.0
25.005	8.0
25.019	8.0
25.034	7.0
25.049	7.0
25.064	10.0
25.078	6.0
25.093	11.0
25.108	13.0
25.123	15.0
25.138	10.0
25.152	7.0
25.167	11.0
25.182	7.0
25.197	8.0
25.211	13.0
25.226	14.0
25.241	9.0
25.256	11.0
25.27	6.0
25.285	12.0
25.3	9.0
25.315	8.0
25.329	12.0
25.344	9.0
25.359	11.0
25.374	12.0
25.388	18.0
25.403	13.0
25.418	7.0
25.433	9.0
25.447	13.0
25.462	11.0
25.477	8.0
25.492	8.0
25.506	11.0
25.521	15.0
25.536	10.0
25.55	12.0
25.565	11.0
25.58	15.0
25.595	11.0
25.609	6.0
25.624	16.0
25.639	12.0
25.654	15.0
25.668	8.0
25.683	8.0
25.698	14.0
25.713	8.0
25.727	13.0
25.742	12.0
25.757	10.0
25.772	11.0
25.786	10.0
25.801	9.0
25.816	7.0
25.83	12.0
25.845	9.0
25.86	5.0
25.875	13.0
25.889	6.0
25.904	9.0
25.919	5.0
25.934	10.0
25.948	9.0
25.963	7.0
25.978	7.0
25.992	6.0
26.007	6.0
26.022	9.0
26.037	9.0
26.051	11.0
26.066	15.0
26.081	18.0
26.096	6.0
26.11	6.0
26.125	9.0
26.14	5.0
26.155	17.0
26.169	12.0
26.184	6.0
26.199	10.0
26.213	11.0
26.228	7.0
26.243	8.0
26.258	11.0
26.272	8.0
26.287	8.0
26.302	8.0
26.317	5.0
26.331	9.0
26.346	8.0
26.361	6.0
26.376	9.0
26.39	5.0
26.405	10.0
26.42	12.0
26.434	12.0
26.449	9.0
26.464	10.0
26.479	8.0
26.493	6.0
26.508	6.0
26.523	17.0
26.538	10.0
26.552	10.0
26.567	10.0
26.582	10.0
26.597	6.0
26.611	7.0
26.626	6.0
26.641	12.0
26.656	6.0
26.67	13.0
26.685	12.0
26.7	12.0
26.715	9.0
26.729	9.0
26.744	7.0
26.759	7.0
26.773	14.0
26.788	4.0
26.803	9.0
26.818	9.0
26.832	7.0
26.847	12.0
26.862	10.0
26.877	9.0
26.891	7.0
26.906	11.0
26.921	14.0
26.936	6.0
26.95	9.0
26.965	16.0
26.98	9.0
26.995	11.0
27.01	9.0
27.024	21.0
27.039	9.0
27.054	9.0
27.069	8.0
27.083	14.0
27.098	20.0
27.113	8.0
27.128	4.0
27.142	10.0
27.157	5.0
27.172	9.0
27.187	7.0
27.201	14.0
27.216	10.0
27.231	15.0
27.246	13.0
27.261	16.0
27.275	12.0
27.29	10.0
27.305	11.0
27.32	9.0
27.334	7.0
27.349	10.0
27.364	11.0
27.379	7.0
27.394	13.0
27.408	9.0
27.423	9.0
27.438	9.0
27.453	9.0
27.467	15.0
27.482	13.0
27.497	6.0
27.512	10.0
27.527	18.0
27.541	10.0
27.556	8.0
27.571	7.0
27.586	8.0
27.601	10.0
27.615	12.0
27.63	11.0
27.645	9.0
27.66	7.0
27.675	15.0
27.689	7.0
27.704	17.0
27.719	14.0
27.734	9.0
27.749	18.0
27.763	13.0
27.778	16.0
27.793	19.0
27.808	16.0
27.823	25.0
27.838	24.0
27.852	28.0
27.867	27.0
27.882	23.0
27.897	22.0
27.912	25.0
27.926	21.0
27.941	25.0
27.956	24.0
27.971	21.0
27.986	20.0
28.001	13.0
28.015	16.0
28.03	19.0
28.045	13.0
28.06	11.0
28.075	24.0
28.09	17.0
28.105	10.0
28.119	10.0
28.134	13.0
28.149	9.0
28.164	7.0
28.179	15.0
28.194	13.0
28.208	6.0
28.223	14.0
28.238	10.0
28.253	7.0
28.268	12.0
28.283	13.0
28.298	7.0
28.312	8.0
28.327	7.0
28.342	13.0
28.357	15.0
28.372	10.0
28.387	13.0
28.402	12.0
28.417	9.0
28.431	10.0
28.446	4.0
28.461	11.0
28.476	9.0
28.491	3.0
28.506	8.0
28.521	13.0
28.536	16.0
28.55	5.0
28.565	11.0
28.58	11.0
28.595	8.0
28.61	10.0
28.625	13.0
28.64	5.0
28.655	12.0
28.669	15.0
28.684	15.0
28.699	10.0
28.714	8.0
28.729	10.0
28.744	13.0
28.759	14.0
28.774	9.0
28.788	12.0
28.803	6.0
28.818	6.0
28.833	13.0
28.848	11.0
28.863	17.0
28.878	8.0
28.893	13.0
28.908	14.0
28.922	8.0
28.937	18.0
28.952	13.0
28.967	16.0
28.982	10.0
28.997	9.0
29.012	13.0
29.027	11.0
29.041	12.0
29.056	11.0
29.071	10.0
29.086	10.0
29.101	14.0
29.116	11.0
29.131	11.0
29.146	12.0
29.16	7.0
29.175	9.0
29.19	10.0
29.205	11.0
29.22	8.0
29.235	6.0
29.25	18.0
29.265	16.0
29.279	11.0
29.294	16.0
29.309	12.0
29.324	9.0
29.339	10.0
29.354	11.0
29.369	15.0
29.384	11.0
29.398	22.0
29.413	13.0
29.428	17.0
29.443	26.0
29.458	17.0
29.473	19.0
29.488	23.0
29.502	28.0
29.517	40.0
29.532	32.0
29.547	37.0
29.562	39.0
29.577	46.0
29.592	55.0
29.606	56.0
29.621	52.0
29.636	47.0
29.651	52.0
29.666	41.0
29.681	38.0
29.695	33.0
29.71	37.0
29.725	36.0
29.74	38.0
29.755	28.0
29.77	36.0
29.784	22.0
29.799	35.0
29.814	21.0
29.829	30.0
29.844	29.0
29.859	24.0
29.873	15.0
29.888	27.0
29.903	15.0
29.918	14.0
29.933	11.0
29.947	15.0
29.962	14.0
29.977	10.0
29.992	20.0
30.007	12.0
30.021	9.0
30.036	10.0
30.051	11.0
30.066	15.0
30.081	14.0
30.095	4.0
30.11	13.0
30.125	14.0
30.14	12.0
30.155	15.0
30.169	11.0
30.184	13.0
30.199	8.0
30.214	10.0
30.228	5.0
30.243	10.0
30.258	11.0
30.273	13.0
30.288	10.0
30.302	5.0
30.317	5.0
30.332	15.0
30.347	15.0
30.361	5.0
30.376	11.0
30.391	8.0
30.406	10.0
30.42	14.0
30.435	6.0
30.45	13.0
30.465	9.0
30.479	8.0
30.494	9.0
30.509	8.0
30.524	13.0
30.538	15.0
30.553	6.0
30.568	12.0
30.583	9.0
30.597	11.0
30.612	9.0
30.627	11.0
30.641	12.0
30.656	22.0
30.671	15.0
30.686	15.0
30.7	14.0
30.715	10.0
30.73	6.0
30.745	10.0
30.759	11.0
30.774	13.0
30.789	10.0
30.803	12.0
30.818	10.0
30.833	4.0
30.848	7.0
30.862	13.0
30.877	11.0
30.892	10.0
30.906	13.0
30.921	11.0
30.936	13.0
30.951	12.0
30.965	10.0
30.98	12.0
30.995	10.0
31.009	9.0
31.024	6.0
31.039	18.0
31.053	14.0
31.068	10.0
31.083	20.0
31.098	16.0
31.112	17.0
31.127	19.0
31.142	22.0
31.156	26.0
31.171	24.0
31.186	28.0
31.2	31.0
31.215	25.0
31.23	40.0
31.245	27.0
31.259	41.0
31.274	40.0
31.289	47.0
31.303	33.0
31.318	45.0
31.333	33.0
31.347	40.0
31.362	33.0
31.377	36.0
31.392	25.0
31.406	31.0
31.421	15.0
31.436	28.0
31.45	32.0
31.465	23.0
31.48	22.0
31.494	17.0
31.509	20.0
31.524	11.0
31.538	19.0
31.553	10.0
31.568	7.0
31.583	18.0
31.597	16.0
31.612	7.0
31.627	13.0
31.641	16.0
31.656	11.0
31.671	4.0
31.685	13.0
31.7	12.0
31.715	11.0
31.729	12.0
31.744	13.0
31.759	8.0
31.774	10.0
31.788	12.0
31.803	5.0
31.818	12.0
31.832	11.0
31.847	5.0
31.862	8.0
31.876	9.0
31.891	14.0
31.906	12.0
31.92	9.0
31.935	9.0
31.95	16.0
31.965	8.0
31.979	9.0
31.994	9.0
32.009	8.0
32.023	17.0
32.038	18.0
32.053	9.0
32.067	5.0
32.082	13.0
32.097	13.0
32.112	10.0
32.126	12.0
32.141	14.0
32.156	9.0
32.17	8.0
32.185	7.0
32.2	6.0
32.214	8.0
32.229	12.0
32.244	13.0
32.259	9.0
32.273	16.0
32.288	7.0
32.303	8.0
32.317	6.0
32.332	9.0
32.347	12.0
32.362	12.0
32.376	10.0
32.391	8.0
32.406	15.0
32.42	11.0
32.435	9.0
32.45	19.0
32.465	11.0
32.479	7.0
32.494	9.0
32.509	5.0
32.523	9.0
32.538	16.0
32.553	13.0
32.568	10.0
32.582	8.0
32.597	17.0
32.612	6.0
32.627	12.0
32.641	11.0
32.656	18.0
32.671	12.0
32.685	15.0
32.7	8.0
32.715	17.0
32.73	13.0
32.744	18.0
32.759	20.0
32.774	20.0
32.788	21.0
32.803	20.0
32.818	28.0
32.833	27.0
32.847	32.0
32.862	27.0
32.877	21.0
32.892	31.0
32.906	20.0
32.921	16.0
32.936	15.0
32.951	15.0
32.965	25.0
32.98	17.0
32.995	13.0
33.009	23.0
33.024	22.0
33.039	14.0
33.054	18.0
33.068	14.0
33.083	12.0
33.098	19.0
33.113	13.0
33.127	8.0
33.142	9.0
33.157	6.0
33.172	9.0
33.186	12.0
33.201	11.0
33.216	13.0
33.231	5.0
33.245	15.0
33.26	4.0
33.275	11.0
33.29	7.0
33.304	6.0
33.319	6.0
33.334	7.0
33.349	7.0
33.363	5.0
33.378	11.0
33.393	12.0
33.408	10.0
33.422	12.0
33.437	11.0
33.452	9.0
33.467	15.0
33.481	8.0
33.496	10.0
33.511	7.0
33.526	7.0
33.54	8.0
33.555	9.0
33.57	4.0
33.585	8.0
33.599	7.0
33.614	12.0
33.629	6.0
33.644	8.0
33.658	8.0
33.673	10.0
33.688	6.0
33.703	5.0
33.718	7.0
33.732	8.0
33.747	5.0
33.762	6.0
33.777	14.0
33.791	13.0
33.806	14.0
33.821	15.0
33.836	6.0
33.85	11.0
33.865	7.0
33.88	9.0
33.895	7.0
33.91	7.0
33.924	8.0
33.939	8.0
33.954	8.0
33.969	10.0
33.983	13.0
33.998	10.0
34.013	11.0
34.028	11.0
34.042	13.0
34.057	6.0
34.072	12.0
34.087	9.0
34.102	17.0
34.116	6.0
34.131	13.0
34.146	7.0
34.161	9.0
34.175	9.0
34.19	6.0
34.205	14.0
34.22	19.0
34.235	12.0
34.249	19.0
34.264	17.0
34.279	18.0
34.294	15.0
34.309	10.0
34.323	13.0
34.338	13.0
34.353	17.0
34.368	12.0
34.382	9.0
34.397	16.0
34.412	6.0
34.427	13.0
34.442	7.0
34.456	11.0
34.471	15.0
34.486	15.0
34.501	9.0
34.516	10.0
34.53	9.0
34.545	14.0
34.56	12.0
34.575	6.0
34.59	8.0
34.604	9.0
34.619	8.0
34.634	12.0
34.649	8.0
34.664	9.0
34.678	7.0
34.693	4.0
34.708	9.0
34.723	5.0
34.738	10.0
34.752	7.0
34.767	13.0
34.782	3.0
34.797	6.0
34.812	5.0
34.826	4.0
34.841	10.0
34.856	6.0
34.871	12.0
34.886	8.0
34.9	9.0
34.915	11.0
34.93	10.0
34.945	8.0
34.96	9.0
34.974	7.0
34.989	9.0
35.004	7.0
35.019	9.0
35.034	10.0
35.048	4.0
35.063	9.0
35.078	5.0
35.093	10.0
35.108	11.0
35.122	13.0
35.137	6.0
35.152	3.0
35.167	7.0
35.182	10.0
35.196	8.0
35.211	5.0
35.226	9.0
35.241	6.0
35.256	9.0
35.27	9.0
35.285	9.0
35.3	5.0
35.315	6.0
35.33	4.0
35.344	9.0
35.359	10.0
35.374	9.0
35.389	5.0
35.404	10.0
35.418	11.0
35.433	16.0
35.448	5.0
35.463	10.0
35.478	11.0
35.493	13.0
35.507	8.0
35.522	12.0
35.537	9.0
35.552	12.0
35.567	9.0
35.581	6.0
35.596	10.0
35.611	10.0
35.626	12.0
35.641	13.0
35.655	8.0
35.67	13.0
35.685	15.0
35.7	17.0
35.715	16.0
35.729	23.0
35.744	25.0
35.759	17.0
35.774	16.0
35.789	18.0
35.804	24.0
35.818	20.0
35.833	14.0
35.848	20.0
35.863	13.0
35.878	14.0
35.892	10.0
35.907	24.0
35.922	12.0
35.937	16.0
35.952	15.0
35.966	12.0
35.981	13.0
35.996	14.0
36.011	19.0
36.026	9.0
36.04	16.0
36.055	12.0
36.07	8.0
36.085	11.0
36.1	15.0
36.114	14.0
36.129	11.0
36.144	7.0
36.159	13.0
36.174	12.0
36.189	11.0
36.203	6.0
36.218	10.0
36.233	9.0
36.248	6.0
36.263	13.0
36.277	6.0
36.292	8.0
36.307	7.0
36.322	13.0
36.337	9.0
36.351	5.0
36.366	9.0
36.381	3.0
36.396	9.0
36.411	10.0
36.426	6.0
36.44	8.0
36.455	8.0
36.47	8.0
36.485	5.0
36.5	9.0
36.514	11.0
36.529	7.0
36.544	7.0
36.559	7.0
36.574	7.0
36.589	4.0
36.603	5.0
36.618	8.0
36.633	6.0
36.648	6.0
36.663	9.0
36.677	5.0
36.692	11.0
36.707	10.0
36.722	11.0
36.737	7.0
36.752	8.0
36.766	2.0
36.781	8.0
36.796	12.0
36.811	6.0
36.826	6.0
36.841	14.0
36.855	4.0
36.87	7.0
36.885	11.0
36.9	5.0
36.915	7.0
36.93	9.0
36.944	7.0
36.959	15.0
36.974	6.0
36.989	3.0
37.004	13.0
37.019	9.0
37.033	12.0
37.048	15.0
37.063	19.0
37.078	18.0
37.093	18.0
37.108	28.0
37.123	27.0
37.137	26.0
37.152	20.0
37.167	27.0
37.182	25.0
37.197	22.0
37.212	30.0
37.226	34.0
37.241	17.0
37.256	14.0
37.271	20.0
37.286	10.0
37.301	16.0
37.316	18.0
37.331	19.0
37.345	18.0
37.36	16.0
37.375	15.0
37.39	21.0
37.405	13.0
37.42	12.0
37.435	15.0
37.45	14.0
37.464	16.0
37.479	10.0
37.494	14.0
37.509	14.0
37.524	13.0
37.539	12.0
37.554	13.0
37.569	7.0
37.583	7.0
37.598	6.0
37.613	9.0
37.628	10.0
37.643	11.0
37.658	11.0
37.673	5.0
37.688	6.0
37.703	7.0
37.718	9.0
37.733	5.0
37.747	6.0
37.762	4.0
37.777	7.0
37.792	8.0
37.807	9.0
37.822	7.0
37.837	6.0
37.852	9.0
37.867	6.0
37.882	7.0
37.897	7.0
37.912	7.0
37.927	5.0
37.941	5.0
37.956	5.0
37.971	7.0
37.986	9.0
38.001	2.0
38.016	4.0
38.031	9.0
38.046	7.0
38.061	8.0
38.076	4.0
38.091	10.0
38.106	5.0
38.121	8.0
38.136	11.0
38.151	9.0
38.166	5.0
38.181	11.0
38.196	3.0
38.211	8.0
38.226	5.0
38.241	8.0
38.256	4.0
38.271	11.0
38.285	8.0
38.3	8.0
38.315	8.0
38.33	7.0
38.345	10.0
38.36	10.0
38.375	9.0
38.39	7.0
38.405	6.0
38.42	4.0
38.435	9.0
38.45	5.0
38.465	6.0
38.48	5.0
38.495	7.0
38.51	5.0
38.525	2.0
38.54	4.0
38.555	3.0
38.57	6.0
38.585	6.0
38.6	8.0
38.615	9.0
38.63	6.0
38.645	6.0
38.66	5.0
38.675	5.0
38.69	5.0
38.705	5.0
38.72	5.0
38.735	7.0
38.75	6.0
38.765	7.0
38.78	5.0
38.795	3.0
38.81	2.0
38.825	10.0
38.84	8.0
38.855	6.0
38.87	7.0
38.885	7.0
38.9	4.0
38.915	4.0
38.93	8.0
38.945	2.0
38.96	7.0
38.975	4.0
38.99	5.0
39.005	5.0
39.02	7.0
39.035	6.0
39.05	8.0
39.065	4.0
39.08	1.0
39.095	2.0
39.11	13.0
39.125	8.0
39.14	5.0
39.155	6.0
39.17	4.0
39.185	4.0
39.2	7.0
39.215	8.0
39.23	6.0
39.245	4.0
39.26	4.0
39.275	9.0
39.29	6.0
39.305	4.0
39.32	7.0
39.335	11.0
39.35	4.0
39.365	4.0
39.38	7.0
39.395	3.0
39.409	6.0
39.424	5.0
39.439	3.0
39.454	12.0
39.469	8.0
39.484	3.0
39.499	5.0
39.514	9.0
39.529	4.0
39.544	2.0
39.559	4.0
39.574	9.0
39.589	8.0
39.604	7.0
39.619	6.0
39.634	8.0
39.649	7.0
39.664	6.0
39.678	8.0
39.693	4.0
39.708	13.0
39.723	6.0
39.738	5.0
39.753	9.0
39.768	7.0
39.783	15.0
39.798	8.0
39.813	5.0
39.827	12.0
39.842	13.0
39.857	9.0
39.872	9.0
39.887	6.0
39.902	8.0
39.917	9.0
39.932	7.0
39.947	4.0
39.961	4.0
39.976	5.0
39.991	3.0
40.006	8.0
40.021	10.0
40.036	5.0
40.051	4.0
40.065	8.0
40.08	7.0
40.095	5.0
40.11	8.0
40.125	3.0
40.14	12.0
40.154	8.0
40.169	9.0
40.184	8.0
40.199	12.0
40.214	9.0
40.228	6.0
40.243	11.0
40.258	5.0
40.273	5.0
40.288	3.0
40.302	7.0
40.317	5.0
40.332	4.0
40.347	6.0
40.362	4.0
40.376	8.0
40.391	7.0
40.406	1.0
40.421	8.0
40.436	5.0
40.45	3.0
40.465	6.0
40.48	7.0
40.495	9.0
40.509	8.0
40.524	7.0
40.539	6.0
40.554	4.0
40.568	11.0
40.583	7.0
40.598	7.0
40.613	7.0
40.627	7.0
40.642	5.0
40.657	3.0
40.672	5.0
40.686	4.0
40.701	5.0
40.716	8.0
40.731	6.0
40.745	4.0
40.76	7.0
40.775	6.0
40.79	5.0
40.804	8.0
40.819	6.0
40.834	4.0
40.849	2.0
40.863	9.0
40.878	7.0
40.893	4.0
40.907	7.0
40.922	7.0
40.937	11.0
40.952	5.0
40.966	9.0
40.981	12.0
40.996	11.0
41.011	6.0
41.025	8.0
41.04	12.0
41.055	14.0
41.069	17.0
41.084	15.0
41.099	19.0
41.114	15.0
41.128	22.0
41.143	19.0
41.158	22.0
41.173	21.0
41.187	17.0
41.202	20.0
41.217	18.0
41.231	17.0
41.246	13.0
41.261	14.0
41.276	13.0
41.29	9.0
41.305	12.0
41.32	9.0
41.335	9.0
41.349	8.0
41.364	16.0
41.379	10.0
41.393	18.0
41.408	8.0
41.423	15.0
41.438	13.0
41.452	3.0
41.467	9.0
41.482	9.0
41.497	8.0
41.511	11.0
41.526	6.0
41.541	4.0
41.556	6.0
41.57	9.0
41.585	9.0
41.6	6.0
41.615	4.0
41.629	11.0
41.644	2.0
41.659	13.0
41.674	8.0
41.688	5.0
41.703	8.0
41.718	4.0
41.733	9.0
41.747	3.0
41.762	4.0
41.777	6.0
41.792	5.0
41.806	7.0
41.821	7.0
41.836	5.0
41.851	9.0
41.866	7.0
41.88	6.0
41.895	3.0
41.91	6.0
41.925	5.0
41.939	8.0
41.954	7.0
41.969	4.0
41.984	9.0
41.999	6.0
42.013	7.0
42.028	5.0
42.043	5.0
42.058	7.0
42.073	9.0
42.088	2.0
42.102	5.0
42.117	10.0
42.132	1.0
42.147	6.0
42.162	2.0
42.176	6.0
42.191	6.0
42.206	3.0
42.221	8.0
42.236	8.0
42.251	9.0
42.266	5.0
42.28	6.0
42.295	8.0
42.31	11.0
42.325	8.0
42.34	9.0
42.355	14.0
42.369	13.0
42.384	23.0
42.399	19.0
42.414	20.0
42.429	14.0
42.444	17.0
42.459	15.0
42.474	10.0
42.488	8.0
42.503	5.0
42.518	4.0
42.533	5.0
42.548	8.0
42.563	11.0
42.578	8.0
42.593	11.0
42.608	9.0
42.622	13.0
42.637	16.0
42.652	14.0
42.667	11.0
42.682	11.0
42.697	12.0
42.712	16.0
42.727	6.0
42.742	9.0
42.757	6.0
42.772	11.0
42.786	5.0
42.801	10.0
42.816	4.0
42.831	8.0
42.846	6.0
42.861	7.0
42.876	5.0
42.891	8.0
42.906	5.0
42.921	5.0
42.936	1.0
42.951	4.0
42.966	7.0
42.981	9.0
42.996	3.0
43.011	11.0
43.025	8.0
43.04	3.0
43.055	5.0
43.07	9.0
43.085	7.0
43.1	9.0
43.115	7.0
43.13	2.0
43.145	6.0
43.16	3.0
43.175	5.0
43.19	2.0
43.205	8.0
43.22	5.0
43.235	4.0
43.25	7.0
43.265	2.0
43.28	2.0
43.295	3.0
43.31	7.0
43.325	3.0
43.34	7.0
43.355	7.0
43.37	5.0
43.385	3.0
43.4	4.0
43.415	3.0
43.43	4.0
43.445	5.0
43.46	5.0
43.475	7.0
43.49	7.0
43.505	8.0
43.52	13.0
43.535	9.0
43.55	9.0
43.565	7.0
43.58	12.0
43.595	4.0
43.61	6.0
43.625	9.0
43.64	11.0
43.655	9.0
43.67	5.0
43.685	8.0
43.7	6.0
43.715	7.0
43.73	9.0
43.745	4.0
43.76	9.0
43.775	11.0
43.79	8.0
43.805	7.0
43.82	8.0
43.835	11.0
43.85	10.0
43.865	6.0
43.88	10.0
43.895	6.0
43.91	6.0
43.925	11.0
43.94	9.0
43.955	5.0
43.97	10.0
43.985	3.0
44.0	5.0
44.015	1.0
44.03	7.0
44.045	4.0
44.061	7.0
44.076	2.0
44.091	8.0
44.106	7.0
44.121	4.0
44.136	4.0
44.151	4.0
44.166	5.0
44.181	7.0
44.196	6.0
44.211	6.0
44.226	5.0
44.241	8.0
44.256	7.0
44.271	4.0
44.286	4.0
44.301	6.0
44.316	3.0
44.331	6.0
44.346	3.0
44.361	5.0
44.377	3.0
44.392	11.0
44.407	8.0
44.422	6.0
44.437	2.0
44.452	3.0
44.467	5.0
44.482	5.0
44.497	5.0
44.512	7.0
44.527	9.0
44.542	5.0
44.557	9.0
44.572	5.0
44.587	2.0
44.602	8.0
44.617	5.0
44.632	5.0
44.647	7.0
44.663	7.0
44.678	7.0
44.693	6.0
44.708	8.0
44.723	4.0
44.738	7.0
44.753	5.0
44.768	6.0
44.783	9.0
44.798	12.0
44.813	11.0
44.828	7.0
44.843	15.0
44.858	13.0
44.873	8.0
44.888	8.0
44.903	8.0
44.918	8.0
44.933	6.0
44.948	4.0
44.964	6.0
44.979	7.0
44.994	3.0
45.009	7.0
45.024	3.0
45.039	6.0
45.054	9.0
45.069	7.0
45.084	9.0
45.099	11.0
45.114	4.0
45.129	8.0
45.144	11.0
45.159	7.0
45.174	7.0
45.189	6.0
45.204	11.0
45.219	7.0
45.234	4.0
45.249	6.0
45.264	5.0
45.279	5.0
45.294	4.0
45.309	3.0
45.324	4.0
45.339	5.0
45.354	3.0
45.369	5.0
45.384	7.0
45.399	2.0
45.414	3.0
45.429	2.0
45.444	5.0
45.459	3.0
45.474	2.0
45.489	2.0
45.504	4.0
45.519	8.0
45.534	7.0
45.549	1.0
45.564	7.0
45.579	6.0
45.594	3.0
45.609	4.0
45.624	1.0
45.639	7.0
45.654	7.0
45.669	4.0
45.684	9.0
45.699	3.0
45.714	6.0
45.729	3.0
45.744	9.0
45.759	4.0
45.774	7.0
45.789	8.0
45.804	6.0
45.819	5.0
45.834	7.0
45.849	6.0
45.864	9.0
45.879	11.0
45.894	15.0
45.909	11.0
45.924	17.0
45.939	8.0
45.954	17.0
45.969	11.0
45.984	14.0
45.998	24.0
46.013	15.0
46.028	12.0
46.043	15.0
46.058	12.0
46.073	9.0
46.088	12.0
46.103	9.0
46.118	12.0
46.133	4.0
46.148	4.0
46.163	5.0
46.178	7.0
46.192	11.0
46.207	17.0
46.222	13.0
46.237	7.0
46.252	10.0
46.267	9.0
46.282	12.0
46.297	15.0
46.312	10.0
46.327	8.0
46.341	13.0
46.356	9.0
46.371	6.0
46.386	7.0
46.401	4.0
46.416	11.0
46.431	7.0
46.446	3.0
46.46	10.0
46.475	4.0
46.49	6.0
46.505	4.0
46.52	5.0
46.535	6.0
46.55	4.0
46.564	4.0
46.579	6.0
46.594	2.0
46.609	4.0
46.624	7.0
46.639	7.0
46.654	3.0
46.668	3.0
46.683	5.0
46.698	7.0
46.713	2.0
46.728	6.0
46.743	6.0
46.758	12.0
46.772	3.0
46.787	8.0
46.802	5.0
46.817	4.0
46.832	3.0
46.847	3.0
46.861	7.0
46.876	3.0
46.891	4.0
46.906	4.0
46.921	4.0
46.936	7.0
46.95	2.0
46.965	9.0
46.98	2.0
46.995	3.0
47.01	4.0
47.025	5.0
47.039	4.0
47.054	6.0
47.069	9.0
47.084	6.0
47.099	10.0
47.113	12.0
47.128	12.0
47.143	7.0
47.158	4.0
47.173	10.0
47.188	5.0
47.202	8.0
47.217	3.0
47.232	7.0
47.247	3.0
47.262	3.0
47.277	11.0
47.291	7.0
47.306	7.0
47.321	6.0
47.336	7.0
47.351	8.0
47.365	6.0
47.38	7.0
47.395	8.0
47.41	3.0
47.425	7.0
47.44	9.0
47.454	5.0
47.469	6.0
47.484	9.0
47.499	7.0
47.514	4.0
47.528	5.0
47.543	5.0
47.558	4.0
47.573	6.0
47.588	5.0
47.603	4.0
47.617	4.0
47.632	4.0
47.647	4.0
47.662	6.0
47.677	7.0
47.691	5.0
47.706	5.0
47.721	6.0
47.736	4.0
47.751	4.0
47.766	8.0
47.78	8.0
47.795	1.0
47.81	4.0
47.825	2.0
47.84	9.0
47.855	7.0
47.869	2.0
47.884	7.0
47.899	4.0
47.914	4.0
47.929	3.0
47.944	7.0
47.958	4.0
47.973	2.0
47.988	3.0
48.003	4.0
48.018	6.0
48.033	5.0
48.047	7.0
48.062	7.0
48.077	4.0
48.092	6.0
48.107	2.0
48.122	4.0
48.137	6.0
48.151	1.0
48.166	3.0
48.181	3.0
48.196	1.0
48.211	4.0
48.226	3.0
48.241	5.0
48.255	8.0
48.27	3.0
48.285	2.0
48.3	6.0
48.315	4.0
48.33	4.0
48.345	4.0
48.359	7.0
48.374	6.0
48.389	4.0
48.404	7.0
48.419	4.0
48.434	3.0
48.449	2.0
48.464	3.0
48.478	3.0
48.493	2.0
48.508	6.0
48.523	4.0
48.538	6.0
48.553	7.0
48.568	1.0
48.583	8.0
48.597	7.0
48.612	5.0
48.627	3.0
48.642	8.0
48.657	2.0
48.672	5.0
48.687	8.0
48.702	9.0
48.717	5.0
48.731	4.0
48.746	4.0
48.761	3.0
48.776	1.0
48.791	5.0
48.806	1.0
48.821	6.0
48.836	7.0
48.851	6.0
48.866	6.0
48.88	4.0
48.895	5.0
48.91	2.0
48.925	2.0
48.94	4.0
48.955	6.0
48.97	5.0
48.985	2.0
49.0	2.0
49.015	4.0
49.03	6.0
49.044	7.0
49.059	4.0
49.074	4.0
49.089	6.0
49.104	3.0
49.119	6.0
49.134	6.0
49.149	2.0
49.164	1.0
49.179	0.0
49.194	5.0
49.209	3.0
49.224	4.0
49.238	3.0
49.253	7.0
49.268	2.0
49.283	3.0
49.298	7.0
49.313	4.0
49.328	4.0
49.343	8.0
49.358	8.0
49.373	6.0
49.388	3.0
49.403	7.0
49.418	6.0
49.433	11.0
49.448	10.0
49.463	5.0
49.478	11.0
49.492	2.0
49.507	5.0
49.522	8.0
49.537	2.0
49.552	4.0
49.567	7.0
49.582	8.0
49.597	2.0
49.612	5.0
49.627	6.0
49.642	10.0
49.657	6.0
49.672	6.0
49.687	9.0
49.702	7.0
49.717	8.0
49.732	6.0
49.747	7.0
49.762	5.0
49.777	7.0
49.792	6.0
49.807	4.0
49.822	1.0
49.837	3.0
49.852	3.0
49.867	1.0
49.882	5.0
49.897	6.0
49.912	2.0
49.927	4.0
49.942	3.0
49.957	4.0
49.971	5.0
49.986	5.0
50.001	5.0
50.016	2.0
50.031	5.0
50.046	6.0
50.061	3.0
50.076	8.0
50.091	0.0
50.106	3.0
50.121	7.0
50.136	5.0
50.151	8.0
50.166	12.0
50.181	4.0
50.196	1.0
50.211	6.0
50.226	3.0
50.241	5.0
50.256	6.0
50.271	5.0
50.286	5.0
50.302	6.0
50.317	7.0
50.332	5.0
50.347	3.0
50.362	9.0
50.377	5.0
50.392	5.0
50.407	11.0
50.422	7.0
50.437	3.0
50.452	8.0
50.467	9.0
50.482	11.0
50.497	9.0
50.512	2.0
50.527	5.0
50.542	4.0
50.557	6.0
50.572	4.0
50.587	11.0
50.602	4.0
50.617	6.0
50.632	1.0
50.647	8.0
50.662	4.0
50.677	5.0
50.692	6.0
50.707	6.0
50.722	7.0
50.737	6.0
50.752	11.0
50.767	10.0
50.782	6.0
50.797	5.0
50.812	12.0
50.828	4.0
50.843	3.0
50.858	7.0
50.873	7.0
50.888	12.0
50.903	2.0
50.918	1.0
50.933	5.0
50.948	3.0
50.963	5.0
50.978	4.0
50.993	4.0
51.008	3.0
51.023	2.0
51.038	7.0
51.053	3.0
51.068	8.0
51.083	8.0
51.098	5.0
51.114	8.0
51.129	7.0
51.144	7.0
51.159	4.0
51.174	3.0
51.189	4.0
51.204	3.0
51.219	6.0
51.234	5.0
51.249	2.0
51.264	10.0
51.279	1.0
51.294	6.0
51.309	4.0
51.324	5.0
51.34	4.0
51.355	1.0
51.37	5.0
51.385	6.0
51.4	6.0
51.415	12.0
51.43	7.0
51.445	12.0
51.46	13.0
51.475	11.0
51.49	15.0
51.505	9.0
51.52	12.0
51.535	14.0
51.551	10.0
51.566	10.0
51.581	10.0
51.596	9.0
51.611	9.0
51.626	12.0
51.641	8.0
51.656	9.0
51.671	10.0
51.686	9.0
51.701	6.0
51.716	8.0
51.732	8.0
51.747	3.0
51.762	8.0
51.777	8.0
51.792	19.0
51.807	6.0
51.822	12.0
51.837	14.0
51.852	10.0
51.867	14.0
51.882	7.0
51.898	16.0
51.913	10.0
51.928	9.0
51.943	13.0
51.958	5.0
51.973	10.0
51.988	6.0
52.003	10.0
52.018	4.0
52.033	4.0
52.048	10.0
52.064	5.0
52.079	6.0
52.094	3.0
52.109	3.0
52.124	7.0
52.139	6.0
52.154	6.0
52.169	7.0
52.184	4.0
52.199	5.0
52.215	6.0
52.23	3.0
52.245	6.0
52.26	4.0
52.275	5.0
52.29	5.0
52.305	9.0
52.32	4.0
52.335	3.0
52.35	4.0
52.366	8.0
52.381	4.0
52.396	10.0
52.411	4.0
52.426	7.0
52.441	6.0
52.456	9.0
52.471	9.0
52.486	7.0
52.502	6.0
52.517	12.0
52.532	8.0
52.547	9.0
52.562	7.0
52.577	14.0
52.592	7.0
52.607	11.0
52.622	7.0
52.637	5.0
52.653	8.0
52.668	7.0
52.683	6.0
52.698	9.0
52.713	6.0
52.728	5.0
52.743	3.0
52.758	8.0
52.774	7.0
52.789	7.0
52.804	5.0
52.819	6.0
52.834	5.0
52.849	7.0
52.864	2.0
52.879	7.0
52.894	3.0
52.91	5.0
52.925	8.0
52.94	11.0
52.955	8.0
52.97	6.0
52.985	9.0
53.0	10.0
53.015	4.0
53.031	7.0
53.046	3.0
53.061	1.0
53.076	3.0
53.091	8.0
53.106	10.0
53.121	3.0
53.136	5.0
53.152	5.0
53.167	9.0
53.182	1.0
53.197	6.0
53.212	11.0
53.227	6.0
53.242	6.0
53.257	4.0
53.273	3.0
53.288	6.0
53.303	8.0
53.318	2.0
53.333	3.0
53.348	7.0
53.363	4.0
53.379	4.0
53.394	4.0
53.409	3.0
53.424	3.0
53.439	2.0
53.454	4.0
53.469	3.0
53.484	8.0
53.5	4.0
53.515	4.0
53.53	6.0
53.545	3.0
53.56	2.0
53.575	7.0
53.59	3.0
53.606	7.0
53.621	4.0
53.636	2.0
53.651	3.0
53.666	4.0
53.681	3.0
53.696	6.0
53.712	5.0
53.727	1.0
53.742	2.0
53.757	4.0
53.772	2.0
53.787	7.0
53.802	6.0
53.818	2.0
53.833	6.0
53.848	4.0
53.863	4.0
53.878	1.0
53.893	3.0
53.909	6.0
53.924	6.0
53.939	7.0
53.954	4.0
53.969	3.0
53.984	9.0
53.999	3.0
54.015	3.0
54.03	2.0
54.045	6.0
54.06	5.0
54.075	6.0
54.09	6.0
54.106	7.0
54.121	3.0
54.136	7.0
54.151	6.0
54.166	3.0
54.181	3.0
54.197	8.0
54.212	9.0
54.227	2.0
54.242	6.0
54.257	4.0
54.272	4.0
54.288	3.0
54.303	4.0
54.318	3.0
54.333	5.0
54.348	6.0
54.363	4.0
54.379	5.0
54.394	4.0
54.409	1.0
54.424	5.0
54.439	1.0
54.454	5.0
54.47	3.0
54.485	7.0
54.5	4.0
54.515	6.0
54.53	12.0
54.545	2.0
54.561	6.0
54.576	3.0
54.591	13.0
54.606	13.0
54.621	18.0
54.636	11.0
54.652	14.0
54.667	12.0
54.682	11.0
54.697	16.0
54.712	15.0
54.727	14.0
54.743	10.0
54.758	5.0
54.773	8.0
54.788	3.0
54.803	7.0
54.819	5.0
54.834	5.0
54.849	5.0
54.864	6.0
54.879	6.0
54.894	7.0
54.91	12.0
54.925	5.0
54.94	8.0
54.955	5.0
54.97	9.0
54.985	8.0
55.001	12.0
55.016	13.0
55.031	11.0
55.046	7.0
55.061	9.0
55.077	13.0
55.092	15.0
55.107	8.0
55.122	4.0
55.137	3.0
55.152	4.0
55.168	3.0
55.183	3.0
55.198	5.0
55.213	2.0
55.228	5.0
55.243	9.0
55.259	2.0
55.274	3.0
55.289	5.0
55.304	1.0
55.319	8.0
55.335	4.0
55.35	6.0
55.365	1.0
55.38	3.0
55.395	3.0
55.41	6.0
55.426	5.0
55.441	5.0
55.456	8.0
55.471	2.0
55.486	4.0
55.501	4.0
55.517	5.0
55.532	6.0
55.547	6.0
55.562	6.0
55.577	4.0
55.592	12.0
55.608	14.0
55.623	7.0
55.638	5.0
55.653	9.0
55.668	2.0
55.683	6.0
55.699	6.0
55.714	10.0
55.729	7.0
55.744	4.0
55.759	9.0
55.774	4.0
55.79	5.0
55.805	5.0
55.82	4.0
55.835	4.0
55.85	5.0
55.865	5.0
55.881	4.0
55.896	4.0
55.911	3.0
55.926	5.0
55.941	5.0
55.956	6.0
55.972	7.0
55.987	6.0
56.002	10.0
56.017	11.0
56.032	11.0
56.047	8.0
56.063	10.0
56.078	6.0
56.093	3.0
56.108	11.0
56.123	7.0
56.138	8.0
56.154	8.0
56.169	4.0
56.184	6.0
56.199	2.0
56.214	4.0
56.229	0.0
56.244	5.0
56.26	3.0
56.275	3.0
56.29	2.0
56.305	3.0
56.32	6.0
56.335	3.0
56.351	3.0
56.366	6.0
56.381	5.0
56.396	2.0
56.411	5.0
56.426	5.0
56.441	4.0
56.457	6.0
56.472	5.0
56.487	3.0
56.502	3.0
56.517	4.0
56.532	4.0
56.547	2.0
56.563	8.0
56.578	4.0
56.593	0.0
56.608	4.0
56.623	4.0
56.638	4.0
56.653	9.0
56.668	1.0
56.684	7.0
56.699	7.0
56.714	1.0
56.729	4.0
56.744	4.0
56.759	4.0
56.774	3.0
56.79	6.0
56.805	4.0
56.82	1.0
56.835	2.0
56.85	4.0
56.865	5.0
56.88	7.0
56.895	3.0
56.911	2.0
56.926	8.0
56.941	2.0
56.956	5.0
56.971	2.0
56.986	6.0
57.001	3.0
57.016	4.0
57.031	2.0
57.047	4.0
57.062	3.0
57.077	6.0
57.092	2.0
57.107	7.0
57.122	2.0
57.137	6.0
57.152	4.0
57.167	3.0
57.183	4.0
57.198	3.0
57.213	6.0
57.228	3.0
57.243	7.0
57.258	6.0
57.273	2.0
57.288	1.0
57.303	7.0
57.318	0.0
57.334	4.0
57.349	6.0
57.364	4.0
57.379	4.0
57.394	5.0
57.409	3.0
57.424	6.0
57.439	3.0
57.454	3.0
57.469	9.0
57.484	6.0
57.5	4.0
57.515	3.0
57.53	5.0
57.545	6.0
57.56	3.0
57.575	3.0
57.59	6.0
57.605	5.0
57.62	7.0
57.635	9.0
57.65	5.0
57.665	7.0
57.68	8.0
57.696	5.0
57.711	6.0
57.726	8.0
57.741	1.0
57.756	4.0
57.771	2.0
57.786	7.0
57.801	2.0
57.816	7.0
57.831	3.0
57.846	7.0
57.861	4.0
57.876	6.0
57.891	3.0
57.906	1.0
57.921	3.0
57.937	10.0
57.952	5.0
57.967	4.0
57.982	5.0
57.997	6.0
58.012	3.0
58.027	4.0
58.042	7.0
58.057	6.0
58.072	1.0
58.087	4.0
58.102	2.0
58.117	7.0
58.132	5.0
58.147	2.0
58.162	4.0
58.177	3.0
58.192	4.0
58.207	3.0
58.222	6.0
58.237	2.0
58.252	6.0
58.267	1.0
58.282	4.0
58.297	1.0
58.312	2.0
58.327	1.0
58.342	2.0
58.357	6.0
58.372	6.0
58.387	2.0
58.402	4.0
58.418	6.0
58.433	6.0
58.448	9.0
58.463	6.0
58.478	4.0
58.493	1.0
58.508	4.0
58.523	8.0
58.538	0.0
58.553	7.0
58.568	2.0
58.583	5.0
58.598	12.0
58.613	6.0
58.628	15.0
58.643	9.0
58.658	12.0
58.673	6.0
58.688	7.0
58.703	6.0
58.718	7.0
58.733	11.0
58.748	5.0
58.763	2.0
58.778	5.0
58.793	4.0
58.808	4.0
58.823	6.0
58.838	7.0
58.853	4.0
58.868	1.0
58.883	9.0
58.898	2.0
58.913	5.0
58.928	2.0
58.942	8.0
58.957	6.0
58.972	3.0
58.987	5.0
59.002	10.0
59.017	7.0
59.032	7.0
59.047	3.0
59.062	3.0
59.077	4.0
59.092	5.0
59.107	4.0
59.122	4.0
59.137	6.0
59.152	6.0
59.167	4.0
59.182	6.0
59.197	5.0
59.212	1.0
59.227	3.0
59.242	8.0
59.257	4.0
59.272	4.0
59.287	3.0
59.302	7.0
59.317	7.0
59.332	4.0
59.347	3.0
59.362	2.0
59.377	5.0
59.392	1.0
59.407	1.0
59.422	9.0
59.437	3.0
59.452	5.0
59.467	3.0
59.482	4.0
59.497	3.0
59.512	6.0
59.527	7.0
59.542	6.0
59.557	5.0
59.572	7.0
59.587	13.0
59.602	8.0
59.617	12.0
59.632	7.0
59.647	10.0
59.661	7.0
59.676	3.0
59.691	5.0
59.706	4.0
59.721	1.0
59.736	7.0
59.751	3.0
59.766	5.0
59.781	8.0
59.796	5.0
59.811	3.0
59.826	1.0
59.841	6.0
59.856	2.0
59.871	7.0
59.886	8.0
59.901	6.0
59.916	8.0
59.931	6.0
59.946	6.0
59.961	4.0
59.976	7.0
59.991	8.0
60.006	5.0
60.021	7.0
60.036	9.0
60.051	8.0
60.066	6.0
60.081	10.0
60.096	4.0
60.111	3.0
60.126	8.0
60.141	2.0
60.156	6.0
60.171	1.0
60.186	1.0
60.201	2.0
60.216	5.0
60.231	5.0
60.246	3.0
60.261	5.0
60.276	4.0
60.291	4.0
60.306	2.0
60.321	4.0
60.336	4.0
60.35	3.0
60.365	5.0
60.38	0.0
60.395	9.0
60.41	5.0
60.425	6.0
60.44	4.0
60.455	3.0
60.47	7.0
60.485	3.0
60.5	9.0
60.515	4.0
60.53	11.0
60.545	7.0
60.56	11.0
60.575	4.0
60.59	7.0
60.605	9.0
60.62	4.0
60.635	7.0
60.65	8.0
60.665	9.0
60.68	8.0
60.695	3.0
60.71	3.0
60.725	3.0
60.74	1.0
60.755	8.0
60.77	7.0
60.785	3.0
60.8	5.0
60.815	5.0
60.83	7.0
60.845	7.0
60.86	6.0
60.875	0.0
60.89	8.0
60.905	2.0
60.92	5.0
60.935	2.0
60.95	5.0
60.965	11.0
60.98	6.0
60.995	9.0
61.01	4.0
61.025	2.0
61.04	2.0
61.055	5.0
61.07	9.0
61.085	6.0
61.1	5.0
61.115	5.0
61.13	4.0
61.145	5.0
61.16	5.0
61.175	7.0
61.191	4.0
61.206	3.0
61.221	5.0
61.236	3.0
61.251	1.0
61.266	1.0
61.281	5.0
61.296	2.0
61.311	5.0
61.326	6.0
61.341	4.0
61.356	2.0
61.371	3.0
61.386	2.0
61.401	5.0
61.416	8.0
61.431	8.0
61.446	4.0
61.461	9.0
61.476	2.0
61.491	6.0
61.506	4.0
61.521	3.0
61.536	4.0
61.551	7.0
61.566	8.0
61.581	4.0
61.596	5.0
61.611	3.0
61.626	3.0
61.641	1.0
61.656	5.0
61.672	3.0
61.687	1.0
61.702	3.0
61.717	4.0
61.732	2.0
61.747	3.0
61.762	6.0
61.777	1.0
61.792	2.0
61.807	1.0
61.822	2.0
61.837	2.0
61.852	5.0
61.867	1.0
61.882	8.0
61.897	2.0
61.912	7.0
61.927	5.0
61.943	5.0
61.958	4.0
61.973	9.0
61.988	2.0
62.003	4.0
62.018	4.0
62.033	6.0
62.048	5.0
62.063	8.0
62.078	7.0
62.093	1.0
62.108	1.0
62.123	5.0
62.138	1.0
62.153	6.0
62.169	4.0
62.184	3.0
62.199	2.0
62.214	9.0
62.229	4.0
62.244	2.0
62.259	3.0
62.274	4.0
62.289	5.0
62.304	8.0
62.319	0.0
62.335	7.0
62.35	2.0
62.365	2.0
62.38	5.0
62.395	3.0
62.41	3.0
62.425	7.0
62.44	4.0
62.455	4.0
62.47	8.0
62.485	8.0
62.501	4.0
62.516	4.0
62.531	5.0
62.546	3.0
62.561	4.0
62.576	4.0
62.591	7.0
62.606	4.0
62.621	4.0
62.636	2.0
62.652	1.0
62.667	2.0
62.682	5.0
62.697	1.0
62.712	3.0
62.727	3.0
62.742	6.0
62.757	0.0
62.772	6.0
62.787	2.0
62.803	2.0
62.818	4.0
62.833	8.0
62.848	5.0
62.863	10.0
62.878	4.0
62.893	6.0
62.908	6.0
62.923	8.0
62.939	5.0
62.954	4.0
62.969	3.0
62.984	2.0
62.999	3.0
63.014	2.0
63.029	4.0
63.044	0.0
63.059	5.0
63.074	3.0
63.09	2.0
63.105	1.0
63.12	8.0
63.135	9.0
63.15	6.0
63.165	4.0
63.18	6.0
63.195	3.0
63.21	5.0
63.226	4.0
63.241	4.0
63.256	5.0
63.271	4.0
63.286	3.0
63.301	4.0
63.316	3.0
63.331	6.0
63.346	8.0
63.362	8.0
63.377	6.0
63.392	6.0
63.407	14.0
63.422	10.0
63.437	11.0
63.452	5.0
63.467	7.0
63.482	7.0
63.497	7.0
63.513	6.0
63.528	4.0
63.543	2.0
63.558	4.0
63.573	5.0
63.588	9.0
63.603	3.0
63.618	7.0
63.633	2.0
63.648	4.0
63.664	7.0
63.679	4.0
63.694	8.0
63.709	5.0
63.724	6.0
63.739	3.0
63.754	3.0
63.769	8.0
63.784	7.0
63.799	7.0
63.814	2.0
63.83	4.0
63.845	5.0
63.86	9.0
63.875	3.0
63.89	4.0
63.905	2.0
63.92	3.0
63.935	3.0
63.95	1.0
63.965	2.0
63.98	2.0
63.996	3.0
64.011	3.0
64.026	6.0
64.041	3.0
64.056	4.0
64.071	5.0
64.086	3.0
64.101	5.0
64.116	4.0
64.131	3.0
64.146	2.0
64.161	4.0
64.176	1.0
64.191	2.0
64.207	5.0
64.222	4.0
64.237	2.0
64.252	0.0
64.267	6.0
64.282	1.0
64.297	3.0
64.312	4.0
64.327	2.0
64.342	2.0
64.357	5.0
64.372	5.0
64.387	4.0
64.402	3.0
64.417	4.0
64.433	6.0
64.448	4.0
64.463	4.0
64.478	0.0
64.493	5.0
64.508	8.0
64.523	2.0
64.538	3.0
64.553	6.0
64.568	3.0
64.583	2.0
64.598	5.0
64.613	9.0
64.628	3.0
64.643	4.0
64.658	5.0
64.673	6.0
64.688	3.0
64.703	4.0
64.718	3.0
64.734	4.0
64.749	1.0
64.764	3.0
64.779	3.0
64.794	1.0
64.809	4.0
64.824	1.0
64.839	2.0
64.854	4.0
64.869	2.0
64.884	2.0
64.899	3.0
64.914	1.0
64.929	4.0
64.944	3.0
64.959	1.0
64.974	3.0
64.989	4.0
65.004	3.0
65.019	3.0
65.034	2.0
65.049	3.0
65.064	4.0
65.079	5.0
65.094	2.0
65.109	5.0
65.125	0.0
65.14	3.0
65.155	2.0
65.17	1.0
65.185	5.0
65.2	6.0
65.215	4.0
65.23	7.0
65.245	2.0
65.26	4.0
65.275	1.0
65.29	6.0
65.305	6.0
65.32	4.0
65.335	7.0
65.35	7.0
65.365	3.0
65.38	3.0
65.395	3.0
65.41	2.0
65.425	4.0
65.44	2.0
65.455	3.0
65.47	3.0
65.485	3.0
65.5	5.0
65.515	0.0
65.53	3.0
65.545	3.0
65.56	0.0
65.575	5.0
65.59	2.0
65.605	6.0
65.62	5.0
65.635	4.0
65.65	5.0
65.666	7.0
65.681	2.0
65.696	2.0
65.711	7.0
65.726	3.0
65.741	7.0
65.756	2.0
65.771	10.0
65.786	3.0
65.801	5.0
65.816	8.0
65.831	4.0
65.846	2.0
65.861	4.0
65.876	4.0
65.891	2.0
65.906	5.0
65.921	5.0
65.936	3.0
65.951	0.0
65.966	1.0
65.981	8.0
65.996	5.0
66.011	5.0
66.026	5.0
66.041	4.0
66.056	3.0
66.071	7.0
66.086	4.0
66.101	6.0
66.116	5.0
66.131	3.0
66.146	5.0
66.161	18.0
66.176	12.0
66.191	5.0
66.206	9.0
66.221	9.0
66.236	7.0
66.251	6.0
66.266	6.0
66.281	8.0
66.296	6.0
66.311	1.0
66.327	4.0
66.342	4.0
66.357	2.0
66.372	4.0
66.387	5.0
66.402	6.0
66.417	5.0
66.432	1.0
66.447	4.0
66.462	1.0
66.477	3.0
66.492	2.0
66.507	3.0
66.522	5.0
66.537	2.0
66.552	2.0
66.567	2.0
66.582	8.0
66.597	6.0
66.612	4.0
66.627	7.0
66.642	7.0
66.657	3.0
66.672	4.0
66.687	2.0
66.702	5.0
66.717	9.0
66.732	4.0
66.747	3.0
66.762	3.0
66.777	3.0
66.792	4.0
66.807	3.0
66.822	5.0
66.837	2.0
66.853	1.0
66.868	0.0
66.883	1.0
66.898	7.0
66.913	2.0
66.928	4.0
66.943	3.0
66.958	4.0
66.973	3.0
66.988	4.0
67.003	3.0
67.018	4.0
67.033	6.0
67.048	5.0
67.063	3.0
67.078	5.0
67.093	0.0
67.108	6.0
67.123	7.0
67.138	6.0
67.153	6.0
67.168	4.0
67.183	2.0
67.198	1.0
67.214	4.0
67.229	4.0
67.244	3.0
67.259	5.0
67.274	4.0
67.289	2.0
67.304	4.0
67.319	3.0
67.334	1.0
67.349	3.0
67.364	3.0
67.379	1.0
67.394	3.0
67.409	3.0
67.424	1.0
67.439	2.0
67.454	4.0
67.469	3.0
67.484	4.0
67.5	4.0
67.515	3.0
67.53	5.0
67.545	7.0
67.56	5.0
67.575	4.0
67.59	4.0
67.605	5.0
67.62	5.0
67.635	5.0
67.65	3.0
67.665	3.0
67.68	3.0
67.695	6.0
67.71	5.0
67.726	3.0
67.741	1.0
67.756	5.0
67.771	5.0
67.786	6.0
67.801	5.0
67.816	2.0
67.831	5.0
67.846	1.0
67.861	5.0
67.876	1.0
67.891	1.0
67.906	3.0
67.922	2.0
67.937	8.0
67.952	5.0
67.967	6.0
67.982	2.0
67.997	4.0
68.012	2.0
68.027	5.0
68.042	2.0
68.057	2.0
68.072	2.0
68.087	5.0
68.103	7.0
68.118	1.0
68.133	4.0
68.148	2.0
68.163	2.0
68.178	1.0
68.193	0.0
68.208	3.0
68.223	4.0
68.238	2.0
68.254	2.0
68.269	8.0
68.284	8.0
68.299	3.0
68.314	3.0
68.329	5.0
68.344	3.0
68.359	4.0
68.374	7.0
68.389	4.0
68.405	4.0
68.42	4.0
68.435	3.0
68.45	4.0
68.465	5.0
68.48	6.0
68.495	5.0
68.51	5.0
68.525	1.0
68.54	4.0
68.556	2.0
68.571	4.0
68.586	3.0
68.601	6.0
68.616	3.0
68.631	3.0
68.646	0.0
68.661	3.0
68.676	5.0
68.691	2.0
68.707	6.0
68.722	1.0
68.737	2.0
68.752	4.0
68.767	4.0
68.782	2.0
68.797	1.0
68.812	6.0
68.827	2.0
68.842	5.0
68.857	2.0
68.873	1.0
68.888	2.0
68.903	4.0
68.918	4.0
68.933	2.0
68.948	2.0
68.963	4.0
68.978	8.0
68.993	8.0
69.008	3.0
69.023	7.0
69.038	4.0
69.054	1.0
69.069	3.0
69.084	3.0
69.099	1.0
69.114	2.0
69.129	3.0
69.144	1.0
69.159	3.0
69.174	3.0
69.189	1.0
69.204	3.0
69.219	3.0
69.234	4.0
69.249	5.0
69.264	3.0
69.279	4.0
69.295	4.0
69.31	3.0
69.325	5.0
69.34	7.0
69.355	4.0
69.37	7.0
69.385	7.0
69.4	2.0
69.415	7.0
69.43	4.0
69.445	5.0
69.46	5.0
69.475	2.0
69.49	3.0
69.505	5.0
69.52	3.0
69.535	6.0
69.55	5.0
69.565	3.0
69.58	2.0
69.595	4.0
69.61	3.0
69.625	3.0
69.64	5.0
69.655	5.0
69.67	1.0
69.685	6.0
69.7	4.0
69.715	6.0
69.73	6.0
69.745	6.0
69.76	5.0
69.775	6.0
69.79	5.0
69.805	7.0
69.82	11.0
69.835	3.0
69.85	3.0
69.865	3.0
69.88	5.0
69.895	2.0
69.909	7.0
69.924	3.0
69.939	6.0
69.954	2.0
69.969	1.0
69.984	7.0
69.999	5.0
70.014	3.0
70.029	7.0
70.044	3.0
70.059	5.0
70.074	4.0
70.088	2.0
70.103	3.0
70.118	5.0
70.133	4.0
70.148	3.0
70.163	3.0
70.178	3.0
70.193	5.0
70.208	2.0
70.222	6.0
70.237	7.0
70.252	3.0
70.267	4.0
70.282	5.0
70.297	4.0
70.312	7.0
70.327	4.0
70.341	10.0
70.356	6.0
70.371	4.0
70.386	6.0
70.401	2.0
70.416	5.0
70.43	1.0
70.445	4.0
70.46	2.0
70.475	2.0
70.49	4.0
70.505	5.0
70.519	4.0
70.534	5.0
70.549	1.0
70.564	2.0
70.579	6.0
70.594	7.0
70.608	5.0
70.623	2.0
70.638	4.0
70.653	3.0
70.668	10.0
70.683	7.0
70.697	6.0
70.712	4.0
70.727	4.0
70.742	7.0
70.757	4.0
70.771	3.0
70.786	1.0
70.801	3.0
70.816	3.0
70.831	6.0
70.845	2.0
70.86	1.0
70.875	1.0
70.89	4.0
70.905	3.0
70.92	4.0
70.934	7.0
70.949	4.0
70.964	8.0
70.979	1.0
70.994	5.0
71.008	1.0
71.023	4.0
71.038	1.0
71.053	2.0
71.068	4.0
71.082	7.0
71.097	3.0
71.112	4.0
71.127	1.0
71.142	4.0
71.156	4.0
71.171	6.0
71.186	4.0
71.201	8.0
71.216	5.0
71.231	4.0
71.245	7.0
71.26	5.0
71.275	3.0
71.29	4.0
71.305	6.0
71.319	5.0
71.334	1.0
71.349	3.0
71.364	3.0
71.379	7.0
71.394	4.0
71.408	3.0
71.423	3.0
71.438	3.0
71.453	6.0
71.468	2.0
71.483	7.0
71.497	4.0
71.512	4.0
71.527	7.0
71.542	3.0
71.557	3.0
71.572	2.0
71.586	5.0
71.601	2.0
71.616	4.0
71.631	5.0
71.646	3.0
71.661	5.0
71.676	6.0
71.69	2.0
71.705	7.0
71.72	3.0
71.735	6.0
71.75	4.0
71.765	0.0
71.78	6.0
71.795	3.0
71.81	1.0
71.824	1.0
71.839	3.0
71.854	2.0
71.869	3.0
71.884	2.0
71.899	7.0
71.914	4.0
71.929	1.0
71.944	5.0
71.959	4.0
71.974	3.0
71.988	6.0
72.003	4.0
72.018	0.0
72.033	2.0
72.048	6.0
72.063	7.0
72.078	2.0
72.093	1.0
72.108	7.0
72.123	0.0
72.138	6.0
72.153	7.0
72.168	3.0
72.183	3.0
72.198	0.0
72.213	3.0
72.228	3.0
72.243	5.0
72.258	5.0
72.273	2.0
72.288	4.0
72.303	4.0
72.318	4.0
72.333	1.0
72.348	4.0
72.363	5.0
72.378	6.0
72.393	5.0
72.408	2.0
72.423	2.0
72.438	2.0
72.453	2.0
72.468	1.0
72.483	2.0
72.498	3.0
72.513	5.0
72.528	2.0
72.543	1.0
72.558	3.0
72.573	2.0
72.588	4.0
72.603	4.0
72.618	0.0
72.633	3.0
72.649	4.0
72.664	4.0
72.679	6.0
72.694	2.0
72.709	4.0
72.724	8.0
72.739	1.0
72.754	2.0
72.769	3.0
72.784	4.0
72.799	4.0
72.814	4.0
72.829	3.0
72.845	1.0
72.86	3.0
72.875	2.0
72.89	3.0
72.905	3.0
72.92	3.0
72.935	2.0
72.95	1.0
72.965	1.0
72.98	6.0
72.996	8.0
73.011	4.0
73.026	3.0
73.041	5.0
73.056	3.0
73.071	2.0
73.086	2.0
73.101	2.0
73.117	6.0
73.132	4.0
73.147	1.0
73.162	1.0
73.177	2.0
73.192	5.0
73.207	6.0
73.222	4.0
73.238	3.0
73.253	4.0
73.268	1.0
73.283	3.0
73.298	5.0
73.313	8.0
73.328	7.0
73.343	4.0
73.359	4.0
73.374	4.0
73.389	6.0
73.404	3.0
73.419	2.0
73.434	3.0
73.449	6.0
73.465	2.0
73.48	3.0
73.495	5.0
73.51	1.0
73.525	5.0
73.54	3.0
73.556	7.0
73.571	4.0
73.586	1.0
73.601	4.0
73.616	5.0
73.631	1.0
73.646	4.0
73.662	2.0
73.677	4.0
73.692	2.0
73.707	2.0
73.722	2.0
73.737	2.0
73.752	3.0
73.768	3.0
73.783	5.0
73.798	4.0
73.813	7.0
73.828	5.0
73.843	6.0
73.859	6.0
73.874	3.0
73.889	5.0
73.904	4.0
73.919	8.0
73.934	2.0
73.949	4.0
73.965	6.0
73.98	4.0
73.995	1.0
74.01	4.0
74.025	2.0
74.04	4.0
74.056	3.0
74.071	4.0
74.086	1.0
74.101	6.0
74.116	2.0
74.131	7.0
74.146	6.0
74.162	3.0
74.177	5.0
74.192	3.0
74.207	4.0
74.222	4.0
74.237	3.0
74.252	2.0
74.268	3.0
74.283	6.0
74.298	3.0
74.313	5.0
74.328	4.0
74.343	8.0
74.358	6.0
74.374	3.0
74.389	6.0
74.404	4.0
74.419	2.0
74.434	7.0
74.449	5.0
74.464	7.0
74.48	5.0
74.495	2.0
74.51	3.0
74.525	5.0
74.54	3.0
74.555	2.0
74.57	2.0
74.586	3.0
74.601	3.0
74.616	3.0
74.631	5.0
74.646	5.0
74.661	9.0
74.676	4.0
74.691	4.0
74.707	9.0
74.722	4.0
74.737	6.0
74.752	1.0
74.767	7.0
74.782	5.0
74.797	6.0
74.813	2.0
74.828	0.0
74.843	4.0
74.858	2.0
74.873	1.0
74.888	4.0
74.903	2.0
74.918	3.0
74.934	2.0
74.949	3.0
74.964	2.0
74.979	4.0
74.994	3.0
75.009	3.0
75.024	10.0
75.04	1.0
75.055	7.0
75.07	6.0
75.085	5.0
75.1	3.0
75.115	3.0
75.13	7.0
75.145	8.0
75.161	4.0
75.176	4.0
75.191	3.0
75.206	6.0
75.221	5.0
75.236	2.0
75.251	2.0
75.266	0.0
75.282	3.0
75.297	2.0
75.312	2.0
75.327	2.0
75.342	2.0
75.357	3.0
75.372	2.0
75.387	2.0
75.403	7.0
75.418	1.0
75.433	3.0
75.448	0.0
75.463	3.0
75.478	7.0
75.493	6.0
75.509	6.0
75.524	3.0
75.539	4.0
75.554	4.0
75.569	3.0
75.584	3.0
75.599	5.0
75.614	1.0
75.63	3.0
75.645	2.0
75.66	3.0
75.675	4.0
75.69	2.0
75.705	1.0
75.72	3.0
75.735	2.0
75.751	2.0
75.766	3.0
75.781	1.0
75.796	3.0
75.811	6.0
75.826	6.0
75.841	3.0
75.856	5.0
75.872	3.0
75.887	6.0
75.902	3.0
75.917	2.0
75.932	5.0
75.947	4.0
75.962	2.0
75.977	2.0
75.993	3.0
76.008	1.0
76.023	4.0
76.038	3.0
76.053	2.0
76.068	2.0
76.083	5.0
76.098	2.0
76.114	4.0
76.129	4.0
76.144	4.0
76.159	4.0
76.174	3.0
76.189	2.0
76.204	1.0
76.22	3.0
76.235	2.0
76.25	5.0
76.265	3.0
76.28	4.0
76.295	6.0
76.31	4.0
76.325	5.0
76.341	0.0
76.356	5.0
76.371	1.0
76.386	3.0
76.401	1.0
76.416	5.0
76.431	2.0
76.446	7.0
76.462	6.0
76.477	6.0
76.492	2.0
76.507	5.0
76.522	5.0
76.537	1.0
76.552	5.0
76.567	3.0
76.583	5.0
76.598	1.0
76.613	3.0
76.628	3.0
76.643	2.0
76.658	3.0
76.673	0.0
76.688	6.0
76.704	3.0
76.719	2.0
76.734	5.0
76.749	7.0
76.764	4.0
76.779	8.0
76.794	5.0
76.809	3.0
76.824	7.0
76.84	2.0
76.855	4.0
76.87	6.0
76.885	5.0
76.9	2.0
76.915	1.0
76.93	4.0
76.945	0.0
76.96	1.0
76.976	3.0
76.991	3.0
77.006	4.0
77.021	3.0
77.036	3.0
77.051	4.0
77.066	3.0
77.081	3.0
77.096	6.0
77.112	4.0
77.127	2.0
77.142	3.0
77.157	2.0
77.172	1.0
77.187	4.0
77.202	3.0
77.217	3.0
77.232	1.0
77.247	2.0
77.263	4.0
77.278	3.0
77.293	3.0
77.308	5.0
77.323	2.0
77.338	3.0
77.353	3.0
77.368	4.0
77.383	2.0
77.398	2.0
77.413	3.0
77.428	2.0
77.444	2.0
77.459	3.0
77.474	2.0
77.489	2.0
77.504	7.0
77.519	3.0
77.534	2.0
77.549	4.0
77.564	3.0
77.579	5.0
77.594	1.0
77.609	5.0
77.624	3.0
77.64	5.0
77.655	6.0
77.67	4.0
77.685	8.0
77.7	6.0
77.715	7.0
77.73	5.0
77.745	4.0
77.76	3.0
77.775	3.0
77.79	8.0
77.805	2.0
77.82	4.0
77.835	5.0
77.85	0.0
77.865	4.0
77.88	1.0
77.895	3.0
77.91	1.0
77.926	5.0
77.941	1.0
77.956	3.0
77.971	0.0
77.986	5.0
78.001	3.0
78.016	1.0
78.031	4.0
78.046	1.0
78.061	3.0
78.076	5.0
78.091	4.0
78.106	6.0
78.121	1.0
78.136	2.0
78.151	1.0
78.166	3.0
78.181	8.0
78.196	6.0
78.211	6.0
78.226	5.0
78.241	7.0
78.256	4.0
78.271	9.0
78.286	1.0
78.301	3.0
78.316	3.0
78.331	5.0
78.346	0.0
78.361	3.0
78.376	3.0
78.391	3.0
78.406	3.0
78.421	1.0
78.436	3.0
78.451	5.0
78.466	3.0
78.481	4.0
78.496	3.0
78.511	1.0
78.526	1.0
78.541	3.0
78.556	5.0
78.571	5.0
78.586	1.0
78.601	7.0
78.616	4.0
78.631	4.0
78.646	5.0
78.661	5.0
78.676	2.0
78.691	4.0
78.706	4.0
78.721	5.0
78.736	3.0
78.751	5.0
78.766	0.0
78.781	2.0
78.796	4.0
78.811	6.0
78.826	3.0
78.841	3.0
78.856	1.0
78.871	3.0
78.885	5.0
78.9	4.0
78.915	1.0
78.93	2.0
78.945	1.0
78.96	2.0
78.975	4.0
78.99	3.0
79.005	4.0
79.02	1.0
79.035	7.0
79.05	4.0
79.065	5.0
79.08	2.0
79.095	4.0
79.11	7.0
79.125	8.0
79.14	2.0
79.155	2.0
79.17	5.0
79.185	1.0
79.2	3.0
79.215	1.0
79.23	5.0
79.245	0.0
79.26	3.0
79.275	7.0
79.29	1.0
79.304	5.0
79.319	3.0
79.334	4.0
79.349	4.0
79.364	5.0
79.379	2.0
79.394	4.0
79.409	7.0
79.424	2.0
79.439	1.0
79.454	6.0
79.469	5.0
79.484	2.0
79.499	4.0
79.514	7.0
79.529	1.0
79.544	4.0
79.559	2.0
79.574	2.0
79.589	6.0
79.604	1.0
79.619	6.0
79.634	4.0
79.649	3.0
79.664	3.0
79.679	3.0
79.693	1.0
79.708	6.0
79.723	1.0
79.738	2.0
79.753	0.0
79.768	3.0
79.783	1.0
79.798	2.0
79.813	1.0
79.828	3.0
79.843	4.0
79.858	3.0
79.873	1.0
79.888	5.0
79.903	5.0
79.918	0.0
79.933	3.0
79.948	3.0
79.963	1.0
79.978	3.0
79.993	2.0
80.008	1.0
80.023	4.0
80.038	2.0
80.053	2.0
80.068	4.0
80.083	4.0
80.098	1.0
80.113	3.0
80.128	2.0
80.143	2.0
80.158	3.0
80.173	6.0
80.188	2.0
80.202	5.0
80.217	3.0
80.232	7.0
80.247	1.0
80.262	1.0
80.277	5.0
80.292	3.0
80.307	4.0
80.322	3.0
80.337	5.0
80.352	2.0
80.367	2.0
80.382	1.0
80.397	3.0
80.412	0.0
80.427	1.0
80.442	2.0
80.457	2.0
80.472	5.0
80.487	3.0
80.502	6.0
80.517	3.0
80.532	2.0
80.547	4.0
80.562	1.0
80.577	3.0
80.592	5.0
80.607	2.0
80.622	3.0
80.637	3.0
80.652	2.0
80.667	2.0
80.682	2.0
80.697	5.0
80.712	3.0
80.727	0.0
80.742	3.0
80.757	2.0
80.772	8.0
80.787	5.0
80.802	0.0
80.817	11.0
80.832	1.0
80.847	2.0
80.862	3.0
80.877	4.0
80.892	4.0
80.907	2.0
80.922	3.0
80.937	4.0
80.952	3.0
80.967	5.0
80.982	3.0
80.997	1.0
81.012	4.0
81.027	2.0
81.042	3.0
81.057	3.0
81.072	5.0
81.087	2.0
81.101	4.0
81.116	2.0
81.131	1.0
81.146	3.0
81.161	4.0
81.176	1.0
81.191	3.0
81.206	3.0
81.221	2.0
81.236	5.0
81.251	3.0
81.266	1.0
81.281	3.0
81.296	2.0
81.311	3.0
81.326	3.0
81.341	4.0
81.356	0.0
81.371	0.0
81.386	5.0
81.401	1.0
81.416	6.0
81.431	5.0
81.446	1.0
81.461	2.0
81.476	6.0
81.491	4.0
81.506	4.0
81.521	4.0
81.536	3.0
81.55	2.0
81.565	3.0
81.58	5.0
81.595	4.0
81.61	4.0
81.625	2.0
81.64	1.0
81.655	5.0
81.67	2.0
81.685	4.0
81.7	4.0
81.715	1.0
81.73	4.0
81.745	8.0
81.76	4.0
81.775	2.0
81.79	7.0
81.805	5.0
81.819	5.0
81.834	3.0
81.849	5.0
81.864	6.0
81.879	3.0
81.894	1.0
81.909	3.0
81.924	7.0
81.939	7.0
81.954	5.0
81.969	3.0
81.984	4.0
81.999	4.0
82.013	2.0
82.028	1.0
82.043	2.0
82.058	3.0
82.073	4.0
82.088	2.0
82.103	1.0
82.118	1.0
82.133	1.0
82.148	7.0
82.163	0.0
82.177	4.0
82.192	2.0
82.207	3.0
82.222	2.0
82.237	2.0
82.252	4.0
82.267	2.0
82.282	1.0
82.297	6.0
82.312	5.0
82.326	3.0
82.341	2.0
82.356	3.0
82.371	5.0
82.386	1.0
82.401	1.0
82.416	4.0
82.431	3.0
82.445	5.0
82.46	1.0
82.475	3.0
82.49	2.0
82.505	2.0
82.52	4.0
82.535	3.0
82.55	5.0
82.565	6.0
82.579	6.0
82.594	3.0
82.609	5.0
82.624	2.0
82.639	4.0
82.654	3.0
82.669	2.0
82.684	1.0
82.698	4.0
82.713	1.0
82.728	3.0
82.743	4.0
82.758	4.0
82.773	4.0
82.788	1.0
82.803	0.0
82.817	5.0
82.832	3.0
82.847	4.0
82.862	1.0
82.877	5.0
82.892	3.0
82.907	2.0
82.922	2.0
82.937	5.0
82.951	2.0
82.966	2.0
82.981	4.0
82.996	2.0
83.011	4.0
83.026	3.0
83.041	0.0
83.056	2.0
83.07	1.0
83.085	1.0
83.1	3.0
83.115	2.0
83.13	3.0
83.145	2.0
83.16	2.0
83.175	3.0
83.19	5.0
83.204	3.0
83.219	3.0
83.234	0.0
83.249	1.0
83.264	4.0
83.279	3.0
83.294	2.0
83.309	0.0
83.324	4.0
83.339	4.0
83.353	3.0
83.368	2.0
83.383	5.0
83.398	1.0
83.413	1.0
83.428	2.0
83.443	5.0
83.458	5.0
83.473	1.0
83.488	4.0
83.503	6.0
83.517	4.0
83.532	6.0
83.547	5.0
83.562	3.0
83.577	4.0
83.592	5.0
83.607	2.0
83.622	3.0
83.637	2.0
83.652	3.0
83.667	2.0
83.682	3.0
83.697	1.0
83.712	4.0
83.727	2.0
83.741	2.0
83.756	3.0
83.771	1.0
83.786	4.0
83.801	1.0
83.816	3.0
83.831	5.0
83.846	4.0
83.861	2.0
83.876	3.0
83.891	3.0
83.906	2.0
83.921	3.0
83.936	3.0
83.951	2.0
83.966	2.0
83.981	1.0
83.996	2.0
84.011	6.0
84.026	3.0
84.041	3.0
84.056	1.0
84.071	4.0
84.086	4.0
84.101	3.0
84.116	3.0
84.131	2.0
84.146	6.0
84.161	3.0
84.176	4.0
84.191	1.0
84.206	4.0
84.221	2.0
84.236	5.0
84.251	5.0
84.266	2.0
84.281	2.0
84.296	7.0
84.311	2.0
84.326	2.0
84.341	4.0
84.356	3.0
84.371	9.0
84.386	6.0
84.401	9.0
84.416	5.0
84.431	1.0
84.446	6.0
84.461	2.0
84.476	6.0
84.492	4.0
84.507	4.0
84.522	1.0
84.537	4.0
84.552	3.0
84.567	3.0
84.582	2.0
84.597	6.0
84.612	2.0
84.627	0.0
84.642	1.0
84.657	1.0
84.672	1.0
84.687	7.0
84.702	2.0
84.717	6.0
84.733	3.0
84.748	2.0
84.763	6.0
84.778	6.0
84.793	3.0
84.808	2.0
84.823	5.0
84.838	6.0
84.853	4.0
84.868	6.0
84.883	2.0
84.898	1.0
84.913	1.0
84.929	4.0
84.944	3.0
84.959	2.0
84.974	4.0
84.989	4.0
85.004	5.0
85.019	2.0
85.034	3.0
85.049	2.0
85.064	2.0
85.079	8.0
85.094	6.0
85.11	4.0
85.125	2.0
85.14	4.0
85.155	3.0
85.17	2.0
85.185	4.0
85.2	4.0
85.215	3.0
85.23	2.0
85.245	5.0
85.26	3.0
85.276	2.0
85.291	3.0
85.306	2.0
85.321	1.0
85.336	3.0
85.351	4.0
85.366	1.0
85.381	1.0
85.396	1.0
85.411	1.0
85.426	2.0
85.441	7.0
85.457	4.0
85.472	4.0
85.487	4.0
85.502	1.0
85.517	1.0
85.532	5.0
85.547	2.0
85.562	8.0
85.577	2.0
85.592	4.0
85.607	3.0
85.622	2.0
85.637	4.0
85.653	2.0
85.668	2.0
85.683	4.0
85.698	2.0
85.713	5.0
85.728	5.0
85.743	4.0
85.758	3.0
85.773	2.0
85.788	3.0
85.803	6.0
85.818	3.0
85.833	2.0
85.848	3.0
85.863	2.0
85.879	2.0
85.894	4.0
85.909	2.0
85.924	2.0
85.939	3.0
85.954	2.0
85.969	2.0
85.984	3.0
85.999	2.0
86.014	2.0
86.029	6.0
86.044	2.0
86.059	3.0
86.074	3.0
86.089	3.0
86.104	4.0
86.119	2.0
86.134	2.0
86.149	4.0
86.164	5.0
86.179	4.0
86.194	4.0
86.209	2.0
86.224	3.0
86.239	2.0
86.254	1.0
86.269	4.0
86.284	5.0
86.299	4.0
86.314	2.0
86.33	0.0
86.345	3.0
86.36	2.0
86.375	3.0
86.39	2.0
86.405	3.0
86.42	4.0
86.435	2.0
86.45	6.0
86.465	2.0
86.48	5.0
86.495	4.0
86.51	4.0
86.525	1.0
86.54	5.0
86.555	3.0
86.57	4.0
86.585	7.0
86.6	3.0
86.615	2.0
86.63	3.0
86.645	4.0
86.659	2.0
86.674	3.0
86.689	4.0
86.704	2.0
86.719	4.0
86.734	4.0
86.749	3.0
86.764	1.0
86.779	7.0
86.794	3.0
86.809	2.0
86.824	4.0
86.839	6.0
86.854	5.0
86.869	6.0
86.884	9.0
86.899	8.0
86.914	5.0
86.929	3.0
86.944	5.0
86.959	3.0
86.974	7.0
86.989	4.0
87.004	9.0
87.019	0.0
87.034	4.0
87.049	5.0
87.064	4.0
87.079	6.0
87.094	1.0
87.109	1.0
87.124	2.0
87.139	3.0
87.154	5.0
87.169	3.0
87.184	3.0
87.199	4.0
87.214	3.0
87.229	1.0
87.244	3.0
87.259	1.0
87.274	3.0
87.289	1.0
87.304	4.0
87.319	1.0
87.334	0.0
87.349	4.0
87.364	3.0
87.379	6.0
87.394	1.0
87.409	6.0
87.424	5.0
87.438	4.0
87.453	3.0
87.468	2.0
87.483	1.0
87.498	2.0
87.513	9.0
87.528	0.0
87.543	3.0
87.558	4.0
87.573	2.0
87.588	8.0
87.603	3.0
87.618	6.0
87.633	3.0
87.648	7.0
87.663	4.0
87.678	2.0
87.693	4.0
87.708	3.0
87.723	4.0
87.738	7.0
87.753	4.0
87.768	5.0
87.783	6.0
87.798	5.0
87.813	1.0
87.828	6.0
87.843	5.0
87.858	1.0
87.873	2.0
87.888	2.0
87.903	1.0
87.918	3.0
87.933	3.0
87.948	3.0
87.963	1.0
87.978	3.0
87.993	4.0
88.008	5.0
88.023	7.0
88.038	5.0
88.053	2.0
88.068	3.0
88.083	3.0
88.098	5.0
88.113	1.0
88.128	6.0
88.143	2.0
88.158	3.0
88.174	3.0
88.189	4.0
88.204	6.0
88.219	1.0
88.234	4.0
88.249	2.0
88.264	3.0
88.279	1.0
88.294	5.0
88.309	3.0
88.324	4.0
88.339	4.0
88.354	3.0
88.369	7.0
88.384	1.0
88.399	1.0
88.414	6.0
88.429	4.0
88.444	3.0
88.459	3.0
88.474	4.0
88.489	4.0
88.504	2.0
88.519	4.0
88.534	4.0
88.549	5.0
88.564	3.0
88.58	5.0
88.595	6.0
88.61	4.0
88.625	3.0
88.64	2.0
88.655	2.0
88.67	1.0
88.685	5.0
88.7	1.0
88.715	2.0
88.73	3.0
88.745	2.0
88.76	5.0
88.775	1.0
88.79	4.0
88.805	0.0
88.82	2.0
88.835	3.0
88.85	2.0
88.865	4.0
88.88	4.0
88.895	4.0
88.911	3.0
88.926	4.0
88.941	5.0
88.956	1.0
88.971	4.0
88.986	2.0
89.001	4.0
89.016	4.0
89.031	3.0
89.046	2.0
89.061	3.0
89.076	2.0
89.091	1.0
89.106	6.0
89.121	3.0
89.136	2.0
89.151	3.0
89.166	7.0
89.181	2.0
89.196	3.0
89.211	6.0
89.227	6.0
89.242	6.0
89.257	1.0
89.272	2.0
89.287	3.0
89.302	5.0
89.317	6.0
89.332	3.0
89.347	2.0
89.362	1.0
89.377	4.0
89.392	7.0
89.407	3.0
89.422	4.0
89.437	7.0
89.452	2.0
89.467	6.0
89.482	1.0
89.497	4.0
89.512	2.0
89.527	4.0
89.542	1.0
89.557	0.0
89.572	2.0
89.587	1.0
89.602	3.0
89.617	3.0
89.632	2.0
89.647	4.0
89.662	4.0
89.677	2.0
89.693	2.0
89.708	2.0
89.723	1.0
89.738	4.0
89.753	2.0
89.768	0.0
89.783	4.0
89.798	2.0
89.813	6.0
89.828	7.0
89.843	4.0
89.858	1.0
89.873	4.0
89.888	3.0
89.903	3.0
89.918	2.0
89.933	4.0
89.948	4.0
89.963	5.0
89.978	4.0
89.993	1.0
90.008	4.0
90.023	5.0
90.038	4.0
90.053	3.0
90.068	4.0
90.083	2.0
90.097	5.0
90.112	2.0
90.127	5.0
90.142	5.0
90.157	3.0
90.172	1.0
90.187	4.0
90.202	4.0
90.217	3.0
90.232	5.0
90.247	4.0
90.262	3.0
90.277	8.0
90.292	6.0
90.307	3.0
90.322	2.0
90.337	4.0
90.352	2.0
90.367	3.0
90.382	3.0
90.397	1.0
90.412	6.0
90.427	3.0
90.442	1.0
90.457	2.0
90.472	3.0
90.487	1.0
90.501	1.0
90.516	4.0
90.531	0.0
90.546	1.0
90.561	5.0
90.576	2.0
90.591	2.0
90.606	2.0
90.621	5.0
90.636	3.0
90.651	3.0
90.666	3.0
90.681	4.0
90.696	6.0
90.711	1.0
90.726	1.0
90.741	3.0
90.755	3.0
90.77	1.0
90.785	2.0
90.8	4.0
90.815	2.0
90.83	1.0
90.845	1.0
90.86	2.0
90.875	5.0
90.89	3.0
90.905	9.0
90.92	3.0
90.935	3.0
90.95	3.0
90.965	3.0
90.979	8.0
90.994	7.0
91.009	2.0
91.024	2.0
91.039	4.0
91.054	3.0
91.069	5.0
91.084	3.0
91.099	3.0
91.114	0.0
91.129	8.0
91.144	3.0
91.159	3.0
91.174	3.0
91.188	1.0
91.203	3.0
91.218	3.0
91.233	2.0
91.248	4.0
91.263	3.0
91.278	2.0
91.293	2.0
91.308	0.0
91.323	3.0
91.338	7.0
91.353	3.0
91.368	4.0
91.383	2.0
91.398	5.0
91.412	2.0
91.427	1.0
91.442	1.0
91.457	1.0
91.472	3.0
91.487	2.0
91.502	3.0
91.517	0.0
91.532	2.0
91.547	2.0
91.562	2.0
91.577	3.0
91.592	1.0
91.607	3.0
91.622	2.0
91.637	2.0
91.652	1.0
91.666	4.0
91.681	2.0
91.696	1.0
91.711	5.0
91.726	6.0
91.741	4.0
91.756	4.0
91.771	5.0
91.786	3.0
91.801	2.0
91.816	3.0
91.831	0.0
91.846	3.0
91.861	1.0
91.876	2.0
91.891	3.0
91.906	2.0
91.921	5.0
91.936	4.0
91.951	2.0
91.966	3.0
91.981	4.0
91.995	2.0
92.01	0.0
92.025	7.0
92.04	3.0
92.055	3.0
92.07	1.0
92.085	1.0
92.1	1.0
92.115	4.0
92.13	3.0
92.145	4.0
92.16	3.0
92.175	2.0
92.19	3.0
92.205	3.0
92.22	1.0
92.235	0.0
92.25	3.0
92.265	1.0
92.28	4.0
92.295	3.0
92.31	3.0
92.325	3.0
92.34	1.0
92.355	3.0
92.37	1.0
92.385	3.0
92.4	1.0
92.415	2.0
92.43	1.0
92.445	4.0
92.46	3.0
92.475	3.0
92.49	3.0
92.505	6.0
92.52	5.0
92.535	4.0
92.55	5.0
92.565	6.0
92.58	6.0
92.595	2.0
92.61	2.0
92.625	1.0
92.64	1.0
92.655	2.0
92.67	6.0
92.685	0.0
92.7	3.0
92.715	2.0
92.73	6.0
92.745	2.0
92.76	3.0
92.775	6.0
92.79	4.0
92.805	4.0
92.82	3.0
92.835	5.0
92.85	6.0
92.865	6.0
92.88	3.0
92.895	4.0
92.91	3.0
92.925	2.0
92.94	3.0
92.955	2.0
92.97	3.0
92.985	1.0
93.0	5.0
93.015	5.0
93.03	3.0
93.045	4.0
93.06	1.0
93.075	4.0
93.09	3.0
93.105	2.0
93.12	1.0
93.135	2.0
93.15	4.0
93.165	4.0
93.18	4.0
93.195	4.0
93.21	4.0
93.225	2.0
93.24	5.0
93.255	2.0
93.27	2.0
93.285	2.0
93.3	3.0
93.315	6.0
93.33	2.0
93.345	4.0
93.36	4.0
93.375	1.0
93.39	6.0
93.405	4.0
93.42	0.0
93.435	2.0
93.45	6.0
93.465	2.0
93.48	5.0
93.495	7.0
93.51	6.0
93.525	3.0
93.54	5.0
93.555	2.0
93.57	3.0
93.585	3.0
93.6	5.0
93.615	3.0
93.63	2.0
93.645	3.0
93.66	1.0
93.675	2.0
93.69	2.0
93.705	7.0
93.72	3.0
93.735	0.0
93.75	1.0
93.765	3.0
93.78	1.0
93.795	5.0
93.81	3.0
93.824	1.0
93.839	5.0
93.854	5.0
93.869	1.0
93.884	3.0
93.899	4.0
93.914	3.0
93.929	4.0
93.944	3.0
93.959	4.0
93.974	6.0
93.989	6.0
94.004	1.0
94.019	5.0
94.034	1.0
94.049	2.0
94.064	2.0
94.079	2.0
94.094	4.0
94.108	1.0
94.123	5.0
94.138	3.0
94.153	3.0
94.168	3.0
94.183	1.0
94.198	4.0
94.213	5.0
94.228	2.0
94.243	4.0
94.258	6.0
94.273	2.0
94.288	1.0
94.302	4.0
94.317	2.0
94.332	5.0
94.347	2.0
94.362	4.0
94.377	11.0
94.392	3.0
94.407	5.0
94.422	2.0
94.437	4.0
94.452	7.0
94.466	8.0
94.481	6.0
94.496	3.0
94.511	3.0
94.526	1.0
94.541	3.0
94.556	6.0
94.571	1.0
94.586	10.0
94.601	3.0
94.615	4.0
94.63	7.0
94.645	3.0
94.66	4.0
94.675	2.0
94.69	3.0
94.705	5.0
94.72	2.0
94.735	1.0
94.749	3.0
94.764	1.0
94.779	9.0
94.794	3.0
94.809	5.0
94.824	4.0
94.839	3.0
94.854	4.0
94.868	4.0
94.883	4.0
94.898	6.0
94.913	1.0
94.928	1.0
94.943	2.0
94.958	1.0
94.973	1.0
94.987	5.0
95.002	2.0
95.017	4.0
95.032	6.0
95.047	5.0
95.062	5.0
95.077	1.0
95.092	8.0
95.106	7.0
95.121	4.0
95.136	6.0
95.151	6.0
95.166	4.0
95.181	5.0
95.196	8.0
95.211	5.0
95.226	7.0
95.24	2.0
95.255	3.0
95.27	4.0
95.285	7.0
95.3	4.0
95.315	4.0
95.33	4.0
95.345	4.0
95.359	3.0
95.374	2.0
95.389	7.0
95.404	4.0
95.419	4.0
95.434	3.0
95.449	5.0
95.464	5.0
95.478	2.0
95.493	3.0
95.508	3.0
95.523	6.0
95.538	0.0
95.553	6.0
95.568	4.0
95.583	6.0
95.597	4.0
95.612	4.0
95.627	3.0
95.642	4.0
95.657	1.0
95.672	4.0
95.687	3.0
95.702	1.0
95.717	4.0
95.731	3.0
95.746	3.0
95.761	2.0
95.776	2.0
95.791	6.0
95.806	1.0
95.821	3.0
95.836	1.0
95.851	4.0
95.866	7.0
95.88	2.0
95.895	1.0
95.91	2.0
95.925	3.0
95.94	3.0
95.955	3.0
95.97	3.0
95.985	4.0
96.0	3.0
96.015	1.0
96.029	6.0
96.044	6.0
96.059	4.0
96.074	3.0
96.089	2.0
96.104	2.0
96.119	3.0
96.134	1.0
96.149	4.0
96.164	7.0
96.179	4.0
96.194	3.0
96.208	2.0
96.223	1.0
96.238	1.0
96.253	3.0
96.268	2.0
96.283	3.0
96.298	1.0
96.313	3.0
96.328	4.0
96.343	2.0
96.358	4.0
96.373	3.0
96.388	4.0
96.403	2.0
96.417	2.0
96.432	0.0
96.447	4.0
96.462	4.0
96.477	6.0
96.492	0.0
96.507	3.0
96.522	3.0
96.537	6.0
96.552	2.0
96.567	4.0
96.582	1.0
96.597	3.0
96.612	5.0
96.627	1.0
96.642	2.0
96.656	5.0
96.671	2.0
96.686	4.0
96.701	3.0
96.716	3.0
96.731	2.0
96.746	3.0
96.761	6.0
96.776	3.0
96.791	3.0
96.806	1.0
96.821	4.0
96.836	6.0
96.851	2.0
96.866	4.0
96.881	1.0
96.896	7.0
96.911	4.0
96.926	4.0
96.94	6.0
96.955	5.0
96.97	5.0
96.985	1.0
97.0	2.0
97.015	3.0
97.03	4.0
97.045	3.0
97.06	2.0
97.075	5.0
97.09	4.0
97.105	3.0
97.12	2.0
97.135	2.0
97.15	2.0
97.165	4.0
97.18	1.0
97.195	3.0
97.21	5.0
97.225	3.0
97.239	1.0
97.254	2.0
97.269	3.0
97.284	1.0
97.299	5.0
97.314	2.0
97.329	1.0
97.344	4.0
97.359	1.0
97.374	5.0
97.389	3.0
97.404	2.0
97.419	3.0
97.434	1.0
97.449	3.0
97.464	3.0
97.479	3.0
97.494	2.0
97.509	1.0
97.524	0.0
97.538	3.0
97.553	3.0
97.568	0.0
97.583	2.0
97.598	4.0
97.613	3.0
97.628	1.0
97.643	1.0
97.658	2.0
97.673	5.0
97.688	6.0
97.703	4.0
97.718	5.0
97.733	6.0
97.748	1.0
97.763	3.0
97.778	7.0
97.792	3.0
97.807	1.0
97.822	1.0
97.837	4.0
97.852	6.0
97.867	3.0
97.882	6.0
97.897	3.0
97.912	6.0
97.927	5.0
97.942	2.0
97.957	3.0
97.972	0.0
97.987	3.0
98.001	4.0
98.016	3.0
98.031	1.0
98.046	6.0
98.061	3.0
98.076	5.0
98.091	4.0
98.106	2.0
98.121	4.0
98.136	2.0
98.151	1.0
98.166	4.0
98.181	5.0
98.195	5.0
98.21	1.0
98.225	3.0
98.24	0.0
98.255	6.0
98.27	2.0
98.285	5.0
98.3	4.0
98.315	3.0
98.33	4.0
98.345	3.0
98.359	2.0
98.374	2.0
98.389	1.0
98.404	1.0
98.419	3.0
98.434	5.0
98.449	0.0
98.464	2.0
98.479	2.0
98.494	6.0
98.508	7.0
98.523	4.0
98.538	2.0
98.553	0.0
98.568	4.0
98.583	4.0
98.598	2.0
98.613	6.0
98.628	7.0
98.642	6.0
98.657	1.0
98.672	2.0
98.687	2.0
98.702	4.0
98.717	3.0
98.732	1.0
98.747	2.0
98.762	3.0
98.776	4.0
98.791	4.0
98.806	3.0
98.821	6.0
98.836	4.0
98.851	3.0
98.866	3.0
98.881	1.0
98.896	4.0
98.91	2.0
98.925	3.0
98.94	1.0
98.955	5.0
98.97	5.0
98.985	3.0
99.0	2.0
99.015	2.0
99.029	3.0
99.044	1.0
99.059	3.0
99.074	2.0
99.089	2.0
99.104	0.0
99.119	1.0
99.133	6.0
99.148	3.0
99.163	2.0
99.178	2.0
99.193	0.0
99.208	2.0
99.223	1.0
99.238	2.0
99.252	2.0
99.267	5.0
99.282	8.0
99.297	4.0
99.312	3.0
99.327	5.0
99.342	3.0
99.356	1.0
99.371	3.0
99.386	5.0
99.401	1.0
99.416	6.0
99.431	5.0
99.446	2.0
99.461	4.0
99.475	1.0
99.49	5.0
99.505	4.0
99.52	4.0
99.535	4.0
99.55	3.0
99.565	4.0
99.579	1.0
99.594	3.0
99.609	3.0
99.624	4.0
99.639	1.0
99.654	3.0
99.669	4.0
99.683	3.0
99.698	6.0
99.713	2.0
99.728	3.0
99.743	7.0
99.758	1.0
99.772	7.0
99.787	6.0
99.802	4.0
99.817	6.0
99.832	3.0
99.847	4.0
99.862	2.0
99.876	4.0
99.891	2.0
99.906	1.0
99.921	4.0
99.936	0.0
99.951	3.0
99.966	3.0
99.98	4.0
99.995	2.0
100.01	8.0
100.025	4.0
100.04	3.0
100.055	9.0
100.069	6.0
100.084	7.0
100.099	2.0
100.114	4.0
100.129	2.0
100.144	1.0
100.159	6.0
100.173	2.0
100.188	1.0
100.203	2.0
100.218	3.0
100.233	1.0
100.248	2.0
100.262	3.0
100.277	5.0
100.292	2.0
100.307	7.0
100.322	1.0
100.337	2.0
100.351	6.0
100.366	4.0
100.381	6.0
100.396	2.0
100.411	3.0
100.426	4.0
100.441	2.0
100.455	4.0
100.47	1.0
100.485	2.0
100.5	4.0
100.515	1.0
100.53	5.0
100.544	6.0
100.559	2.0
100.574	2.0
100.589	5.0
100.604	9.0
100.619	2.0
100.633	4.0
100.648	3.0
100.663	2.0
100.678	1.0
100.693	5.0
100.708	3.0
100.722	3.0
100.737	3.0
100.752	5.0
100.767	3.0
100.782	1.0
100.796	4.0
100.811	4.0
100.826	4.0
100.841	1.0
100.856	2.0
100.871	3.0
100.885	1.0
100.9	3.0
100.915	2.0
100.93	1.0
100.945	7.0
100.96	4.0
100.974	5.0
100.989	2.0
101.004	3.0
101.019	1.0
101.034	1.0
101.048	3.0
101.063	3.0
101.078	2.0
101.093	2.0
101.108	4.0
101.123	4.0
101.137	0.0
101.152	3.0
101.167	4.0
101.182	3.0
101.197	3.0
101.211	2.0
101.226	4.0
101.241	2.0
101.256	3.0
101.271	2.0
101.285	2.0
101.3	4.0
101.315	11.0
101.33	2.0
101.345	3.0
101.359	1.0
101.374	3.0
101.389	1.0
101.404	2.0
101.419	7.0
101.433	3.0
101.448	3.0
101.463	2.0
101.478	3.0
101.493	3.0
101.507	1.0
101.522	0.0
101.537	2.0
101.552	0.0
101.567	5.0
101.581	4.0
101.596	0.0
101.611	6.0
101.626	6.0
101.64	3.0
101.655	3.0
101.67	2.0
101.685	2.0
101.7	6.0
101.714	5.0
101.729	5.0
101.744	3.0
101.759	4.0
101.773	1.0
101.788	4.0
101.803	4.0
101.818	6.0
101.833	1.0
101.847	2.0
101.862	2.0
101.877	1.0
101.892	2.0
101.906	5.0
101.921	2.0
101.936	4.0
101.951	3.0
101.965	3.0
101.98	3.0
101.995	4.0
102.01	3.0
102.025	2.0
102.039	9.0
102.054	6.0
102.069	2.0
102.084	0.0
102.098	0.0
102.113	3.0
102.128	4.0
102.143	1.0
102.157	1.0
102.172	3.0
102.187	3.0
102.202	5.0
102.216	4.0
102.231	4.0
102.246	3.0
102.261	2.0
102.275	7.0
102.29	2.0
102.305	3.0
102.32	2.0
102.334	4.0
102.349	3.0
102.364	5.0
102.378	1.0
102.393	2.0
102.408	5.0
102.423	2.0
102.437	4.0
102.452	3.0
102.467	4.0
102.482	5.0
102.496	4.0
102.511	7.0
102.526	1.0
102.541	3.0
102.555	5.0
102.57	3.0
102.585	0.0
102.6	3.0
102.614	2.0
102.629	1.0
102.644	2.0
102.659	4.0
102.673	6.0
102.688	2.0
102.703	4.0
102.717	4.0
102.732	4.0
102.747	2.0
102.762	2.0
102.776	6.0
102.791	4.0
102.806	3.0
102.821	2.0
102.835	3.0
102.85	7.0
102.865	6.0
102.88	3.0
102.894	1.0
102.909	1.0
102.924	1.0
102.938	1.0
102.953	0.0
102.968	3.0
102.983	8.0
102.997	1.0
103.012	2.0
103.027	4.0
103.042	4.0
103.056	2.0
103.071	2.0
103.086	4.0
103.101	3.0
103.115	4.0
103.13	3.0
103.145	5.0
103.16	3.0
103.174	6.0
103.189	3.0
103.204	6.0
103.219	1.0
103.233	4.0
103.248	3.0
103.263	5.0
103.278	4.0
103.292	5.0
103.307	3.0
103.322	0.0
103.337	2.0
103.351	4.0
103.366	1.0
103.381	3.0
103.396	2.0
103.41	4.0
103.425	3.0
103.44	1.0
103.455	1.0
103.469	4.0
103.484	2.0
103.499	2.0
103.514	3.0
103.529	9.0
103.543	1.0
103.558	6.0
103.573	2.0
103.588	5.0
103.602	1.0
103.617	3.0
103.632	1.0
103.647	2.0
103.661	5.0
103.676	4.0
103.691	6.0
103.706	0.0
103.721	2.0
103.735	4.0
103.75	5.0
103.765	4.0
103.78	4.0
103.795	2.0
103.809	3.0
103.824	3.0
103.839	7.0
103.854	4.0
103.869	6.0
103.883	7.0
103.898	3.0
103.913	1.0
103.928	4.0
103.943	5.0
103.957	3.0
103.972	2.0
103.987	5.0
104.002	3.0
104.017	7.0
104.031	4.0
104.046	2.0
104.061	3.0
104.076	7.0
104.091	4.0
104.106	1.0
104.12	4.0
104.135	4.0
104.15	5.0
104.165	4.0
104.18	2.0
104.195	1.0
104.209	3.0
104.224	1.0
104.239	4.0
104.254	4.0
104.269	5.0
104.284	2.0
104.299	4.0
104.313	6.0
104.328	1.0
104.343	3.0
104.358	5.0
104.373	1.0
104.388	4.0
104.403	1.0
104.417	4.0
104.432	3.0
104.447	2.0
104.462	4.0
104.477	2.0
104.492	5.0
104.507	4.0
104.522	3.0
104.536	5.0
104.551	4.0
104.566	3.0
104.581	4.0
104.596	4.0
104.611	5.0
104.626	2.0
104.641	6.0
104.656	5.0
104.67	3.0
104.685	3.0
104.7	6.0
104.715	6.0
104.73	7.0
104.745	6.0
104.76	1.0
104.775	2.0
104.79	3.0
104.804	4.0
104.819	3.0
104.834	5.0
104.849	2.0
104.864	4.0
104.879	6.0
104.894	3.0
104.909	1.0
104.924	1.0
104.939	2.0
104.954	2.0
104.968	3.0
104.983	4.0
104.998	1.0
105.013	1.0
105.028	2.0
105.043	2.0
105.058	0.0
105.073	2.0
105.088	5.0
105.103	1.0
105.118	2.0
105.133	1.0
105.147	4.0
105.162	0.0
105.177	1.0
105.192	2.0
105.207	4.0
105.222	4.0
105.237	3.0
105.252	5.0
105.267	3.0
105.282	5.0
105.297	2.0
105.312	1.0
105.327	2.0
105.342	0.0
105.356	7.0
105.371	5.0
105.386	4.0
105.401	5.0
105.416	4.0
105.431	2.0
105.446	5.0
105.461	2.0
105.476	1.0
105.491	1.0
105.506	4.0
105.521	5.0
105.536	5.0
105.551	2.0
105.566	0.0
105.581	4.0
105.595	1.0
105.61	2.0
105.625	2.0
105.64	4.0
105.655	1.0
105.67	4.0
105.685	2.0
105.7	5.0
105.715	5.0
105.73	6.0
105.745	1.0
105.76	2.0
105.775	5.0
105.79	1.0
105.805	3.0
105.82	0.0
105.835	1.0
105.85	7.0
105.864	5.0
105.879	3.0
105.894	3.0
105.909	2.0
105.924	4.0
105.939	3.0
105.954	4.0
105.969	2.0
105.984	3.0
105.999	2.0
106.014	3.0
106.029	5.0
106.044	1.0
106.059	3.0
106.074	5.0
106.089	2.0
106.104	3.0
106.119	2.0
106.134	1.0
106.148	6.0
106.163	4.0
106.178	1.0
106.193	4.0
106.208	4.0
106.223	4.0
106.238	5.0
106.253	2.0
106.268	3.0
106.283	6.0
106.298	2.0
106.313	2.0
106.328	3.0
106.343	1.0
106.358	8.0
106.373	3.0
106.388	2.0
106.403	3.0
106.418	7.0
106.432	2.0
106.447	2.0
106.462	5.0
106.477	0.0
106.492	3.0
106.507	2.0
106.522	4.0
106.537	6.0
106.552	2.0
106.567	4.0
106.582	2.0
106.597	1.0
106.612	3.0
106.627	3.0
106.642	4.0
106.657	1.0
106.672	2.0
106.687	2.0
106.701	1.0
106.716	2.0
106.731	0.0
106.746	1.0
106.761	6.0
106.776	1.0
106.791	6.0
106.806	2.0
106.821	7.0
106.836	2.0
106.851	2.0
106.866	5.0
106.881	0.0
106.896	2.0
106.911	4.0
106.926	4.0
106.941	6.0
106.955	2.0
106.97	2.0
106.985	7.0
107.0	2.0
107.015	5.0
107.03	3.0
107.045	3.0
107.06	6.0
107.075	3.0
107.09	1.0
107.105	2.0
107.12	3.0
107.135	6.0
107.15	5.0
107.165	9.0
107.18	6.0
107.194	5.0
107.209	2.0
107.224	9.0
107.239	4.0
107.254	2.0
107.269	4.0
107.284	4.0
107.299	5.0
107.314	1.0
107.329	2.0
107.344	4.0
107.359	3.0
107.374	5.0
107.389	2.0
107.404	3.0
107.418	4.0
107.433	3.0
107.448	4.0
107.463	3.0
107.478	5.0
107.493	5.0
107.508	4.0
107.523	3.0
107.538	2.0
107.553	1.0
107.568	3.0
107.583	7.0
107.598	3.0
107.613	3.0
107.627	3.0
107.642	3.0
107.657	3.0
107.672	3.0
107.687	2.0
107.702	4.0
107.717	4.0
107.732	1.0
107.747	1.0
107.762	1.0
107.777	5.0
107.792	2.0
107.807	3.0
107.821	5.0
107.836	1.0
107.851	1.0
107.866	2.0
107.881	5.0
107.896	3.0
107.911	0.0
107.926	6.0
107.941	5.0
107.956	3.0
107.971	5.0
107.986	3.0
108.0	0.0
108.015	2.0
108.03	3.0
108.045	8.0
108.06	4.0
108.075	9.0
108.09	8.0
108.105	4.0
108.12	4.0
108.135	2.0
108.15	2.0
108.164	4.0
108.179	0.0
108.194	3.0
108.209	3.0
108.224	1.0
108.239	5.0
108.254	3.0
108.269	10.0
108.284	8.0
108.299	0.0
108.313	4.0
108.328	4.0
108.343	2.0
108.358	3.0
108.373	1.0
108.388	3.0
108.403	2.0
108.418	5.0
108.433	4.0
108.448	2.0
108.462	3.0
108.477	1.0
108.492	4.0
108.507	5.0
108.522	4.0
108.537	1.0
108.552	5.0
108.567	3.0
108.582	3.0
108.597	3.0
108.611	2.0
108.626	1.0
108.641	3.0
108.656	1.0
108.671	1.0
108.686	3.0
108.701	3.0
108.716	3.0
108.731	4.0
108.745	5.0
108.76	1.0
108.775	3.0
108.79	2.0
108.805	0.0
108.82	1.0
108.835	2.0
108.85	1.0
108.865	1.0
108.879	6.0
108.894	3.0
108.909	3.0
108.924	2.0
108.939	5.0
108.954	4.0
108.969	2.0
108.984	5.0
108.999	2.0
109.013	3.0
109.028	4.0
109.043	6.0
109.058	3.0
109.073	5.0
109.088	4.0
109.103	4.0
109.118	4.0
109.133	2.0
109.147	3.0
109.162	3.0
109.177	2.0
109.192	1.0
109.207	4.0
109.222	4.0
109.237	3.0
109.252	1.0
109.267	2.0
109.281	3.0
109.296	3.0
109.311	4.0
109.326	1.0
109.341	4.0
109.356	4.0
109.371	1.0
109.386	3.0
109.4	5.0
109.415	1.0
109.43	2.0
109.445	1.0
109.46	1.0
109.475	3.0
109.49	2.0
109.505	4.0
109.52	7.0
109.534	2.0
109.549	2.0
109.564	10.0
109.579	2.0
109.594	3.0
109.609	2.0
109.624	5.0
109.639	2.0
109.653	3.0
109.668	2.0
109.683	2.0
109.698	2.0
109.713	3.0
109.728	5.0
109.743	2.0
109.758	1.0
109.773	3.0
109.787	2.0
109.802	2.0
109.817	4.0
109.832	3.0
109.847	5.0
109.862	2.0
109.877	4.0
109.892	4.0
109.907	7.0
109.921	2.0
109.936	2.0
109.951	1.0
109.966	2.0
109.981	1.0
109.996	3.0
110.011	2.0
110.026	4.0
110.04	1.0
110.055	5.0
110.07	6.0
110.085	2.0
110.1	4.0
110.115	4.0
110.13	3.0
110.145	0.0
110.16	2.0
110.174	1.0
110.189	3.0
110.204	4.0
110.219	2.0
110.234	6.0
110.249	2.0
110.264	6.0
110.279	2.0
110.294	3.0
110.308	4.0
110.323	5.0
110.338	4.0
110.353	2.0
110.368	3.0
110.383	1.0
110.398	1.0
110.413	2.0
110.428	4.0
110.442	4.0
110.457	3.0
110.472	1.0
110.487	3.0
110.502	7.0
110.517	4.0
110.532	1.0
110.547	3.0
110.561	6.0
110.576	4.0
110.591	1.0
110.606	8.0
110.621	1.0
110.636	2.0
110.651	6.0
110.666	4.0
110.681	3.0
110.695	2.0
110.71	4.0
110.725	5.0
110.74	2.0
110.755	2.0
110.77	5.0
110.785	3.0
110.8	6.0
110.815	2.0
110.829	3.0
110.844	5.0
110.859	4.0
110.874	4.0
110.889	2.0
110.904	1.0
110.919	2.0
110.934	7.0
110.948	3.0
110.963	2.0
110.978	5.0
110.993	4.0
111.008	4.0
111.023	4.0
111.038	2.0
111.053	3.0
111.067	6.0
111.082	2.0
111.097	3.0
111.112	1.0
111.127	2.0
111.142	3.0
111.157	3.0
111.172	2.0
111.186	5.0
111.201	3.0
111.216	2.0
111.231	5.0
111.246	4.0
111.261	2.0
111.276	2.0
111.291	4.0
111.305	1.0
111.32	1.0
111.335	5.0
111.35	3.0
111.365	0.0
111.38	5.0
111.395	1.0
111.41	4.0
111.424	0.0
111.439	3.0
111.454	1.0
111.469	5.0
111.484	6.0
111.499	2.0
111.514	3.0
111.528	3.0
111.543	5.0
111.558	2.0
111.573	0.0
111.588	8.0
111.603	6.0
111.618	4.0
111.633	3.0
111.647	4.0
111.662	2.0
111.677	5.0
111.692	3.0
111.707	5.0
111.722	6.0
111.737	3.0
111.751	5.0
111.766	3.0
111.781	6.0
111.796	2.0
111.811	4.0
111.826	3.0
111.84	4.0
111.855	2.0
111.87	4.0
111.885	2.0
111.9	4.0
111.915	5.0
111.93	1.0
111.944	4.0
111.959	1.0
111.974	3.0
111.989	1.0
112.004	3.0
112.019	1.0
112.033	2.0
112.048	7.0
112.063	2.0
112.078	4.0
112.093	2.0
112.108	5.0
112.123	2.0
112.137	2.0
112.152	4.0
112.167	3.0
112.182	2.0
112.197	6.0
112.212	3.0
112.226	4.0
112.241	6.0
112.256	2.0
112.271	9.0
112.286	1.0
112.301	1.0
112.315	5.0
112.33	6.0
112.345	1.0
112.36	3.0
112.375	1.0
112.389	3.0
112.404	2.0
112.419	6.0
112.434	4.0
112.449	4.0
112.464	2.0
112.478	2.0
112.493	1.0
112.508	5.0
112.523	2.0
112.538	3.0
112.553	1.0
112.567	3.0
112.582	5.0
112.597	1.0
112.612	7.0
112.627	3.0
112.642	3.0
112.656	1.0
112.671	4.0
112.686	8.0
112.701	6.0
112.716	3.0
112.73	2.0
112.745	4.0
112.76	4.0
112.775	4.0
112.79	7.0
112.805	4.0
112.819	1.0
112.834	3.0
112.849	1.0
112.864	3.0
112.879	9.0
112.894	5.0
112.908	6.0
112.923	5.0
112.938	2.0
112.953	2.0
112.968	5.0
112.983	1.0
112.997	4.0
113.012	5.0
113.027	4.0
113.042	3.0
113.057	7.0
113.072	4.0
113.086	3.0
113.101	2.0
113.116	4.0
113.131	2.0
113.146	2.0
113.161	2.0
113.175	1.0
113.19	2.0
113.205	5.0
113.22	2.0
113.235	4.0
113.25	4.0
113.265	6.0
113.279	2.0
113.294	5.0
113.309	2.0
113.324	1.0
113.339	3.0
113.354	2.0
113.368	4.0
113.383	4.0
113.398	3.0
113.413	2.0
113.428	3.0
113.443	4.0
113.458	3.0
113.472	2.0
113.487	2.0
113.502	4.0
113.517	6.0
113.532	3.0
113.547	2.0
113.562	6.0
113.576	4.0
113.591	3.0
113.606	1.0
113.621	4.0
113.636	3.0
113.651	6.0
113.666	3.0
113.681	5.0
113.695	2.0
113.71	3.0
113.725	3.0
113.74	2.0
113.755	6.0
113.77	2.0
113.785	4.0
113.8	2.0
113.814	1.0
113.829	5.0
113.844	3.0
113.859	2.0
113.874	1.0
113.889	2.0
113.904	1.0
113.919	2.0
113.934	2.0
113.949	6.0
113.963	5.0
113.978	3.0
113.993	2.0
114.008	3.0
114.023	2.0
114.038	3.0
114.053	1.0
114.068	0.0
114.083	10.0
114.098	5.0
114.113	4.0
114.127	3.0
114.142	2.0
114.157	2.0
114.172	3.0
114.187	3.0
114.202	2.0
114.217	3.0
114.232	3.0
114.247	4.0
114.262	3.0
114.277	3.0
114.292	2.0
114.307	4.0
114.322	2.0
114.337	4.0
114.351	0.0
114.366	5.0
114.381	2.0
114.396	3.0
114.411	6.0
114.426	3.0
114.441	2.0
114.456	3.0
114.471	3.0
114.486	5.0
114.501	2.0
114.516	4.0
114.531	4.0
114.546	5.0
114.561	4.0
114.576	4.0
114.591	4.0
114.606	4.0
114.621	4.0
114.636	1.0
114.65	3.0
114.665	2.0
114.68	3.0
114.695	4.0
114.71	3.0
114.725	3.0
114.74	7.0
114.755	2.0
114.77	8.0
114.785	3.0
114.8	4.0
114.815	3.0
114.83	3.0
114.845	1.0
114.86	8.0
114.875	4.0
114.89	4.0
114.905	3.0
114.92	4.0
114.935	2.0
114.95	7.0
114.965	4.0
114.98	0.0
114.995	4.0
115.009	3.0
115.024	1.0
115.039	1.0
115.054	1.0
115.069	7.0
115.084	1.0
115.099	6.0
115.114	5.0
115.129	3.0
115.144	7.0
115.159	3.0
115.174	4.0
115.189	3.0
115.204	5.0
115.219	8.0
115.234	3.0
115.249	5.0
115.264	6.0
115.279	2.0
115.294	6.0
115.309	7.0
115.323	3.0
115.338	3.0
115.353	8.0
115.368	4.0
115.383	4.0
115.398	3.0
115.413	3.0
115.428	4.0
115.443	3.0
115.458	2.0
115.473	5.0
115.488	1.0
115.503	5.0
115.518	9.0
115.533	4.0
115.548	2.0
115.562	3.0
115.577	6.0
115.592	4.0
115.607	3.0
115.622	5.0
115.637	5.0
115.652	2.0
115.667	3.0
115.682	3.0
115.697	2.0
115.712	5.0
115.727	2.0
115.741	2.0
115.756	6.0
115.771	4.0
115.786	2.0
115.801	3.0
115.816	4.0
115.831	2.0
115.846	3.0
115.861	5.0
115.875	3.0
115.89	6.0
115.905	3.0
115.92	3.0
115.935	2.0
115.95	4.0
115.965	1.0
115.98	3.0
115.995	2.0
116.009	4.0
116.024	6.0
116.039	0.0
116.054	5.0
116.069	2.0
116.084	6.0
116.099	1.0
116.113	7.0
116.128	5.0
116.143	5.0
116.158	2.0
116.173	1.0
116.188	6.0
116.202	2.0
116.217	6.0
116.232	4.0
116.247	3.0
116.262	5.0
116.277	4.0
116.291	6.0
116.306	3.0
116.321	4.0
116.336	2.0
116.351	1.0
116.366	5.0
116.38	4.0
116.395	6.0
116.41	4.0
116.425	4.0
116.44	3.0
116.454	4.0
116.469	3.0
116.484	5.0
116.499	2.0
116.514	5.0
116.528	3.0
116.543	3.0
116.558	1.0
116.573	0.0
116.588	2.0
116.602	5.0
116.617	0.0
116.632	2.0
116.647	6.0
116.662	2.0
116.676	2.0
116.691	2.0
116.706	3.0
116.721	2.0
116.735	3.0
116.75	3.0
116.765	1.0
116.78	4.0
116.795	4.0
116.809	5.0
116.824	5.0
116.839	3.0
116.854	2.0
116.868	1.0
116.883	4.0
116.898	4.0
116.913	4.0
116.927	2.0
116.942	2.0
116.957	2.0
116.972	7.0
116.986	4.0
117.001	6.0
117.016	4.0
117.031	1.0
117.045	4.0
117.06	2.0
117.075	4.0
117.09	5.0
117.104	1.0
117.119	6.0
117.134	6.0
117.149	2.0
117.163	3.0
117.178	6.0
117.193	1.0
117.208	3.0
117.222	5.0
117.237	6.0
117.252	5.0
117.267	1.0
117.281	3.0
117.296	4.0
117.311	5.0
117.325	2.0
117.34	5.0
117.355	2.0
117.37	6.0
117.384	4.0
117.399	6.0
117.414	4.0
117.429	5.0
117.443	6.0
117.458	3.0
117.473	2.0
117.487	4.0
117.502	3.0
117.517	3.0
117.532	5.0
117.546	4.0
117.561	3.0
117.576	2.0
117.59	3.0
117.605	1.0
117.62	6.0
117.635	2.0
117.649	2.0
117.664	7.0
117.679	4.0
117.693	3.0
117.708	4.0
117.723	2.0
117.738	3.0
117.752	3.0
117.767	1.0
117.782	6.0
117.796	4.0
117.811	5.0
117.826	5.0
117.841	1.0
117.855	2.0
117.87	4.0
117.885	1.0
117.899	6.0
117.914	2.0
117.929	5.0
117.944	4.0
117.958	2.0
117.973	4.0
117.988	7.0
118.002	2.0
118.017	3.0
118.032	6.0
118.047	4.0
118.062	7.0
118.077	9.0
118.092	1.0
118.107	3.0
118.121	6.0
118.136	2.0
118.151	5.0
118.166	6.0
118.181	4.0
118.196	5.0
118.211	4.0
118.225	5.0
118.24	4.0
118.255	4.0
118.27	4.0
118.285	2.0
118.3	3.0
118.315	7.0
118.33	3.0
118.344	5.0
118.359	3.0
118.374	1.0
118.389	2.0
118.404	6.0
118.419	8.0
118.434	1.0
118.449	5.0
118.463	0.0
118.478	4.0
118.493	4.0
118.508	3.0
118.523	2.0
118.538	4.0
118.553	4.0
118.567	2.0
118.582	3.0
118.597	4.0
118.612	5.0
118.627	1.0
118.642	4.0
118.657	7.0
118.672	3.0
118.686	4.0
118.701	3.0
118.716	2.0
118.731	2.0
118.746	1.0
118.761	3.0
118.776	2.0
118.791	6.0
118.805	3.0
118.82	4.0
118.835	4.0
118.85	3.0
118.865	0.0
118.88	3.0
118.895	5.0
118.909	3.0
118.924	4.0
118.939	2.0
118.954	3.0
118.969	4.0
118.984	5.0
118.999	3.0
119.014	5.0
119.028	2.0
119.043	2.0
119.058	5.0
119.073	3.0
119.088	3.0
119.103	4.0
119.118	1.0
119.133	2.0
119.147	1.0
119.162	3.0
119.177	4.0
119.192	3.0
119.207	3.0
119.222	8.0
119.237	6.0
119.251	5.0
119.266	4.0
119.281	4.0
119.296	8.0
119.311	6.0
119.326	0.0
119.341	5.0
119.356	3.0
119.37	3.0
119.385	4.0
119.4	5.0
119.415	5.0
119.43	2.0
119.445	6.0
119.46	7.0
119.475	0.0
119.489	2.0
119.504	3.0
119.519	3.0
119.534	2.0
119.549	1.0
119.564	4.0
119.579	4.0
119.593	3.0
119.608	2.0
119.623	5.0
119.638	3.0
119.653	0.0
119.668	2.0
119.683	3.0
119.698	3.0
119.712	4.0
119.727	3.0
119.742	2.0
119.757	2.0
119.772	5.0
119.787	3.0
119.802	2.0
119.817	5.0
119.831	4.0
119.846	2.0
119.861	2.0
119.876	5.0
119.891	2.0
119.906	2.0
119.921	4.0
119.935	3.0
119.95	4.0
119.965	3.0
119.98	3.0
119.995	4.0
120.01	1.0
120.025	3.0
120.04	2.0
120.054	1.0
120.069	2.0
120.084	2.0
120.099	4.0
120.114	0.0
120.129	1.0
120.144	2.0
120.159	1.0
120.173	5.0
120.188	0.0
120.203	1.0
120.218	1.0
120.233	1.0
120.248	0.0
120.263	4.0
120.277	1.0
120.292	0.0
120.307	0.0
120.322	0.0
120.337	0.0
120.352	0.0
120.367	1.0
120.382	0.0
120.396	2.0
120.411	0.0
120.426	0.0
120.441	0.0
120.456	0.0
120.471	0.0
120.486	0.0
120.501	1.0
120.515	0.0
120.53	0.0
120.545	0.0
120.56	0.0
120.575	0.0
120.59	0.0
120.605	0.0
120.619	0.0
120.634	0.0
120.649	0.0
120.664	0.0
120.679	0.0
120.694	0.0
120.709	1.0
120.724	0.0
120.738	0.0
120.753	1.0
120.768	0.0
120.783	1.0
120.798	0.0
120.813	0.0
120.828	0.0
120.843	0.0
120.857	1.0
120.872	0.0
120.887	0.0
120.902	0.0
120.917	0.0
120.932	0.0
120.947	0.0
120.961	0.0
120.976	0.0
