-1.217	1.0
-1.202	1.0
-1.187	0.0
-1.172	0.0
-1.157	0.0
-1.142	0.0
-1.128	0.0
-1.113	0.0
-1.098	0.0
-1.083	0.0
-1.068	0.0
-1.054	0.0
-1.039	0.0
-1.024	0.0
-1.009	0.0
-0.994	0.0
-0.979	0.0
-0.965	0.0
-0.95	0.0
-0.935	0.0
-0.92	0.0
-0.905	0.0
-0.891	0.0
-0.876	0.0
-0.861	0.0
-0.846	0.0
-0.831	0.0
-0.816	0.0
-0.802	0.0
-0.787	0.0
-0.772	0.0
-0.757	0.0
-0.742	0.0
-0.728	0.0
-0.713	0.0
-0.698	0.0
-0.683	0.0
-0.668	0.0
-0.653	0.0
-0.639	0.0
-0.624	0.0
-0.609	1.0
-0.594	0.0
-0.579	0.0
-0.565	0.0
-0.55	0.0
-0.535	0.0
-0.52	0.0
-0.505	1.0
-0.49	0.0
-0.476	0.0
-0.461	0.0
-0.446	0.0
-0.431	0.0
-0.416	0.0
-0.401	0.0
-0.387	0.0
-0.372	0.0
-0.357	0.0
-0.342	0.0
-0.327	0.0
-0.313	0.0
-0.298	0.0
-0.283	0.0
-0.268	0.0
-0.253	0.0
-0.238	0.0
-0.224	0.0
-0.209	0.0
-0.194	0.0
-0.179	0.0
-0.164	0.0
-0.15	0.0
-0.135	0.0
-0.12	0.0
-0.105	0.0
-0.09	0.0
-0.075	0.0
-0.061	0.0
-0.046	0.0
-0.031	0.0
-0.016	0.0
-0.001	0.0
0.013	0.0
0.028	0.0
0.043	0.0
0.058	0.0
0.073	0.0
0.088	0.0
0.102	0.0
0.117	0.0
0.132	0.0
0.147	0.0
0.162	0.0
0.176	0.0
0.191	0.0
0.206	0.0
0.221	0.0
0.236	0.0
0.251	0.0
0.265	0.0
0.28	0.0
0.295	0.0
0.31	0.0
0.325	0.0
0.339	0.0
0.354	0.0
0.369	0.0
0.384	0.0
0.399	0.0
0.414	0.0
0.428	0.0
0.443	0.0
0.458	0.0
0.473	0.0
0.488	0.0
0.502	0.0
0.517	0.0
0.532	0.0
0.547	0.0
0.562	0.0
0.577	0.0
0.591	0.0
0.606	0.0
0.621	0.0
0.636	0.0
0.651	0.0
0.665	0.0
0.68	1.0
0.695	0.0
0.71	0.0
0.725	0.0
0.74	0.0
0.754	0.0
0.769	0.0
0.784	0.0
0.799	0.0
0.814	0.0
0.828	1.0
0.843	0.0
0.858	0.0
0.873	0.0
0.888	0.0
0.903	1.0
0.917	0.0
0.932	0.0
0.947	0.0
0.962	0.0
0.977	0.0
0.991	0.0
1.006	0.0
1.021	0.0
1.036	0.0
1.051	0.0
1.065	1.0
1.08	0.0
1.095	0.0
1.11	0.0
1.125	0.0
1.14	0.0
1.154	0.0
1.169	0.0
1.184	0.0
1.199	0.0
1.214	1.0
1.228	1.0
1.243	0.0
1.258	0.0
1.273	0.0
1.288	0.0
1.302	0.0
1.317	0.0
1.332	0.0
1.347	0.0
1.362	0.0
1.376	0.0
1.391	1.0
1.406	0.0
1.421	0.0
1.436	0.0
1.45	0.0
1.465	0.0
1.48	0.0
1.495	0.0
1.51	0.0
1.524	0.0
1.539	0.0
1.554	0.0
1.569	0.0
1.584	0.0
1.598	0.0
1.613	0.0
1.628	0.0
1.643	0.0
1.658	0.0
1.672	0.0
1.687	0.0
1.702	0.0
1.717	0.0
1.732	0.0
1.746	0.0
1.761	0.0
1.776	0.0
1.791	0.0
1.806	0.0
1.82	0.0
1.835	0.0
1.85	0.0
1.865	0.0
1.88	0.0
1.894	1.0
1.909	0.0
1.924	1.0
1.939	0.0
1.954	0.0
1.968	0.0
1.983	0.0
1.998	1.0
2.013	0.0
2.028	0.0
2.042	1.0
2.057	0.0
2.072	0.0
2.087	0.0
2.101	0.0
2.116	0.0
2.131	0.0
2.146	0.0
2.161	0.0
2.175	1.0
2.19	1.0
2.205	0.0
2.22	0.0
2.235	0.0
2.249	1.0
2.264	1.0
2.279	0.0
2.294	0.0
2.308	0.0
2.323	0.0
2.338	2.0
2.353	1.0
2.368	0.0
2.382	0.0
2.397	1.0
2.412	0.0
2.427	2.0
2.442	1.0
2.456	0.0
2.471	1.0
2.486	0.0
2.501	0.0
2.515	4.0
2.53	2.0
2.545	2.0
2.56	1.0
2.575	0.0
2.589	0.0
2.604	3.0
2.619	3.0
2.634	2.0
2.649	4.0
2.663	2.0
2.678	1.0
2.693	1.0
2.708	2.0
2.722	5.0
2.737	1.0
2.752	3.0
2.767	1.0
2.782	1.0
2.796	4.0
2.811	5.0
2.826	0.0
2.841	3.0
2.856	2.0
2.87	1.0
2.885	4.0
2.9	2.0
2.915	4.0
2.93	4.0
2.944	2.0
2.959	2.0
2.974	4.0
2.989	3.0
3.004	2.0
3.018	6.0
3.033	4.0
3.048	4.0
3.063	4.0
3.078	4.0
3.092	2.0
3.107	6.0
3.122	7.0
3.137	8.0
3.152	5.0
3.166	5.0
3.181	8.0
3.196	2.0
3.211	3.0
3.226	4.0
3.24	3.0
3.255	4.0
3.27	1.0
3.285	6.0
3.3	5.0
3.315	7.0
3.329	7.0
3.344	7.0
3.359	1.0
3.374	5.0
3.389	4.0
3.403	4.0
3.418	6.0
3.433	3.0
3.448	4.0
3.463	1.0
3.478	1.0
3.492	4.0
3.507	15.0
3.522	3.0
3.537	7.0
3.552	5.0
3.567	4.0
3.581	5.0
3.596	6.0
3.611	5.0
3.626	4.0
3.641	12.0
3.656	3.0
3.671	2.0
3.685	4.0
3.7	4.0
3.715	8.0
3.73	6.0
3.745	10.0
3.76	5.0
3.775	6.0
3.789	6.0
3.804	7.0
3.819	5.0
3.834	7.0
3.849	8.0
3.864	6.0
3.879	9.0
3.894	8.0
3.908	3.0
3.923	9.0
3.938	5.0
3.953	9.0
3.968	6.0
3.983	6.0
3.998	8.0
4.013	4.0
4.027	1.0
4.042	5.0
4.057	4.0
4.072	8.0
4.087	5.0
4.102	3.0
4.117	5.0
4.132	3.0
4.147	7.0
4.162	7.0
4.176	7.0
4.191	8.0
4.206	5.0
4.221	10.0
4.236	2.0
4.251	5.0
4.266	8.0
4.281	9.0
4.296	7.0
4.311	3.0
4.326	15.0
4.341	8.0
4.356	8.0
4.37	6.0
4.385	4.0
4.4	5.0
4.415	5.0
4.43	6.0
4.445	6.0
4.46	3.0
4.475	9.0
4.49	7.0
4.505	9.0
4.52	5.0
4.535	11.0
4.55	8.0
4.565	3.0
4.58	6.0
4.595	6.0
4.61	4.0
4.625	6.0
4.639	6.0
4.654	15.0
4.669	12.0
4.684	13.0
4.699	10.0
4.714	6.0
4.729	7.0
4.744	9.0
4.759	8.0
4.774	10.0
4.789	7.0
4.804	11.0
4.819	10.0
4.834	11.0
4.849	8.0
4.864	5.0
4.879	10.0
4.894	8.0
4.909	6.0
4.924	6.0
4.939	13.0
4.954	2.0
4.969	8.0
4.984	4.0
4.999	8.0
5.014	9.0
5.029	6.0
5.044	7.0
5.059	11.0
5.074	8.0
5.089	8.0
5.104	5.0
5.119	15.0
5.134	6.0
5.149	9.0
5.164	7.0
5.179	11.0
5.194	11.0
5.209	10.0
5.224	10.0
5.239	13.0
5.254	11.0
5.269	5.0
5.284	10.0
5.299	5.0
5.314	13.0
5.329	8.0
5.344	6.0
5.359	9.0
5.374	7.0
5.389	9.0
5.404	9.0
5.419	9.0
5.434	5.0
5.449	12.0
5.464	13.0
5.479	12.0
5.494	5.0
5.509	8.0
5.524	6.0
5.539	8.0
5.554	9.0
5.569	7.0
5.584	7.0
5.599	9.0
5.614	7.0
5.629	7.0
5.644	5.0
5.659	7.0
5.674	8.0
5.689	11.0
5.704	7.0
5.719	6.0
5.734	13.0
5.749	13.0
5.764	7.0
5.779	4.0
5.794	5.0
5.809	8.0
5.824	12.0
5.839	5.0
5.854	7.0
5.869	3.0
5.884	12.0
5.899	10.0
5.914	10.0
5.929	9.0
5.944	11.0
5.959	11.0
5.974	8.0
5.989	10.0
6.004	13.0
6.019	13.0
6.034	11.0
6.049	6.0
6.064	5.0
6.079	13.0
6.094	14.0
6.109	4.0
6.124	9.0
6.139	3.0
6.154	3.0
6.169	10.0
6.184	8.0
6.199	3.0
6.214	7.0
6.229	10.0
6.244	14.0
6.259	8.0
6.274	10.0
6.289	8.0
6.304	11.0
6.319	8.0
6.334	15.0
6.349	8.0
6.364	10.0
6.379	8.0
6.394	8.0
6.409	9.0
6.424	11.0
6.439	12.0
6.454	8.0
6.469	12.0
6.484	10.0
6.499	9.0
6.514	11.0
6.529	14.0
6.544	5.0
6.559	8.0
6.574	7.0
6.589	9.0
6.604	8.0
6.619	14.0
6.634	9.0
6.649	10.0
6.664	8.0
6.679	11.0
6.694	9.0
6.709	8.0
6.724	11.0
6.739	10.0
6.754	8.0
6.769	15.0
6.784	7.0
6.799	9.0
6.814	8.0
6.829	7.0
6.844	9.0
6.859	7.0
6.873	4.0
6.888	13.0
6.903	10.0
6.918	7.0
6.933	10.0
6.948	12.0
6.963	9.0
6.978	5.0
6.993	8.0
7.008	5.0
7.023	9.0
7.038	12.0
7.053	7.0
7.068	13.0
7.083	11.0
7.098	10.0
7.113	7.0
7.128	9.0
7.143	16.0
7.157	7.0
7.172	12.0
7.187	7.0
7.202	4.0
7.217	1.0
7.232	9.0
7.247	6.0
7.262	7.0
7.277	12.0
7.292	9.0
7.307	11.0
7.322	8.0
7.336	8.0
7.351	10.0
7.366	12.0
7.381	14.0
7.396	8.0
7.411	9.0
7.426	6.0
7.441	5.0
7.456	7.0
7.471	9.0
7.485	7.0
7.5	13.0
7.515	11.0
7.53	7.0
7.545	10.0
7.56	6.0
7.575	14.0
7.59	9.0
7.604	9.0
7.619	5.0
7.634	5.0
7.649	6.0
7.664	11.0
7.679	5.0
7.693	7.0
7.708	7.0
7.723	8.0
7.738	12.0
7.753	11.0
7.768	10.0
7.783	14.0
7.797	3.0
7.812	8.0
7.827	7.0
7.842	8.0
7.857	5.0
7.871	12.0
7.886	5.0
7.901	10.0
7.916	6.0
7.931	8.0
7.945	8.0
7.96	14.0
7.975	4.0
7.99	7.0
8.005	7.0
8.019	8.0
8.034	5.0
8.049	8.0
8.064	6.0
8.078	11.0
8.093	9.0
8.108	9.0
8.123	12.0
8.137	7.0
8.152	7.0
8.167	5.0
8.182	10.0
8.196	14.0
8.211	13.0
8.226	18.0
8.241	11.0
8.255	12.0
8.27	7.0
8.285	9.0
8.3	4.0
8.314	7.0
8.329	10.0
8.344	14.0
8.358	9.0
8.373	8.0
8.388	3.0
8.403	8.0
8.417	6.0
8.432	15.0
8.447	5.0
8.461	11.0
8.476	8.0
8.491	11.0
8.505	8.0
8.52	14.0
8.535	7.0
8.55	8.0
8.564	8.0
8.579	11.0
8.594	13.0
8.608	11.0
8.623	11.0
8.638	6.0
8.652	9.0
8.667	10.0
8.682	11.0
8.696	7.0
8.711	12.0
8.726	8.0
8.74	9.0
8.755	9.0
8.77	11.0
8.784	10.0
8.799	12.0
8.814	10.0
8.828	10.0
8.843	9.0
8.858	10.0
8.872	12.0
8.887	3.0
8.902	5.0
8.916	5.0
8.931	2.0
8.946	15.0
8.96	10.0
8.975	13.0
8.99	9.0
9.004	10.0
9.019	9.0
9.034	11.0
9.048	15.0
9.063	7.0
9.077	9.0
9.092	9.0
9.107	4.0
9.121	2.0
9.136	5.0
9.151	10.0
9.165	8.0
9.18	10.0
9.195	3.0
9.209	4.0
9.224	14.0
9.239	4.0
9.253	14.0
9.268	14.0
9.283	13.0
9.297	8.0
9.312	6.0
9.327	14.0
9.341	5.0
9.356	9.0
9.371	11.0
9.385	4.0
9.4	9.0
9.415	7.0
9.429	4.0
9.444	9.0
9.458	7.0
9.473	7.0
9.488	8.0
9.502	9.0
9.517	6.0
9.532	12.0
9.546	8.0
9.561	8.0
9.576	12.0
9.59	6.0
9.605	13.0
9.62	9.0
9.635	15.0
9.649	4.0
9.664	10.0
9.679	4.0
9.693	8.0
9.708	5.0
9.723	8.0
9.737	7.0
9.752	7.0
9.767	7.0
9.781	6.0
9.796	4.0
9.811	9.0
9.825	5.0
9.84	12.0
9.855	7.0
9.87	6.0
9.884	9.0
9.899	9.0
9.914	7.0
9.928	10.0
9.943	9.0
9.958	7.0
9.973	7.0
9.987	16.0
10.002	8.0
10.017	6.0
10.031	8.0
10.046	3.0
10.061	7.0
10.076	7.0
10.09	6.0
10.105	8.0
10.12	8.0
10.135	16.0
10.149	7.0
10.164	4.0
10.179	13.0
10.194	7.0
10.208	10.0
10.223	5.0
10.238	8.0
10.253	6.0
10.267	7.0
10.282	9.0
10.297	2.0
10.312	10.0
10.326	6.0
10.341	10.0
10.356	9.0
10.371	3.0
10.386	5.0
10.4	8.0
10.415	6.0
10.43	5.0
10.445	12.0
10.46	0.0
10.474	3.0
10.489	12.0
10.504	10.0
10.519	8.0
10.533	12.0
10.548	9.0
10.563	13.0
10.578	8.0
10.593	7.0
10.608	12.0
10.622	2.0
10.637	9.0
10.652	5.0
10.667	7.0
10.682	4.0
10.696	7.0
10.711	8.0
10.726	6.0
10.741	7.0
10.756	7.0
10.771	6.0
10.785	7.0
10.8	5.0
10.815	6.0
10.83	11.0
10.845	5.0
10.86	11.0
10.874	8.0
10.889	2.0
10.904	10.0
10.919	8.0
10.934	7.0
10.949	3.0
10.963	6.0
10.978	11.0
10.993	7.0
11.008	10.0
11.023	11.0
11.038	6.0
11.053	9.0
11.067	10.0
11.082	8.0
11.097	4.0
11.112	6.0
11.127	7.0
11.142	6.0
11.157	4.0
11.172	1.0
11.186	7.0
11.201	5.0
11.216	8.0
11.231	3.0
11.246	8.0
11.261	8.0
11.276	4.0
11.291	9.0
11.305	11.0
11.32	9.0
11.335	6.0
11.35	4.0
11.365	14.0
11.38	7.0
11.395	15.0
11.41	8.0
11.424	6.0
11.439	8.0
11.454	7.0
11.469	10.0
11.484	7.0
11.499	6.0
11.514	11.0
11.529	11.0
11.544	6.0
11.558	7.0
11.573	6.0
11.588	9.0
11.603	7.0
11.618	6.0
11.633	8.0
11.648	13.0
11.663	8.0
11.678	10.0
11.693	6.0
11.707	6.0
11.722	12.0
11.737	12.0
11.752	9.0
11.767	13.0
11.782	9.0
11.797	12.0
11.812	10.0
11.827	3.0
11.842	7.0
11.856	9.0
11.871	7.0
11.886	9.0
11.901	9.0
11.916	10.0
11.931	7.0
11.946	15.0
11.961	10.0
11.976	12.0
11.991	8.0
12.006	12.0
12.02	12.0
12.035	9.0
12.05	10.0
12.065	11.0
12.08	14.0
12.095	14.0
12.11	11.0
12.125	14.0
12.14	11.0
12.155	9.0
12.17	10.0
12.184	9.0
12.199	8.0
12.214	16.0
12.229	12.0
12.244	9.0
12.259	9.0
12.274	16.0
12.289	10.0
12.304	12.0
12.319	7.0
12.334	17.0
12.348	17.0
12.363	8.0
12.378	12.0
12.393	8.0
12.408	11.0
12.423	13.0
12.438	5.0
12.453	7.0
12.468	11.0
12.483	11.0
12.498	21.0
12.513	16.0
12.527	19.0
12.542	11.0
12.557	8.0
12.572	13.0
12.587	14.0
12.602	15.0
12.617	10.0
12.632	6.0
12.647	15.0
12.662	9.0
12.677	14.0
12.692	12.0
12.707	19.0
12.721	9.0
12.736	12.0
12.751	19.0
12.766	15.0
12.781	14.0
12.796	14.0
12.811	20.0
12.826	14.0
12.841	11.0
12.856	15.0
12.871	13.0
12.886	22.0
12.9	13.0
12.915	13.0
12.93	20.0
12.945	14.0
12.96	17.0
12.975	18.0
12.99	22.0
13.005	12.0
13.02	13.0
13.035	13.0
13.05	17.0
13.065	25.0
13.08	23.0
13.094	14.0
13.109	17.0
13.124	13.0
13.139	16.0
13.154	16.0
13.169	17.0
13.184	15.0
13.199	14.0
13.214	20.0
13.229	15.0
13.244	19.0
13.259	22.0
13.274	15.0
13.288	14.0
13.303	20.0
13.318	23.0
13.333	23.0
13.348	28.0
13.363	23.0
13.378	29.0
13.393	27.0
13.408	23.0
13.423	30.0
13.438	28.0
13.453	34.0
13.468	40.0
13.482	30.0
13.497	45.0
13.512	37.0
13.527	42.0
13.542	42.0
13.557	46.0
13.572	43.0
13.587	47.0
13.602	45.0
13.617	61.0
13.632	69.0
13.647	69.0
13.662	67.0
13.677	88.0
13.691	90.0
13.706	77.0
13.721	95.0
13.736	79.0
13.751	113.0
13.766	94.0
13.781	136.0
13.796	128.0
13.811	128.0
13.826	140.0
13.841	124.0
13.856	143.0
13.871	104.0
13.885	110.0
13.9	89.0
13.915	92.0
13.93	71.0
13.945	76.0
13.96	47.0
13.975	38.0
13.99	38.0
14.005	34.0
14.02	27.0
14.035	24.0
14.05	23.0
14.065	24.0
14.08	24.0
14.094	27.0
14.109	32.0
14.124	20.0
14.139	32.0
14.154	29.0
14.169	14.0
14.184	20.0
14.199	20.0
14.214	27.0
14.229	19.0
14.244	25.0
14.259	24.0
14.274	18.0
14.288	21.0
14.303	22.0
14.318	19.0
14.333	27.0
14.348	22.0
14.363	20.0
14.378	21.0
14.393	17.0
14.408	17.0
14.423	21.0
14.438	14.0
14.453	22.0
14.468	14.0
14.482	22.0
14.497	14.0
14.512	19.0
14.527	26.0
14.542	18.0
14.557	23.0
14.572	23.0
14.587	14.0
14.602	13.0
14.617	22.0
14.632	17.0
14.647	16.0
14.661	18.0
14.676	25.0
14.691	27.0
14.706	12.0
14.721	16.0
14.736	17.0
14.751	19.0
14.766	17.0
14.781	13.0
14.796	17.0
14.811	8.0
14.826	13.0
14.84	16.0
14.855	18.0
14.87	18.0
14.885	26.0
14.9	17.0
14.915	17.0
14.93	14.0
14.945	19.0
14.96	15.0
14.975	15.0
14.989	14.0
15.004	17.0
15.019	23.0
15.034	17.0
15.049	20.0
15.064	18.0
15.079	11.0
15.094	21.0
15.109	15.0
15.124	17.0
15.138	14.0
15.153	17.0
15.168	18.0
15.183	3.0
15.198	15.0
15.213	14.0
15.228	22.0
15.243	26.0
15.258	7.0
15.272	14.0
15.287	13.0
15.302	20.0
15.317	15.0
15.332	15.0
15.347	15.0
15.362	17.0
15.377	17.0
15.391	9.0
15.406	15.0
15.421	16.0
15.436	18.0
15.451	18.0
15.466	19.0
15.481	14.0
15.496	11.0
15.51	15.0
15.525	8.0
15.54	14.0
15.555	10.0
15.57	12.0
15.585	12.0
15.6	13.0
15.614	15.0
15.629	13.0
15.644	8.0
15.659	13.0
15.674	18.0
15.689	13.0
15.704	9.0
15.718	11.0
15.733	15.0
15.748	14.0
15.763	18.0
15.778	19.0
15.793	8.0
15.808	18.0
15.822	11.0
15.837	12.0
15.852	15.0
15.867	10.0
15.882	12.0
15.897	17.0
15.911	14.0
15.926	19.0
15.941	16.0
15.956	20.0
15.971	15.0
15.986	8.0
16.0	19.0
16.015	8.0
16.03	10.0
16.045	15.0
16.06	15.0
16.074	15.0
16.089	16.0
16.104	18.0
16.119	15.0
16.134	14.0
16.149	9.0
16.163	13.0
16.178	13.0
16.193	16.0
16.208	9.0
16.223	17.0
16.237	13.0
16.252	21.0
16.267	11.0
16.282	11.0
16.297	13.0
16.311	13.0
16.326	14.0
16.341	18.0
16.356	11.0
16.37	14.0
16.385	12.0
16.4	27.0
16.415	9.0
16.43	15.0
16.444	14.0
16.459	17.0
16.474	9.0
16.489	16.0
16.504	12.0
16.518	15.0
16.533	23.0
16.548	20.0
16.563	17.0
16.577	21.0
16.592	22.0
16.607	15.0
16.622	18.0
16.637	21.0
16.651	16.0
16.666	24.0
16.681	24.0
16.696	25.0
16.71	29.0
16.725	27.0
16.74	29.0
16.755	28.0
16.77	40.0
16.784	34.0
16.799	37.0
16.814	45.0
16.829	46.0
16.843	48.0
16.858	44.0
16.873	47.0
16.888	56.0
16.902	53.0
16.917	74.0
16.932	67.0
16.947	68.0
16.961	69.0
16.976	82.0
16.991	62.0
17.006	67.0
17.021	50.0
17.035	52.0
17.05	63.0
17.065	38.0
17.08	63.0
17.094	32.0
17.109	33.0
17.124	38.0
17.139	27.0
17.153	24.0
17.168	19.0
17.183	19.0
17.198	25.0
17.212	30.0
17.227	15.0
17.242	17.0
17.257	19.0
17.271	15.0
17.286	14.0
17.301	12.0
17.316	10.0
17.33	11.0
17.345	21.0
17.36	11.0
17.375	13.0
17.39	20.0
17.404	10.0
17.419	8.0
17.434	12.0
17.449	17.0
17.463	13.0
17.478	9.0
17.493	18.0
17.508	10.0
17.522	15.0
17.537	21.0
17.552	14.0
17.567	14.0
17.581	18.0
17.596	10.0
17.611	14.0
17.626	7.0
17.641	12.0
17.655	12.0
17.67	10.0
17.685	12.0
17.7	13.0
17.714	13.0
17.729	11.0
17.744	14.0
17.759	8.0
17.773	12.0
17.788	12.0
17.803	10.0
17.818	11.0
17.833	5.0
17.847	10.0
17.862	11.0
17.877	12.0
17.892	10.0
17.906	14.0
17.921	10.0
17.936	11.0
17.951	8.0
17.966	14.0
17.98	9.0
17.995	17.0
18.01	14.0
18.025	12.0
18.04	13.0
18.054	13.0
18.069	15.0
18.084	7.0
18.099	14.0
18.114	9.0
18.128	8.0
18.143	10.0
18.158	13.0
18.173	11.0
18.188	16.0
18.202	11.0
18.217	16.0
18.232	12.0
18.247	6.0
18.262	10.0
18.276	8.0
18.291	9.0
18.306	11.0
18.321	8.0
18.336	5.0
18.35	13.0
18.365	10.0
18.38	7.0
18.395	11.0
18.41	11.0
18.424	13.0
18.439	12.0
18.454	20.0
18.469	14.0
18.484	16.0
18.498	14.0
18.513	8.0
18.528	9.0
18.543	14.0
18.558	9.0
18.573	8.0
18.587	11.0
18.602	6.0
18.617	13.0
18.632	15.0
18.647	12.0
18.661	13.0
18.676	12.0
18.691	11.0
18.706	14.0
18.721	10.0
18.736	18.0
18.75	9.0
18.765	13.0
18.78	11.0
18.795	15.0
18.81	16.0
18.825	9.0
18.839	10.0
18.854	12.0
18.869	13.0
18.884	11.0
18.899	9.0
18.913	15.0
18.928	10.0
18.943	5.0
18.958	16.0
18.973	13.0
18.988	11.0
19.002	10.0
19.017	12.0
19.032	20.0
19.047	8.0
19.062	9.0
19.077	10.0
19.091	11.0
19.106	13.0
19.121	10.0
19.136	9.0
19.151	9.0
19.165	12.0
19.18	8.0
19.195	11.0
19.21	14.0
19.225	12.0
19.24	7.0
19.254	12.0
19.269	8.0
19.284	12.0
19.299	11.0
19.314	16.0
19.329	15.0
19.343	17.0
19.358	17.0
19.373	20.0
19.388	14.0
19.403	21.0
19.417	23.0
19.432	23.0
19.447	22.0
19.462	24.0
19.477	31.0
19.492	31.0
19.506	24.0
19.521	38.0
19.536	30.0
19.551	34.0
19.566	32.0
19.58	35.0
19.595	48.0
19.61	48.0
19.625	47.0
19.64	43.0
19.655	34.0
19.669	39.0
19.684	36.0
19.699	25.0
19.714	24.0
19.729	30.0
19.743	31.0
19.758	22.0
19.773	24.0
19.788	21.0
19.803	19.0
19.817	18.0
19.832	12.0
19.847	14.0
19.862	12.0
19.877	13.0
19.891	12.0
19.906	12.0
19.921	16.0
19.936	14.0
19.951	13.0
19.965	9.0
19.98	12.0
19.995	11.0
20.01	16.0
20.025	7.0
20.039	13.0
20.054	17.0
20.069	11.0
20.084	18.0
20.099	9.0
20.113	10.0
20.128	13.0
20.143	16.0
20.158	14.0
20.173	9.0
20.187	14.0
20.202	18.0
20.217	16.0
20.232	5.0
20.246	13.0
20.261	11.0
20.276	14.0
20.291	12.0
20.306	9.0
20.32	15.0
20.335	10.0
20.35	15.0
20.365	15.0
20.38	11.0
20.394	8.0
20.409	12.0
20.424	7.0
20.439	17.0
20.453	10.0
20.468	17.0
20.483	10.0
20.498	15.0
20.513	8.0
20.527	10.0
20.542	14.0
20.557	13.0
20.572	11.0
20.586	7.0
20.601	22.0
20.616	11.0
20.631	9.0
20.646	11.0
20.66	7.0
20.675	15.0
20.69	13.0
20.705	7.0
20.719	12.0
20.734	4.0
20.749	11.0
20.764	13.0
20.779	13.0
20.793	7.0
20.808	10.0
20.823	13.0
20.838	7.0
20.853	15.0
20.867	20.0
20.882	11.0
20.897	12.0
20.912	15.0
20.926	10.0
20.941	7.0
20.956	14.0
20.971	11.0
20.986	4.0
21.0	10.0
21.015	11.0
21.03	10.0
21.045	8.0
21.06	8.0
21.074	8.0
21.089	11.0
21.104	11.0
21.119	11.0
21.134	15.0
21.148	13.0
21.163	9.0
21.178	10.0
21.193	12.0
21.208	9.0
21.222	7.0
21.237	8.0
21.252	10.0
21.267	14.0
21.282	8.0
21.296	12.0
21.311	9.0
21.326	10.0
21.341	10.0
21.356	19.0
21.37	9.0
21.385	12.0
21.4	11.0
21.415	10.0
21.43	7.0
21.444	9.0
21.459	18.0
21.474	11.0
21.489	14.0
21.504	12.0
21.519	13.0
21.533	11.0
21.548	14.0
21.563	7.0
21.578	11.0
21.593	12.0
21.608	17.0
21.622	12.0
21.637	15.0
21.652	21.0
21.667	19.0
21.682	14.0
21.697	19.0
21.712	24.0
21.726	27.0
21.741	31.0
21.756	26.0
21.771	39.0
21.786	24.0
21.801	38.0
21.816	30.0
21.83	37.0
21.845	46.0
21.86	59.0
21.875	64.0
21.89	53.0
21.905	61.0
21.92	75.0
21.935	74.0
21.949	89.0
21.964	67.0
21.979	90.0
21.994	98.0
22.009	69.0
22.024	62.0
22.039	57.0
22.054	59.0
22.069	54.0
22.083	43.0
22.098	37.0
22.113	32.0
22.128	28.0
22.143	17.0
22.158	26.0
22.173	26.0
22.188	36.0
22.203	24.0
22.218	16.0
22.233	16.0
22.248	14.0
22.262	13.0
22.277	16.0
22.292	14.0
22.307	10.0
22.322	12.0
22.337	11.0
22.352	13.0
22.367	11.0
22.382	13.0
22.397	7.0
22.412	13.0
22.427	17.0
22.442	14.0
22.457	10.0
22.472	9.0
22.487	17.0
22.502	14.0
22.516	9.0
22.531	11.0
22.546	9.0
22.561	12.0
22.576	15.0
22.591	21.0
22.606	17.0
22.621	10.0
22.636	18.0
22.651	15.0
22.666	19.0
22.681	9.0
22.696	13.0
22.711	8.0
22.726	9.0
22.741	15.0
22.756	9.0
22.771	13.0
22.786	15.0
22.801	9.0
22.816	14.0
22.831	14.0
22.846	7.0
22.861	6.0
22.876	15.0
22.891	4.0
22.906	22.0
22.92	18.0
22.935	12.0
22.95	9.0
22.965	10.0
22.98	6.0
22.995	12.0
23.01	14.0
23.025	19.0
23.04	13.0
23.055	11.0
23.07	10.0
23.085	11.0
23.1	9.0
23.115	8.0
23.13	11.0
23.145	11.0
23.16	6.0
23.175	10.0
23.19	9.0
23.205	14.0
23.22	15.0
23.235	7.0
23.25	8.0
23.265	6.0
23.28	17.0
23.295	11.0
23.31	6.0
23.325	8.0
23.34	7.0
23.355	14.0
23.37	11.0
23.384	11.0
23.399	14.0
23.414	9.0
23.429	12.0
23.444	13.0
23.459	9.0
23.474	6.0
23.489	16.0
23.504	10.0
23.519	12.0
23.534	9.0
23.549	10.0
23.564	14.0
23.579	14.0
23.594	10.0
23.609	12.0
23.624	9.0
23.639	9.0
23.654	7.0
23.668	15.0
23.683	6.0
23.698	15.0
23.713	12.0
23.728	12.0
23.743	14.0
23.758	14.0
23.773	16.0
23.788	12.0
23.803	8.0
23.818	8.0
23.833	17.0
23.848	11.0
23.862	13.0
23.877	27.0
23.892	25.0
23.907	27.0
23.922	28.0
23.937	18.0
23.952	25.0
23.967	25.0
23.982	36.0
23.997	31.0
24.011	40.0
24.026	48.0
24.041	40.0
24.056	67.0
24.071	45.0
24.086	55.0
24.101	57.0
24.116	45.0
24.131	45.0
24.145	42.0
24.16	45.0
24.175	32.0
24.19	34.0
24.205	35.0
24.22	33.0
24.235	32.0
24.249	27.0
24.264	21.0
24.279	21.0
24.294	18.0
24.309	16.0
24.324	19.0
24.338	20.0
24.353	19.0
24.368	11.0
24.383	14.0
24.398	14.0
24.413	7.0
24.428	12.0
24.442	9.0
24.457	15.0
24.472	4.0
24.487	17.0
24.502	10.0
24.516	19.0
24.531	16.0
24.546	5.0
24.561	10.0
24.576	15.0
24.591	13.0
24.605	9.0
24.62	10.0
24.635	7.0
24.65	13.0
24.665	6.0
24.679	10.0
24.694	9.0
24.709	6.0
24.724	11.0
24.739	8.0
24.753	8.0
24.768	10.0
24.783	7.0
24.798	14.0
24.813	11.0
24.827	17.0
24.842	8.0
24.857	11.0
24.872	13.0
24.886	10.0
24.901	12.0
24.916	15.0
24.931	11.0
24.946	12.0
24.96	13.0
24.975	10.0
24.99	13.0
25.005	13.0
25.019	6.0
25.034	17.0
25.049	10.0
25.064	12.0
25.078	14.0
25.093	15.0
25.108	23.0
25.123	9.0
25.138	12.0
25.152	3.0
25.167	19.0
25.182	11.0
25.197	6.0
25.211	8.0
25.226	10.0
25.241	7.0
25.256	11.0
25.27	8.0
25.285	10.0
25.3	11.0
25.315	10.0
25.329	7.0
25.344	10.0
25.359	13.0
25.374	7.0
25.388	8.0
25.403	8.0
25.418	9.0
25.433	12.0
25.447	5.0
25.462	10.0
25.477	16.0
25.492	16.0
25.506	14.0
25.521	7.0
25.536	13.0
25.55	4.0
25.565	12.0
25.58	10.0
25.595	10.0
25.609	10.0
25.624	10.0
25.639	7.0
25.654	10.0
25.668	8.0
25.683	5.0
25.698	10.0
25.713	12.0
25.727	16.0
25.742	13.0
25.757	9.0
25.772	7.0
25.786	11.0
25.801	12.0
25.816	8.0
25.83	13.0
25.845	9.0
25.86	10.0
25.875	11.0
25.889	9.0
25.904	6.0
25.919	10.0
25.934	8.0
25.948	11.0
25.963	10.0
25.978	2.0
25.992	8.0
26.007	9.0
26.022	6.0
26.037	6.0
26.051	9.0
26.066	7.0
26.081	7.0
26.096	8.0
26.11	14.0
26.125	10.0
26.14	12.0
26.155	11.0
26.169	10.0
26.184	7.0
26.199	12.0
26.213	12.0
26.228	13.0
26.243	9.0
26.258	14.0
26.272	9.0
26.287	15.0
26.302	14.0
26.317	7.0
26.331	5.0
26.346	12.0
26.361	5.0
26.376	8.0
26.39	8.0
26.405	9.0
26.42	10.0
26.434	10.0
26.449	11.0
26.464	12.0
26.479	3.0
26.493	15.0
26.508	6.0
26.523	8.0
26.538	11.0
26.552	7.0
26.567	11.0
26.582	10.0
26.597	9.0
26.611	11.0
26.626	7.0
26.641	17.0
26.656	18.0
26.67	5.0
26.685	11.0
26.7	7.0
26.715	6.0
26.729	15.0
26.744	14.0
26.759	6.0
26.773	13.0
26.788	14.0
26.803	8.0
26.818	5.0
26.832	12.0
26.847	12.0
26.862	10.0
26.877	4.0
26.891	17.0
26.906	10.0
26.921	11.0
26.936	18.0
26.95	8.0
26.965	6.0
26.98	17.0
26.995	13.0
27.01	9.0
27.024	10.0
27.039	10.0
27.054	10.0
27.069	12.0
27.083	12.0
27.098	10.0
27.113	14.0
27.128	10.0
27.142	9.0
27.157	9.0
27.172	3.0
27.187	7.0
27.201	14.0
27.216	14.0
27.231	5.0
27.246	12.0
27.261	9.0
27.275	7.0
27.29	15.0
27.305	11.0
27.32	4.0
27.334	9.0
27.349	10.0
27.364	8.0
27.379	8.0
27.394	10.0
27.408	4.0
27.423	6.0
27.438	10.0
27.453	13.0
27.467	9.0
27.482	11.0
27.497	2.0
27.512	9.0
27.527	7.0
27.541	17.0
27.556	9.0
27.571	13.0
27.586	13.0
27.601	10.0
27.615	4.0
27.63	6.0
27.645	8.0
27.66	5.0
27.675	14.0
27.689	16.0
27.704	10.0
27.719	15.0
27.734	9.0
27.749	13.0
27.763	19.0
27.778	16.0
27.793	14.0
27.808	20.0
27.823	23.0
27.838	25.0
27.852	17.0
27.867	23.0
27.882	22.0
27.897	31.0
27.912	17.0
27.926	15.0
27.941	17.0
27.956	19.0
27.971	21.0
27.986	26.0
28.001	23.0
28.015	23.0
28.03	27.0
28.045	22.0
28.06	19.0
28.075	17.0
28.09	12.0
28.105	16.0
28.119	10.0
28.134	22.0
28.149	9.0
28.164	26.0
28.179	10.0
28.194	9.0
28.208	13.0
28.223	11.0
28.238	12.0
28.253	13.0
28.268	15.0
28.283	13.0
28.298	8.0
28.312	13.0
28.327	7.0
28.342	11.0
28.357	9.0
28.372	11.0
28.387	9.0
28.402	7.0
28.417	4.0
28.431	17.0
28.446	9.0
28.461	8.0
28.476	11.0
28.491	11.0
28.506	11.0
28.521	8.0
28.536	11.0
28.55	10.0
28.565	10.0
28.58	10.0
28.595	8.0
28.61	10.0
28.625	13.0
28.64	8.0
28.655	12.0
28.669	11.0
28.684	10.0
28.699	8.0
28.714	7.0
28.729	11.0
28.744	6.0
28.759	13.0
28.774	9.0
28.788	14.0
28.803	8.0
28.818	11.0
28.833	15.0
28.848	12.0
28.863	12.0
28.878	14.0
28.893	14.0
28.908	15.0
28.922	11.0
28.937	16.0
28.952	9.0
28.967	13.0
28.982	8.0
28.997	19.0
29.012	12.0
29.027	5.0
29.041	14.0
29.056	11.0
29.071	7.0
29.086	12.0
29.101	14.0
29.116	15.0
29.131	12.0
29.146	9.0
29.16	7.0
29.175	8.0
29.19	14.0
29.205	12.0
29.22	13.0
29.235	9.0
29.25	8.0
29.265	7.0
29.279	12.0
29.294	12.0
29.309	12.0
29.324	17.0
29.339	16.0
29.354	18.0
29.369	13.0
29.384	14.0
29.398	16.0
29.413	12.0
29.428	15.0
29.443	15.0
29.458	21.0
29.473	29.0
29.488	19.0
29.502	35.0
29.517	33.0
29.532	42.0
29.547	38.0
29.562	56.0
29.577	53.0
29.592	47.0
29.606	38.0
29.621	38.0
29.636	55.0
29.651	50.0
29.666	41.0
29.681	49.0
29.695	44.0
29.71	33.0
29.725	29.0
29.74	31.0
29.755	38.0
29.77	29.0
29.784	45.0
29.799	21.0
29.814	29.0
29.829	28.0
29.844	25.0
29.859	21.0
29.873	10.0
29.888	18.0
29.903	14.0
29.918	10.0
29.933	12.0
29.947	13.0
29.962	10.0
29.977	13.0
29.992	6.0
30.007	13.0
30.021	7.0
30.036	11.0
30.051	13.0
30.066	12.0
30.081	7.0
30.095	12.0
30.11	10.0
30.125	14.0
30.14	13.0
30.155	9.0
30.169	10.0
30.184	10.0
30.199	10.0
30.214	12.0
30.228	13.0
30.243	6.0
30.258	11.0
30.273	7.0
30.288	8.0
30.302	11.0
30.317	10.0
30.332	12.0
30.347	10.0
30.361	14.0
30.376	8.0
30.391	10.0
30.406	15.0
30.42	5.0
30.435	6.0
30.45	18.0
30.465	10.0
30.479	8.0
30.494	14.0
30.509	13.0
30.524	9.0
30.538	13.0
30.553	11.0
30.568	12.0
30.583	6.0
30.597	9.0
30.612	7.0
30.627	13.0
30.641	9.0
30.656	9.0
30.671	11.0
30.686	9.0
30.7	12.0
30.715	12.0
30.73	9.0
30.745	4.0
30.759	11.0
30.774	14.0
30.789	13.0
30.803	11.0
30.818	8.0
30.833	9.0
30.848	10.0
30.862	9.0
30.877	3.0
30.892	15.0
30.906	17.0
30.921	15.0
30.936	15.0
30.951	8.0
30.965	11.0
30.98	11.0
30.995	12.0
31.009	13.0
31.024	11.0
31.039	11.0
31.053	8.0
31.068	13.0
31.083	15.0
31.098	17.0
31.112	13.0
31.127	18.0
31.142	21.0
31.156	23.0
31.171	30.0
31.186	38.0
31.2	31.0
31.215	29.0
31.23	40.0
31.245	44.0
31.259	50.0
31.274	39.0
31.289	47.0
31.303	39.0
31.318	30.0
31.333	30.0
31.347	40.0
31.362	34.0
31.377	27.0
31.392	28.0
31.406	29.0
31.421	29.0
31.436	30.0
31.45	28.0
31.465	25.0
31.48	24.0
31.494	28.0
31.509	24.0
31.524	14.0
31.538	12.0
31.553	15.0
31.568	22.0
31.583	10.0
31.597	13.0
31.612	16.0
31.627	6.0
31.641	11.0
31.656	11.0
31.671	11.0
31.685	10.0
31.7	11.0
31.715	9.0
31.729	19.0
31.744	12.0
31.759	7.0
31.774	12.0
31.788	10.0
31.803	14.0
31.818	11.0
31.832	14.0
31.847	9.0
31.862	6.0
31.876	11.0
31.891	10.0
31.906	12.0
31.92	13.0
31.935	8.0
31.95	14.0
31.965	8.0
31.979	16.0
31.994	8.0
32.009	15.0
32.023	11.0
32.038	11.0
32.053	12.0
32.067	11.0
32.082	6.0
32.097	5.0
32.112	8.0
32.126	7.0
32.141	12.0
32.156	11.0
32.17	10.0
32.185	4.0
32.2	10.0
32.214	20.0
32.229	9.0
32.244	6.0
32.259	8.0
32.273	14.0
32.288	14.0
32.303	8.0
32.317	10.0
32.332	10.0
32.347	4.0
32.362	6.0
32.376	9.0
32.391	9.0
32.406	8.0
32.42	15.0
32.435	7.0
32.45	13.0
32.465	7.0
32.479	9.0
32.494	9.0
32.509	6.0
32.523	13.0
32.538	15.0
32.553	14.0
32.568	23.0
32.582	12.0
32.597	19.0
32.612	8.0
32.627	9.0
32.641	15.0
32.656	15.0
32.671	13.0
32.685	12.0
32.7	13.0
32.715	21.0
32.73	17.0
32.744	25.0
32.759	24.0
32.774	17.0
32.788	26.0
32.803	23.0
32.818	24.0
32.833	25.0
32.847	30.0
32.862	28.0
32.877	29.0
32.892	27.0
32.906	23.0
32.921	21.0
32.936	13.0
32.951	17.0
32.965	19.0
32.98	13.0
32.995	21.0
33.009	9.0
33.024	13.0
33.039	17.0
33.054	24.0
33.068	25.0
33.083	20.0
33.098	16.0
33.113	14.0
33.127	9.0
33.142	13.0
33.157	8.0
33.172	11.0
33.186	8.0
33.201	8.0
33.216	9.0
33.231	8.0
33.245	6.0
33.26	11.0
33.275	14.0
33.29	6.0
33.304	6.0
33.319	6.0
33.334	9.0
33.349	12.0
33.363	11.0
33.378	9.0
33.393	10.0
33.408	13.0
33.422	11.0
33.437	15.0
33.452	5.0
33.467	7.0
33.481	10.0
33.496	13.0
33.511	6.0
33.526	10.0
33.54	11.0
33.555	10.0
33.57	9.0
33.585	8.0
33.599	5.0
33.614	8.0
33.629	11.0
33.644	6.0
33.658	6.0
33.673	3.0
33.688	12.0
33.703	10.0
33.718	13.0
33.732	16.0
33.747	11.0
33.762	8.0
33.777	11.0
33.791	12.0
33.806	12.0
33.821	13.0
33.836	12.0
33.85	12.0
33.865	10.0
33.88	14.0
33.895	12.0
33.91	8.0
33.924	13.0
33.939	7.0
33.954	14.0
33.969	4.0
33.983	11.0
33.998	9.0
34.013	7.0
34.028	11.0
34.042	14.0
34.057	9.0
34.072	8.0
34.087	9.0
34.102	8.0
34.116	6.0
34.131	11.0
34.146	11.0
34.161	9.0
34.175	16.0
34.19	16.0
34.205	7.0
34.22	8.0
34.235	8.0
34.249	12.0
34.264	9.0
34.279	15.0
34.294	12.0
34.309	15.0
34.323	17.0
34.338	15.0
34.353	11.0
34.368	18.0
34.382	14.0
34.397	16.0
34.412	13.0
34.427	12.0
34.442	15.0
34.456	10.0
34.471	13.0
34.486	20.0
34.501	6.0
34.516	12.0
34.53	15.0
34.545	6.0
34.56	8.0
34.575	9.0
34.59	7.0
34.604	15.0
34.619	10.0
34.634	3.0
34.649	12.0
34.664	16.0
34.678	10.0
34.693	7.0
34.708	8.0
34.723	6.0
34.738	7.0
34.752	9.0
34.767	10.0
34.782	11.0
34.797	12.0
34.812	8.0
34.826	11.0
34.841	12.0
34.856	6.0
34.871	9.0
34.886	12.0
34.9	6.0
34.915	4.0
34.93	7.0
34.945	8.0
34.96	8.0
34.974	4.0
34.989	12.0
35.004	10.0
35.019	10.0
35.034	12.0
35.048	12.0
35.063	10.0
35.078	10.0
35.093	11.0
35.108	8.0
35.122	7.0
35.137	9.0
35.152	9.0
35.167	6.0
35.182	14.0
35.196	10.0
35.211	10.0
35.226	8.0
35.241	7.0
35.256	4.0
35.27	10.0
35.285	13.0
35.3	12.0
35.315	7.0
35.33	9.0
35.344	11.0
35.359	9.0
35.374	7.0
35.389	6.0
35.404	10.0
35.418	5.0
35.433	5.0
35.448	6.0
35.463	7.0
35.478	6.0
35.493	9.0
35.507	7.0
35.522	9.0
35.537	8.0
35.552	13.0
35.567	26.0
35.581	5.0
35.596	9.0
35.611	9.0
35.626	19.0
35.641	11.0
35.655	14.0
35.67	17.0
35.685	10.0
35.7	12.0
35.715	19.0
35.729	14.0
35.744	21.0
35.759	17.0
35.774	21.0
35.789	24.0
35.804	14.0
35.818	17.0
35.833	21.0
35.848	13.0
35.863	9.0
35.878	13.0
35.892	21.0
35.907	11.0
35.922	13.0
35.937	18.0
35.952	15.0
35.966	15.0
35.981	11.0
35.996	18.0
36.011	20.0
36.026	12.0
36.04	12.0
36.055	7.0
36.07	16.0
36.085	4.0
36.1	6.0
36.114	12.0
36.129	5.0
36.144	9.0
36.159	6.0
36.174	6.0
36.189	8.0
36.203	12.0
36.218	6.0
36.233	7.0
36.248	7.0
36.263	8.0
36.277	9.0
36.292	9.0
36.307	7.0
36.322	8.0
36.337	10.0
36.351	5.0
36.366	8.0
36.381	6.0
36.396	5.0
36.411	6.0
36.426	9.0
36.44	6.0
36.455	9.0
36.47	11.0
36.485	10.0
36.5	6.0
36.514	7.0
36.529	8.0
36.544	18.0
36.559	6.0
36.574	14.0
36.589	8.0
36.603	7.0
36.618	11.0
36.633	6.0
36.648	8.0
36.663	20.0
36.677	5.0
36.692	13.0
36.707	6.0
36.722	5.0
36.737	3.0
36.752	15.0
36.766	5.0
36.781	13.0
36.796	6.0
36.811	7.0
36.826	6.0
36.841	6.0
36.855	5.0
36.87	6.0
36.885	12.0
36.9	5.0
36.915	12.0
36.93	9.0
36.944	3.0
36.959	12.0
36.974	5.0
36.989	11.0
37.004	11.0
37.019	11.0
37.033	14.0
37.048	14.0
37.063	6.0
37.078	20.0
37.093	16.0
37.108	22.0
37.123	24.0
37.137	19.0
37.152	28.0
37.167	23.0
37.182	26.0
37.197	41.0
37.212	25.0
37.226	29.0
37.241	31.0
37.256	26.0
37.271	22.0
37.286	9.0
37.301	26.0
37.316	10.0
37.331	20.0
37.345	20.0
37.36	22.0
37.375	21.0
37.39	16.0
37.405	16.0
37.42	18.0
37.435	22.0
37.45	16.0
37.464	12.0
37.479	10.0
37.494	11.0
37.509	10.0
37.524	11.0
37.539	11.0
37.554	10.0
37.569	10.0
37.583	4.0
37.598	5.0
37.613	4.0
37.628	10.0
37.643	4.0
37.658	5.0
37.673	8.0
37.688	8.0
37.703	5.0
37.718	4.0
37.733	6.0
37.747	6.0
37.762	7.0
37.777	8.0
37.792	7.0
37.807	12.0
37.822	6.0
37.837	13.0
37.852	3.0
37.867	7.0
37.882	7.0
37.897	8.0
37.912	4.0
37.927	10.0
37.941	4.0
37.956	9.0
37.971	5.0
37.986	7.0
38.001	8.0
38.016	8.0
38.031	8.0
38.046	7.0
38.061	9.0
38.076	4.0
38.091	4.0
38.106	10.0
38.121	2.0
38.136	8.0
38.151	5.0
38.166	6.0
38.181	10.0
38.196	9.0
38.211	7.0
38.226	10.0
38.241	6.0
38.256	5.0
38.271	13.0
38.285	11.0
38.3	9.0
38.315	9.0
38.33	6.0
38.345	9.0
38.36	7.0
38.375	11.0
38.39	4.0
38.405	7.0
38.42	9.0
38.435	6.0
38.45	6.0
38.465	3.0
38.48	6.0
38.495	7.0
38.51	9.0
38.525	5.0
38.54	11.0
38.555	2.0
38.57	3.0
38.585	5.0
38.6	2.0
38.615	10.0
38.63	4.0
38.645	4.0
38.66	8.0
38.675	5.0
38.69	10.0
38.705	7.0
38.72	8.0
38.735	4.0
38.75	6.0
38.765	13.0
38.78	8.0
38.795	7.0
38.81	7.0
38.825	4.0
38.84	5.0
38.855	8.0
38.87	5.0
38.885	3.0
38.9	5.0
38.915	6.0
38.93	3.0
38.945	5.0
38.96	5.0
38.975	3.0
38.99	5.0
39.005	6.0
39.02	6.0
39.035	6.0
39.05	7.0
39.065	0.0
39.08	4.0
39.095	8.0
39.11	7.0
39.125	5.0
39.14	5.0
39.155	6.0
39.17	7.0
39.185	13.0
39.2	9.0
39.215	7.0
39.23	3.0
39.245	3.0
39.26	9.0
39.275	5.0
39.29	7.0
39.305	3.0
39.32	5.0
39.335	2.0
39.35	6.0
39.365	4.0
39.38	5.0
39.395	12.0
39.409	9.0
39.424	9.0
39.439	6.0
39.454	6.0
39.469	5.0
39.484	9.0
39.499	2.0
39.514	11.0
39.529	6.0
39.544	8.0
39.559	3.0
39.574	7.0
39.589	4.0
39.604	7.0
39.619	5.0
39.634	5.0
39.649	12.0
39.664	3.0
39.678	3.0
39.693	15.0
39.708	8.0
39.723	7.0
39.738	7.0
39.753	8.0
39.768	9.0
39.783	7.0
39.798	8.0
39.813	9.0
39.827	13.0
39.842	4.0
39.857	12.0
39.872	9.0
39.887	8.0
39.902	10.0
39.917	9.0
39.932	11.0
39.947	4.0
39.961	6.0
39.976	7.0
39.991	10.0
40.006	7.0
40.021	13.0
40.036	8.0
40.051	10.0
40.065	6.0
40.08	10.0
40.095	11.0
40.11	7.0
40.125	5.0
40.14	7.0
40.154	11.0
40.169	7.0
40.184	4.0
40.199	10.0
40.214	3.0
40.228	2.0
40.243	9.0
40.258	5.0
40.273	5.0
40.288	5.0
40.302	5.0
40.317	5.0
40.332	9.0
40.347	4.0
40.362	6.0
40.376	3.0
40.391	4.0
40.406	6.0
40.421	6.0
40.436	2.0
40.45	11.0
40.465	9.0
40.48	5.0
40.495	9.0
40.509	12.0
40.524	7.0
40.539	5.0
40.554	4.0
40.568	3.0
40.583	9.0
40.598	5.0
40.613	4.0
40.627	1.0
40.642	4.0
40.657	5.0
40.672	6.0
40.686	7.0
40.701	5.0
40.716	4.0
40.731	5.0
40.745	2.0
40.76	13.0
40.775	6.0
40.79	4.0
40.804	10.0
40.819	7.0
40.834	4.0
40.849	6.0
40.863	10.0
40.878	9.0
40.893	8.0
40.907	4.0
40.922	6.0
40.937	4.0
40.952	4.0
40.966	4.0
40.981	9.0
40.996	8.0
41.011	17.0
41.025	10.0
41.04	12.0
41.055	13.0
41.069	15.0
41.084	18.0
41.099	18.0
41.114	21.0
41.128	24.0
41.143	19.0
41.158	24.0
41.173	19.0
41.187	23.0
41.202	12.0
41.217	16.0
41.231	16.0
41.246	14.0
41.261	16.0
41.276	9.0
41.29	9.0
41.305	8.0
41.32	15.0
41.335	15.0
41.349	7.0
41.364	15.0
41.379	16.0
41.393	14.0
41.408	16.0
41.423	15.0
41.438	10.0
41.452	7.0
41.467	11.0
41.482	3.0
41.497	11.0
41.511	5.0
41.526	12.0
41.541	6.0
41.556	12.0
41.57	7.0
41.585	4.0
41.6	9.0
41.615	8.0
41.629	5.0
41.644	4.0
41.659	4.0
41.674	3.0
41.688	7.0
41.703	6.0
41.718	5.0
41.733	4.0
41.747	7.0
41.762	11.0
41.777	6.0
41.792	3.0
41.806	5.0
41.821	9.0
41.836	5.0
41.851	6.0
41.866	5.0
41.88	5.0
41.895	5.0
41.91	9.0
41.925	10.0
41.939	12.0
41.954	7.0
41.969	6.0
41.984	5.0
41.999	3.0
42.013	7.0
42.028	5.0
42.043	5.0
42.058	6.0
42.073	6.0
42.088	8.0
42.102	7.0
42.117	1.0
42.132	6.0
42.147	5.0
42.162	7.0
42.176	9.0
42.191	2.0
42.206	8.0
42.221	12.0
42.236	6.0
42.251	7.0
42.266	8.0
42.28	12.0
42.295	14.0
42.31	13.0
42.325	17.0
42.34	9.0
42.355	14.0
42.369	18.0
42.384	17.0
42.399	15.0
42.414	15.0
42.429	22.0
42.444	15.0
42.459	17.0
42.474	17.0
42.488	9.0
42.503	9.0
42.518	8.0
42.533	9.0
42.548	14.0
42.563	6.0
42.578	9.0
42.593	6.0
42.608	5.0
42.622	13.0
42.637	13.0
42.652	18.0
42.667	15.0
42.682	12.0
42.697	11.0
42.712	8.0
42.727	4.0
42.742	10.0
42.757	13.0
42.772	8.0
42.786	9.0
42.801	4.0
42.816	4.0
42.831	5.0
42.846	8.0
42.861	3.0
42.876	5.0
42.891	7.0
42.906	4.0
42.921	10.0
42.936	1.0
42.951	7.0
42.966	6.0
42.981	8.0
42.996	4.0
43.011	6.0
43.025	4.0
43.04	6.0
43.055	4.0
43.07	6.0
43.085	6.0
43.1	3.0
43.115	3.0
43.13	6.0
43.145	4.0
43.16	3.0
43.175	4.0
43.19	7.0
43.205	5.0
43.22	3.0
43.235	7.0
43.25	7.0
43.265	3.0
43.28	9.0
43.295	6.0
43.31	4.0
43.325	5.0
43.34	6.0
43.355	10.0
43.37	6.0
43.385	10.0
43.4	5.0
43.415	4.0
43.43	6.0
43.445	7.0
43.46	4.0
43.475	8.0
43.49	7.0
43.505	9.0
43.52	1.0
43.535	11.0
43.55	10.0
43.565	9.0
43.58	11.0
43.595	12.0
43.61	8.0
43.625	11.0
43.64	8.0
43.655	11.0
43.67	5.0
43.685	7.0
43.7	7.0
43.715	3.0
43.73	8.0
43.745	4.0
43.76	2.0
43.775	8.0
43.79	6.0
43.805	4.0
43.82	4.0
43.835	6.0
43.85	5.0
43.865	10.0
43.88	16.0
43.895	9.0
43.91	5.0
43.925	11.0
43.94	6.0
43.955	8.0
43.97	3.0
43.985	6.0
44.0	6.0
44.015	6.0
44.03	9.0
44.045	5.0
44.061	3.0
44.076	4.0
44.091	5.0
44.106	6.0
44.121	6.0
44.136	11.0
44.151	5.0
44.166	8.0
44.181	5.0
44.196	5.0
44.211	7.0
44.226	4.0
44.241	14.0
44.256	3.0
44.271	3.0
44.286	2.0
44.301	5.0
44.316	7.0
44.331	3.0
44.346	5.0
44.361	4.0
44.377	3.0
44.392	3.0
44.407	8.0
44.422	10.0
44.437	2.0
44.452	9.0
44.467	8.0
44.482	4.0
44.497	10.0
44.512	8.0
44.527	7.0
44.542	5.0
44.557	7.0
44.572	4.0
44.587	8.0
44.602	8.0
44.617	3.0
44.632	4.0
44.647	6.0
44.663	1.0
44.678	4.0
44.693	7.0
44.708	6.0
44.723	7.0
44.738	8.0
44.753	4.0
44.768	10.0
44.783	13.0
44.798	13.0
44.813	8.0
44.828	11.0
44.843	15.0
44.858	14.0
44.873	9.0
44.888	2.0
44.903	7.0
44.918	8.0
44.933	13.0
44.948	7.0
44.964	3.0
44.979	5.0
44.994	10.0
45.009	11.0
45.024	7.0
45.039	13.0
45.054	8.0
45.069	7.0
45.084	11.0
45.099	11.0
45.114	8.0
45.129	7.0
45.144	10.0
45.159	11.0
45.174	9.0
45.189	9.0
45.204	10.0
45.219	6.0
45.234	6.0
45.249	7.0
45.264	7.0
45.279	8.0
45.294	4.0
45.309	7.0
45.324	4.0
45.339	8.0
45.354	6.0
45.369	8.0
45.384	6.0
45.399	6.0
45.414	2.0
45.429	4.0
45.444	8.0
45.459	9.0
45.474	8.0
45.489	6.0
45.504	5.0
45.519	4.0
45.534	3.0
45.549	4.0
45.564	6.0
45.579	3.0
45.594	14.0
45.609	4.0
45.624	3.0
45.639	2.0
45.654	2.0
45.669	6.0
45.684	1.0
45.699	1.0
45.714	10.0
45.729	5.0
45.744	4.0
45.759	4.0
45.774	7.0
45.789	7.0
45.804	7.0
45.819	8.0
45.834	3.0
45.849	4.0
45.864	8.0
45.879	11.0
45.894	12.0
45.909	8.0
45.924	10.0
45.939	15.0
45.954	12.0
45.969	14.0
45.984	14.0
45.998	11.0
46.013	15.0
46.028	14.0
46.043	18.0
46.058	9.0
46.073	11.0
46.088	10.0
46.103	12.0
46.118	8.0
46.133	14.0
46.148	6.0
46.163	7.0
46.178	7.0
46.192	8.0
46.207	13.0
46.222	10.0
46.237	16.0
46.252	14.0
46.267	11.0
46.282	13.0
46.297	17.0
46.312	10.0
46.327	5.0
46.341	3.0
46.356	6.0
46.371	5.0
46.386	6.0
46.401	2.0
46.416	5.0
46.431	4.0
46.446	5.0
46.46	9.0
46.475	3.0
46.49	3.0
46.505	6.0
46.52	6.0
46.535	4.0
46.55	12.0
46.564	5.0
46.579	9.0
46.594	5.0
46.609	7.0
46.624	3.0
46.639	4.0
46.654	5.0
46.668	6.0
46.683	3.0
46.698	4.0
46.713	7.0
46.728	5.0
46.743	7.0
46.758	4.0
46.772	6.0
46.787	5.0
46.802	5.0
46.817	8.0
46.832	6.0
46.847	5.0
46.861	7.0
46.876	5.0
46.891	11.0
46.906	10.0
46.921	4.0
46.936	7.0
46.95	5.0
46.965	5.0
46.98	3.0
46.995	8.0
47.01	9.0
47.025	4.0
47.039	6.0
47.054	12.0
47.069	10.0
47.084	8.0
47.099	14.0
47.113	8.0
47.128	7.0
47.143	13.0
47.158	12.0
47.173	4.0
47.188	14.0
47.202	9.0
47.217	11.0
47.232	4.0
47.247	4.0
47.262	3.0
47.277	5.0
47.291	4.0
47.306	5.0
47.321	4.0
47.336	14.0
47.351	5.0
47.365	9.0
47.38	9.0
47.395	12.0
47.41	5.0
47.425	7.0
47.44	4.0
47.454	2.0
47.469	10.0
47.484	5.0
47.499	7.0
47.514	8.0
47.528	4.0
47.543	3.0
47.558	4.0
47.573	3.0
47.588	1.0
47.603	5.0
47.617	5.0
47.632	4.0
47.647	6.0
47.662	3.0
47.677	5.0
47.691	9.0
47.706	6.0
47.721	10.0
47.736	7.0
47.751	4.0
47.766	4.0
47.78	6.0
47.795	2.0
47.81	9.0
47.825	10.0
47.84	3.0
47.855	8.0
47.869	2.0
47.884	6.0
47.899	5.0
47.914	5.0
47.929	2.0
47.944	10.0
47.958	5.0
47.973	6.0
47.988	2.0
48.003	4.0
48.018	2.0
48.033	5.0
48.047	4.0
48.062	8.0
48.077	5.0
48.092	2.0
48.107	5.0
48.122	2.0
48.137	5.0
48.151	5.0
48.166	0.0
48.181	3.0
48.196	2.0
48.211	3.0
48.226	9.0
48.241	3.0
48.255	5.0
48.27	6.0
48.285	1.0
48.3	9.0
48.315	2.0
48.33	3.0
48.345	5.0
48.359	3.0
48.374	4.0
48.389	1.0
48.404	6.0
48.419	6.0
48.434	0.0
48.449	6.0
48.464	6.0
48.478	6.0
48.493	4.0
48.508	2.0
48.523	5.0
48.538	4.0
48.553	7.0
48.568	5.0
48.583	3.0
48.597	6.0
48.612	3.0
48.627	4.0
48.642	6.0
48.657	6.0
48.672	7.0
48.687	5.0
48.702	10.0
48.717	4.0
48.731	3.0
48.746	3.0
48.761	5.0
48.776	6.0
48.791	6.0
48.806	7.0
48.821	3.0
48.836	8.0
48.851	2.0
48.866	4.0
48.88	5.0
48.895	5.0
48.91	6.0
48.925	7.0
48.94	5.0
48.955	9.0
48.97	4.0
48.985	7.0
49.0	4.0
49.015	1.0
49.03	1.0
49.044	8.0
49.059	4.0
49.074	4.0
49.089	4.0
49.104	3.0
49.119	5.0
49.134	0.0
49.149	3.0
49.164	6.0
49.179	6.0
49.194	2.0
49.209	7.0
49.224	7.0
49.238	4.0
49.253	6.0
49.268	5.0
49.283	5.0
49.298	6.0
49.313	4.0
49.328	12.0
49.343	9.0
49.358	8.0
49.373	3.0
49.388	15.0
49.403	8.0
49.418	8.0
49.433	5.0
49.448	7.0
49.463	3.0
49.478	5.0
49.492	3.0
49.507	7.0
49.522	2.0
49.537	8.0
49.552	11.0
49.567	6.0
49.582	4.0
49.597	6.0
49.612	11.0
49.627	6.0
49.642	6.0
49.657	3.0
49.672	8.0
49.687	5.0
49.702	8.0
49.717	9.0
49.732	6.0
49.747	4.0
49.762	7.0
49.777	4.0
49.792	6.0
49.807	5.0
49.822	5.0
49.837	5.0
49.852	7.0
49.867	4.0
49.882	10.0
49.897	5.0
49.912	6.0
49.927	7.0
49.942	7.0
49.957	7.0
49.971	4.0
49.986	4.0
50.001	6.0
50.016	7.0
50.031	4.0
50.046	3.0
50.061	5.0
50.076	2.0
50.091	4.0
50.106	4.0
50.121	3.0
50.136	7.0
50.151	8.0
50.166	3.0
50.181	2.0
50.196	5.0
50.211	6.0
50.226	7.0
50.241	3.0
50.256	6.0
50.271	1.0
50.286	9.0
50.302	5.0
50.317	2.0
50.332	7.0
50.347	5.0
50.362	6.0
50.377	8.0
50.392	7.0
50.407	4.0
50.422	11.0
50.437	14.0
50.452	7.0
50.467	12.0
50.482	10.0
50.497	10.0
50.512	8.0
50.527	8.0
50.542	5.0
50.557	13.0
50.572	4.0
50.587	5.0
50.602	3.0
50.617	4.0
50.632	5.0
50.647	9.0
50.662	6.0
50.677	6.0
50.692	6.0
50.707	7.0
50.722	2.0
50.737	7.0
50.752	2.0
50.767	7.0
50.782	5.0
50.797	5.0
50.812	8.0
50.828	10.0
50.843	4.0
50.858	7.0
50.873	9.0
50.888	5.0
50.903	6.0
50.918	3.0
50.933	5.0
50.948	5.0
50.963	6.0
50.978	4.0
50.993	3.0
51.008	1.0
51.023	6.0
51.038	4.0
51.053	3.0
51.068	7.0
51.083	5.0
51.098	8.0
51.114	8.0
51.129	8.0
51.144	2.0
51.159	11.0
51.174	7.0
51.189	7.0
51.204	6.0
51.219	2.0
51.234	2.0
51.249	7.0
51.264	2.0
51.279	6.0
51.294	8.0
51.309	7.0
51.324	8.0
51.34	3.0
51.355	7.0
51.37	11.0
51.385	13.0
51.4	10.0
51.415	7.0
51.43	12.0
51.445	12.0
51.46	15.0
51.475	13.0
51.49	18.0
51.505	15.0
51.52	12.0
51.535	14.0
51.551	9.0
51.566	19.0
51.581	11.0
51.596	9.0
51.611	10.0
51.626	12.0
51.641	8.0
51.656	5.0
51.671	5.0
51.686	4.0
51.701	9.0
51.716	11.0
51.732	9.0
51.747	11.0
51.762	11.0
51.777	10.0
51.792	8.0
51.807	10.0
51.822	12.0
51.837	18.0
51.852	19.0
51.867	10.0
51.882	10.0
51.898	12.0
51.913	11.0
51.928	6.0
51.943	7.0
51.958	6.0
51.973	7.0
51.988	7.0
52.003	3.0
52.018	0.0
52.033	5.0
52.048	4.0
52.064	4.0
52.079	5.0
52.094	5.0
52.109	6.0
52.124	5.0
52.139	3.0
52.154	3.0
52.169	5.0
52.184	4.0
52.199	4.0
52.215	4.0
52.23	6.0
52.245	3.0
52.26	6.0
52.275	10.0
52.29	4.0
52.305	6.0
52.32	3.0
52.335	5.0
52.35	2.0
52.366	3.0
52.381	8.0
52.396	5.0
52.411	3.0
52.426	7.0
52.441	8.0
52.456	6.0
52.471	9.0
52.486	10.0
52.502	7.0
52.517	11.0
52.532	10.0
52.547	14.0
52.562	9.0
52.577	6.0
52.592	13.0
52.607	10.0
52.622	4.0
52.637	9.0
52.653	8.0
52.668	5.0
52.683	7.0
52.698	8.0
52.713	9.0
52.728	5.0
52.743	5.0
52.758	8.0
52.774	6.0
52.789	6.0
52.804	7.0
52.819	3.0
52.834	4.0
52.849	4.0
52.864	6.0
52.879	8.0
52.894	11.0
52.91	6.0
52.925	3.0
52.94	9.0
52.955	5.0
52.97	9.0
52.985	4.0
53.0	6.0
53.015	2.0
53.031	4.0
53.046	4.0
53.061	4.0
53.076	5.0
53.091	7.0
53.106	10.0
53.121	3.0
53.136	9.0
53.152	4.0
53.167	2.0
53.182	5.0
53.197	5.0
53.212	6.0
53.227	5.0
53.242	3.0
53.257	4.0
53.273	6.0
53.288	3.0
53.303	4.0
53.318	7.0
53.333	10.0
53.348	4.0
53.363	3.0
53.379	6.0
53.394	1.0
53.409	9.0
53.424	4.0
53.439	5.0
53.454	7.0
53.469	7.0
53.484	6.0
53.5	9.0
53.515	4.0
53.53	3.0
53.545	3.0
53.56	4.0
53.575	8.0
53.59	6.0
53.606	8.0
53.621	1.0
53.636	6.0
53.651	7.0
53.666	7.0
53.681	8.0
53.696	4.0
53.712	3.0
53.727	5.0
53.742	4.0
53.757	4.0
53.772	5.0
53.787	6.0
53.802	3.0
53.818	2.0
53.833	3.0
53.848	0.0
53.863	7.0
53.878	6.0
53.893	7.0
53.909	4.0
53.924	2.0
53.939	5.0
53.954	1.0
53.969	4.0
53.984	6.0
53.999	3.0
54.015	3.0
54.03	5.0
54.045	5.0
54.06	6.0
54.075	3.0
54.09	5.0
54.106	4.0
54.121	4.0
54.136	9.0
54.151	7.0
54.166	2.0
54.181	14.0
54.197	4.0
54.212	5.0
54.227	4.0
54.242	3.0
54.257	8.0
54.272	6.0
54.288	6.0
54.303	4.0
54.318	4.0
54.333	5.0
54.348	5.0
54.363	10.0
54.379	4.0
54.394	9.0
54.409	4.0
54.424	7.0
54.439	7.0
54.454	8.0
54.47	4.0
54.485	7.0
54.5	8.0
54.515	4.0
54.53	11.0
54.545	8.0
54.561	14.0
54.576	9.0
54.591	9.0
54.606	7.0
54.621	14.0
54.636	13.0
54.652	14.0
54.667	18.0
54.682	10.0
54.697	14.0
54.712	9.0
54.727	7.0
54.743	10.0
54.758	8.0
54.773	4.0
54.788	8.0
54.803	8.0
54.819	4.0
54.834	4.0
54.849	7.0
54.864	9.0
54.879	5.0
54.894	5.0
54.91	4.0
54.925	2.0
54.94	6.0
54.955	8.0
54.97	5.0
54.985	7.0
55.001	9.0
55.016	10.0
55.031	8.0
55.046	6.0
55.061	4.0
55.077	8.0
55.092	3.0
55.107	7.0
55.122	2.0
55.137	4.0
55.152	4.0
55.168	8.0
55.183	2.0
55.198	5.0
55.213	5.0
55.228	4.0
55.243	13.0
55.259	5.0
55.274	9.0
55.289	5.0
55.304	10.0
55.319	9.0
55.335	6.0
55.35	3.0
55.365	2.0
55.38	6.0
55.395	3.0
55.41	10.0
55.426	3.0
55.441	4.0
55.456	7.0
55.471	9.0
55.486	2.0
55.501	1.0
55.517	5.0
55.532	11.0
55.547	6.0
55.562	5.0
55.577	6.0
55.592	4.0
55.608	7.0
55.623	5.0
55.638	5.0
55.653	8.0
55.668	8.0
55.683	8.0
55.699	3.0
55.714	6.0
55.729	4.0
55.744	3.0
55.759	5.0
55.774	5.0
55.79	6.0
55.805	5.0
55.82	6.0
55.835	6.0
55.85	5.0
55.865	3.0
55.881	6.0
55.896	2.0
55.911	6.0
55.926	8.0
55.941	6.0
55.956	1.0
55.972	6.0
55.987	7.0
56.002	8.0
56.017	10.0
56.032	5.0
56.047	10.0
56.063	8.0
56.078	2.0
56.093	11.0
56.108	9.0
56.123	5.0
56.138	5.0
56.154	10.0
56.169	8.0
56.184	5.0
56.199	3.0
56.214	2.0
56.229	4.0
56.244	3.0
56.26	5.0
56.275	12.0
56.29	5.0
56.305	7.0
56.32	3.0
56.335	5.0
56.351	1.0
56.366	3.0
56.381	5.0
56.396	1.0
56.411	3.0
56.426	2.0
56.441	4.0
56.457	6.0
56.472	9.0
56.487	5.0
56.502	3.0
56.517	3.0
56.532	2.0
56.547	5.0
56.563	2.0
56.578	3.0
56.593	0.0
56.608	5.0
56.623	7.0
56.638	2.0
56.653	3.0
56.668	6.0
56.684	1.0
56.699	6.0
56.714	3.0
56.729	5.0
56.744	3.0
56.759	8.0
56.774	6.0
56.79	5.0
56.805	8.0
56.82	4.0
56.835	2.0
56.85	4.0
56.865	5.0
56.88	2.0
56.895	4.0
56.911	2.0
56.926	0.0
56.941	6.0
56.956	6.0
56.971	8.0
56.986	9.0
57.001	5.0
57.016	4.0
57.031	3.0
57.047	3.0
57.062	4.0
57.077	3.0
57.092	5.0
57.107	3.0
57.122	7.0
57.137	4.0
57.152	4.0
57.167	6.0
57.183	5.0
57.198	2.0
57.213	9.0
57.228	6.0
57.243	6.0
57.258	3.0
57.273	6.0
57.288	1.0
57.303	7.0
57.318	5.0
57.334	3.0
57.349	6.0
57.364	5.0
57.379	3.0
57.394	3.0
57.409	7.0
57.424	5.0
57.439	7.0
57.454	4.0
57.469	2.0
57.484	4.0
57.5	6.0
57.515	4.0
57.53	5.0
57.545	3.0
57.56	2.0
57.575	8.0
57.59	6.0
57.605	4.0
57.62	5.0
57.635	3.0
57.65	5.0
57.665	7.0
57.68	9.0
57.696	3.0
57.711	6.0
57.726	10.0
57.741	5.0
57.756	7.0
57.771	3.0
57.786	4.0
57.801	4.0
57.816	4.0
57.831	5.0
57.846	1.0
57.861	3.0
57.876	7.0
57.891	5.0
57.906	9.0
57.921	6.0
57.937	6.0
57.952	3.0
57.967	6.0
57.982	3.0
57.997	5.0
58.012	6.0
58.027	1.0
58.042	2.0
58.057	4.0
58.072	2.0
58.087	5.0
58.102	4.0
58.117	3.0
58.132	7.0
58.147	4.0
58.162	3.0
58.177	7.0
58.192	4.0
58.207	4.0
58.222	5.0
58.237	2.0
58.252	2.0
58.267	6.0
58.282	3.0
58.297	1.0
58.312	3.0
58.327	4.0
58.342	4.0
58.357	5.0
58.372	4.0
58.387	7.0
58.402	6.0
58.418	3.0
58.433	2.0
58.448	8.0
58.463	3.0
58.478	4.0
58.493	3.0
58.508	2.0
58.523	8.0
58.538	2.0
58.553	7.0
58.568	6.0
58.583	6.0
58.598	7.0
58.613	11.0
58.628	7.0
58.643	8.0
58.658	6.0
58.673	18.0
58.688	8.0
58.703	5.0
58.718	6.0
58.733	7.0
58.748	8.0
58.763	4.0
58.778	5.0
58.793	2.0
58.808	6.0
58.823	10.0
58.838	2.0
58.853	4.0
58.868	3.0
58.883	8.0
58.898	8.0
58.913	5.0
58.928	4.0
58.942	3.0
58.957	4.0
58.972	4.0
58.987	6.0
59.002	5.0
59.017	5.0
59.032	8.0
59.047	8.0
59.062	7.0
59.077	3.0
59.092	5.0
59.107	5.0
59.122	12.0
59.137	6.0
59.152	7.0
59.167	2.0
59.182	6.0
59.197	5.0
59.212	1.0
59.227	3.0
59.242	6.0
59.257	6.0
59.272	3.0
59.287	2.0
59.302	3.0
59.317	2.0
59.332	4.0
59.347	2.0
59.362	5.0
59.377	2.0
59.392	8.0
59.407	4.0
59.422	3.0
59.437	9.0
59.452	2.0
59.467	7.0
59.482	4.0
59.497	2.0
59.512	6.0
59.527	4.0
59.542	6.0
59.557	6.0
59.572	6.0
59.587	10.0
59.602	12.0
59.617	4.0
59.632	8.0
59.647	8.0
59.661	6.0
59.676	7.0
59.691	9.0
59.706	1.0
59.721	4.0
59.736	5.0
59.751	1.0
59.766	6.0
59.781	8.0
59.796	2.0
59.811	2.0
59.826	3.0
59.841	3.0
59.856	6.0
59.871	6.0
59.886	7.0
59.901	5.0
59.916	6.0
59.931	3.0
59.946	5.0
59.961	8.0
59.976	7.0
59.991	4.0
60.006	9.0
60.021	13.0
60.036	9.0
60.051	7.0
60.066	5.0
60.081	1.0
60.096	6.0
60.111	2.0
60.126	6.0
60.141	1.0
60.156	3.0
60.171	4.0
60.186	3.0
60.201	4.0
60.216	4.0
60.231	5.0
60.246	3.0
60.261	5.0
60.276	4.0
60.291	5.0
60.306	2.0
60.321	3.0
60.336	4.0
60.35	4.0
60.365	2.0
60.38	2.0
60.395	4.0
60.41	7.0
60.425	7.0
60.44	6.0
60.455	0.0
60.47	4.0
60.485	2.0
60.5	6.0
60.515	4.0
60.53	9.0
60.545	7.0
60.56	6.0
60.575	5.0
60.59	10.0
60.605	5.0
60.62	8.0
60.635	7.0
60.65	6.0
60.665	4.0
60.68	5.0
60.695	4.0
60.71	3.0
60.725	6.0
60.74	3.0
60.755	5.0
60.77	4.0
60.785	2.0
60.8	4.0
60.815	0.0
60.83	4.0
60.845	4.0
60.86	3.0
60.875	8.0
60.89	7.0
60.905	6.0
60.92	6.0
60.935	5.0
60.95	7.0
60.965	8.0
60.98	4.0
60.995	2.0
61.01	10.0
61.025	5.0
61.04	4.0
61.055	3.0
61.07	4.0
61.085	2.0
61.1	2.0
61.115	7.0
61.13	6.0
61.145	3.0
61.16	5.0
61.175	6.0
61.191	4.0
61.206	5.0
61.221	2.0
61.236	3.0
61.251	1.0
61.266	3.0
61.281	3.0
61.296	5.0
61.311	5.0
61.326	4.0
61.341	4.0
61.356	6.0
61.371	3.0
61.386	4.0
61.401	2.0
61.416	3.0
61.431	5.0
61.446	6.0
61.461	4.0
61.476	6.0
61.491	2.0
61.506	4.0
61.521	8.0
61.536	4.0
61.551	15.0
61.566	3.0
61.581	8.0
61.596	2.0
61.611	5.0
61.626	3.0
61.641	4.0
61.656	4.0
61.672	6.0
61.687	8.0
61.702	3.0
61.717	1.0
61.732	7.0
61.747	2.0
61.762	3.0
61.777	7.0
61.792	2.0
61.807	5.0
61.822	12.0
61.837	6.0
61.852	6.0
61.867	6.0
61.882	4.0
61.897	5.0
61.912	7.0
61.927	9.0
61.943	2.0
61.958	5.0
61.973	3.0
61.988	2.0
62.003	10.0
62.018	7.0
62.033	5.0
62.048	4.0
62.063	2.0
62.078	3.0
62.093	2.0
62.108	4.0
62.123	2.0
62.138	1.0
62.153	4.0
62.169	2.0
62.184	2.0
62.199	4.0
62.214	3.0
62.229	3.0
62.244	4.0
62.259	3.0
62.274	3.0
62.289	3.0
62.304	5.0
62.319	5.0
62.335	1.0
62.35	5.0
62.365	6.0
62.38	5.0
62.395	8.0
62.41	5.0
62.425	6.0
62.44	7.0
62.455	4.0
62.47	7.0
62.485	3.0
62.501	1.0
62.516	7.0
62.531	5.0
62.546	0.0
62.561	3.0
62.576	1.0
62.591	3.0
62.606	4.0
62.621	4.0
62.636	1.0
62.652	4.0
62.667	2.0
62.682	5.0
62.697	5.0
62.712	1.0
62.727	3.0
62.742	4.0
62.757	3.0
62.772	3.0
62.787	5.0
62.803	3.0
62.818	5.0
62.833	3.0
62.848	6.0
62.863	0.0
62.878	7.0
62.893	3.0
62.908	4.0
62.923	4.0
62.939	8.0
62.954	5.0
62.969	2.0
62.984	6.0
62.999	3.0
63.014	4.0
63.029	3.0
63.044	6.0
63.059	6.0
63.074	6.0
63.09	3.0
63.105	4.0
63.12	5.0
63.135	6.0
63.15	4.0
63.165	5.0
63.18	1.0
63.195	3.0
63.21	5.0
63.226	5.0
63.241	3.0
63.256	4.0
63.271	1.0
63.286	5.0
63.301	4.0
63.316	4.0
63.331	6.0
63.346	6.0
63.362	6.0
63.377	8.0
63.392	5.0
63.407	3.0
63.422	7.0
63.437	4.0
63.452	7.0
63.467	8.0
63.482	7.0
63.497	7.0
63.513	6.0
63.528	3.0
63.543	7.0
63.558	3.0
63.573	3.0
63.588	2.0
63.603	2.0
63.618	3.0
63.633	3.0
63.648	5.0
63.664	2.0
63.679	1.0
63.694	5.0
63.709	2.0
63.724	2.0
63.739	5.0
63.754	7.0
63.769	5.0
63.784	8.0
63.799	7.0
63.814	3.0
63.83	7.0
63.845	4.0
63.86	3.0
63.875	7.0
63.89	9.0
63.905	1.0
63.92	5.0
63.935	4.0
63.95	8.0
63.965	7.0
63.98	6.0
63.996	4.0
64.011	6.0
64.026	7.0
64.041	4.0
64.056	9.0
64.071	5.0
64.086	4.0
64.101	4.0
64.116	3.0
64.131	4.0
64.146	4.0
64.161	3.0
64.176	4.0
64.191	5.0
64.207	7.0
64.222	4.0
64.237	3.0
64.252	5.0
64.267	4.0
64.282	3.0
64.297	1.0
64.312	5.0
64.327	4.0
64.342	1.0
64.357	2.0
64.372	4.0
64.387	10.0
64.402	1.0
64.417	5.0
64.433	3.0
64.448	5.0
64.463	8.0
64.478	2.0
64.493	2.0
64.508	2.0
64.523	2.0
64.538	4.0
64.553	5.0
64.568	3.0
64.583	4.0
64.598	6.0
64.613	3.0
64.628	7.0
64.643	2.0
64.658	0.0
64.673	1.0
64.688	2.0
64.703	11.0
64.718	2.0
64.734	1.0
64.749	3.0
64.764	3.0
64.779	5.0
64.794	9.0
64.809	3.0
64.824	2.0
64.839	4.0
64.854	3.0
64.869	5.0
64.884	6.0
64.899	1.0
64.914	8.0
64.929	2.0
64.944	2.0
64.959	5.0
64.974	2.0
64.989	2.0
65.004	3.0
65.019	5.0
65.034	3.0
65.049	1.0
65.064	2.0
65.079	3.0
65.094	5.0
65.109	7.0
65.125	4.0
65.14	5.0
65.155	2.0
65.17	1.0
65.185	3.0
65.2	7.0
65.215	3.0
65.23	4.0
65.245	5.0
65.26	7.0
65.275	5.0
65.29	3.0
65.305	8.0
65.32	7.0
65.335	6.0
65.35	2.0
65.365	2.0
65.38	4.0
65.395	2.0
65.41	1.0
65.425	5.0
65.44	3.0
65.455	1.0
65.47	6.0
65.485	3.0
65.5	2.0
65.515	2.0
65.53	1.0
65.545	6.0
65.56	4.0
65.575	1.0
65.59	7.0
65.605	2.0
65.62	2.0
65.635	1.0
65.65	6.0
65.666	3.0
65.681	1.0
65.696	4.0
65.711	6.0
65.726	1.0
65.741	8.0
65.756	3.0
65.771	6.0
65.786	1.0
65.801	3.0
65.816	4.0
65.831	5.0
65.846	6.0
65.861	3.0
65.876	3.0
65.891	3.0
65.906	2.0
65.921	4.0
65.936	5.0
65.951	1.0
65.966	3.0
65.981	6.0
65.996	2.0
66.011	5.0
66.026	5.0
66.041	3.0
66.056	5.0
66.071	4.0
66.086	6.0
66.101	2.0
66.116	8.0
66.131	8.0
66.146	9.0
66.161	4.0
66.176	10.0
66.191	6.0
66.206	5.0
66.221	10.0
66.236	6.0
66.251	11.0
66.266	5.0
66.281	3.0
66.296	2.0
66.311	7.0
66.327	3.0
66.342	4.0
66.357	4.0
66.372	8.0
66.387	2.0
66.402	3.0
66.417	4.0
66.432	2.0
66.447	7.0
66.462	7.0
66.477	4.0
66.492	6.0
66.507	0.0
66.522	9.0
66.537	3.0
66.552	5.0
66.567	8.0
66.582	5.0
66.597	7.0
66.612	10.0
66.627	5.0
66.642	9.0
66.657	0.0
66.672	2.0
66.687	8.0
66.702	11.0
66.717	5.0
66.732	4.0
66.747	3.0
66.762	0.0
66.777	5.0
66.792	5.0
66.807	6.0
66.822	5.0
66.837	1.0
66.853	1.0
66.868	3.0
66.883	3.0
66.898	2.0
66.913	4.0
66.928	4.0
66.943	2.0
66.958	2.0
66.973	1.0
66.988	3.0
67.003	3.0
67.018	4.0
67.033	3.0
67.048	1.0
67.063	4.0
67.078	6.0
67.093	3.0
67.108	10.0
67.123	5.0
67.138	7.0
67.153	8.0
67.168	2.0
67.183	6.0
67.198	4.0
67.214	5.0
67.229	5.0
67.244	4.0
67.259	6.0
67.274	6.0
67.289	2.0
67.304	2.0
67.319	5.0
67.334	0.0
67.349	4.0
67.364	5.0
67.379	5.0
67.394	3.0
67.409	4.0
67.424	1.0
67.439	4.0
67.454	3.0
67.469	5.0
67.484	7.0
67.5	5.0
67.515	7.0
67.53	2.0
67.545	4.0
67.56	5.0
67.575	4.0
67.59	3.0
67.605	11.0
67.62	3.0
67.635	10.0
67.65	2.0
67.665	2.0
67.68	1.0
67.695	2.0
67.71	3.0
67.726	2.0
67.741	3.0
67.756	4.0
67.771	3.0
67.786	3.0
67.801	6.0
67.816	4.0
67.831	2.0
67.846	2.0
67.861	3.0
67.876	3.0
67.891	5.0
67.906	4.0
67.922	4.0
67.937	4.0
67.952	1.0
67.967	2.0
67.982	3.0
67.997	3.0
68.012	8.0
68.027	2.0
68.042	5.0
68.057	6.0
68.072	2.0
68.087	3.0
68.103	5.0
68.118	4.0
68.133	2.0
68.148	5.0
68.163	5.0
68.178	7.0
68.193	6.0
68.208	6.0
68.223	5.0
68.238	5.0
68.254	2.0
68.269	2.0
68.284	0.0
68.299	6.0
68.314	6.0
68.329	4.0
68.344	4.0
68.359	4.0
68.374	3.0
68.389	4.0
68.405	7.0
68.42	2.0
68.435	4.0
68.45	5.0
68.465	6.0
68.48	4.0
68.495	2.0
68.51	7.0
68.525	5.0
68.54	5.0
68.556	0.0
68.571	5.0
68.586	2.0
68.601	3.0
68.616	1.0
68.631	3.0
68.646	3.0
68.661	5.0
68.676	0.0
68.691	4.0
68.707	2.0
68.722	5.0
68.737	3.0
68.752	5.0
68.767	4.0
68.782	4.0
68.797	3.0
68.812	2.0
68.827	6.0
68.842	4.0
68.857	6.0
68.873	4.0
68.888	3.0
68.903	7.0
68.918	5.0
68.933	4.0
68.948	4.0
68.963	2.0
68.978	3.0
68.993	4.0
69.008	2.0
69.023	4.0
69.038	2.0
69.054	3.0
69.069	4.0
69.084	3.0
69.099	3.0
69.114	1.0
69.129	4.0
69.144	4.0
69.159	3.0
69.174	3.0
69.189	0.0
69.204	3.0
69.219	4.0
69.234	3.0
69.249	4.0
69.264	6.0
69.279	2.0
69.295	2.0
69.31	2.0
69.325	1.0
69.34	3.0
69.355	2.0
69.37	3.0
69.385	2.0
69.4	3.0
69.415	3.0
69.43	3.0
69.445	0.0
69.46	5.0
69.475	8.0
69.49	1.0
69.505	4.0
69.52	1.0
69.535	5.0
69.55	8.0
69.565	4.0
69.58	3.0
69.595	4.0
69.61	4.0
69.625	2.0
69.64	4.0
69.655	3.0
69.67	7.0
69.685	4.0
69.7	4.0
69.715	3.0
69.73	7.0
69.745	7.0
69.76	3.0
69.775	5.0
69.79	14.0
69.805	6.0
69.82	8.0
69.835	10.0
69.85	3.0
69.865	4.0
69.88	3.0
69.895	6.0
69.909	2.0
69.924	6.0
69.939	6.0
69.954	0.0
69.969	4.0
69.984	2.0
69.999	8.0
70.014	3.0
70.029	4.0
70.044	5.0
70.059	6.0
70.074	4.0
70.088	6.0
70.103	5.0
70.118	6.0
70.133	6.0
70.148	3.0
70.163	3.0
70.178	3.0
70.193	2.0
70.208	2.0
70.222	9.0
70.237	8.0
70.252	5.0
70.267	6.0
70.282	6.0
70.297	8.0
70.312	7.0
70.327	7.0
70.341	7.0
70.356	2.0
70.371	2.0
70.386	3.0
70.401	1.0
70.416	3.0
70.43	6.0
70.445	3.0
70.46	2.0
70.475	1.0
70.49	4.0
70.505	2.0
70.519	3.0
70.534	2.0
70.549	6.0
70.564	5.0
70.579	3.0
70.594	3.0
70.608	3.0
70.623	4.0
70.638	6.0
70.653	5.0
70.668	3.0
70.683	7.0
70.697	4.0
70.712	2.0
70.727	4.0
70.742	6.0
70.757	2.0
70.771	6.0
70.786	5.0
70.801	6.0
70.816	8.0
70.831	2.0
70.845	3.0
70.86	5.0
70.875	2.0
70.89	3.0
70.905	6.0
70.92	3.0
70.934	4.0
70.949	5.0
70.964	1.0
70.979	3.0
70.994	4.0
71.008	1.0
71.023	1.0
71.038	1.0
71.053	4.0
71.068	2.0
71.082	4.0
71.097	3.0
71.112	7.0
71.127	2.0
71.142	6.0
71.156	7.0
71.171	4.0
71.186	6.0
71.201	2.0
71.216	5.0
71.231	3.0
71.245	6.0
71.26	1.0
71.275	4.0
71.29	0.0
71.305	2.0
71.319	4.0
71.334	2.0
71.349	4.0
71.364	3.0
71.379	0.0
71.394	3.0
71.408	4.0
71.423	4.0
71.438	1.0
71.453	1.0
71.468	4.0
71.483	1.0
71.497	2.0
71.512	4.0
71.527	5.0
71.542	2.0
71.557	4.0
71.572	4.0
71.586	0.0
71.601	3.0
71.616	4.0
71.631	3.0
71.646	8.0
71.661	1.0
71.676	0.0
71.69	4.0
71.705	2.0
71.72	2.0
71.735	2.0
71.75	6.0
71.765	3.0
71.78	4.0
71.795	3.0
71.81	3.0
71.824	2.0
71.839	4.0
71.854	4.0
71.869	3.0
71.884	4.0
71.899	3.0
71.914	9.0
71.929	2.0
71.944	4.0
71.959	6.0
71.974	3.0
71.988	3.0
72.003	1.0
72.018	4.0
72.033	4.0
72.048	2.0
72.063	6.0
72.078	1.0
72.093	5.0
72.108	2.0
72.123	2.0
72.138	2.0
72.153	6.0
72.168	5.0
72.183	6.0
72.198	5.0
72.213	4.0
72.228	3.0
72.243	2.0
72.258	3.0
72.273	1.0
72.288	2.0
72.303	2.0
72.318	0.0
72.333	2.0
72.348	4.0
72.363	4.0
72.378	2.0
72.393	4.0
72.408	5.0
72.423	5.0
72.438	3.0
72.453	4.0
72.468	1.0
72.483	4.0
72.498	5.0
72.513	3.0
72.528	2.0
72.543	6.0
72.558	1.0
72.573	3.0
72.588	1.0
72.603	2.0
72.618	1.0
72.633	2.0
72.649	4.0
72.664	0.0
72.679	3.0
72.694	3.0
72.709	3.0
72.724	2.0
72.739	4.0
72.754	5.0
72.769	5.0
72.784	6.0
72.799	2.0
72.814	3.0
72.829	1.0
72.845	1.0
72.86	0.0
72.875	3.0
72.89	6.0
72.905	1.0
72.92	5.0
72.935	8.0
72.95	0.0
72.965	3.0
72.98	2.0
72.996	5.0
73.011	1.0
73.026	1.0
73.041	3.0
73.056	2.0
73.071	3.0
73.086	3.0
73.101	4.0
73.117	11.0
73.132	5.0
73.147	4.0
73.162	3.0
73.177	1.0
73.192	2.0
73.207	2.0
73.222	3.0
73.238	3.0
73.253	2.0
73.268	6.0
73.283	1.0
73.298	5.0
73.313	2.0
73.328	2.0
73.343	2.0
73.359	7.0
73.374	5.0
73.389	4.0
73.404	3.0
73.419	8.0
73.434	3.0
73.449	3.0
73.465	2.0
73.48	3.0
73.495	4.0
73.51	3.0
73.525	2.0
73.54	1.0
73.556	5.0
73.571	4.0
73.586	4.0
73.601	3.0
73.616	3.0
73.631	2.0
73.646	3.0
73.662	1.0
73.677	1.0
73.692	1.0
73.707	5.0
73.722	4.0
73.737	5.0
73.752	3.0
73.768	4.0
73.783	1.0
73.798	2.0
73.813	2.0
73.828	5.0
73.843	2.0
73.859	4.0
73.874	3.0
73.889	2.0
73.904	3.0
73.919	5.0
73.934	6.0
73.949	7.0
73.965	1.0
73.98	4.0
73.995	1.0
74.01	1.0
74.025	0.0
74.04	3.0
74.056	5.0
74.071	2.0
74.086	4.0
74.101	5.0
74.116	2.0
74.131	6.0
74.146	5.0
74.162	6.0
74.177	4.0
74.192	3.0
74.207	9.0
74.222	6.0
74.237	5.0
74.252	5.0
74.268	9.0
74.283	4.0
74.298	7.0
74.313	5.0
74.328	3.0
74.343	6.0
74.358	6.0
74.374	4.0
74.389	5.0
74.404	3.0
74.419	1.0
74.434	4.0
74.449	1.0
74.464	2.0
74.48	2.0
74.495	2.0
74.51	6.0
74.525	4.0
74.54	3.0
74.555	1.0
74.57	4.0
74.586	5.0
74.601	3.0
74.616	2.0
74.631	4.0
74.646	4.0
74.661	5.0
74.676	4.0
74.691	4.0
74.707	4.0
74.722	3.0
74.737	3.0
74.752	2.0
74.767	6.0
74.782	2.0
74.797	7.0
74.813	2.0
74.828	7.0
74.843	3.0
74.858	6.0
74.873	3.0
74.888	4.0
74.903	2.0
74.918	4.0
74.934	6.0
74.949	3.0
74.964	7.0
74.979	6.0
74.994	6.0
75.009	3.0
75.024	8.0
75.04	9.0
75.055	7.0
75.07	6.0
75.085	6.0
75.1	1.0
75.115	8.0
75.13	3.0
75.145	2.0
75.161	3.0
75.176	6.0
75.191	5.0
75.206	2.0
75.221	3.0
75.236	4.0
75.251	1.0
75.266	4.0
75.282	4.0
75.297	4.0
75.312	9.0
75.327	2.0
75.342	1.0
75.357	2.0
75.372	2.0
75.387	4.0
75.403	3.0
75.418	5.0
75.433	6.0
75.448	1.0
75.463	7.0
75.478	4.0
75.493	2.0
75.509	6.0
75.524	1.0
75.539	8.0
75.554	5.0
75.569	7.0
75.584	4.0
75.599	6.0
75.614	5.0
75.63	8.0
75.645	6.0
75.66	3.0
75.675	3.0
75.69	3.0
75.705	1.0
75.72	3.0
75.735	1.0
75.751	3.0
75.766	4.0
75.781	4.0
75.796	4.0
75.811	2.0
75.826	1.0
75.841	4.0
75.856	3.0
75.872	1.0
75.887	2.0
75.902	3.0
75.917	3.0
75.932	6.0
75.947	7.0
75.962	12.0
75.977	1.0
75.993	3.0
76.008	1.0
76.023	2.0
76.038	10.0
76.053	4.0
76.068	3.0
76.083	5.0
76.098	2.0
76.114	1.0
76.129	2.0
76.144	1.0
76.159	5.0
76.174	4.0
76.189	3.0
76.204	4.0
76.22	5.0
76.235	3.0
76.25	8.0
76.265	3.0
76.28	2.0
76.295	5.0
76.31	1.0
76.325	1.0
76.341	4.0
76.356	5.0
76.371	5.0
76.386	1.0
76.401	2.0
76.416	4.0
76.431	5.0
76.446	2.0
76.462	6.0
76.477	8.0
76.492	2.0
76.507	3.0
76.522	3.0
76.537	4.0
76.552	3.0
76.567	2.0
76.583	0.0
76.598	6.0
76.613	2.0
76.628	2.0
76.643	4.0
76.658	3.0
76.673	2.0
76.688	3.0
76.704	2.0
76.719	5.0
76.734	6.0
76.749	3.0
76.764	6.0
76.779	6.0
76.794	3.0
76.809	3.0
76.824	2.0
76.84	4.0
76.855	1.0
76.87	7.0
76.885	1.0
76.9	4.0
76.915	0.0
76.93	3.0
76.945	4.0
76.96	1.0
76.976	3.0
76.991	4.0
77.006	1.0
77.021	4.0
77.036	6.0
77.051	7.0
77.066	3.0
77.081	7.0
77.096	3.0
77.112	6.0
77.127	3.0
77.142	2.0
77.157	3.0
77.172	5.0
77.187	7.0
77.202	3.0
77.217	8.0
77.232	7.0
77.247	5.0
77.263	3.0
77.278	0.0
77.293	2.0
77.308	4.0
77.323	3.0
77.338	1.0
77.353	9.0
77.368	4.0
77.383	2.0
77.398	4.0
77.413	6.0
77.428	2.0
77.444	3.0
77.459	2.0
77.474	3.0
77.489	1.0
77.504	5.0
77.519	6.0
77.534	7.0
77.549	2.0
77.564	6.0
77.579	3.0
77.594	4.0
77.609	8.0
77.624	13.0
77.64	6.0
77.655	5.0
77.67	6.0
77.685	9.0
77.7	4.0
77.715	4.0
77.73	5.0
77.745	4.0
77.76	5.0
77.775	3.0
77.79	3.0
77.805	1.0
77.82	0.0
77.835	4.0
77.85	4.0
77.865	6.0
77.88	1.0
77.895	2.0
77.91	1.0
77.926	5.0
77.941	3.0
77.956	0.0
77.971	0.0
77.986	3.0
78.001	6.0
78.016	3.0
78.031	2.0
78.046	7.0
78.061	5.0
78.076	3.0
78.091	5.0
78.106	4.0
78.121	4.0
78.136	3.0
78.151	3.0
78.166	10.0
78.181	5.0
78.196	2.0
78.211	5.0
78.226	8.0
78.241	4.0
78.256	3.0
78.271	3.0
78.286	1.0
78.301	7.0
78.316	2.0
78.331	5.0
78.346	7.0
78.361	4.0
78.376	4.0
78.391	1.0
78.406	3.0
78.421	0.0
78.436	2.0
78.451	2.0
78.466	4.0
78.481	3.0
78.496	2.0
78.511	1.0
78.526	3.0
78.541	3.0
78.556	1.0
78.571	5.0
78.586	2.0
78.601	2.0
78.616	2.0
78.631	2.0
78.646	1.0
78.661	7.0
78.676	1.0
78.691	1.0
78.706	1.0
78.721	4.0
78.736	3.0
78.751	5.0
78.766	2.0
78.781	2.0
78.796	5.0
78.811	2.0
78.826	3.0
78.841	3.0
78.856	1.0
78.871	5.0
78.885	3.0
78.9	1.0
78.915	1.0
78.93	4.0
78.945	3.0
78.96	6.0
78.975	2.0
78.99	1.0
79.005	5.0
79.02	2.0
79.035	4.0
79.05	3.0
79.065	4.0
79.08	3.0
79.095	1.0
79.11	3.0
79.125	2.0
79.14	1.0
79.155	0.0
79.17	3.0
79.185	0.0
79.2	5.0
79.215	7.0
79.23	1.0
79.245	8.0
79.26	3.0
79.275	4.0
79.29	5.0
79.304	0.0
79.319	5.0
79.334	3.0
79.349	3.0
79.364	5.0
79.379	6.0
79.394	2.0
79.409	2.0
79.424	0.0
79.439	2.0
79.454	3.0
79.469	5.0
79.484	2.0
79.499	2.0
79.514	4.0
79.529	1.0
79.544	3.0
79.559	2.0
79.574	3.0
79.589	4.0
79.604	7.0
79.619	3.0
79.634	5.0
79.649	2.0
79.664	3.0
79.679	3.0
79.693	1.0
79.708	5.0
79.723	4.0
79.738	3.0
79.753	1.0
79.768	4.0
79.783	1.0
79.798	0.0
79.813	3.0
79.828	3.0
79.843	2.0
79.858	3.0
79.873	3.0
79.888	4.0
79.903	3.0
79.918	2.0
79.933	3.0
79.948	3.0
79.963	3.0
79.978	3.0
79.993	1.0
80.008	5.0
80.023	4.0
80.038	4.0
80.053	2.0
80.068	3.0
80.083	6.0
80.098	5.0
80.113	4.0
80.128	2.0
80.143	3.0
80.158	3.0
80.173	2.0
80.188	1.0
80.202	7.0
80.217	4.0
80.232	2.0
80.247	5.0
80.262	3.0
80.277	6.0
80.292	5.0
80.307	10.0
80.322	1.0
80.337	6.0
80.352	6.0
80.367	3.0
80.382	2.0
80.397	2.0
80.412	2.0
80.427	3.0
80.442	3.0
80.457	2.0
80.472	1.0
80.487	2.0
80.502	1.0
80.517	2.0
80.532	6.0
80.547	2.0
80.562	2.0
80.577	4.0
80.592	8.0
80.607	2.0
80.622	2.0
80.637	2.0
80.652	5.0
80.667	5.0
80.682	4.0
80.697	3.0
80.712	3.0
80.727	1.0
80.742	4.0
80.757	4.0
80.772	2.0
80.787	3.0
80.802	0.0
80.817	1.0
80.832	2.0
80.847	1.0
80.862	3.0
80.877	4.0
80.892	4.0
80.907	4.0
80.922	3.0
80.937	4.0
80.952	5.0
80.967	4.0
80.982	7.0
80.997	1.0
81.012	4.0
81.027	2.0
81.042	2.0
81.057	7.0
81.072	1.0
81.087	3.0
81.101	1.0
81.116	3.0
81.131	2.0
81.146	1.0
81.161	2.0
81.176	3.0
81.191	3.0
81.206	0.0
81.221	1.0
81.236	2.0
81.251	3.0
81.266	2.0
81.281	2.0
81.296	1.0
81.311	2.0
81.326	2.0
81.341	6.0
81.356	5.0
81.371	2.0
81.386	3.0
81.401	6.0
81.416	2.0
81.431	3.0
81.446	7.0
81.461	2.0
81.476	0.0
81.491	4.0
81.506	1.0
81.521	2.0
81.536	2.0
81.55	3.0
81.565	5.0
81.58	6.0
81.595	4.0
81.61	6.0
81.625	5.0
81.64	7.0
81.655	1.0
81.67	2.0
81.685	1.0
81.7	2.0
81.715	1.0
81.73	1.0
81.745	2.0
81.76	2.0
81.775	5.0
81.79	5.0
81.805	2.0
81.819	2.0
81.834	3.0
81.849	4.0
81.864	6.0
81.879	5.0
81.894	6.0
81.909	3.0
81.924	3.0
81.939	6.0
81.954	5.0
81.969	1.0
81.984	1.0
81.999	1.0
82.013	0.0
82.028	3.0
82.043	7.0
82.058	1.0
82.073	3.0
82.088	4.0
82.103	1.0
82.118	1.0
82.133	3.0
82.148	2.0
82.163	5.0
82.177	4.0
82.192	5.0
82.207	3.0
82.222	4.0
82.237	4.0
82.252	3.0
82.267	1.0
82.282	3.0
82.297	4.0
82.312	2.0
82.326	4.0
82.341	1.0
82.356	2.0
82.371	2.0
82.386	2.0
82.401	3.0
82.416	2.0
82.431	4.0
82.445	3.0
82.46	7.0
82.475	3.0
82.49	6.0
82.505	4.0
82.52	4.0
82.535	3.0
82.55	4.0
82.565	4.0
82.579	3.0
82.594	4.0
82.609	3.0
82.624	5.0
82.639	2.0
82.654	4.0
82.669	2.0
82.684	3.0
82.698	1.0
82.713	6.0
82.728	3.0
82.743	3.0
82.758	2.0
82.773	2.0
82.788	1.0
82.803	2.0
82.817	2.0
82.832	3.0
82.847	1.0
82.862	1.0
82.877	2.0
82.892	3.0
82.907	2.0
82.922	2.0
82.937	2.0
82.951	3.0
82.966	4.0
82.981	4.0
82.996	3.0
83.011	5.0
83.026	1.0
83.041	5.0
83.056	3.0
83.07	4.0
83.085	5.0
83.1	2.0
83.115	4.0
83.13	2.0
83.145	3.0
83.16	3.0
83.175	1.0
83.19	3.0
83.204	5.0
83.219	4.0
83.234	3.0
83.249	0.0
83.264	2.0
83.279	1.0
83.294	2.0
83.309	4.0
83.324	2.0
83.339	1.0
83.353	2.0
83.368	5.0
83.383	2.0
83.398	2.0
83.413	8.0
83.428	7.0
83.443	2.0
83.458	5.0
83.473	5.0
83.488	5.0
83.503	3.0
83.517	4.0
83.532	7.0
83.547	7.0
83.562	4.0
83.577	3.0
83.592	3.0
83.607	2.0
83.622	1.0
83.637	2.0
83.652	4.0
83.667	5.0
83.682	1.0
83.697	3.0
83.712	4.0
83.727	6.0
83.741	3.0
83.756	5.0
83.771	4.0
83.786	3.0
83.801	3.0
83.816	5.0
83.831	0.0
83.846	5.0
83.861	4.0
83.876	4.0
83.891	4.0
83.906	2.0
83.921	3.0
83.936	1.0
83.951	0.0
83.966	3.0
83.981	0.0
83.996	2.0
84.011	0.0
84.026	5.0
84.041	5.0
84.056	3.0
84.071	5.0
84.086	5.0
84.101	1.0
84.116	2.0
84.131	4.0
84.146	6.0
84.161	2.0
84.176	7.0
84.191	6.0
84.206	4.0
84.221	4.0
84.236	2.0
84.251	3.0
84.266	3.0
84.281	2.0
84.296	6.0
84.311	2.0
84.326	7.0
84.341	4.0
84.356	1.0
84.371	5.0
84.386	4.0
84.401	1.0
84.416	4.0
84.431	2.0
84.446	2.0
84.461	4.0
84.476	4.0
84.492	4.0
84.507	4.0
84.522	4.0
84.537	5.0
84.552	5.0
84.567	2.0
84.582	3.0
84.597	5.0
84.612	3.0
84.627	1.0
84.642	1.0
84.657	3.0
84.672	6.0
84.687	7.0
84.702	2.0
84.717	3.0
84.733	4.0
84.748	2.0
84.763	2.0
84.778	6.0
84.793	1.0
84.808	0.0
84.823	1.0
84.838	4.0
84.853	6.0
84.868	0.0
84.883	1.0
84.898	3.0
84.913	0.0
84.929	4.0
84.944	4.0
84.959	3.0
84.974	2.0
84.989	1.0
85.004	1.0
85.019	4.0
85.034	5.0
85.049	6.0
85.064	3.0
85.079	8.0
85.094	3.0
85.11	6.0
85.125	4.0
85.14	1.0
85.155	5.0
85.17	4.0
85.185	9.0
85.2	2.0
85.215	0.0
85.23	2.0
85.245	3.0
85.26	5.0
85.276	5.0
85.291	2.0
85.306	4.0
85.321	1.0
85.336	2.0
85.351	1.0
85.366	2.0
85.381	3.0
85.396	6.0
85.411	4.0
85.426	2.0
85.441	2.0
85.457	1.0
85.472	1.0
85.487	3.0
85.502	4.0
85.517	2.0
85.532	4.0
85.547	5.0
85.562	1.0
85.577	3.0
85.592	5.0
85.607	4.0
85.622	5.0
85.637	3.0
85.653	4.0
85.668	5.0
85.683	3.0
85.698	3.0
85.713	1.0
85.728	3.0
85.743	1.0
85.758	2.0
85.773	7.0
85.788	0.0
85.803	4.0
85.818	4.0
85.833	3.0
85.848	3.0
85.863	2.0
85.879	1.0
85.894	2.0
85.909	2.0
85.924	1.0
85.939	1.0
85.954	5.0
85.969	7.0
85.984	2.0
85.999	5.0
86.014	1.0
86.029	6.0
86.044	4.0
86.059	0.0
86.074	1.0
86.089	2.0
86.104	4.0
86.119	2.0
86.134	0.0
86.149	3.0
86.164	1.0
86.179	4.0
86.194	1.0
86.209	6.0
86.224	3.0
86.239	7.0
86.254	4.0
86.269	2.0
86.284	5.0
86.299	3.0
86.314	8.0
86.33	4.0
86.345	5.0
86.36	4.0
86.375	8.0
86.39	5.0
86.405	3.0
86.42	1.0
86.435	1.0
86.45	0.0
86.465	2.0
86.48	1.0
86.495	0.0
86.51	1.0
86.525	3.0
86.54	2.0
86.555	3.0
86.57	5.0
86.585	5.0
86.6	5.0
86.615	2.0
86.63	5.0
86.645	3.0
86.659	3.0
86.674	2.0
86.689	5.0
86.704	2.0
86.719	1.0
86.734	3.0
86.749	0.0
86.764	2.0
86.779	2.0
86.794	2.0
86.809	1.0
86.824	1.0
86.839	2.0
86.854	7.0
86.869	4.0
86.884	7.0
86.899	3.0
86.914	6.0
86.929	6.0
86.944	2.0
86.959	3.0
86.974	3.0
86.989	3.0
87.004	4.0
87.019	6.0
87.034	2.0
87.049	1.0
87.064	6.0
87.079	5.0
87.094	4.0
87.109	1.0
87.124	5.0
87.139	2.0
87.154	2.0
87.169	1.0
87.184	3.0
87.199	1.0
87.214	5.0
87.229	1.0
87.244	3.0
87.259	4.0
87.274	5.0
87.289	2.0
87.304	8.0
87.319	5.0
87.334	3.0
87.349	1.0
87.364	2.0
87.379	3.0
87.394	4.0
87.409	0.0
87.424	5.0
87.438	2.0
87.453	4.0
87.468	5.0
87.483	5.0
87.498	2.0
87.513	2.0
87.528	3.0
87.543	5.0
87.558	5.0
87.573	3.0
87.588	7.0
87.603	2.0
87.618	1.0
87.633	4.0
87.648	1.0
87.663	4.0
87.678	1.0
87.693	5.0
87.708	6.0
87.723	6.0
87.738	1.0
87.753	3.0
87.768	1.0
87.783	2.0
87.798	3.0
87.813	5.0
87.828	3.0
87.843	3.0
87.858	2.0
87.873	6.0
87.888	3.0
87.903	2.0
87.918	2.0
87.933	8.0
87.948	3.0
87.963	1.0
87.978	1.0
87.993	1.0
88.008	5.0
88.023	5.0
88.038	5.0
88.053	3.0
88.068	0.0
88.083	0.0
88.098	6.0
88.113	3.0
88.128	4.0
88.143	2.0
88.158	3.0
88.174	5.0
88.189	1.0
88.204	2.0
88.219	1.0
88.234	3.0
88.249	1.0
88.264	3.0
88.279	1.0
88.294	3.0
88.309	4.0
88.324	1.0
88.339	4.0
88.354	4.0
88.369	7.0
88.384	4.0
88.399	4.0
88.414	1.0
88.429	6.0
88.444	2.0
88.459	3.0
88.474	4.0
88.489	1.0
88.504	4.0
88.519	7.0
88.534	2.0
88.549	2.0
88.564	4.0
88.58	5.0
88.595	3.0
88.61	2.0
88.625	3.0
88.64	4.0
88.655	3.0
88.67	9.0
88.685	3.0
88.7	1.0
88.715	5.0
88.73	3.0
88.745	5.0
88.76	1.0
88.775	3.0
88.79	0.0
88.805	2.0
88.82	3.0
88.835	2.0
88.85	4.0
88.865	4.0
88.88	4.0
88.895	0.0
88.911	4.0
88.926	4.0
88.941	2.0
88.956	2.0
88.971	3.0
88.986	1.0
89.001	6.0
89.016	4.0
89.031	3.0
89.046	1.0
89.061	3.0
89.076	1.0
89.091	0.0
89.106	0.0
89.121	3.0
89.136	2.0
89.151	2.0
89.166	1.0
89.181	4.0
89.196	2.0
89.211	7.0
89.227	4.0
89.242	3.0
89.257	1.0
89.272	6.0
89.287	4.0
89.302	1.0
89.317	3.0
89.332	3.0
89.347	6.0
89.362	4.0
89.377	1.0
89.392	7.0
89.407	3.0
89.422	2.0
89.437	6.0
89.452	3.0
89.467	2.0
89.482	5.0
89.497	2.0
89.512	2.0
89.527	5.0
89.542	3.0
89.557	3.0
89.572	1.0
89.587	5.0
89.602	4.0
89.617	1.0
89.632	1.0
89.647	5.0
89.662	4.0
89.677	1.0
89.693	3.0
89.708	4.0
89.723	2.0
89.738	7.0
89.753	3.0
89.768	4.0
89.783	4.0
89.798	5.0
89.813	2.0
89.828	2.0
89.843	0.0
89.858	4.0
89.873	5.0
89.888	4.0
89.903	7.0
89.918	2.0
89.933	2.0
89.948	2.0
89.963	3.0
89.978	11.0
89.993	4.0
90.008	4.0
90.023	1.0
90.038	3.0
90.053	4.0
90.068	3.0
90.083	1.0
90.097	5.0
90.112	3.0
90.127	4.0
90.142	0.0
90.157	7.0
90.172	4.0
90.187	4.0
90.202	5.0
90.217	6.0
90.232	5.0
90.247	5.0
90.262	6.0
90.277	3.0
90.292	5.0
90.307	5.0
90.322	8.0
90.337	5.0
90.352	1.0
90.367	3.0
90.382	3.0
90.397	5.0
90.412	2.0
90.427	1.0
90.442	2.0
90.457	6.0
90.472	3.0
90.487	2.0
90.501	1.0
90.516	1.0
90.531	1.0
90.546	2.0
90.561	3.0
90.576	3.0
90.591	3.0
90.606	3.0
90.621	3.0
90.636	1.0
90.651	2.0
90.666	1.0
90.681	4.0
90.696	3.0
90.711	6.0
90.726	6.0
90.741	4.0
90.755	3.0
90.77	3.0
90.785	0.0
90.8	2.0
90.815	2.0
90.83	4.0
90.845	4.0
90.86	1.0
90.875	5.0
90.89	0.0
90.905	6.0
90.92	1.0
90.935	5.0
90.95	5.0
90.965	3.0
90.979	4.0
90.994	1.0
91.009	2.0
91.024	4.0
91.039	5.0
91.054	5.0
91.069	4.0
91.084	3.0
91.099	4.0
91.114	2.0
91.129	2.0
91.144	6.0
91.159	7.0
91.174	6.0
91.188	3.0
91.203	4.0
91.218	3.0
91.233	3.0
91.248	6.0
91.263	3.0
91.278	3.0
91.293	1.0
91.308	1.0
91.323	0.0
91.338	2.0
91.353	4.0
91.368	2.0
91.383	7.0
91.398	2.0
91.412	0.0
91.427	5.0
91.442	3.0
91.457	1.0
91.472	0.0
91.487	3.0
91.502	1.0
91.517	4.0
91.532	1.0
91.547	1.0
91.562	4.0
91.577	2.0
91.592	3.0
91.607	1.0
91.622	2.0
91.637	1.0
91.652	2.0
91.666	5.0
91.681	4.0
91.696	1.0
91.711	4.0
91.726	4.0
91.741	2.0
91.756	5.0
91.771	1.0
91.786	5.0
91.801	3.0
91.816	1.0
91.831	0.0
91.846	4.0
91.861	2.0
91.876	3.0
91.891	4.0
91.906	4.0
91.921	4.0
91.936	5.0
91.951	2.0
91.966	5.0
91.981	5.0
91.995	2.0
92.01	2.0
92.025	2.0
92.04	3.0
92.055	3.0
92.07	3.0
92.085	4.0
92.1	3.0
92.115	5.0
92.13	4.0
92.145	5.0
92.16	0.0
92.175	6.0
92.19	8.0
92.205	3.0
92.22	4.0
92.235	6.0
92.25	5.0
92.265	2.0
92.28	0.0
92.295	4.0
92.31	0.0
92.325	3.0
92.34	1.0
92.355	5.0
92.37	4.0
92.385	6.0
92.4	6.0
92.415	2.0
92.43	4.0
92.445	2.0
92.46	4.0
92.475	4.0
92.49	1.0
92.505	3.0
92.52	3.0
92.535	5.0
92.55	2.0
92.565	3.0
92.58	2.0
92.595	6.0
92.61	3.0
92.625	4.0
92.64	4.0
92.655	5.0
92.67	0.0
92.685	1.0
92.7	5.0
92.715	4.0
92.73	0.0
92.745	3.0
92.76	4.0
92.775	4.0
92.79	4.0
92.805	2.0
92.82	2.0
92.835	1.0
92.85	1.0
92.865	4.0
92.88	3.0
92.895	3.0
92.91	2.0
92.925	3.0
92.94	4.0
92.955	4.0
92.97	1.0
92.985	0.0
93.0	4.0
93.015	2.0
93.03	1.0
93.045	1.0
93.06	2.0
93.075	2.0
93.09	4.0
93.105	3.0
93.12	3.0
93.135	1.0
93.15	3.0
93.165	4.0
93.18	3.0
93.195	5.0
93.21	1.0
93.225	1.0
93.24	4.0
93.255	3.0
93.27	1.0
93.285	3.0
93.3	2.0
93.315	4.0
93.33	1.0
93.345	1.0
93.36	2.0
93.375	1.0
93.39	3.0
93.405	7.0
93.42	3.0
93.435	6.0
93.45	0.0
93.465	4.0
93.48	2.0
93.495	1.0
93.51	1.0
93.525	1.0
93.54	3.0
93.555	3.0
93.57	7.0
93.585	3.0
93.6	5.0
93.615	2.0
93.63	1.0
93.645	3.0
93.66	2.0
93.675	4.0
93.69	4.0
93.705	5.0
93.72	2.0
93.735	1.0
93.75	2.0
93.765	2.0
93.78	3.0
93.795	1.0
93.81	2.0
93.824	1.0
93.839	2.0
93.854	4.0
93.869	3.0
93.884	3.0
93.899	4.0
93.914	5.0
93.929	4.0
93.944	4.0
93.959	2.0
93.974	6.0
93.989	2.0
94.004	2.0
94.019	3.0
94.034	0.0
94.049	3.0
94.064	1.0
94.079	2.0
94.094	5.0
94.108	4.0
94.123	7.0
94.138	3.0
94.153	6.0
94.168	5.0
94.183	3.0
94.198	1.0
94.213	5.0
94.228	4.0
94.243	2.0
94.258	3.0
94.273	3.0
94.288	2.0
94.302	1.0
94.317	0.0
94.332	9.0
94.347	4.0
94.362	1.0
94.377	4.0
94.392	2.0
94.407	6.0
94.422	2.0
94.437	2.0
94.452	5.0
94.466	3.0
94.481	2.0
94.496	0.0
94.511	1.0
94.526	4.0
94.541	3.0
94.556	2.0
94.571	5.0
94.586	3.0
94.601	3.0
94.615	0.0
94.63	4.0
94.645	3.0
94.66	4.0
94.675	4.0
94.69	7.0
94.705	3.0
94.72	4.0
94.735	3.0
94.749	3.0
94.764	2.0
94.779	1.0
94.794	5.0
94.809	3.0
94.824	2.0
94.839	3.0
94.854	5.0
94.868	5.0
94.883	2.0
94.898	4.0
94.913	3.0
94.928	2.0
94.943	6.0
94.958	1.0
94.973	3.0
94.987	3.0
95.002	3.0
95.017	2.0
95.032	4.0
95.047	7.0
95.062	4.0
95.077	3.0
95.092	5.0
95.106	2.0
95.121	7.0
95.136	4.0
95.151	5.0
95.166	2.0
95.181	4.0
95.196	2.0
95.211	4.0
95.226	5.0
95.24	4.0
95.255	5.0
95.27	6.0
95.285	6.0
95.3	2.0
95.315	2.0
95.33	5.0
95.345	6.0
95.359	5.0
95.374	6.0
95.389	4.0
95.404	4.0
95.419	1.0
95.434	2.0
95.449	5.0
95.464	4.0
95.478	2.0
95.493	2.0
95.508	5.0
95.523	0.0
95.538	4.0
95.553	1.0
95.568	2.0
95.583	4.0
95.597	0.0
95.612	4.0
95.627	6.0
95.642	3.0
95.657	4.0
95.672	0.0
95.687	4.0
95.702	1.0
95.717	4.0
95.731	2.0
95.746	1.0
95.761	4.0
95.776	2.0
95.791	3.0
95.806	4.0
95.821	4.0
95.836	2.0
95.851	2.0
95.866	4.0
95.88	4.0
95.895	4.0
95.91	2.0
95.925	3.0
95.94	1.0
95.955	2.0
95.97	2.0
95.985	7.0
96.0	3.0
96.015	2.0
96.029	3.0
96.044	3.0
96.059	5.0
96.074	3.0
96.089	2.0
96.104	3.0
96.119	6.0
96.134	3.0
96.149	2.0
96.164	2.0
96.179	4.0
96.194	4.0
96.208	4.0
96.223	4.0
96.238	1.0
96.253	1.0
96.268	1.0
96.283	1.0
96.298	3.0
96.313	1.0
96.328	4.0
96.343	3.0
96.358	4.0
96.373	4.0
96.388	5.0
96.403	5.0
96.417	3.0
96.432	6.0
96.447	1.0
96.462	1.0
96.477	3.0
96.492	3.0
96.507	4.0
96.522	3.0
96.537	2.0
96.552	4.0
96.567	4.0
96.582	2.0
96.597	1.0
96.612	5.0
96.627	2.0
96.642	2.0
96.656	7.0
96.671	2.0
96.686	3.0
96.701	0.0
96.716	5.0
96.731	4.0
96.746	5.0
96.761	1.0
96.776	2.0
96.791	4.0
96.806	8.0
96.821	2.0
96.836	4.0
96.851	4.0
96.866	4.0
96.881	7.0
96.896	4.0
96.911	2.0
96.926	4.0
96.94	4.0
96.955	4.0
96.97	1.0
96.985	3.0
97.0	3.0
97.015	1.0
97.03	2.0
97.045	3.0
97.06	3.0
97.075	2.0
97.09	2.0
97.105	2.0
97.12	5.0
97.135	1.0
97.15	5.0
97.165	2.0
97.18	3.0
97.195	3.0
97.21	5.0
97.225	3.0
97.239	5.0
97.254	3.0
97.269	1.0
97.284	3.0
97.299	3.0
97.314	3.0
97.329	4.0
97.344	1.0
97.359	1.0
97.374	2.0
97.389	2.0
97.404	4.0
97.419	2.0
97.434	4.0
97.449	3.0
97.464	2.0
97.479	3.0
97.494	3.0
97.509	4.0
97.524	5.0
97.538	4.0
97.553	5.0
97.568	3.0
97.583	5.0
97.598	2.0
97.613	0.0
97.628	3.0
97.643	4.0
97.658	2.0
97.673	9.0
97.688	0.0
97.703	4.0
97.718	2.0
97.733	5.0
97.748	2.0
97.763	3.0
97.778	4.0
97.792	2.0
97.807	1.0
97.822	7.0
97.837	2.0
97.852	5.0
97.867	2.0
97.882	4.0
97.897	3.0
97.912	10.0
97.927	7.0
97.942	3.0
97.957	6.0
97.972	0.0
97.987	6.0
98.001	1.0
98.016	2.0
98.031	4.0
98.046	6.0
98.061	2.0
98.076	6.0
98.091	4.0
98.106	8.0
98.121	2.0
98.136	4.0
98.151	4.0
98.166	4.0
98.181	1.0
98.195	1.0
98.21	0.0
98.225	0.0
98.24	2.0
98.255	2.0
98.27	3.0
98.285	4.0
98.3	2.0
98.315	5.0
98.33	4.0
98.345	5.0
98.359	4.0
98.374	0.0
98.389	2.0
98.404	2.0
98.419	1.0
98.434	5.0
98.449	3.0
98.464	3.0
98.479	4.0
98.494	4.0
98.508	0.0
98.523	0.0
98.538	4.0
98.553	3.0
98.568	1.0
98.583	3.0
98.598	3.0
98.613	5.0
98.628	3.0
98.642	2.0
98.657	1.0
98.672	4.0
98.687	3.0
98.702	4.0
98.717	4.0
98.732	3.0
98.747	2.0
98.762	3.0
98.776	4.0
98.791	4.0
98.806	2.0
98.821	3.0
98.836	6.0
98.851	2.0
98.866	4.0
98.881	2.0
98.896	5.0
98.91	0.0
98.925	3.0
98.94	3.0
98.955	5.0
98.97	2.0
98.985	6.0
99.0	3.0
99.015	2.0
99.029	4.0
99.044	2.0
99.059	6.0
99.074	3.0
99.089	3.0
99.104	6.0
99.119	3.0
99.133	7.0
99.148	3.0
99.163	0.0
99.178	5.0
99.193	3.0
99.208	4.0
99.223	2.0
99.238	2.0
99.252	3.0
99.267	4.0
99.282	3.0
99.297	3.0
99.312	4.0
99.327	3.0
99.342	4.0
99.356	1.0
99.371	1.0
99.386	1.0
99.401	1.0
99.416	3.0
99.431	4.0
99.446	3.0
99.461	2.0
99.475	2.0
99.49	3.0
99.505	4.0
99.52	1.0
99.535	1.0
99.55	3.0
99.565	3.0
99.579	0.0
99.594	3.0
99.609	1.0
99.624	5.0
99.639	2.0
99.654	5.0
99.669	4.0
99.683	3.0
99.698	3.0
99.713	2.0
99.728	4.0
99.743	6.0
99.758	5.0
99.772	3.0
99.787	2.0
99.802	4.0
99.817	7.0
99.832	4.0
99.847	3.0
99.862	2.0
99.876	2.0
99.891	6.0
99.906	4.0
99.921	1.0
99.936	3.0
99.951	5.0
99.966	3.0
99.98	6.0
99.995	2.0
100.01	1.0
100.025	1.0
100.04	4.0
100.055	4.0
100.069	3.0
100.084	4.0
100.099	3.0
100.114	4.0
100.129	5.0
100.144	4.0
100.159	2.0
100.173	1.0
100.188	6.0
100.203	5.0
100.218	1.0
100.233	4.0
100.248	5.0
100.262	4.0
100.277	4.0
100.292	3.0
100.307	4.0
100.322	3.0
100.337	4.0
100.351	3.0
100.366	3.0
100.381	1.0
100.396	6.0
100.411	3.0
100.426	5.0
100.441	0.0
100.455	1.0
100.47	4.0
100.485	4.0
100.5	2.0
100.515	4.0
100.53	6.0
100.544	4.0
100.559	3.0
100.574	2.0
100.589	5.0
100.604	3.0
100.619	2.0
100.633	6.0
100.648	2.0
100.663	1.0
100.678	3.0
100.693	4.0
100.708	0.0
100.722	4.0
100.737	2.0
100.752	3.0
100.767	3.0
100.782	5.0
100.796	4.0
100.811	2.0
100.826	5.0
100.841	2.0
100.856	5.0
100.871	2.0
100.885	1.0
100.9	4.0
100.915	3.0
100.93	1.0
100.945	5.0
100.96	1.0
100.974	4.0
100.989	5.0
101.004	7.0
101.019	1.0
101.034	2.0
101.048	4.0
101.063	4.0
101.078	5.0
101.093	3.0
101.108	3.0
101.123	4.0
101.137	2.0
101.152	2.0
101.167	5.0
101.182	4.0
101.197	1.0
101.211	5.0
101.226	4.0
101.241	4.0
101.256	2.0
101.271	4.0
101.285	1.0
101.3	4.0
101.315	3.0
101.33	4.0
101.345	5.0
101.359	1.0
101.374	3.0
101.389	3.0
101.404	2.0
101.419	3.0
101.433	3.0
101.448	3.0
101.463	2.0
101.478	1.0
101.493	5.0
101.507	3.0
101.522	2.0
101.537	0.0
101.552	2.0
101.567	5.0
101.581	4.0
101.596	7.0
101.611	2.0
101.626	7.0
101.64	3.0
101.655	4.0
101.67	1.0
101.685	2.0
101.7	4.0
101.714	4.0
101.729	4.0
101.744	9.0
101.759	3.0
101.773	0.0
101.788	5.0
101.803	2.0
101.818	6.0
101.833	4.0
101.847	3.0
101.862	3.0
101.877	3.0
101.892	2.0
101.906	2.0
101.921	1.0
101.936	2.0
101.951	2.0
101.965	3.0
101.98	2.0
101.995	4.0
102.01	9.0
102.025	4.0
102.039	6.0
102.054	5.0
102.069	6.0
102.084	2.0
102.098	2.0
102.113	1.0
102.128	6.0
102.143	0.0
102.157	4.0
102.172	3.0
102.187	3.0
102.202	5.0
102.216	4.0
102.231	2.0
102.246	6.0
102.261	1.0
102.275	3.0
102.29	2.0
102.305	5.0
102.32	3.0
102.334	2.0
102.349	4.0
102.364	6.0
102.378	7.0
102.393	1.0
102.408	3.0
102.423	8.0
102.437	2.0
102.452	4.0
102.467	3.0
102.482	4.0
102.496	3.0
102.511	1.0
102.526	2.0
102.541	4.0
102.555	6.0
102.57	5.0
102.585	4.0
102.6	0.0
102.614	3.0
102.629	3.0
102.644	3.0
102.659	1.0
102.673	3.0
102.688	3.0
102.703	3.0
102.717	5.0
102.732	6.0
102.747	2.0
102.762	3.0
102.776	2.0
102.791	3.0
102.806	2.0
102.821	3.0
102.835	5.0
102.85	1.0
102.865	3.0
102.88	5.0
102.894	8.0
102.909	1.0
102.924	4.0
102.938	1.0
102.953	5.0
102.968	3.0
102.983	6.0
102.997	1.0
103.012	3.0
103.027	5.0
103.042	3.0
103.056	4.0
103.071	4.0
103.086	4.0
103.101	3.0
103.115	5.0
103.13	5.0
103.145	3.0
103.16	3.0
103.174	1.0
103.189	2.0
103.204	2.0
103.219	1.0
103.233	3.0
103.248	5.0
103.263	6.0
103.278	3.0
103.292	2.0
103.307	4.0
103.322	1.0
103.337	2.0
103.351	1.0
103.366	3.0
103.381	1.0
103.396	2.0
103.41	0.0
103.425	5.0
103.44	5.0
103.455	6.0
103.469	4.0
103.484	0.0
103.499	5.0
103.514	3.0
103.529	3.0
103.543	1.0
103.558	7.0
103.573	2.0
103.588	1.0
103.602	4.0
103.617	4.0
103.632	5.0
103.647	5.0
103.661	4.0
103.676	2.0
103.691	0.0
103.706	2.0
103.721	3.0
103.735	1.0
103.75	4.0
103.765	5.0
103.78	2.0
103.795	1.0
103.809	7.0
103.824	4.0
103.839	4.0
103.854	0.0
103.869	2.0
103.883	2.0
103.898	4.0
103.913	5.0
103.928	1.0
103.943	1.0
103.957	2.0
103.972	5.0
103.987	3.0
104.002	2.0
104.017	0.0
104.031	3.0
104.046	0.0
104.061	6.0
104.076	5.0
104.091	2.0
104.106	1.0
104.12	4.0
104.135	2.0
104.15	4.0
104.165	2.0
104.18	6.0
104.195	3.0
104.209	3.0
104.224	1.0
104.239	3.0
104.254	1.0
104.269	4.0
104.284	5.0
104.299	1.0
104.313	3.0
104.328	3.0
104.343	1.0
104.358	5.0
104.373	3.0
104.388	3.0
104.403	5.0
104.417	1.0
104.432	2.0
104.447	2.0
104.462	4.0
104.477	2.0
104.492	5.0
104.507	3.0
104.522	4.0
104.536	3.0
104.551	4.0
104.566	2.0
104.581	4.0
104.596	5.0
104.611	5.0
104.626	4.0
104.641	2.0
104.656	5.0
104.67	3.0
104.685	1.0
104.7	6.0
104.715	2.0
104.73	1.0
104.745	4.0
104.76	6.0
104.775	2.0
104.79	5.0
104.804	2.0
104.819	1.0
104.834	5.0
104.849	2.0
104.864	4.0
104.879	2.0
104.894	6.0
104.909	3.0
104.924	2.0
104.939	2.0
104.954	5.0
104.968	3.0
104.983	4.0
104.998	1.0
105.013	6.0
105.028	3.0
105.043	3.0
105.058	3.0
105.073	2.0
105.088	1.0
105.103	2.0
105.118	6.0
105.133	3.0
105.147	1.0
105.162	4.0
105.177	3.0
105.192	4.0
105.207	3.0
105.222	2.0
105.237	2.0
105.252	1.0
105.267	6.0
105.282	2.0
105.297	6.0
105.312	0.0
105.327	4.0
105.342	3.0
105.356	3.0
105.371	2.0
105.386	3.0
105.401	3.0
105.416	5.0
105.431	4.0
105.446	3.0
105.461	0.0
105.476	3.0
105.491	3.0
105.506	5.0
105.521	7.0
105.536	3.0
105.551	3.0
105.566	9.0
105.581	5.0
105.595	6.0
105.61	1.0
105.625	7.0
105.64	4.0
105.655	2.0
105.67	3.0
105.685	3.0
105.7	5.0
105.715	3.0
105.73	1.0
105.745	4.0
105.76	3.0
105.775	2.0
105.79	3.0
105.805	1.0
105.82	4.0
105.835	2.0
105.85	4.0
105.864	1.0
105.879	2.0
105.894	2.0
105.909	4.0
105.924	3.0
105.939	5.0
105.954	1.0
105.969	3.0
105.984	4.0
105.999	0.0
106.014	4.0
106.029	4.0
106.044	4.0
106.059	3.0
106.074	4.0
106.089	5.0
106.104	2.0
106.119	2.0
106.134	3.0
106.148	7.0
106.163	3.0
106.178	1.0
106.193	4.0
106.208	5.0
106.223	7.0
106.238	2.0
106.253	2.0
106.268	2.0
106.283	2.0
106.298	2.0
106.313	3.0
106.328	3.0
106.343	5.0
106.358	3.0
106.373	6.0
106.388	0.0
106.403	1.0
106.418	4.0
106.432	2.0
106.447	4.0
106.462	3.0
106.477	7.0
106.492	3.0
106.507	3.0
106.522	4.0
106.537	1.0
106.552	3.0
106.567	3.0
106.582	3.0
106.597	1.0
106.612	3.0
106.627	3.0
106.642	4.0
106.657	6.0
106.672	4.0
106.687	2.0
106.701	2.0
106.716	5.0
106.731	6.0
106.746	2.0
106.761	2.0
106.776	3.0
106.791	1.0
106.806	5.0
106.821	0.0
106.836	5.0
106.851	5.0
106.866	4.0
106.881	3.0
106.896	2.0
106.911	2.0
106.926	1.0
106.941	0.0
106.955	5.0
106.97	2.0
106.985	7.0
107.0	2.0
107.015	4.0
107.03	4.0
107.045	5.0
107.06	6.0
107.075	2.0
107.09	3.0
107.105	5.0
107.12	2.0
107.135	4.0
107.15	3.0
107.165	5.0
107.18	4.0
107.194	2.0
107.209	3.0
107.224	1.0
107.239	3.0
107.254	6.0
107.269	2.0
107.284	1.0
107.299	5.0
107.314	3.0
107.329	2.0
107.344	1.0
107.359	6.0
107.374	5.0
107.389	3.0
107.404	3.0
107.418	3.0
107.433	5.0
107.448	2.0
107.463	3.0
107.478	3.0
107.493	3.0
107.508	3.0
107.523	2.0
107.538	3.0
107.553	2.0
107.568	2.0
107.583	1.0
107.598	6.0
107.613	5.0
107.627	3.0
107.642	2.0
107.657	1.0
107.672	3.0
107.687	1.0
107.702	3.0
107.717	2.0
107.732	2.0
107.747	2.0
107.762	6.0
107.777	5.0
107.792	7.0
107.807	2.0
107.821	6.0
107.836	3.0
107.851	2.0
107.866	3.0
107.881	7.0
107.896	5.0
107.911	6.0
107.926	2.0
107.941	3.0
107.956	5.0
107.971	5.0
107.986	3.0
108.0	10.0
108.015	2.0
108.03	8.0
108.045	4.0
108.06	3.0
108.075	5.0
108.09	5.0
108.105	2.0
108.12	1.0
108.135	4.0
108.15	4.0
108.164	7.0
108.179	5.0
108.194	7.0
108.209	5.0
108.224	2.0
108.239	5.0
108.254	6.0
108.269	6.0
108.284	2.0
108.299	5.0
108.313	2.0
108.328	3.0
108.343	6.0
108.358	5.0
108.373	0.0
108.388	2.0
108.403	2.0
108.418	3.0
108.433	6.0
108.448	2.0
108.462	4.0
108.477	5.0
108.492	3.0
108.507	2.0
108.522	0.0
108.537	6.0
108.552	2.0
108.567	4.0
108.582	2.0
108.597	3.0
108.611	0.0
108.626	1.0
108.641	4.0
108.656	3.0
108.671	1.0
108.686	2.0
108.701	2.0
108.716	4.0
108.731	6.0
108.745	6.0
108.76	6.0
108.775	5.0
108.79	8.0
108.805	5.0
108.82	3.0
108.835	4.0
108.85	4.0
108.865	1.0
108.879	4.0
108.894	2.0
108.909	2.0
108.924	5.0
108.939	7.0
108.954	4.0
108.969	4.0
108.984	5.0
108.999	4.0
109.013	5.0
109.028	3.0
109.043	3.0
109.058	1.0
109.073	4.0
109.088	6.0
109.103	3.0
109.118	7.0
109.133	6.0
109.147	2.0
109.162	3.0
109.177	5.0
109.192	5.0
109.207	3.0
109.222	4.0
109.237	1.0
109.252	7.0
109.267	1.0
109.281	5.0
109.296	3.0
109.311	5.0
109.326	3.0
109.341	5.0
109.356	2.0
109.371	0.0
109.386	5.0
109.4	4.0
109.415	2.0
109.43	1.0
109.445	8.0
109.46	3.0
109.475	3.0
109.49	0.0
109.505	5.0
109.52	6.0
109.534	1.0
109.549	2.0
109.564	5.0
109.579	5.0
109.594	5.0
109.609	4.0
109.624	1.0
109.639	5.0
109.653	1.0
109.668	2.0
109.683	3.0
109.698	3.0
109.713	3.0
109.728	6.0
109.743	3.0
109.758	5.0
109.773	6.0
109.787	4.0
109.802	6.0
109.817	5.0
109.832	1.0
109.847	5.0
109.862	3.0
109.877	3.0
109.892	2.0
109.907	5.0
109.921	3.0
109.936	5.0
109.951	2.0
109.966	1.0
109.981	2.0
109.996	3.0
110.011	3.0
110.026	8.0
110.04	5.0
110.055	2.0
110.07	1.0
110.085	3.0
110.1	3.0
110.115	3.0
110.13	3.0
110.145	4.0
110.16	3.0
110.174	4.0
110.189	2.0
110.204	3.0
110.219	0.0
110.234	4.0
110.249	1.0
110.264	4.0
110.279	1.0
110.294	0.0
110.308	4.0
110.323	2.0
110.338	4.0
110.353	5.0
110.368	3.0
110.383	6.0
110.398	2.0
110.413	5.0
110.428	4.0
110.442	5.0
110.457	3.0
110.472	4.0
110.487	5.0
110.502	2.0
110.517	3.0
110.532	2.0
110.547	6.0
110.561	2.0
110.576	2.0
110.591	9.0
110.606	2.0
110.621	2.0
110.636	6.0
110.651	4.0
110.666	5.0
110.681	8.0
110.695	4.0
110.71	4.0
110.725	3.0
110.74	2.0
110.755	2.0
110.77	5.0
110.785	7.0
110.8	4.0
110.815	1.0
110.829	5.0
110.844	4.0
110.859	3.0
110.874	6.0
110.889	2.0
110.904	4.0
110.919	2.0
110.934	4.0
110.948	4.0
110.963	2.0
110.978	4.0
110.993	4.0
111.008	4.0
111.023	4.0
111.038	1.0
111.053	1.0
111.067	2.0
111.082	3.0
111.097	2.0
111.112	2.0
111.127	3.0
111.142	4.0
111.157	7.0
111.172	3.0
111.186	0.0
111.201	2.0
111.216	4.0
111.231	3.0
111.246	6.0
111.261	5.0
111.276	3.0
111.291	1.0
111.305	2.0
111.32	1.0
111.335	2.0
111.35	5.0
111.365	2.0
111.38	2.0
111.395	4.0
111.41	2.0
111.424	2.0
111.439	5.0
111.454	5.0
111.469	4.0
111.484	1.0
111.499	4.0
111.514	7.0
111.528	1.0
111.543	3.0
111.558	2.0
111.573	3.0
111.588	4.0
111.603	5.0
111.618	7.0
111.633	4.0
111.647	6.0
111.662	8.0
111.677	2.0
111.692	6.0
111.707	4.0
111.722	8.0
111.737	5.0
111.751	4.0
111.766	4.0
111.781	5.0
111.796	4.0
111.811	4.0
111.826	3.0
111.84	3.0
111.855	4.0
111.87	3.0
111.885	1.0
111.9	3.0
111.915	1.0
111.93	3.0
111.944	7.0
111.959	6.0
111.974	2.0
111.989	0.0
112.004	4.0
112.019	3.0
112.033	3.0
112.048	4.0
112.063	1.0
112.078	2.0
112.093	0.0
112.108	2.0
112.123	1.0
112.137	2.0
112.152	8.0
112.167	3.0
112.182	3.0
112.197	3.0
112.212	1.0
112.226	4.0
112.241	5.0
112.256	3.0
112.271	2.0
112.286	8.0
112.301	1.0
112.315	2.0
112.33	3.0
112.345	5.0
112.36	7.0
112.375	3.0
112.389	6.0
112.404	3.0
112.419	1.0
112.434	7.0
112.449	3.0
112.464	7.0
112.478	7.0
112.493	3.0
112.508	1.0
112.523	3.0
112.538	4.0
112.553	4.0
112.567	2.0
112.582	3.0
112.597	4.0
112.612	2.0
112.627	0.0
112.642	7.0
112.656	5.0
112.671	9.0
112.686	4.0
112.701	7.0
112.716	3.0
112.73	4.0
112.745	3.0
112.76	2.0
112.775	9.0
112.79	2.0
112.805	2.0
112.819	5.0
112.834	3.0
112.849	4.0
112.864	2.0
112.879	6.0
112.894	4.0
112.908	7.0
112.923	2.0
112.938	6.0
112.953	1.0
112.968	3.0
112.983	3.0
112.997	5.0
113.012	2.0
113.027	4.0
113.042	2.0
113.057	3.0
113.072	4.0
113.086	1.0
113.101	3.0
113.116	5.0
113.131	5.0
113.146	7.0
113.161	3.0
113.175	3.0
113.19	7.0
113.205	3.0
113.22	4.0
113.235	4.0
113.25	2.0
113.265	6.0
113.279	5.0
113.294	1.0
113.309	1.0
113.324	3.0
113.339	3.0
113.354	2.0
113.368	5.0
113.383	5.0
113.398	1.0
113.413	3.0
113.428	3.0
113.443	3.0
113.458	9.0
113.472	3.0
113.487	6.0
113.502	2.0
113.517	5.0
113.532	10.0
113.547	1.0
113.562	4.0
113.576	3.0
113.591	5.0
113.606	4.0
113.621	4.0
113.636	1.0
113.651	4.0
113.666	4.0
113.681	5.0
113.695	4.0
113.71	2.0
113.725	4.0
113.74	3.0
113.755	2.0
113.77	1.0
113.785	1.0
113.8	5.0
113.814	5.0
113.829	3.0
113.844	3.0
113.859	4.0
113.874	3.0
113.889	3.0
113.904	4.0
113.919	2.0
113.934	3.0
113.949	2.0
113.963	2.0
113.978	8.0
113.993	1.0
114.008	6.0
114.023	5.0
114.038	4.0
114.053	4.0
114.068	8.0
114.083	2.0
114.098	1.0
114.113	0.0
114.127	6.0
114.142	3.0
114.157	6.0
114.172	3.0
114.187	7.0
114.202	4.0
114.217	1.0
114.232	1.0
114.247	6.0
114.262	3.0
114.277	7.0
114.292	4.0
114.307	1.0
114.322	3.0
114.337	6.0
114.351	5.0
114.366	5.0
114.381	4.0
114.396	3.0
114.411	5.0
114.426	4.0
114.441	3.0
114.456	2.0
114.471	5.0
114.486	2.0
114.501	3.0
114.516	2.0
114.531	5.0
114.546	4.0
114.561	4.0
114.576	3.0
114.591	5.0
114.606	5.0
114.621	3.0
114.636	2.0
114.65	3.0
114.665	4.0
114.68	0.0
114.695	2.0
114.71	2.0
114.725	2.0
114.74	2.0
114.755	3.0
114.77	2.0
114.785	3.0
114.8	5.0
114.815	5.0
114.83	2.0
114.845	4.0
114.86	4.0
114.875	2.0
114.89	7.0
114.905	8.0
114.92	4.0
114.935	3.0
114.95	3.0
114.965	3.0
114.98	3.0
114.995	3.0
115.009	3.0
115.024	4.0
115.039	5.0
115.054	5.0
115.069	2.0
115.084	5.0
115.099	3.0
115.114	3.0
115.129	5.0
115.144	8.0
115.159	5.0
115.174	5.0
115.189	5.0
115.204	4.0
115.219	3.0
115.234	6.0
115.249	4.0
115.264	4.0
115.279	2.0
115.294	5.0
115.309	3.0
115.323	5.0
115.338	6.0
115.353	3.0
115.368	4.0
115.383	7.0
115.398	3.0
115.413	8.0
115.428	2.0
115.443	2.0
115.458	1.0
115.473	3.0
115.488	4.0
115.503	2.0
115.518	1.0
115.533	2.0
115.548	3.0
115.562	2.0
115.577	2.0
115.592	2.0
115.607	5.0
115.622	7.0
115.637	6.0
115.652	2.0
115.667	4.0
115.682	4.0
115.697	3.0
115.712	2.0
115.727	5.0
115.741	9.0
115.756	3.0
115.771	4.0
115.786	4.0
115.801	3.0
115.816	0.0
115.831	1.0
115.846	6.0
115.861	4.0
115.875	4.0
115.89	4.0
115.905	1.0
115.92	1.0
115.935	8.0
115.95	5.0
115.965	6.0
115.98	4.0
115.995	4.0
116.009	7.0
116.024	7.0
116.039	1.0
116.054	6.0
116.069	6.0
116.084	2.0
116.099	2.0
116.113	5.0
116.128	0.0
116.143	3.0
116.158	3.0
116.173	7.0
116.188	6.0
116.202	4.0
116.217	9.0
116.232	5.0
116.247	2.0
116.262	4.0
116.277	1.0
116.291	3.0
116.306	5.0
116.321	1.0
116.336	4.0
116.351	5.0
116.366	3.0
116.38	5.0
116.395	4.0
116.41	10.0
116.425	3.0
116.44	6.0
116.454	2.0
116.469	1.0
116.484	6.0
116.499	1.0
116.514	6.0
116.528	7.0
116.543	5.0
116.558	3.0
116.573	2.0
116.588	4.0
116.602	2.0
116.617	2.0
116.632	4.0
116.647	4.0
116.662	3.0
116.676	1.0
116.691	3.0
116.706	7.0
116.721	2.0
116.735	4.0
116.75	10.0
116.765	3.0
116.78	3.0
116.795	4.0
116.809	2.0
116.824	7.0
116.839	3.0
116.854	1.0
116.868	2.0
116.883	1.0
116.898	4.0
116.913	5.0
116.927	3.0
116.942	3.0
116.957	2.0
116.972	3.0
116.986	2.0
117.001	3.0
117.016	6.0
117.031	3.0
117.045	6.0
117.06	6.0
117.075	7.0
117.09	4.0
117.104	3.0
117.119	4.0
117.134	4.0
117.149	4.0
117.163	6.0
117.178	5.0
117.193	0.0
117.208	1.0
117.222	5.0
117.237	3.0
117.252	3.0
117.267	3.0
117.281	4.0
117.296	7.0
117.311	3.0
117.325	1.0
117.34	1.0
117.355	4.0
117.37	4.0
117.384	4.0
117.399	7.0
117.414	5.0
117.429	1.0
117.443	3.0
117.458	5.0
117.473	4.0
117.487	5.0
117.502	3.0
117.517	4.0
117.532	3.0
117.546	7.0
117.561	4.0
117.576	1.0
117.59	4.0
117.605	4.0
117.62	3.0
117.635	2.0
117.649	2.0
117.664	1.0
117.679	4.0
117.693	5.0
117.708	5.0
117.723	4.0
117.738	4.0
117.752	5.0
117.767	6.0
117.782	4.0
117.796	3.0
117.811	3.0
117.826	1.0
117.841	4.0
117.855	4.0
117.87	5.0
117.885	5.0
117.899	7.0
117.914	3.0
117.929	6.0
117.944	3.0
117.958	7.0
117.973	4.0
117.988	2.0
118.002	2.0
118.017	5.0
118.032	5.0
118.047	5.0
118.062	5.0
118.077	3.0
118.092	3.0
118.107	6.0
118.121	6.0
118.136	1.0
118.151	9.0
118.166	5.0
118.181	5.0
118.196	0.0
118.211	4.0
118.225	1.0
118.24	4.0
118.255	3.0
118.27	3.0
118.285	8.0
118.3	3.0
118.315	6.0
118.33	5.0
118.344	3.0
118.359	3.0
118.374	6.0
118.389	5.0
118.404	2.0
118.419	3.0
118.434	4.0
118.449	5.0
118.463	1.0
118.478	2.0
118.493	4.0
118.508	6.0
118.523	7.0
118.538	6.0
118.553	4.0
118.567	1.0
118.582	0.0
118.597	2.0
118.612	1.0
118.627	3.0
118.642	2.0
118.657	2.0
118.672	5.0
118.686	5.0
118.701	4.0
118.716	5.0
118.731	2.0
118.746	3.0
118.761	2.0
118.776	3.0
118.791	3.0
118.805	4.0
118.82	3.0
118.835	4.0
118.85	6.0
118.865	3.0
118.88	8.0
118.895	1.0
118.909	4.0
118.924	3.0
118.939	3.0
118.954	4.0
118.969	2.0
118.984	1.0
118.999	2.0
119.014	4.0
119.028	5.0
119.043	6.0
119.058	5.0
119.073	6.0
119.088	7.0
119.103	4.0
119.118	6.0
119.133	5.0
119.147	1.0
119.162	7.0
119.177	6.0
119.192	3.0
119.207	3.0
119.222	4.0
119.237	5.0
119.251	2.0
119.266	3.0
119.281	6.0
119.296	0.0
119.311	4.0
119.326	0.0
119.341	2.0
119.356	3.0
119.37	5.0
119.385	6.0
119.4	4.0
119.415	4.0
119.43	1.0
119.445	3.0
119.46	2.0
119.475	5.0
119.489	6.0
119.504	0.0
119.519	2.0
119.534	4.0
119.549	1.0
119.564	1.0
119.579	3.0
119.593	4.0
119.608	4.0
119.623	2.0
119.638	0.0
119.653	2.0
119.668	3.0
119.683	6.0
119.698	4.0
119.712	5.0
119.727	2.0
119.742	2.0
119.757	1.0
119.772	8.0
119.787	4.0
119.802	5.0
119.817	6.0
119.831	2.0
119.846	2.0
119.861	5.0
119.876	4.0
119.891	6.0
119.906	1.0
119.921	3.0
119.935	5.0
119.95	2.0
119.965	2.0
119.98	4.0
119.995	2.0
120.01	2.0
120.025	4.0
120.04	1.0
120.054	0.0
120.069	2.0
120.084	1.0
120.099	2.0
120.114	4.0
120.129	3.0
120.144	1.0
120.159	5.0
120.173	2.0
120.188	2.0
120.203	1.0
120.218	2.0
120.233	0.0
120.248	0.0
120.263	2.0
120.277	0.0
120.292	0.0
120.307	0.0
120.322	0.0
120.337	1.0
120.352	0.0
120.367	0.0
120.382	0.0
120.396	0.0
120.411	0.0
120.426	0.0
120.441	0.0
120.456	0.0
120.471	1.0
120.486	0.0
120.501	1.0
120.515	0.0
120.53	0.0
120.545	0.0
120.56	0.0
120.575	0.0
120.59	0.0
120.605	0.0
120.619	0.0
120.634	0.0
120.649	0.0
120.664	0.0
120.679	0.0
120.694	0.0
120.709	0.0
120.724	0.0
120.738	1.0
120.753	1.0
120.768	0.0
120.783	0.0
120.798	0.0
120.813	0.0
120.828	0.0
120.843	0.0
120.857	0.0
120.872	0.0
120.887	0.0
120.902	0.0
120.917	0.0
120.932	0.0
120.947	0.0
120.961	0.0
120.976	0.0
