-1.217	0.0
-1.202	0.0
-1.187	0.0
-1.172	0.0
-1.157	0.0
-1.142	1.0
-1.128	0.0
-1.113	0.0
-1.098	0.0
-1.083	0.0
-1.068	0.0
-1.054	0.0
-1.039	0.0
-1.024	0.0
-1.009	0.0
-0.994	0.0
-0.979	1.0
-0.965	0.0
-0.95	0.0
-0.935	0.0
-0.92	0.0
-0.905	0.0
-0.891	0.0
-0.876	0.0
-0.861	0.0
-0.846	0.0
-0.831	0.0
-0.816	0.0
-0.802	0.0
-0.787	0.0
-0.772	0.0
-0.757	0.0
-0.742	0.0
-0.728	0.0
-0.713	0.0
-0.698	0.0
-0.683	0.0
-0.668	0.0
-0.653	0.0
-0.639	0.0
-0.624	0.0
-0.609	0.0
-0.594	0.0
-0.579	0.0
-0.565	0.0
-0.55	0.0
-0.535	0.0
-0.52	0.0
-0.505	0.0
-0.49	0.0
-0.476	0.0
-0.461	0.0
-0.446	0.0
-0.431	0.0
-0.416	0.0
-0.401	0.0
-0.387	0.0
-0.372	0.0
-0.357	0.0
-0.342	0.0
-0.327	0.0
-0.313	0.0
-0.298	1.0
-0.283	0.0
-0.268	0.0
-0.253	0.0
-0.238	1.0
-0.224	0.0
-0.209	0.0
-0.194	0.0
-0.179	0.0
-0.164	0.0
-0.15	0.0
-0.135	0.0
-0.12	0.0
-0.105	0.0
-0.09	0.0
-0.075	0.0
-0.061	0.0
-0.046	0.0
-0.031	0.0
-0.016	0.0
-0.001	0.0
0.013	0.0
0.028	0.0
0.043	0.0
0.058	0.0
0.073	0.0
0.088	0.0
0.102	0.0
0.117	0.0
0.132	0.0
0.147	0.0
0.162	0.0
0.176	0.0
0.191	0.0
0.206	0.0
0.221	0.0
0.236	0.0
0.251	0.0
0.265	0.0
0.28	0.0
0.295	0.0
0.31	0.0
0.325	0.0
0.339	0.0
0.354	0.0
0.369	0.0
0.384	0.0
0.399	0.0
0.414	0.0
0.428	0.0
0.443	0.0
0.458	0.0
0.473	0.0
0.488	0.0
0.502	0.0
0.517	0.0
0.532	0.0
0.547	0.0
0.562	0.0
0.577	0.0
0.591	0.0
0.606	0.0
0.621	1.0
0.636	0.0
0.651	0.0
0.665	0.0
0.68	0.0
0.695	0.0
0.71	0.0
0.725	0.0
0.74	0.0
0.754	0.0
0.769	0.0
0.784	0.0
0.799	0.0
0.814	0.0
0.828	0.0
0.843	0.0
0.858	0.0
0.873	0.0
0.888	0.0
0.903	0.0
0.917	0.0
0.932	0.0
0.947	0.0
0.962	0.0
0.977	0.0
0.991	0.0
1.006	0.0
1.021	0.0
1.036	0.0
1.051	0.0
1.065	0.0
1.08	0.0
1.095	0.0
1.11	0.0
1.125	1.0
1.14	0.0
1.154	0.0
1.169	0.0
1.184	0.0
1.199	0.0
1.214	0.0
1.228	0.0
1.243	0.0
1.258	0.0
1.273	1.0
1.288	0.0
1.302	0.0
1.317	0.0
1.332	1.0
1.347	0.0
1.362	0.0
1.376	0.0
1.391	0.0
1.406	0.0
1.421	0.0
1.436	1.0
1.45	1.0
1.465	0.0
1.48	0.0
1.495	0.0
1.51	0.0
1.524	0.0
1.539	0.0
1.554	0.0
1.569	0.0
1.584	0.0
1.598	0.0
1.613	0.0
1.628	0.0
1.643	2.0
1.658	0.0
1.672	0.0
1.687	0.0
1.702	0.0
1.717	0.0
1.732	0.0
1.746	0.0
1.761	0.0
1.776	0.0
1.791	0.0
1.806	0.0
1.82	0.0
1.835	1.0
1.85	0.0
1.865	1.0
1.88	0.0
1.894	0.0
1.909	0.0
1.924	0.0
1.939	0.0
1.954	0.0
1.968	0.0
1.983	0.0
1.998	1.0
2.013	1.0
2.028	0.0
2.042	0.0
2.057	1.0
2.072	0.0
2.087	0.0
2.101	0.0
2.116	1.0
2.131	1.0
2.146	0.0
2.161	2.0
2.175	0.0
2.19	0.0
2.205	0.0
2.22	3.0
2.235	0.0
2.249	1.0
2.264	0.0
2.279	0.0
2.294	0.0
2.308	2.0
2.323	1.0
2.338	2.0
2.353	1.0
2.368	1.0
2.382	2.0
2.397	2.0
2.412	2.0
2.427	0.0
2.442	3.0
2.456	3.0
2.471	0.0
2.486	4.0
2.501	1.0
2.515	0.0
2.53	0.0
2.545	2.0
2.56	1.0
2.575	0.0
2.589	4.0
2.604	1.0
2.619	1.0
2.634	3.0
2.649	4.0
2.663	0.0
2.678	2.0
2.693	2.0
2.708	0.0
2.722	1.0
2.737	2.0
2.752	5.0
2.767	3.0
2.782	0.0
2.796	3.0
2.811	8.0
2.826	2.0
2.841	3.0
2.856	5.0
2.87	4.0
2.885	4.0
2.9	5.0
2.915	4.0
2.93	3.0
2.944	3.0
2.959	2.0
2.974	2.0
2.989	4.0
3.004	3.0
3.018	4.0
3.033	1.0
3.048	5.0
3.063	3.0
3.078	1.0
3.092	1.0
3.107	4.0
3.122	6.0
3.137	1.0
3.152	4.0
3.166	3.0
3.181	5.0
3.196	2.0
3.211	5.0
3.226	5.0
3.24	7.0
3.255	4.0
3.27	2.0
3.285	4.0
3.3	2.0
3.315	3.0
3.329	5.0
3.344	5.0
3.359	3.0
3.374	5.0
3.389	7.0
3.403	9.0
3.418	6.0
3.433	7.0
3.448	7.0
3.463	6.0
3.478	9.0
3.492	5.0
3.507	3.0
3.522	4.0
3.537	5.0
3.552	4.0
3.567	4.0
3.581	7.0
3.596	7.0
3.611	4.0
3.626	1.0
3.641	4.0
3.656	6.0
3.671	5.0
3.685	6.0
3.7	6.0
3.715	4.0
3.73	6.0
3.745	6.0
3.76	5.0
3.775	4.0
3.789	5.0
3.804	3.0
3.819	10.0
3.834	8.0
3.849	7.0
3.864	7.0
3.879	7.0
3.894	10.0
3.908	6.0
3.923	5.0
3.938	3.0
3.953	5.0
3.968	3.0
3.983	3.0
3.998	4.0
4.013	9.0
4.027	6.0
4.042	4.0
4.057	8.0
4.072	6.0
4.087	10.0
4.102	6.0
4.117	7.0
4.132	13.0
4.147	14.0
4.162	2.0
4.176	10.0
4.191	4.0
4.206	11.0
4.221	10.0
4.236	5.0
4.251	6.0
4.266	9.0
4.281	7.0
4.296	9.0
4.311	6.0
4.326	1.0
4.341	5.0
4.356	4.0
4.37	8.0
4.385	9.0
4.4	8.0
4.415	5.0
4.43	8.0
4.445	5.0
4.46	8.0
4.475	13.0
4.49	4.0
4.505	9.0
4.52	11.0
4.535	6.0
4.55	5.0
4.565	5.0
4.58	12.0
4.595	9.0
4.61	9.0
4.625	5.0
4.639	10.0
4.654	7.0
4.669	10.0
4.684	8.0
4.699	5.0
4.714	6.0
4.729	8.0
4.744	6.0
4.759	8.0
4.774	7.0
4.789	10.0
4.804	5.0
4.819	6.0
4.834	5.0
4.849	6.0
4.864	6.0
4.879	7.0
4.894	2.0
4.909	7.0
4.924	10.0
4.939	4.0
4.954	4.0
4.969	2.0
4.984	6.0
4.999	4.0
5.014	6.0
5.029	8.0
5.044	6.0
5.059	8.0
5.074	8.0
5.089	9.0
5.104	7.0
5.119	12.0
5.134	12.0
5.149	9.0
5.164	9.0
5.179	10.0
5.194	15.0
5.209	11.0
5.224	8.0
5.239	16.0
5.254	2.0
5.269	6.0
5.284	7.0
5.299	7.0
5.314	7.0
5.329	13.0
5.344	11.0
5.359	13.0
5.374	9.0
5.389	15.0
5.404	7.0
5.419	8.0
5.434	8.0
5.449	9.0
5.464	5.0
5.479	10.0
5.494	7.0
5.509	8.0
5.524	10.0
5.539	3.0
5.554	8.0
5.569	9.0
5.584	8.0
5.599	9.0
5.614	12.0
5.629	6.0
5.644	11.0
5.659	5.0
5.674	7.0
5.689	4.0
5.704	11.0
5.719	5.0
5.734	7.0
5.749	11.0
5.764	4.0
5.779	8.0
5.794	12.0
5.809	3.0
5.824	12.0
5.839	9.0
5.854	7.0
5.869	11.0
5.884	12.0
5.899	12.0
5.914	7.0
5.929	7.0
5.944	7.0
5.959	11.0
5.974	8.0
5.989	1.0
6.004	14.0
6.019	13.0
6.034	11.0
6.049	8.0
6.064	8.0
6.079	11.0
6.094	13.0
6.109	10.0
6.124	6.0
6.139	7.0
6.154	8.0
6.169	3.0
6.184	9.0
6.199	9.0
6.214	8.0
6.229	9.0
6.244	13.0
6.259	6.0
6.274	7.0
6.289	12.0
6.304	5.0
6.319	6.0
6.334	0.0
6.349	13.0
6.364	5.0
6.379	8.0
6.394	10.0
6.409	12.0
6.424	7.0
6.439	8.0
6.454	5.0
6.469	9.0
6.484	4.0
6.499	11.0
6.514	2.0
6.529	9.0
6.544	8.0
6.559	12.0
6.574	8.0
6.589	9.0
6.604	9.0
6.619	4.0
6.634	9.0
6.649	10.0
6.664	10.0
6.679	12.0
6.694	16.0
6.709	9.0
6.724	14.0
6.739	8.0
6.754	8.0
6.769	14.0
6.784	12.0
6.799	3.0
6.814	6.0
6.829	6.0
6.844	15.0
6.859	5.0
6.873	11.0
6.888	6.0
6.903	5.0
6.918	9.0
6.933	13.0
6.948	6.0
6.963	7.0
6.978	8.0
6.993	7.0
7.008	5.0
7.023	13.0
7.038	11.0
7.053	15.0
7.068	16.0
7.083	8.0
7.098	4.0
7.113	6.0
7.128	13.0
7.143	10.0
7.157	7.0
7.172	12.0
7.187	10.0
7.202	7.0
7.217	6.0
7.232	5.0
7.247	6.0
7.262	8.0
7.277	10.0
7.292	13.0
7.307	8.0
7.322	8.0
7.336	11.0
7.351	7.0
7.366	8.0
7.381	3.0
7.396	5.0
7.411	16.0
7.426	7.0
7.441	14.0
7.456	6.0
7.471	7.0
7.485	7.0
7.5	6.0
7.515	10.0
7.53	7.0
7.545	9.0
7.56	7.0
7.575	10.0
7.59	7.0
7.604	10.0
7.619	9.0
7.634	6.0
7.649	7.0
7.664	8.0
7.679	5.0
7.693	7.0
7.708	8.0
7.723	8.0
7.738	8.0
7.753	6.0
7.768	8.0
7.783	2.0
7.797	10.0
7.812	5.0
7.827	9.0
7.842	5.0
7.857	8.0
7.871	9.0
7.886	11.0
7.901	7.0
7.916	4.0
7.931	8.0
7.945	8.0
7.96	9.0
7.975	9.0
7.99	10.0
8.005	9.0
8.019	6.0
8.034	4.0
8.049	7.0
8.064	9.0
8.078	5.0
8.093	12.0
8.108	9.0
8.123	10.0
8.137	7.0
8.152	12.0
8.167	8.0
8.182	6.0
8.196	9.0
8.211	9.0
8.226	7.0
8.241	10.0
8.255	11.0
8.27	8.0
8.285	11.0
8.3	10.0
8.314	12.0
8.329	14.0
8.344	12.0
8.358	9.0
8.373	9.0
8.388	8.0
8.403	11.0
8.417	8.0
8.432	7.0
8.447	9.0
8.461	5.0
8.476	8.0
8.491	12.0
8.505	9.0
8.52	9.0
8.535	9.0
8.55	10.0
8.564	7.0
8.579	5.0
8.594	8.0
8.608	4.0
8.623	12.0
8.638	7.0
8.652	12.0
8.667	5.0
8.682	8.0
8.696	6.0
8.711	9.0
8.726	8.0
8.74	7.0
8.755	7.0
8.77	7.0
8.784	6.0
8.799	5.0
8.814	9.0
8.828	7.0
8.843	5.0
8.858	4.0
8.872	12.0
8.887	13.0
8.902	7.0
8.916	8.0
8.931	5.0
8.946	7.0
8.96	11.0
8.975	6.0
8.99	9.0
9.004	9.0
9.019	12.0
9.034	11.0
9.048	10.0
9.063	14.0
9.077	7.0
9.092	5.0
9.107	10.0
9.121	5.0
9.136	17.0
9.151	7.0
9.165	5.0
9.18	12.0
9.195	9.0
9.209	4.0
9.224	5.0
9.239	12.0
9.253	5.0
9.268	5.0
9.283	6.0
9.297	11.0
9.312	6.0
9.327	5.0
9.341	9.0
9.356	11.0
9.371	5.0
9.385	6.0
9.4	11.0
9.415	11.0
9.429	14.0
9.444	8.0
9.458	7.0
9.473	13.0
9.488	5.0
9.502	6.0
9.517	5.0
9.532	5.0
9.546	6.0
9.561	9.0
9.576	7.0
9.59	8.0
9.605	10.0
9.62	6.0
9.635	5.0
9.649	4.0
9.664	5.0
9.679	11.0
9.693	5.0
9.708	5.0
9.723	10.0
9.737	14.0
9.752	3.0
9.767	14.0
9.781	10.0
9.796	10.0
9.811	7.0
9.825	15.0
9.84	11.0
9.855	11.0
9.87	8.0
9.884	9.0
9.899	9.0
9.914	8.0
9.928	7.0
9.943	9.0
9.958	4.0
9.973	13.0
9.987	8.0
10.002	10.0
10.017	8.0
10.031	2.0
10.046	5.0
10.061	12.0
10.076	8.0
10.09	9.0
10.105	3.0
10.12	11.0
10.135	8.0
10.149	8.0
10.164	8.0
10.179	5.0
10.194	10.0
10.208	7.0
10.223	4.0
10.238	10.0
10.253	6.0
10.267	9.0
10.282	5.0
10.297	9.0
10.312	7.0
10.326	6.0
10.341	4.0
10.356	5.0
10.371	4.0
10.386	12.0
10.4	7.0
10.415	7.0
10.43	8.0
10.445	7.0
10.46	4.0
10.474	5.0
10.489	6.0
10.504	12.0
10.519	5.0
10.533	9.0
10.548	7.0
10.563	8.0
10.578	5.0
10.593	15.0
10.608	6.0
10.622	9.0
10.637	9.0
10.652	12.0
10.667	9.0
10.682	6.0
10.696	5.0
10.711	8.0
10.726	2.0
10.741	9.0
10.756	11.0
10.771	3.0
10.785	6.0
10.8	9.0
10.815	9.0
10.83	5.0
10.845	12.0
10.86	5.0
10.874	6.0
10.889	7.0
10.904	7.0
10.919	9.0
10.934	7.0
10.949	7.0
10.963	3.0
10.978	10.0
10.993	6.0
11.008	6.0
11.023	12.0
11.038	4.0
11.053	3.0
11.067	5.0
11.082	5.0
11.097	9.0
11.112	6.0
11.127	8.0
11.142	4.0
11.157	11.0
11.172	11.0
11.186	5.0
11.201	11.0
11.216	7.0
11.231	7.0
11.246	6.0
11.261	11.0
11.276	9.0
11.291	9.0
11.305	7.0
11.32	7.0
11.335	4.0
11.35	5.0
11.365	12.0
11.38	6.0
11.395	7.0
11.41	6.0
11.424	6.0
11.439	7.0
11.454	10.0
11.469	5.0
11.484	6.0
11.499	6.0
11.514	11.0
11.529	10.0
11.544	11.0
11.558	9.0
11.573	7.0
11.588	7.0
11.603	4.0
11.618	4.0
11.633	4.0
11.648	10.0
11.663	5.0
11.678	9.0
11.693	7.0
11.707	13.0
11.722	2.0
11.737	13.0
11.752	11.0
11.767	8.0
11.782	6.0
11.797	3.0
11.812	7.0
11.827	11.0
11.842	9.0
11.856	8.0
11.871	9.0
11.886	10.0
11.901	5.0
11.916	9.0
11.931	12.0
11.946	14.0
11.961	11.0
11.976	9.0
11.991	9.0
12.006	6.0
12.02	5.0
12.035	10.0
12.05	6.0
12.065	9.0
12.08	7.0
12.095	6.0
12.11	6.0
12.125	7.0
12.14	13.0
12.155	9.0
12.17	9.0
12.184	8.0
12.199	8.0
12.214	4.0
12.229	10.0
12.244	5.0
12.259	10.0
12.274	13.0
12.289	8.0
12.304	11.0
12.319	8.0
12.334	12.0
12.348	9.0
12.363	11.0
12.378	14.0
12.393	9.0
12.408	9.0
12.423	10.0
12.438	16.0
12.453	15.0
12.468	7.0
12.483	5.0
12.498	13.0
12.513	16.0
12.527	9.0
12.542	12.0
12.557	9.0
12.572	15.0
12.587	13.0
12.602	12.0
12.617	10.0
12.632	13.0
12.647	9.0
12.662	12.0
12.677	13.0
12.692	7.0
12.707	7.0
12.721	10.0
12.736	12.0
12.751	15.0
12.766	17.0
12.781	18.0
12.796	10.0
12.811	17.0
12.826	15.0
12.841	9.0
12.856	11.0
12.871	13.0
12.886	20.0
12.9	13.0
12.915	14.0
12.93	20.0
12.945	20.0
12.96	14.0
12.975	12.0
12.99	15.0
13.005	14.0
13.02	15.0
13.035	21.0
13.05	21.0
13.065	12.0
13.08	12.0
13.094	18.0
13.109	24.0
13.124	15.0
13.139	12.0
13.154	10.0
13.169	22.0
13.184	15.0
13.199	14.0
13.214	15.0
13.229	10.0
13.244	19.0
13.259	16.0
13.274	14.0
13.288	16.0
13.303	26.0
13.318	22.0
13.333	33.0
13.348	21.0
13.363	23.0
13.378	19.0
13.393	23.0
13.408	20.0
13.423	29.0
13.438	40.0
13.453	28.0
13.468	41.0
13.482	36.0
13.497	28.0
13.512	41.0
13.527	45.0
13.542	55.0
13.557	36.0
13.572	46.0
13.587	50.0
13.602	60.0
13.617	56.0
13.632	63.0
13.647	73.0
13.662	61.0
13.677	84.0
13.691	92.0
13.706	80.0
13.721	72.0
13.736	96.0
13.751	101.0
13.766	94.0
13.781	109.0
13.796	97.0
13.811	109.0
13.826	127.0
13.841	111.0
13.856	95.0
13.871	115.0
13.885	87.0
13.9	91.0
13.915	68.0
13.93	70.0
13.945	55.0
13.96	47.0
13.975	42.0
13.99	36.0
14.005	34.0
14.02	25.0
14.035	26.0
14.05	26.0
14.065	17.0
14.08	29.0
14.094	32.0
14.109	23.0
14.124	20.0
14.139	25.0
14.154	17.0
14.169	12.0
14.184	23.0
14.199	22.0
14.214	23.0
14.229	25.0
14.244	22.0
14.259	20.0
14.274	24.0
14.288	18.0
14.303	21.0
14.318	25.0
14.333	13.0
14.348	23.0
14.363	20.0
14.378	24.0
14.393	28.0
14.408	20.0
14.423	27.0
14.438	19.0
14.453	16.0
14.468	19.0
14.482	20.0
14.497	16.0
14.512	18.0
14.527	15.0
14.542	14.0
14.557	15.0
14.572	12.0
14.587	15.0
14.602	12.0
14.617	10.0
14.632	13.0
14.647	18.0
14.661	18.0
14.676	16.0
14.691	16.0
14.706	19.0
14.721	10.0
14.736	10.0
14.751	12.0
14.766	17.0
14.781	13.0
14.796	15.0
14.811	20.0
14.826	13.0
14.84	13.0
14.855	12.0
14.87	9.0
14.885	19.0
14.9	12.0
14.915	13.0
14.93	15.0
14.945	15.0
14.96	19.0
14.975	19.0
14.989	12.0
15.004	15.0
15.019	11.0
15.034	12.0
15.049	19.0
15.064	12.0
15.079	18.0
15.094	11.0
15.109	14.0
15.124	22.0
15.138	18.0
15.153	19.0
15.168	16.0
15.183	19.0
15.198	15.0
15.213	15.0
15.228	15.0
15.243	6.0
15.258	9.0
15.272	19.0
15.287	17.0
15.302	10.0
15.317	10.0
15.332	9.0
15.347	10.0
15.362	13.0
15.377	13.0
15.391	13.0
15.406	7.0
15.421	10.0
15.436	14.0
15.451	12.0
15.466	14.0
15.481	13.0
15.496	11.0
15.51	18.0
15.525	14.0
15.54	12.0
15.555	11.0
15.57	19.0
15.585	13.0
15.6	11.0
15.614	10.0
15.629	9.0
15.644	19.0
15.659	11.0
15.674	18.0
15.689	18.0
15.704	12.0
15.718	22.0
15.733	9.0
15.748	11.0
15.763	12.0
15.778	13.0
15.793	7.0
15.808	14.0
15.822	12.0
15.837	14.0
15.852	12.0
15.867	13.0
15.882	8.0
15.897	11.0
15.911	19.0
15.926	8.0
15.941	13.0
15.956	14.0
15.971	9.0
15.986	17.0
16.0	6.0
16.015	10.0
16.03	12.0
16.045	8.0
16.06	14.0
16.074	18.0
16.089	5.0
16.104	18.0
16.119	8.0
16.134	12.0
16.149	14.0
16.163	20.0
16.178	17.0
16.193	12.0
16.208	15.0
16.223	9.0
16.237	8.0
16.252	16.0
16.267	11.0
16.282	12.0
16.297	9.0
16.311	14.0
16.326	10.0
16.341	12.0
16.356	15.0
16.37	16.0
16.385	13.0
16.4	13.0
16.415	17.0
16.43	10.0
16.444	14.0
16.459	14.0
16.474	6.0
16.489	18.0
16.504	15.0
16.518	14.0
16.533	12.0
16.548	18.0
16.563	16.0
16.577	13.0
16.592	15.0
16.607	11.0
16.622	14.0
16.637	20.0
16.651	26.0
16.666	29.0
16.681	27.0
16.696	20.0
16.71	29.0
16.725	29.0
16.74	30.0
16.755	29.0
16.77	50.0
16.784	45.0
16.799	40.0
16.814	34.0
16.829	44.0
16.843	45.0
16.858	55.0
16.873	50.0
16.888	56.0
16.902	73.0
16.917	74.0
16.932	58.0
16.947	61.0
16.961	74.0
16.976	78.0
16.991	70.0
17.006	59.0
17.021	61.0
17.035	40.0
17.05	47.0
17.065	36.0
17.08	32.0
17.094	31.0
17.109	37.0
17.124	25.0
17.139	28.0
17.153	21.0
17.168	21.0
17.183	18.0
17.198	20.0
17.212	8.0
17.227	16.0
17.242	7.0
17.257	15.0
17.271	12.0
17.286	11.0
17.301	19.0
17.316	18.0
17.33	11.0
17.345	10.0
17.36	15.0
17.375	14.0
17.39	13.0
17.404	14.0
17.419	10.0
17.434	18.0
17.449	15.0
17.463	14.0
17.478	13.0
17.493	14.0
17.508	15.0
17.522	11.0
17.537	14.0
17.552	16.0
17.567	9.0
17.581	13.0
17.596	13.0
17.611	18.0
17.626	11.0
17.641	13.0
17.655	13.0
17.67	11.0
17.685	19.0
17.7	15.0
17.714	3.0
17.729	9.0
17.744	11.0
17.759	18.0
17.773	10.0
17.788	10.0
17.803	12.0
17.818	12.0
17.833	10.0
17.847	10.0
17.862	13.0
17.877	9.0
17.892	12.0
17.906	12.0
17.921	12.0
17.936	8.0
17.951	9.0
17.966	10.0
17.98	11.0
17.995	10.0
18.01	11.0
18.025	15.0
18.04	12.0
18.054	12.0
18.069	12.0
18.084	7.0
18.099	15.0
18.114	8.0
18.128	5.0
18.143	12.0
18.158	13.0
18.173	8.0
18.188	7.0
18.202	11.0
18.217	4.0
18.232	11.0
18.247	14.0
18.262	6.0
18.276	8.0
18.291	16.0
18.306	14.0
18.321	11.0
18.336	15.0
18.35	14.0
18.365	10.0
18.38	13.0
18.395	13.0
18.41	13.0
18.424	13.0
18.439	7.0
18.454	9.0
18.469	10.0
18.484	15.0
18.498	10.0
18.513	10.0
18.528	12.0
18.543	14.0
18.558	17.0
18.573	12.0
18.587	10.0
18.602	20.0
18.617	11.0
18.632	7.0
18.647	15.0
18.661	10.0
18.676	9.0
18.691	15.0
18.706	12.0
18.721	9.0
18.736	11.0
18.75	15.0
18.765	12.0
18.78	9.0
18.795	13.0
18.81	7.0
18.825	10.0
18.839	16.0
18.854	14.0
18.869	12.0
18.884	13.0
18.899	11.0
18.913	21.0
18.928	11.0
18.943	8.0
18.958	14.0
18.973	8.0
18.988	15.0
19.002	8.0
19.017	8.0
19.032	8.0
19.047	10.0
19.062	12.0
19.077	10.0
19.091	11.0
19.106	16.0
19.121	12.0
19.136	12.0
19.151	13.0
19.165	9.0
19.18	18.0
19.195	4.0
19.21	10.0
19.225	10.0
19.24	17.0
19.254	12.0
19.269	11.0
19.284	17.0
19.299	13.0
19.314	13.0
19.329	18.0
19.343	12.0
19.358	16.0
19.373	12.0
19.388	21.0
19.403	19.0
19.417	21.0
19.432	23.0
19.447	19.0
19.462	16.0
19.477	27.0
19.492	30.0
19.506	29.0
19.521	29.0
19.536	30.0
19.551	41.0
19.566	48.0
19.58	28.0
19.595	45.0
19.61	46.0
19.625	26.0
19.64	50.0
19.655	38.0
19.669	34.0
19.684	38.0
19.699	35.0
19.714	24.0
19.729	23.0
19.743	33.0
19.758	22.0
19.773	14.0
19.788	17.0
19.803	11.0
19.817	12.0
19.832	14.0
19.847	15.0
19.862	17.0
19.877	9.0
19.891	13.0
19.906	11.0
19.921	14.0
19.936	16.0
19.951	14.0
19.965	14.0
19.98	12.0
19.995	11.0
20.01	14.0
20.025	14.0
20.039	10.0
20.054	8.0
20.069	15.0
20.084	11.0
20.099	11.0
20.113	6.0
20.128	8.0
20.143	10.0
20.158	18.0
20.173	11.0
20.187	6.0
20.202	7.0
20.217	7.0
20.232	18.0
20.246	11.0
20.261	10.0
20.276	13.0
20.291	11.0
20.306	12.0
20.32	7.0
20.335	18.0
20.35	8.0
20.365	13.0
20.38	21.0
20.394	10.0
20.409	12.0
20.424	7.0
20.439	6.0
20.453	11.0
20.468	10.0
20.483	8.0
20.498	9.0
20.513	12.0
20.527	13.0
20.542	4.0
20.557	8.0
20.572	10.0
20.586	15.0
20.601	12.0
20.616	7.0
20.631	12.0
20.646	9.0
20.66	13.0
20.675	10.0
20.69	12.0
20.705	15.0
20.719	7.0
20.734	14.0
20.749	8.0
20.764	12.0
20.779	10.0
20.793	8.0
20.808	8.0
20.823	8.0
20.838	8.0
20.853	7.0
20.867	14.0
20.882	7.0
20.897	7.0
20.912	11.0
20.926	14.0
20.941	8.0
20.956	10.0
20.971	8.0
20.986	12.0
21.0	8.0
21.015	14.0
21.03	11.0
21.045	10.0
21.06	8.0
21.074	11.0
21.089	15.0
21.104	11.0
21.119	5.0
21.134	7.0
21.148	9.0
21.163	6.0
21.178	14.0
21.193	9.0
21.208	8.0
21.222	8.0
21.237	16.0
21.252	16.0
21.267	8.0
21.282	10.0
21.296	12.0
21.311	15.0
21.326	12.0
21.341	13.0
21.356	11.0
21.37	7.0
21.385	11.0
21.4	5.0
21.415	15.0
21.43	6.0
21.444	12.0
21.459	8.0
21.474	9.0
21.489	13.0
21.504	6.0
21.519	14.0
21.533	14.0
21.548	10.0
21.563	13.0
21.578	10.0
21.593	21.0
21.608	12.0
21.622	20.0
21.637	14.0
21.652	17.0
21.667	16.0
21.682	19.0
21.697	23.0
21.712	15.0
21.726	19.0
21.741	22.0
21.756	25.0
21.771	25.0
21.786	41.0
21.801	29.0
21.816	38.0
21.83	47.0
21.845	53.0
21.86	60.0
21.875	56.0
21.89	59.0
21.905	65.0
21.92	59.0
21.935	94.0
21.949	75.0
21.964	93.0
21.979	83.0
21.994	75.0
22.009	60.0
22.024	53.0
22.039	59.0
22.054	55.0
22.069	52.0
22.083	41.0
22.098	51.0
22.113	35.0
22.128	30.0
22.143	24.0
22.158	32.0
22.173	18.0
22.188	19.0
22.203	23.0
22.218	10.0
22.233	23.0
22.248	15.0
22.262	8.0
22.277	11.0
22.292	12.0
22.307	14.0
22.322	16.0
22.337	16.0
22.352	8.0
22.367	16.0
22.382	15.0
22.397	16.0
22.412	7.0
22.427	11.0
22.442	15.0
22.457	11.0
22.472	16.0
22.487	11.0
22.502	12.0
22.516	12.0
22.531	13.0
22.546	12.0
22.561	9.0
22.576	12.0
22.591	8.0
22.606	12.0
22.621	11.0
22.636	9.0
22.651	10.0
22.666	18.0
22.681	11.0
22.696	10.0
22.711	7.0
22.726	11.0
22.741	11.0
22.756	16.0
22.771	9.0
22.786	9.0
22.801	8.0
22.816	9.0
22.831	10.0
22.846	7.0
22.861	11.0
22.876	10.0
22.891	10.0
22.906	9.0
22.92	9.0
22.935	9.0
22.95	7.0
22.965	6.0
22.98	15.0
22.995	16.0
23.01	18.0
23.025	8.0
23.04	8.0
23.055	7.0
23.07	9.0
23.085	11.0
23.1	8.0
23.115	4.0
23.13	9.0
23.145	9.0
23.16	6.0
23.175	10.0
23.19	12.0
23.205	7.0
23.22	18.0
23.235	6.0
23.25	8.0
23.265	8.0
23.28	4.0
23.295	11.0
23.31	9.0
23.325	10.0
23.34	4.0
23.355	4.0
23.37	10.0
23.384	12.0
23.399	10.0
23.414	8.0
23.429	14.0
23.444	6.0
23.459	8.0
23.474	12.0
23.489	13.0
23.504	11.0
23.519	12.0
23.534	8.0
23.549	14.0
23.564	5.0
23.579	9.0
23.594	12.0
23.609	16.0
23.624	7.0
23.639	12.0
23.654	8.0
23.668	7.0
23.683	9.0
23.698	9.0
23.713	11.0
23.728	15.0
23.743	17.0
23.758	11.0
23.773	8.0
23.788	16.0
23.803	13.0
23.818	15.0
23.833	9.0
23.848	8.0
23.862	21.0
23.877	15.0
23.892	21.0
23.907	19.0
23.922	24.0
23.937	22.0
23.952	26.0
23.967	30.0
23.982	37.0
23.997	37.0
24.011	40.0
24.026	42.0
24.041	44.0
24.056	47.0
24.071	38.0
24.086	61.0
24.101	53.0
24.116	40.0
24.131	51.0
24.145	36.0
24.16	46.0
24.175	35.0
24.19	29.0
24.205	34.0
24.22	35.0
24.235	25.0
24.249	25.0
24.264	36.0
24.279	18.0
24.294	16.0
24.309	19.0
24.324	20.0
24.338	17.0
24.353	17.0
24.368	15.0
24.383	17.0
24.398	11.0
24.413	8.0
24.428	17.0
24.442	12.0
24.457	8.0
24.472	12.0
24.487	14.0
24.502	11.0
24.516	12.0
24.531	7.0
24.546	15.0
24.561	8.0
24.576	11.0
24.591	10.0
24.605	5.0
24.62	9.0
24.635	10.0
24.65	9.0
24.665	5.0
24.679	10.0
24.694	12.0
24.709	9.0
24.724	12.0
24.739	11.0
24.753	5.0
24.768	12.0
24.783	15.0
24.798	12.0
24.813	11.0
24.827	16.0
24.842	5.0
24.857	11.0
24.872	19.0
24.886	11.0
24.901	11.0
24.916	10.0
24.931	7.0
24.946	8.0
24.96	11.0
24.975	9.0
24.99	14.0
25.005	10.0
25.019	9.0
25.034	7.0
25.049	5.0
25.064	12.0
25.078	10.0
25.093	8.0
25.108	10.0
25.123	12.0
25.138	9.0
25.152	5.0
25.167	19.0
25.182	9.0
25.197	5.0
25.211	9.0
25.226	12.0
25.241	11.0
25.256	12.0
25.27	6.0
25.285	10.0
25.3	10.0
25.315	8.0
25.329	9.0
25.344	11.0
25.359	12.0
25.374	11.0
25.388	11.0
25.403	11.0
25.418	6.0
25.433	5.0
25.447	5.0
25.462	10.0
25.477	10.0
25.492	6.0
25.506	14.0
25.521	9.0
25.536	10.0
25.55	7.0
25.565	6.0
25.58	4.0
25.595	9.0
25.609	8.0
25.624	8.0
25.639	7.0
25.654	12.0
25.668	7.0
25.683	9.0
25.698	5.0
25.713	10.0
25.727	6.0
25.742	14.0
25.757	10.0
25.772	7.0
25.786	9.0
25.801	6.0
25.816	11.0
25.83	8.0
25.845	7.0
25.86	13.0
25.875	6.0
25.889	5.0
25.904	6.0
25.919	5.0
25.934	13.0
25.948	15.0
25.963	13.0
25.978	10.0
25.992	9.0
26.007	4.0
26.022	6.0
26.037	13.0
26.051	12.0
26.066	14.0
26.081	9.0
26.096	14.0
26.11	14.0
26.125	5.0
26.14	6.0
26.155	9.0
26.169	1.0
26.184	10.0
26.199	8.0
26.213	11.0
26.228	13.0
26.243	12.0
26.258	8.0
26.272	12.0
26.287	8.0
26.302	8.0
26.317	9.0
26.331	8.0
26.346	7.0
26.361	16.0
26.376	6.0
26.39	9.0
26.405	5.0
26.42	9.0
26.434	7.0
26.449	8.0
26.464	12.0
26.479	5.0
26.493	5.0
26.508	9.0
26.523	11.0
26.538	11.0
26.552	12.0
26.567	10.0
26.582	6.0
26.597	9.0
26.611	8.0
26.626	9.0
26.641	9.0
26.656	8.0
26.67	12.0
26.685	7.0
26.7	8.0
26.715	11.0
26.729	12.0
26.744	13.0
26.759	6.0
26.773	9.0
26.788	7.0
26.803	9.0
26.818	13.0
26.832	6.0
26.847	8.0
26.862	8.0
26.877	8.0
26.891	7.0
26.906	8.0
26.921	6.0
26.936	9.0
26.95	15.0
26.965	9.0
26.98	9.0
26.995	10.0
27.01	15.0
27.024	7.0
27.039	7.0
27.054	11.0
27.069	12.0
27.083	10.0
27.098	10.0
27.113	10.0
27.128	10.0
27.142	7.0
27.157	11.0
27.172	8.0
27.187	11.0
27.201	15.0
27.216	6.0
27.231	9.0
27.246	6.0
27.261	5.0
27.275	12.0
27.29	14.0
27.305	14.0
27.32	10.0
27.334	9.0
27.349	8.0
27.364	9.0
27.379	8.0
27.394	10.0
27.408	11.0
27.423	16.0
27.438	12.0
27.453	10.0
27.467	4.0
27.482	14.0
27.497	8.0
27.512	11.0
27.527	11.0
27.541	8.0
27.556	9.0
27.571	16.0
27.586	14.0
27.601	14.0
27.615	14.0
27.63	11.0
27.645	7.0
27.66	14.0
27.675	8.0
27.689	14.0
27.704	7.0
27.719	16.0
27.734	14.0
27.749	21.0
27.763	16.0
27.778	15.0
27.793	18.0
27.808	19.0
27.823	21.0
27.838	17.0
27.852	13.0
27.867	18.0
27.882	26.0
27.897	23.0
27.912	19.0
27.926	14.0
27.941	22.0
27.956	22.0
27.971	19.0
27.986	12.0
28.001	16.0
28.015	21.0
28.03	14.0
28.045	15.0
28.06	16.0
28.075	14.0
28.09	7.0
28.105	13.0
28.119	19.0
28.134	13.0
28.149	10.0
28.164	6.0
28.179	9.0
28.194	13.0
28.208	16.0
28.223	17.0
28.238	10.0
28.253	7.0
28.268	16.0
28.283	11.0
28.298	12.0
28.312	6.0
28.327	4.0
28.342	11.0
28.357	15.0
28.372	7.0
28.387	13.0
28.402	16.0
28.417	14.0
28.431	5.0
28.446	11.0
28.461	8.0
28.476	4.0
28.491	11.0
28.506	7.0
28.521	6.0
28.536	4.0
28.55	15.0
28.565	7.0
28.58	13.0
28.595	10.0
28.61	7.0
28.625	14.0
28.64	13.0
28.655	11.0
28.669	10.0
28.684	5.0
28.699	9.0
28.714	11.0
28.729	13.0
28.744	19.0
28.759	5.0
28.774	9.0
28.788	9.0
28.803	13.0
28.818	7.0
28.833	14.0
28.848	7.0
28.863	10.0
28.878	11.0
28.893	12.0
28.908	7.0
28.922	11.0
28.937	11.0
28.952	13.0
28.967	4.0
28.982	10.0
28.997	13.0
29.012	10.0
29.027	11.0
29.041	18.0
29.056	8.0
29.071	10.0
29.086	11.0
29.101	12.0
29.116	13.0
29.131	6.0
29.146	11.0
29.16	13.0
29.175	13.0
29.19	8.0
29.205	6.0
29.22	8.0
29.235	11.0
29.25	17.0
29.265	12.0
29.279	15.0
29.294	6.0
29.309	15.0
29.324	18.0
29.339	22.0
29.354	14.0
29.369	17.0
29.384	10.0
29.398	11.0
29.413	16.0
29.428	24.0
29.443	20.0
29.458	18.0
29.473	19.0
29.488	24.0
29.502	22.0
29.517	32.0
29.532	36.0
29.547	36.0
29.562	48.0
29.577	43.0
29.592	56.0
29.606	55.0
29.621	47.0
29.636	43.0
29.651	35.0
29.666	43.0
29.681	43.0
29.695	31.0
29.71	39.0
29.725	33.0
29.74	30.0
29.755	40.0
29.77	24.0
29.784	32.0
29.799	29.0
29.814	29.0
29.829	20.0
29.844	25.0
29.859	14.0
29.873	15.0
29.888	19.0
29.903	16.0
29.918	16.0
29.933	8.0
29.947	8.0
29.962	15.0
29.977	24.0
29.992	17.0
30.007	10.0
30.021	10.0
30.036	11.0
30.051	12.0
30.066	8.0
30.081	11.0
30.095	5.0
30.11	11.0
30.125	12.0
30.14	12.0
30.155	9.0
30.169	14.0
30.184	10.0
30.199	5.0
30.214	7.0
30.228	12.0
30.243	11.0
30.258	6.0
30.273	16.0
30.288	11.0
30.302	15.0
30.317	12.0
30.332	6.0
30.347	14.0
30.361	13.0
30.376	14.0
30.391	11.0
30.406	9.0
30.42	13.0
30.435	15.0
30.45	11.0
30.465	6.0
30.479	9.0
30.494	8.0
30.509	8.0
30.524	7.0
30.538	11.0
30.553	8.0
30.568	17.0
30.583	17.0
30.597	6.0
30.612	11.0
30.627	11.0
30.641	12.0
30.656	6.0
30.671	15.0
30.686	14.0
30.7	9.0
30.715	9.0
30.73	10.0
30.745	12.0
30.759	19.0
30.774	14.0
30.789	7.0
30.803	7.0
30.818	11.0
30.833	8.0
30.848	13.0
30.862	10.0
30.877	13.0
30.892	14.0
30.906	13.0
30.921	12.0
30.936	7.0
30.951	8.0
30.965	12.0
30.98	14.0
30.995	8.0
31.009	10.0
31.024	11.0
31.039	15.0
31.053	12.0
31.068	10.0
31.083	13.0
31.098	21.0
31.112	21.0
31.127	13.0
31.142	20.0
31.156	12.0
31.171	30.0
31.186	35.0
31.2	32.0
31.215	22.0
31.23	38.0
31.245	40.0
31.259	46.0
31.274	47.0
31.289	38.0
31.303	31.0
31.318	34.0
31.333	32.0
31.347	31.0
31.362	30.0
31.377	22.0
31.392	24.0
31.406	35.0
31.421	32.0
31.436	29.0
31.45	33.0
31.465	29.0
31.48	27.0
31.494	27.0
31.509	17.0
31.524	16.0
31.538	17.0
31.553	17.0
31.568	7.0
31.583	10.0
31.597	12.0
31.612	11.0
31.627	8.0
31.641	8.0
31.656	11.0
31.671	7.0
31.685	14.0
31.7	18.0
31.715	9.0
31.729	13.0
31.744	9.0
31.759	11.0
31.774	14.0
31.788	8.0
31.803	9.0
31.818	10.0
31.832	7.0
31.847	12.0
31.862	7.0
31.876	15.0
31.891	13.0
31.906	6.0
31.92	11.0
31.935	9.0
31.95	12.0
31.965	4.0
31.979	10.0
31.994	11.0
32.009	12.0
32.023	11.0
32.038	3.0
32.053	7.0
32.067	9.0
32.082	15.0
32.097	9.0
32.112	9.0
32.126	13.0
32.141	8.0
32.156	8.0
32.17	6.0
32.185	10.0
32.2	9.0
32.214	7.0
32.229	11.0
32.244	5.0
32.259	10.0
32.273	11.0
32.288	7.0
32.303	8.0
32.317	7.0
32.332	11.0
32.347	7.0
32.362	11.0
32.376	3.0
32.391	12.0
32.406	10.0
32.42	12.0
32.435	8.0
32.45	3.0
32.465	10.0
32.479	13.0
32.494	11.0
32.509	7.0
32.523	7.0
32.538	8.0
32.553	10.0
32.568	17.0
32.582	9.0
32.597	14.0
32.612	5.0
32.627	7.0
32.641	10.0
32.656	10.0
32.671	12.0
32.685	14.0
32.7	17.0
32.715	18.0
32.73	13.0
32.744	26.0
32.759	14.0
32.774	26.0
32.788	29.0
32.803	25.0
32.818	18.0
32.833	21.0
32.847	19.0
32.862	20.0
32.877	29.0
32.892	32.0
32.906	20.0
32.921	21.0
32.936	24.0
32.951	15.0
32.965	15.0
32.98	12.0
32.995	20.0
33.009	22.0
33.024	9.0
33.039	21.0
33.054	14.0
33.068	22.0
33.083	9.0
33.098	20.0
33.113	19.0
33.127	9.0
33.142	11.0
33.157	12.0
33.172	11.0
33.186	13.0
33.201	12.0
33.216	9.0
33.231	13.0
33.245	11.0
33.26	11.0
33.275	14.0
33.29	9.0
33.304	2.0
33.319	9.0
33.334	8.0
33.349	6.0
33.363	3.0
33.378	11.0
33.393	13.0
33.408	13.0
33.422	10.0
33.437	8.0
33.452	11.0
33.467	10.0
33.481	8.0
33.496	9.0
33.511	6.0
33.526	6.0
33.54	18.0
33.555	10.0
33.57	9.0
33.585	6.0
33.599	5.0
33.614	9.0
33.629	6.0
33.644	11.0
33.658	12.0
33.673	10.0
33.688	9.0
33.703	9.0
33.718	10.0
33.732	9.0
33.747	7.0
33.762	8.0
33.777	14.0
33.791	9.0
33.806	12.0
33.821	14.0
33.836	4.0
33.85	9.0
33.865	10.0
33.88	6.0
33.895	14.0
33.91	10.0
33.924	3.0
33.939	4.0
33.954	10.0
33.969	6.0
33.983	12.0
33.998	11.0
34.013	9.0
34.028	13.0
34.042	8.0
34.057	8.0
34.072	14.0
34.087	8.0
34.102	11.0
34.116	8.0
34.131	14.0
34.146	6.0
34.161	15.0
34.175	16.0
34.19	8.0
34.205	19.0
34.22	16.0
34.235	14.0
34.249	8.0
34.264	10.0
34.279	15.0
34.294	12.0
34.309	12.0
34.323	13.0
34.338	10.0
34.353	7.0
34.368	12.0
34.382	9.0
34.397	17.0
34.412	15.0
34.427	13.0
34.442	9.0
34.456	9.0
34.471	11.0
34.486	13.0
34.501	7.0
34.516	13.0
34.53	9.0
34.545	7.0
34.56	14.0
34.575	11.0
34.59	7.0
34.604	11.0
34.619	9.0
34.634	9.0
34.649	14.0
34.664	6.0
34.678	14.0
34.693	8.0
34.708	8.0
34.723	6.0
34.738	9.0
34.752	12.0
34.767	13.0
34.782	7.0
34.797	9.0
34.812	7.0
34.826	7.0
34.841	7.0
34.856	9.0
34.871	10.0
34.886	8.0
34.9	10.0
34.915	10.0
34.93	10.0
34.945	7.0
34.96	9.0
34.974	14.0
34.989	8.0
35.004	7.0
35.019	11.0
35.034	9.0
35.048	8.0
35.063	11.0
35.078	6.0
35.093	12.0
35.108	7.0
35.122	7.0
35.137	6.0
35.152	13.0
35.167	4.0
35.182	12.0
35.196	11.0
35.211	8.0
35.226	10.0
35.241	8.0
35.256	6.0
35.27	11.0
35.285	5.0
35.3	14.0
35.315	4.0
35.33	12.0
35.344	11.0
35.359	7.0
35.374	8.0
35.389	6.0
35.404	9.0
35.418	9.0
35.433	7.0
35.448	10.0
35.463	6.0
35.478	13.0
35.493	10.0
35.507	6.0
35.522	9.0
35.537	10.0
35.552	5.0
35.567	8.0
35.581	8.0
35.596	13.0
35.611	10.0
35.626	8.0
35.641	5.0
35.655	15.0
35.67	10.0
35.685	12.0
35.7	12.0
35.715	12.0
35.729	21.0
35.744	20.0
35.759	16.0
35.774	27.0
35.789	16.0
35.804	25.0
35.818	16.0
35.833	10.0
35.848	15.0
35.863	15.0
35.878	14.0
35.892	14.0
35.907	11.0
35.922	14.0
35.937	11.0
35.952	8.0
35.966	12.0
35.981	14.0
35.996	10.0
36.011	15.0
36.026	14.0
36.04	10.0
36.055	9.0
36.07	9.0
36.085	13.0
36.1	12.0
36.114	9.0
36.129	9.0
36.144	4.0
36.159	15.0
36.174	6.0
36.189	10.0
36.203	7.0
36.218	8.0
36.233	8.0
36.248	5.0
36.263	9.0
36.277	13.0
36.292	5.0
36.307	8.0
36.322	10.0
36.337	7.0
36.351	8.0
36.366	11.0
36.381	12.0
36.396	11.0
36.411	7.0
36.426	4.0
36.44	9.0
36.455	4.0
36.47	5.0
36.485	8.0
36.5	10.0
36.514	8.0
36.529	8.0
36.544	8.0
36.559	13.0
36.574	9.0
36.589	12.0
36.603	10.0
36.618	8.0
36.633	6.0
36.648	11.0
36.663	3.0
36.677	10.0
36.692	7.0
36.707	3.0
36.722	10.0
36.737	5.0
36.752	8.0
36.766	7.0
36.781	15.0
36.796	7.0
36.811	11.0
36.826	5.0
36.841	8.0
36.855	14.0
36.87	8.0
36.885	8.0
36.9	2.0
36.915	5.0
36.93	15.0
36.944	8.0
36.959	6.0
36.974	12.0
36.989	9.0
37.004	12.0
37.019	10.0
37.033	9.0
37.048	10.0
37.063	15.0
37.078	14.0
37.093	21.0
37.108	27.0
37.123	22.0
37.137	18.0
37.152	24.0
37.167	25.0
37.182	17.0
37.197	28.0
37.212	28.0
37.226	26.0
37.241	26.0
37.256	19.0
37.271	21.0
37.286	14.0
37.301	21.0
37.316	17.0
37.331	18.0
37.345	19.0
37.36	13.0
37.375	11.0
37.39	13.0
37.405	22.0
37.42	15.0
37.435	12.0
37.45	12.0
37.464	16.0
37.479	9.0
37.494	13.0
37.509	4.0
37.524	13.0
37.539	11.0
37.554	8.0
37.569	11.0
37.583	12.0
37.598	8.0
37.613	10.0
37.628	6.0
37.643	8.0
37.658	2.0
37.673	4.0
37.688	6.0
37.703	5.0
37.718	5.0
37.733	7.0
37.747	7.0
37.762	13.0
37.777	7.0
37.792	6.0
37.807	4.0
37.822	8.0
37.837	3.0
37.852	8.0
37.867	10.0
37.882	5.0
37.897	7.0
37.912	7.0
37.927	1.0
37.941	6.0
37.956	7.0
37.971	5.0
37.986	4.0
38.001	2.0
38.016	4.0
38.031	8.0
38.046	5.0
38.061	8.0
38.076	7.0
38.091	5.0
38.106	7.0
38.121	6.0
38.136	9.0
38.151	8.0
38.166	9.0
38.181	3.0
38.196	6.0
38.211	5.0
38.226	7.0
38.241	11.0
38.256	7.0
38.271	4.0
38.285	6.0
38.3	6.0
38.315	7.0
38.33	6.0
38.345	8.0
38.36	3.0
38.375	4.0
38.39	4.0
38.405	4.0
38.42	1.0
38.435	4.0
38.45	1.0
38.465	8.0
38.48	3.0
38.495	4.0
38.51	7.0
38.525	7.0
38.54	5.0
38.555	4.0
38.57	7.0
38.585	3.0
38.6	7.0
38.615	9.0
38.63	11.0
38.645	4.0
38.66	5.0
38.675	6.0
38.69	4.0
38.705	7.0
38.72	5.0
38.735	11.0
38.75	2.0
38.765	7.0
38.78	10.0
38.795	7.0
38.81	8.0
38.825	6.0
38.84	6.0
38.855	7.0
38.87	9.0
38.885	4.0
38.9	5.0
38.915	7.0
38.93	1.0
38.945	3.0
38.96	9.0
38.975	5.0
38.99	11.0
39.005	6.0
39.02	2.0
39.035	8.0
39.05	3.0
39.065	5.0
39.08	5.0
39.095	4.0
39.11	5.0
39.125	10.0
39.14	6.0
39.155	6.0
39.17	4.0
39.185	6.0
39.2	8.0
39.215	7.0
39.23	3.0
39.245	6.0
39.26	8.0
39.275	3.0
39.29	6.0
39.305	3.0
39.32	7.0
39.335	5.0
39.35	9.0
39.365	3.0
39.38	2.0
39.395	4.0
39.409	8.0
39.424	2.0
39.439	3.0
39.454	6.0
39.469	6.0
39.484	4.0
39.499	4.0
39.514	3.0
39.529	6.0
39.544	5.0
39.559	2.0
39.574	7.0
39.589	8.0
39.604	8.0
39.619	9.0
39.634	7.0
39.649	8.0
39.664	6.0
39.678	3.0
39.693	1.0
39.708	6.0
39.723	6.0
39.738	9.0
39.753	6.0
39.768	6.0
39.783	8.0
39.798	11.0
39.813	8.0
39.827	7.0
39.842	7.0
39.857	4.0
39.872	8.0
39.887	9.0
39.902	7.0
39.917	9.0
39.932	3.0
39.947	9.0
39.961	10.0
39.976	4.0
39.991	8.0
40.006	3.0
40.021	7.0
40.036	8.0
40.051	11.0
40.065	9.0
40.08	10.0
40.095	9.0
40.11	7.0
40.125	11.0
40.14	8.0
40.154	4.0
40.169	9.0
40.184	4.0
40.199	6.0
40.214	5.0
40.228	8.0
40.243	8.0
40.258	2.0
40.273	5.0
40.288	2.0
40.302	7.0
40.317	3.0
40.332	8.0
40.347	4.0
40.362	7.0
40.376	9.0
40.391	5.0
40.406	4.0
40.421	2.0
40.436	6.0
40.45	8.0
40.465	11.0
40.48	5.0
40.495	11.0
40.509	3.0
40.524	8.0
40.539	6.0
40.554	6.0
40.568	7.0
40.583	3.0
40.598	7.0
40.613	9.0
40.627	8.0
40.642	3.0
40.657	5.0
40.672	7.0
40.686	4.0
40.701	6.0
40.716	6.0
40.731	10.0
40.745	8.0
40.76	3.0
40.775	2.0
40.79	7.0
40.804	4.0
40.819	15.0
40.834	3.0
40.849	4.0
40.863	5.0
40.878	8.0
40.893	10.0
40.907	9.0
40.922	9.0
40.937	6.0
40.952	5.0
40.966	10.0
40.981	7.0
40.996	10.0
41.011	6.0
41.025	12.0
41.04	12.0
41.055	20.0
41.069	16.0
41.084	15.0
41.099	12.0
41.114	19.0
41.128	15.0
41.143	15.0
41.158	21.0
41.173	20.0
41.187	16.0
41.202	12.0
41.217	15.0
41.231	14.0
41.246	13.0
41.261	9.0
41.276	12.0
41.29	11.0
41.305	15.0
41.32	13.0
41.335	10.0
41.349	11.0
41.364	13.0
41.379	11.0
41.393	15.0
41.408	11.0
41.423	10.0
41.438	10.0
41.452	20.0
41.467	11.0
41.482	9.0
41.497	7.0
41.511	11.0
41.526	10.0
41.541	7.0
41.556	7.0
41.57	10.0
41.585	5.0
41.6	7.0
41.615	6.0
41.629	7.0
41.644	2.0
41.659	4.0
41.674	5.0
41.688	5.0
41.703	6.0
41.718	7.0
41.733	4.0
41.747	4.0
41.762	6.0
41.777	8.0
41.792	6.0
41.806	5.0
41.821	3.0
41.836	2.0
41.851	6.0
41.866	4.0
41.88	7.0
41.895	2.0
41.91	5.0
41.925	6.0
41.939	8.0
41.954	7.0
41.969	5.0
41.984	4.0
41.999	3.0
42.013	5.0
42.028	6.0
42.043	4.0
42.058	2.0
42.073	9.0
42.088	1.0
42.102	4.0
42.117	5.0
42.132	7.0
42.147	2.0
42.162	8.0
42.176	7.0
42.191	3.0
42.206	7.0
42.221	6.0
42.236	12.0
42.251	3.0
42.266	7.0
42.28	5.0
42.295	6.0
42.31	11.0
42.325	12.0
42.34	11.0
42.355	12.0
42.369	14.0
42.384	11.0
42.399	17.0
42.414	12.0
42.429	14.0
42.444	17.0
42.459	12.0
42.474	12.0
42.488	14.0
42.503	8.0
42.518	12.0
42.533	15.0
42.548	7.0
42.563	4.0
42.578	9.0
42.593	9.0
42.608	9.0
42.622	9.0
42.637	9.0
42.652	10.0
42.667	9.0
42.682	7.0
42.697	12.0
42.712	5.0
42.727	10.0
42.742	13.0
42.757	7.0
42.772	6.0
42.786	5.0
42.801	5.0
42.816	4.0
42.831	9.0
42.846	8.0
42.861	6.0
42.876	5.0
42.891	4.0
42.906	6.0
42.921	1.0
42.936	6.0
42.951	2.0
42.966	10.0
42.981	6.0
42.996	4.0
43.011	7.0
43.025	8.0
43.04	2.0
43.055	6.0
43.07	4.0
43.085	4.0
43.1	5.0
43.115	6.0
43.13	6.0
43.145	7.0
43.16	5.0
43.175	7.0
43.19	6.0
43.205	2.0
43.22	6.0
43.235	5.0
43.25	5.0
43.265	5.0
43.28	5.0
43.295	6.0
43.31	1.0
43.325	5.0
43.34	2.0
43.355	5.0
43.37	6.0
43.385	7.0
43.4	6.0
43.415	7.0
43.43	8.0
43.445	6.0
43.46	4.0
43.475	6.0
43.49	5.0
43.505	7.0
43.52	11.0
43.535	9.0
43.55	3.0
43.565	12.0
43.58	10.0
43.595	6.0
43.61	10.0
43.625	8.0
43.64	6.0
43.655	10.0
43.67	5.0
43.685	9.0
43.7	9.0
43.715	5.0
43.73	8.0
43.745	6.0
43.76	5.0
43.775	6.0
43.79	4.0
43.805	4.0
43.82	10.0
43.835	7.0
43.85	6.0
43.865	13.0
43.88	9.0
43.895	6.0
43.91	10.0
43.925	7.0
43.94	9.0
43.955	10.0
43.97	8.0
43.985	4.0
44.0	9.0
44.015	4.0
44.03	5.0
44.045	5.0
44.061	7.0
44.076	7.0
44.091	7.0
44.106	4.0
44.121	5.0
44.136	5.0
44.151	5.0
44.166	3.0
44.181	4.0
44.196	6.0
44.211	6.0
44.226	1.0
44.241	9.0
44.256	7.0
44.271	7.0
44.286	5.0
44.301	6.0
44.316	6.0
44.331	3.0
44.346	1.0
44.361	1.0
44.377	5.0
44.392	8.0
44.407	3.0
44.422	6.0
44.437	5.0
44.452	9.0
44.467	7.0
44.482	0.0
44.497	5.0
44.512	3.0
44.527	6.0
44.542	4.0
44.557	5.0
44.572	6.0
44.587	4.0
44.602	9.0
44.617	6.0
44.632	3.0
44.647	7.0
44.663	7.0
44.678	4.0
44.693	8.0
44.708	7.0
44.723	8.0
44.738	7.0
44.753	5.0
44.768	7.0
44.783	5.0
44.798	12.0
44.813	14.0
44.828	16.0
44.843	9.0
44.858	6.0
44.873	6.0
44.888	9.0
44.903	7.0
44.918	8.0
44.933	12.0
44.948	9.0
44.964	10.0
44.979	5.0
44.994	4.0
45.009	8.0
45.024	12.0
45.039	8.0
45.054	11.0
45.069	8.0
45.084	7.0
45.099	13.0
45.114	5.0
45.129	9.0
45.144	8.0
45.159	3.0
45.174	5.0
45.189	12.0
45.204	4.0
45.219	3.0
45.234	4.0
45.249	3.0
45.264	8.0
45.279	3.0
45.294	7.0
45.309	6.0
45.324	5.0
45.339	4.0
45.354	4.0
45.369	5.0
45.384	6.0
45.399	3.0
45.414	4.0
45.429	7.0
45.444	5.0
45.459	6.0
45.474	2.0
45.489	4.0
45.504	6.0
45.519	7.0
45.534	5.0
45.549	3.0
45.564	2.0
45.579	8.0
45.594	9.0
45.609	3.0
45.624	7.0
45.639	4.0
45.654	8.0
45.669	4.0
45.684	8.0
45.699	7.0
45.714	7.0
45.729	3.0
45.744	6.0
45.759	9.0
45.774	3.0
45.789	3.0
45.804	6.0
45.819	11.0
45.834	9.0
45.849	10.0
45.864	13.0
45.879	5.0
45.894	12.0
45.909	11.0
45.924	12.0
45.939	18.0
45.954	19.0
45.969	13.0
45.984	10.0
45.998	12.0
46.013	23.0
46.028	17.0
46.043	15.0
46.058	12.0
46.073	12.0
46.088	8.0
46.103	8.0
46.118	8.0
46.133	6.0
46.148	4.0
46.163	7.0
46.178	9.0
46.192	10.0
46.207	9.0
46.222	11.0
46.237	13.0
46.252	12.0
46.267	7.0
46.282	10.0
46.297	11.0
46.312	7.0
46.327	4.0
46.341	7.0
46.356	9.0
46.371	6.0
46.386	5.0
46.401	6.0
46.416	8.0
46.431	3.0
46.446	4.0
46.46	6.0
46.475	2.0
46.49	6.0
46.505	4.0
46.52	5.0
46.535	9.0
46.55	4.0
46.564	4.0
46.579	3.0
46.594	4.0
46.609	7.0
46.624	7.0
46.639	2.0
46.654	4.0
46.668	3.0
46.683	3.0
46.698	6.0
46.713	2.0
46.728	4.0
46.743	7.0
46.758	9.0
46.772	8.0
46.787	5.0
46.802	5.0
46.817	3.0
46.832	4.0
46.847	3.0
46.861	3.0
46.876	3.0
46.891	7.0
46.906	3.0
46.921	5.0
46.936	0.0
46.95	2.0
46.965	10.0
46.98	5.0
46.995	3.0
47.01	5.0
47.025	3.0
47.039	6.0
47.054	4.0
47.069	12.0
47.084	12.0
47.099	5.0
47.113	11.0
47.128	11.0
47.143	7.0
47.158	10.0
47.173	3.0
47.188	8.0
47.202	9.0
47.217	11.0
47.232	4.0
47.247	4.0
47.262	4.0
47.277	3.0
47.291	5.0
47.306	6.0
47.321	5.0
47.336	7.0
47.351	5.0
47.365	8.0
47.38	10.0
47.395	3.0
47.41	9.0
47.425	4.0
47.44	7.0
47.454	9.0
47.469	5.0
47.484	8.0
47.499	7.0
47.514	5.0
47.528	9.0
47.543	6.0
47.558	5.0
47.573	7.0
47.588	3.0
47.603	2.0
47.617	3.0
47.632	2.0
47.647	5.0
47.662	6.0
47.677	3.0
47.691	5.0
47.706	4.0
47.721	5.0
47.736	4.0
47.751	3.0
47.766	5.0
47.78	1.0
47.795	3.0
47.81	9.0
47.825	4.0
47.84	2.0
47.855	3.0
47.869	6.0
47.884	7.0
47.899	4.0
47.914	7.0
47.929	4.0
47.944	5.0
47.958	6.0
47.973	2.0
47.988	3.0
48.003	4.0
48.018	5.0
48.033	3.0
48.047	6.0
48.062	5.0
48.077	3.0
48.092	3.0
48.107	8.0
48.122	2.0
48.137	3.0
48.151	5.0
48.166	4.0
48.181	2.0
48.196	7.0
48.211	6.0
48.226	7.0
48.241	9.0
48.255	4.0
48.27	5.0
48.285	0.0
48.3	5.0
48.315	1.0
48.33	8.0
48.345	3.0
48.359	7.0
48.374	3.0
48.389	4.0
48.404	2.0
48.419	4.0
48.434	2.0
48.449	2.0
48.464	4.0
48.478	4.0
48.493	4.0
48.508	9.0
48.523	3.0
48.538	0.0
48.553	5.0
48.568	3.0
48.583	3.0
48.597	4.0
48.612	2.0
48.627	6.0
48.642	7.0
48.657	6.0
48.672	4.0
48.687	3.0
48.702	4.0
48.717	6.0
48.731	5.0
48.746	6.0
48.761	5.0
48.776	6.0
48.791	6.0
48.806	1.0
48.821	8.0
48.836	2.0
48.851	4.0
48.866	1.0
48.88	4.0
48.895	3.0
48.91	7.0
48.925	4.0
48.94	9.0
48.955	8.0
48.97	9.0
48.985	4.0
49.0	4.0
49.015	1.0
49.03	4.0
49.044	2.0
49.059	4.0
49.074	2.0
49.089	1.0
49.104	3.0
49.119	6.0
49.134	3.0
49.149	3.0
49.164	4.0
49.179	3.0
49.194	6.0
49.209	3.0
49.224	3.0
49.238	6.0
49.253	7.0
49.268	4.0
49.283	9.0
49.298	6.0
49.313	8.0
49.328	6.0
49.343	6.0
49.358	9.0
49.373	10.0
49.388	8.0
49.403	3.0
49.418	13.0
49.433	4.0
49.448	6.0
49.463	9.0
49.478	5.0
49.492	5.0
49.507	4.0
49.522	3.0
49.537	4.0
49.552	6.0
49.567	6.0
49.582	4.0
49.597	1.0
49.612	6.0
49.627	4.0
49.642	5.0
49.657	11.0
49.672	4.0
49.687	7.0
49.702	7.0
49.717	7.0
49.732	8.0
49.747	9.0
49.762	3.0
49.777	6.0
49.792	8.0
49.807	4.0
49.822	5.0
49.837	2.0
49.852	3.0
49.867	3.0
49.882	10.0
49.897	6.0
49.912	8.0
49.927	4.0
49.942	3.0
49.957	7.0
49.971	6.0
49.986	10.0
50.001	5.0
50.016	4.0
50.031	5.0
50.046	3.0
50.061	7.0
50.076	7.0
50.091	3.0
50.106	9.0
50.121	2.0
50.136	4.0
50.151	9.0
50.166	4.0
50.181	2.0
50.196	8.0
50.211	2.0
50.226	4.0
50.241	5.0
50.256	4.0
50.271	4.0
50.286	5.0
50.302	5.0
50.317	4.0
50.332	3.0
50.347	5.0
50.362	3.0
50.377	4.0
50.392	8.0
50.407	3.0
50.422	9.0
50.437	5.0
50.452	3.0
50.467	14.0
50.482	4.0
50.497	7.0
50.512	8.0
50.527	5.0
50.542	5.0
50.557	5.0
50.572	7.0
50.587	3.0
50.602	6.0
50.617	4.0
50.632	5.0
50.647	4.0
50.662	5.0
50.677	6.0
50.692	5.0
50.707	4.0
50.722	6.0
50.737	6.0
50.752	2.0
50.767	5.0
50.782	5.0
50.797	8.0
50.812	8.0
50.828	6.0
50.843	6.0
50.858	6.0
50.873	7.0
50.888	5.0
50.903	4.0
50.918	8.0
50.933	6.0
50.948	6.0
50.963	3.0
50.978	3.0
50.993	1.0
51.008	2.0
51.023	8.0
51.038	9.0
51.053	3.0
51.068	4.0
51.083	4.0
51.098	2.0
51.114	4.0
51.129	3.0
51.144	0.0
51.159	4.0
51.174	0.0
51.189	0.0
51.204	3.0
51.219	5.0
51.234	3.0
51.249	8.0
51.264	4.0
51.279	11.0
51.294	2.0
51.309	10.0
51.324	6.0
51.34	5.0
51.355	3.0
51.37	9.0
51.385	7.0
51.4	4.0
51.415	9.0
51.43	9.0
51.445	8.0
51.46	7.0
51.475	9.0
51.49	17.0
51.505	18.0
51.52	16.0
51.535	16.0
51.551	18.0
51.566	19.0
51.581	11.0
51.596	10.0
51.611	11.0
51.626	11.0
51.641	4.0
51.656	5.0
51.671	3.0
51.686	9.0
51.701	5.0
51.716	6.0
51.732	7.0
51.747	8.0
51.762	3.0
51.777	11.0
51.792	4.0
51.807	8.0
51.822	13.0
51.837	11.0
51.852	10.0
51.867	17.0
51.882	9.0
51.898	3.0
51.913	5.0
51.928	18.0
51.943	5.0
51.958	8.0
51.973	9.0
51.988	5.0
52.003	8.0
52.018	4.0
52.033	6.0
52.048	4.0
52.064	4.0
52.079	1.0
52.094	4.0
52.109	7.0
52.124	2.0
52.139	7.0
52.154	3.0
52.169	4.0
52.184	7.0
52.199	4.0
52.215	2.0
52.23	5.0
52.245	7.0
52.26	1.0
52.275	6.0
52.29	6.0
52.305	5.0
52.32	4.0
52.335	2.0
52.35	5.0
52.366	4.0
52.381	2.0
52.396	6.0
52.411	3.0
52.426	11.0
52.441	5.0
52.456	8.0
52.471	10.0
52.486	7.0
52.502	9.0
52.517	14.0
52.532	4.0
52.547	10.0
52.562	12.0
52.577	12.0
52.592	6.0
52.607	6.0
52.622	8.0
52.637	7.0
52.653	7.0
52.668	14.0
52.683	9.0
52.698	11.0
52.713	8.0
52.728	9.0
52.743	5.0
52.758	5.0
52.774	7.0
52.789	1.0
52.804	7.0
52.819	10.0
52.834	2.0
52.849	12.0
52.864	14.0
52.879	8.0
52.894	9.0
52.91	9.0
52.925	3.0
52.94	4.0
52.955	6.0
52.97	3.0
52.985	9.0
53.0	4.0
53.015	4.0
53.031	3.0
53.046	4.0
53.061	6.0
53.076	9.0
53.091	6.0
53.106	5.0
53.121	5.0
53.136	4.0
53.152	5.0
53.167	4.0
53.182	4.0
53.197	4.0
53.212	4.0
53.227	9.0
53.242	5.0
53.257	4.0
53.273	1.0
53.288	8.0
53.303	7.0
53.318	1.0
53.333	6.0
53.348	2.0
53.363	5.0
53.379	2.0
53.394	2.0
53.409	6.0
53.424	5.0
53.439	4.0
53.454	5.0
53.469	2.0
53.484	2.0
53.5	3.0
53.515	2.0
53.53	4.0
53.545	3.0
53.56	3.0
53.575	2.0
53.59	3.0
53.606	6.0
53.621	5.0
53.636	6.0
53.651	4.0
53.666	4.0
53.681	2.0
53.696	1.0
53.712	6.0
53.727	6.0
53.742	2.0
53.757	5.0
53.772	3.0
53.787	5.0
53.802	3.0
53.818	3.0
53.833	6.0
53.848	7.0
53.863	4.0
53.878	4.0
53.893	8.0
53.909	4.0
53.924	5.0
53.939	3.0
53.954	2.0
53.969	6.0
53.984	3.0
53.999	6.0
54.015	9.0
54.03	4.0
54.045	8.0
54.06	8.0
54.075	5.0
54.09	3.0
54.106	10.0
54.121	3.0
54.136	9.0
54.151	2.0
54.166	3.0
54.181	3.0
54.197	4.0
54.212	5.0
54.227	2.0
54.242	5.0
54.257	4.0
54.272	3.0
54.288	1.0
54.303	4.0
54.318	5.0
54.333	4.0
54.348	7.0
54.363	4.0
54.379	2.0
54.394	6.0
54.409	9.0
54.424	8.0
54.439	4.0
54.454	2.0
54.47	4.0
54.485	7.0
54.5	9.0
54.515	5.0
54.53	6.0
54.545	5.0
54.561	6.0
54.576	10.0
54.591	13.0
54.606	10.0
54.621	6.0
54.636	12.0
54.652	12.0
54.667	6.0
54.682	11.0
54.697	14.0
54.712	11.0
54.727	9.0
54.743	9.0
54.758	7.0
54.773	9.0
54.788	7.0
54.803	2.0
54.819	5.0
54.834	8.0
54.849	5.0
54.864	5.0
54.879	4.0
54.894	10.0
54.91	6.0
54.925	4.0
54.94	8.0
54.955	8.0
54.97	8.0
54.985	6.0
55.001	6.0
55.016	13.0
55.031	6.0
55.046	7.0
55.061	6.0
55.077	8.0
55.092	8.0
55.107	7.0
55.122	6.0
55.137	1.0
55.152	7.0
55.168	3.0
55.183	4.0
55.198	1.0
55.213	7.0
55.228	6.0
55.243	6.0
55.259	1.0
55.274	6.0
55.289	6.0
55.304	1.0
55.319	7.0
55.335	3.0
55.35	5.0
55.365	5.0
55.38	4.0
55.395	4.0
55.41	10.0
55.426	4.0
55.441	3.0
55.456	5.0
55.471	4.0
55.486	6.0
55.501	7.0
55.517	3.0
55.532	6.0
55.547	1.0
55.562	5.0
55.577	4.0
55.592	6.0
55.608	1.0
55.623	6.0
55.638	3.0
55.653	6.0
55.668	8.0
55.683	7.0
55.699	9.0
55.714	5.0
55.729	1.0
55.744	13.0
55.759	9.0
55.774	14.0
55.79	7.0
55.805	4.0
55.82	4.0
55.835	4.0
55.85	9.0
55.865	9.0
55.881	4.0
55.896	6.0
55.911	1.0
55.926	4.0
55.941	10.0
55.956	7.0
55.972	7.0
55.987	7.0
56.002	5.0
56.017	6.0
56.032	5.0
56.047	11.0
56.063	8.0
56.078	2.0
56.093	5.0
56.108	1.0
56.123	7.0
56.138	5.0
56.154	3.0
56.169	1.0
56.184	4.0
56.199	3.0
56.214	3.0
56.229	9.0
56.244	4.0
56.26	5.0
56.275	5.0
56.29	5.0
56.305	5.0
56.32	5.0
56.335	4.0
56.351	5.0
56.366	2.0
56.381	3.0
56.396	4.0
56.411	1.0
56.426	3.0
56.441	4.0
56.457	7.0
56.472	5.0
56.487	4.0
56.502	1.0
56.517	3.0
56.532	3.0
56.547	3.0
56.563	3.0
56.578	4.0
56.593	6.0
56.608	2.0
56.623	3.0
56.638	1.0
56.653	4.0
56.668	2.0
56.684	2.0
56.699	5.0
56.714	4.0
56.729	5.0
56.744	4.0
56.759	3.0
56.774	6.0
56.79	6.0
56.805	3.0
56.82	3.0
56.835	0.0
56.85	4.0
56.865	3.0
56.88	3.0
56.895	4.0
56.911	3.0
56.926	5.0
56.941	4.0
56.956	3.0
56.971	6.0
56.986	1.0
57.001	1.0
57.016	5.0
57.031	3.0
57.047	2.0
57.062	6.0
57.077	2.0
57.092	3.0
57.107	3.0
57.122	3.0
57.137	3.0
57.152	4.0
57.167	2.0
57.183	7.0
57.198	3.0
57.213	4.0
57.228	6.0
57.243	2.0
57.258	0.0
57.273	4.0
57.288	4.0
57.303	1.0
57.318	2.0
57.334	3.0
57.349	0.0
57.364	7.0
57.379	3.0
57.394	6.0
57.409	2.0
57.424	3.0
57.439	3.0
57.454	6.0
57.469	7.0
57.484	5.0
57.5	4.0
57.515	5.0
57.53	4.0
57.545	5.0
57.56	2.0
57.575	3.0
57.59	5.0
57.605	4.0
57.62	3.0
57.635	9.0
57.65	9.0
57.665	5.0
57.68	6.0
57.696	6.0
57.711	2.0
57.726	7.0
57.741	8.0
57.756	6.0
57.771	5.0
57.786	6.0
57.801	4.0
57.816	2.0
57.831	2.0
57.846	2.0
57.861	2.0
57.876	1.0
57.891	5.0
57.906	2.0
57.921	4.0
57.937	2.0
57.952	4.0
57.967	10.0
57.982	3.0
57.997	3.0
58.012	5.0
58.027	9.0
58.042	4.0
58.057	9.0
58.072	1.0
58.087	2.0
58.102	7.0
58.117	3.0
58.132	3.0
58.147	2.0
58.162	1.0
58.177	3.0
58.192	2.0
58.207	4.0
58.222	5.0
58.237	2.0
58.252	3.0
58.267	3.0
58.282	3.0
58.297	4.0
58.312	3.0
58.327	1.0
58.342	8.0
58.357	3.0
58.372	4.0
58.387	4.0
58.402	5.0
58.418	2.0
58.433	3.0
58.448	6.0
58.463	7.0
58.478	6.0
58.493	5.0
58.508	5.0
58.523	4.0
58.538	6.0
58.553	3.0
58.568	3.0
58.583	5.0
58.598	4.0
58.613	8.0
58.628	6.0
58.643	10.0
58.658	12.0
58.673	7.0
58.688	6.0
58.703	3.0
58.718	6.0
58.733	3.0
58.748	5.0
58.763	4.0
58.778	5.0
58.793	5.0
58.808	1.0
58.823	3.0
58.838	3.0
58.853	4.0
58.868	5.0
58.883	6.0
58.898	6.0
58.913	7.0
58.928	6.0
58.942	2.0
58.957	5.0
58.972	7.0
58.987	6.0
59.002	2.0
59.017	2.0
59.032	6.0
59.047	3.0
59.062	4.0
59.077	3.0
59.092	7.0
59.107	5.0
59.122	11.0
59.137	1.0
59.152	2.0
59.167	3.0
59.182	3.0
59.197	5.0
59.212	4.0
59.227	5.0
59.242	4.0
59.257	4.0
59.272	3.0
59.287	2.0
59.302	2.0
59.317	4.0
59.332	1.0
59.347	2.0
59.362	7.0
59.377	1.0
59.392	4.0
59.407	5.0
59.422	1.0
59.437	3.0
59.452	10.0
59.467	6.0
59.482	2.0
59.497	3.0
59.512	8.0
59.527	6.0
59.542	11.0
59.557	5.0
59.572	9.0
59.587	9.0
59.602	7.0
59.617	3.0
59.632	6.0
59.647	8.0
59.661	6.0
59.676	8.0
59.691	6.0
59.706	9.0
59.721	11.0
59.736	7.0
59.751	3.0
59.766	5.0
59.781	1.0
59.796	1.0
59.811	2.0
59.826	3.0
59.841	11.0
59.856	4.0
59.871	3.0
59.886	9.0
59.901	9.0
59.916	3.0
59.931	5.0
59.946	3.0
59.961	6.0
59.976	6.0
59.991	8.0
60.006	8.0
60.021	7.0
60.036	6.0
60.051	11.0
60.066	7.0
60.081	4.0
60.096	6.0
60.111	5.0
60.126	3.0
60.141	6.0
60.156	1.0
60.171	6.0
60.186	6.0
60.201	5.0
60.216	8.0
60.231	6.0
60.246	4.0
60.261	2.0
60.276	2.0
60.291	5.0
60.306	4.0
60.321	2.0
60.336	8.0
60.35	4.0
60.365	4.0
60.38	3.0
60.395	2.0
60.41	6.0
60.425	4.0
60.44	7.0
60.455	4.0
60.47	2.0
60.485	8.0
60.5	10.0
60.515	2.0
60.53	7.0
60.545	5.0
60.56	4.0
60.575	6.0
60.59	7.0
60.605	10.0
60.62	7.0
60.635	11.0
60.65	5.0
60.665	6.0
60.68	6.0
60.695	5.0
60.71	3.0
60.725	4.0
60.74	6.0
60.755	6.0
60.77	3.0
60.785	5.0
60.8	7.0
60.815	6.0
60.83	2.0
60.845	3.0
60.86	2.0
60.875	3.0
60.89	6.0
60.905	3.0
60.92	6.0
60.935	10.0
60.95	2.0
60.965	8.0
60.98	5.0
60.995	7.0
61.01	4.0
61.025	5.0
61.04	1.0
61.055	5.0
61.07	3.0
61.085	2.0
61.1	5.0
61.115	5.0
61.13	1.0
61.145	4.0
61.16	4.0
61.175	3.0
61.191	5.0
61.206	4.0
61.221	4.0
61.236	0.0
61.251	3.0
61.266	6.0
61.281	4.0
61.296	3.0
61.311	3.0
61.326	5.0
61.341	4.0
61.356	3.0
61.371	0.0
61.386	4.0
61.401	2.0
61.416	3.0
61.431	3.0
61.446	3.0
61.461	6.0
61.476	5.0
61.491	6.0
61.506	8.0
61.521	9.0
61.536	8.0
61.551	8.0
61.566	5.0
61.581	4.0
61.596	4.0
61.611	7.0
61.626	5.0
61.641	3.0
61.656	2.0
61.672	3.0
61.687	3.0
61.702	2.0
61.717	4.0
61.732	1.0
61.747	7.0
61.762	7.0
61.777	4.0
61.792	6.0
61.807	5.0
61.822	2.0
61.837	2.0
61.852	4.0
61.867	5.0
61.882	7.0
61.897	2.0
61.912	11.0
61.927	6.0
61.943	1.0
61.958	2.0
61.973	3.0
61.988	3.0
62.003	3.0
62.018	2.0
62.033	1.0
62.048	3.0
62.063	5.0
62.078	4.0
62.093	3.0
62.108	4.0
62.123	3.0
62.138	1.0
62.153	3.0
62.169	2.0
62.184	5.0
62.199	1.0
62.214	9.0
62.229	2.0
62.244	4.0
62.259	5.0
62.274	4.0
62.289	2.0
62.304	3.0
62.319	5.0
62.335	3.0
62.35	4.0
62.365	4.0
62.38	4.0
62.395	6.0
62.41	7.0
62.425	6.0
62.44	1.0
62.455	8.0
62.47	7.0
62.485	1.0
62.501	7.0
62.516	4.0
62.531	5.0
62.546	6.0
62.561	4.0
62.576	3.0
62.591	3.0
62.606	9.0
62.621	2.0
62.636	1.0
62.652	4.0
62.667	4.0
62.682	5.0
62.697	4.0
62.712	2.0
62.727	4.0
62.742	2.0
62.757	3.0
62.772	5.0
62.787	4.0
62.803	3.0
62.818	4.0
62.833	2.0
62.848	3.0
62.863	4.0
62.878	4.0
62.893	8.0
62.908	2.0
62.923	5.0
62.939	5.0
62.954	7.0
62.969	5.0
62.984	6.0
62.999	1.0
63.014	1.0
63.029	3.0
63.044	4.0
63.059	3.0
63.074	2.0
63.09	1.0
63.105	3.0
63.12	2.0
63.135	2.0
63.15	2.0
63.165	6.0
63.18	2.0
63.195	5.0
63.21	6.0
63.226	3.0
63.241	4.0
63.256	5.0
63.271	4.0
63.286	8.0
63.301	6.0
63.316	6.0
63.331	6.0
63.346	7.0
63.362	7.0
63.377	11.0
63.392	5.0
63.407	9.0
63.422	8.0
63.437	8.0
63.452	5.0
63.467	5.0
63.482	8.0
63.497	4.0
63.513	3.0
63.528	2.0
63.543	3.0
63.558	4.0
63.573	3.0
63.588	5.0
63.603	4.0
63.618	4.0
63.633	5.0
63.648	3.0
63.664	2.0
63.679	3.0
63.694	4.0
63.709	6.0
63.724	4.0
63.739	5.0
63.754	7.0
63.769	6.0
63.784	3.0
63.799	4.0
63.814	3.0
63.83	3.0
63.845	7.0
63.86	4.0
63.875	5.0
63.89	5.0
63.905	8.0
63.92	1.0
63.935	3.0
63.95	1.0
63.965	2.0
63.98	3.0
63.996	2.0
64.011	1.0
64.026	3.0
64.041	2.0
64.056	6.0
64.071	5.0
64.086	4.0
64.101	2.0
64.116	3.0
64.131	5.0
64.146	3.0
64.161	5.0
64.176	2.0
64.191	0.0
64.207	2.0
64.222	0.0
64.237	3.0
64.252	3.0
64.267	2.0
64.282	1.0
64.297	1.0
64.312	4.0
64.327	3.0
64.342	5.0
64.357	4.0
64.372	6.0
64.387	1.0
64.402	4.0
64.417	3.0
64.433	3.0
64.448	2.0
64.463	3.0
64.478	6.0
64.493	2.0
64.508	5.0
64.523	4.0
64.538	3.0
64.553	3.0
64.568	3.0
64.583	4.0
64.598	1.0
64.613	0.0
64.628	1.0
64.643	3.0
64.658	6.0
64.673	1.0
64.688	1.0
64.703	3.0
64.718	2.0
64.734	2.0
64.749	8.0
64.764	5.0
64.779	2.0
64.794	3.0
64.809	4.0
64.824	8.0
64.839	4.0
64.854	1.0
64.869	6.0
64.884	3.0
64.899	0.0
64.914	4.0
64.929	0.0
64.944	5.0
64.959	3.0
64.974	1.0
64.989	4.0
65.004	1.0
65.019	2.0
65.034	6.0
65.049	4.0
65.064	2.0
65.079	5.0
65.094	3.0
65.109	0.0
65.125	3.0
65.14	4.0
65.155	3.0
65.17	6.0
65.185	8.0
65.2	5.0
65.215	3.0
65.23	1.0
65.245	4.0
65.26	5.0
65.275	5.0
65.29	4.0
65.305	6.0
65.32	3.0
65.335	3.0
65.35	1.0
65.365	5.0
65.38	10.0
65.395	6.0
65.41	6.0
65.425	5.0
65.44	3.0
65.455	4.0
65.47	6.0
65.485	2.0
65.5	2.0
65.515	2.0
65.53	1.0
65.545	4.0
65.56	6.0
65.575	1.0
65.59	5.0
65.605	1.0
65.62	2.0
65.635	2.0
65.65	3.0
65.666	9.0
65.681	3.0
65.696	1.0
65.711	6.0
65.726	8.0
65.741	2.0
65.756	3.0
65.771	2.0
65.786	3.0
65.801	3.0
65.816	4.0
65.831	3.0
65.846	7.0
65.861	4.0
65.876	4.0
65.891	0.0
65.906	3.0
65.921	3.0
65.936	4.0
65.951	5.0
65.966	2.0
65.981	3.0
65.996	6.0
66.011	8.0
66.026	7.0
66.041	4.0
66.056	7.0
66.071	5.0
66.086	4.0
66.101	3.0
66.116	6.0
66.131	6.0
66.146	10.0
66.161	6.0
66.176	7.0
66.191	9.0
66.206	11.0
66.221	8.0
66.236	3.0
66.251	9.0
66.266	6.0
66.281	9.0
66.296	3.0
66.311	6.0
66.327	6.0
66.342	7.0
66.357	0.0
66.372	6.0
66.387	3.0
66.402	5.0
66.417	3.0
66.432	4.0
66.447	8.0
66.462	6.0
66.477	7.0
66.492	4.0
66.507	2.0
66.522	1.0
66.537	2.0
66.552	8.0
66.567	5.0
66.582	10.0
66.597	6.0
66.612	4.0
66.627	4.0
66.642	4.0
66.657	5.0
66.672	4.0
66.687	3.0
66.702	5.0
66.717	3.0
66.732	7.0
66.747	3.0
66.762	3.0
66.777	3.0
66.792	3.0
66.807	4.0
66.822	5.0
66.837	3.0
66.853	0.0
66.868	2.0
66.883	5.0
66.898	4.0
66.913	5.0
66.928	3.0
66.943	0.0
66.958	3.0
66.973	2.0
66.988	5.0
67.003	4.0
67.018	1.0
67.033	3.0
67.048	6.0
67.063	7.0
67.078	3.0
67.093	6.0
67.108	6.0
67.123	5.0
67.138	5.0
67.153	4.0
67.168	4.0
67.183	4.0
67.198	5.0
67.214	5.0
67.229	3.0
67.244	1.0
67.259	4.0
67.274	2.0
67.289	5.0
67.304	1.0
67.319	3.0
67.334	2.0
67.349	2.0
67.364	4.0
67.379	8.0
67.394	3.0
67.409	2.0
67.424	5.0
67.439	7.0
67.454	5.0
67.469	6.0
67.484	2.0
67.5	6.0
67.515	3.0
67.53	4.0
67.545	3.0
67.56	7.0
67.575	7.0
67.59	2.0
67.605	6.0
67.62	6.0
67.635	5.0
67.65	3.0
67.665	3.0
67.68	3.0
67.695	5.0
67.71	4.0
67.726	2.0
67.741	3.0
67.756	7.0
67.771	2.0
67.786	3.0
67.801	3.0
67.816	0.0
67.831	3.0
67.846	4.0
67.861	0.0
67.876	3.0
67.891	3.0
67.906	2.0
67.922	3.0
67.937	1.0
67.952	3.0
67.967	6.0
67.982	7.0
67.997	8.0
68.012	2.0
68.027	4.0
68.042	4.0
68.057	9.0
68.072	4.0
68.087	2.0
68.103	5.0
68.118	3.0
68.133	2.0
68.148	4.0
68.163	3.0
68.178	0.0
68.193	3.0
68.208	5.0
68.223	2.0
68.238	4.0
68.254	5.0
68.269	3.0
68.284	2.0
68.299	3.0
68.314	1.0
68.329	3.0
68.344	4.0
68.359	1.0
68.374	2.0
68.389	6.0
68.405	4.0
68.42	4.0
68.435	2.0
68.45	2.0
68.465	5.0
68.48	1.0
68.495	2.0
68.51	3.0
68.525	1.0
68.54	2.0
68.556	8.0
68.571	4.0
68.586	1.0
68.601	5.0
68.616	3.0
68.631	6.0
68.646	5.0
68.661	0.0
68.676	1.0
68.691	0.0
68.707	3.0
68.722	6.0
68.737	3.0
68.752	7.0
68.767	3.0
68.782	7.0
68.797	2.0
68.812	2.0
68.827	3.0
68.842	8.0
68.857	6.0
68.873	7.0
68.888	4.0
68.903	1.0
68.918	4.0
68.933	3.0
68.948	7.0
68.963	4.0
68.978	2.0
68.993	0.0
69.008	4.0
69.023	4.0
69.038	4.0
69.054	5.0
69.069	4.0
69.084	3.0
69.099	4.0
69.114	3.0
69.129	1.0
69.144	3.0
69.159	4.0
69.174	4.0
69.189	2.0
69.204	7.0
69.219	2.0
69.234	2.0
69.249	3.0
69.264	2.0
69.279	4.0
69.295	1.0
69.31	4.0
69.325	4.0
69.34	3.0
69.355	7.0
69.37	0.0
69.385	3.0
69.4	5.0
69.415	3.0
69.43	4.0
69.445	8.0
69.46	5.0
69.475	3.0
69.49	6.0
69.505	1.0
69.52	2.0
69.535	3.0
69.55	1.0
69.565	6.0
69.58	3.0
69.595	0.0
69.61	2.0
69.625	1.0
69.64	4.0
69.655	0.0
69.67	4.0
69.685	6.0
69.7	4.0
69.715	3.0
69.73	4.0
69.745	7.0
69.76	4.0
69.775	4.0
69.79	6.0
69.805	4.0
69.82	10.0
69.835	5.0
69.85	4.0
69.865	1.0
69.88	4.0
69.895	7.0
69.909	3.0
69.924	3.0
69.939	3.0
69.954	3.0
69.969	2.0
69.984	4.0
69.999	2.0
70.014	2.0
70.029	1.0
70.044	4.0
70.059	1.0
70.074	4.0
70.088	1.0
70.103	5.0
70.118	3.0
70.133	4.0
70.148	7.0
70.163	4.0
70.178	6.0
70.193	2.0
70.208	3.0
70.222	6.0
70.237	3.0
70.252	7.0
70.267	2.0
70.282	5.0
70.297	1.0
70.312	5.0
70.327	5.0
70.341	5.0
70.356	5.0
70.371	1.0
70.386	8.0
70.401	2.0
70.416	6.0
70.43	2.0
70.445	3.0
70.46	6.0
70.475	3.0
70.49	10.0
70.505	4.0
70.519	3.0
70.534	3.0
70.549	2.0
70.564	5.0
70.579	11.0
70.594	4.0
70.608	3.0
70.623	5.0
70.638	4.0
70.653	2.0
70.668	3.0
70.683	3.0
70.697	6.0
70.712	4.0
70.727	7.0
70.742	2.0
70.757	7.0
70.771	4.0
70.786	9.0
70.801	4.0
70.816	3.0
70.831	4.0
70.845	4.0
70.86	9.0
70.875	2.0
70.89	4.0
70.905	3.0
70.92	3.0
70.934	2.0
70.949	6.0
70.964	2.0
70.979	4.0
70.994	6.0
71.008	3.0
71.023	2.0
71.038	4.0
71.053	5.0
71.068	3.0
71.082	7.0
71.097	2.0
71.112	3.0
71.127	1.0
71.142	4.0
71.156	3.0
71.171	4.0
71.186	7.0
71.201	4.0
71.216	4.0
71.231	6.0
71.245	5.0
71.26	3.0
71.275	3.0
71.29	2.0
71.305	5.0
71.319	6.0
71.334	3.0
71.349	7.0
71.364	4.0
71.379	3.0
71.394	8.0
71.408	4.0
71.423	0.0
71.438	4.0
71.453	6.0
71.468	3.0
71.483	1.0
71.497	3.0
71.512	6.0
71.527	3.0
71.542	3.0
71.557	1.0
71.572	3.0
71.586	7.0
71.601	2.0
71.616	1.0
71.631	4.0
71.646	3.0
71.661	4.0
71.676	6.0
71.69	4.0
71.705	1.0
71.72	2.0
71.735	1.0
71.75	1.0
71.765	3.0
71.78	5.0
71.795	2.0
71.81	3.0
71.824	1.0
71.839	3.0
71.854	3.0
71.869	1.0
71.884	7.0
71.899	4.0
71.914	2.0
71.929	1.0
71.944	0.0
71.959	1.0
71.974	1.0
71.988	1.0
72.003	3.0
72.018	3.0
72.033	1.0
72.048	2.0
72.063	5.0
72.078	3.0
72.093	2.0
72.108	4.0
72.123	3.0
72.138	4.0
72.153	4.0
72.168	1.0
72.183	3.0
72.198	3.0
72.213	2.0
72.228	6.0
72.243	8.0
72.258	4.0
72.273	2.0
72.288	5.0
72.303	4.0
72.318	2.0
72.333	3.0
72.348	2.0
72.363	5.0
72.378	4.0
72.393	1.0
72.408	4.0
72.423	2.0
72.438	3.0
72.453	4.0
72.468	2.0
72.483	3.0
72.498	2.0
72.513	2.0
72.528	2.0
72.543	2.0
72.558	0.0
72.573	3.0
72.588	5.0
72.603	3.0
72.618	2.0
72.633	3.0
72.649	3.0
72.664	3.0
72.679	2.0
72.694	5.0
72.709	6.0
72.724	2.0
72.739	4.0
72.754	0.0
72.769	2.0
72.784	2.0
72.799	3.0
72.814	3.0
72.829	3.0
72.845	2.0
72.86	2.0
72.875	5.0
72.89	1.0
72.905	3.0
72.92	2.0
72.935	6.0
72.95	4.0
72.965	3.0
72.98	2.0
72.996	2.0
73.011	4.0
73.026	6.0
73.041	2.0
73.056	4.0
73.071	2.0
73.086	1.0
73.101	4.0
73.117	2.0
73.132	5.0
73.147	3.0
73.162	2.0
73.177	3.0
73.192	2.0
73.207	3.0
73.222	3.0
73.238	4.0
73.253	5.0
73.268	7.0
73.283	7.0
73.298	4.0
73.313	4.0
73.328	4.0
73.343	3.0
73.359	3.0
73.374	2.0
73.389	5.0
73.404	2.0
73.419	8.0
73.434	3.0
73.449	5.0
73.465	6.0
73.48	3.0
73.495	2.0
73.51	7.0
73.525	3.0
73.54	8.0
73.556	5.0
73.571	4.0
73.586	4.0
73.601	1.0
73.616	4.0
73.631	3.0
73.646	3.0
73.662	1.0
73.677	2.0
73.692	5.0
73.707	4.0
73.722	2.0
73.737	5.0
73.752	3.0
73.768	3.0
73.783	5.0
73.798	2.0
73.813	5.0
73.828	5.0
73.843	4.0
73.859	6.0
73.874	7.0
73.889	1.0
73.904	4.0
73.919	3.0
73.934	4.0
73.949	4.0
73.965	5.0
73.98	2.0
73.995	3.0
74.01	4.0
74.025	3.0
74.04	1.0
74.056	4.0
74.071	3.0
74.086	6.0
74.101	1.0
74.116	4.0
74.131	7.0
74.146	4.0
74.162	11.0
74.177	7.0
74.192	5.0
74.207	8.0
74.222	4.0
74.237	5.0
74.252	3.0
74.268	6.0
74.283	1.0
74.298	5.0
74.313	4.0
74.328	4.0
74.343	3.0
74.358	0.0
74.374	2.0
74.389	4.0
74.404	4.0
74.419	2.0
74.434	4.0
74.449	3.0
74.464	6.0
74.48	3.0
74.495	2.0
74.51	2.0
74.525	5.0
74.54	2.0
74.555	3.0
74.57	3.0
74.586	1.0
74.601	3.0
74.616	3.0
74.631	5.0
74.646	3.0
74.661	3.0
74.676	2.0
74.691	3.0
74.707	4.0
74.722	2.0
74.737	5.0
74.752	7.0
74.767	4.0
74.782	5.0
74.797	4.0
74.813	1.0
74.828	2.0
74.843	7.0
74.858	4.0
74.873	5.0
74.888	0.0
74.903	3.0
74.918	3.0
74.934	0.0
74.949	1.0
74.964	4.0
74.979	3.0
74.994	2.0
75.009	4.0
75.024	2.0
75.04	4.0
75.055	7.0
75.07	4.0
75.085	5.0
75.1	7.0
75.115	7.0
75.13	7.0
75.145	5.0
75.161	3.0
75.176	3.0
75.191	3.0
75.206	6.0
75.221	4.0
75.236	7.0
75.251	4.0
75.266	4.0
75.282	0.0
75.297	2.0
75.312	4.0
75.327	1.0
75.342	2.0
75.357	3.0
75.372	1.0
75.387	3.0
75.403	4.0
75.418	1.0
75.433	8.0
75.448	4.0
75.463	3.0
75.478	3.0
75.493	3.0
75.509	3.0
75.524	5.0
75.539	5.0
75.554	3.0
75.569	7.0
75.584	2.0
75.599	2.0
75.614	3.0
75.63	4.0
75.645	4.0
75.66	5.0
75.675	5.0
75.69	1.0
75.705	4.0
75.72	1.0
75.735	4.0
75.751	4.0
75.766	4.0
75.781	4.0
75.796	3.0
75.811	2.0
75.826	3.0
75.841	3.0
75.856	3.0
75.872	3.0
75.887	5.0
75.902	2.0
75.917	3.0
75.932	4.0
75.947	6.0
75.962	4.0
75.977	5.0
75.993	1.0
76.008	4.0
76.023	2.0
76.038	2.0
76.053	3.0
76.068	4.0
76.083	2.0
76.098	3.0
76.114	4.0
76.129	6.0
76.144	2.0
76.159	6.0
76.174	1.0
76.189	1.0
76.204	5.0
76.22	0.0
76.235	1.0
76.25	3.0
76.265	4.0
76.28	1.0
76.295	2.0
76.31	7.0
76.325	2.0
76.341	1.0
76.356	5.0
76.371	2.0
76.386	2.0
76.401	7.0
76.416	4.0
76.431	0.0
76.446	3.0
76.462	4.0
76.477	3.0
76.492	4.0
76.507	2.0
76.522	2.0
76.537	4.0
76.552	3.0
76.567	4.0
76.583	6.0
76.598	4.0
76.613	5.0
76.628	6.0
76.643	5.0
76.658	4.0
76.673	4.0
76.688	5.0
76.704	3.0
76.719	5.0
76.734	1.0
76.749	4.0
76.764	5.0
76.779	4.0
76.794	3.0
76.809	4.0
76.824	3.0
76.84	3.0
76.855	3.0
76.87	3.0
76.885	2.0
76.9	3.0
76.915	3.0
76.93	6.0
76.945	2.0
76.96	5.0
76.976	1.0
76.991	1.0
77.006	4.0
77.021	2.0
77.036	4.0
77.051	2.0
77.066	2.0
77.081	0.0
77.096	3.0
77.112	6.0
77.127	5.0
77.142	4.0
77.157	2.0
77.172	3.0
77.187	2.0
77.202	5.0
77.217	2.0
77.232	2.0
77.247	2.0
77.263	3.0
77.278	4.0
77.293	7.0
77.308	3.0
77.323	4.0
77.338	0.0
77.353	1.0
77.368	4.0
77.383	3.0
77.398	0.0
77.413	7.0
77.428	2.0
77.444	3.0
77.459	4.0
77.474	1.0
77.489	5.0
77.504	6.0
77.519	2.0
77.534	5.0
77.549	5.0
77.564	2.0
77.579	6.0
77.594	4.0
77.609	3.0
77.624	3.0
77.64	3.0
77.655	4.0
77.67	6.0
77.685	8.0
77.7	3.0
77.715	1.0
77.73	2.0
77.745	2.0
77.76	4.0
77.775	3.0
77.79	3.0
77.805	3.0
77.82	2.0
77.835	1.0
77.85	3.0
77.865	3.0
77.88	1.0
77.895	0.0
77.91	1.0
77.926	5.0
77.941	5.0
77.956	2.0
77.971	5.0
77.986	2.0
78.001	3.0
78.016	4.0
78.031	4.0
78.046	4.0
78.061	7.0
78.076	2.0
78.091	1.0
78.106	4.0
78.121	8.0
78.136	2.0
78.151	5.0
78.166	4.0
78.181	3.0
78.196	1.0
78.211	4.0
78.226	5.0
78.241	4.0
78.256	4.0
78.271	1.0
78.286	6.0
78.301	2.0
78.316	3.0
78.331	2.0
78.346	2.0
78.361	3.0
78.376	2.0
78.391	0.0
78.406	2.0
78.421	4.0
78.436	2.0
78.451	2.0
78.466	3.0
78.481	3.0
78.496	5.0
78.511	2.0
78.526	3.0
78.541	5.0
78.556	5.0
78.571	2.0
78.586	1.0
78.601	3.0
78.616	5.0
78.631	4.0
78.646	6.0
78.661	1.0
78.676	6.0
78.691	3.0
78.706	1.0
78.721	0.0
78.736	0.0
78.751	2.0
78.766	1.0
78.781	2.0
78.796	6.0
78.811	1.0
78.826	8.0
78.841	3.0
78.856	0.0
78.871	2.0
78.885	1.0
78.9	4.0
78.915	2.0
78.93	2.0
78.945	0.0
78.96	4.0
78.975	3.0
78.99	0.0
79.005	1.0
79.02	1.0
79.035	5.0
79.05	4.0
79.065	1.0
79.08	1.0
79.095	7.0
79.11	2.0
79.125	2.0
79.14	1.0
79.155	8.0
79.17	1.0
79.185	2.0
79.2	2.0
79.215	4.0
79.23	1.0
79.245	9.0
79.26	6.0
79.275	7.0
79.29	1.0
79.304	3.0
79.319	4.0
79.334	6.0
79.349	5.0
79.364	5.0
79.379	1.0
79.394	3.0
79.409	7.0
79.424	2.0
79.439	3.0
79.454	6.0
79.469	4.0
79.484	1.0
79.499	8.0
79.514	4.0
79.529	3.0
79.544	7.0
79.559	4.0
79.574	2.0
79.589	3.0
79.604	4.0
79.619	5.0
79.634	5.0
79.649	2.0
79.664	3.0
79.679	4.0
79.693	2.0
79.708	1.0
79.723	2.0
79.738	1.0
79.753	3.0
79.768	2.0
79.783	1.0
79.798	1.0
79.813	5.0
79.828	2.0
79.843	2.0
79.858	3.0
79.873	4.0
79.888	2.0
79.903	8.0
79.918	3.0
79.933	4.0
79.948	1.0
79.963	3.0
79.978	3.0
79.993	2.0
80.008	6.0
80.023	4.0
80.038	4.0
80.053	4.0
80.068	0.0
80.083	1.0
80.098	5.0
80.113	4.0
80.128	5.0
80.143	5.0
80.158	3.0
80.173	3.0
80.188	3.0
80.202	3.0
80.217	4.0
80.232	6.0
80.247	3.0
80.262	3.0
80.277	5.0
80.292	4.0
80.307	6.0
80.322	3.0
80.337	2.0
80.352	0.0
80.367	5.0
80.382	5.0
80.397	2.0
80.412	1.0
80.427	1.0
80.442	4.0
80.457	1.0
80.472	3.0
80.487	3.0
80.502	2.0
80.517	1.0
80.532	2.0
80.547	3.0
80.562	2.0
80.577	2.0
80.592	1.0
80.607	6.0
80.622	3.0
80.637	3.0
80.652	2.0
80.667	4.0
80.682	3.0
80.697	5.0
80.712	4.0
80.727	2.0
80.742	5.0
80.757	3.0
80.772	3.0
80.787	2.0
80.802	6.0
80.817	4.0
80.832	4.0
80.847	3.0
80.862	1.0
80.877	2.0
80.892	2.0
80.907	2.0
80.922	2.0
80.937	4.0
80.952	3.0
80.967	7.0
80.982	2.0
80.997	2.0
81.012	4.0
81.027	5.0
81.042	2.0
81.057	1.0
81.072	4.0
81.087	3.0
81.101	3.0
81.116	3.0
81.131	6.0
81.146	4.0
81.161	3.0
81.176	3.0
81.191	2.0
81.206	4.0
81.221	2.0
81.236	4.0
81.251	0.0
81.266	8.0
81.281	2.0
81.296	3.0
81.311	3.0
81.326	1.0
81.341	3.0
81.356	1.0
81.371	3.0
81.386	3.0
81.401	1.0
81.416	4.0
81.431	0.0
81.446	2.0
81.461	3.0
81.476	2.0
81.491	5.0
81.506	3.0
81.521	5.0
81.536	4.0
81.55	5.0
81.565	7.0
81.58	0.0
81.595	1.0
81.61	4.0
81.625	4.0
81.64	0.0
81.655	5.0
81.67	4.0
81.685	2.0
81.7	3.0
81.715	2.0
81.73	2.0
81.745	3.0
81.76	2.0
81.775	2.0
81.79	4.0
81.805	2.0
81.819	5.0
81.834	7.0
81.849	4.0
81.864	3.0
81.879	4.0
81.894	3.0
81.909	8.0
81.924	5.0
81.939	5.0
81.954	3.0
81.969	2.0
81.984	5.0
81.999	4.0
82.013	2.0
82.028	2.0
82.043	2.0
82.058	0.0
82.073	1.0
82.088	1.0
82.103	2.0
82.118	1.0
82.133	1.0
82.148	3.0
82.163	4.0
82.177	4.0
82.192	0.0
82.207	4.0
82.222	3.0
82.237	2.0
82.252	4.0
82.267	5.0
82.282	2.0
82.297	1.0
82.312	2.0
82.326	0.0
82.341	2.0
82.356	6.0
82.371	7.0
82.386	6.0
82.401	2.0
82.416	2.0
82.431	1.0
82.445	4.0
82.46	5.0
82.475	4.0
82.49	2.0
82.505	2.0
82.52	6.0
82.535	4.0
82.55	3.0
82.565	1.0
82.579	2.0
82.594	5.0
82.609	2.0
82.624	2.0
82.639	3.0
82.654	5.0
82.669	2.0
82.684	2.0
82.698	4.0
82.713	4.0
82.728	5.0
82.743	3.0
82.758	2.0
82.773	2.0
82.788	2.0
82.803	5.0
82.817	5.0
82.832	4.0
82.847	4.0
82.862	6.0
82.877	4.0
82.892	2.0
82.907	0.0
82.922	3.0
82.937	3.0
82.951	2.0
82.966	1.0
82.981	4.0
82.996	2.0
83.011	1.0
83.026	2.0
83.041	0.0
83.056	3.0
83.07	2.0
83.085	2.0
83.1	2.0
83.115	3.0
83.13	5.0
83.145	2.0
83.16	2.0
83.175	2.0
83.19	3.0
83.204	2.0
83.219	3.0
83.234	2.0
83.249	3.0
83.264	3.0
83.279	4.0
83.294	3.0
83.309	5.0
83.324	2.0
83.339	3.0
83.353	5.0
83.368	2.0
83.383	4.0
83.398	6.0
83.413	1.0
83.428	5.0
83.443	5.0
83.458	4.0
83.473	5.0
83.488	2.0
83.503	3.0
83.517	4.0
83.532	6.0
83.547	4.0
83.562	2.0
83.577	2.0
83.592	6.0
83.607	4.0
83.622	2.0
83.637	4.0
83.652	6.0
83.667	2.0
83.682	3.0
83.697	1.0
83.712	5.0
83.727	2.0
83.741	1.0
83.756	1.0
83.771	4.0
83.786	1.0
83.801	1.0
83.816	6.0
83.831	3.0
83.846	4.0
83.861	3.0
83.876	1.0
83.891	1.0
83.906	2.0
83.921	3.0
83.936	1.0
83.951	2.0
83.966	2.0
83.981	2.0
83.996	5.0
84.011	3.0
84.026	2.0
84.041	2.0
84.056	3.0
84.071	5.0
84.086	4.0
84.101	3.0
84.116	6.0
84.131	1.0
84.146	2.0
84.161	3.0
84.176	1.0
84.191	3.0
84.206	7.0
84.221	5.0
84.236	5.0
84.251	3.0
84.266	5.0
84.281	3.0
84.296	6.0
84.311	4.0
84.326	5.0
84.341	4.0
84.356	4.0
84.371	5.0
84.386	1.0
84.401	5.0
84.416	7.0
84.431	5.0
84.446	3.0
84.461	2.0
84.476	5.0
84.492	5.0
84.507	5.0
84.522	1.0
84.537	4.0
84.552	2.0
84.567	7.0
84.582	2.0
84.597	2.0
84.612	0.0
84.627	3.0
84.642	2.0
84.657	3.0
84.672	0.0
84.687	1.0
84.702	3.0
84.717	3.0
84.733	4.0
84.748	4.0
84.763	3.0
84.778	1.0
84.793	4.0
84.808	5.0
84.823	5.0
84.838	1.0
84.853	1.0
84.868	3.0
84.883	3.0
84.898	3.0
84.913	2.0
84.929	5.0
84.944	4.0
84.959	10.0
84.974	6.0
84.989	3.0
85.004	0.0
85.019	4.0
85.034	1.0
85.049	3.0
85.064	0.0
85.079	0.0
85.094	2.0
85.11	1.0
85.125	1.0
85.14	0.0
85.155	3.0
85.17	3.0
85.185	2.0
85.2	1.0
85.215	1.0
85.23	1.0
85.245	4.0
85.26	3.0
85.276	5.0
85.291	1.0
85.306	3.0
85.321	3.0
85.336	4.0
85.351	3.0
85.366	7.0
85.381	1.0
85.396	1.0
85.411	0.0
85.426	3.0
85.441	2.0
85.457	3.0
85.472	3.0
85.487	1.0
85.502	1.0
85.517	3.0
85.532	4.0
85.547	1.0
85.562	4.0
85.577	5.0
85.592	0.0
85.607	3.0
85.622	3.0
85.637	3.0
85.653	1.0
85.668	4.0
85.683	1.0
85.698	6.0
85.713	6.0
85.728	3.0
85.743	4.0
85.758	6.0
85.773	3.0
85.788	4.0
85.803	0.0
85.818	1.0
85.833	2.0
85.848	0.0
85.863	4.0
85.879	3.0
85.894	4.0
85.909	4.0
85.924	3.0
85.939	2.0
85.954	3.0
85.969	3.0
85.984	2.0
85.999	1.0
86.014	1.0
86.029	1.0
86.044	3.0
86.059	4.0
86.074	6.0
86.089	1.0
86.104	3.0
86.119	5.0
86.134	8.0
86.149	0.0
86.164	1.0
86.179	2.0
86.194	4.0
86.209	3.0
86.224	1.0
86.239	1.0
86.254	4.0
86.269	2.0
86.284	5.0
86.299	2.0
86.314	4.0
86.33	2.0
86.345	5.0
86.36	2.0
86.375	2.0
86.39	3.0
86.405	3.0
86.42	4.0
86.435	3.0
86.45	5.0
86.465	3.0
86.48	5.0
86.495	6.0
86.51	2.0
86.525	3.0
86.54	2.0
86.555	3.0
86.57	1.0
86.585	2.0
86.6	5.0
86.615	3.0
86.63	3.0
86.645	2.0
86.659	1.0
86.674	0.0
86.689	5.0
86.704	4.0
86.719	6.0
86.734	3.0
86.749	2.0
86.764	1.0
86.779	2.0
86.794	1.0
86.809	5.0
86.824	2.0
86.839	10.0
86.854	4.0
86.869	3.0
86.884	4.0
86.899	5.0
86.914	2.0
86.929	5.0
86.944	2.0
86.959	5.0
86.974	4.0
86.989	3.0
87.004	1.0
87.019	4.0
87.034	2.0
87.049	5.0
87.064	0.0
87.079	1.0
87.094	3.0
87.109	1.0
87.124	3.0
87.139	2.0
87.154	3.0
87.169	2.0
87.184	5.0
87.199	2.0
87.214	4.0
87.229	4.0
87.244	6.0
87.259	1.0
87.274	5.0
87.289	2.0
87.304	0.0
87.319	2.0
87.334	5.0
87.349	5.0
87.364	3.0
87.379	1.0
87.394	5.0
87.409	2.0
87.424	1.0
87.438	3.0
87.453	3.0
87.468	0.0
87.483	1.0
87.498	1.0
87.513	5.0
87.528	5.0
87.543	3.0
87.558	4.0
87.573	5.0
87.588	6.0
87.603	2.0
87.618	6.0
87.633	2.0
87.648	5.0
87.663	4.0
87.678	5.0
87.693	7.0
87.708	5.0
87.723	5.0
87.738	2.0
87.753	1.0
87.768	6.0
87.783	3.0
87.798	6.0
87.813	5.0
87.828	6.0
87.843	7.0
87.858	1.0
87.873	3.0
87.888	2.0
87.903	3.0
87.918	6.0
87.933	0.0
87.948	2.0
87.963	3.0
87.978	1.0
87.993	2.0
88.008	2.0
88.023	4.0
88.038	1.0
88.053	3.0
88.068	1.0
88.083	5.0
88.098	4.0
88.113	3.0
88.128	1.0
88.143	1.0
88.158	1.0
88.174	2.0
88.189	2.0
88.204	5.0
88.219	1.0
88.234	3.0
88.249	1.0
88.264	1.0
88.279	3.0
88.294	5.0
88.309	4.0
88.324	3.0
88.339	6.0
88.354	5.0
88.369	2.0
88.384	5.0
88.399	8.0
88.414	2.0
88.429	3.0
88.444	5.0
88.459	1.0
88.474	4.0
88.489	0.0
88.504	3.0
88.519	5.0
88.534	1.0
88.549	6.0
88.564	5.0
88.58	5.0
88.595	3.0
88.61	3.0
88.625	4.0
88.64	3.0
88.655	0.0
88.67	3.0
88.685	3.0
88.7	3.0
88.715	1.0
88.73	0.0
88.745	5.0
88.76	1.0
88.775	0.0
88.79	3.0
88.805	3.0
88.82	1.0
88.835	1.0
88.85	4.0
88.865	5.0
88.88	0.0
88.895	4.0
88.911	2.0
88.926	4.0
88.941	2.0
88.956	4.0
88.971	0.0
88.986	1.0
89.001	6.0
89.016	2.0
89.031	4.0
89.046	2.0
89.061	0.0
89.076	2.0
89.091	1.0
89.106	6.0
89.121	7.0
89.136	3.0
89.151	3.0
89.166	0.0
89.181	3.0
89.196	1.0
89.211	3.0
89.227	1.0
89.242	1.0
89.257	5.0
89.272	2.0
89.287	3.0
89.302	2.0
89.317	2.0
89.332	4.0
89.347	1.0
89.362	1.0
89.377	0.0
89.392	0.0
89.407	2.0
89.422	6.0
89.437	3.0
89.452	4.0
89.467	3.0
89.482	7.0
89.497	4.0
89.512	4.0
89.527	4.0
89.542	2.0
89.557	4.0
89.572	4.0
89.587	3.0
89.602	2.0
89.617	2.0
89.632	2.0
89.647	3.0
89.662	2.0
89.677	3.0
89.693	2.0
89.708	4.0
89.723	4.0
89.738	2.0
89.753	5.0
89.768	7.0
89.783	3.0
89.798	6.0
89.813	0.0
89.828	4.0
89.843	0.0
89.858	3.0
89.873	2.0
89.888	2.0
89.903	1.0
89.918	3.0
89.933	7.0
89.948	2.0
89.963	2.0
89.978	2.0
89.993	1.0
90.008	3.0
90.023	1.0
90.038	3.0
90.053	5.0
90.068	2.0
90.083	3.0
90.097	1.0
90.112	1.0
90.127	4.0
90.142	3.0
90.157	4.0
90.172	3.0
90.187	1.0
90.202	1.0
90.217	1.0
90.232	1.0
90.247	4.0
90.262	3.0
90.277	4.0
90.292	3.0
90.307	4.0
90.322	2.0
90.337	5.0
90.352	2.0
90.367	0.0
90.382	3.0
90.397	2.0
90.412	4.0
90.427	5.0
90.442	3.0
90.457	4.0
90.472	2.0
90.487	1.0
90.501	1.0
90.516	3.0
90.531	4.0
90.546	0.0
90.561	1.0
90.576	2.0
90.591	5.0
90.606	1.0
90.621	3.0
90.636	5.0
90.651	3.0
90.666	1.0
90.681	1.0
90.696	7.0
90.711	5.0
90.726	1.0
90.741	4.0
90.755	6.0
90.77	3.0
90.785	2.0
90.8	5.0
90.815	6.0
90.83	3.0
90.845	3.0
90.86	5.0
90.875	3.0
90.89	1.0
90.905	2.0
90.92	4.0
90.935	4.0
90.95	7.0
90.965	7.0
90.979	6.0
90.994	4.0
91.009	4.0
91.024	3.0
91.039	5.0
91.054	1.0
91.069	2.0
91.084	0.0
91.099	4.0
91.114	5.0
91.129	8.0
91.144	3.0
91.159	3.0
91.174	4.0
91.188	3.0
91.203	2.0
91.218	1.0
91.233	1.0
91.248	2.0
91.263	3.0
91.278	4.0
91.293	0.0
91.308	2.0
91.323	3.0
91.338	2.0
91.353	1.0
91.368	1.0
91.383	5.0
91.398	4.0
91.412	1.0
91.427	5.0
91.442	1.0
91.457	2.0
91.472	5.0
91.487	0.0
91.502	1.0
91.517	3.0
91.532	3.0
91.547	1.0
91.562	3.0
91.577	5.0
91.592	4.0
91.607	7.0
91.622	3.0
91.637	0.0
91.652	3.0
91.666	3.0
91.681	3.0
91.696	1.0
91.711	2.0
91.726	2.0
91.741	4.0
91.756	4.0
91.771	5.0
91.786	4.0
91.801	4.0
91.816	0.0
91.831	5.0
91.846	3.0
91.861	3.0
91.876	1.0
91.891	1.0
91.906	1.0
91.921	4.0
91.936	4.0
91.951	4.0
91.966	3.0
91.981	2.0
91.995	4.0
92.01	3.0
92.025	1.0
92.04	3.0
92.055	2.0
92.07	3.0
92.085	4.0
92.1	2.0
92.115	2.0
92.13	2.0
92.145	2.0
92.16	4.0
92.175	5.0
92.19	2.0
92.205	2.0
92.22	2.0
92.235	6.0
92.25	4.0
92.265	1.0
92.28	2.0
92.295	3.0
92.31	2.0
92.325	2.0
92.34	2.0
92.355	0.0
92.37	5.0
92.385	0.0
92.4	2.0
92.415	2.0
92.43	2.0
92.445	3.0
92.46	1.0
92.475	5.0
92.49	2.0
92.505	4.0
92.52	2.0
92.535	3.0
92.55	6.0
92.565	4.0
92.58	3.0
92.595	3.0
92.61	4.0
92.625	4.0
92.64	1.0
92.655	4.0
92.67	2.0
92.685	1.0
92.7	2.0
92.715	4.0
92.73	4.0
92.745	2.0
92.76	1.0
92.775	2.0
92.79	2.0
92.805	1.0
92.82	3.0
92.835	1.0
92.85	4.0
92.865	4.0
92.88	3.0
92.895	4.0
92.91	4.0
92.925	2.0
92.94	0.0
92.955	1.0
92.97	3.0
92.985	3.0
93.0	3.0
93.015	1.0
93.03	3.0
93.045	2.0
93.06	2.0
93.075	5.0
93.09	4.0
93.105	4.0
93.12	6.0
93.135	4.0
93.15	0.0
93.165	3.0
93.18	3.0
93.195	6.0
93.21	1.0
93.225	3.0
93.24	3.0
93.255	5.0
93.27	3.0
93.285	4.0
93.3	2.0
93.315	1.0
93.33	3.0
93.345	5.0
93.36	3.0
93.375	2.0
93.39	2.0
93.405	2.0
93.42	4.0
93.435	3.0
93.45	4.0
93.465	1.0
93.48	4.0
93.495	4.0
93.51	4.0
93.525	3.0
93.54	3.0
93.555	3.0
93.57	4.0
93.585	5.0
93.6	0.0
93.615	6.0
93.63	0.0
93.645	0.0
93.66	2.0
93.675	3.0
93.69	6.0
93.705	1.0
93.72	7.0
93.735	4.0
93.75	6.0
93.765	3.0
93.78	4.0
93.795	1.0
93.81	0.0
93.824	3.0
93.839	1.0
93.854	2.0
93.869	5.0
93.884	2.0
93.899	0.0
93.914	5.0
93.929	2.0
93.944	1.0
93.959	3.0
93.974	2.0
93.989	4.0
94.004	2.0
94.019	0.0
94.034	1.0
94.049	4.0
94.064	3.0
94.079	3.0
94.094	2.0
94.108	5.0
94.123	3.0
94.138	2.0
94.153	0.0
94.168	2.0
94.183	5.0
94.198	3.0
94.213	2.0
94.228	3.0
94.243	4.0
94.258	2.0
94.273	1.0
94.288	2.0
94.302	3.0
94.317	1.0
94.332	6.0
94.347	3.0
94.362	5.0
94.377	5.0
94.392	6.0
94.407	7.0
94.422	1.0
94.437	6.0
94.452	11.0
94.466	6.0
94.481	0.0
94.496	3.0
94.511	2.0
94.526	7.0
94.541	3.0
94.556	3.0
94.571	1.0
94.586	3.0
94.601	3.0
94.615	2.0
94.63	2.0
94.645	3.0
94.66	5.0
94.675	1.0
94.69	4.0
94.705	5.0
94.72	1.0
94.735	3.0
94.749	2.0
94.764	1.0
94.779	4.0
94.794	3.0
94.809	3.0
94.824	3.0
94.839	3.0
94.854	3.0
94.868	0.0
94.883	2.0
94.898	5.0
94.913	4.0
94.928	4.0
94.943	0.0
94.958	3.0
94.973	3.0
94.987	2.0
95.002	5.0
95.017	5.0
95.032	1.0
95.047	4.0
95.062	5.0
95.077	1.0
95.092	3.0
95.106	3.0
95.121	6.0
95.136	5.0
95.151	2.0
95.166	1.0
95.181	6.0
95.196	2.0
95.211	5.0
95.226	1.0
95.24	6.0
95.255	2.0
95.27	4.0
95.285	5.0
95.3	4.0
95.315	8.0
95.33	3.0
95.345	3.0
95.359	2.0
95.374	6.0
95.389	4.0
95.404	4.0
95.419	4.0
95.434	3.0
95.449	2.0
95.464	3.0
95.478	3.0
95.493	3.0
95.508	2.0
95.523	3.0
95.538	2.0
95.553	2.0
95.568	3.0
95.583	3.0
95.597	2.0
95.612	1.0
95.627	1.0
95.642	5.0
95.657	0.0
95.672	3.0
95.687	2.0
95.702	2.0
95.717	2.0
95.731	0.0
95.746	2.0
95.761	4.0
95.776	2.0
95.791	4.0
95.806	5.0
95.821	1.0
95.836	4.0
95.851	1.0
95.866	1.0
95.88	7.0
95.895	3.0
95.91	4.0
95.925	2.0
95.94	0.0
95.955	6.0
95.97	7.0
95.985	2.0
96.0	6.0
96.015	5.0
96.029	3.0
96.044	3.0
96.059	5.0
96.074	3.0
96.089	5.0
96.104	2.0
96.119	4.0
96.134	2.0
96.149	6.0
96.164	5.0
96.179	5.0
96.194	2.0
96.208	2.0
96.223	4.0
96.238	4.0
96.253	2.0
96.268	2.0
96.283	2.0
96.298	1.0
96.313	4.0
96.328	3.0
96.343	2.0
96.358	2.0
96.373	2.0
96.388	5.0
96.403	5.0
96.417	4.0
96.432	2.0
96.447	1.0
96.462	0.0
96.477	4.0
96.492	4.0
96.507	2.0
96.522	3.0
96.537	1.0
96.552	2.0
96.567	5.0
96.582	1.0
96.597	3.0
96.612	3.0
96.627	2.0
96.642	5.0
96.656	3.0
96.671	2.0
96.686	0.0
96.701	4.0
96.716	6.0
96.731	2.0
96.746	4.0
96.761	4.0
96.776	5.0
96.791	2.0
96.806	2.0
96.821	0.0
96.836	5.0
96.851	2.0
96.866	4.0
96.881	1.0
96.896	7.0
96.911	4.0
96.926	3.0
96.94	3.0
96.955	1.0
96.97	6.0
96.985	7.0
97.0	4.0
97.015	1.0
97.03	2.0
97.045	3.0
97.06	4.0
97.075	1.0
97.09	6.0
97.105	3.0
97.12	2.0
97.135	5.0
97.15	4.0
97.165	4.0
97.18	4.0
97.195	2.0
97.21	3.0
97.225	3.0
97.239	1.0
97.254	2.0
97.269	1.0
97.284	2.0
97.299	1.0
97.314	1.0
97.329	4.0
97.344	2.0
97.359	3.0
97.374	3.0
97.389	2.0
97.404	2.0
97.419	3.0
97.434	1.0
97.449	2.0
97.464	3.0
97.479	4.0
97.494	2.0
97.509	1.0
97.524	3.0
97.538	4.0
97.553	1.0
97.568	0.0
97.583	3.0
97.598	4.0
97.613	1.0
97.628	2.0
97.643	2.0
97.658	2.0
97.673	6.0
97.688	4.0
97.703	4.0
97.718	6.0
97.733	6.0
97.748	1.0
97.763	2.0
97.778	5.0
97.792	5.0
97.807	3.0
97.822	1.0
97.837	2.0
97.852	0.0
97.867	2.0
97.882	2.0
97.897	2.0
97.912	2.0
97.927	1.0
97.942	2.0
97.957	3.0
97.972	3.0
97.987	6.0
98.001	1.0
98.016	3.0
98.031	2.0
98.046	1.0
98.061	0.0
98.076	2.0
98.091	6.0
98.106	3.0
98.121	3.0
98.136	3.0
98.151	2.0
98.166	0.0
98.181	2.0
98.195	3.0
98.21	1.0
98.225	1.0
98.24	2.0
98.255	2.0
98.27	2.0
98.285	1.0
98.3	2.0
98.315	4.0
98.33	0.0
98.345	2.0
98.359	7.0
98.374	2.0
98.389	6.0
98.404	5.0
98.419	3.0
98.434	1.0
98.449	3.0
98.464	7.0
98.479	0.0
98.494	2.0
98.508	2.0
98.523	1.0
98.538	2.0
98.553	5.0
98.568	1.0
98.583	2.0
98.598	5.0
98.613	4.0
98.628	3.0
98.642	3.0
98.657	2.0
98.672	1.0
98.687	3.0
98.702	2.0
98.717	4.0
98.732	1.0
98.747	2.0
98.762	2.0
98.776	5.0
98.791	1.0
98.806	2.0
98.821	5.0
98.836	1.0
98.851	6.0
98.866	9.0
98.881	3.0
98.896	2.0
98.91	6.0
98.925	5.0
98.94	4.0
98.955	3.0
98.97	3.0
98.985	4.0
99.0	5.0
99.015	4.0
99.029	5.0
99.044	5.0
99.059	0.0
99.074	1.0
99.089	5.0
99.104	7.0
99.119	3.0
99.133	4.0
99.148	2.0
99.163	2.0
99.178	2.0
99.193	5.0
99.208	0.0
99.223	3.0
99.238	4.0
99.252	2.0
99.267	3.0
99.282	1.0
99.297	2.0
99.312	2.0
99.327	2.0
99.342	0.0
99.356	4.0
99.371	3.0
99.386	1.0
99.401	2.0
99.416	3.0
99.431	8.0
99.446	6.0
99.461	2.0
99.475	2.0
99.49	2.0
99.505	1.0
99.52	1.0
99.535	3.0
99.55	1.0
99.565	5.0
99.579	1.0
99.594	5.0
99.609	5.0
99.624	3.0
99.639	8.0
99.654	2.0
99.669	3.0
99.683	4.0
99.698	6.0
99.713	1.0
99.728	2.0
99.743	3.0
99.758	4.0
99.772	3.0
99.787	6.0
99.802	1.0
99.817	3.0
99.832	4.0
99.847	6.0
99.862	3.0
99.876	3.0
99.891	3.0
99.906	2.0
99.921	3.0
99.936	2.0
99.951	3.0
99.966	1.0
99.98	3.0
99.995	2.0
100.01	3.0
100.025	4.0
100.04	0.0
100.055	0.0
100.069	5.0
100.084	2.0
100.099	2.0
100.114	5.0
100.129	3.0
100.144	5.0
100.159	3.0
100.173	3.0
100.188	4.0
100.203	3.0
100.218	7.0
100.233	2.0
100.248	7.0
100.262	5.0
100.277	3.0
100.292	5.0
100.307	6.0
100.322	6.0
100.337	5.0
100.351	4.0
100.366	4.0
100.381	1.0
100.396	1.0
100.411	2.0
100.426	3.0
100.441	2.0
100.455	3.0
100.47	4.0
100.485	7.0
100.5	9.0
100.515	2.0
100.53	5.0
100.544	4.0
100.559	5.0
100.574	2.0
100.589	5.0
100.604	3.0
100.619	4.0
100.633	4.0
100.648	2.0
100.663	4.0
100.678	2.0
100.693	4.0
100.708	3.0
100.722	2.0
100.737	5.0
100.752	3.0
100.767	4.0
100.782	4.0
100.796	6.0
100.811	2.0
100.826	7.0
100.841	5.0
100.856	5.0
100.871	3.0
100.885	4.0
100.9	1.0
100.915	5.0
100.93	3.0
100.945	7.0
100.96	2.0
100.974	3.0
100.989	2.0
101.004	4.0
101.019	2.0
101.034	1.0
101.048	2.0
101.063	2.0
101.078	6.0
101.093	5.0
101.108	2.0
101.123	3.0
101.137	1.0
101.152	3.0
101.167	3.0
101.182	3.0
101.197	4.0
101.211	3.0
101.226	4.0
101.241	4.0
101.256	6.0
101.271	4.0
101.285	4.0
101.3	4.0
101.315	3.0
101.33	5.0
101.345	1.0
101.359	3.0
101.374	6.0
101.389	3.0
101.404	2.0
101.419	4.0
101.433	1.0
101.448	1.0
101.463	3.0
101.478	2.0
101.493	6.0
101.507	8.0
101.522	3.0
101.537	1.0
101.552	3.0
101.567	2.0
101.581	3.0
101.596	2.0
101.611	3.0
101.626	5.0
101.64	5.0
101.655	1.0
101.67	4.0
101.685	1.0
101.7	7.0
101.714	6.0
101.729	0.0
101.744	4.0
101.759	2.0
101.773	2.0
101.788	3.0
101.803	2.0
101.818	2.0
101.833	2.0
101.847	2.0
101.862	1.0
101.877	4.0
101.892	1.0
101.906	6.0
101.921	4.0
101.936	6.0
101.951	2.0
101.965	3.0
101.98	0.0
101.995	3.0
102.01	1.0
102.025	6.0
102.039	6.0
102.054	0.0
102.069	2.0
102.084	3.0
102.098	2.0
102.113	4.0
102.128	2.0
102.143	4.0
102.157	4.0
102.172	3.0
102.187	2.0
102.202	3.0
102.216	1.0
102.231	4.0
102.246	2.0
102.261	2.0
102.275	1.0
102.29	3.0
102.305	3.0
102.32	4.0
102.334	2.0
102.349	3.0
102.364	2.0
102.378	3.0
102.393	3.0
102.408	4.0
102.423	4.0
102.437	4.0
102.452	1.0
102.467	2.0
102.482	2.0
102.496	4.0
102.511	4.0
102.526	3.0
102.541	2.0
102.555	2.0
102.57	2.0
102.585	2.0
102.6	0.0
102.614	3.0
102.629	3.0
102.644	1.0
102.659	1.0
102.673	3.0
102.688	1.0
102.703	5.0
102.717	4.0
102.732	3.0
102.747	1.0
102.762	6.0
102.776	3.0
102.791	1.0
102.806	4.0
102.821	1.0
102.835	6.0
102.85	2.0
102.865	1.0
102.88	6.0
102.894	2.0
102.909	5.0
102.924	2.0
102.938	3.0
102.953	1.0
102.968	7.0
102.983	2.0
102.997	3.0
103.012	5.0
103.027	2.0
103.042	4.0
103.056	8.0
103.071	1.0
103.086	3.0
103.101	4.0
103.115	3.0
103.13	3.0
103.145	1.0
103.16	2.0
103.174	0.0
103.189	5.0
103.204	3.0
103.219	1.0
103.233	2.0
103.248	3.0
103.263	3.0
103.278	5.0
103.292	3.0
103.307	5.0
103.322	5.0
103.337	2.0
103.351	2.0
103.366	4.0
103.381	3.0
103.396	6.0
103.41	0.0
103.425	3.0
103.44	3.0
103.455	2.0
103.469	2.0
103.484	6.0
103.499	4.0
103.514	3.0
103.529	6.0
103.543	4.0
103.558	1.0
103.573	1.0
103.588	1.0
103.602	8.0
103.617	5.0
103.632	4.0
103.647	7.0
103.661	2.0
103.676	2.0
103.691	4.0
103.706	3.0
103.721	7.0
103.735	1.0
103.75	2.0
103.765	1.0
103.78	3.0
103.795	1.0
103.809	5.0
103.824	5.0
103.839	5.0
103.854	2.0
103.869	5.0
103.883	1.0
103.898	3.0
103.913	2.0
103.928	3.0
103.943	2.0
103.957	1.0
103.972	1.0
103.987	1.0
104.002	1.0
104.017	1.0
104.031	4.0
104.046	3.0
104.061	3.0
104.076	3.0
104.091	3.0
104.106	3.0
104.12	3.0
104.135	6.0
104.15	5.0
104.165	2.0
104.18	1.0
104.195	2.0
104.209	2.0
104.224	2.0
104.239	3.0
104.254	5.0
104.269	3.0
104.284	2.0
104.299	0.0
104.313	3.0
104.328	1.0
104.343	2.0
104.358	2.0
104.373	2.0
104.388	1.0
104.403	1.0
104.417	3.0
104.432	1.0
104.447	4.0
104.462	4.0
104.477	2.0
104.492	2.0
104.507	5.0
104.522	3.0
104.536	2.0
104.551	0.0
104.566	6.0
104.581	7.0
104.596	5.0
104.611	5.0
104.626	3.0
104.641	2.0
104.656	1.0
104.67	4.0
104.685	8.0
104.7	3.0
104.715	5.0
104.73	4.0
104.745	3.0
104.76	4.0
104.775	3.0
104.79	0.0
104.804	2.0
104.819	2.0
104.834	1.0
104.849	3.0
104.864	5.0
104.879	2.0
104.894	2.0
104.909	2.0
104.924	2.0
104.939	3.0
104.954	3.0
104.968	7.0
104.983	4.0
104.998	5.0
105.013	3.0
105.028	2.0
105.043	1.0
105.058	2.0
105.073	3.0
105.088	1.0
105.103	6.0
105.118	3.0
105.133	3.0
105.147	4.0
105.162	4.0
105.177	1.0
105.192	3.0
105.207	0.0
105.222	3.0
105.237	3.0
105.252	0.0
105.267	4.0
105.282	5.0
105.297	1.0
105.312	6.0
105.327	1.0
105.342	3.0
105.356	3.0
105.371	0.0
105.386	0.0
105.401	4.0
105.416	1.0
105.431	5.0
105.446	5.0
105.461	3.0
105.476	3.0
105.491	3.0
105.506	5.0
105.521	8.0
105.536	13.0
105.551	6.0
105.566	3.0
105.581	3.0
105.595	5.0
105.61	0.0
105.625	3.0
105.64	5.0
105.655	1.0
105.67	2.0
105.685	0.0
105.7	4.0
105.715	7.0
105.73	4.0
105.745	3.0
105.76	5.0
105.775	4.0
105.79	1.0
105.805	4.0
105.82	0.0
105.835	0.0
105.85	3.0
105.864	2.0
105.879	5.0
105.894	2.0
105.909	2.0
105.924	1.0
105.939	3.0
105.954	2.0
105.969	2.0
105.984	2.0
105.999	1.0
106.014	4.0
106.029	2.0
106.044	3.0
106.059	4.0
106.074	2.0
106.089	2.0
106.104	3.0
106.119	1.0
106.134	3.0
106.148	2.0
106.163	3.0
106.178	7.0
106.193	4.0
106.208	2.0
106.223	4.0
106.238	0.0
106.253	6.0
106.268	5.0
106.283	5.0
106.298	4.0
106.313	3.0
106.328	8.0
106.343	4.0
106.358	1.0
106.373	3.0
106.388	6.0
106.403	6.0
106.418	5.0
106.432	3.0
106.447	5.0
106.462	4.0
106.477	1.0
106.492	2.0
106.507	2.0
106.522	1.0
106.537	10.0
106.552	5.0
106.567	3.0
106.582	0.0
106.597	2.0
106.612	3.0
106.627	2.0
106.642	2.0
106.657	1.0
106.672	6.0
106.687	7.0
106.701	2.0
106.716	5.0
106.731	3.0
106.746	2.0
106.761	5.0
106.776	5.0
106.791	0.0
106.806	3.0
106.821	5.0
106.836	4.0
106.851	2.0
106.866	2.0
106.881	4.0
106.896	3.0
106.911	4.0
106.926	2.0
106.941	7.0
106.955	2.0
106.97	2.0
106.985	9.0
107.0	2.0
107.015	1.0
107.03	1.0
107.045	3.0
107.06	2.0
107.075	2.0
107.09	3.0
107.105	6.0
107.12	3.0
107.135	5.0
107.15	4.0
107.165	4.0
107.18	3.0
107.194	8.0
107.209	4.0
107.224	2.0
107.239	6.0
107.254	4.0
107.269	10.0
107.284	1.0
107.299	5.0
107.314	3.0
107.329	5.0
107.344	4.0
107.359	2.0
107.374	3.0
107.389	4.0
107.404	6.0
107.418	4.0
107.433	5.0
107.448	3.0
107.463	3.0
107.478	3.0
107.493	3.0
107.508	5.0
107.523	6.0
107.538	2.0
107.553	3.0
107.568	1.0
107.583	5.0
107.598	9.0
107.613	3.0
107.627	1.0
107.642	3.0
107.657	1.0
107.672	0.0
107.687	3.0
107.702	0.0
107.717	1.0
107.732	3.0
107.747	2.0
107.762	4.0
107.777	1.0
107.792	3.0
107.807	3.0
107.821	3.0
107.836	6.0
107.851	3.0
107.866	5.0
107.881	4.0
107.896	4.0
107.911	6.0
107.926	3.0
107.941	4.0
107.956	6.0
107.971	1.0
107.986	6.0
108.0	2.0
108.015	2.0
108.03	4.0
108.045	2.0
108.06	4.0
108.075	3.0
108.09	4.0
108.105	1.0
108.12	9.0
108.135	7.0
108.15	4.0
108.164	3.0
108.179	2.0
108.194	2.0
108.209	7.0
108.224	6.0
108.239	2.0
108.254	4.0
108.269	5.0
108.284	2.0
108.299	3.0
108.313	6.0
108.328	1.0
108.343	2.0
108.358	1.0
108.373	2.0
108.388	3.0
108.403	4.0
108.418	3.0
108.433	3.0
108.448	2.0
108.462	4.0
108.477	4.0
108.492	5.0
108.507	4.0
108.522	6.0
108.537	3.0
108.552	1.0
108.567	5.0
108.582	3.0
108.597	0.0
108.611	1.0
108.626	4.0
108.641	6.0
108.656	2.0
108.671	2.0
108.686	2.0
108.701	0.0
108.716	2.0
108.731	1.0
108.745	3.0
108.76	2.0
108.775	5.0
108.79	2.0
108.805	3.0
108.82	0.0
108.835	3.0
108.85	6.0
108.865	2.0
108.879	5.0
108.894	2.0
108.909	3.0
108.924	4.0
108.939	2.0
108.954	6.0
108.969	3.0
108.984	4.0
108.999	8.0
109.013	1.0
109.028	2.0
109.043	3.0
109.058	3.0
109.073	2.0
109.088	2.0
109.103	3.0
109.118	4.0
109.133	2.0
109.147	3.0
109.162	2.0
109.177	5.0
109.192	6.0
109.207	4.0
109.222	0.0
109.237	3.0
109.252	5.0
109.267	2.0
109.281	2.0
109.296	0.0
109.311	2.0
109.326	2.0
109.341	1.0
109.356	2.0
109.371	2.0
109.386	4.0
109.4	2.0
109.415	5.0
109.43	4.0
109.445	2.0
109.46	3.0
109.475	4.0
109.49	2.0
109.505	1.0
109.52	2.0
109.534	6.0
109.549	1.0
109.564	2.0
109.579	6.0
109.594	3.0
109.609	5.0
109.624	2.0
109.639	2.0
109.653	2.0
109.668	4.0
109.683	2.0
109.698	3.0
109.713	4.0
109.728	2.0
109.743	2.0
109.758	3.0
109.773	1.0
109.787	4.0
109.802	3.0
109.817	1.0
109.832	1.0
109.847	5.0
109.862	2.0
109.877	2.0
109.892	3.0
109.907	6.0
109.921	1.0
109.936	4.0
109.951	0.0
109.966	2.0
109.981	1.0
109.996	6.0
110.011	1.0
110.026	4.0
110.04	3.0
110.055	2.0
110.07	4.0
110.085	4.0
110.1	2.0
110.115	4.0
110.13	2.0
110.145	2.0
110.16	6.0
110.174	3.0
110.189	0.0
110.204	3.0
110.219	1.0
110.234	3.0
110.249	6.0
110.264	3.0
110.279	2.0
110.294	1.0
110.308	3.0
110.323	2.0
110.338	2.0
110.353	3.0
110.368	4.0
110.383	1.0
110.398	3.0
110.413	5.0
110.428	2.0
110.442	1.0
110.457	3.0
110.472	0.0
110.487	1.0
110.502	0.0
110.517	2.0
110.532	2.0
110.547	4.0
110.561	2.0
110.576	1.0
110.591	2.0
110.606	2.0
110.621	3.0
110.636	3.0
110.651	3.0
110.666	4.0
110.681	3.0
110.695	2.0
110.71	2.0
110.725	4.0
110.74	5.0
110.755	5.0
110.77	4.0
110.785	5.0
110.8	0.0
110.815	5.0
110.829	2.0
110.844	3.0
110.859	2.0
110.874	7.0
110.889	3.0
110.904	0.0
110.919	2.0
110.934	4.0
110.948	5.0
110.963	3.0
110.978	2.0
110.993	2.0
111.008	3.0
111.023	2.0
111.038	3.0
111.053	2.0
111.067	7.0
111.082	4.0
111.097	4.0
111.112	2.0
111.127	2.0
111.142	6.0
111.157	3.0
111.172	3.0
111.186	1.0
111.201	2.0
111.216	1.0
111.231	0.0
111.246	2.0
111.261	4.0
111.276	2.0
111.291	4.0
111.305	5.0
111.32	1.0
111.335	1.0
111.35	2.0
111.365	2.0
111.38	4.0
111.395	1.0
111.41	2.0
111.424	2.0
111.439	3.0
111.454	3.0
111.469	2.0
111.484	4.0
111.499	0.0
111.514	5.0
111.528	4.0
111.543	5.0
111.558	1.0
111.573	3.0
111.588	7.0
111.603	2.0
111.618	5.0
111.633	6.0
111.647	2.0
111.662	2.0
111.677	4.0
111.692	3.0
111.707	3.0
111.722	3.0
111.737	3.0
111.751	2.0
111.766	1.0
111.781	1.0
111.796	8.0
111.811	3.0
111.826	4.0
111.84	6.0
111.855	2.0
111.87	2.0
111.885	5.0
111.9	4.0
111.915	2.0
111.93	2.0
111.944	4.0
111.959	2.0
111.974	5.0
111.989	4.0
112.004	3.0
112.019	0.0
112.033	2.0
112.048	1.0
112.063	1.0
112.078	2.0
112.093	2.0
112.108	2.0
112.123	0.0
112.137	3.0
112.152	2.0
112.167	1.0
112.182	2.0
112.197	4.0
112.212	5.0
112.226	4.0
112.241	7.0
112.256	3.0
112.271	1.0
112.286	2.0
112.301	2.0
112.315	5.0
112.33	3.0
112.345	3.0
112.36	1.0
112.375	1.0
112.389	1.0
112.404	3.0
112.419	2.0
112.434	4.0
112.449	2.0
112.464	4.0
112.478	3.0
112.493	5.0
112.508	3.0
112.523	4.0
112.538	3.0
112.553	2.0
112.567	2.0
112.582	2.0
112.597	6.0
112.612	1.0
112.627	2.0
112.642	5.0
112.656	2.0
112.671	1.0
112.686	4.0
112.701	5.0
112.716	3.0
112.73	4.0
112.745	3.0
112.76	3.0
112.775	5.0
112.79	4.0
112.805	2.0
112.819	2.0
112.834	5.0
112.849	7.0
112.864	8.0
112.879	3.0
112.894	2.0
112.908	2.0
112.923	4.0
112.938	5.0
112.953	6.0
112.968	2.0
112.983	2.0
112.997	0.0
113.012	7.0
113.027	3.0
113.042	2.0
113.057	0.0
113.072	4.0
113.086	0.0
113.101	5.0
113.116	5.0
113.131	1.0
113.146	3.0
113.161	3.0
113.175	4.0
113.19	7.0
113.205	6.0
113.22	3.0
113.235	8.0
113.25	4.0
113.265	3.0
113.279	2.0
113.294	3.0
113.309	6.0
113.324	1.0
113.339	2.0
113.354	1.0
113.368	3.0
113.383	6.0
113.398	3.0
113.413	5.0
113.428	3.0
113.443	3.0
113.458	4.0
113.472	4.0
113.487	3.0
113.502	0.0
113.517	7.0
113.532	1.0
113.547	2.0
113.562	7.0
113.576	1.0
113.591	5.0
113.606	2.0
113.621	3.0
113.636	2.0
113.651	1.0
113.666	2.0
113.681	3.0
113.695	6.0
113.71	4.0
113.725	3.0
113.74	4.0
113.755	4.0
113.77	3.0
113.785	4.0
113.8	5.0
113.814	3.0
113.829	1.0
113.844	2.0
113.859	0.0
113.874	4.0
113.889	2.0
113.904	6.0
113.919	3.0
113.934	3.0
113.949	3.0
113.963	3.0
113.978	4.0
113.993	5.0
114.008	2.0
114.023	4.0
114.038	2.0
114.053	1.0
114.068	0.0
114.083	1.0
114.098	3.0
114.113	6.0
114.127	3.0
114.142	3.0
114.157	2.0
114.172	3.0
114.187	3.0
114.202	5.0
114.217	1.0
114.232	5.0
114.247	1.0
114.262	4.0
114.277	1.0
114.292	7.0
114.307	5.0
114.322	4.0
114.337	2.0
114.351	6.0
114.366	4.0
114.381	8.0
114.396	2.0
114.411	1.0
114.426	6.0
114.441	3.0
114.456	4.0
114.471	2.0
114.486	3.0
114.501	2.0
114.516	4.0
114.531	1.0
114.546	5.0
114.561	2.0
114.576	4.0
114.591	3.0
114.606	4.0
114.621	1.0
114.636	1.0
114.65	2.0
114.665	6.0
114.68	5.0
114.695	1.0
114.71	2.0
114.725	3.0
114.74	7.0
114.755	3.0
114.77	5.0
114.785	6.0
114.8	4.0
114.815	5.0
114.83	3.0
114.845	3.0
114.86	8.0
114.875	2.0
114.89	4.0
114.905	5.0
114.92	2.0
114.935	3.0
114.95	6.0
114.965	4.0
114.98	1.0
114.995	3.0
115.009	7.0
115.024	2.0
115.039	2.0
115.054	1.0
115.069	3.0
115.084	4.0
115.099	2.0
115.114	3.0
115.129	2.0
115.144	3.0
115.159	2.0
115.174	3.0
115.189	1.0
115.204	3.0
115.219	6.0
115.234	4.0
115.249	3.0
115.264	4.0
115.279	5.0
115.294	6.0
115.309	4.0
115.323	3.0
115.338	6.0
115.353	6.0
115.368	5.0
115.383	2.0
115.398	1.0
115.413	5.0
115.428	2.0
115.443	6.0
115.458	2.0
115.473	1.0
115.488	7.0
115.503	5.0
115.518	3.0
115.533	4.0
115.548	3.0
115.562	4.0
115.577	4.0
115.592	3.0
115.607	3.0
115.622	5.0
115.637	2.0
115.652	5.0
115.667	1.0
115.682	2.0
115.697	5.0
115.712	2.0
115.727	8.0
115.741	5.0
115.756	6.0
115.771	6.0
115.786	1.0
115.801	1.0
115.816	2.0
115.831	2.0
115.846	4.0
115.861	2.0
115.875	2.0
115.89	1.0
115.905	6.0
115.92	2.0
115.935	1.0
115.95	1.0
115.965	4.0
115.98	0.0
115.995	4.0
116.009	4.0
116.024	5.0
116.039	4.0
116.054	5.0
116.069	4.0
116.084	7.0
116.099	1.0
116.113	3.0
116.128	4.0
116.143	2.0
116.158	5.0
116.173	3.0
116.188	1.0
116.202	2.0
116.217	4.0
116.232	2.0
116.247	5.0
116.262	6.0
116.277	2.0
116.291	2.0
116.306	2.0
116.321	5.0
116.336	6.0
116.351	5.0
116.366	6.0
116.38	3.0
116.395	3.0
116.41	2.0
116.425	3.0
116.44	4.0
116.454	1.0
116.469	3.0
116.484	5.0
116.499	3.0
116.514	3.0
116.528	2.0
116.543	2.0
116.558	1.0
116.573	3.0
116.588	3.0
116.602	2.0
116.617	4.0
116.632	5.0
116.647	10.0
116.662	4.0
116.676	5.0
116.691	1.0
116.706	1.0
116.721	6.0
116.735	3.0
116.75	3.0
116.765	2.0
116.78	2.0
116.795	4.0
116.809	4.0
116.824	5.0
116.839	2.0
116.854	3.0
116.868	3.0
116.883	8.0
116.898	1.0
116.913	2.0
116.927	4.0
116.942	2.0
116.957	4.0
116.972	3.0
116.986	5.0
117.001	2.0
117.016	4.0
117.031	2.0
117.045	5.0
117.06	4.0
117.075	0.0
117.09	1.0
117.104	2.0
117.119	2.0
117.134	3.0
117.149	4.0
117.163	5.0
117.178	2.0
117.193	3.0
117.208	0.0
117.222	3.0
117.237	2.0
117.252	1.0
117.267	2.0
117.281	4.0
117.296	9.0
117.311	8.0
117.325	3.0
117.34	6.0
117.355	3.0
117.37	3.0
117.384	3.0
117.399	1.0
117.414	6.0
117.429	3.0
117.443	6.0
117.458	2.0
117.473	2.0
117.487	5.0
117.502	8.0
117.517	2.0
117.532	2.0
117.546	3.0
117.561	3.0
117.576	2.0
117.59	2.0
117.605	4.0
117.62	3.0
117.635	5.0
117.649	6.0
117.664	0.0
117.679	4.0
117.693	2.0
117.708	2.0
117.723	3.0
117.738	5.0
117.752	3.0
117.767	3.0
117.782	2.0
117.796	1.0
117.811	4.0
117.826	3.0
117.841	1.0
117.855	2.0
117.87	3.0
117.885	3.0
117.899	1.0
117.914	3.0
117.929	4.0
117.944	5.0
117.958	5.0
117.973	5.0
117.988	6.0
118.002	1.0
118.017	7.0
118.032	4.0
118.047	2.0
118.062	1.0
118.077	2.0
118.092	7.0
118.107	1.0
118.121	3.0
118.136	5.0
118.151	3.0
118.166	4.0
118.181	6.0
118.196	5.0
118.211	5.0
118.225	0.0
118.24	5.0
118.255	3.0
118.27	4.0
118.285	4.0
118.3	3.0
118.315	4.0
118.33	7.0
118.344	2.0
118.359	3.0
118.374	4.0
118.389	3.0
118.404	4.0
118.419	4.0
118.434	3.0
118.449	2.0
118.463	5.0
118.478	3.0
118.493	2.0
118.508	7.0
118.523	4.0
118.538	2.0
118.553	1.0
118.567	1.0
118.582	2.0
118.597	5.0
118.612	3.0
118.627	1.0
118.642	3.0
118.657	3.0
118.672	4.0
118.686	5.0
118.701	4.0
118.716	2.0
118.731	2.0
118.746	5.0
118.761	7.0
118.776	6.0
118.791	2.0
118.805	0.0
118.82	6.0
118.835	0.0
118.85	3.0
118.865	3.0
118.88	2.0
118.895	5.0
118.909	3.0
118.924	4.0
118.939	3.0
118.954	7.0
118.969	4.0
118.984	7.0
118.999	2.0
119.014	5.0
119.028	4.0
119.043	3.0
119.058	5.0
119.073	1.0
119.088	3.0
119.103	5.0
119.118	6.0
119.133	1.0
119.147	1.0
119.162	2.0
119.177	3.0
119.192	5.0
119.207	6.0
119.222	2.0
119.237	1.0
119.251	3.0
119.266	4.0
119.281	3.0
119.296	8.0
119.311	2.0
119.326	8.0
119.341	3.0
119.356	3.0
119.37	3.0
119.385	1.0
119.4	1.0
119.415	2.0
119.43	3.0
119.445	5.0
119.46	3.0
119.475	5.0
119.489	3.0
119.504	4.0
119.519	1.0
119.534	1.0
119.549	2.0
119.564	3.0
119.579	3.0
119.593	4.0
119.608	6.0
119.623	1.0
119.638	5.0
119.653	3.0
119.668	6.0
119.683	5.0
119.698	4.0
119.712	1.0
119.727	3.0
119.742	4.0
119.757	4.0
119.772	3.0
119.787	4.0
119.802	7.0
119.817	2.0
119.831	2.0
119.846	3.0
119.861	3.0
119.876	2.0
119.891	4.0
119.906	4.0
119.921	2.0
119.935	2.0
119.95	1.0
119.965	4.0
119.98	4.0
119.995	3.0
120.01	2.0
120.025	3.0
120.04	6.0
120.054	1.0
120.069	4.0
120.084	4.0
120.099	0.0
120.114	1.0
120.129	1.0
120.144	0.0
120.159	1.0
120.173	0.0
120.188	0.0
120.203	2.0
120.218	3.0
120.233	1.0
120.248	0.0
120.263	1.0
120.277	0.0
120.292	0.0
120.307	1.0
120.322	0.0
120.337	0.0
120.352	0.0
120.367	0.0
120.382	1.0
120.396	0.0
120.411	0.0
120.426	0.0
120.441	0.0
120.456	0.0
120.471	1.0
120.486	0.0
120.501	0.0
120.515	0.0
120.53	0.0
120.545	0.0
120.56	0.0
120.575	0.0
120.59	0.0
120.605	0.0
120.619	0.0
120.634	1.0
120.649	0.0
120.664	0.0
120.679	0.0
120.694	0.0
120.709	0.0
120.724	0.0
120.738	0.0
120.753	0.0
120.768	0.0
120.783	0.0
120.798	0.0
120.813	0.0
120.828	0.0
120.843	0.0
120.857	0.0
120.872	0.0
120.887	0.0
120.902	0.0
120.917	0.0
120.932	0.0
120.947	0.0
120.961	0.0
120.976	0.0
