-1.217	0.0
-1.202	0.0
-1.187	0.0
-1.172	0.0
-1.157	0.0
-1.142	0.0
-1.128	0.0
-1.113	0.0
-1.098	0.0
-1.083	0.0
-1.068	0.0
-1.054	0.0
-1.039	0.0
-1.024	0.0
-1.009	0.0
-0.994	0.0
-0.979	0.0
-0.965	0.0
-0.95	0.0
-0.935	0.0
-0.92	0.0
-0.905	0.0
-0.891	0.0
-0.876	0.0
-0.861	0.0
-0.846	0.0
-0.831	0.0
-0.816	0.0
-0.802	0.0
-0.787	0.0
-0.772	0.0
-0.757	0.0
-0.742	0.0
-0.728	0.0
-0.713	0.0
-0.698	0.0
-0.683	0.0
-0.668	0.0
-0.653	0.0
-0.639	0.0
-0.624	0.0
-0.609	0.0
-0.594	0.0
-0.579	0.0
-0.565	0.0
-0.55	0.0
-0.535	0.0
-0.52	0.0
-0.505	0.0
-0.49	0.0
-0.476	0.0
-0.461	0.0
-0.446	0.0
-0.431	0.0
-0.416	0.0
-0.401	0.0
-0.387	0.0
-0.372	0.0
-0.357	0.0
-0.342	0.0
-0.327	0.0
-0.313	0.0
-0.298	0.0
-0.283	0.0
-0.268	0.0
-0.253	0.0
-0.238	0.0
-0.224	0.0
-0.209	0.0
-0.194	0.0
-0.179	0.0
-0.164	0.0
-0.15	0.0
-0.135	0.0
-0.12	0.0
-0.105	0.0
-0.09	0.0
-0.075	0.0
-0.061	0.0
-0.046	0.0
-0.031	0.0
-0.016	0.0
-0.001	0.0
0.013	0.0
0.028	0.0
0.043	0.0
0.058	0.0
0.073	0.0
0.088	0.0
0.102	0.0
0.117	0.0
0.132	0.0
0.147	0.0
0.162	0.0
0.176	0.0
0.191	1.0
0.206	0.0
0.221	0.0
0.236	0.0
0.251	0.0
0.265	0.0
0.28	0.0
0.295	0.0
0.31	0.0
0.325	0.0
0.339	0.0
0.354	0.0
0.369	0.0
0.384	0.0
0.399	0.0
0.414	0.0
0.428	0.0
0.443	0.0
0.458	0.0
0.473	0.0
0.488	0.0
0.502	0.0
0.517	0.0
0.532	0.0
0.547	0.0
0.562	0.0
0.577	0.0
0.591	0.0
0.606	0.0
0.621	0.0
0.636	0.0
0.651	0.0
0.665	0.0
0.68	0.0
0.695	0.0
0.71	0.0
0.725	1.0
0.74	0.0
0.754	0.0
0.769	0.0
0.784	0.0
0.799	0.0
0.814	0.0
0.828	0.0
0.843	0.0
0.858	0.0
0.873	0.0
0.888	0.0
0.903	0.0
0.917	1.0
0.932	0.0
0.947	0.0
0.962	0.0
0.977	0.0
0.991	0.0
1.006	0.0
1.021	0.0
1.036	0.0
1.051	0.0
1.065	0.0
1.08	0.0
1.095	0.0
1.11	0.0
1.125	0.0
1.14	0.0
1.154	0.0
1.169	1.0
1.184	0.0
1.199	0.0
1.214	0.0
1.228	0.0
1.243	0.0
1.258	0.0
1.273	0.0
1.288	0.0
1.302	0.0
1.317	0.0
1.332	0.0
1.347	0.0
1.362	0.0
1.376	0.0
1.391	0.0
1.406	1.0
1.421	0.0
1.436	0.0
1.45	0.0
1.465	0.0
1.48	0.0
1.495	1.0
1.51	0.0
1.524	0.0
1.539	0.0
1.554	0.0
1.569	0.0
1.584	0.0
1.598	0.0
1.613	0.0
1.628	1.0
1.643	0.0
1.658	0.0
1.672	0.0
1.687	0.0
1.702	0.0
1.717	0.0
1.732	0.0
1.746	0.0
1.761	0.0
1.776	0.0
1.791	0.0
1.806	0.0
1.82	0.0
1.835	1.0
1.85	0.0
1.865	0.0
1.88	0.0
1.894	0.0
1.909	0.0
1.924	0.0
1.939	0.0
1.954	0.0
1.968	0.0
1.983	1.0
1.998	0.0
2.013	1.0
2.028	0.0
2.042	0.0
2.057	0.0
2.072	0.0
2.087	0.0
2.101	0.0
2.116	0.0
2.131	0.0
2.146	1.0
2.161	1.0
2.175	0.0
2.19	0.0
2.205	0.0
2.22	1.0
2.235	0.0
2.249	0.0
2.264	0.0
2.279	1.0
2.294	0.0
2.308	0.0
2.323	1.0
2.338	1.0
2.353	1.0
2.368	2.0
2.382	1.0
2.397	0.0
2.412	1.0
2.427	0.0
2.442	0.0
2.456	1.0
2.471	0.0
2.486	1.0
2.501	1.0
2.515	3.0
2.53	2.0
2.545	3.0
2.56	1.0
2.575	0.0
2.589	2.0
2.604	4.0
2.619	1.0
2.634	3.0
2.649	4.0
2.663	4.0
2.678	4.0
2.693	4.0
2.708	0.0
2.722	1.0
2.737	3.0
2.752	3.0
2.767	3.0
2.782	1.0
2.796	2.0
2.811	0.0
2.826	1.0
2.841	7.0
2.856	4.0
2.87	4.0
2.885	4.0
2.9	1.0
2.915	1.0
2.93	6.0
2.944	6.0
2.959	2.0
2.974	3.0
2.989	6.0
3.004	3.0
3.018	4.0
3.033	2.0
3.048	3.0
3.063	2.0
3.078	3.0
3.092	7.0
3.107	0.0
3.122	4.0
3.137	7.0
3.152	3.0
3.166	3.0
3.181	5.0
3.196	7.0
3.211	3.0
3.226	1.0
3.24	4.0
3.255	4.0
3.27	4.0
3.285	4.0
3.3	7.0
3.315	4.0
3.329	4.0
3.344	6.0
3.359	5.0
3.374	3.0
3.389	10.0
3.403	7.0
3.418	4.0
3.433	5.0
3.448	5.0
3.463	8.0
3.478	9.0
3.492	6.0
3.507	7.0
3.522	2.0
3.537	0.0
3.552	5.0
3.567	7.0
3.581	3.0
3.596	5.0
3.611	11.0
3.626	8.0
3.641	9.0
3.656	11.0
3.671	7.0
3.685	3.0
3.7	7.0
3.715	1.0
3.73	2.0
3.745	6.0
3.76	4.0
3.775	6.0
3.789	9.0
3.804	7.0
3.819	5.0
3.834	5.0
3.849	6.0
3.864	8.0
3.879	8.0
3.894	10.0
3.908	6.0
3.923	4.0
3.938	1.0
3.953	7.0
3.968	3.0
3.983	5.0
3.998	5.0
4.013	9.0
4.027	6.0
4.042	8.0
4.057	7.0
4.072	8.0
4.087	7.0
4.102	10.0
4.117	9.0
4.132	6.0
4.147	9.0
4.162	8.0
4.176	7.0
4.191	6.0
4.206	7.0
4.221	10.0
4.236	2.0
4.251	9.0
4.266	7.0
4.281	4.0
4.296	11.0
4.311	9.0
4.326	8.0
4.341	8.0
4.356	7.0
4.37	2.0
4.385	1.0
4.4	11.0
4.415	3.0
4.43	7.0
4.445	8.0
4.46	5.0
4.475	6.0
4.49	6.0
4.505	10.0
4.52	9.0
4.535	6.0
4.55	9.0
4.565	10.0
4.58	7.0
4.595	7.0
4.61	4.0
4.625	9.0
4.639	8.0
4.654	5.0
4.669	7.0
4.684	8.0
4.699	3.0
4.714	9.0
4.729	8.0
4.744	10.0
4.759	11.0
4.774	11.0
4.789	5.0
4.804	6.0
4.819	5.0
4.834	7.0
4.849	4.0
4.864	14.0
4.879	9.0
4.894	7.0
4.909	10.0
4.924	7.0
4.939	9.0
4.954	11.0
4.969	7.0
4.984	4.0
4.999	12.0
5.014	8.0
5.029	11.0
5.044	3.0
5.059	2.0
5.074	13.0
5.089	9.0
5.104	10.0
5.119	5.0
5.134	13.0
5.149	6.0
5.164	7.0
5.179	6.0
5.194	8.0
5.209	7.0
5.224	11.0
5.239	9.0
5.254	9.0
5.269	9.0
5.284	10.0
5.299	10.0
5.314	11.0
5.329	8.0
5.344	6.0
5.359	9.0
5.374	14.0
5.389	5.0
5.404	7.0
5.419	9.0
5.434	11.0
5.449	7.0
5.464	6.0
5.479	4.0
5.494	8.0
5.509	11.0
5.524	10.0
5.539	9.0
5.554	11.0
5.569	9.0
5.584	4.0
5.599	12.0
5.614	10.0
5.629	12.0
5.644	12.0
5.659	6.0
5.674	7.0
5.689	4.0
5.704	7.0
5.719	11.0
5.734	11.0
5.749	3.0
5.764	10.0
5.779	7.0
5.794	4.0
5.809	4.0
5.824	7.0
5.839	11.0
5.854	8.0
5.869	7.0
5.884	13.0
5.899	13.0
5.914	13.0
5.929	8.0
5.944	5.0
5.959	4.0
5.974	9.0
5.989	8.0
6.004	8.0
6.019	9.0
6.034	4.0
6.049	9.0
6.064	3.0
6.079	11.0
6.094	7.0
6.109	11.0
6.124	8.0
6.139	9.0
6.154	11.0
6.169	9.0
6.184	11.0
6.199	5.0
6.214	7.0
6.229	8.0
6.244	7.0
6.259	13.0
6.274	5.0
6.289	6.0
6.304	9.0
6.319	9.0
6.334	7.0
6.349	17.0
6.364	10.0
6.379	11.0
6.394	11.0
6.409	17.0
6.424	9.0
6.439	8.0
6.454	9.0
6.469	4.0
6.484	8.0
6.499	11.0
6.514	6.0
6.529	10.0
6.544	11.0
6.559	7.0
6.574	13.0
6.589	10.0
6.604	5.0
6.619	8.0
6.634	10.0
6.649	5.0
6.664	11.0
6.679	15.0
6.694	3.0
6.709	8.0
6.724	13.0
6.739	12.0
6.754	11.0
6.769	10.0
6.784	6.0
6.799	7.0
6.814	6.0
6.829	10.0
6.844	5.0
6.859	8.0
6.873	10.0
6.888	8.0
6.903	12.0
6.918	11.0
6.933	9.0
6.948	7.0
6.963	5.0
6.978	5.0
6.993	8.0
7.008	2.0
7.023	10.0
7.038	8.0
7.053	6.0
7.068	9.0
7.083	14.0
7.098	11.0
7.113	4.0
7.128	6.0
7.143	7.0
7.157	12.0
7.172	13.0
7.187	11.0
7.202	9.0
7.217	10.0
7.232	12.0
7.247	10.0
7.262	6.0
7.277	7.0
7.292	10.0
7.307	4.0
7.322	6.0
7.336	8.0
7.351	12.0
7.366	7.0
7.381	4.0
7.396	6.0
7.411	16.0
7.426	8.0
7.441	13.0
7.456	10.0
7.471	14.0
7.485	13.0
7.5	13.0
7.515	7.0
7.53	10.0
7.545	11.0
7.56	9.0
7.575	10.0
7.59	5.0
7.604	6.0
7.619	6.0
7.634	11.0
7.649	10.0
7.664	9.0
7.679	9.0
7.693	7.0
7.708	8.0
7.723	10.0
7.738	10.0
7.753	7.0
7.768	9.0
7.783	10.0
7.797	9.0
7.812	8.0
7.827	14.0
7.842	10.0
7.857	7.0
7.871	14.0
7.886	9.0
7.901	14.0
7.916	6.0
7.931	10.0
7.945	2.0
7.96	4.0
7.975	9.0
7.99	6.0
8.005	9.0
8.019	9.0
8.034	6.0
8.049	10.0
8.064	7.0
8.078	4.0
8.093	16.0
8.108	11.0
8.123	8.0
8.137	8.0
8.152	13.0
8.167	5.0
8.182	8.0
8.196	12.0
8.211	8.0
8.226	9.0
8.241	2.0
8.255	11.0
8.27	12.0
8.285	9.0
8.3	5.0
8.314	10.0
8.329	9.0
8.344	14.0
8.358	8.0
8.373	9.0
8.388	9.0
8.403	11.0
8.417	8.0
8.432	8.0
8.447	7.0
8.461	7.0
8.476	5.0
8.491	10.0
8.505	3.0
8.52	7.0
8.535	7.0
8.55	7.0
8.564	7.0
8.579	5.0
8.594	11.0
8.608	10.0
8.623	11.0
8.638	11.0
8.652	11.0
8.667	11.0
8.682	12.0
8.696	7.0
8.711	10.0
8.726	6.0
8.74	6.0
8.755	11.0
8.77	8.0
8.784	12.0
8.799	8.0
8.814	8.0
8.828	12.0
8.843	8.0
8.858	13.0
8.872	10.0
8.887	9.0
8.902	12.0
8.916	8.0
8.931	7.0
8.946	9.0
8.96	5.0
8.975	12.0
8.99	10.0
9.004	3.0
9.019	9.0
9.034	7.0
9.048	6.0
9.063	8.0
9.077	10.0
9.092	10.0
9.107	8.0
9.121	10.0
9.136	19.0
9.151	5.0
9.165	6.0
9.18	11.0
9.195	10.0
9.209	7.0
9.224	4.0
9.239	8.0
9.253	9.0
9.268	6.0
9.283	7.0
9.297	6.0
9.312	11.0
9.327	5.0
9.341	7.0
9.356	7.0
9.371	6.0
9.385	14.0
9.4	7.0
9.415	8.0
9.429	12.0
9.444	12.0
9.458	13.0
9.473	10.0
9.488	9.0
9.502	14.0
9.517	10.0
9.532	9.0
9.546	6.0
9.561	7.0
9.576	6.0
9.59	7.0
9.605	9.0
9.62	6.0
9.635	11.0
9.649	1.0
9.664	4.0
9.679	9.0
9.693	7.0
9.708	9.0
9.723	9.0
9.737	7.0
9.752	4.0
9.767	10.0
9.781	8.0
9.796	15.0
9.811	11.0
9.825	4.0
9.84	8.0
9.855	12.0
9.87	9.0
9.884	11.0
9.899	13.0
9.914	6.0
9.928	6.0
9.943	6.0
9.958	11.0
9.973	4.0
9.987	7.0
10.002	9.0
10.017	6.0
10.031	4.0
10.046	8.0
10.061	13.0
10.076	4.0
10.09	6.0
10.105	6.0
10.12	4.0
10.135	4.0
10.149	7.0
10.164	7.0
10.179	5.0
10.194	9.0
10.208	6.0
10.223	7.0
10.238	5.0
10.253	7.0
10.267	10.0
10.282	5.0
10.297	9.0
10.312	6.0
10.326	9.0
10.341	9.0
10.356	10.0
10.371	3.0
10.386	9.0
10.4	7.0
10.415	11.0
10.43	7.0
10.445	10.0
10.46	10.0
10.474	5.0
10.489	10.0
10.504	8.0
10.519	3.0
10.533	8.0
10.548	10.0
10.563	11.0
10.578	11.0
10.593	12.0
10.608	5.0
10.622	10.0
10.637	11.0
10.652	8.0
10.667	7.0
10.682	9.0
10.696	6.0
10.711	6.0
10.726	5.0
10.741	9.0
10.756	3.0
10.771	11.0
10.785	10.0
10.8	9.0
10.815	5.0
10.83	8.0
10.845	11.0
10.86	6.0
10.874	9.0
10.889	7.0
10.904	10.0
10.919	8.0
10.934	4.0
10.949	7.0
10.963	11.0
10.978	9.0
10.993	7.0
11.008	9.0
11.023	6.0
11.038	8.0
11.053	10.0
11.067	9.0
11.082	5.0
11.097	7.0
11.112	13.0
11.127	11.0
11.142	11.0
11.157	7.0
11.172	9.0
11.186	10.0
11.201	6.0
11.216	5.0
11.231	11.0
11.246	13.0
11.261	8.0
11.276	9.0
11.291	6.0
11.305	10.0
11.32	16.0
11.335	9.0
11.35	7.0
11.365	12.0
11.38	7.0
11.395	11.0
11.41	13.0
11.424	14.0
11.439	5.0
11.454	7.0
11.469	7.0
11.484	8.0
11.499	11.0
11.514	10.0
11.529	7.0
11.544	4.0
11.558	6.0
11.573	7.0
11.588	6.0
11.603	7.0
11.618	12.0
11.633	8.0
11.648	4.0
11.663	14.0
11.678	6.0
11.693	8.0
11.707	9.0
11.722	9.0
11.737	7.0
11.752	5.0
11.767	9.0
11.782	9.0
11.797	14.0
11.812	9.0
11.827	6.0
11.842	4.0
11.856	7.0
11.871	9.0
11.886	12.0
11.901	5.0
11.916	9.0
11.931	7.0
11.946	10.0
11.961	2.0
11.976	9.0
11.991	7.0
12.006	9.0
12.02	6.0
12.035	10.0
12.05	7.0
12.065	10.0
12.08	6.0
12.095	9.0
12.11	11.0
12.125	8.0
12.14	15.0
12.155	10.0
12.17	10.0
12.184	8.0
12.199	8.0
12.214	6.0
12.229	8.0
12.244	6.0
12.259	13.0
12.274	9.0
12.289	11.0
12.304	10.0
12.319	10.0
12.334	19.0
12.348	17.0
12.363	11.0
12.378	10.0
12.393	10.0
12.408	12.0
12.423	15.0
12.438	11.0
12.453	14.0
12.468	13.0
12.483	14.0
12.498	15.0
12.513	15.0
12.527	12.0
12.542	14.0
12.557	13.0
12.572	14.0
12.587	19.0
12.602	17.0
12.617	19.0
12.632	13.0
12.647	18.0
12.662	14.0
12.677	16.0
12.692	10.0
12.707	21.0
12.721	22.0
12.736	17.0
12.751	16.0
12.766	17.0
12.781	8.0
12.796	10.0
12.811	15.0
12.826	14.0
12.841	16.0
12.856	14.0
12.871	13.0
12.886	15.0
12.9	14.0
12.915	12.0
12.93	20.0
12.945	16.0
12.96	21.0
12.975	13.0
12.99	12.0
13.005	15.0
13.02	19.0
13.035	24.0
13.05	18.0
13.065	10.0
13.08	16.0
13.094	20.0
13.109	19.0
13.124	11.0
13.139	18.0
13.154	15.0
13.169	22.0
13.184	17.0
13.199	20.0
13.214	14.0
13.229	23.0
13.244	16.0
13.259	19.0
13.274	25.0
13.288	20.0
13.303	20.0
13.318	19.0
13.333	24.0
13.348	13.0
13.363	32.0
13.378	14.0
13.393	28.0
13.408	31.0
13.423	29.0
13.438	37.0
13.453	38.0
13.468	31.0
13.482	31.0
13.497	26.0
13.512	32.0
13.527	44.0
13.542	49.0
13.557	50.0
13.572	45.0
13.587	58.0
13.602	73.0
13.617	55.0
13.632	75.0
13.647	85.0
13.662	84.0
13.677	78.0
13.691	95.0
13.706	83.0
13.721	105.0
13.736	96.0
13.751	105.0
13.766	127.0
13.781	124.0
13.796	118.0
13.811	143.0
13.826	143.0
13.841	137.0
13.856	134.0
13.871	129.0
13.885	111.0
13.9	84.0
13.915	81.0
13.93	84.0
13.945	68.0
13.96	55.0
13.975	50.0
13.99	31.0
14.005	34.0
14.02	27.0
14.035	33.0
14.05	27.0
14.065	21.0
14.08	22.0
14.094	20.0
14.109	26.0
14.124	25.0
14.139	28.0
14.154	12.0
14.169	24.0
14.184	19.0
14.199	17.0
14.214	23.0
14.229	17.0
14.244	17.0
14.259	25.0
14.274	18.0
14.288	18.0
14.303	16.0
14.318	9.0
14.333	20.0
14.348	14.0
14.363	15.0
14.378	14.0
14.393	17.0
14.408	27.0
14.423	24.0
14.438	13.0
14.453	17.0
14.468	17.0
14.482	17.0
14.497	13.0
14.512	18.0
14.527	10.0
14.542	13.0
14.557	16.0
14.572	22.0
14.587	16.0
14.602	20.0
14.617	16.0
14.632	19.0
14.647	15.0
14.661	14.0
14.676	17.0
14.691	12.0
14.706	21.0
14.721	18.0
14.736	10.0
14.751	15.0
14.766	12.0
14.781	17.0
14.796	16.0
14.811	13.0
14.826	11.0
14.84	15.0
14.855	17.0
14.87	17.0
14.885	12.0
14.9	15.0
14.915	18.0
14.93	18.0
14.945	17.0
14.96	19.0
14.975	14.0
14.989	19.0
15.004	17.0
15.019	21.0
15.034	18.0
15.049	17.0
15.064	10.0
15.079	18.0
15.094	17.0
15.109	9.0
15.124	6.0
15.138	11.0
15.153	14.0
15.168	13.0
15.183	8.0
15.198	18.0
15.213	13.0
15.228	12.0
15.243	17.0
15.258	13.0
15.272	16.0
15.287	18.0
15.302	16.0
15.317	13.0
15.332	12.0
15.347	18.0
15.362	13.0
15.377	13.0
15.391	14.0
15.406	13.0
15.421	15.0
15.436	21.0
15.451	15.0
15.466	10.0
15.481	20.0
15.496	13.0
15.51	12.0
15.525	12.0
15.54	17.0
15.555	15.0
15.57	16.0
15.585	8.0
15.6	18.0
15.614	15.0
15.629	17.0
15.644	15.0
15.659	12.0
15.674	15.0
15.689	10.0
15.704	13.0
15.718	15.0
15.733	10.0
15.748	19.0
15.763	23.0
15.778	19.0
15.793	18.0
15.808	12.0
15.822	12.0
15.837	9.0
15.852	15.0
15.867	18.0
15.882	18.0
15.897	19.0
15.911	14.0
15.926	10.0
15.941	13.0
15.956	17.0
15.971	10.0
15.986	14.0
16.0	10.0
16.015	13.0
16.03	15.0
16.045	18.0
16.06	12.0
16.074	12.0
16.089	13.0
16.104	15.0
16.119	15.0
16.134	10.0
16.149	25.0
16.163	13.0
16.178	23.0
16.193	11.0
16.208	8.0
16.223	10.0
16.237	15.0
16.252	11.0
16.267	13.0
16.282	15.0
16.297	10.0
16.311	19.0
16.326	8.0
16.341	8.0
16.356	8.0
16.37	15.0
16.385	15.0
16.4	16.0
16.415	17.0
16.43	14.0
16.444	22.0
16.459	7.0
16.474	11.0
16.489	14.0
16.504	13.0
16.518	16.0
16.533	14.0
16.548	15.0
16.563	12.0
16.577	13.0
16.592	20.0
16.607	22.0
16.622	22.0
16.637	17.0
16.651	27.0
16.666	18.0
16.681	18.0
16.696	26.0
16.71	28.0
16.725	14.0
16.74	31.0
16.755	27.0
16.77	34.0
16.784	31.0
16.799	44.0
16.814	47.0
16.829	61.0
16.843	60.0
16.858	56.0
16.873	44.0
16.888	61.0
16.902	51.0
16.917	81.0
16.932	69.0
16.947	82.0
16.961	67.0
16.976	81.0
16.991	55.0
17.006	69.0
17.021	63.0
17.035	48.0
17.05	46.0
17.065	42.0
17.08	30.0
17.094	38.0
17.109	30.0
17.124	30.0
17.139	29.0
17.153	16.0
17.168	16.0
17.183	17.0
17.198	19.0
17.212	16.0
17.227	24.0
17.242	16.0
17.257	11.0
17.271	16.0
17.286	10.0
17.301	17.0
17.316	14.0
17.33	18.0
17.345	20.0
17.36	17.0
17.375	17.0
17.39	12.0
17.404	14.0
17.419	14.0
17.434	12.0
17.449	13.0
17.463	14.0
17.478	15.0
17.493	14.0
17.508	15.0
17.522	9.0
17.537	18.0
17.552	11.0
17.567	13.0
17.581	15.0
17.596	11.0
17.611	10.0
17.626	12.0
17.641	12.0
17.655	13.0
17.67	10.0
17.685	12.0
17.7	12.0
17.714	12.0
17.729	11.0
17.744	7.0
17.759	15.0
17.773	13.0
17.788	9.0
17.803	10.0
17.818	13.0
17.833	12.0
17.847	13.0
17.862	7.0
17.877	9.0
17.892	10.0
17.906	10.0
17.921	13.0
17.936	11.0
17.951	14.0
17.966	14.0
17.98	15.0
17.995	6.0
18.01	14.0
18.025	14.0
18.04	12.0
18.054	13.0
18.069	13.0
18.084	9.0
18.099	15.0
18.114	8.0
18.128	15.0
18.143	13.0
18.158	10.0
18.173	11.0
18.188	19.0
18.202	12.0
18.217	22.0
18.232	10.0
18.247	14.0
18.262	9.0
18.276	13.0
18.291	9.0
18.306	14.0
18.321	10.0
18.336	13.0
18.35	15.0
18.365	15.0
18.38	15.0
18.395	9.0
18.41	10.0
18.424	17.0
18.439	12.0
18.454	13.0
18.469	11.0
18.484	18.0
18.498	12.0
18.513	15.0
18.528	12.0
18.543	17.0
18.558	5.0
18.573	10.0
18.587	7.0
18.602	11.0
18.617	15.0
18.632	11.0
18.647	6.0
18.661	6.0
18.676	7.0
18.691	11.0
18.706	13.0
18.721	13.0
18.736	10.0
18.75	14.0
18.765	7.0
18.78	9.0
18.795	10.0
18.81	15.0
18.825	15.0
18.839	11.0
18.854	19.0
18.869	10.0
18.884	16.0
18.899	12.0
18.913	13.0
18.928	11.0
18.943	12.0
18.958	7.0
18.973	13.0
18.988	13.0
19.002	13.0
19.017	12.0
19.032	18.0
19.047	9.0
19.062	14.0
19.077	10.0
19.091	11.0
19.106	7.0
19.121	18.0
19.136	14.0
19.151	6.0
19.165	10.0
19.18	18.0
19.195	18.0
19.21	13.0
19.225	17.0
19.24	19.0
19.254	8.0
19.269	11.0
19.284	18.0
19.299	12.0
19.314	22.0
19.329	21.0
19.343	13.0
19.358	16.0
19.373	9.0
19.388	17.0
19.403	19.0
19.417	18.0
19.432	16.0
19.447	25.0
19.462	22.0
19.477	30.0
19.492	24.0
19.506	29.0
19.521	32.0
19.536	40.0
19.551	30.0
19.566	42.0
19.58	39.0
19.595	30.0
19.61	34.0
19.625	36.0
19.64	38.0
19.655	43.0
19.669	39.0
19.684	38.0
19.699	32.0
19.714	23.0
19.729	30.0
19.743	18.0
19.758	24.0
19.773	27.0
19.788	18.0
19.803	26.0
19.817	16.0
19.832	18.0
19.847	15.0
19.862	10.0
19.877	12.0
19.891	9.0
19.906	13.0
19.921	15.0
19.936	8.0
19.951	7.0
19.965	10.0
19.98	6.0
19.995	15.0
20.01	18.0
20.025	13.0
20.039	15.0
20.054	14.0
20.069	12.0
20.084	18.0
20.099	15.0
20.113	10.0
20.128	10.0
20.143	15.0
20.158	7.0
20.173	12.0
20.187	8.0
20.202	12.0
20.217	17.0
20.232	7.0
20.246	12.0
20.261	9.0
20.276	8.0
20.291	9.0
20.306	12.0
20.32	8.0
20.335	6.0
20.35	14.0
20.365	6.0
20.38	10.0
20.394	16.0
20.409	9.0
20.424	12.0
20.439	12.0
20.453	6.0
20.468	14.0
20.483	10.0
20.498	14.0
20.513	12.0
20.527	12.0
20.542	14.0
20.557	9.0
20.572	10.0
20.586	6.0
20.601	13.0
20.616	15.0
20.631	7.0
20.646	10.0
20.66	10.0
20.675	13.0
20.69	11.0
20.705	14.0
20.719	8.0
20.734	11.0
20.749	21.0
20.764	14.0
20.779	8.0
20.793	12.0
20.808	18.0
20.823	14.0
20.838	12.0
20.853	16.0
20.867	10.0
20.882	11.0
20.897	14.0
20.912	10.0
20.926	10.0
20.941	13.0
20.956	13.0
20.971	14.0
20.986	4.0
21.0	15.0
21.015	5.0
21.03	10.0
21.045	13.0
21.06	17.0
21.074	11.0
21.089	12.0
21.104	13.0
21.119	10.0
21.134	14.0
21.148	15.0
21.163	13.0
21.178	11.0
21.193	12.0
21.208	17.0
21.222	9.0
21.237	15.0
21.252	13.0
21.267	10.0
21.282	13.0
21.296	16.0
21.311	15.0
21.326	11.0
21.341	10.0
21.356	18.0
21.37	12.0
21.385	8.0
21.4	7.0
21.415	18.0
21.43	15.0
21.444	10.0
21.459	15.0
21.474	14.0
21.489	14.0
21.504	17.0
21.519	17.0
21.533	3.0
21.548	8.0
21.563	13.0
21.578	20.0
21.593	13.0
21.608	15.0
21.622	14.0
21.637	13.0
21.652	12.0
21.667	21.0
21.682	14.0
21.697	25.0
21.712	21.0
21.726	15.0
21.741	23.0
21.756	25.0
21.771	38.0
21.786	28.0
21.801	41.0
21.816	37.0
21.83	42.0
21.845	38.0
21.86	56.0
21.875	76.0
21.89	49.0
21.905	85.0
21.92	72.0
21.935	78.0
21.949	89.0
21.964	78.0
21.979	59.0
21.994	72.0
22.009	67.0
22.024	74.0
22.039	60.0
22.054	58.0
22.069	39.0
22.083	44.0
22.098	34.0
22.113	33.0
22.128	42.0
22.143	30.0
22.158	26.0
22.173	30.0
22.188	15.0
22.203	21.0
22.218	24.0
22.233	10.0
22.248	15.0
22.262	13.0
22.277	11.0
22.292	11.0
22.307	12.0
22.322	16.0
22.337	15.0
22.352	15.0
22.367	19.0
22.382	16.0
22.397	13.0
22.412	12.0
22.427	15.0
22.442	5.0
22.457	16.0
22.472	12.0
22.487	20.0
22.502	14.0
22.516	8.0
22.531	11.0
22.546	13.0
22.561	18.0
22.576	11.0
22.591	19.0
22.606	8.0
22.621	10.0
22.636	17.0
22.651	8.0
22.666	10.0
22.681	10.0
22.696	12.0
22.711	8.0
22.726	10.0
22.741	14.0
22.756	14.0
22.771	11.0
22.786	15.0
22.801	17.0
22.816	16.0
22.831	11.0
22.846	3.0
22.861	10.0
22.876	11.0
22.891	9.0
22.906	5.0
22.92	7.0
22.935	8.0
22.95	5.0
22.965	13.0
22.98	16.0
22.995	10.0
23.01	14.0
23.025	6.0
23.04	11.0
23.055	9.0
23.07	13.0
23.085	12.0
23.1	15.0
23.115	12.0
23.13	6.0
23.145	7.0
23.16	7.0
23.175	12.0
23.19	8.0
23.205	20.0
23.22	6.0
23.235	15.0
23.25	14.0
23.265	12.0
23.28	5.0
23.295	11.0
23.31	11.0
23.325	6.0
23.34	9.0
23.355	14.0
23.37	12.0
23.384	14.0
23.399	4.0
23.414	10.0
23.429	10.0
23.444	12.0
23.459	0.0
23.474	8.0
23.489	12.0
23.504	11.0
23.519	9.0
23.534	10.0
23.549	9.0
23.564	19.0
23.579	12.0
23.594	7.0
23.609	8.0
23.624	12.0
23.639	14.0
23.654	9.0
23.668	15.0
23.683	13.0
23.698	16.0
23.713	16.0
23.728	7.0
23.743	16.0
23.758	18.0
23.773	7.0
23.788	15.0
23.803	16.0
23.818	18.0
23.833	20.0
23.848	17.0
23.862	14.0
23.877	18.0
23.892	16.0
23.907	22.0
23.922	13.0
23.937	23.0
23.952	18.0
23.967	32.0
23.982	32.0
23.997	32.0
24.011	30.0
24.026	43.0
24.041	45.0
24.056	54.0
24.071	44.0
24.086	50.0
24.101	48.0
24.116	53.0
24.131	50.0
24.145	37.0
24.16	42.0
24.175	37.0
24.19	47.0
24.205	34.0
24.22	24.0
24.235	39.0
24.249	31.0
24.264	31.0
24.279	21.0
24.294	25.0
24.309	16.0
24.324	11.0
24.338	19.0
24.353	19.0
24.368	22.0
24.383	7.0
24.398	13.0
24.413	8.0
24.428	9.0
24.442	11.0
24.457	12.0
24.472	13.0
24.487	10.0
24.502	14.0
24.516	16.0
24.531	9.0
24.546	8.0
24.561	12.0
24.576	12.0
24.591	19.0
24.605	14.0
24.62	11.0
24.635	14.0
24.65	9.0
24.665	10.0
24.679	12.0
24.694	11.0
24.709	13.0
24.724	10.0
24.739	15.0
24.753	9.0
24.768	11.0
24.783	12.0
24.798	12.0
24.813	6.0
24.827	7.0
24.842	13.0
24.857	14.0
24.872	7.0
24.886	9.0
24.901	15.0
24.916	8.0
24.931	4.0
24.946	11.0
24.96	8.0
24.975	13.0
24.99	12.0
25.005	12.0
25.019	7.0
25.034	11.0
25.049	14.0
25.064	10.0
25.078	10.0
25.093	6.0
25.108	12.0
25.123	13.0
25.138	9.0
25.152	11.0
25.167	8.0
25.182	13.0
25.197	11.0
25.211	15.0
25.226	10.0
25.241	7.0
25.256	9.0
25.27	13.0
25.285	10.0
25.3	8.0
25.315	10.0
25.329	16.0
25.344	10.0
25.359	15.0
25.374	6.0
25.388	8.0
25.403	12.0
25.418	12.0
25.433	11.0
25.447	10.0
25.462	6.0
25.477	2.0
25.492	10.0
25.506	8.0
25.521	7.0
25.536	3.0
25.55	16.0
25.565	3.0
25.58	7.0
25.595	9.0
25.609	6.0
25.624	6.0
25.639	9.0
25.654	7.0
25.668	6.0
25.683	11.0
25.698	8.0
25.713	11.0
25.727	5.0
25.742	7.0
25.757	9.0
25.772	8.0
25.786	8.0
25.801	5.0
25.816	6.0
25.83	11.0
25.845	11.0
25.86	13.0
25.875	4.0
25.889	9.0
25.904	12.0
25.919	11.0
25.934	5.0
25.948	10.0
25.963	11.0
25.978	8.0
25.992	10.0
26.007	9.0
26.022	4.0
26.037	11.0
26.051	10.0
26.066	7.0
26.081	10.0
26.096	9.0
26.11	7.0
26.125	8.0
26.14	10.0
26.155	8.0
26.169	7.0
26.184	9.0
26.199	8.0
26.213	10.0
26.228	14.0
26.243	11.0
26.258	9.0
26.272	13.0
26.287	14.0
26.302	6.0
26.317	8.0
26.331	12.0
26.346	11.0
26.361	10.0
26.376	6.0
26.39	10.0
26.405	15.0
26.42	8.0
26.434	9.0
26.449	8.0
26.464	9.0
26.479	13.0
26.493	8.0
26.508	16.0
26.523	10.0
26.538	8.0
26.552	15.0
26.567	9.0
26.582	10.0
26.597	6.0
26.611	4.0
26.626	6.0
26.641	12.0
26.656	8.0
26.67	8.0
26.685	9.0
26.7	8.0
26.715	12.0
26.729	13.0
26.744	12.0
26.759	6.0
26.773	9.0
26.788	9.0
26.803	16.0
26.818	13.0
26.832	11.0
26.847	11.0
26.862	12.0
26.877	14.0
26.891	10.0
26.906	7.0
26.921	8.0
26.936	11.0
26.95	9.0
26.965	7.0
26.98	7.0
26.995	12.0
27.01	5.0
27.024	14.0
27.039	7.0
27.054	15.0
27.069	8.0
27.083	5.0
27.098	12.0
27.113	9.0
27.128	8.0
27.142	10.0
27.157	14.0
27.172	11.0
27.187	8.0
27.201	10.0
27.216	13.0
27.231	15.0
27.246	15.0
27.261	10.0
27.275	10.0
27.29	9.0
27.305	9.0
27.32	8.0
27.334	13.0
27.349	5.0
27.364	11.0
27.379	11.0
27.394	7.0
27.408	13.0
27.423	11.0
27.438	16.0
27.453	13.0
27.467	9.0
27.482	15.0
27.497	10.0
27.512	9.0
27.527	12.0
27.541	11.0
27.556	10.0
27.571	7.0
27.586	10.0
27.601	9.0
27.615	11.0
27.63	5.0
27.645	4.0
27.66	8.0
27.675	12.0
27.689	14.0
27.704	16.0
27.719	16.0
27.734	12.0
27.749	20.0
27.763	17.0
27.778	20.0
27.793	12.0
27.808	25.0
27.823	14.0
27.838	24.0
27.852	18.0
27.867	30.0
27.882	27.0
27.897	23.0
27.912	24.0
27.926	31.0
27.941	22.0
27.956	21.0
27.971	16.0
27.986	18.0
28.001	14.0
28.015	18.0
28.03	17.0
28.045	14.0
28.06	21.0
28.075	15.0
28.09	9.0
28.105	20.0
28.119	15.0
28.134	11.0
28.149	18.0
28.164	9.0
28.179	7.0
28.194	16.0
28.208	8.0
28.223	14.0
28.238	9.0
28.253	17.0
28.268	8.0
28.283	14.0
28.298	11.0
28.312	14.0
28.327	9.0
28.342	19.0
28.357	10.0
28.372	9.0
28.387	16.0
28.402	10.0
28.417	6.0
28.431	10.0
28.446	5.0
28.461	10.0
28.476	16.0
28.491	11.0
28.506	13.0
28.521	7.0
28.536	13.0
28.55	7.0
28.565	14.0
28.58	13.0
28.595	10.0
28.61	9.0
28.625	12.0
28.64	11.0
28.655	19.0
28.669	11.0
28.684	9.0
28.699	8.0
28.714	7.0
28.729	17.0
28.744	10.0
28.759	2.0
28.774	8.0
28.788	13.0
28.803	10.0
28.818	5.0
28.833	7.0
28.848	16.0
28.863	15.0
28.878	12.0
28.893	10.0
28.908	10.0
28.922	10.0
28.937	18.0
28.952	16.0
28.967	13.0
28.982	9.0
28.997	13.0
29.012	18.0
29.027	6.0
29.041	14.0
29.056	7.0
29.071	14.0
29.086	12.0
29.101	13.0
29.116	6.0
29.131	9.0
29.146	7.0
29.16	13.0
29.175	18.0
29.19	16.0
29.205	11.0
29.22	13.0
29.235	14.0
29.25	13.0
29.265	13.0
29.279	10.0
29.294	10.0
29.309	9.0
29.324	19.0
29.339	10.0
29.354	12.0
29.369	13.0
29.384	10.0
29.398	13.0
29.413	9.0
29.428	25.0
29.443	12.0
29.458	14.0
29.473	20.0
29.488	30.0
29.502	23.0
29.517	35.0
29.532	39.0
29.547	53.0
29.562	39.0
29.577	40.0
29.592	58.0
29.606	49.0
29.621	43.0
29.636	47.0
29.651	50.0
29.666	52.0
29.681	35.0
29.695	36.0
29.71	34.0
29.725	36.0
29.74	29.0
29.755	43.0
29.77	41.0
29.784	26.0
29.799	32.0
29.814	24.0
29.829	25.0
29.844	38.0
29.859	18.0
29.873	28.0
29.888	16.0
29.903	14.0
29.918	12.0
29.933	14.0
29.947	9.0
29.962	10.0
29.977	14.0
29.992	18.0
30.007	18.0
30.021	12.0
30.036	15.0
30.051	8.0
30.066	21.0
30.081	10.0
30.095	13.0
30.11	12.0
30.125	13.0
30.14	10.0
30.155	13.0
30.169	17.0
30.184	11.0
30.199	13.0
30.214	10.0
30.228	10.0
30.243	7.0
30.258	6.0
30.273	14.0
30.288	7.0
30.302	6.0
30.317	10.0
30.332	11.0
30.347	10.0
30.361	10.0
30.376	10.0
30.391	6.0
30.406	10.0
30.42	14.0
30.435	18.0
30.45	13.0
30.465	9.0
30.479	18.0
30.494	13.0
30.509	14.0
30.524	7.0
30.538	10.0
30.553	11.0
30.568	14.0
30.583	7.0
30.597	8.0
30.612	17.0
30.627	16.0
30.641	10.0
30.656	18.0
30.671	7.0
30.686	8.0
30.7	8.0
30.715	22.0
30.73	11.0
30.745	13.0
30.759	14.0
30.774	7.0
30.789	9.0
30.803	11.0
30.818	17.0
30.833	7.0
30.848	10.0
30.862	16.0
30.877	17.0
30.892	10.0
30.906	9.0
30.921	9.0
30.936	5.0
30.951	13.0
30.965	12.0
30.98	16.0
30.995	15.0
31.009	9.0
31.024	21.0
31.039	16.0
31.053	12.0
31.068	6.0
31.083	16.0
31.098	16.0
31.112	21.0
31.127	18.0
31.142	31.0
31.156	18.0
31.171	29.0
31.186	23.0
31.2	25.0
31.215	30.0
31.23	32.0
31.245	48.0
31.259	37.0
31.274	35.0
31.289	31.0
31.303	44.0
31.318	34.0
31.333	37.0
31.347	27.0
31.362	16.0
31.377	28.0
31.392	30.0
31.406	32.0
31.421	32.0
31.436	29.0
31.45	31.0
31.465	23.0
31.48	27.0
31.494	16.0
31.509	14.0
31.524	17.0
31.538	19.0
31.553	9.0
31.568	12.0
31.583	14.0
31.597	16.0
31.612	12.0
31.627	15.0
31.641	11.0
31.656	13.0
31.671	10.0
31.685	12.0
31.7	10.0
31.715	5.0
31.729	11.0
31.744	15.0
31.759	8.0
31.774	9.0
31.788	12.0
31.803	11.0
31.818	9.0
31.832	9.0
31.847	11.0
31.862	9.0
31.876	10.0
31.891	7.0
31.906	9.0
31.92	19.0
31.935	15.0
31.95	14.0
31.965	12.0
31.979	15.0
31.994	7.0
32.009	13.0
32.023	11.0
32.038	8.0
32.053	9.0
32.067	8.0
32.082	6.0
32.097	7.0
32.112	11.0
32.126	12.0
32.141	10.0
32.156	11.0
32.17	12.0
32.185	6.0
32.2	6.0
32.214	15.0
32.229	14.0
32.244	10.0
32.259	13.0
32.273	16.0
32.288	15.0
32.303	10.0
32.317	8.0
32.332	11.0
32.347	8.0
32.362	13.0
32.376	11.0
32.391	12.0
32.406	8.0
32.42	11.0
32.435	2.0
32.45	12.0
32.465	9.0
32.479	7.0
32.494	11.0
32.509	19.0
32.523	6.0
32.538	12.0
32.553	4.0
32.568	9.0
32.582	9.0
32.597	8.0
32.612	17.0
32.627	16.0
32.641	7.0
32.656	17.0
32.671	15.0
32.685	17.0
32.7	19.0
32.715	15.0
32.73	23.0
32.744	19.0
32.759	27.0
32.774	29.0
32.788	35.0
32.803	26.0
32.818	26.0
32.833	30.0
32.847	23.0
32.862	27.0
32.877	32.0
32.892	24.0
32.906	25.0
32.921	27.0
32.936	23.0
32.951	28.0
32.965	21.0
32.98	13.0
32.995	11.0
33.009	23.0
33.024	17.0
33.039	11.0
33.054	11.0
33.068	11.0
33.083	10.0
33.098	15.0
33.113	18.0
33.127	7.0
33.142	12.0
33.157	11.0
33.172	15.0
33.186	9.0
33.201	14.0
33.216	4.0
33.231	14.0
33.245	11.0
33.26	9.0
33.275	16.0
33.29	12.0
33.304	9.0
33.319	12.0
33.334	10.0
33.349	8.0
33.363	8.0
33.378	6.0
33.393	13.0
33.408	14.0
33.422	5.0
33.437	5.0
33.452	3.0
33.467	11.0
33.481	6.0
33.496	11.0
33.511	8.0
33.526	11.0
33.54	6.0
33.555	6.0
33.57	8.0
33.585	14.0
33.599	13.0
33.614	10.0
33.629	4.0
33.644	9.0
33.658	8.0
33.673	6.0
33.688	7.0
33.703	10.0
33.718	7.0
33.732	11.0
33.747	8.0
33.762	7.0
33.777	15.0
33.791	10.0
33.806	10.0
33.821	9.0
33.836	11.0
33.85	10.0
33.865	6.0
33.88	8.0
33.895	11.0
33.91	11.0
33.924	14.0
33.939	10.0
33.954	9.0
33.969	11.0
33.983	12.0
33.998	6.0
34.013	9.0
34.028	18.0
34.042	11.0
34.057	7.0
34.072	11.0
34.087	17.0
34.102	9.0
34.116	13.0
34.131	12.0
34.146	10.0
34.161	13.0
34.175	18.0
34.19	10.0
34.205	12.0
34.22	14.0
34.235	9.0
34.249	15.0
34.264	10.0
34.279	13.0
34.294	17.0
34.309	9.0
34.323	15.0
34.338	11.0
34.353	10.0
34.368	14.0
34.382	7.0
34.397	6.0
34.412	19.0
34.427	9.0
34.442	17.0
34.456	10.0
34.471	6.0
34.486	10.0
34.501	17.0
34.516	18.0
34.53	15.0
34.545	11.0
34.56	7.0
34.575	8.0
34.59	9.0
34.604	7.0
34.619	13.0
34.634	8.0
34.649	12.0
34.664	10.0
34.678	10.0
34.693	7.0
34.708	6.0
34.723	9.0
34.738	5.0
34.752	3.0
34.767	12.0
34.782	4.0
34.797	15.0
34.812	11.0
34.826	7.0
34.841	8.0
34.856	4.0
34.871	8.0
34.886	10.0
34.9	7.0
34.915	6.0
34.93	9.0
34.945	6.0
34.96	5.0
34.974	12.0
34.989	3.0
35.004	6.0
35.019	6.0
35.034	6.0
35.048	11.0
35.063	9.0
35.078	9.0
35.093	10.0
35.108	15.0
35.122	8.0
35.137	14.0
35.152	12.0
35.167	7.0
35.182	11.0
35.196	12.0
35.211	5.0
35.226	7.0
35.241	8.0
35.256	11.0
35.27	11.0
35.285	5.0
35.3	10.0
35.315	13.0
35.33	11.0
35.344	8.0
35.359	8.0
35.374	8.0
35.389	6.0
35.404	13.0
35.418	8.0
35.433	8.0
35.448	11.0
35.463	8.0
35.478	8.0
35.493	8.0
35.507	5.0
35.522	6.0
35.537	14.0
35.552	8.0
35.567	7.0
35.581	10.0
35.596	5.0
35.611	10.0
35.626	11.0
35.641	9.0
35.655	5.0
35.67	22.0
35.685	19.0
35.7	12.0
35.715	17.0
35.729	21.0
35.744	9.0
35.759	17.0
35.774	16.0
35.789	17.0
35.804	19.0
35.818	23.0
35.833	21.0
35.848	17.0
35.863	14.0
35.878	14.0
35.892	16.0
35.907	22.0
35.922	15.0
35.937	7.0
35.952	11.0
35.966	11.0
35.981	17.0
35.996	15.0
36.011	17.0
36.026	19.0
36.04	6.0
36.055	13.0
36.07	9.0
36.085	5.0
36.1	11.0
36.114	14.0
36.129	3.0
36.144	14.0
36.159	9.0
36.174	9.0
36.189	8.0
36.203	6.0
36.218	2.0
36.233	15.0
36.248	15.0
36.263	9.0
36.277	7.0
36.292	7.0
36.307	10.0
36.322	10.0
36.337	13.0
36.351	4.0
36.366	9.0
36.381	5.0
36.396	11.0
36.411	8.0
36.426	9.0
36.44	13.0
36.455	8.0
36.47	9.0
36.485	7.0
36.5	12.0
36.514	6.0
36.529	5.0
36.544	7.0
36.559	8.0
36.574	8.0
36.589	8.0
36.603	8.0
36.618	11.0
36.633	4.0
36.648	11.0
36.663	7.0
36.677	6.0
36.692	6.0
36.707	11.0
36.722	10.0
36.737	4.0
36.752	9.0
36.766	8.0
36.781	7.0
36.796	5.0
36.811	9.0
36.826	7.0
36.841	8.0
36.855	11.0
36.87	9.0
36.885	4.0
36.9	6.0
36.915	12.0
36.93	10.0
36.944	12.0
36.959	9.0
36.974	8.0
36.989	4.0
37.004	6.0
37.019	17.0
37.033	10.0
37.048	11.0
37.063	14.0
37.078	13.0
37.093	16.0
37.108	12.0
37.123	21.0
37.137	25.0
37.152	30.0
37.167	34.0
37.182	33.0
37.197	26.0
37.212	23.0
37.226	19.0
37.241	24.0
37.256	23.0
37.271	15.0
37.286	22.0
37.301	14.0
37.316	19.0
37.331	15.0
37.345	11.0
37.36	25.0
37.375	24.0
37.39	24.0
37.405	17.0
37.42	19.0
37.435	14.0
37.45	19.0
37.464	19.0
37.479	17.0
37.494	13.0
37.509	11.0
37.524	6.0
37.539	6.0
37.554	11.0
37.569	5.0
37.583	6.0
37.598	8.0
37.613	9.0
37.628	9.0
37.643	6.0
37.658	7.0
37.673	13.0
37.688	7.0
37.703	3.0
37.718	5.0
37.733	10.0
37.747	7.0
37.762	15.0
37.777	7.0
37.792	5.0
37.807	8.0
37.822	9.0
37.837	4.0
37.852	9.0
37.867	6.0
37.882	3.0
37.897	10.0
37.912	9.0
37.927	8.0
37.941	5.0
37.956	9.0
37.971	8.0
37.986	3.0
38.001	4.0
38.016	6.0
38.031	7.0
38.046	8.0
38.061	6.0
38.076	10.0
38.091	8.0
38.106	4.0
38.121	8.0
38.136	4.0
38.151	8.0
38.166	7.0
38.181	6.0
38.196	6.0
38.211	2.0
38.226	12.0
38.241	6.0
38.256	4.0
38.271	5.0
38.285	8.0
38.3	10.0
38.315	5.0
38.33	9.0
38.345	7.0
38.36	8.0
38.375	8.0
38.39	11.0
38.405	6.0
38.42	3.0
38.435	5.0
38.45	4.0
38.465	10.0
38.48	8.0
38.495	10.0
38.51	6.0
38.525	11.0
38.54	7.0
38.555	3.0
38.57	9.0
38.585	4.0
38.6	8.0
38.615	7.0
38.63	5.0
38.645	7.0
38.66	7.0
38.675	3.0
38.69	9.0
38.705	8.0
38.72	9.0
38.735	7.0
38.75	4.0
38.765	6.0
38.78	7.0
38.795	7.0
38.81	11.0
38.825	3.0
38.84	6.0
38.855	11.0
38.87	8.0
38.885	6.0
38.9	8.0
38.915	7.0
38.93	4.0
38.945	7.0
38.96	5.0
38.975	4.0
38.99	5.0
39.005	11.0
39.02	6.0
39.035	9.0
39.05	8.0
39.065	6.0
39.08	3.0
39.095	5.0
39.11	3.0
39.125	6.0
39.14	3.0
39.155	2.0
39.17	11.0
39.185	7.0
39.2	4.0
39.215	5.0
39.23	2.0
39.245	4.0
39.26	3.0
39.275	12.0
39.29	5.0
39.305	10.0
39.32	4.0
39.335	9.0
39.35	6.0
39.365	5.0
39.38	9.0
39.395	7.0
39.409	2.0
39.424	4.0
39.439	7.0
39.454	4.0
39.469	2.0
39.484	5.0
39.499	6.0
39.514	10.0
39.529	6.0
39.544	7.0
39.559	4.0
39.574	1.0
39.589	4.0
39.604	5.0
39.619	5.0
39.634	6.0
39.649	3.0
39.664	8.0
39.678	4.0
39.693	9.0
39.708	9.0
39.723	9.0
39.738	5.0
39.753	7.0
39.768	8.0
39.783	9.0
39.798	5.0
39.813	7.0
39.827	7.0
39.842	11.0
39.857	6.0
39.872	8.0
39.887	14.0
39.902	7.0
39.917	7.0
39.932	7.0
39.947	10.0
39.961	5.0
39.976	10.0
39.991	5.0
40.006	7.0
40.021	6.0
40.036	4.0
40.051	11.0
40.065	7.0
40.08	10.0
40.095	6.0
40.11	10.0
40.125	9.0
40.14	10.0
40.154	4.0
40.169	2.0
40.184	8.0
40.199	5.0
40.214	5.0
40.228	6.0
40.243	5.0
40.258	6.0
40.273	3.0
40.288	6.0
40.302	5.0
40.317	6.0
40.332	5.0
40.347	5.0
40.362	2.0
40.376	7.0
40.391	4.0
40.406	3.0
40.421	10.0
40.436	4.0
40.45	3.0
40.465	10.0
40.48	6.0
40.495	3.0
40.509	7.0
40.524	4.0
40.539	5.0
40.554	6.0
40.568	10.0
40.583	2.0
40.598	7.0
40.613	5.0
40.627	11.0
40.642	11.0
40.657	2.0
40.672	2.0
40.686	4.0
40.701	3.0
40.716	7.0
40.731	5.0
40.745	10.0
40.76	10.0
40.775	6.0
40.79	11.0
40.804	3.0
40.819	9.0
40.834	4.0
40.849	6.0
40.863	6.0
40.878	6.0
40.893	3.0
40.907	7.0
40.922	14.0
40.937	6.0
40.952	5.0
40.966	8.0
40.981	5.0
40.996	14.0
41.011	13.0
41.025	9.0
41.04	13.0
41.055	7.0
41.069	14.0
41.084	11.0
41.099	20.0
41.114	18.0
41.128	22.0
41.143	18.0
41.158	22.0
41.173	18.0
41.187	23.0
41.202	15.0
41.217	17.0
41.231	11.0
41.246	12.0
41.261	10.0
41.276	9.0
41.29	12.0
41.305	9.0
41.32	10.0
41.335	6.0
41.349	14.0
41.364	12.0
41.379	12.0
41.393	19.0
41.408	5.0
41.423	15.0
41.438	14.0
41.452	12.0
41.467	14.0
41.482	13.0
41.497	11.0
41.511	16.0
41.526	6.0
41.541	2.0
41.556	8.0
41.57	6.0
41.585	8.0
41.6	4.0
41.615	2.0
41.629	7.0
41.644	7.0
41.659	8.0
41.674	6.0
41.688	9.0
41.703	9.0
41.718	10.0
41.733	3.0
41.747	6.0
41.762	5.0
41.777	5.0
41.792	7.0
41.806	4.0
41.821	6.0
41.836	7.0
41.851	8.0
41.866	5.0
41.88	6.0
41.895	5.0
41.91	9.0
41.925	8.0
41.939	5.0
41.954	7.0
41.969	5.0
41.984	6.0
41.999	6.0
42.013	8.0
42.028	6.0
42.043	7.0
42.058	4.0
42.073	3.0
42.088	7.0
42.102	9.0
42.117	6.0
42.132	7.0
42.147	3.0
42.162	11.0
42.176	5.0
42.191	4.0
42.206	6.0
42.221	8.0
42.236	7.0
42.251	8.0
42.266	12.0
42.28	7.0
42.295	11.0
42.31	8.0
42.325	13.0
42.34	18.0
42.355	18.0
42.369	12.0
42.384	17.0
42.399	16.0
42.414	19.0
42.429	12.0
42.444	16.0
42.459	12.0
42.474	10.0
42.488	10.0
42.503	6.0
42.518	11.0
42.533	9.0
42.548	10.0
42.563	11.0
42.578	11.0
42.593	15.0
42.608	10.0
42.622	22.0
42.637	10.0
42.652	13.0
42.667	11.0
42.682	7.0
42.697	7.0
42.712	11.0
42.727	3.0
42.742	14.0
42.757	9.0
42.772	6.0
42.786	8.0
42.801	4.0
42.816	7.0
42.831	5.0
42.846	10.0
42.861	5.0
42.876	10.0
42.891	4.0
42.906	6.0
42.921	6.0
42.936	6.0
42.951	5.0
42.966	2.0
42.981	2.0
42.996	3.0
43.011	8.0
43.025	5.0
43.04	3.0
43.055	5.0
43.07	5.0
43.085	8.0
43.1	1.0
43.115	3.0
43.13	1.0
43.145	6.0
43.16	6.0
43.175	6.0
43.19	13.0
43.205	6.0
43.22	8.0
43.235	2.0
43.25	5.0
43.265	4.0
43.28	2.0
43.295	5.0
43.31	7.0
43.325	11.0
43.34	5.0
43.355	4.0
43.37	9.0
43.385	5.0
43.4	2.0
43.415	4.0
43.43	8.0
43.445	10.0
43.46	6.0
43.475	8.0
43.49	6.0
43.505	4.0
43.52	8.0
43.535	10.0
43.55	8.0
43.565	11.0
43.58	8.0
43.595	3.0
43.61	8.0
43.625	12.0
43.64	8.0
43.655	6.0
43.67	13.0
43.685	4.0
43.7	8.0
43.715	9.0
43.73	6.0
43.745	9.0
43.76	9.0
43.775	5.0
43.79	4.0
43.805	4.0
43.82	9.0
43.835	12.0
43.85	9.0
43.865	8.0
43.88	5.0
43.895	5.0
43.91	8.0
43.925	8.0
43.94	4.0
43.955	5.0
43.97	6.0
43.985	5.0
44.0	2.0
44.015	7.0
44.03	9.0
44.045	5.0
44.061	6.0
44.076	4.0
44.091	4.0
44.106	8.0
44.121	8.0
44.136	7.0
44.151	4.0
44.166	2.0
44.181	6.0
44.196	4.0
44.211	8.0
44.226	5.0
44.241	7.0
44.256	7.0
44.271	7.0
44.286	7.0
44.301	4.0
44.316	7.0
44.331	6.0
44.346	6.0
44.361	5.0
44.377	8.0
44.392	4.0
44.407	6.0
44.422	4.0
44.437	8.0
44.452	5.0
44.467	3.0
44.482	3.0
44.497	7.0
44.512	5.0
44.527	4.0
44.542	2.0
44.557	8.0
44.572	6.0
44.587	6.0
44.602	5.0
44.617	8.0
44.632	9.0
44.647	7.0
44.663	11.0
44.678	5.0
44.693	8.0
44.708	7.0
44.723	5.0
44.738	6.0
44.753	6.0
44.768	6.0
44.783	13.0
44.798	10.0
44.813	10.0
44.828	12.0
44.843	11.0
44.858	8.0
44.873	7.0
44.888	9.0
44.903	4.0
44.918	10.0
44.933	7.0
44.948	7.0
44.964	6.0
44.979	8.0
44.994	6.0
45.009	5.0
45.024	8.0
45.039	6.0
45.054	9.0
45.069	13.0
45.084	15.0
45.099	10.0
45.114	10.0
45.129	6.0
45.144	6.0
45.159	4.0
45.174	8.0
45.189	8.0
45.204	2.0
45.219	9.0
45.234	4.0
45.249	6.0
45.264	3.0
45.279	4.0
45.294	5.0
45.309	6.0
45.324	5.0
45.339	8.0
45.354	6.0
45.369	5.0
45.384	2.0
45.399	9.0
45.414	9.0
45.429	6.0
45.444	7.0
45.459	4.0
45.474	9.0
45.489	6.0
45.504	11.0
45.519	11.0
45.534	8.0
45.549	5.0
45.564	4.0
45.579	4.0
45.594	4.0
45.609	7.0
45.624	8.0
45.639	4.0
45.654	7.0
45.669	3.0
45.684	3.0
45.699	4.0
45.714	4.0
45.729	7.0
45.744	3.0
45.759	8.0
45.774	6.0
45.789	9.0
45.804	5.0
45.819	14.0
45.834	8.0
45.849	7.0
45.864	9.0
45.879	16.0
45.894	12.0
45.909	11.0
45.924	13.0
45.939	9.0
45.954	12.0
45.969	23.0
45.984	21.0
45.998	16.0
46.013	17.0
46.028	15.0
46.043	10.0
46.058	4.0
46.073	12.0
46.088	6.0
46.103	12.0
46.118	5.0
46.133	11.0
46.148	6.0
46.163	6.0
46.178	7.0
46.192	13.0
46.207	9.0
46.222	10.0
46.237	8.0
46.252	11.0
46.267	8.0
46.282	6.0
46.297	13.0
46.312	8.0
46.327	14.0
46.341	7.0
46.356	8.0
46.371	9.0
46.386	4.0
46.401	9.0
46.416	7.0
46.431	2.0
46.446	6.0
46.46	5.0
46.475	7.0
46.49	6.0
46.505	5.0
46.52	2.0
46.535	7.0
46.55	6.0
46.564	4.0
46.579	4.0
46.594	2.0
46.609	6.0
46.624	5.0
46.639	5.0
46.654	6.0
46.668	3.0
46.683	3.0
46.698	7.0
46.713	6.0
46.728	10.0
46.743	3.0
46.758	3.0
46.772	3.0
46.787	5.0
46.802	8.0
46.817	7.0
46.832	4.0
46.847	1.0
46.861	4.0
46.876	4.0
46.891	4.0
46.906	5.0
46.921	3.0
46.936	4.0
46.95	2.0
46.965	6.0
46.98	3.0
46.995	6.0
47.01	5.0
47.025	7.0
47.039	7.0
47.054	6.0
47.069	8.0
47.084	8.0
47.099	8.0
47.113	9.0
47.128	7.0
47.143	17.0
47.158	5.0
47.173	8.0
47.188	9.0
47.202	13.0
47.217	7.0
47.232	6.0
47.247	7.0
47.262	5.0
47.277	4.0
47.291	5.0
47.306	5.0
47.321	9.0
47.336	5.0
47.351	13.0
47.365	8.0
47.38	5.0
47.395	9.0
47.41	3.0
47.425	10.0
47.44	6.0
47.454	6.0
47.469	6.0
47.484	7.0
47.499	7.0
47.514	9.0
47.528	6.0
47.543	6.0
47.558	5.0
47.573	4.0
47.588	6.0
47.603	10.0
47.617	6.0
47.632	4.0
47.647	4.0
47.662	7.0
47.677	4.0
47.691	4.0
47.706	7.0
47.721	3.0
47.736	5.0
47.751	4.0
47.766	2.0
47.78	2.0
47.795	5.0
47.81	6.0
47.825	6.0
47.84	4.0
47.855	2.0
47.869	7.0
47.884	4.0
47.899	4.0
47.914	9.0
47.929	5.0
47.944	7.0
47.958	5.0
47.973	4.0
47.988	4.0
48.003	4.0
48.018	1.0
48.033	2.0
48.047	3.0
48.062	6.0
48.077	6.0
48.092	5.0
48.107	6.0
48.122	7.0
48.137	2.0
48.151	3.0
48.166	2.0
48.181	4.0
48.196	2.0
48.211	10.0
48.226	5.0
48.241	3.0
48.255	4.0
48.27	3.0
48.285	5.0
48.3	2.0
48.315	5.0
48.33	3.0
48.345	7.0
48.359	4.0
48.374	6.0
48.389	8.0
48.404	7.0
48.419	7.0
48.434	6.0
48.449	3.0
48.464	4.0
48.478	3.0
48.493	5.0
48.508	7.0
48.523	4.0
48.538	8.0
48.553	4.0
48.568	7.0
48.583	4.0
48.597	3.0
48.612	4.0
48.627	3.0
48.642	7.0
48.657	2.0
48.672	4.0
48.687	2.0
48.702	3.0
48.717	2.0
48.731	5.0
48.746	3.0
48.761	7.0
48.776	5.0
48.791	3.0
48.806	7.0
48.821	11.0
48.836	2.0
48.851	6.0
48.866	4.0
48.88	4.0
48.895	4.0
48.91	4.0
48.925	7.0
48.94	7.0
48.955	5.0
48.97	4.0
48.985	6.0
49.0	2.0
49.015	6.0
49.03	5.0
49.044	9.0
49.059	2.0
49.074	5.0
49.089	7.0
49.104	9.0
49.119	5.0
49.134	1.0
49.149	8.0
49.164	4.0
49.179	4.0
49.194	4.0
49.209	8.0
49.224	4.0
49.238	5.0
49.253	7.0
49.268	2.0
49.283	5.0
49.298	6.0
49.313	4.0
49.328	3.0
49.343	10.0
49.358	10.0
49.373	4.0
49.388	3.0
49.403	7.0
49.418	12.0
49.433	2.0
49.448	5.0
49.463	5.0
49.478	6.0
49.492	3.0
49.507	6.0
49.522	0.0
49.537	4.0
49.552	3.0
49.567	3.0
49.582	5.0
49.597	6.0
49.612	7.0
49.627	9.0
49.642	4.0
49.657	9.0
49.672	3.0
49.687	6.0
49.702	4.0
49.717	4.0
49.732	9.0
49.747	4.0
49.762	10.0
49.777	4.0
49.792	4.0
49.807	7.0
49.822	4.0
49.837	6.0
49.852	5.0
49.867	6.0
49.882	1.0
49.897	7.0
49.912	4.0
49.927	6.0
49.942	3.0
49.957	5.0
49.971	2.0
49.986	5.0
50.001	2.0
50.016	7.0
50.031	4.0
50.046	7.0
50.061	6.0
50.076	2.0
50.091	2.0
50.106	5.0
50.121	4.0
50.136	4.0
50.151	3.0
50.166	6.0
50.181	11.0
50.196	4.0
50.211	5.0
50.226	7.0
50.241	1.0
50.256	7.0
50.271	5.0
50.286	8.0
50.302	4.0
50.317	1.0
50.332	7.0
50.347	2.0
50.362	8.0
50.377	6.0
50.392	6.0
50.407	4.0
50.422	12.0
50.437	6.0
50.452	11.0
50.467	5.0
50.482	9.0
50.497	4.0
50.512	12.0
50.527	7.0
50.542	4.0
50.557	9.0
50.572	8.0
50.587	3.0
50.602	3.0
50.617	9.0
50.632	3.0
50.647	4.0
50.662	9.0
50.677	4.0
50.692	5.0
50.707	3.0
50.722	13.0
50.737	6.0
50.752	7.0
50.767	8.0
50.782	4.0
50.797	7.0
50.812	4.0
50.828	10.0
50.843	6.0
50.858	4.0
50.873	8.0
50.888	10.0
50.903	7.0
50.918	8.0
50.933	4.0
50.948	7.0
50.963	4.0
50.978	7.0
50.993	4.0
51.008	7.0
51.023	3.0
51.038	8.0
51.053	2.0
51.068	5.0
51.083	11.0
51.098	2.0
51.114	7.0
51.129	5.0
51.144	8.0
51.159	4.0
51.174	2.0
51.189	7.0
51.204	4.0
51.219	2.0
51.234	7.0
51.249	8.0
51.264	4.0
51.279	9.0
51.294	5.0
51.309	10.0
51.324	5.0
51.34	0.0
51.355	7.0
51.37	8.0
51.385	4.0
51.4	10.0
51.415	7.0
51.43	13.0
51.445	12.0
51.46	20.0
51.475	15.0
51.49	10.0
51.505	17.0
51.52	17.0
51.535	11.0
51.551	16.0
51.566	23.0
51.581	9.0
51.596	12.0
51.611	5.0
51.626	10.0
51.641	9.0
51.656	7.0
51.671	6.0
51.686	5.0
51.701	6.0
51.716	6.0
51.732	1.0
51.747	5.0
51.762	9.0
51.777	5.0
51.792	11.0
51.807	9.0
51.822	6.0
51.837	10.0
51.852	14.0
51.867	8.0
51.882	12.0
51.898	10.0
51.913	11.0
51.928	5.0
51.943	7.0
51.958	9.0
51.973	5.0
51.988	7.0
52.003	3.0
52.018	3.0
52.033	10.0
52.048	3.0
52.064	6.0
52.079	5.0
52.094	3.0
52.109	2.0
52.124	6.0
52.139	5.0
52.154	5.0
52.169	3.0
52.184	4.0
52.199	7.0
52.215	4.0
52.23	2.0
52.245	8.0
52.26	6.0
52.275	3.0
52.29	5.0
52.305	2.0
52.32	4.0
52.335	4.0
52.35	1.0
52.366	3.0
52.381	1.0
52.396	4.0
52.411	6.0
52.426	4.0
52.441	5.0
52.456	11.0
52.471	5.0
52.486	7.0
52.502	6.0
52.517	12.0
52.532	9.0
52.547	5.0
52.562	8.0
52.577	14.0
52.592	9.0
52.607	9.0
52.622	10.0
52.637	8.0
52.653	11.0
52.668	5.0
52.683	9.0
52.698	10.0
52.713	2.0
52.728	5.0
52.743	5.0
52.758	4.0
52.774	4.0
52.789	10.0
52.804	5.0
52.819	5.0
52.834	6.0
52.849	6.0
52.864	14.0
52.879	7.0
52.894	4.0
52.91	8.0
52.925	10.0
52.94	9.0
52.955	7.0
52.97	6.0
52.985	12.0
53.0	3.0
53.015	10.0
53.031	5.0
53.046	5.0
53.061	3.0
53.076	3.0
53.091	4.0
53.106	5.0
53.121	9.0
53.136	5.0
53.152	2.0
53.167	4.0
53.182	7.0
53.197	2.0
53.212	7.0
53.227	8.0
53.242	5.0
53.257	5.0
53.273	4.0
53.288	11.0
53.303	7.0
53.318	6.0
53.333	5.0
53.348	5.0
53.363	0.0
53.379	8.0
53.394	2.0
53.409	10.0
53.424	5.0
53.439	2.0
53.454	5.0
53.469	5.0
53.484	2.0
53.5	7.0
53.515	3.0
53.53	6.0
53.545	3.0
53.56	3.0
53.575	4.0
53.59	4.0
53.606	1.0
53.621	3.0
53.636	8.0
53.651	6.0
53.666	2.0
53.681	5.0
53.696	1.0
53.712	6.0
53.727	2.0
53.742	4.0
53.757	6.0
53.772	4.0
53.787	8.0
53.802	3.0
53.818	2.0
53.833	4.0
53.848	6.0
53.863	7.0
53.878	5.0
53.893	4.0
53.909	10.0
53.924	4.0
53.939	6.0
53.954	2.0
53.969	5.0
53.984	4.0
53.999	3.0
54.015	5.0
54.03	7.0
54.045	6.0
54.06	1.0
54.075	6.0
54.09	4.0
54.106	2.0
54.121	2.0
54.136	2.0
54.151	5.0
54.166	4.0
54.181	3.0
54.197	4.0
54.212	6.0
54.227	1.0
54.242	2.0
54.257	3.0
54.272	4.0
54.288	4.0
54.303	4.0
54.318	4.0
54.333	5.0
54.348	4.0
54.363	3.0
54.379	1.0
54.394	7.0
54.409	1.0
54.424	3.0
54.439	6.0
54.454	6.0
54.47	4.0
54.485	7.0
54.5	7.0
54.515	8.0
54.53	10.0
54.545	4.0
54.561	5.0
54.576	7.0
54.591	12.0
54.606	7.0
54.621	10.0
54.636	12.0
54.652	14.0
54.667	14.0
54.682	13.0
54.697	8.0
54.712	16.0
54.727	5.0
54.743	7.0
54.758	7.0
54.773	3.0
54.788	11.0
54.803	4.0
54.819	9.0
54.834	4.0
54.849	2.0
54.864	4.0
54.879	10.0
54.894	11.0
54.91	5.0
54.925	7.0
54.94	5.0
54.955	10.0
54.97	12.0
54.985	11.0
55.001	8.0
55.016	6.0
55.031	9.0
55.046	9.0
55.061	12.0
55.077	5.0
55.092	3.0
55.107	6.0
55.122	6.0
55.137	6.0
55.152	6.0
55.168	5.0
55.183	2.0
55.198	3.0
55.213	3.0
55.228	2.0
55.243	9.0
55.259	5.0
55.274	3.0
55.289	6.0
55.304	4.0
55.319	6.0
55.335	1.0
55.35	2.0
55.365	6.0
55.38	3.0
55.395	7.0
55.41	5.0
55.426	4.0
55.441	5.0
55.456	6.0
55.471	6.0
55.486	5.0
55.501	0.0
55.517	5.0
55.532	6.0
55.547	3.0
55.562	10.0
55.577	5.0
55.592	8.0
55.608	7.0
55.623	6.0
55.638	4.0
55.653	6.0
55.668	3.0
55.683	11.0
55.699	2.0
55.714	7.0
55.729	6.0
55.744	9.0
55.759	4.0
55.774	5.0
55.79	4.0
55.805	4.0
55.82	3.0
55.835	4.0
55.85	7.0
55.865	2.0
55.881	9.0
55.896	7.0
55.911	3.0
55.926	5.0
55.941	4.0
55.956	5.0
55.972	7.0
55.987	8.0
56.002	6.0
56.017	8.0
56.032	6.0
56.047	7.0
56.063	3.0
56.078	5.0
56.093	9.0
56.108	8.0
56.123	3.0
56.138	8.0
56.154	1.0
56.169	4.0
56.184	6.0
56.199	5.0
56.214	7.0
56.229	7.0
56.244	4.0
56.26	6.0
56.275	7.0
56.29	4.0
56.305	4.0
56.32	5.0
56.335	7.0
56.351	3.0
56.366	8.0
56.381	4.0
56.396	1.0
56.411	3.0
56.426	7.0
56.441	3.0
56.457	3.0
56.472	5.0
56.487	7.0
56.502	3.0
56.517	6.0
56.532	5.0
56.547	7.0
56.563	6.0
56.578	7.0
56.593	4.0
56.608	6.0
56.623	7.0
56.638	5.0
56.653	2.0
56.668	2.0
56.684	2.0
56.699	5.0
56.714	5.0
56.729	4.0
56.744	4.0
56.759	3.0
56.774	2.0
56.79	8.0
56.805	2.0
56.82	6.0
56.835	5.0
56.85	7.0
56.865	10.0
56.88	5.0
56.895	4.0
56.911	3.0
56.926	5.0
56.941	2.0
56.956	3.0
56.971	4.0
56.986	3.0
57.001	4.0
57.016	6.0
57.031	1.0
57.047	2.0
57.062	3.0
57.077	4.0
57.092	8.0
57.107	7.0
57.122	5.0
57.137	9.0
57.152	2.0
57.167	6.0
57.183	5.0
57.198	6.0
57.213	4.0
57.228	5.0
57.243	2.0
57.258	2.0
57.273	3.0
57.288	4.0
57.303	3.0
57.318	4.0
57.334	2.0
57.349	5.0
57.364	7.0
57.379	0.0
57.394	5.0
57.409	1.0
57.424	5.0
57.439	2.0
57.454	3.0
57.469	3.0
57.484	2.0
57.5	4.0
57.515	4.0
57.53	6.0
57.545	5.0
57.56	1.0
57.575	3.0
57.59	9.0
57.605	9.0
57.62	4.0
57.635	9.0
57.65	6.0
57.665	3.0
57.68	7.0
57.696	9.0
57.711	4.0
57.726	5.0
57.741	5.0
57.756	4.0
57.771	4.0
57.786	4.0
57.801	3.0
57.816	3.0
57.831	7.0
57.846	2.0
57.861	5.0
57.876	3.0
57.891	7.0
57.906	3.0
57.921	5.0
57.937	6.0
57.952	3.0
57.967	8.0
57.982	3.0
57.997	5.0
58.012	3.0
58.027	3.0
58.042	5.0
58.057	2.0
58.072	3.0
58.087	3.0
58.102	6.0
58.117	3.0
58.132	2.0
58.147	4.0
58.162	3.0
58.177	8.0
58.192	5.0
58.207	4.0
58.222	5.0
58.237	3.0
58.252	6.0
58.267	2.0
58.282	5.0
58.297	6.0
58.312	6.0
58.327	4.0
58.342	5.0
58.357	6.0
58.372	2.0
58.387	7.0
58.402	8.0
58.418	8.0
58.433	4.0
58.448	4.0
58.463	5.0
58.478	5.0
58.493	2.0
58.508	3.0
58.523	4.0
58.538	5.0
58.553	3.0
58.568	6.0
58.583	6.0
58.598	6.0
58.613	7.0
58.628	6.0
58.643	7.0
58.658	11.0
58.673	8.0
58.688	8.0
58.703	8.0
58.718	6.0
58.733	7.0
58.748	6.0
58.763	10.0
58.778	9.0
58.793	2.0
58.808	5.0
58.823	5.0
58.838	8.0
58.853	1.0
58.868	1.0
58.883	3.0
58.898	3.0
58.913	3.0
58.928	5.0
58.942	5.0
58.957	4.0
58.972	3.0
58.987	8.0
59.002	7.0
59.017	6.0
59.032	7.0
59.047	9.0
59.062	6.0
59.077	9.0
59.092	10.0
59.107	7.0
59.122	7.0
59.137	4.0
59.152	10.0
59.167	5.0
59.182	6.0
59.197	3.0
59.212	2.0
59.227	5.0
59.242	10.0
59.257	1.0
59.272	2.0
59.287	3.0
59.302	4.0
59.317	2.0
59.332	9.0
59.347	5.0
59.362	4.0
59.377	10.0
59.392	7.0
59.407	2.0
59.422	6.0
59.437	4.0
59.452	6.0
59.467	5.0
59.482	4.0
59.497	5.0
59.512	3.0
59.527	7.0
59.542	10.0
59.557	8.0
59.572	9.0
59.587	9.0
59.602	11.0
59.617	11.0
59.632	12.0
59.647	8.0
59.661	9.0
59.676	8.0
59.691	6.0
59.706	4.0
59.721	3.0
59.736	6.0
59.751	9.0
59.766	9.0
59.781	8.0
59.796	2.0
59.811	6.0
59.826	4.0
59.841	2.0
59.856	7.0
59.871	6.0
59.886	8.0
59.901	5.0
59.916	9.0
59.931	5.0
59.946	7.0
59.961	5.0
59.976	5.0
59.991	9.0
60.006	7.0
60.021	7.0
60.036	10.0
60.051	5.0
60.066	5.0
60.081	2.0
60.096	5.0
60.111	2.0
60.126	4.0
60.141	4.0
60.156	4.0
60.171	5.0
60.186	5.0
60.201	5.0
60.216	5.0
60.231	7.0
60.246	7.0
60.261	4.0
60.276	2.0
60.291	6.0
60.306	3.0
60.321	3.0
60.336	8.0
60.35	4.0
60.365	2.0
60.38	1.0
60.395	7.0
60.41	4.0
60.425	4.0
60.44	3.0
60.455	6.0
60.47	4.0
60.485	5.0
60.5	7.0
60.515	4.0
60.53	12.0
60.545	6.0
60.56	13.0
60.575	4.0
60.59	9.0
60.605	7.0
60.62	8.0
60.635	5.0
60.65	7.0
60.665	16.0
60.68	3.0
60.695	8.0
60.71	5.0
60.725	2.0
60.74	1.0
60.755	3.0
60.77	5.0
60.785	5.0
60.8	11.0
60.815	3.0
60.83	3.0
60.845	5.0
60.86	3.0
60.875	1.0
60.89	8.0
60.905	10.0
60.92	3.0
60.935	4.0
60.95	7.0
60.965	6.0
60.98	7.0
60.995	9.0
61.01	3.0
61.025	9.0
61.04	5.0
61.055	5.0
61.07	3.0
61.085	4.0
61.1	6.0
61.115	7.0
61.13	5.0
61.145	3.0
61.16	5.0
61.175	1.0
61.191	5.0
61.206	6.0
61.221	6.0
61.236	5.0
61.251	5.0
61.266	4.0
61.281	3.0
61.296	5.0
61.311	4.0
61.326	5.0
61.341	6.0
61.356	3.0
61.371	3.0
61.386	4.0
61.401	5.0
61.416	5.0
61.431	6.0
61.446	6.0
61.461	1.0
61.476	8.0
61.491	4.0
61.506	4.0
61.521	5.0
61.536	6.0
61.551	8.0
61.566	2.0
61.581	4.0
61.596	4.0
61.611	1.0
61.626	6.0
61.641	5.0
61.656	4.0
61.672	1.0
61.687	1.0
61.702	1.0
61.717	7.0
61.732	6.0
61.747	6.0
61.762	4.0
61.777	5.0
61.792	5.0
61.807	7.0
61.822	1.0
61.837	5.0
61.852	5.0
61.867	5.0
61.882	8.0
61.897	4.0
61.912	6.0
61.927	6.0
61.943	3.0
61.958	3.0
61.973	6.0
61.988	6.0
62.003	4.0
62.018	5.0
62.033	7.0
62.048	4.0
62.063	5.0
62.078	4.0
62.093	7.0
62.108	4.0
62.123	3.0
62.138	4.0
62.153	3.0
62.169	1.0
62.184	4.0
62.199	2.0
62.214	4.0
62.229	3.0
62.244	6.0
62.259	6.0
62.274	1.0
62.289	10.0
62.304	3.0
62.319	3.0
62.335	2.0
62.35	5.0
62.365	6.0
62.38	7.0
62.395	3.0
62.41	4.0
62.425	7.0
62.44	5.0
62.455	5.0
62.47	5.0
62.485	6.0
62.501	3.0
62.516	7.0
62.531	1.0
62.546	3.0
62.561	6.0
62.576	6.0
62.591	2.0
62.606	4.0
62.621	5.0
62.636	6.0
62.652	4.0
62.667	4.0
62.682	4.0
62.697	4.0
62.712	5.0
62.727	7.0
62.742	5.0
62.757	4.0
62.772	6.0
62.787	7.0
62.803	4.0
62.818	4.0
62.833	5.0
62.848	2.0
62.863	8.0
62.878	3.0
62.893	4.0
62.908	3.0
62.923	6.0
62.939	2.0
62.954	6.0
62.969	4.0
62.984	4.0
62.999	6.0
63.014	6.0
63.029	1.0
63.044	5.0
63.059	8.0
63.074	5.0
63.09	5.0
63.105	3.0
63.12	1.0
63.135	3.0
63.15	3.0
63.165	8.0
63.18	7.0
63.195	3.0
63.21	3.0
63.226	1.0
63.241	1.0
63.256	6.0
63.271	1.0
63.286	7.0
63.301	3.0
63.316	8.0
63.331	6.0
63.346	3.0
63.362	2.0
63.377	7.0
63.392	6.0
63.407	13.0
63.422	5.0
63.437	10.0
63.452	8.0
63.467	4.0
63.482	4.0
63.497	0.0
63.513	2.0
63.528	3.0
63.543	2.0
63.558	7.0
63.573	2.0
63.588	5.0
63.603	3.0
63.618	4.0
63.633	3.0
63.648	7.0
63.664	8.0
63.679	2.0
63.694	0.0
63.709	5.0
63.724	2.0
63.739	5.0
63.754	2.0
63.769	6.0
63.784	7.0
63.799	5.0
63.814	7.0
63.83	3.0
63.845	8.0
63.86	7.0
63.875	2.0
63.89	3.0
63.905	7.0
63.92	1.0
63.935	5.0
63.95	2.0
63.965	3.0
63.98	5.0
63.996	6.0
64.011	3.0
64.026	4.0
64.041	0.0
64.056	5.0
64.071	2.0
64.086	3.0
64.101	4.0
64.116	5.0
64.131	3.0
64.146	3.0
64.161	3.0
64.176	4.0
64.191	5.0
64.207	3.0
64.222	6.0
64.237	2.0
64.252	1.0
64.267	2.0
64.282	4.0
64.297	1.0
64.312	4.0
64.327	3.0
64.342	3.0
64.357	5.0
64.372	5.0
64.387	7.0
64.402	1.0
64.417	1.0
64.433	4.0
64.448	4.0
64.463	2.0
64.478	1.0
64.493	5.0
64.508	3.0
64.523	5.0
64.538	4.0
64.553	4.0
64.568	5.0
64.583	4.0
64.598	7.0
64.613	2.0
64.628	5.0
64.643	5.0
64.658	4.0
64.673	6.0
64.688	3.0
64.703	4.0
64.718	6.0
64.734	6.0
64.749	2.0
64.764	1.0
64.779	4.0
64.794	5.0
64.809	4.0
64.824	5.0
64.839	4.0
64.854	4.0
64.869	2.0
64.884	4.0
64.899	5.0
64.914	2.0
64.929	4.0
64.944	4.0
64.959	3.0
64.974	2.0
64.989	4.0
65.004	8.0
65.019	0.0
65.034	3.0
65.049	1.0
65.064	4.0
65.079	4.0
65.094	2.0
65.109	0.0
65.125	2.0
65.14	1.0
65.155	2.0
65.17	4.0
65.185	6.0
65.2	3.0
65.215	4.0
65.23	5.0
65.245	2.0
65.26	4.0
65.275	2.0
65.29	6.0
65.305	7.0
65.32	3.0
65.335	5.0
65.35	3.0
65.365	4.0
65.38	2.0
65.395	5.0
65.41	2.0
65.425	5.0
65.44	6.0
65.455	3.0
65.47	6.0
65.485	5.0
65.5	1.0
65.515	4.0
65.53	5.0
65.545	3.0
65.56	3.0
65.575	4.0
65.59	4.0
65.605	4.0
65.62	4.0
65.635	7.0
65.65	3.0
65.666	2.0
65.681	1.0
65.696	5.0
65.711	0.0
65.726	9.0
65.741	4.0
65.756	1.0
65.771	5.0
65.786	9.0
65.801	3.0
65.816	3.0
65.831	6.0
65.846	7.0
65.861	1.0
65.876	2.0
65.891	5.0
65.906	6.0
65.921	2.0
65.936	5.0
65.951	5.0
65.966	4.0
65.981	9.0
65.996	3.0
66.011	5.0
66.026	10.0
66.041	2.0
66.056	6.0
66.071	3.0
66.086	4.0
66.101	7.0
66.116	4.0
66.131	8.0
66.146	5.0
66.161	9.0
66.176	6.0
66.191	6.0
66.206	9.0
66.221	6.0
66.236	9.0
66.251	11.0
66.266	9.0
66.281	3.0
66.296	2.0
66.311	4.0
66.327	6.0
66.342	2.0
66.357	2.0
66.372	4.0
66.387	4.0
66.402	8.0
66.417	6.0
66.432	4.0
66.447	5.0
66.462	8.0
66.477	2.0
66.492	1.0
66.507	5.0
66.522	6.0
66.537	4.0
66.552	7.0
66.567	4.0
66.582	4.0
66.597	5.0
66.612	2.0
66.627	5.0
66.642	5.0
66.657	2.0
66.672	2.0
66.687	5.0
66.702	5.0
66.717	5.0
66.732	6.0
66.747	2.0
66.762	2.0
66.777	2.0
66.792	4.0
66.807	4.0
66.822	5.0
66.837	7.0
66.853	5.0
66.868	5.0
66.883	8.0
66.898	6.0
66.913	6.0
66.928	6.0
66.943	7.0
66.958	6.0
66.973	3.0
66.988	6.0
67.003	4.0
67.018	4.0
67.033	5.0
67.048	4.0
67.063	5.0
67.078	5.0
67.093	3.0
67.108	7.0
67.123	4.0
67.138	6.0
67.153	8.0
67.168	4.0
67.183	4.0
67.198	5.0
67.214	2.0
67.229	5.0
67.244	2.0
67.259	2.0
67.274	3.0
67.289	5.0
67.304	3.0
67.319	5.0
67.334	4.0
67.349	4.0
67.364	1.0
67.379	1.0
67.394	4.0
67.409	5.0
67.424	2.0
67.439	0.0
67.454	6.0
67.469	3.0
67.484	4.0
67.5	6.0
67.515	4.0
67.53	4.0
67.545	7.0
67.56	2.0
67.575	6.0
67.59	5.0
67.605	2.0
67.62	7.0
67.635	5.0
67.65	3.0
67.665	8.0
67.68	7.0
67.695	4.0
67.71	0.0
67.726	3.0
67.741	3.0
67.756	3.0
67.771	0.0
67.786	2.0
67.801	3.0
67.816	5.0
67.831	4.0
67.846	3.0
67.861	2.0
67.876	2.0
67.891	2.0
67.906	7.0
67.922	5.0
67.937	8.0
67.952	1.0
67.967	4.0
67.982	4.0
67.997	4.0
68.012	8.0
68.027	8.0
68.042	3.0
68.057	3.0
68.072	6.0
68.087	5.0
68.103	4.0
68.118	2.0
68.133	2.0
68.148	4.0
68.163	3.0
68.178	4.0
68.193	6.0
68.208	5.0
68.223	3.0
68.238	6.0
68.254	2.0
68.269	2.0
68.284	8.0
68.299	4.0
68.314	5.0
68.329	6.0
68.344	2.0
68.359	4.0
68.374	4.0
68.389	1.0
68.405	4.0
68.42	2.0
68.435	0.0
68.45	2.0
68.465	6.0
68.48	5.0
68.495	7.0
68.51	1.0
68.525	3.0
68.54	8.0
68.556	6.0
68.571	3.0
68.586	6.0
68.601	4.0
68.616	4.0
68.631	4.0
68.646	4.0
68.661	1.0
68.676	6.0
68.691	2.0
68.707	3.0
68.722	4.0
68.737	2.0
68.752	6.0
68.767	2.0
68.782	6.0
68.797	3.0
68.812	5.0
68.827	3.0
68.842	2.0
68.857	4.0
68.873	5.0
68.888	4.0
68.903	6.0
68.918	6.0
68.933	1.0
68.948	3.0
68.963	2.0
68.978	6.0
68.993	1.0
69.008	5.0
69.023	2.0
69.038	6.0
69.054	1.0
69.069	6.0
69.084	2.0
69.099	3.0
69.114	6.0
69.129	1.0
69.144	3.0
69.159	2.0
69.174	2.0
69.189	4.0
69.204	3.0
69.219	4.0
69.234	1.0
69.249	5.0
69.264	1.0
69.279	6.0
69.295	6.0
69.31	3.0
69.325	2.0
69.34	1.0
69.355	1.0
69.37	2.0
69.385	1.0
69.4	4.0
69.415	7.0
69.43	3.0
69.445	7.0
69.46	6.0
69.475	3.0
69.49	3.0
69.505	6.0
69.52	2.0
69.535	3.0
69.55	6.0
69.565	8.0
69.58	6.0
69.595	3.0
69.61	2.0
69.625	4.0
69.64	2.0
69.655	6.0
69.67	3.0
69.685	7.0
69.7	3.0
69.715	4.0
69.73	7.0
69.745	7.0
69.76	4.0
69.775	9.0
69.79	5.0
69.805	6.0
69.82	5.0
69.835	5.0
69.85	12.0
69.865	3.0
69.88	6.0
69.895	5.0
69.909	4.0
69.924	6.0
69.939	4.0
69.954	3.0
69.969	5.0
69.984	3.0
69.999	2.0
70.014	4.0
70.029	4.0
70.044	3.0
70.059	2.0
70.074	5.0
70.088	3.0
70.103	4.0
70.118	4.0
70.133	4.0
70.148	1.0
70.163	5.0
70.178	4.0
70.193	1.0
70.208	2.0
70.222	5.0
70.237	5.0
70.252	3.0
70.267	4.0
70.282	7.0
70.297	8.0
70.312	2.0
70.327	7.0
70.341	4.0
70.356	8.0
70.371	2.0
70.386	3.0
70.401	4.0
70.416	11.0
70.43	2.0
70.445	2.0
70.46	3.0
70.475	3.0
70.49	4.0
70.505	5.0
70.519	3.0
70.534	6.0
70.549	0.0
70.564	4.0
70.579	4.0
70.594	4.0
70.608	7.0
70.623	2.0
70.638	6.0
70.653	8.0
70.668	2.0
70.683	3.0
70.697	2.0
70.712	7.0
70.727	7.0
70.742	1.0
70.757	1.0
70.771	1.0
70.786	6.0
70.801	3.0
70.816	0.0
70.831	2.0
70.845	2.0
70.86	2.0
70.875	3.0
70.89	4.0
70.905	2.0
70.92	5.0
70.934	4.0
70.949	3.0
70.964	4.0
70.979	3.0
70.994	7.0
71.008	1.0
71.023	6.0
71.038	4.0
71.053	4.0
71.068	3.0
71.082	2.0
71.097	4.0
71.112	5.0
71.127	5.0
71.142	6.0
71.156	6.0
71.171	5.0
71.186	2.0
71.201	4.0
71.216	3.0
71.231	5.0
71.245	4.0
71.26	5.0
71.275	4.0
71.29	7.0
71.305	7.0
71.319	5.0
71.334	2.0
71.349	5.0
71.364	2.0
71.379	3.0
71.394	1.0
71.408	4.0
71.423	2.0
71.438	5.0
71.453	2.0
71.468	2.0
71.483	2.0
71.497	4.0
71.512	6.0
71.527	4.0
71.542	3.0
71.557	6.0
71.572	1.0
71.586	3.0
71.601	0.0
71.616	2.0
71.631	2.0
71.646	2.0
71.661	2.0
71.676	5.0
71.69	5.0
71.705	1.0
71.72	1.0
71.735	5.0
71.75	0.0
71.765	4.0
71.78	4.0
71.795	4.0
71.81	4.0
71.824	1.0
71.839	3.0
71.854	1.0
71.869	4.0
71.884	3.0
71.899	4.0
71.914	5.0
71.929	6.0
71.944	3.0
71.959	2.0
71.974	3.0
71.988	3.0
72.003	2.0
72.018	4.0
72.033	10.0
72.048	8.0
72.063	6.0
72.078	5.0
72.093	6.0
72.108	3.0
72.123	4.0
72.138	5.0
72.153	7.0
72.168	3.0
72.183	3.0
72.198	3.0
72.213	2.0
72.228	1.0
72.243	5.0
72.258	7.0
72.273	2.0
72.288	3.0
72.303	1.0
72.318	4.0
72.333	6.0
72.348	6.0
72.363	5.0
72.378	5.0
72.393	4.0
72.408	3.0
72.423	3.0
72.438	4.0
72.453	3.0
72.468	4.0
72.483	4.0
72.498	4.0
72.513	3.0
72.528	4.0
72.543	3.0
72.558	6.0
72.573	2.0
72.588	1.0
72.603	2.0
72.618	5.0
72.633	0.0
72.649	5.0
72.664	4.0
72.679	2.0
72.694	5.0
72.709	4.0
72.724	1.0
72.739	2.0
72.754	3.0
72.769	2.0
72.784	3.0
72.799	5.0
72.814	2.0
72.829	2.0
72.845	3.0
72.86	7.0
72.875	5.0
72.89	5.0
72.905	5.0
72.92	0.0
72.935	1.0
72.95	6.0
72.965	1.0
72.98	1.0
72.996	4.0
73.011	4.0
73.026	4.0
73.041	2.0
73.056	5.0
73.071	3.0
73.086	7.0
73.101	0.0
73.117	2.0
73.132	3.0
73.147	4.0
73.162	2.0
73.177	1.0
73.192	1.0
73.207	0.0
73.222	4.0
73.238	1.0
73.253	2.0
73.268	5.0
73.283	8.0
73.298	7.0
73.313	9.0
73.328	2.0
73.343	6.0
73.359	5.0
73.374	5.0
73.389	3.0
73.404	7.0
73.419	4.0
73.434	8.0
73.449	3.0
73.465	4.0
73.48	6.0
73.495	3.0
73.51	3.0
73.525	3.0
73.54	5.0
73.556	0.0
73.571	5.0
73.586	7.0
73.601	5.0
73.616	0.0
73.631	4.0
73.646	2.0
73.662	4.0
73.677	4.0
73.692	5.0
73.707	5.0
73.722	4.0
73.737	1.0
73.752	3.0
73.768	3.0
73.783	2.0
73.798	4.0
73.813	1.0
73.828	9.0
73.843	8.0
73.859	2.0
73.874	5.0
73.889	2.0
73.904	6.0
73.919	2.0
73.934	1.0
73.949	3.0
73.965	3.0
73.98	2.0
73.995	1.0
74.01	2.0
74.025	3.0
74.04	4.0
74.056	4.0
74.071	7.0
74.086	5.0
74.101	5.0
74.116	6.0
74.131	8.0
74.146	4.0
74.162	3.0
74.177	3.0
74.192	7.0
74.207	5.0
74.222	6.0
74.237	6.0
74.252	5.0
74.268	6.0
74.283	3.0
74.298	8.0
74.313	4.0
74.328	5.0
74.343	4.0
74.358	5.0
74.374	4.0
74.389	2.0
74.404	4.0
74.419	1.0
74.434	2.0
74.449	1.0
74.464	4.0
74.48	1.0
74.495	5.0
74.51	5.0
74.525	3.0
74.54	4.0
74.555	4.0
74.57	5.0
74.586	3.0
74.601	4.0
74.616	7.0
74.631	3.0
74.646	3.0
74.661	3.0
74.676	2.0
74.691	4.0
74.707	3.0
74.722	4.0
74.737	3.0
74.752	6.0
74.767	8.0
74.782	2.0
74.797	7.0
74.813	3.0
74.828	2.0
74.843	8.0
74.858	4.0
74.873	5.0
74.888	2.0
74.903	3.0
74.918	4.0
74.934	1.0
74.949	4.0
74.964	3.0
74.979	3.0
74.994	8.0
75.009	6.0
75.024	4.0
75.04	2.0
75.055	7.0
75.07	5.0
75.085	6.0
75.1	5.0
75.115	5.0
75.13	6.0
75.145	4.0
75.161	5.0
75.176	6.0
75.191	3.0
75.206	4.0
75.221	1.0
75.236	4.0
75.251	6.0
75.266	5.0
75.282	2.0
75.297	2.0
75.312	4.0
75.327	2.0
75.342	5.0
75.357	5.0
75.372	1.0
75.387	5.0
75.403	5.0
75.418	3.0
75.433	2.0
75.448	2.0
75.463	4.0
75.478	5.0
75.493	2.0
75.509	5.0
75.524	4.0
75.539	3.0
75.554	4.0
75.569	4.0
75.584	3.0
75.599	2.0
75.614	3.0
75.63	3.0
75.645	6.0
75.66	4.0
75.675	6.0
75.69	3.0
75.705	2.0
75.72	2.0
75.735	4.0
75.751	3.0
75.766	0.0
75.781	5.0
75.796	7.0
75.811	4.0
75.826	3.0
75.841	0.0
75.856	2.0
75.872	4.0
75.887	3.0
75.902	2.0
75.917	3.0
75.932	1.0
75.947	1.0
75.962	1.0
75.977	0.0
75.993	5.0
76.008	3.0
76.023	4.0
76.038	5.0
76.053	3.0
76.068	0.0
76.083	3.0
76.098	3.0
76.114	6.0
76.129	2.0
76.144	2.0
76.159	4.0
76.174	4.0
76.189	0.0
76.204	1.0
76.22	5.0
76.235	3.0
76.25	5.0
76.265	4.0
76.28	4.0
76.295	5.0
76.31	5.0
76.325	1.0
76.341	3.0
76.356	3.0
76.371	1.0
76.386	5.0
76.401	8.0
76.416	3.0
76.431	4.0
76.446	1.0
76.462	4.0
76.477	2.0
76.492	3.0
76.507	3.0
76.522	3.0
76.537	5.0
76.552	2.0
76.567	3.0
76.583	2.0
76.598	1.0
76.613	3.0
76.628	5.0
76.643	2.0
76.658	4.0
76.673	6.0
76.688	3.0
76.704	5.0
76.719	4.0
76.734	6.0
76.749	5.0
76.764	7.0
76.779	3.0
76.794	8.0
76.809	0.0
76.824	3.0
76.84	6.0
76.855	5.0
76.87	5.0
76.885	2.0
76.9	3.0
76.915	1.0
76.93	0.0
76.945	3.0
76.96	4.0
76.976	2.0
76.991	1.0
77.006	0.0
77.021	7.0
77.036	4.0
77.051	1.0
77.066	4.0
77.081	2.0
77.096	4.0
77.112	2.0
77.127	3.0
77.142	4.0
77.157	5.0
77.172	3.0
77.187	4.0
77.202	3.0
77.217	4.0
77.232	6.0
77.247	2.0
77.263	4.0
77.278	4.0
77.293	4.0
77.308	4.0
77.323	6.0
77.338	4.0
77.353	11.0
77.368	5.0
77.383	4.0
77.398	4.0
77.413	1.0
77.428	3.0
77.444	2.0
77.459	1.0
77.474	1.0
77.489	4.0
77.504	6.0
77.519	7.0
77.534	3.0
77.549	5.0
77.564	8.0
77.579	2.0
77.594	6.0
77.609	4.0
77.624	4.0
77.64	5.0
77.655	5.0
77.67	4.0
77.685	6.0
77.7	7.0
77.715	4.0
77.73	3.0
77.745	1.0
77.76	2.0
77.775	4.0
77.79	3.0
77.805	3.0
77.82	6.0
77.835	2.0
77.85	5.0
77.865	3.0
77.88	7.0
77.895	5.0
77.91	5.0
77.926	3.0
77.941	4.0
77.956	2.0
77.971	3.0
77.986	2.0
78.001	3.0
78.016	3.0
78.031	2.0
78.046	3.0
78.061	2.0
78.076	1.0
78.091	1.0
78.106	1.0
78.121	3.0
78.136	2.0
78.151	1.0
78.166	1.0
78.181	6.0
78.196	4.0
78.211	10.0
78.226	1.0
78.241	4.0
78.256	5.0
78.271	3.0
78.286	1.0
78.301	5.0
78.316	3.0
78.331	0.0
78.346	2.0
78.361	2.0
78.376	4.0
78.391	3.0
78.406	2.0
78.421	3.0
78.436	1.0
78.451	2.0
78.466	2.0
78.481	5.0
78.496	3.0
78.511	3.0
78.526	3.0
78.541	2.0
78.556	4.0
78.571	3.0
78.586	4.0
78.601	1.0
78.616	6.0
78.631	4.0
78.646	3.0
78.661	2.0
78.676	2.0
78.691	0.0
78.706	6.0
78.721	5.0
78.736	2.0
78.751	4.0
78.766	2.0
78.781	3.0
78.796	2.0
78.811	4.0
78.826	2.0
78.841	2.0
78.856	3.0
78.871	3.0
78.885	5.0
78.9	3.0
78.915	0.0
78.93	4.0
78.945	1.0
78.96	3.0
78.975	3.0
78.99	3.0
79.005	3.0
79.02	2.0
79.035	6.0
79.05	1.0
79.065	5.0
79.08	4.0
79.095	2.0
79.11	3.0
79.125	4.0
79.14	1.0
79.155	2.0
79.17	0.0
79.185	6.0
79.2	2.0
79.215	3.0
79.23	3.0
79.245	2.0
79.26	4.0
79.275	4.0
79.29	3.0
79.304	2.0
79.319	5.0
79.334	6.0
79.349	4.0
79.364	3.0
79.379	8.0
79.394	7.0
79.409	1.0
79.424	4.0
79.439	2.0
79.454	1.0
79.469	3.0
79.484	5.0
79.499	1.0
79.514	4.0
79.529	2.0
79.544	7.0
79.559	3.0
79.574	1.0
79.589	3.0
79.604	0.0
79.619	2.0
79.634	4.0
79.649	4.0
79.664	5.0
79.679	4.0
79.693	4.0
79.708	5.0
79.723	4.0
79.738	1.0
79.753	3.0
79.768	3.0
79.783	3.0
79.798	5.0
79.813	4.0
79.828	3.0
79.843	4.0
79.858	5.0
79.873	3.0
79.888	3.0
79.903	4.0
79.918	5.0
79.933	3.0
79.948	2.0
79.963	6.0
79.978	2.0
79.993	3.0
80.008	6.0
80.023	5.0
80.038	3.0
80.053	2.0
80.068	0.0
80.083	4.0
80.098	2.0
80.113	4.0
80.128	5.0
80.143	3.0
80.158	0.0
80.173	4.0
80.188	5.0
80.202	3.0
80.217	4.0
80.232	4.0
80.247	6.0
80.262	7.0
80.277	4.0
80.292	5.0
80.307	0.0
80.322	3.0
80.337	7.0
80.352	5.0
80.367	4.0
80.382	4.0
80.397	0.0
80.412	2.0
80.427	4.0
80.442	4.0
80.457	0.0
80.472	3.0
80.487	6.0
80.502	3.0
80.517	0.0
80.532	2.0
80.547	2.0
80.562	1.0
80.577	3.0
80.592	3.0
80.607	3.0
80.622	0.0
80.637	1.0
80.652	2.0
80.667	0.0
80.682	4.0
80.697	1.0
80.712	4.0
80.727	2.0
80.742	6.0
80.757	2.0
80.772	4.0
80.787	1.0
80.802	3.0
80.817	3.0
80.832	5.0
80.847	1.0
80.862	1.0
80.877	2.0
80.892	3.0
80.907	1.0
80.922	4.0
80.937	2.0
80.952	6.0
80.967	6.0
80.982	4.0
80.997	4.0
81.012	4.0
81.027	4.0
81.042	2.0
81.057	3.0
81.072	4.0
81.087	2.0
81.101	3.0
81.116	3.0
81.131	4.0
81.146	1.0
81.161	2.0
81.176	6.0
81.191	6.0
81.206	2.0
81.221	6.0
81.236	2.0
81.251	3.0
81.266	3.0
81.281	5.0
81.296	2.0
81.311	2.0
81.326	1.0
81.341	6.0
81.356	3.0
81.371	2.0
81.386	4.0
81.401	2.0
81.416	0.0
81.431	4.0
81.446	3.0
81.461	3.0
81.476	5.0
81.491	3.0
81.506	3.0
81.521	5.0
81.536	5.0
81.55	1.0
81.565	3.0
81.58	5.0
81.595	5.0
81.61	3.0
81.625	1.0
81.64	4.0
81.655	2.0
81.67	4.0
81.685	1.0
81.7	4.0
81.715	5.0
81.73	3.0
81.745	6.0
81.76	0.0
81.775	4.0
81.79	5.0
81.805	6.0
81.819	6.0
81.834	4.0
81.849	4.0
81.864	4.0
81.879	3.0
81.894	7.0
81.909	10.0
81.924	4.0
81.939	4.0
81.954	7.0
81.969	3.0
81.984	4.0
81.999	3.0
82.013	4.0
82.028	5.0
82.043	2.0
82.058	1.0
82.073	2.0
82.088	2.0
82.103	3.0
82.118	4.0
82.133	5.0
82.148	5.0
82.163	5.0
82.177	4.0
82.192	1.0
82.207	1.0
82.222	0.0
82.237	3.0
82.252	2.0
82.267	3.0
82.282	3.0
82.297	4.0
82.312	4.0
82.326	4.0
82.341	4.0
82.356	4.0
82.371	3.0
82.386	2.0
82.401	4.0
82.416	3.0
82.431	2.0
82.445	7.0
82.46	3.0
82.475	3.0
82.49	2.0
82.505	3.0
82.52	2.0
82.535	2.0
82.55	2.0
82.565	4.0
82.579	2.0
82.594	6.0
82.609	2.0
82.624	1.0
82.639	5.0
82.654	1.0
82.669	5.0
82.684	5.0
82.698	2.0
82.713	1.0
82.728	5.0
82.743	3.0
82.758	1.0
82.773	4.0
82.788	4.0
82.803	3.0
82.817	6.0
82.832	5.0
82.847	3.0
82.862	2.0
82.877	1.0
82.892	3.0
82.907	3.0
82.922	4.0
82.937	4.0
82.951	4.0
82.966	2.0
82.981	1.0
82.996	2.0
83.011	2.0
83.026	3.0
83.041	1.0
83.056	1.0
83.07	1.0
83.085	3.0
83.1	2.0
83.115	4.0
83.13	2.0
83.145	6.0
83.16	5.0
83.175	3.0
83.19	4.0
83.204	3.0
83.219	2.0
83.234	3.0
83.249	1.0
83.264	2.0
83.279	1.0
83.294	1.0
83.309	3.0
83.324	3.0
83.339	3.0
83.353	3.0
83.368	3.0
83.383	4.0
83.398	1.0
83.413	3.0
83.428	2.0
83.443	3.0
83.458	3.0
83.473	4.0
83.488	3.0
83.503	6.0
83.517	3.0
83.532	5.0
83.547	2.0
83.562	3.0
83.577	3.0
83.592	8.0
83.607	5.0
83.622	6.0
83.637	4.0
83.652	1.0
83.667	2.0
83.682	3.0
83.697	8.0
83.712	2.0
83.727	2.0
83.741	7.0
83.756	1.0
83.771	3.0
83.786	0.0
83.801	3.0
83.816	5.0
83.831	1.0
83.846	1.0
83.861	6.0
83.876	1.0
83.891	2.0
83.906	2.0
83.921	2.0
83.936	4.0
83.951	1.0
83.966	2.0
83.981	5.0
83.996	4.0
84.011	2.0
84.026	4.0
84.041	1.0
84.056	5.0
84.071	0.0
84.086	5.0
84.101	4.0
84.116	2.0
84.131	4.0
84.146	5.0
84.161	5.0
84.176	6.0
84.191	3.0
84.206	1.0
84.221	4.0
84.236	7.0
84.251	7.0
84.266	4.0
84.281	7.0
84.296	3.0
84.311	4.0
84.326	5.0
84.341	4.0
84.356	6.0
84.371	2.0
84.386	2.0
84.401	4.0
84.416	5.0
84.431	4.0
84.446	3.0
84.461	4.0
84.476	7.0
84.492	6.0
84.507	2.0
84.522	3.0
84.537	4.0
84.552	3.0
84.567	3.0
84.582	5.0
84.597	2.0
84.612	3.0
84.627	1.0
84.642	1.0
84.657	3.0
84.672	3.0
84.687	5.0
84.702	2.0
84.717	0.0
84.733	5.0
84.748	2.0
84.763	1.0
84.778	7.0
84.793	2.0
84.808	3.0
84.823	3.0
84.838	3.0
84.853	1.0
84.868	2.0
84.883	3.0
84.898	4.0
84.913	7.0
84.929	1.0
84.944	1.0
84.959	1.0
84.974	4.0
84.989	1.0
85.004	5.0
85.019	3.0
85.034	5.0
85.049	1.0
85.064	1.0
85.079	3.0
85.094	2.0
85.11	2.0
85.125	0.0
85.14	1.0
85.155	4.0
85.17	3.0
85.185	1.0
85.2	3.0
85.215	3.0
85.23	6.0
85.245	4.0
85.26	1.0
85.276	3.0
85.291	4.0
85.306	1.0
85.321	2.0
85.336	2.0
85.351	1.0
85.366	6.0
85.381	3.0
85.396	3.0
85.411	4.0
85.426	5.0
85.441	1.0
85.457	6.0
85.472	2.0
85.487	5.0
85.502	5.0
85.517	3.0
85.532	1.0
85.547	2.0
85.562	3.0
85.577	2.0
85.592	2.0
85.607	1.0
85.622	4.0
85.637	2.0
85.653	1.0
85.668	1.0
85.683	5.0
85.698	0.0
85.713	4.0
85.728	5.0
85.743	4.0
85.758	6.0
85.773	4.0
85.788	3.0
85.803	3.0
85.818	5.0
85.833	2.0
85.848	3.0
85.863	2.0
85.879	0.0
85.894	6.0
85.909	3.0
85.924	2.0
85.939	5.0
85.954	2.0
85.969	4.0
85.984	3.0
85.999	0.0
86.014	3.0
86.029	2.0
86.044	5.0
86.059	1.0
86.074	2.0
86.089	3.0
86.104	3.0
86.119	3.0
86.134	5.0
86.149	1.0
86.164	4.0
86.179	2.0
86.194	4.0
86.209	3.0
86.224	4.0
86.239	1.0
86.254	2.0
86.269	4.0
86.284	5.0
86.299	2.0
86.314	5.0
86.33	1.0
86.345	5.0
86.36	5.0
86.375	4.0
86.39	2.0
86.405	0.0
86.42	5.0
86.435	2.0
86.45	3.0
86.465	7.0
86.48	3.0
86.495	3.0
86.51	3.0
86.525	2.0
86.54	3.0
86.555	3.0
86.57	5.0
86.585	2.0
86.6	4.0
86.615	5.0
86.63	0.0
86.645	2.0
86.659	2.0
86.674	2.0
86.689	5.0
86.704	0.0
86.719	2.0
86.734	3.0
86.749	5.0
86.764	3.0
86.779	1.0
86.794	0.0
86.809	5.0
86.824	3.0
86.839	6.0
86.854	6.0
86.869	2.0
86.884	5.0
86.899	5.0
86.914	4.0
86.929	6.0
86.944	3.0
86.959	7.0
86.974	3.0
86.989	8.0
87.004	5.0
87.019	6.0
87.034	1.0
87.049	3.0
87.064	2.0
87.079	2.0
87.094	1.0
87.109	2.0
87.124	3.0
87.139	4.0
87.154	1.0
87.169	3.0
87.184	4.0
87.199	1.0
87.214	2.0
87.229	3.0
87.244	4.0
87.259	1.0
87.274	3.0
87.289	4.0
87.304	5.0
87.319	4.0
87.334	5.0
87.349	4.0
87.364	3.0
87.379	2.0
87.394	2.0
87.409	6.0
87.424	2.0
87.438	3.0
87.453	2.0
87.468	4.0
87.483	4.0
87.498	1.0
87.513	3.0
87.528	2.0
87.543	2.0
87.558	0.0
87.573	3.0
87.588	2.0
87.603	5.0
87.618	3.0
87.633	5.0
87.648	3.0
87.663	5.0
87.678	1.0
87.693	3.0
87.708	5.0
87.723	0.0
87.738	3.0
87.753	8.0
87.768	2.0
87.783	6.0
87.798	6.0
87.813	7.0
87.828	4.0
87.843	1.0
87.858	2.0
87.873	1.0
87.888	4.0
87.903	0.0
87.918	5.0
87.933	5.0
87.948	6.0
87.963	5.0
87.978	3.0
87.993	4.0
88.008	1.0
88.023	4.0
88.038	3.0
88.053	4.0
88.068	1.0
88.083	3.0
88.098	3.0
88.113	3.0
88.128	0.0
88.143	3.0
88.158	0.0
88.174	5.0
88.189	2.0
88.204	5.0
88.219	2.0
88.234	7.0
88.249	3.0
88.264	5.0
88.279	2.0
88.294	2.0
88.309	4.0
88.324	3.0
88.339	2.0
88.354	5.0
88.369	5.0
88.384	2.0
88.399	4.0
88.414	4.0
88.429	4.0
88.444	1.0
88.459	3.0
88.474	3.0
88.489	1.0
88.504	1.0
88.519	1.0
88.534	3.0
88.549	3.0
88.564	4.0
88.58	3.0
88.595	5.0
88.61	2.0
88.625	4.0
88.64	2.0
88.655	5.0
88.67	4.0
88.685	2.0
88.7	3.0
88.715	5.0
88.73	5.0
88.745	1.0
88.76	2.0
88.775	2.0
88.79	6.0
88.805	2.0
88.82	2.0
88.835	4.0
88.85	4.0
88.865	2.0
88.88	1.0
88.895	5.0
88.911	4.0
88.926	5.0
88.941	2.0
88.956	5.0
88.971	2.0
88.986	2.0
89.001	2.0
89.016	3.0
89.031	4.0
89.046	4.0
89.061	3.0
89.076	2.0
89.091	3.0
89.106	6.0
89.121	5.0
89.136	3.0
89.151	4.0
89.166	6.0
89.181	1.0
89.196	3.0
89.211	1.0
89.227	1.0
89.242	5.0
89.257	6.0
89.272	2.0
89.287	4.0
89.302	1.0
89.317	4.0
89.332	2.0
89.347	1.0
89.362	3.0
89.377	4.0
89.392	6.0
89.407	5.0
89.422	4.0
89.437	5.0
89.452	2.0
89.467	3.0
89.482	1.0
89.497	2.0
89.512	3.0
89.527	4.0
89.542	3.0
89.557	1.0
89.572	2.0
89.587	3.0
89.602	4.0
89.617	2.0
89.632	1.0
89.647	6.0
89.662	3.0
89.677	3.0
89.693	2.0
89.708	4.0
89.723	2.0
89.738	2.0
89.753	4.0
89.768	2.0
89.783	3.0
89.798	1.0
89.813	2.0
89.828	2.0
89.843	1.0
89.858	0.0
89.873	3.0
89.888	7.0
89.903	2.0
89.918	2.0
89.933	5.0
89.948	6.0
89.963	4.0
89.978	2.0
89.993	3.0
90.008	4.0
90.023	4.0
90.038	4.0
90.053	3.0
90.068	6.0
90.083	2.0
90.097	3.0
90.112	2.0
90.127	1.0
90.142	4.0
90.157	4.0
90.172	7.0
90.187	2.0
90.202	3.0
90.217	5.0
90.232	1.0
90.247	6.0
90.262	0.0
90.277	5.0
90.292	4.0
90.307	1.0
90.322	4.0
90.337	2.0
90.352	3.0
90.367	6.0
90.382	4.0
90.397	2.0
90.412	3.0
90.427	5.0
90.442	2.0
90.457	3.0
90.472	3.0
90.487	1.0
90.501	3.0
90.516	3.0
90.531	2.0
90.546	8.0
90.561	5.0
90.576	4.0
90.591	1.0
90.606	3.0
90.621	1.0
90.636	1.0
90.651	7.0
90.666	3.0
90.681	2.0
90.696	3.0
90.711	2.0
90.726	5.0
90.741	0.0
90.755	1.0
90.77	3.0
90.785	4.0
90.8	1.0
90.815	0.0
90.83	3.0
90.845	2.0
90.86	6.0
90.875	1.0
90.89	7.0
90.905	5.0
90.92	2.0
90.935	2.0
90.95	1.0
90.965	6.0
90.979	3.0
90.994	2.0
91.009	8.0
91.024	3.0
91.039	2.0
91.054	4.0
91.069	2.0
91.084	1.0
91.099	3.0
91.114	7.0
91.129	4.0
91.144	7.0
91.159	4.0
91.174	4.0
91.188	2.0
91.203	2.0
91.218	3.0
91.233	3.0
91.248	2.0
91.263	2.0
91.278	4.0
91.293	2.0
91.308	3.0
91.323	2.0
91.338	3.0
91.353	2.0
91.368	1.0
91.383	5.0
91.398	5.0
91.412	7.0
91.427	3.0
91.442	1.0
91.457	4.0
91.472	2.0
91.487	2.0
91.502	4.0
91.517	5.0
91.532	3.0
91.547	6.0
91.562	2.0
91.577	3.0
91.592	2.0
91.607	2.0
91.622	5.0
91.637	5.0
91.652	4.0
91.666	3.0
91.681	5.0
91.696	3.0
91.711	1.0
91.726	3.0
91.741	1.0
91.756	1.0
91.771	3.0
91.786	4.0
91.801	2.0
91.816	5.0
91.831	4.0
91.846	6.0
91.861	2.0
91.876	3.0
91.891	5.0
91.906	2.0
91.921	2.0
91.936	5.0
91.951	2.0
91.966	2.0
91.981	4.0
91.995	3.0
92.01	5.0
92.025	2.0
92.04	1.0
92.055	1.0
92.07	0.0
92.085	4.0
92.1	3.0
92.115	4.0
92.13	2.0
92.145	2.0
92.16	0.0
92.175	2.0
92.19	5.0
92.205	7.0
92.22	3.0
92.235	2.0
92.25	7.0
92.265	4.0
92.28	5.0
92.295	5.0
92.31	1.0
92.325	4.0
92.34	4.0
92.355	2.0
92.37	4.0
92.385	3.0
92.4	1.0
92.415	4.0
92.43	0.0
92.445	5.0
92.46	2.0
92.475	3.0
92.49	2.0
92.505	3.0
92.52	3.0
92.535	3.0
92.55	6.0
92.565	4.0
92.58	5.0
92.595	1.0
92.61	3.0
92.625	1.0
92.64	8.0
92.655	3.0
92.67	5.0
92.685	3.0
92.7	3.0
92.715	4.0
92.73	6.0
92.745	2.0
92.76	1.0
92.775	3.0
92.79	2.0
92.805	1.0
92.82	3.0
92.835	4.0
92.85	3.0
92.865	3.0
92.88	4.0
92.895	2.0
92.91	1.0
92.925	2.0
92.94	3.0
92.955	0.0
92.97	2.0
92.985	5.0
93.0	4.0
93.015	1.0
93.03	2.0
93.045	3.0
93.06	7.0
93.075	0.0
93.09	4.0
93.105	1.0
93.12	2.0
93.135	5.0
93.15	4.0
93.165	3.0
93.18	3.0
93.195	2.0
93.21	7.0
93.225	4.0
93.24	4.0
93.255	1.0
93.27	4.0
93.285	3.0
93.3	3.0
93.315	4.0
93.33	4.0
93.345	0.0
93.36	1.0
93.375	1.0
93.39	4.0
93.405	0.0
93.42	4.0
93.435	7.0
93.45	3.0
93.465	2.0
93.48	4.0
93.495	2.0
93.51	4.0
93.525	6.0
93.54	2.0
93.555	4.0
93.57	2.0
93.585	3.0
93.6	3.0
93.615	2.0
93.63	1.0
93.645	1.0
93.66	3.0
93.675	1.0
93.69	3.0
93.705	6.0
93.72	5.0
93.735	1.0
93.75	6.0
93.765	1.0
93.78	1.0
93.795	2.0
93.81	1.0
93.824	3.0
93.839	6.0
93.854	2.0
93.869	0.0
93.884	7.0
93.899	7.0
93.914	2.0
93.929	3.0
93.944	5.0
93.959	3.0
93.974	4.0
93.989	1.0
94.004	2.0
94.019	3.0
94.034	4.0
94.049	1.0
94.064	1.0
94.079	4.0
94.094	3.0
94.108	1.0
94.123	3.0
94.138	4.0
94.153	1.0
94.168	1.0
94.183	5.0
94.198	1.0
94.213	2.0
94.228	5.0
94.243	4.0
94.258	3.0
94.273	2.0
94.288	3.0
94.302	7.0
94.317	4.0
94.332	3.0
94.347	3.0
94.362	3.0
94.377	1.0
94.392	2.0
94.407	3.0
94.422	6.0
94.437	3.0
94.452	7.0
94.466	3.0
94.481	3.0
94.496	3.0
94.511	3.0
94.526	4.0
94.541	4.0
94.556	5.0
94.571	3.0
94.586	7.0
94.601	3.0
94.615	3.0
94.63	0.0
94.645	1.0
94.66	4.0
94.675	7.0
94.69	1.0
94.705	8.0
94.72	0.0
94.735	4.0
94.749	2.0
94.764	4.0
94.779	3.0
94.794	3.0
94.809	1.0
94.824	2.0
94.839	3.0
94.854	8.0
94.868	3.0
94.883	0.0
94.898	3.0
94.913	3.0
94.928	5.0
94.943	1.0
94.958	4.0
94.973	5.0
94.987	1.0
95.002	2.0
95.017	1.0
95.032	2.0
95.047	1.0
95.062	6.0
95.077	4.0
95.092	3.0
95.106	2.0
95.121	4.0
95.136	6.0
95.151	9.0
95.166	5.0
95.181	8.0
95.196	6.0
95.211	3.0
95.226	4.0
95.24	7.0
95.255	4.0
95.27	2.0
95.285	4.0
95.3	2.0
95.315	2.0
95.33	9.0
95.345	6.0
95.359	5.0
95.374	2.0
95.389	8.0
95.404	0.0
95.419	2.0
95.434	2.0
95.449	2.0
95.464	2.0
95.478	3.0
95.493	2.0
95.508	4.0
95.523	2.0
95.538	2.0
95.553	4.0
95.568	4.0
95.583	3.0
95.597	5.0
95.612	5.0
95.627	3.0
95.642	1.0
95.657	3.0
95.672	4.0
95.687	5.0
95.702	4.0
95.717	4.0
95.731	5.0
95.746	5.0
95.761	5.0
95.776	6.0
95.791	2.0
95.806	1.0
95.821	6.0
95.836	1.0
95.851	6.0
95.866	4.0
95.88	7.0
95.895	4.0
95.91	5.0
95.925	2.0
95.94	3.0
95.955	4.0
95.97	1.0
95.985	3.0
96.0	2.0
96.015	6.0
96.029	12.0
96.044	4.0
96.059	6.0
96.074	3.0
96.089	6.0
96.104	3.0
96.119	1.0
96.134	5.0
96.149	2.0
96.164	7.0
96.179	3.0
96.194	1.0
96.208	4.0
96.223	2.0
96.238	4.0
96.253	2.0
96.268	6.0
96.283	7.0
96.298	4.0
96.313	4.0
96.328	5.0
96.343	2.0
96.358	3.0
96.373	5.0
96.388	2.0
96.403	3.0
96.417	3.0
96.432	1.0
96.447	4.0
96.462	3.0
96.477	4.0
96.492	4.0
96.507	1.0
96.522	1.0
96.537	2.0
96.552	0.0
96.567	4.0
96.582	4.0
96.597	7.0
96.612	1.0
96.627	3.0
96.642	2.0
96.656	4.0
96.671	3.0
96.686	1.0
96.701	4.0
96.716	9.0
96.731	6.0
96.746	3.0
96.761	3.0
96.776	3.0
96.791	0.0
96.806	1.0
96.821	9.0
96.836	4.0
96.851	3.0
96.866	4.0
96.881	6.0
96.896	9.0
96.911	2.0
96.926	6.0
96.94	4.0
96.955	4.0
96.97	1.0
96.985	9.0
97.0	5.0
97.015	3.0
97.03	3.0
97.045	2.0
97.06	6.0
97.075	1.0
97.09	8.0
97.105	2.0
97.12	5.0
97.135	3.0
97.15	3.0
97.165	5.0
97.18	6.0
97.195	3.0
97.21	3.0
97.225	1.0
97.239	5.0
97.254	2.0
97.269	1.0
97.284	2.0
97.299	3.0
97.314	4.0
97.329	4.0
97.344	3.0
97.359	4.0
97.374	0.0
97.389	4.0
97.404	4.0
97.419	2.0
97.434	3.0
97.449	4.0
97.464	3.0
97.479	4.0
97.494	3.0
97.509	4.0
97.524	3.0
97.538	5.0
97.553	2.0
97.568	6.0
97.583	4.0
97.598	3.0
97.613	4.0
97.628	1.0
97.643	2.0
97.658	2.0
97.673	1.0
97.688	4.0
97.703	2.0
97.718	4.0
97.733	3.0
97.748	3.0
97.763	4.0
97.778	5.0
97.792	1.0
97.807	7.0
97.822	2.0
97.837	3.0
97.852	1.0
97.867	2.0
97.882	2.0
97.897	2.0
97.912	4.0
97.927	2.0
97.942	0.0
97.957	5.0
97.972	6.0
97.987	3.0
98.001	4.0
98.016	3.0
98.031	0.0
98.046	2.0
98.061	4.0
98.076	3.0
98.091	3.0
98.106	1.0
98.121	1.0
98.136	4.0
98.151	6.0
98.166	1.0
98.181	2.0
98.195	3.0
98.21	3.0
98.225	4.0
98.24	4.0
98.255	0.0
98.27	3.0
98.285	6.0
98.3	4.0
98.315	3.0
98.33	2.0
98.345	2.0
98.359	2.0
98.374	1.0
98.389	2.0
98.404	2.0
98.419	0.0
98.434	6.0
98.449	4.0
98.464	5.0
98.479	4.0
98.494	3.0
98.508	4.0
98.523	5.0
98.538	2.0
98.553	2.0
98.568	2.0
98.583	4.0
98.598	3.0
98.613	2.0
98.628	2.0
98.642	0.0
98.657	2.0
98.672	7.0
98.687	3.0
98.702	2.0
98.717	3.0
98.732	1.0
98.747	5.0
98.762	3.0
98.776	2.0
98.791	3.0
98.806	4.0
98.821	0.0
98.836	3.0
98.851	4.0
98.866	3.0
98.881	3.0
98.896	3.0
98.91	6.0
98.925	3.0
98.94	2.0
98.955	1.0
98.97	5.0
98.985	3.0
99.0	6.0
99.015	0.0
99.029	0.0
99.044	4.0
99.059	1.0
99.074	1.0
99.089	2.0
99.104	5.0
99.119	4.0
99.133	1.0
99.148	1.0
99.163	3.0
99.178	0.0
99.193	1.0
99.208	3.0
99.223	3.0
99.238	3.0
99.252	2.0
99.267	3.0
99.282	5.0
99.297	3.0
99.312	2.0
99.327	3.0
99.342	4.0
99.356	1.0
99.371	3.0
99.386	0.0
99.401	2.0
99.416	2.0
99.431	1.0
99.446	1.0
99.461	3.0
99.475	2.0
99.49	4.0
99.505	2.0
99.52	9.0
99.535	2.0
99.55	2.0
99.565	7.0
99.579	0.0
99.594	4.0
99.609	5.0
99.624	3.0
99.639	2.0
99.654	4.0
99.669	4.0
99.683	4.0
99.698	5.0
99.713	5.0
99.728	6.0
99.743	2.0
99.758	2.0
99.772	4.0
99.787	1.0
99.802	5.0
99.817	0.0
99.832	5.0
99.847	1.0
99.862	3.0
99.876	5.0
99.891	2.0
99.906	3.0
99.921	4.0
99.936	3.0
99.951	5.0
99.966	2.0
99.98	1.0
99.995	2.0
100.01	1.0
100.025	5.0
100.04	1.0
100.055	2.0
100.069	3.0
100.084	2.0
100.099	0.0
100.114	4.0
100.129	1.0
100.144	3.0
100.159	4.0
100.173	5.0
100.188	2.0
100.203	4.0
100.218	3.0
100.233	1.0
100.248	5.0
100.262	1.0
100.277	2.0
100.292	5.0
100.307	4.0
100.322	5.0
100.337	3.0
100.351	6.0
100.366	3.0
100.381	3.0
100.396	4.0
100.411	1.0
100.426	2.0
100.441	2.0
100.455	2.0
100.47	6.0
100.485	0.0
100.5	3.0
100.515	3.0
100.53	3.0
100.544	4.0
100.559	3.0
100.574	6.0
100.589	1.0
100.604	7.0
100.619	5.0
100.633	5.0
100.648	3.0
100.663	4.0
100.678	1.0
100.693	4.0
100.708	4.0
100.722	2.0
100.737	1.0
100.752	0.0
100.767	6.0
100.782	2.0
100.796	0.0
100.811	4.0
100.826	6.0
100.841	2.0
100.856	2.0
100.871	4.0
100.885	1.0
100.9	5.0
100.915	3.0
100.93	3.0
100.945	6.0
100.96	4.0
100.974	2.0
100.989	4.0
101.004	3.0
101.019	6.0
101.034	3.0
101.048	2.0
101.063	4.0
101.078	5.0
101.093	3.0
101.108	4.0
101.123	6.0
101.137	2.0
101.152	3.0
101.167	4.0
101.182	5.0
101.197	3.0
101.211	3.0
101.226	1.0
101.241	9.0
101.256	4.0
101.271	3.0
101.285	5.0
101.3	8.0
101.315	4.0
101.33	1.0
101.345	7.0
101.359	5.0
101.374	1.0
101.389	2.0
101.404	3.0
101.419	2.0
101.433	2.0
101.448	6.0
101.463	2.0
101.478	4.0
101.493	0.0
101.507	0.0
101.522	1.0
101.537	1.0
101.552	4.0
101.567	2.0
101.581	3.0
101.596	5.0
101.611	3.0
101.626	4.0
101.64	2.0
101.655	6.0
101.67	3.0
101.685	5.0
101.7	6.0
101.714	3.0
101.729	3.0
101.744	4.0
101.759	1.0
101.773	3.0
101.788	2.0
101.803	3.0
101.818	3.0
101.833	2.0
101.847	4.0
101.862	1.0
101.877	3.0
101.892	1.0
101.906	3.0
101.921	1.0
101.936	1.0
101.951	3.0
101.965	3.0
101.98	8.0
101.995	5.0
102.01	5.0
102.025	2.0
102.039	2.0
102.054	7.0
102.069	5.0
102.084	8.0
102.098	4.0
102.113	4.0
102.128	2.0
102.143	3.0
102.157	5.0
102.172	2.0
102.187	5.0
102.202	5.0
102.216	4.0
102.231	4.0
102.246	2.0
102.261	1.0
102.275	2.0
102.29	5.0
102.305	2.0
102.32	4.0
102.334	6.0
102.349	3.0
102.364	5.0
102.378	2.0
102.393	2.0
102.408	3.0
102.423	0.0
102.437	3.0
102.452	4.0
102.467	3.0
102.482	3.0
102.496	5.0
102.511	2.0
102.526	2.0
102.541	3.0
102.555	3.0
102.57	3.0
102.585	4.0
102.6	1.0
102.614	3.0
102.629	3.0
102.644	0.0
102.659	4.0
102.673	2.0
102.688	6.0
102.703	3.0
102.717	5.0
102.732	2.0
102.747	6.0
102.762	5.0
102.776	6.0
102.791	6.0
102.806	1.0
102.821	3.0
102.835	3.0
102.85	2.0
102.865	3.0
102.88	0.0
102.894	6.0
102.909	5.0
102.924	2.0
102.938	4.0
102.953	1.0
102.968	6.0
102.983	4.0
102.997	4.0
103.012	4.0
103.027	1.0
103.042	6.0
103.056	3.0
103.071	4.0
103.086	4.0
103.101	3.0
103.115	4.0
103.13	2.0
103.145	3.0
103.16	2.0
103.174	3.0
103.189	1.0
103.204	1.0
103.219	4.0
103.233	6.0
103.248	1.0
103.263	2.0
103.278	3.0
103.292	4.0
103.307	1.0
103.322	4.0
103.337	5.0
103.351	2.0
103.366	4.0
103.381	3.0
103.396	2.0
103.41	5.0
103.425	5.0
103.44	4.0
103.455	2.0
103.469	2.0
103.484	3.0
103.499	1.0
103.514	1.0
103.529	2.0
103.543	4.0
103.558	3.0
103.573	5.0
103.588	2.0
103.602	4.0
103.617	2.0
103.632	2.0
103.647	2.0
103.661	0.0
103.676	2.0
103.691	4.0
103.706	4.0
103.721	5.0
103.735	4.0
103.75	5.0
103.765	3.0
103.78	5.0
103.795	4.0
103.809	2.0
103.824	3.0
103.839	3.0
103.854	2.0
103.869	3.0
103.883	4.0
103.898	5.0
103.913	5.0
103.928	1.0
103.943	3.0
103.957	4.0
103.972	3.0
103.987	7.0
104.002	5.0
104.017	4.0
104.031	2.0
104.046	2.0
104.061	7.0
104.076	2.0
104.091	0.0
104.106	3.0
104.12	9.0
104.135	5.0
104.15	0.0
104.165	1.0
104.18	0.0
104.195	7.0
104.209	3.0
104.224	3.0
104.239	1.0
104.254	2.0
104.269	3.0
104.284	2.0
104.299	7.0
104.313	5.0
104.328	2.0
104.343	3.0
104.358	2.0
104.373	2.0
104.388	6.0
104.403	4.0
104.417	3.0
104.432	6.0
104.447	1.0
104.462	3.0
104.477	3.0
104.492	8.0
104.507	3.0
104.522	3.0
104.536	3.0
104.551	4.0
104.566	2.0
104.581	3.0
104.596	2.0
104.611	1.0
104.626	5.0
104.641	4.0
104.656	3.0
104.67	4.0
104.685	8.0
104.7	2.0
104.715	1.0
104.73	1.0
104.745	2.0
104.76	5.0
104.775	5.0
104.79	6.0
104.804	1.0
104.819	7.0
104.834	2.0
104.849	3.0
104.864	4.0
104.879	3.0
104.894	6.0
104.909	3.0
104.924	4.0
104.939	4.0
104.954	3.0
104.968	3.0
104.983	4.0
104.998	8.0
105.013	1.0
105.028	7.0
105.043	2.0
105.058	1.0
105.073	4.0
105.088	3.0
105.103	3.0
105.118	6.0
105.133	5.0
105.147	2.0
105.162	5.0
105.177	5.0
105.192	1.0
105.207	6.0
105.222	2.0
105.237	2.0
105.252	4.0
105.267	3.0
105.282	6.0
105.297	1.0
105.312	4.0
105.327	7.0
105.342	2.0
105.356	1.0
105.371	0.0
105.386	2.0
105.401	2.0
105.416	3.0
105.431	2.0
105.446	5.0
105.461	0.0
105.476	4.0
105.491	1.0
105.506	6.0
105.521	2.0
105.536	4.0
105.551	4.0
105.566	5.0
105.581	3.0
105.595	3.0
105.61	0.0
105.625	4.0
105.64	1.0
105.655	0.0
105.67	2.0
105.685	4.0
105.7	1.0
105.715	1.0
105.73	5.0
105.745	3.0
105.76	5.0
105.775	4.0
105.79	6.0
105.805	4.0
105.82	4.0
105.835	1.0
105.85	4.0
105.864	1.0
105.879	5.0
105.894	4.0
105.909	3.0
105.924	3.0
105.939	3.0
105.954	2.0
105.969	1.0
105.984	3.0
105.999	3.0
106.014	3.0
106.029	3.0
106.044	1.0
106.059	5.0
106.074	3.0
106.089	2.0
106.104	7.0
106.119	6.0
106.134	5.0
106.148	4.0
106.163	6.0
106.178	4.0
106.193	1.0
106.208	4.0
106.223	6.0
106.238	3.0
106.253	4.0
106.268	1.0
106.283	4.0
106.298	8.0
106.313	9.0
106.328	4.0
106.343	3.0
106.358	2.0
106.373	4.0
106.388	6.0
106.403	8.0
106.418	5.0
106.432	1.0
106.447	2.0
106.462	2.0
106.477	2.0
106.492	3.0
106.507	3.0
106.522	3.0
106.537	4.0
106.552	4.0
106.567	3.0
106.582	1.0
106.597	0.0
106.612	1.0
106.627	2.0
106.642	3.0
106.657	1.0
106.672	2.0
106.687	4.0
106.701	3.0
106.716	5.0
106.731	3.0
106.746	5.0
106.761	1.0
106.776	5.0
106.791	6.0
106.806	5.0
106.821	5.0
106.836	0.0
106.851	5.0
106.866	0.0
106.881	2.0
106.896	3.0
106.911	3.0
106.926	2.0
106.941	3.0
106.955	6.0
106.97	2.0
106.985	3.0
107.0	2.0
107.015	6.0
107.03	5.0
107.045	5.0
107.06	3.0
107.075	3.0
107.09	1.0
107.105	3.0
107.12	2.0
107.135	3.0
107.15	4.0
107.165	6.0
107.18	6.0
107.194	2.0
107.209	5.0
107.224	2.0
107.239	6.0
107.254	6.0
107.269	3.0
107.284	4.0
107.299	3.0
107.314	2.0
107.329	4.0
107.344	5.0
107.359	2.0
107.374	1.0
107.389	9.0
107.404	2.0
107.418	5.0
107.433	4.0
107.448	3.0
107.463	3.0
107.478	7.0
107.493	5.0
107.508	2.0
107.523	5.0
107.538	1.0
107.553	1.0
107.568	1.0
107.583	2.0
107.598	1.0
107.613	2.0
107.627	1.0
107.642	2.0
107.657	3.0
107.672	0.0
107.687	1.0
107.702	5.0
107.717	4.0
107.732	3.0
107.747	3.0
107.762	2.0
107.777	2.0
107.792	6.0
107.807	5.0
107.821	5.0
107.836	3.0
107.851	2.0
107.866	1.0
107.881	2.0
107.896	1.0
107.911	3.0
107.926	4.0
107.941	6.0
107.956	3.0
107.971	2.0
107.986	6.0
108.0	4.0
108.015	5.0
108.03	5.0
108.045	3.0
108.06	2.0
108.075	5.0
108.09	3.0
108.105	1.0
108.12	5.0
108.135	4.0
108.15	5.0
108.164	4.0
108.179	3.0
108.194	3.0
108.209	2.0
108.224	2.0
108.239	5.0
108.254	3.0
108.269	2.0
108.284	4.0
108.299	1.0
108.313	8.0
108.328	2.0
108.343	3.0
108.358	0.0
108.373	5.0
108.388	4.0
108.403	1.0
108.418	2.0
108.433	2.0
108.448	3.0
108.462	3.0
108.477	1.0
108.492	6.0
108.507	3.0
108.522	1.0
108.537	5.0
108.552	1.0
108.567	6.0
108.582	2.0
108.597	3.0
108.611	0.0
108.626	2.0
108.641	2.0
108.656	3.0
108.671	5.0
108.686	5.0
108.701	2.0
108.716	5.0
108.731	0.0
108.745	3.0
108.76	1.0
108.775	2.0
108.79	4.0
108.805	1.0
108.82	5.0
108.835	4.0
108.85	4.0
108.865	4.0
108.879	6.0
108.894	5.0
108.909	3.0
108.924	3.0
108.939	1.0
108.954	5.0
108.969	2.0
108.984	3.0
108.999	3.0
109.013	4.0
109.028	1.0
109.043	3.0
109.058	5.0
109.073	0.0
109.088	6.0
109.103	5.0
109.118	12.0
109.133	2.0
109.147	4.0
109.162	5.0
109.177	3.0
109.192	2.0
109.207	2.0
109.222	5.0
109.237	8.0
109.252	3.0
109.267	2.0
109.281	4.0
109.296	4.0
109.311	0.0
109.326	1.0
109.341	2.0
109.356	4.0
109.371	6.0
109.386	4.0
109.4	4.0
109.415	5.0
109.43	1.0
109.445	4.0
109.46	7.0
109.475	4.0
109.49	0.0
109.505	4.0
109.52	5.0
109.534	5.0
109.549	1.0
109.564	3.0
109.579	5.0
109.594	3.0
109.609	2.0
109.624	4.0
109.639	4.0
109.653	2.0
109.668	3.0
109.683	3.0
109.698	4.0
109.713	0.0
109.728	7.0
109.743	3.0
109.758	5.0
109.773	4.0
109.787	5.0
109.802	3.0
109.817	1.0
109.832	5.0
109.847	8.0
109.862	3.0
109.877	10.0
109.892	3.0
109.907	2.0
109.921	3.0
109.936	4.0
109.951	5.0
109.966	4.0
109.981	5.0
109.996	1.0
110.011	6.0
110.026	3.0
110.04	4.0
110.055	5.0
110.07	1.0
110.085	5.0
110.1	9.0
110.115	1.0
110.13	4.0
110.145	4.0
110.16	2.0
110.174	3.0
110.189	2.0
110.204	1.0
110.219	1.0
110.234	1.0
110.249	3.0
110.264	3.0
110.279	2.0
110.294	3.0
110.308	8.0
110.323	1.0
110.338	1.0
110.353	5.0
110.368	4.0
110.383	6.0
110.398	3.0
110.413	1.0
110.428	3.0
110.442	2.0
110.457	1.0
110.472	5.0
110.487	5.0
110.502	4.0
110.517	3.0
110.532	0.0
110.547	3.0
110.561	1.0
110.576	2.0
110.591	5.0
110.606	2.0
110.621	2.0
110.636	1.0
110.651	3.0
110.666	5.0
110.681	5.0
110.695	6.0
110.71	6.0
110.725	4.0
110.74	2.0
110.755	2.0
110.77	3.0
110.785	3.0
110.8	4.0
110.815	1.0
110.829	2.0
110.844	3.0
110.859	1.0
110.874	3.0
110.889	5.0
110.904	4.0
110.919	3.0
110.934	4.0
110.948	0.0
110.963	4.0
110.978	9.0
110.993	0.0
111.008	3.0
111.023	5.0
111.038	6.0
111.053	2.0
111.067	2.0
111.082	2.0
111.097	2.0
111.112	3.0
111.127	3.0
111.142	4.0
111.157	4.0
111.172	3.0
111.186	3.0
111.201	8.0
111.216	1.0
111.231	3.0
111.246	4.0
111.261	1.0
111.276	2.0
111.291	4.0
111.305	4.0
111.32	5.0
111.335	8.0
111.35	5.0
111.365	2.0
111.38	4.0
111.395	1.0
111.41	2.0
111.424	3.0
111.439	6.0
111.454	1.0
111.469	2.0
111.484	5.0
111.499	0.0
111.514	7.0
111.528	2.0
111.543	3.0
111.558	4.0
111.573	5.0
111.588	5.0
111.603	1.0
111.618	4.0
111.633	5.0
111.647	3.0
111.662	2.0
111.677	3.0
111.692	1.0
111.707	3.0
111.722	6.0
111.737	5.0
111.751	4.0
111.766	4.0
111.781	4.0
111.796	7.0
111.811	3.0
111.826	4.0
111.84	3.0
111.855	7.0
111.87	3.0
111.885	3.0
111.9	1.0
111.915	4.0
111.93	6.0
111.944	2.0
111.959	6.0
111.974	3.0
111.989	3.0
112.004	3.0
112.019	6.0
112.033	3.0
112.048	0.0
112.063	2.0
112.078	5.0
112.093	5.0
112.108	5.0
112.123	4.0
112.137	4.0
112.152	6.0
112.167	2.0
112.182	2.0
112.197	0.0
112.212	3.0
112.226	2.0
112.241	2.0
112.256	3.0
112.271	3.0
112.286	2.0
112.301	3.0
112.315	1.0
112.33	3.0
112.345	3.0
112.36	3.0
112.375	6.0
112.389	4.0
112.404	4.0
112.419	3.0
112.434	6.0
112.449	0.0
112.464	5.0
112.478	2.0
112.493	6.0
112.508	3.0
112.523	4.0
112.538	1.0
112.553	0.0
112.567	2.0
112.582	3.0
112.597	3.0
112.612	3.0
112.627	7.0
112.642	4.0
112.656	4.0
112.671	5.0
112.686	6.0
112.701	2.0
112.716	3.0
112.73	3.0
112.745	2.0
112.76	3.0
112.775	3.0
112.79	2.0
112.805	5.0
112.819	2.0
112.834	3.0
112.849	2.0
112.864	3.0
112.879	5.0
112.894	5.0
112.908	5.0
112.923	1.0
112.938	4.0
112.953	4.0
112.968	9.0
112.983	4.0
112.997	5.0
113.012	2.0
113.027	4.0
113.042	0.0
113.057	5.0
113.072	4.0
113.086	6.0
113.101	2.0
113.116	5.0
113.131	5.0
113.146	4.0
113.161	2.0
113.175	1.0
113.19	4.0
113.205	2.0
113.22	1.0
113.235	2.0
113.25	3.0
113.265	2.0
113.279	4.0
113.294	5.0
113.309	4.0
113.324	3.0
113.339	2.0
113.354	3.0
113.368	3.0
113.383	2.0
113.398	3.0
113.413	2.0
113.428	3.0
113.443	3.0
113.458	3.0
113.472	5.0
113.487	7.0
113.502	3.0
113.517	5.0
113.532	4.0
113.547	2.0
113.562	3.0
113.576	4.0
113.591	3.0
113.606	3.0
113.621	5.0
113.636	4.0
113.651	5.0
113.666	6.0
113.681	5.0
113.695	3.0
113.71	2.0
113.725	4.0
113.74	2.0
113.755	2.0
113.77	6.0
113.785	6.0
113.8	7.0
113.814	4.0
113.829	4.0
113.844	2.0
113.859	6.0
113.874	4.0
113.889	1.0
113.904	3.0
113.919	3.0
113.934	2.0
113.949	2.0
113.963	3.0
113.978	2.0
113.993	3.0
114.008	3.0
114.023	5.0
114.038	3.0
114.053	7.0
114.068	1.0
114.083	5.0
114.098	4.0
114.113	2.0
114.127	2.0
114.142	1.0
114.157	3.0
114.172	3.0
114.187	4.0
114.202	5.0
114.217	3.0
114.232	1.0
114.247	5.0
114.262	3.0
114.277	2.0
114.292	6.0
114.307	5.0
114.322	1.0
114.337	0.0
114.351	2.0
114.366	4.0
114.381	2.0
114.396	2.0
114.411	4.0
114.426	5.0
114.441	1.0
114.456	8.0
114.471	4.0
114.486	2.0
114.501	3.0
114.516	5.0
114.531	0.0
114.546	2.0
114.561	3.0
114.576	6.0
114.591	4.0
114.606	1.0
114.621	6.0
114.636	2.0
114.65	7.0
114.665	1.0
114.68	7.0
114.695	4.0
114.71	5.0
114.725	3.0
114.74	2.0
114.755	3.0
114.77	2.0
114.785	8.0
114.8	2.0
114.815	5.0
114.83	4.0
114.845	3.0
114.86	4.0
114.875	4.0
114.89	4.0
114.905	4.0
114.92	2.0
114.935	6.0
114.95	3.0
114.965	7.0
114.98	3.0
114.995	1.0
115.009	2.0
115.024	2.0
115.039	3.0
115.054	3.0
115.069	7.0
115.084	3.0
115.099	1.0
115.114	6.0
115.129	5.0
115.144	6.0
115.159	1.0
115.174	2.0
115.189	1.0
115.204	0.0
115.219	0.0
115.234	1.0
115.249	3.0
115.264	7.0
115.279	2.0
115.294	6.0
115.309	7.0
115.323	5.0
115.338	3.0
115.353	2.0
115.368	4.0
115.383	3.0
115.398	1.0
115.413	2.0
115.428	5.0
115.443	8.0
115.458	4.0
115.473	3.0
115.488	2.0
115.503	6.0
115.518	2.0
115.533	6.0
115.548	3.0
115.562	2.0
115.577	2.0
115.592	3.0
115.607	9.0
115.622	5.0
115.637	7.0
115.652	4.0
115.667	3.0
115.682	2.0
115.697	2.0
115.712	1.0
115.727	2.0
115.741	2.0
115.756	5.0
115.771	6.0
115.786	1.0
115.801	2.0
115.816	1.0
115.831	5.0
115.846	3.0
115.861	4.0
115.875	2.0
115.89	3.0
115.905	5.0
115.92	5.0
115.935	7.0
115.95	4.0
115.965	4.0
115.98	3.0
115.995	1.0
116.009	6.0
116.024	3.0
116.039	3.0
116.054	2.0
116.069	3.0
116.084	4.0
116.099	6.0
116.113	5.0
116.128	5.0
116.143	3.0
116.158	5.0
116.173	8.0
116.188	4.0
116.202	3.0
116.217	3.0
116.232	7.0
116.247	4.0
116.262	4.0
116.277	2.0
116.291	4.0
116.306	0.0
116.321	3.0
116.336	3.0
116.351	4.0
116.366	2.0
116.38	4.0
116.395	3.0
116.41	7.0
116.425	3.0
116.44	0.0
116.454	1.0
116.469	5.0
116.484	4.0
116.499	4.0
116.514	3.0
116.528	3.0
116.543	2.0
116.558	2.0
116.573	5.0
116.588	2.0
116.602	2.0
116.617	1.0
116.632	4.0
116.647	8.0
116.662	5.0
116.676	6.0
116.691	0.0
116.706	3.0
116.721	4.0
116.735	5.0
116.75	3.0
116.765	4.0
116.78	3.0
116.795	1.0
116.809	5.0
116.824	3.0
116.839	1.0
116.854	5.0
116.868	4.0
116.883	1.0
116.898	2.0
116.913	5.0
116.927	5.0
116.942	8.0
116.957	3.0
116.972	4.0
116.986	3.0
117.001	4.0
117.016	6.0
117.031	1.0
117.045	2.0
117.06	2.0
117.075	6.0
117.09	4.0
117.104	3.0
117.119	3.0
117.134	4.0
117.149	6.0
117.163	4.0
117.178	7.0
117.193	6.0
117.208	5.0
117.222	7.0
117.237	1.0
117.252	3.0
117.267	9.0
117.281	4.0
117.296	3.0
117.311	7.0
117.325	4.0
117.34	5.0
117.355	5.0
117.37	5.0
117.384	1.0
117.399	4.0
117.414	4.0
117.429	3.0
117.443	3.0
117.458	2.0
117.473	5.0
117.487	7.0
117.502	1.0
117.517	3.0
117.532	8.0
117.546	4.0
117.561	2.0
117.576	6.0
117.59	1.0
117.605	3.0
117.62	2.0
117.635	1.0
117.649	3.0
117.664	0.0
117.679	3.0
117.693	6.0
117.708	3.0
117.723	3.0
117.738	4.0
117.752	4.0
117.767	3.0
117.782	3.0
117.796	8.0
117.811	0.0
117.826	3.0
117.841	4.0
117.855	1.0
117.87	1.0
117.885	4.0
117.899	2.0
117.914	7.0
117.929	2.0
117.944	3.0
117.958	6.0
117.973	6.0
117.988	5.0
118.002	4.0
118.017	5.0
118.032	5.0
118.047	5.0
118.062	2.0
118.077	7.0
118.092	6.0
118.107	8.0
118.121	2.0
118.136	6.0
118.151	3.0
118.166	4.0
118.181	7.0
118.196	2.0
118.211	2.0
118.225	5.0
118.24	7.0
118.255	4.0
118.27	6.0
118.285	2.0
118.3	1.0
118.315	1.0
118.33	3.0
118.344	7.0
118.359	3.0
118.374	5.0
118.389	3.0
118.404	1.0
118.419	6.0
118.434	4.0
118.449	2.0
118.463	4.0
118.478	2.0
118.493	1.0
118.508	2.0
118.523	4.0
118.538	1.0
118.553	3.0
118.567	5.0
118.582	3.0
118.597	3.0
118.612	4.0
118.627	3.0
118.642	5.0
118.657	3.0
118.672	6.0
118.686	2.0
118.701	4.0
118.716	3.0
118.731	1.0
118.746	5.0
118.761	3.0
118.776	2.0
118.791	2.0
118.805	3.0
118.82	3.0
118.835	4.0
118.85	3.0
118.865	0.0
118.88	7.0
118.895	9.0
118.909	7.0
118.924	3.0
118.939	5.0
118.954	2.0
118.969	7.0
118.984	3.0
118.999	2.0
119.014	5.0
119.028	1.0
119.043	5.0
119.058	3.0
119.073	5.0
119.088	5.0
119.103	4.0
119.118	4.0
119.133	2.0
119.147	4.0
119.162	1.0
119.177	4.0
119.192	4.0
119.207	4.0
119.222	2.0
119.237	5.0
119.251	5.0
119.266	6.0
119.281	8.0
119.296	7.0
119.311	6.0
119.326	4.0
119.341	0.0
119.356	5.0
119.37	5.0
119.385	3.0
119.4	6.0
119.415	3.0
119.43	4.0
119.445	1.0
119.46	3.0
119.475	2.0
119.489	3.0
119.504	3.0
119.519	4.0
119.534	6.0
119.549	4.0
119.564	7.0
119.579	6.0
119.593	1.0
119.608	3.0
119.623	10.0
119.638	7.0
119.653	5.0
119.668	2.0
119.683	1.0
119.698	4.0
119.712	1.0
119.727	3.0
119.742	5.0
119.757	5.0
119.772	1.0
119.787	3.0
119.802	3.0
119.817	3.0
119.831	1.0
119.846	1.0
119.861	3.0
119.876	7.0
119.891	2.0
119.906	7.0
119.921	2.0
119.935	0.0
119.95	3.0
119.965	2.0
119.98	6.0
119.995	5.0
120.01	4.0
120.025	3.0
120.04	1.0
120.054	3.0
120.069	1.0
120.084	2.0
120.099	0.0
120.114	1.0
120.129	3.0
120.144	1.0
120.159	0.0
120.173	2.0
120.188	0.0
120.203	3.0
120.218	0.0
120.233	3.0
120.248	2.0
120.263	0.0
120.277	0.0
120.292	0.0
120.307	1.0
120.322	1.0
120.337	0.0
120.352	0.0
120.367	0.0
120.382	0.0
120.396	1.0
120.411	0.0
120.426	0.0
120.441	0.0
120.456	0.0
120.471	1.0
120.486	0.0
120.501	0.0
120.515	0.0
120.53	0.0
120.545	0.0
120.56	0.0
120.575	0.0
120.59	1.0
120.605	0.0
120.619	0.0
120.634	1.0
120.649	0.0
120.664	1.0
120.679	0.0
120.694	0.0
120.709	0.0
120.724	0.0
120.738	0.0
120.753	0.0
120.768	0.0
120.783	0.0
120.798	0.0
120.813	0.0
120.828	0.0
120.843	0.0
120.857	1.0
120.872	0.0
120.887	0.0
120.902	0.0
120.917	0.0
120.932	0.0
120.947	0.0
120.961	0.0
120.976	0.0
