-1.217	0.0
-1.202	0.0
-1.187	0.0
-1.172	0.0
-1.157	0.0
-1.142	0.0
-1.128	1.0
-1.113	0.0
-1.098	0.0
-1.083	0.0
-1.068	0.0
-1.054	0.0
-1.039	0.0
-1.024	0.0
-1.009	0.0
-0.994	0.0
-0.979	0.0
-0.965	0.0
-0.95	0.0
-0.935	0.0
-0.92	0.0
-0.905	0.0
-0.891	0.0
-0.876	0.0
-0.861	0.0
-0.846	0.0
-0.831	0.0
-0.816	0.0
-0.802	0.0
-0.787	0.0
-0.772	0.0
-0.757	0.0
-0.742	0.0
-0.728	0.0
-0.713	0.0
-0.698	0.0
-0.683	0.0
-0.668	0.0
-0.653	0.0
-0.639	0.0
-0.624	0.0
-0.609	0.0
-0.594	0.0
-0.579	0.0
-0.565	0.0
-0.55	0.0
-0.535	0.0
-0.52	0.0
-0.505	0.0
-0.49	0.0
-0.476	0.0
-0.461	0.0
-0.446	0.0
-0.431	0.0
-0.416	0.0
-0.401	1.0
-0.387	0.0
-0.372	0.0
-0.357	0.0
-0.342	0.0
-0.327	0.0
-0.313	0.0
-0.298	0.0
-0.283	0.0
-0.268	0.0
-0.253	0.0
-0.238	0.0
-0.224	0.0
-0.209	0.0
-0.194	0.0
-0.179	0.0
-0.164	0.0
-0.15	0.0
-0.135	0.0
-0.12	0.0
-0.105	0.0
-0.09	0.0
-0.075	0.0
-0.061	0.0
-0.046	0.0
-0.031	0.0
-0.016	0.0
-0.001	0.0
0.013	0.0
0.028	0.0
0.043	0.0
0.058	0.0
0.073	0.0
0.088	0.0
0.102	0.0
0.117	0.0
0.132	0.0
0.147	0.0
0.162	0.0
0.176	0.0
0.191	0.0
0.206	0.0
0.221	1.0
0.236	0.0
0.251	0.0
0.265	0.0
0.28	0.0
0.295	0.0
0.31	0.0
0.325	0.0
0.339	0.0
0.354	0.0
0.369	0.0
0.384	0.0
0.399	0.0
0.414	0.0
0.428	0.0
0.443	0.0
0.458	0.0
0.473	0.0
0.488	0.0
0.502	0.0
0.517	0.0
0.532	0.0
0.547	0.0
0.562	0.0
0.577	0.0
0.591	0.0
0.606	0.0
0.621	0.0
0.636	0.0
0.651	0.0
0.665	0.0
0.68	0.0
0.695	0.0
0.71	0.0
0.725	0.0
0.74	0.0
0.754	0.0
0.769	0.0
0.784	0.0
0.799	0.0
0.814	0.0
0.828	0.0
0.843	0.0
0.858	0.0
0.873	0.0
0.888	0.0
0.903	0.0
0.917	0.0
0.932	0.0
0.947	0.0
0.962	0.0
0.977	1.0
0.991	0.0
1.006	0.0
1.021	0.0
1.036	0.0
1.051	0.0
1.065	0.0
1.08	0.0
1.095	1.0
1.11	0.0
1.125	0.0
1.14	0.0
1.154	0.0
1.169	0.0
1.184	0.0
1.199	0.0
1.214	0.0
1.228	0.0
1.243	0.0
1.258	0.0
1.273	0.0
1.288	0.0
1.302	0.0
1.317	0.0
1.332	0.0
1.347	0.0
1.362	0.0
1.376	0.0
1.391	0.0
1.406	0.0
1.421	0.0
1.436	0.0
1.45	0.0
1.465	0.0
1.48	0.0
1.495	0.0
1.51	0.0
1.524	0.0
1.539	1.0
1.554	0.0
1.569	0.0
1.584	0.0
1.598	0.0
1.613	0.0
1.628	0.0
1.643	0.0
1.658	0.0
1.672	0.0
1.687	0.0
1.702	0.0
1.717	0.0
1.732	0.0
1.746	0.0
1.761	0.0
1.776	0.0
1.791	1.0
1.806	0.0
1.82	0.0
1.835	0.0
1.85	0.0
1.865	0.0
1.88	0.0
1.894	0.0
1.909	1.0
1.924	0.0
1.939	1.0
1.954	0.0
1.968	0.0
1.983	0.0
1.998	0.0
2.013	0.0
2.028	0.0
2.042	0.0
2.057	0.0
2.072	0.0
2.087	0.0
2.101	0.0
2.116	0.0
2.131	0.0
2.146	1.0
2.161	1.0
2.175	0.0
2.19	1.0
2.205	0.0
2.22	1.0
2.235	0.0
2.249	0.0
2.264	0.0
2.279	0.0
2.294	0.0
2.308	1.0
2.323	2.0
2.338	2.0
2.353	1.0
2.368	0.0
2.382	2.0
2.397	4.0
2.412	1.0
2.427	1.0
2.442	0.0
2.456	2.0
2.471	1.0
2.486	0.0
2.501	3.0
2.515	1.0
2.53	0.0
2.545	4.0
2.56	4.0
2.575	2.0
2.589	3.0
2.604	1.0
2.619	3.0
2.634	1.0
2.649	2.0
2.663	1.0
2.678	1.0
2.693	2.0
2.708	2.0
2.722	2.0
2.737	1.0
2.752	2.0
2.767	4.0
2.782	4.0
2.796	3.0
2.811	1.0
2.826	1.0
2.841	1.0
2.856	2.0
2.87	2.0
2.885	2.0
2.9	5.0
2.915	2.0
2.93	1.0
2.944	6.0
2.959	1.0
2.974	1.0
2.989	4.0
3.004	8.0
3.018	3.0
3.033	2.0
3.048	3.0
3.063	2.0
3.078	2.0
3.092	3.0
3.107	1.0
3.122	4.0
3.137	4.0
3.152	3.0
3.166	4.0
3.181	2.0
3.196	1.0
3.211	0.0
3.226	9.0
3.24	4.0
3.255	8.0
3.27	5.0
3.285	1.0
3.3	1.0
3.315	13.0
3.329	6.0
3.344	2.0
3.359	3.0
3.374	6.0
3.389	1.0
3.403	6.0
3.418	3.0
3.433	2.0
3.448	3.0
3.463	5.0
3.478	5.0
3.492	5.0
3.507	3.0
3.522	3.0
3.537	5.0
3.552	6.0
3.567	4.0
3.581	8.0
3.596	10.0
3.611	9.0
3.626	4.0
3.641	3.0
3.656	12.0
3.671	5.0
3.685	7.0
3.7	6.0
3.715	4.0
3.73	6.0
3.745	3.0
3.76	9.0
3.775	3.0
3.789	8.0
3.804	8.0
3.819	4.0
3.834	9.0
3.849	7.0
3.864	1.0
3.879	3.0
3.894	7.0
3.908	5.0
3.923	8.0
3.938	3.0
3.953	6.0
3.968	5.0
3.983	8.0
3.998	8.0
4.013	10.0
4.027	6.0
4.042	10.0
4.057	9.0
4.072	4.0
4.087	6.0
4.102	4.0
4.117	6.0
4.132	8.0
4.147	4.0
4.162	6.0
4.176	8.0
4.191	6.0
4.206	4.0
4.221	5.0
4.236	5.0
4.251	6.0
4.266	4.0
4.281	8.0
4.296	5.0
4.311	5.0
4.326	12.0
4.341	10.0
4.356	3.0
4.37	14.0
4.385	5.0
4.4	4.0
4.415	6.0
4.43	5.0
4.445	3.0
4.46	11.0
4.475	8.0
4.49	7.0
4.505	7.0
4.52	5.0
4.535	11.0
4.55	10.0
4.565	8.0
4.58	9.0
4.595	3.0
4.61	11.0
4.625	11.0
4.639	9.0
4.654	9.0
4.669	4.0
4.684	7.0
4.699	4.0
4.714	7.0
4.729	12.0
4.744	8.0
4.759	10.0
4.774	4.0
4.789	8.0
4.804	10.0
4.819	5.0
4.834	12.0
4.849	11.0
4.864	7.0
4.879	6.0
4.894	11.0
4.909	7.0
4.924	11.0
4.939	9.0
4.954	4.0
4.969	10.0
4.984	6.0
4.999	3.0
5.014	7.0
5.029	11.0
5.044	7.0
5.059	7.0
5.074	4.0
5.089	14.0
5.104	10.0
5.119	6.0
5.134	5.0
5.149	11.0
5.164	9.0
5.179	10.0
5.194	2.0
5.209	4.0
5.224	5.0
5.239	7.0
5.254	13.0
5.269	5.0
5.284	5.0
5.299	11.0
5.314	9.0
5.329	7.0
5.344	5.0
5.359	8.0
5.374	15.0
5.389	9.0
5.404	8.0
5.419	6.0
5.434	4.0
5.449	9.0
5.464	10.0
5.479	7.0
5.494	6.0
5.509	8.0
5.524	7.0
5.539	3.0
5.554	14.0
5.569	6.0
5.584	10.0
5.599	9.0
5.614	8.0
5.629	6.0
5.644	8.0
5.659	4.0
5.674	11.0
5.689	7.0
5.704	5.0
5.719	10.0
5.734	8.0
5.749	7.0
5.764	8.0
5.779	12.0
5.794	10.0
5.809	6.0
5.824	8.0
5.839	4.0
5.854	8.0
5.869	6.0
5.884	9.0
5.899	8.0
5.914	14.0
5.929	8.0
5.944	8.0
5.959	7.0
5.974	10.0
5.989	6.0
6.004	8.0
6.019	10.0
6.034	11.0
6.049	11.0
6.064	9.0
6.079	7.0
6.094	8.0
6.109	7.0
6.124	10.0
6.139	5.0
6.154	3.0
6.169	10.0
6.184	8.0
6.199	6.0
6.214	8.0
6.229	11.0
6.244	10.0
6.259	7.0
6.274	10.0
6.289	5.0
6.304	13.0
6.319	8.0
6.334	6.0
6.349	11.0
6.364	6.0
6.379	5.0
6.394	7.0
6.409	6.0
6.424	13.0
6.439	11.0
6.454	8.0
6.469	13.0
6.484	11.0
6.499	7.0
6.514	4.0
6.529	2.0
6.544	6.0
6.559	10.0
6.574	11.0
6.589	14.0
6.604	5.0
6.619	9.0
6.634	15.0
6.649	13.0
6.664	9.0
6.679	13.0
6.694	4.0
6.709	7.0
6.724	13.0
6.739	8.0
6.754	9.0
6.769	9.0
6.784	7.0
6.799	7.0
6.814	8.0
6.829	5.0
6.844	7.0
6.859	13.0
6.873	10.0
6.888	10.0
6.903	6.0
6.918	8.0
6.933	8.0
6.948	14.0
6.963	7.0
6.978	7.0
6.993	7.0
7.008	12.0
7.023	14.0
7.038	8.0
7.053	6.0
7.068	11.0
7.083	6.0
7.098	11.0
7.113	3.0
7.128	9.0
7.143	5.0
7.157	5.0
7.172	6.0
7.187	6.0
7.202	12.0
7.217	14.0
7.232	14.0
7.247	14.0
7.262	5.0
7.277	12.0
7.292	3.0
7.307	15.0
7.322	5.0
7.336	5.0
7.351	8.0
7.366	13.0
7.381	6.0
7.396	8.0
7.411	12.0
7.426	7.0
7.441	5.0
7.456	8.0
7.471	7.0
7.485	5.0
7.5	9.0
7.515	3.0
7.53	6.0
7.545	10.0
7.56	15.0
7.575	12.0
7.59	8.0
7.604	7.0
7.619	10.0
7.634	6.0
7.649	10.0
7.664	12.0
7.679	5.0
7.693	8.0
7.708	8.0
7.723	6.0
7.738	9.0
7.753	7.0
7.768	5.0
7.783	1.0
7.797	7.0
7.812	5.0
7.827	9.0
7.842	13.0
7.857	4.0
7.871	10.0
7.886	8.0
7.901	10.0
7.916	7.0
7.931	9.0
7.945	10.0
7.96	9.0
7.975	9.0
7.99	22.0
8.005	12.0
8.019	7.0
8.034	8.0
8.049	4.0
8.064	4.0
8.078	2.0
8.093	5.0
8.108	6.0
8.123	4.0
8.137	5.0
8.152	8.0
8.167	9.0
8.182	6.0
8.196	9.0
8.211	4.0
8.226	9.0
8.241	9.0
8.255	8.0
8.27	12.0
8.285	4.0
8.3	10.0
8.314	13.0
8.329	9.0
8.344	11.0
8.358	4.0
8.373	10.0
8.388	4.0
8.403	4.0
8.417	8.0
8.432	8.0
8.447	11.0
8.461	9.0
8.476	12.0
8.491	6.0
8.505	9.0
8.52	5.0
8.535	4.0
8.55	8.0
8.564	7.0
8.579	6.0
8.594	11.0
8.608	10.0
8.623	12.0
8.638	6.0
8.652	11.0
8.667	7.0
8.682	12.0
8.696	8.0
8.711	16.0
8.726	11.0
8.74	11.0
8.755	8.0
8.77	5.0
8.784	7.0
8.799	4.0
8.814	7.0
8.828	14.0
8.843	8.0
8.858	9.0
8.872	10.0
8.887	10.0
8.902	6.0
8.916	6.0
8.931	7.0
8.946	6.0
8.96	3.0
8.975	7.0
8.99	6.0
9.004	9.0
9.019	10.0
9.034	6.0
9.048	4.0
9.063	8.0
9.077	14.0
9.092	9.0
9.107	4.0
9.121	6.0
9.136	8.0
9.151	12.0
9.165	6.0
9.18	10.0
9.195	7.0
9.209	3.0
9.224	8.0
9.239	5.0
9.253	7.0
9.268	7.0
9.283	10.0
9.297	10.0
9.312	11.0
9.327	4.0
9.341	10.0
9.356	6.0
9.371	11.0
9.385	15.0
9.4	10.0
9.415	12.0
9.429	7.0
9.444	6.0
9.458	10.0
9.473	13.0
9.488	8.0
9.502	6.0
9.517	8.0
9.532	6.0
9.546	7.0
9.561	7.0
9.576	9.0
9.59	7.0
9.605	7.0
9.62	8.0
9.635	4.0
9.649	10.0
9.664	4.0
9.679	9.0
9.693	10.0
9.708	10.0
9.723	4.0
9.737	7.0
9.752	8.0
9.767	6.0
9.781	10.0
9.796	13.0
9.811	13.0
9.825	8.0
9.84	5.0
9.855	8.0
9.87	3.0
9.884	8.0
9.899	10.0
9.914	11.0
9.928	7.0
9.943	5.0
9.958	7.0
9.973	8.0
9.987	5.0
10.002	6.0
10.017	5.0
10.031	7.0
10.046	8.0
10.061	5.0
10.076	4.0
10.09	6.0
10.105	4.0
10.12	3.0
10.135	7.0
10.149	9.0
10.164	8.0
10.179	5.0
10.194	5.0
10.208	5.0
10.223	13.0
10.238	4.0
10.253	3.0
10.267	9.0
10.282	6.0
10.297	6.0
10.312	8.0
10.326	10.0
10.341	10.0
10.356	12.0
10.371	5.0
10.386	3.0
10.4	9.0
10.415	11.0
10.43	7.0
10.445	4.0
10.46	11.0
10.474	6.0
10.489	14.0
10.504	9.0
10.519	6.0
10.533	10.0
10.548	10.0
10.563	8.0
10.578	5.0
10.593	5.0
10.608	8.0
10.622	5.0
10.637	5.0
10.652	5.0
10.667	12.0
10.682	6.0
10.696	7.0
10.711	9.0
10.726	9.0
10.741	6.0
10.756	10.0
10.771	5.0
10.785	8.0
10.8	4.0
10.815	5.0
10.83	8.0
10.845	6.0
10.86	10.0
10.874	9.0
10.889	4.0
10.904	7.0
10.919	5.0
10.934	9.0
10.949	9.0
10.963	15.0
10.978	6.0
10.993	7.0
11.008	8.0
11.023	8.0
11.038	7.0
11.053	6.0
11.067	7.0
11.082	12.0
11.097	7.0
11.112	8.0
11.127	12.0
11.142	9.0
11.157	10.0
11.172	9.0
11.186	13.0
11.201	9.0
11.216	6.0
11.231	9.0
11.246	8.0
11.261	7.0
11.276	5.0
11.291	6.0
11.305	9.0
11.32	6.0
11.335	10.0
11.35	8.0
11.365	8.0
11.38	10.0
11.395	9.0
11.41	8.0
11.424	12.0
11.439	8.0
11.454	10.0
11.469	9.0
11.484	8.0
11.499	9.0
11.514	8.0
11.529	6.0
11.544	7.0
11.558	7.0
11.573	4.0
11.588	9.0
11.603	8.0
11.618	10.0
11.633	11.0
11.648	8.0
11.663	8.0
11.678	7.0
11.693	3.0
11.707	7.0
11.722	6.0
11.737	10.0
11.752	1.0
11.767	7.0
11.782	5.0
11.797	6.0
11.812	9.0
11.827	12.0
11.842	8.0
11.856	14.0
11.871	3.0
11.886	9.0
11.901	11.0
11.916	9.0
11.931	5.0
11.946	8.0
11.961	11.0
11.976	14.0
11.991	6.0
12.006	5.0
12.02	7.0
12.035	4.0
12.05	12.0
12.065	12.0
12.08	13.0
12.095	6.0
12.11	7.0
12.125	12.0
12.14	10.0
12.155	9.0
12.17	7.0
12.184	14.0
12.199	9.0
12.214	7.0
12.229	11.0
12.244	8.0
12.259	14.0
12.274	11.0
12.289	11.0
12.304	12.0
12.319	6.0
12.334	9.0
12.348	10.0
12.363	15.0
12.378	6.0
12.393	9.0
12.408	11.0
12.423	14.0
12.438	13.0
12.453	15.0
12.468	7.0
12.483	13.0
12.498	13.0
12.513	11.0
12.527	15.0
12.542	8.0
12.557	15.0
12.572	14.0
12.587	15.0
12.602	9.0
12.617	13.0
12.632	19.0
12.647	13.0
12.662	18.0
12.677	13.0
12.692	23.0
12.707	13.0
12.721	13.0
12.736	9.0
12.751	18.0
12.766	12.0
12.781	9.0
12.796	12.0
12.811	18.0
12.826	12.0
12.841	12.0
12.856	15.0
12.871	11.0
12.886	15.0
12.9	12.0
12.915	16.0
12.93	19.0
12.945	15.0
12.96	17.0
12.975	21.0
12.99	13.0
13.005	11.0
13.02	21.0
13.035	12.0
13.05	18.0
13.065	11.0
13.08	20.0
13.094	10.0
13.109	11.0
13.124	12.0
13.139	14.0
13.154	18.0
13.169	14.0
13.184	12.0
13.199	22.0
13.214	9.0
13.229	14.0
13.244	21.0
13.259	25.0
13.274	17.0
13.288	16.0
13.303	15.0
13.318	20.0
13.333	23.0
13.348	17.0
13.363	25.0
13.378	32.0
13.393	23.0
13.408	25.0
13.423	27.0
13.438	31.0
13.453	28.0
13.468	29.0
13.482	40.0
13.497	37.0
13.512	28.0
13.527	32.0
13.542	40.0
13.557	39.0
13.572	57.0
13.587	46.0
13.602	59.0
13.617	39.0
13.632	76.0
13.647	76.0
13.662	68.0
13.677	89.0
13.691	69.0
13.706	96.0
13.721	96.0
13.736	89.0
13.751	85.0
13.766	97.0
13.781	118.0
13.796	117.0
13.811	128.0
13.826	130.0
13.841	130.0
13.856	87.0
13.871	121.0
13.885	85.0
13.9	87.0
13.915	83.0
13.93	68.0
13.945	55.0
13.96	46.0
13.975	41.0
13.99	36.0
14.005	32.0
14.02	37.0
14.035	26.0
14.05	28.0
14.065	28.0
14.08	30.0
14.094	27.0
14.109	27.0
14.124	20.0
14.139	17.0
14.154	21.0
14.169	23.0
14.184	15.0
14.199	24.0
14.214	12.0
14.229	14.0
14.244	16.0
14.259	15.0
14.274	15.0
14.288	23.0
14.303	22.0
14.318	21.0
14.333	15.0
14.348	10.0
14.363	19.0
14.378	19.0
14.393	12.0
14.408	12.0
14.423	10.0
14.438	15.0
14.453	20.0
14.468	13.0
14.482	17.0
14.497	10.0
14.512	15.0
14.527	18.0
14.542	9.0
14.557	16.0
14.572	11.0
14.587	12.0
14.602	13.0
14.617	23.0
14.632	15.0
14.647	19.0
14.661	18.0
14.676	10.0
14.691	15.0
14.706	12.0
14.721	7.0
14.736	16.0
14.751	12.0
14.766	16.0
14.781	16.0
14.796	15.0
14.811	10.0
14.826	19.0
14.84	8.0
14.855	7.0
14.87	18.0
14.885	14.0
14.9	10.0
14.915	18.0
14.93	19.0
14.945	21.0
14.96	13.0
14.975	14.0
14.989	24.0
15.004	14.0
15.019	15.0
15.034	20.0
15.049	13.0
15.064	12.0
15.079	14.0
15.094	14.0
15.109	13.0
15.124	16.0
15.138	13.0
15.153	13.0
15.168	15.0
15.183	14.0
15.198	20.0
15.213	18.0
15.228	23.0
15.243	15.0
15.258	13.0
15.272	11.0
15.287	8.0
15.302	12.0
15.317	14.0
15.332	9.0
15.347	14.0
15.362	19.0
15.377	19.0
15.391	14.0
15.406	10.0
15.421	14.0
15.436	19.0
15.451	15.0
15.466	15.0
15.481	17.0
15.496	13.0
15.51	9.0
15.525	18.0
15.54	12.0
15.555	11.0
15.57	11.0
15.585	11.0
15.6	9.0
15.614	17.0
15.629	10.0
15.644	11.0
15.659	11.0
15.674	25.0
15.689	16.0
15.704	15.0
15.718	12.0
15.733	14.0
15.748	12.0
15.763	11.0
15.778	13.0
15.793	13.0
15.808	14.0
15.822	12.0
15.837	11.0
15.852	15.0
15.867	14.0
15.882	11.0
15.897	14.0
15.911	4.0
15.926	12.0
15.941	16.0
15.956	12.0
15.971	15.0
15.986	14.0
16.0	14.0
16.015	15.0
16.03	13.0
16.045	16.0
16.06	13.0
16.074	11.0
16.089	13.0
16.104	11.0
16.119	18.0
16.134	9.0
16.149	15.0
16.163	15.0
16.178	9.0
16.193	8.0
16.208	17.0
16.223	17.0
16.237	16.0
16.252	17.0
16.267	10.0
16.282	12.0
16.297	18.0
16.311	12.0
16.326	14.0
16.341	9.0
16.356	12.0
16.37	19.0
16.385	16.0
16.4	20.0
16.415	12.0
16.43	18.0
16.444	12.0
16.459	20.0
16.474	13.0
16.489	22.0
16.504	13.0
16.518	11.0
16.533	10.0
16.548	11.0
16.563	16.0
16.577	14.0
16.592	10.0
16.607	16.0
16.622	19.0
16.637	22.0
16.651	17.0
16.666	26.0
16.681	28.0
16.696	22.0
16.71	22.0
16.725	29.0
16.74	28.0
16.755	37.0
16.77	29.0
16.784	38.0
16.799	27.0
16.814	46.0
16.829	39.0
16.843	44.0
16.858	39.0
16.873	54.0
16.888	61.0
16.902	60.0
16.917	68.0
16.932	63.0
16.947	73.0
16.961	63.0
16.976	80.0
16.991	52.0
17.006	63.0
17.021	61.0
17.035	51.0
17.05	49.0
17.065	39.0
17.08	35.0
17.094	35.0
17.109	31.0
17.124	33.0
17.139	27.0
17.153	20.0
17.168	14.0
17.183	18.0
17.198	12.0
17.212	14.0
17.227	15.0
17.242	14.0
17.257	12.0
17.271	16.0
17.286	17.0
17.301	15.0
17.316	12.0
17.33	18.0
17.345	15.0
17.36	12.0
17.375	8.0
17.39	17.0
17.404	16.0
17.419	15.0
17.434	11.0
17.449	16.0
17.463	16.0
17.478	13.0
17.493	8.0
17.508	12.0
17.522	10.0
17.537	10.0
17.552	14.0
17.567	16.0
17.581	6.0
17.596	13.0
17.611	10.0
17.626	12.0
17.641	17.0
17.655	9.0
17.67	11.0
17.685	8.0
17.7	24.0
17.714	17.0
17.729	14.0
17.744	11.0
17.759	8.0
17.773	16.0
17.788	12.0
17.803	13.0
17.818	12.0
17.833	16.0
17.847	9.0
17.862	11.0
17.877	8.0
17.892	19.0
17.906	12.0
17.921	12.0
17.936	9.0
17.951	15.0
17.966	14.0
17.98	7.0
17.995	11.0
18.01	14.0
18.025	11.0
18.04	12.0
18.054	12.0
18.069	16.0
18.084	14.0
18.099	10.0
18.114	13.0
18.128	10.0
18.143	9.0
18.158	12.0
18.173	11.0
18.188	8.0
18.202	13.0
18.217	11.0
18.232	13.0
18.247	9.0
18.262	13.0
18.276	9.0
18.291	9.0
18.306	12.0
18.321	16.0
18.336	8.0
18.35	13.0
18.365	9.0
18.38	7.0
18.395	13.0
18.41	11.0
18.424	10.0
18.439	17.0
18.454	9.0
18.469	11.0
18.484	10.0
18.498	12.0
18.513	9.0
18.528	12.0
18.543	11.0
18.558	13.0
18.573	13.0
18.587	9.0
18.602	12.0
18.617	11.0
18.632	11.0
18.647	11.0
18.661	14.0
18.676	15.0
18.691	15.0
18.706	8.0
18.721	10.0
18.736	13.0
18.75	9.0
18.765	9.0
18.78	16.0
18.795	10.0
18.81	9.0
18.825	8.0
18.839	7.0
18.854	6.0
18.869	14.0
18.884	9.0
18.899	6.0
18.913	14.0
18.928	14.0
18.943	11.0
18.958	11.0
18.973	14.0
18.988	11.0
19.002	7.0
19.017	15.0
19.032	10.0
19.047	12.0
19.062	9.0
19.077	9.0
19.091	15.0
19.106	5.0
19.121	10.0
19.136	10.0
19.151	15.0
19.165	12.0
19.18	18.0
19.195	9.0
19.21	13.0
19.225	8.0
19.24	13.0
19.254	15.0
19.269	21.0
19.284	13.0
19.299	9.0
19.314	6.0
19.329	14.0
19.343	13.0
19.358	13.0
19.373	12.0
19.388	14.0
19.403	16.0
19.417	15.0
19.432	23.0
19.447	18.0
19.462	15.0
19.477	32.0
19.492	27.0
19.506	33.0
19.521	40.0
19.536	37.0
19.551	40.0
19.566	28.0
19.58	41.0
19.595	33.0
19.61	48.0
19.625	49.0
19.64	33.0
19.655	35.0
19.669	28.0
19.684	31.0
19.699	24.0
19.714	24.0
19.729	20.0
19.743	29.0
19.758	22.0
19.773	23.0
19.788	18.0
19.803	14.0
19.817	24.0
19.832	18.0
19.847	12.0
19.862	9.0
19.877	8.0
19.891	9.0
19.906	10.0
19.921	12.0
19.936	11.0
19.951	8.0
19.965	10.0
19.98	15.0
19.995	8.0
20.01	16.0
20.025	12.0
20.039	14.0
20.054	9.0
20.069	8.0
20.084	11.0
20.099	8.0
20.113	10.0
20.128	10.0
20.143	14.0
20.158	10.0
20.173	12.0
20.187	9.0
20.202	10.0
20.217	9.0
20.232	14.0
20.246	10.0
20.261	20.0
20.276	12.0
20.291	13.0
20.306	19.0
20.32	7.0
20.335	11.0
20.35	9.0
20.365	4.0
20.38	12.0
20.394	9.0
20.409	18.0
20.424	6.0
20.439	9.0
20.453	12.0
20.468	7.0
20.483	11.0
20.498	8.0
20.513	15.0
20.527	10.0
20.542	13.0
20.557	11.0
20.572	7.0
20.586	14.0
20.601	8.0
20.616	11.0
20.631	10.0
20.646	13.0
20.66	9.0
20.675	7.0
20.69	11.0
20.705	8.0
20.719	11.0
20.734	10.0
20.749	9.0
20.764	10.0
20.779	12.0
20.793	10.0
20.808	6.0
20.823	11.0
20.838	11.0
20.853	15.0
20.867	7.0
20.882	10.0
20.897	10.0
20.912	9.0
20.926	14.0
20.941	6.0
20.956	9.0
20.971	15.0
20.986	9.0
21.0	9.0
21.015	8.0
21.03	10.0
21.045	13.0
21.06	14.0
21.074	9.0
21.089	8.0
21.104	11.0
21.119	12.0
21.134	12.0
21.148	10.0
21.163	10.0
21.178	13.0
21.193	11.0
21.208	10.0
21.222	9.0
21.237	16.0
21.252	11.0
21.267	7.0
21.282	17.0
21.296	15.0
21.311	9.0
21.326	11.0
21.341	11.0
21.356	11.0
21.37	15.0
21.385	13.0
21.4	10.0
21.415	14.0
21.43	16.0
21.444	12.0
21.459	13.0
21.474	17.0
21.489	15.0
21.504	13.0
21.519	12.0
21.533	10.0
21.548	8.0
21.563	6.0
21.578	12.0
21.593	15.0
21.608	13.0
21.622	11.0
21.637	14.0
21.652	7.0
21.667	28.0
21.682	16.0
21.697	26.0
21.712	14.0
21.726	28.0
21.741	19.0
21.756	22.0
21.771	30.0
21.786	36.0
21.801	35.0
21.816	40.0
21.83	52.0
21.845	45.0
21.86	53.0
21.875	55.0
21.89	77.0
21.905	65.0
21.92	59.0
21.935	77.0
21.949	59.0
21.964	69.0
21.979	91.0
21.994	72.0
22.009	70.0
22.024	65.0
22.039	46.0
22.054	43.0
22.069	54.0
22.083	55.0
22.098	40.0
22.113	36.0
22.128	32.0
22.143	22.0
22.158	31.0
22.173	18.0
22.188	12.0
22.203	17.0
22.218	13.0
22.233	21.0
22.248	20.0
22.262	17.0
22.277	15.0
22.292	22.0
22.307	12.0
22.322	19.0
22.337	13.0
22.352	6.0
22.367	12.0
22.382	14.0
22.397	16.0
22.412	15.0
22.427	9.0
22.442	13.0
22.457	13.0
22.472	17.0
22.487	14.0
22.502	14.0
22.516	12.0
22.531	4.0
22.546	8.0
22.561	13.0
22.576	9.0
22.591	14.0
22.606	10.0
22.621	14.0
22.636	8.0
22.651	13.0
22.666	14.0
22.681	26.0
22.696	18.0
22.711	17.0
22.726	8.0
22.741	10.0
22.756	7.0
22.771	12.0
22.786	14.0
22.801	13.0
22.816	13.0
22.831	8.0
22.846	7.0
22.861	12.0
22.876	12.0
22.891	9.0
22.906	8.0
22.92	4.0
22.935	6.0
22.95	12.0
22.965	9.0
22.98	9.0
22.995	11.0
23.01	9.0
23.025	11.0
23.04	15.0
23.055	12.0
23.07	9.0
23.085	8.0
23.1	6.0
23.115	6.0
23.13	6.0
23.145	4.0
23.16	10.0
23.175	9.0
23.19	11.0
23.205	10.0
23.22	8.0
23.235	9.0
23.25	7.0
23.265	7.0
23.28	8.0
23.295	9.0
23.31	11.0
23.325	8.0
23.34	14.0
23.355	9.0
23.37	15.0
23.384	11.0
23.399	6.0
23.414	8.0
23.429	5.0
23.444	6.0
23.459	13.0
23.474	13.0
23.489	9.0
23.504	7.0
23.519	14.0
23.534	8.0
23.549	10.0
23.564	10.0
23.579	12.0
23.594	5.0
23.609	9.0
23.624	15.0
23.639	7.0
23.654	15.0
23.668	9.0
23.683	11.0
23.698	11.0
23.713	7.0
23.728	9.0
23.743	10.0
23.758	11.0
23.773	20.0
23.788	13.0
23.803	15.0
23.818	8.0
23.833	15.0
23.848	8.0
23.862	11.0
23.877	21.0
23.892	16.0
23.907	19.0
23.922	24.0
23.937	19.0
23.952	35.0
23.967	27.0
23.982	32.0
23.997	30.0
24.011	35.0
24.026	44.0
24.041	39.0
24.056	40.0
24.071	52.0
24.086	57.0
24.101	52.0
24.116	52.0
24.131	41.0
24.145	39.0
24.16	30.0
24.175	45.0
24.19	28.0
24.205	39.0
24.22	40.0
24.235	27.0
24.249	23.0
24.264	29.0
24.279	27.0
24.294	20.0
24.309	12.0
24.324	19.0
24.338	12.0
24.353	15.0
24.368	11.0
24.383	13.0
24.398	10.0
24.413	12.0
24.428	12.0
24.442	7.0
24.457	12.0
24.472	13.0
24.487	8.0
24.502	11.0
24.516	9.0
24.531	11.0
24.546	18.0
24.561	10.0
24.576	14.0
24.591	4.0
24.605	11.0
24.62	13.0
24.635	13.0
24.65	7.0
24.665	5.0
24.679	11.0
24.694	8.0
24.709	10.0
24.724	17.0
24.739	9.0
24.753	9.0
24.768	9.0
24.783	9.0
24.798	11.0
24.813	13.0
24.827	12.0
24.842	7.0
24.857	3.0
24.872	9.0
24.886	13.0
24.901	7.0
24.916	14.0
24.931	9.0
24.946	6.0
24.96	11.0
24.975	8.0
24.99	13.0
25.005	5.0
25.019	8.0
25.034	12.0
25.049	7.0
25.064	12.0
25.078	11.0
25.093	5.0
25.108	15.0
25.123	5.0
25.138	10.0
25.152	9.0
25.167	4.0
25.182	11.0
25.197	5.0
25.211	7.0
25.226	5.0
25.241	6.0
25.256	10.0
25.27	7.0
25.285	10.0
25.3	5.0
25.315	10.0
25.329	11.0
25.344	13.0
25.359	10.0
25.374	10.0
25.388	14.0
25.403	4.0
25.418	9.0
25.433	9.0
25.447	8.0
25.462	14.0
25.477	12.0
25.492	10.0
25.506	9.0
25.521	9.0
25.536	8.0
25.55	9.0
25.565	11.0
25.58	12.0
25.595	6.0
25.609	12.0
25.624	13.0
25.639	10.0
25.654	9.0
25.668	8.0
25.683	16.0
25.698	9.0
25.713	8.0
25.727	9.0
25.742	16.0
25.757	12.0
25.772	10.0
25.786	7.0
25.801	13.0
25.816	12.0
25.83	5.0
25.845	7.0
25.86	8.0
25.875	11.0
25.889	10.0
25.904	8.0
25.919	10.0
25.934	10.0
25.948	7.0
25.963	7.0
25.978	14.0
25.992	11.0
26.007	13.0
26.022	12.0
26.037	3.0
26.051	8.0
26.066	13.0
26.081	6.0
26.096	9.0
26.11	7.0
26.125	6.0
26.14	13.0
26.155	10.0
26.169	13.0
26.184	9.0
26.199	10.0
26.213	6.0
26.228	3.0
26.243	4.0
26.258	10.0
26.272	7.0
26.287	5.0
26.302	8.0
26.317	14.0
26.331	10.0
26.346	9.0
26.361	8.0
26.376	9.0
26.39	12.0
26.405	10.0
26.42	13.0
26.434	6.0
26.449	9.0
26.464	14.0
26.479	8.0
26.493	8.0
26.508	8.0
26.523	10.0
26.538	4.0
26.552	11.0
26.567	11.0
26.582	11.0
26.597	7.0
26.611	8.0
26.626	9.0
26.641	6.0
26.656	9.0
26.67	4.0
26.685	9.0
26.7	11.0
26.715	14.0
26.729	10.0
26.744	8.0
26.759	10.0
26.773	7.0
26.788	12.0
26.803	6.0
26.818	10.0
26.832	9.0
26.847	10.0
26.862	5.0
26.877	9.0
26.891	12.0
26.906	5.0
26.921	12.0
26.936	7.0
26.95	8.0
26.965	4.0
26.98	9.0
26.995	9.0
27.01	11.0
27.024	9.0
27.039	10.0
27.054	9.0
27.069	15.0
27.083	11.0
27.098	9.0
27.113	11.0
27.128	8.0
27.142	7.0
27.157	8.0
27.172	8.0
27.187	10.0
27.201	14.0
27.216	6.0
27.231	11.0
27.246	12.0
27.261	15.0
27.275	14.0
27.29	11.0
27.305	18.0
27.32	10.0
27.334	6.0
27.349	9.0
27.364	7.0
27.379	7.0
27.394	11.0
27.408	9.0
27.423	9.0
27.438	9.0
27.453	6.0
27.467	11.0
27.482	10.0
27.497	10.0
27.512	7.0
27.527	11.0
27.541	14.0
27.556	11.0
27.571	8.0
27.586	7.0
27.601	5.0
27.615	8.0
27.63	9.0
27.645	10.0
27.66	8.0
27.675	12.0
27.689	12.0
27.704	15.0
27.719	13.0
27.734	14.0
27.749	13.0
27.763	18.0
27.778	21.0
27.793	19.0
27.808	22.0
27.823	23.0
27.838	29.0
27.852	18.0
27.867	22.0
27.882	22.0
27.897	20.0
27.912	26.0
27.926	18.0
27.941	19.0
27.956	29.0
27.971	13.0
27.986	18.0
28.001	12.0
28.015	17.0
28.03	16.0
28.045	18.0
28.06	13.0
28.075	25.0
28.09	23.0
28.105	8.0
28.119	12.0
28.134	8.0
28.149	14.0
28.164	12.0
28.179	12.0
28.194	17.0
28.208	6.0
28.223	14.0
28.238	8.0
28.253	8.0
28.268	8.0
28.283	10.0
28.298	12.0
28.312	11.0
28.327	9.0
28.342	9.0
28.357	10.0
28.372	8.0
28.387	17.0
28.402	9.0
28.417	14.0
28.431	10.0
28.446	6.0
28.461	15.0
28.476	9.0
28.491	16.0
28.506	8.0
28.521	14.0
28.536	5.0
28.55	12.0
28.565	6.0
28.58	11.0
28.595	10.0
28.61	11.0
28.625	5.0
28.64	11.0
28.655	8.0
28.669	5.0
28.684	12.0
28.699	7.0
28.714	11.0
28.729	11.0
28.744	7.0
28.759	16.0
28.774	4.0
28.788	13.0
28.803	9.0
28.818	10.0
28.833	9.0
28.848	9.0
28.863	7.0
28.878	6.0
28.893	9.0
28.908	15.0
28.922	11.0
28.937	7.0
28.952	6.0
28.967	9.0
28.982	8.0
28.997	14.0
29.012	10.0
29.027	13.0
29.041	11.0
29.056	5.0
29.071	6.0
29.086	7.0
29.101	7.0
29.116	9.0
29.131	12.0
29.146	12.0
29.16	11.0
29.175	13.0
29.19	10.0
29.205	11.0
29.22	11.0
29.235	10.0
29.25	15.0
29.265	5.0
29.279	12.0
29.294	14.0
29.309	14.0
29.324	9.0
29.339	9.0
29.354	7.0
29.369	18.0
29.384	13.0
29.398	12.0
29.413	5.0
29.428	15.0
29.443	21.0
29.458	23.0
29.473	27.0
29.488	26.0
29.502	21.0
29.517	29.0
29.532	40.0
29.547	41.0
29.562	50.0
29.577	38.0
29.592	31.0
29.606	53.0
29.621	45.0
29.636	58.0
29.651	45.0
29.666	50.0
29.681	47.0
29.695	40.0
29.71	25.0
29.725	38.0
29.74	24.0
29.755	25.0
29.77	26.0
29.784	21.0
29.799	34.0
29.814	28.0
29.829	30.0
29.844	18.0
29.859	23.0
29.873	18.0
29.888	22.0
29.903	15.0
29.918	13.0
29.933	11.0
29.947	14.0
29.962	11.0
29.977	18.0
29.992	11.0
30.007	13.0
30.021	7.0
30.036	14.0
30.051	12.0
30.066	8.0
30.081	14.0
30.095	11.0
30.11	7.0
30.125	19.0
30.14	13.0
30.155	9.0
30.169	12.0
30.184	7.0
30.199	15.0
30.214	9.0
30.228	15.0
30.243	12.0
30.258	12.0
30.273	11.0
30.288	4.0
30.302	10.0
30.317	7.0
30.332	10.0
30.347	8.0
30.361	11.0
30.376	10.0
30.391	17.0
30.406	5.0
30.42	7.0
30.435	8.0
30.45	11.0
30.465	5.0
30.479	5.0
30.494	11.0
30.509	10.0
30.524	8.0
30.538	7.0
30.553	12.0
30.568	14.0
30.583	13.0
30.597	12.0
30.612	5.0
30.627	10.0
30.641	14.0
30.656	12.0
30.671	8.0
30.686	14.0
30.7	10.0
30.715	11.0
30.73	10.0
30.745	13.0
30.759	8.0
30.774	11.0
30.789	4.0
30.803	17.0
30.818	8.0
30.833	5.0
30.848	12.0
30.862	20.0
30.877	12.0
30.892	10.0
30.906	11.0
30.921	9.0
30.936	9.0
30.951	11.0
30.965	15.0
30.98	13.0
30.995	14.0
31.009	10.0
31.024	17.0
31.039	11.0
31.053	13.0
31.068	22.0
31.083	14.0
31.098	23.0
31.112	28.0
31.127	19.0
31.142	25.0
31.156	25.0
31.171	27.0
31.186	28.0
31.2	25.0
31.215	30.0
31.23	40.0
31.245	40.0
31.259	44.0
31.274	40.0
31.289	36.0
31.303	37.0
31.318	27.0
31.333	34.0
31.347	41.0
31.362	22.0
31.377	35.0
31.392	32.0
31.406	30.0
31.421	28.0
31.436	31.0
31.45	26.0
31.465	14.0
31.48	21.0
31.494	17.0
31.509	20.0
31.524	15.0
31.538	12.0
31.553	19.0
31.568	8.0
31.583	12.0
31.597	12.0
31.612	7.0
31.627	13.0
31.641	9.0
31.656	10.0
31.671	10.0
31.685	19.0
31.7	7.0
31.715	13.0
31.729	15.0
31.744	13.0
31.759	13.0
31.774	13.0
31.788	14.0
31.803	11.0
31.818	15.0
31.832	9.0
31.847	8.0
31.862	13.0
31.876	13.0
31.891	10.0
31.906	8.0
31.92	10.0
31.935	13.0
31.95	11.0
31.965	11.0
31.979	9.0
31.994	13.0
32.009	7.0
32.023	9.0
32.038	14.0
32.053	12.0
32.067	9.0
32.082	8.0
32.097	5.0
32.112	14.0
32.126	14.0
32.141	11.0
32.156	11.0
32.17	12.0
32.185	5.0
32.2	5.0
32.214	10.0
32.229	9.0
32.244	9.0
32.259	9.0
32.273	9.0
32.288	9.0
32.303	11.0
32.317	13.0
32.332	10.0
32.347	15.0
32.362	8.0
32.376	13.0
32.391	9.0
32.406	12.0
32.42	12.0
32.435	7.0
32.45	6.0
32.465	9.0
32.479	8.0
32.494	7.0
32.509	12.0
32.523	11.0
32.538	6.0
32.553	9.0
32.568	15.0
32.582	12.0
32.597	6.0
32.612	11.0
32.627	6.0
32.641	10.0
32.656	12.0
32.671	13.0
32.685	9.0
32.7	19.0
32.715	17.0
32.73	15.0
32.744	23.0
32.759	29.0
32.774	25.0
32.788	21.0
32.803	31.0
32.818	27.0
32.833	30.0
32.847	26.0
32.862	21.0
32.877	19.0
32.892	25.0
32.906	20.0
32.921	25.0
32.936	18.0
32.951	16.0
32.965	17.0
32.98	18.0
32.995	27.0
33.009	19.0
33.024	24.0
33.039	17.0
33.054	17.0
33.068	14.0
33.083	20.0
33.098	14.0
33.113	12.0
33.127	12.0
33.142	12.0
33.157	11.0
33.172	15.0
33.186	8.0
33.201	10.0
33.216	9.0
33.231	9.0
33.245	12.0
33.26	13.0
33.275	7.0
33.29	4.0
33.304	5.0
33.319	5.0
33.334	6.0
33.349	8.0
33.363	6.0
33.378	11.0
33.393	6.0
33.408	6.0
33.422	10.0
33.437	17.0
33.452	14.0
33.467	12.0
33.481	8.0
33.496	9.0
33.511	7.0
33.526	10.0
33.54	6.0
33.555	10.0
33.57	13.0
33.585	10.0
33.599	6.0
33.614	9.0
33.629	11.0
33.644	10.0
33.658	9.0
33.673	7.0
33.688	12.0
33.703	15.0
33.718	9.0
33.732	10.0
33.747	9.0
33.762	7.0
33.777	13.0
33.791	7.0
33.806	7.0
33.821	20.0
33.836	14.0
33.85	9.0
33.865	9.0
33.88	7.0
33.895	10.0
33.91	13.0
33.924	7.0
33.939	10.0
33.954	14.0
33.969	9.0
33.983	7.0
33.998	14.0
34.013	9.0
34.028	12.0
34.042	11.0
34.057	10.0
34.072	15.0
34.087	11.0
34.102	10.0
34.116	4.0
34.131	9.0
34.146	8.0
34.161	13.0
34.175	15.0
34.19	16.0
34.205	11.0
34.22	18.0
34.235	6.0
34.249	9.0
34.264	8.0
34.279	14.0
34.294	9.0
34.309	21.0
34.323	13.0
34.338	13.0
34.353	15.0
34.368	11.0
34.382	11.0
34.397	13.0
34.412	8.0
34.427	14.0
34.442	10.0
34.456	17.0
34.471	12.0
34.486	14.0
34.501	12.0
34.516	7.0
34.53	9.0
34.545	8.0
34.56	6.0
34.575	12.0
34.59	9.0
34.604	11.0
34.619	10.0
34.634	11.0
34.649	13.0
34.664	7.0
34.678	10.0
34.693	11.0
34.708	6.0
34.723	9.0
34.738	10.0
34.752	5.0
34.767	8.0
34.782	6.0
34.797	10.0
34.812	2.0
34.826	5.0
34.841	13.0
34.856	7.0
34.871	10.0
34.886	8.0
34.9	8.0
34.915	8.0
34.93	9.0
34.945	11.0
34.96	7.0
34.974	11.0
34.989	10.0
35.004	13.0
35.019	11.0
35.034	9.0
35.048	11.0
35.063	10.0
35.078	3.0
35.093	11.0
35.108	7.0
35.122	5.0
35.137	9.0
35.152	9.0
35.167	6.0
35.182	13.0
35.196	8.0
35.211	9.0
35.226	12.0
35.241	7.0
35.256	12.0
35.27	11.0
35.285	8.0
35.3	8.0
35.315	2.0
35.33	7.0
35.344	10.0
35.359	11.0
35.374	10.0
35.389	3.0
35.404	5.0
35.418	6.0
35.433	12.0
35.448	10.0
35.463	9.0
35.478	9.0
35.493	7.0
35.507	11.0
35.522	12.0
35.537	10.0
35.552	9.0
35.567	14.0
35.581	7.0
35.596	7.0
35.611	8.0
35.626	10.0
35.641	5.0
35.655	4.0
35.67	14.0
35.685	10.0
35.7	17.0
35.715	19.0
35.729	11.0
35.744	19.0
35.759	12.0
35.774	21.0
35.789	11.0
35.804	17.0
35.818	16.0
35.833	25.0
35.848	11.0
35.863	13.0
35.878	15.0
35.892	14.0
35.907	18.0
35.922	12.0
35.937	10.0
35.952	13.0
35.966	9.0
35.981	9.0
35.996	13.0
36.011	9.0
36.026	14.0
36.04	10.0
36.055	12.0
36.07	6.0
36.085	9.0
36.1	9.0
36.114	11.0
36.129	8.0
36.144	10.0
36.159	14.0
36.174	6.0
36.189	7.0
36.203	10.0
36.218	12.0
36.233	5.0
36.248	10.0
36.263	11.0
36.277	11.0
36.292	7.0
36.307	7.0
36.322	8.0
36.337	8.0
36.351	7.0
36.366	14.0
36.381	12.0
36.396	14.0
36.411	18.0
36.426	6.0
36.44	5.0
36.455	7.0
36.47	11.0
36.485	6.0
36.5	6.0
36.514	7.0
36.529	11.0
36.544	10.0
36.559	11.0
36.574	9.0
36.589	6.0
36.603	7.0
36.618	4.0
36.633	10.0
36.648	10.0
36.663	5.0
36.677	6.0
36.692	11.0
36.707	5.0
36.722	7.0
36.737	4.0
36.752	9.0
36.766	8.0
36.781	8.0
36.796	11.0
36.811	8.0
36.826	6.0
36.841	6.0
36.855	6.0
36.87	10.0
36.885	7.0
36.9	5.0
36.915	8.0
36.93	9.0
36.944	16.0
36.959	7.0
36.974	9.0
36.989	11.0
37.004	14.0
37.019	6.0
37.033	15.0
37.048	15.0
37.063	14.0
37.078	19.0
37.093	22.0
37.108	15.0
37.123	28.0
37.137	22.0
37.152	25.0
37.167	27.0
37.182	27.0
37.197	23.0
37.212	32.0
37.226	23.0
37.241	27.0
37.256	32.0
37.271	9.0
37.286	19.0
37.301	24.0
37.316	15.0
37.331	19.0
37.345	21.0
37.36	20.0
37.375	24.0
37.39	23.0
37.405	17.0
37.42	29.0
37.435	26.0
37.45	17.0
37.464	8.0
37.479	12.0
37.494	12.0
37.509	8.0
37.524	7.0
37.539	12.0
37.554	9.0
37.569	12.0
37.583	10.0
37.598	6.0
37.613	6.0
37.628	7.0
37.643	5.0
37.658	4.0
37.673	3.0
37.688	9.0
37.703	11.0
37.718	6.0
37.733	7.0
37.747	7.0
37.762	7.0
37.777	6.0
37.792	8.0
37.807	3.0
37.822	7.0
37.837	7.0
37.852	7.0
37.867	2.0
37.882	7.0
37.897	7.0
37.912	8.0
37.927	3.0
37.941	8.0
37.956	8.0
37.971	3.0
37.986	2.0
38.001	9.0
38.016	5.0
38.031	13.0
38.046	8.0
38.061	2.0
38.076	5.0
38.091	2.0
38.106	7.0
38.121	10.0
38.136	9.0
38.151	7.0
38.166	4.0
38.181	3.0
38.196	6.0
38.211	10.0
38.226	4.0
38.241	4.0
38.256	3.0
38.271	8.0
38.285	13.0
38.3	8.0
38.315	7.0
38.33	4.0
38.345	7.0
38.36	8.0
38.375	6.0
38.39	9.0
38.405	4.0
38.42	9.0
38.435	9.0
38.45	5.0
38.465	7.0
38.48	7.0
38.495	5.0
38.51	5.0
38.525	5.0
38.54	6.0
38.555	4.0
38.57	9.0
38.585	2.0
38.6	8.0
38.615	2.0
38.63	6.0
38.645	5.0
38.66	8.0
38.675	7.0
38.69	4.0
38.705	4.0
38.72	6.0
38.735	6.0
38.75	8.0
38.765	4.0
38.78	7.0
38.795	3.0
38.81	6.0
38.825	4.0
38.84	6.0
38.855	4.0
38.87	10.0
38.885	3.0
38.9	4.0
38.915	5.0
38.93	12.0
38.945	6.0
38.96	3.0
38.975	8.0
38.99	5.0
39.005	9.0
39.02	4.0
39.035	8.0
39.05	4.0
39.065	3.0
39.08	5.0
39.095	7.0
39.11	7.0
39.125	7.0
39.14	7.0
39.155	1.0
39.17	5.0
39.185	6.0
39.2	3.0
39.215	3.0
39.23	4.0
39.245	6.0
39.26	2.0
39.275	5.0
39.29	4.0
39.305	6.0
39.32	4.0
39.335	9.0
39.35	7.0
39.365	10.0
39.38	6.0
39.395	6.0
39.409	7.0
39.424	5.0
39.439	7.0
39.454	9.0
39.469	5.0
39.484	4.0
39.499	9.0
39.514	6.0
39.529	4.0
39.544	7.0
39.559	5.0
39.574	3.0
39.589	4.0
39.604	6.0
39.619	4.0
39.634	5.0
39.649	8.0
39.664	7.0
39.678	4.0
39.693	8.0
39.708	4.0
39.723	4.0
39.738	6.0
39.753	8.0
39.768	6.0
39.783	8.0
39.798	5.0
39.813	11.0
39.827	12.0
39.842	11.0
39.857	6.0
39.872	9.0
39.887	11.0
39.902	11.0
39.917	10.0
39.932	5.0
39.947	7.0
39.961	11.0
39.976	5.0
39.991	11.0
40.006	8.0
40.021	9.0
40.036	5.0
40.051	3.0
40.065	2.0
40.08	4.0
40.095	6.0
40.11	8.0
40.125	5.0
40.14	7.0
40.154	5.0
40.169	6.0
40.184	8.0
40.199	5.0
40.214	3.0
40.228	7.0
40.243	2.0
40.258	6.0
40.273	3.0
40.288	2.0
40.302	9.0
40.317	2.0
40.332	4.0
40.347	7.0
40.362	5.0
40.376	4.0
40.391	7.0
40.406	5.0
40.421	7.0
40.436	5.0
40.45	7.0
40.465	2.0
40.48	7.0
40.495	3.0
40.509	5.0
40.524	7.0
40.539	4.0
40.554	6.0
40.568	4.0
40.583	1.0
40.598	3.0
40.613	11.0
40.627	3.0
40.642	6.0
40.657	7.0
40.672	4.0
40.686	3.0
40.701	9.0
40.716	5.0
40.731	2.0
40.745	4.0
40.76	7.0
40.775	5.0
40.79	3.0
40.804	7.0
40.819	6.0
40.834	6.0
40.849	7.0
40.863	5.0
40.878	4.0
40.893	3.0
40.907	14.0
40.922	7.0
40.937	4.0
40.952	7.0
40.966	5.0
40.981	11.0
40.996	8.0
41.011	7.0
41.025	8.0
41.04	10.0
41.055	12.0
41.069	10.0
41.084	19.0
41.099	22.0
41.114	20.0
41.128	21.0
41.143	15.0
41.158	23.0
41.173	20.0
41.187	12.0
41.202	21.0
41.217	18.0
41.231	9.0
41.246	7.0
41.261	5.0
41.276	12.0
41.29	10.0
41.305	9.0
41.32	11.0
41.335	7.0
41.349	6.0
41.364	9.0
41.379	14.0
41.393	10.0
41.408	10.0
41.423	9.0
41.438	12.0
41.452	8.0
41.467	7.0
41.482	5.0
41.497	4.0
41.511	4.0
41.526	4.0
41.541	6.0
41.556	7.0
41.57	3.0
41.585	9.0
41.6	12.0
41.615	4.0
41.629	3.0
41.644	4.0
41.659	3.0
41.674	6.0
41.688	3.0
41.703	4.0
41.718	4.0
41.733	2.0
41.747	2.0
41.762	6.0
41.777	2.0
41.792	7.0
41.806	4.0
41.821	7.0
41.836	10.0
41.851	10.0
41.866	7.0
41.88	3.0
41.895	6.0
41.91	6.0
41.925	7.0
41.939	8.0
41.954	4.0
41.969	9.0
41.984	8.0
41.999	8.0
42.013	7.0
42.028	4.0
42.043	7.0
42.058	2.0
42.073	5.0
42.088	7.0
42.102	6.0
42.117	6.0
42.132	10.0
42.147	7.0
42.162	5.0
42.176	10.0
42.191	4.0
42.206	9.0
42.221	2.0
42.236	9.0
42.251	9.0
42.266	9.0
42.28	6.0
42.295	5.0
42.31	10.0
42.325	17.0
42.34	17.0
42.355	10.0
42.369	12.0
42.384	11.0
42.399	10.0
42.414	13.0
42.429	20.0
42.444	18.0
42.459	16.0
42.474	9.0
42.488	12.0
42.503	9.0
42.518	9.0
42.533	5.0
42.548	12.0
42.563	14.0
42.578	10.0
42.593	10.0
42.608	7.0
42.622	10.0
42.637	6.0
42.652	6.0
42.667	6.0
42.682	7.0
42.697	11.0
42.712	9.0
42.727	10.0
42.742	7.0
42.757	8.0
42.772	9.0
42.786	6.0
42.801	10.0
42.816	1.0
42.831	5.0
42.846	3.0
42.861	7.0
42.876	7.0
42.891	5.0
42.906	2.0
42.921	7.0
42.936	6.0
42.951	3.0
42.966	4.0
42.981	11.0
42.996	9.0
43.011	6.0
43.025	2.0
43.04	7.0
43.055	4.0
43.07	4.0
43.085	3.0
43.1	3.0
43.115	2.0
43.13	4.0
43.145	4.0
43.16	5.0
43.175	5.0
43.19	6.0
43.205	4.0
43.22	5.0
43.235	5.0
43.25	5.0
43.265	5.0
43.28	5.0
43.295	5.0
43.31	1.0
43.325	4.0
43.34	7.0
43.355	5.0
43.37	6.0
43.385	5.0
43.4	2.0
43.415	2.0
43.43	4.0
43.445	4.0
43.46	8.0
43.475	8.0
43.49	8.0
43.505	10.0
43.52	7.0
43.535	7.0
43.55	5.0
43.565	8.0
43.58	6.0
43.595	6.0
43.61	7.0
43.625	8.0
43.64	11.0
43.655	6.0
43.67	5.0
43.685	9.0
43.7	9.0
43.715	8.0
43.73	6.0
43.745	2.0
43.76	4.0
43.775	5.0
43.79	9.0
43.805	6.0
43.82	5.0
43.835	13.0
43.85	7.0
43.865	6.0
43.88	8.0
43.895	10.0
43.91	7.0
43.925	4.0
43.94	4.0
43.955	9.0
43.97	5.0
43.985	5.0
44.0	10.0
44.015	9.0
44.03	7.0
44.045	3.0
44.061	9.0
44.076	7.0
44.091	5.0
44.106	5.0
44.121	6.0
44.136	6.0
44.151	8.0
44.166	6.0
44.181	1.0
44.196	4.0
44.211	6.0
44.226	6.0
44.241	4.0
44.256	3.0
44.271	6.0
44.286	1.0
44.301	4.0
44.316	1.0
44.331	4.0
44.346	7.0
44.361	6.0
44.377	4.0
44.392	5.0
44.407	8.0
44.422	5.0
44.437	3.0
44.452	3.0
44.467	3.0
44.482	7.0
44.497	2.0
44.512	4.0
44.527	2.0
44.542	3.0
44.557	4.0
44.572	4.0
44.587	5.0
44.602	4.0
44.617	6.0
44.632	5.0
44.647	2.0
44.663	3.0
44.678	7.0
44.693	5.0
44.708	7.0
44.723	7.0
44.738	11.0
44.753	7.0
44.768	10.0
44.783	18.0
44.798	13.0
44.813	11.0
44.828	9.0
44.843	7.0
44.858	13.0
44.873	4.0
44.888	8.0
44.903	9.0
44.918	5.0
44.933	11.0
44.948	4.0
44.964	7.0
44.979	6.0
44.994	3.0
45.009	12.0
45.024	3.0
45.039	8.0
45.054	10.0
45.069	9.0
45.084	8.0
45.099	6.0
45.114	6.0
45.129	9.0
45.144	3.0
45.159	7.0
45.174	10.0
45.189	3.0
45.204	5.0
45.219	4.0
45.234	3.0
45.249	8.0
45.264	8.0
45.279	1.0
45.294	3.0
45.309	7.0
45.324	4.0
45.339	4.0
45.354	5.0
45.369	6.0
45.384	6.0
45.399	8.0
45.414	12.0
45.429	6.0
45.444	4.0
45.459	5.0
45.474	5.0
45.489	5.0
45.504	3.0
45.519	4.0
45.534	3.0
45.549	0.0
45.564	3.0
45.579	5.0
45.594	3.0
45.609	6.0
45.624	4.0
45.639	10.0
45.654	4.0
45.669	4.0
45.684	3.0
45.699	8.0
45.714	6.0
45.729	6.0
45.744	1.0
45.759	1.0
45.774	5.0
45.789	4.0
45.804	1.0
45.819	4.0
45.834	9.0
45.849	12.0
45.864	6.0
45.879	11.0
45.894	9.0
45.909	12.0
45.924	10.0
45.939	6.0
45.954	19.0
45.969	17.0
45.984	9.0
45.998	16.0
46.013	17.0
46.028	11.0
46.043	9.0
46.058	9.0
46.073	8.0
46.088	9.0
46.103	12.0
46.118	8.0
46.133	8.0
46.148	9.0
46.163	8.0
46.178	9.0
46.192	3.0
46.207	10.0
46.222	6.0
46.237	7.0
46.252	9.0
46.267	14.0
46.282	6.0
46.297	13.0
46.312	5.0
46.327	8.0
46.341	4.0
46.356	6.0
46.371	2.0
46.386	3.0
46.401	5.0
46.416	6.0
46.431	7.0
46.446	3.0
46.46	4.0
46.475	4.0
46.49	6.0
46.505	5.0
46.52	3.0
46.535	8.0
46.55	7.0
46.564	4.0
46.579	5.0
46.594	6.0
46.609	9.0
46.624	6.0
46.639	4.0
46.654	3.0
46.668	3.0
46.683	1.0
46.698	10.0
46.713	8.0
46.728	5.0
46.743	7.0
46.758	4.0
46.772	4.0
46.787	11.0
46.802	1.0
46.817	5.0
46.832	6.0
46.847	8.0
46.861	2.0
46.876	1.0
46.891	5.0
46.906	5.0
46.921	4.0
46.936	8.0
46.95	4.0
46.965	6.0
46.98	5.0
46.995	6.0
47.01	7.0
47.025	7.0
47.039	6.0
47.054	10.0
47.069	10.0
47.084	6.0
47.099	6.0
47.113	13.0
47.128	13.0
47.143	12.0
47.158	8.0
47.173	6.0
47.188	8.0
47.202	6.0
47.217	6.0
47.232	3.0
47.247	5.0
47.262	5.0
47.277	5.0
47.291	5.0
47.306	7.0
47.321	4.0
47.336	4.0
47.351	4.0
47.365	6.0
47.38	7.0
47.395	7.0
47.41	8.0
47.425	8.0
47.44	11.0
47.454	7.0
47.469	5.0
47.484	5.0
47.499	5.0
47.514	8.0
47.528	1.0
47.543	7.0
47.558	5.0
47.573	5.0
47.588	4.0
47.603	3.0
47.617	7.0
47.632	1.0
47.647	5.0
47.662	5.0
47.677	6.0
47.691	4.0
47.706	3.0
47.721	4.0
47.736	5.0
47.751	5.0
47.766	3.0
47.78	5.0
47.795	5.0
47.81	6.0
47.825	5.0
47.84	3.0
47.855	1.0
47.869	8.0
47.884	11.0
47.899	9.0
47.914	6.0
47.929	1.0
47.944	3.0
47.958	3.0
47.973	4.0
47.988	6.0
48.003	2.0
48.018	8.0
48.033	4.0
48.047	4.0
48.062	7.0
48.077	3.0
48.092	7.0
48.107	6.0
48.122	9.0
48.137	7.0
48.151	5.0
48.166	5.0
48.181	6.0
48.196	4.0
48.211	2.0
48.226	3.0
48.241	8.0
48.255	6.0
48.27	1.0
48.285	6.0
48.3	6.0
48.315	3.0
48.33	4.0
48.345	4.0
48.359	1.0
48.374	4.0
48.389	2.0
48.404	3.0
48.419	5.0
48.434	4.0
48.449	4.0
48.464	2.0
48.478	3.0
48.493	5.0
48.508	5.0
48.523	4.0
48.538	3.0
48.553	4.0
48.568	6.0
48.583	3.0
48.597	1.0
48.612	8.0
48.627	2.0
48.642	2.0
48.657	2.0
48.672	6.0
48.687	6.0
48.702	0.0
48.717	3.0
48.731	2.0
48.746	4.0
48.761	5.0
48.776	9.0
48.791	6.0
48.806	7.0
48.821	5.0
48.836	2.0
48.851	1.0
48.866	2.0
48.88	9.0
48.895	3.0
48.91	3.0
48.925	5.0
48.94	6.0
48.955	4.0
48.97	6.0
48.985	6.0
49.0	6.0
49.015	7.0
49.03	7.0
49.044	9.0
49.059	8.0
49.074	5.0
49.089	3.0
49.104	5.0
49.119	3.0
49.134	4.0
49.149	2.0
49.164	2.0
49.179	7.0
49.194	4.0
49.209	8.0
49.224	5.0
49.238	10.0
49.253	6.0
49.268	5.0
49.283	4.0
49.298	6.0
49.313	3.0
49.328	20.0
49.343	6.0
49.358	9.0
49.373	8.0
49.388	8.0
49.403	9.0
49.418	9.0
49.433	6.0
49.448	7.0
49.463	11.0
49.478	7.0
49.492	7.0
49.507	2.0
49.522	4.0
49.537	5.0
49.552	7.0
49.567	1.0
49.582	3.0
49.597	5.0
49.612	11.0
49.627	3.0
49.642	5.0
49.657	8.0
49.672	7.0
49.687	7.0
49.702	5.0
49.717	8.0
49.732	4.0
49.747	2.0
49.762	4.0
49.777	4.0
49.792	2.0
49.807	7.0
49.822	3.0
49.837	2.0
49.852	4.0
49.867	4.0
49.882	5.0
49.897	5.0
49.912	4.0
49.927	4.0
49.942	4.0
49.957	1.0
49.971	5.0
49.986	0.0
50.001	9.0
50.016	7.0
50.031	4.0
50.046	7.0
50.061	5.0
50.076	4.0
50.091	4.0
50.106	6.0
50.121	9.0
50.136	6.0
50.151	3.0
50.166	3.0
50.181	2.0
50.196	5.0
50.211	4.0
50.226	6.0
50.241	3.0
50.256	2.0
50.271	6.0
50.286	2.0
50.302	2.0
50.317	3.0
50.332	6.0
50.347	6.0
50.362	2.0
50.377	6.0
50.392	8.0
50.407	11.0
50.422	13.0
50.437	4.0
50.452	5.0
50.467	10.0
50.482	9.0
50.497	8.0
50.512	3.0
50.527	9.0
50.542	6.0
50.557	7.0
50.572	7.0
50.587	4.0
50.602	7.0
50.617	7.0
50.632	5.0
50.647	4.0
50.662	8.0
50.677	4.0
50.692	6.0
50.707	6.0
50.722	6.0
50.737	2.0
50.752	6.0
50.767	4.0
50.782	5.0
50.797	8.0
50.812	5.0
50.828	5.0
50.843	2.0
50.858	3.0
50.873	7.0
50.888	6.0
50.903	9.0
50.918	9.0
50.933	5.0
50.948	7.0
50.963	7.0
50.978	5.0
50.993	6.0
51.008	4.0
51.023	5.0
51.038	5.0
51.053	7.0
51.068	9.0
51.083	6.0
51.098	4.0
51.114	5.0
51.129	5.0
51.144	6.0
51.159	10.0
51.174	9.0
51.189	10.0
51.204	0.0
51.219	9.0
51.234	3.0
51.249	6.0
51.264	1.0
51.279	6.0
51.294	1.0
51.309	7.0
51.324	3.0
51.34	8.0
51.355	3.0
51.37	5.0
51.385	5.0
51.4	6.0
51.415	4.0
51.43	15.0
51.445	11.0
51.46	6.0
51.475	14.0
51.49	15.0
51.505	13.0
51.52	13.0
51.535	12.0
51.551	14.0
51.566	16.0
51.581	11.0
51.596	5.0
51.611	11.0
51.626	6.0
51.641	13.0
51.656	7.0
51.671	4.0
51.686	4.0
51.701	4.0
51.716	6.0
51.732	7.0
51.747	8.0
51.762	13.0
51.777	8.0
51.792	8.0
51.807	4.0
51.822	10.0
51.837	9.0
51.852	12.0
51.867	15.0
51.882	9.0
51.898	5.0
51.913	8.0
51.928	12.0
51.943	7.0
51.958	5.0
51.973	7.0
51.988	7.0
52.003	3.0
52.018	7.0
52.033	2.0
52.048	4.0
52.064	5.0
52.079	5.0
52.094	5.0
52.109	2.0
52.124	4.0
52.139	5.0
52.154	7.0
52.169	4.0
52.184	6.0
52.199	3.0
52.215	2.0
52.23	3.0
52.245	9.0
52.26	6.0
52.275	4.0
52.29	2.0
52.305	5.0
52.32	2.0
52.335	4.0
52.35	2.0
52.366	7.0
52.381	5.0
52.396	5.0
52.411	3.0
52.426	5.0
52.441	2.0
52.456	3.0
52.471	4.0
52.486	0.0
52.502	3.0
52.517	10.0
52.532	7.0
52.547	4.0
52.562	9.0
52.577	7.0
52.592	4.0
52.607	6.0
52.622	12.0
52.637	8.0
52.653	6.0
52.668	9.0
52.683	6.0
52.698	5.0
52.713	8.0
52.728	1.0
52.743	4.0
52.758	2.0
52.774	5.0
52.789	3.0
52.804	4.0
52.819	5.0
52.834	2.0
52.849	7.0
52.864	5.0
52.879	5.0
52.894	6.0
52.91	5.0
52.925	11.0
52.94	5.0
52.955	6.0
52.97	9.0
52.985	6.0
53.0	9.0
53.015	5.0
53.031	6.0
53.046	6.0
53.061	5.0
53.076	3.0
53.091	1.0
53.106	7.0
53.121	5.0
53.136	6.0
53.152	5.0
53.167	5.0
53.182	5.0
53.197	10.0
53.212	5.0
53.227	4.0
53.242	4.0
53.257	7.0
53.273	1.0
53.288	4.0
53.303	5.0
53.318	2.0
53.333	8.0
53.348	7.0
53.363	3.0
53.379	5.0
53.394	6.0
53.409	6.0
53.424	1.0
53.439	4.0
53.454	4.0
53.469	1.0
53.484	4.0
53.5	8.0
53.515	3.0
53.53	2.0
53.545	4.0
53.56	5.0
53.575	7.0
53.59	5.0
53.606	6.0
53.621	3.0
53.636	3.0
53.651	5.0
53.666	5.0
53.681	3.0
53.696	1.0
53.712	0.0
53.727	2.0
53.742	3.0
53.757	1.0
53.772	1.0
53.787	2.0
53.802	3.0
53.818	1.0
53.833	4.0
53.848	6.0
53.863	3.0
53.878	6.0
53.893	4.0
53.909	3.0
53.924	6.0
53.939	2.0
53.954	9.0
53.969	5.0
53.984	7.0
53.999	7.0
54.015	4.0
54.03	2.0
54.045	2.0
54.06	6.0
54.075	4.0
54.09	5.0
54.106	5.0
54.121	6.0
54.136	7.0
54.151	2.0
54.166	5.0
54.181	4.0
54.197	5.0
54.212	5.0
54.227	4.0
54.242	7.0
54.257	2.0
54.272	7.0
54.288	7.0
54.303	4.0
54.318	5.0
54.333	3.0
54.348	5.0
54.363	6.0
54.379	5.0
54.394	4.0
54.409	8.0
54.424	6.0
54.439	1.0
54.454	5.0
54.47	8.0
54.485	13.0
54.5	3.0
54.515	2.0
54.53	4.0
54.545	5.0
54.561	8.0
54.576	11.0
54.591	9.0
54.606	11.0
54.621	10.0
54.636	9.0
54.652	11.0
54.667	13.0
54.682	17.0
54.697	11.0
54.712	9.0
54.727	9.0
54.743	14.0
54.758	8.0
54.773	8.0
54.788	3.0
54.803	5.0
54.819	4.0
54.834	5.0
54.849	2.0
54.864	5.0
54.879	3.0
54.894	4.0
54.91	4.0
54.925	6.0
54.94	7.0
54.955	8.0
54.97	9.0
54.985	9.0
55.001	7.0
55.016	11.0
55.031	14.0
55.046	11.0
55.061	1.0
55.077	5.0
55.092	7.0
55.107	5.0
55.122	5.0
55.137	4.0
55.152	3.0
55.168	8.0
55.183	5.0
55.198	9.0
55.213	9.0
55.228	8.0
55.243	5.0
55.259	5.0
55.274	2.0
55.289	6.0
55.304	5.0
55.319	8.0
55.335	8.0
55.35	10.0
55.365	3.0
55.38	5.0
55.395	3.0
55.41	5.0
55.426	6.0
55.441	4.0
55.456	2.0
55.471	8.0
55.486	1.0
55.501	6.0
55.517	4.0
55.532	4.0
55.547	3.0
55.562	6.0
55.577	2.0
55.592	9.0
55.608	4.0
55.623	2.0
55.638	4.0
55.653	7.0
55.668	10.0
55.683	9.0
55.699	5.0
55.714	4.0
55.729	7.0
55.744	8.0
55.759	7.0
55.774	6.0
55.79	7.0
55.805	6.0
55.82	3.0
55.835	3.0
55.85	2.0
55.865	5.0
55.881	4.0
55.896	5.0
55.911	6.0
55.926	4.0
55.941	3.0
55.956	2.0
55.972	5.0
55.987	4.0
56.002	7.0
56.017	4.0
56.032	8.0
56.047	3.0
56.063	7.0
56.078	6.0
56.093	9.0
56.108	6.0
56.123	8.0
56.138	5.0
56.154	6.0
56.169	1.0
56.184	5.0
56.199	4.0
56.214	6.0
56.229	6.0
56.244	4.0
56.26	1.0
56.275	4.0
56.29	4.0
56.305	5.0
56.32	10.0
56.335	5.0
56.351	6.0
56.366	0.0
56.381	5.0
56.396	7.0
56.411	6.0
56.426	2.0
56.441	8.0
56.457	4.0
56.472	3.0
56.487	4.0
56.502	7.0
56.517	3.0
56.532	4.0
56.547	4.0
56.563	4.0
56.578	4.0
56.593	5.0
56.608	3.0
56.623	6.0
56.638	3.0
56.653	1.0
56.668	2.0
56.684	3.0
56.699	1.0
56.714	2.0
56.729	4.0
56.744	6.0
56.759	5.0
56.774	0.0
56.79	4.0
56.805	4.0
56.82	4.0
56.835	2.0
56.85	5.0
56.865	4.0
56.88	4.0
56.895	5.0
56.911	6.0
56.926	5.0
56.941	4.0
56.956	2.0
56.971	3.0
56.986	5.0
57.001	7.0
57.016	4.0
57.031	3.0
57.047	8.0
57.062	3.0
57.077	6.0
57.092	5.0
57.107	1.0
57.122	2.0
57.137	5.0
57.152	5.0
57.167	6.0
57.183	3.0
57.198	6.0
57.213	2.0
57.228	2.0
57.243	6.0
57.258	8.0
57.273	3.0
57.288	3.0
57.303	3.0
57.318	5.0
57.334	4.0
57.349	6.0
57.364	6.0
57.379	10.0
57.394	5.0
57.409	3.0
57.424	1.0
57.439	5.0
57.454	1.0
57.469	2.0
57.484	0.0
57.5	0.0
57.515	3.0
57.53	5.0
57.545	7.0
57.56	3.0
57.575	4.0
57.59	5.0
57.605	5.0
57.62	4.0
57.635	8.0
57.65	8.0
57.665	3.0
57.68	5.0
57.696	7.0
57.711	5.0
57.726	7.0
57.741	4.0
57.756	4.0
57.771	4.0
57.786	5.0
57.801	1.0
57.816	6.0
57.831	4.0
57.846	6.0
57.861	3.0
57.876	4.0
57.891	5.0
57.906	6.0
57.921	4.0
57.937	8.0
57.952	7.0
57.967	2.0
57.982	4.0
57.997	5.0
58.012	4.0
58.027	10.0
58.042	4.0
58.057	4.0
58.072	4.0
58.087	1.0
58.102	2.0
58.117	5.0
58.132	4.0
58.147	5.0
58.162	1.0
58.177	4.0
58.192	8.0
58.207	2.0
58.222	4.0
58.237	5.0
58.252	3.0
58.267	5.0
58.282	3.0
58.297	3.0
58.312	1.0
58.327	1.0
58.342	4.0
58.357	6.0
58.372	4.0
58.387	7.0
58.402	5.0
58.418	3.0
58.433	6.0
58.448	7.0
58.463	4.0
58.478	3.0
58.493	3.0
58.508	2.0
58.523	2.0
58.538	3.0
58.553	9.0
58.568	3.0
58.583	6.0
58.598	7.0
58.613	8.0
58.628	12.0
58.643	9.0
58.658	8.0
58.673	11.0
58.688	9.0
58.703	8.0
58.718	9.0
58.733	7.0
58.748	4.0
58.763	2.0
58.778	5.0
58.793	6.0
58.808	3.0
58.823	4.0
58.838	4.0
58.853	5.0
58.868	3.0
58.883	2.0
58.898	5.0
58.913	4.0
58.928	5.0
58.942	6.0
58.957	9.0
58.972	4.0
58.987	14.0
59.002	10.0
59.017	7.0
59.032	6.0
59.047	6.0
59.062	4.0
59.077	7.0
59.092	3.0
59.107	5.0
59.122	3.0
59.137	6.0
59.152	6.0
59.167	5.0
59.182	2.0
59.197	3.0
59.212	4.0
59.227	6.0
59.242	4.0
59.257	4.0
59.272	3.0
59.287	5.0
59.302	3.0
59.317	2.0
59.332	6.0
59.347	2.0
59.362	7.0
59.377	5.0
59.392	5.0
59.407	8.0
59.422	5.0
59.437	3.0
59.452	2.0
59.467	6.0
59.482	3.0
59.497	3.0
59.512	7.0
59.527	8.0
59.542	7.0
59.557	4.0
59.572	2.0
59.587	3.0
59.602	9.0
59.617	7.0
59.632	11.0
59.647	7.0
59.661	6.0
59.676	5.0
59.691	4.0
59.706	9.0
59.721	8.0
59.736	3.0
59.751	3.0
59.766	0.0
59.781	6.0
59.796	7.0
59.811	4.0
59.826	5.0
59.841	5.0
59.856	5.0
59.871	4.0
59.886	3.0
59.901	5.0
59.916	3.0
59.931	10.0
59.946	6.0
59.961	7.0
59.976	9.0
59.991	9.0
60.006	7.0
60.021	9.0
60.036	5.0
60.051	9.0
60.066	2.0
60.081	6.0
60.096	5.0
60.111	7.0
60.126	8.0
60.141	5.0
60.156	1.0
60.171	1.0
60.186	6.0
60.201	4.0
60.216	2.0
60.231	3.0
60.246	6.0
60.261	5.0
60.276	4.0
60.291	4.0
60.306	4.0
60.321	3.0
60.336	3.0
60.35	2.0
60.365	3.0
60.38	2.0
60.395	4.0
60.41	6.0
60.425	3.0
60.44	5.0
60.455	6.0
60.47	4.0
60.485	4.0
60.5	7.0
60.515	4.0
60.53	7.0
60.545	6.0
60.56	7.0
60.575	5.0
60.59	10.0
60.605	6.0
60.62	7.0
60.635	3.0
60.65	5.0
60.665	6.0
60.68	4.0
60.695	2.0
60.71	3.0
60.725	3.0
60.74	7.0
60.755	3.0
60.77	3.0
60.785	2.0
60.8	6.0
60.815	4.0
60.83	4.0
60.845	3.0
60.86	3.0
60.875	5.0
60.89	3.0
60.905	4.0
60.92	10.0
60.935	4.0
60.95	10.0
60.965	8.0
60.98	5.0
60.995	6.0
61.01	6.0
61.025	5.0
61.04	3.0
61.055	5.0
61.07	4.0
61.085	3.0
61.1	3.0
61.115	3.0
61.13	3.0
61.145	6.0
61.16	5.0
61.175	3.0
61.191	0.0
61.206	7.0
61.221	4.0
61.236	4.0
61.251	2.0
61.266	7.0
61.281	4.0
61.296	7.0
61.311	7.0
61.326	4.0
61.341	3.0
61.356	1.0
61.371	3.0
61.386	4.0
61.401	4.0
61.416	4.0
61.431	5.0
61.446	8.0
61.461	7.0
61.476	5.0
61.491	6.0
61.506	9.0
61.521	4.0
61.536	3.0
61.551	5.0
61.566	3.0
61.581	7.0
61.596	4.0
61.611	3.0
61.626	3.0
61.641	4.0
61.656	1.0
61.672	5.0
61.687	4.0
61.702	5.0
61.717	4.0
61.732	2.0
61.747	4.0
61.762	2.0
61.777	3.0
61.792	2.0
61.807	4.0
61.822	8.0
61.837	7.0
61.852	6.0
61.867	6.0
61.882	5.0
61.897	6.0
61.912	4.0
61.927	2.0
61.943	4.0
61.958	8.0
61.973	4.0
61.988	4.0
62.003	0.0
62.018	5.0
62.033	5.0
62.048	3.0
62.063	3.0
62.078	3.0
62.093	4.0
62.108	4.0
62.123	3.0
62.138	4.0
62.153	2.0
62.169	7.0
62.184	1.0
62.199	6.0
62.214	1.0
62.229	2.0
62.244	2.0
62.259	3.0
62.274	2.0
62.289	3.0
62.304	2.0
62.319	4.0
62.335	3.0
62.35	4.0
62.365	4.0
62.38	4.0
62.395	5.0
62.41	1.0
62.425	1.0
62.44	3.0
62.455	2.0
62.47	4.0
62.485	3.0
62.501	7.0
62.516	8.0
62.531	4.0
62.546	4.0
62.561	4.0
62.576	1.0
62.591	5.0
62.606	1.0
62.621	4.0
62.636	2.0
62.652	0.0
62.667	3.0
62.682	3.0
62.697	5.0
62.712	6.0
62.727	2.0
62.742	2.0
62.757	2.0
62.772	1.0
62.787	2.0
62.803	3.0
62.818	5.0
62.833	4.0
62.848	3.0
62.863	7.0
62.878	7.0
62.893	7.0
62.908	3.0
62.923	5.0
62.939	5.0
62.954	3.0
62.969	4.0
62.984	4.0
62.999	3.0
63.014	4.0
63.029	4.0
63.044	3.0
63.059	5.0
63.074	8.0
63.09	2.0
63.105	4.0
63.12	4.0
63.135	3.0
63.15	5.0
63.165	3.0
63.18	2.0
63.195	2.0
63.21	3.0
63.226	5.0
63.241	5.0
63.256	1.0
63.271	3.0
63.286	9.0
63.301	4.0
63.316	6.0
63.331	3.0
63.346	4.0
63.362	11.0
63.377	4.0
63.392	9.0
63.407	6.0
63.422	8.0
63.437	7.0
63.452	4.0
63.467	2.0
63.482	5.0
63.497	6.0
63.513	5.0
63.528	4.0
63.543	1.0
63.558	5.0
63.573	4.0
63.588	2.0
63.603	6.0
63.618	2.0
63.633	6.0
63.648	5.0
63.664	4.0
63.679	0.0
63.694	5.0
63.709	5.0
63.724	7.0
63.739	3.0
63.754	1.0
63.769	11.0
63.784	6.0
63.799	10.0
63.814	6.0
63.83	7.0
63.845	5.0
63.86	3.0
63.875	3.0
63.89	6.0
63.905	8.0
63.92	2.0
63.935	6.0
63.95	5.0
63.965	4.0
63.98	1.0
63.996	1.0
64.011	2.0
64.026	5.0
64.041	1.0
64.056	3.0
64.071	1.0
64.086	7.0
64.101	2.0
64.116	0.0
64.131	6.0
64.146	2.0
64.161	5.0
64.176	6.0
64.191	1.0
64.207	6.0
64.222	5.0
64.237	1.0
64.252	5.0
64.267	4.0
64.282	1.0
64.297	3.0
64.312	6.0
64.327	4.0
64.342	2.0
64.357	3.0
64.372	2.0
64.387	4.0
64.402	4.0
64.417	3.0
64.433	3.0
64.448	4.0
64.463	2.0
64.478	8.0
64.493	2.0
64.508	4.0
64.523	2.0
64.538	4.0
64.553	6.0
64.568	3.0
64.583	2.0
64.598	3.0
64.613	2.0
64.628	1.0
64.643	6.0
64.658	3.0
64.673	4.0
64.688	5.0
64.703	8.0
64.718	2.0
64.734	3.0
64.749	0.0
64.764	5.0
64.779	1.0
64.794	2.0
64.809	4.0
64.824	0.0
64.839	5.0
64.854	5.0
64.869	4.0
64.884	5.0
64.899	7.0
64.914	4.0
64.929	3.0
64.944	5.0
64.959	2.0
64.974	2.0
64.989	3.0
65.004	10.0
65.019	5.0
65.034	2.0
65.049	4.0
65.064	4.0
65.079	3.0
65.094	4.0
65.109	5.0
65.125	4.0
65.14	4.0
65.155	4.0
65.17	4.0
65.185	5.0
65.2	6.0
65.215	2.0
65.23	5.0
65.245	4.0
65.26	6.0
65.275	6.0
65.29	9.0
65.305	9.0
65.32	5.0
65.335	5.0
65.35	6.0
65.365	4.0
65.38	5.0
65.395	6.0
65.41	5.0
65.425	3.0
65.44	3.0
65.455	5.0
65.47	2.0
65.485	4.0
65.5	3.0
65.515	3.0
65.53	3.0
65.545	7.0
65.56	2.0
65.575	2.0
65.59	4.0
65.605	4.0
65.62	2.0
65.635	3.0
65.65	6.0
65.666	1.0
65.681	2.0
65.696	6.0
65.711	9.0
65.726	4.0
65.741	4.0
65.756	4.0
65.771	3.0
65.786	3.0
65.801	1.0
65.816	3.0
65.831	4.0
65.846	0.0
65.861	4.0
65.876	3.0
65.891	1.0
65.906	4.0
65.921	6.0
65.936	2.0
65.951	3.0
65.966	4.0
65.981	4.0
65.996	2.0
66.011	3.0
66.026	1.0
66.041	3.0
66.056	4.0
66.071	6.0
66.086	5.0
66.101	8.0
66.116	6.0
66.131	4.0
66.146	3.0
66.161	7.0
66.176	6.0
66.191	10.0
66.206	8.0
66.221	10.0
66.236	9.0
66.251	8.0
66.266	5.0
66.281	3.0
66.296	4.0
66.311	4.0
66.327	2.0
66.342	6.0
66.357	7.0
66.372	0.0
66.387	4.0
66.402	7.0
66.417	2.0
66.432	3.0
66.447	7.0
66.462	3.0
66.477	0.0
66.492	7.0
66.507	5.0
66.522	4.0
66.537	3.0
66.552	4.0
66.567	4.0
66.582	4.0
66.597	4.0
66.612	6.0
66.627	2.0
66.642	4.0
66.657	5.0
66.672	4.0
66.687	2.0
66.702	4.0
66.717	5.0
66.732	0.0
66.747	3.0
66.762	4.0
66.777	2.0
66.792	6.0
66.807	3.0
66.822	6.0
66.837	1.0
66.853	2.0
66.868	2.0
66.883	2.0
66.898	6.0
66.913	3.0
66.928	3.0
66.943	3.0
66.958	6.0
66.973	4.0
66.988	3.0
67.003	3.0
67.018	5.0
67.033	3.0
67.048	3.0
67.063	4.0
67.078	4.0
67.093	8.0
67.108	3.0
67.123	2.0
67.138	6.0
67.153	3.0
67.168	5.0
67.183	4.0
67.198	1.0
67.214	2.0
67.229	2.0
67.244	5.0
67.259	3.0
67.274	5.0
67.289	6.0
67.304	2.0
67.319	5.0
67.334	4.0
67.349	4.0
67.364	4.0
67.379	2.0
67.394	3.0
67.409	4.0
67.424	5.0
67.439	4.0
67.454	5.0
67.469	5.0
67.484	3.0
67.5	1.0
67.515	3.0
67.53	4.0
67.545	2.0
67.56	2.0
67.575	6.0
67.59	3.0
67.605	6.0
67.62	3.0
67.635	6.0
67.65	5.0
67.665	1.0
67.68	6.0
67.695	2.0
67.71	5.0
67.726	2.0
67.741	4.0
67.756	5.0
67.771	2.0
67.786	1.0
67.801	3.0
67.816	4.0
67.831	6.0
67.846	7.0
67.861	2.0
67.876	2.0
67.891	2.0
67.906	1.0
67.922	5.0
67.937	7.0
67.952	6.0
67.967	5.0
67.982	8.0
67.997	4.0
68.012	3.0
68.027	5.0
68.042	3.0
68.057	0.0
68.072	4.0
68.087	3.0
68.103	3.0
68.118	2.0
68.133	2.0
68.148	6.0
68.163	1.0
68.178	7.0
68.193	2.0
68.208	6.0
68.223	6.0
68.238	3.0
68.254	7.0
68.269	2.0
68.284	3.0
68.299	1.0
68.314	1.0
68.329	2.0
68.344	2.0
68.359	5.0
68.374	7.0
68.389	1.0
68.405	5.0
68.42	4.0
68.435	3.0
68.45	3.0
68.465	4.0
68.48	3.0
68.495	2.0
68.51	6.0
68.525	2.0
68.54	5.0
68.556	4.0
68.571	4.0
68.586	4.0
68.601	1.0
68.616	3.0
68.631	4.0
68.646	4.0
68.661	2.0
68.676	0.0
68.691	4.0
68.707	3.0
68.722	5.0
68.737	4.0
68.752	3.0
68.767	4.0
68.782	3.0
68.797	5.0
68.812	1.0
68.827	2.0
68.842	4.0
68.857	2.0
68.873	4.0
68.888	4.0
68.903	7.0
68.918	5.0
68.933	4.0
68.948	7.0
68.963	1.0
68.978	3.0
68.993	4.0
69.008	4.0
69.023	1.0
69.038	3.0
69.054	2.0
69.069	3.0
69.084	1.0
69.099	4.0
69.114	7.0
69.129	4.0
69.144	2.0
69.159	4.0
69.174	4.0
69.189	4.0
69.204	3.0
69.219	2.0
69.234	4.0
69.249	4.0
69.264	4.0
69.279	5.0
69.295	2.0
69.31	2.0
69.325	3.0
69.34	2.0
69.355	4.0
69.37	3.0
69.385	2.0
69.4	4.0
69.415	6.0
69.43	2.0
69.445	2.0
69.46	1.0
69.475	4.0
69.49	5.0
69.505	1.0
69.52	6.0
69.535	4.0
69.55	4.0
69.565	2.0
69.58	1.0
69.595	5.0
69.61	4.0
69.625	3.0
69.64	1.0
69.655	3.0
69.67	1.0
69.685	3.0
69.7	5.0
69.715	5.0
69.73	7.0
69.745	10.0
69.76	5.0
69.775	7.0
69.79	9.0
69.805	4.0
69.82	9.0
69.835	4.0
69.85	6.0
69.865	4.0
69.88	4.0
69.895	1.0
69.909	1.0
69.924	3.0
69.939	4.0
69.954	5.0
69.969	4.0
69.984	3.0
69.999	1.0
70.014	5.0
70.029	6.0
70.044	6.0
70.059	5.0
70.074	3.0
70.088	3.0
70.103	4.0
70.118	2.0
70.133	2.0
70.148	4.0
70.163	8.0
70.178	2.0
70.193	5.0
70.208	4.0
70.222	4.0
70.237	6.0
70.252	8.0
70.267	5.0
70.282	5.0
70.297	5.0
70.312	3.0
70.327	3.0
70.341	5.0
70.356	4.0
70.371	5.0
70.386	3.0
70.401	6.0
70.416	2.0
70.43	3.0
70.445	4.0
70.46	4.0
70.475	3.0
70.49	4.0
70.505	4.0
70.519	6.0
70.534	6.0
70.549	1.0
70.564	5.0
70.579	5.0
70.594	4.0
70.608	6.0
70.623	6.0
70.638	5.0
70.653	6.0
70.668	7.0
70.683	9.0
70.697	3.0
70.712	9.0
70.727	11.0
70.742	8.0
70.757	6.0
70.771	6.0
70.786	4.0
70.801	5.0
70.816	5.0
70.831	2.0
70.845	2.0
70.86	1.0
70.875	5.0
70.89	3.0
70.905	3.0
70.92	1.0
70.934	3.0
70.949	1.0
70.964	5.0
70.979	3.0
70.994	5.0
71.008	2.0
71.023	7.0
71.038	3.0
71.053	4.0
71.068	6.0
71.082	3.0
71.097	6.0
71.112	4.0
71.127	5.0
71.142	5.0
71.156	6.0
71.171	4.0
71.186	3.0
71.201	5.0
71.216	3.0
71.231	6.0
71.245	3.0
71.26	4.0
71.275	5.0
71.29	5.0
71.305	4.0
71.319	4.0
71.334	4.0
71.349	6.0
71.364	2.0
71.379	6.0
71.394	5.0
71.408	7.0
71.423	1.0
71.438	5.0
71.453	2.0
71.468	2.0
71.483	2.0
71.497	4.0
71.512	3.0
71.527	5.0
71.542	3.0
71.557	0.0
71.572	2.0
71.586	8.0
71.601	3.0
71.616	5.0
71.631	3.0
71.646	2.0
71.661	6.0
71.676	5.0
71.69	4.0
71.705	4.0
71.72	2.0
71.735	3.0
71.75	5.0
71.765	1.0
71.78	9.0
71.795	6.0
71.81	3.0
71.824	0.0
71.839	2.0
71.854	5.0
71.869	5.0
71.884	6.0
71.899	1.0
71.914	5.0
71.929	1.0
71.944	3.0
71.959	1.0
71.974	4.0
71.988	3.0
72.003	2.0
72.018	3.0
72.033	3.0
72.048	3.0
72.063	2.0
72.078	3.0
72.093	5.0
72.108	4.0
72.123	1.0
72.138	2.0
72.153	0.0
72.168	4.0
72.183	3.0
72.198	3.0
72.213	4.0
72.228	4.0
72.243	3.0
72.258	1.0
72.273	3.0
72.288	4.0
72.303	3.0
72.318	3.0
72.333	1.0
72.348	9.0
72.363	7.0
72.378	6.0
72.393	2.0
72.408	3.0
72.423	2.0
72.438	3.0
72.453	6.0
72.468	2.0
72.483	0.0
72.498	1.0
72.513	2.0
72.528	3.0
72.543	2.0
72.558	3.0
72.573	1.0
72.588	0.0
72.603	1.0
72.618	4.0
72.633	3.0
72.649	3.0
72.664	1.0
72.679	5.0
72.694	8.0
72.709	3.0
72.724	4.0
72.739	3.0
72.754	5.0
72.769	2.0
72.784	2.0
72.799	5.0
72.814	5.0
72.829	4.0
72.845	4.0
72.86	6.0
72.875	5.0
72.89	3.0
72.905	2.0
72.92	2.0
72.935	5.0
72.95	5.0
72.965	5.0
72.98	3.0
72.996	4.0
73.011	1.0
73.026	5.0
73.041	2.0
73.056	0.0
73.071	3.0
73.086	2.0
73.101	0.0
73.117	1.0
73.132	3.0
73.147	5.0
73.162	10.0
73.177	3.0
73.192	5.0
73.207	3.0
73.222	2.0
73.238	4.0
73.253	8.0
73.268	5.0
73.283	6.0
73.298	6.0
73.313	6.0
73.328	3.0
73.343	4.0
73.359	6.0
73.374	8.0
73.389	5.0
73.404	2.0
73.419	2.0
73.434	3.0
73.449	2.0
73.465	8.0
73.48	1.0
73.495	3.0
73.51	4.0
73.525	1.0
73.54	5.0
73.556	4.0
73.571	2.0
73.586	2.0
73.601	5.0
73.616	2.0
73.631	6.0
73.646	5.0
73.662	2.0
73.677	4.0
73.692	1.0
73.707	2.0
73.722	1.0
73.737	7.0
73.752	4.0
73.768	3.0
73.783	3.0
73.798	1.0
73.813	5.0
73.828	1.0
73.843	6.0
73.859	3.0
73.874	6.0
73.889	4.0
73.904	3.0
73.919	5.0
73.934	2.0
73.949	3.0
73.965	1.0
73.98	3.0
73.995	7.0
74.01	4.0
74.025	3.0
74.04	2.0
74.056	4.0
74.071	1.0
74.086	8.0
74.101	2.0
74.116	2.0
74.131	3.0
74.146	4.0
74.162	5.0
74.177	4.0
74.192	5.0
74.207	8.0
74.222	4.0
74.237	1.0
74.252	5.0
74.268	5.0
74.283	6.0
74.298	4.0
74.313	2.0
74.328	4.0
74.343	5.0
74.358	4.0
74.374	1.0
74.389	6.0
74.404	2.0
74.419	4.0
74.434	4.0
74.449	2.0
74.464	4.0
74.48	1.0
74.495	7.0
74.51	2.0
74.525	3.0
74.54	3.0
74.555	2.0
74.57	2.0
74.586	4.0
74.601	1.0
74.616	7.0
74.631	2.0
74.646	7.0
74.661	10.0
74.676	5.0
74.691	5.0
74.707	5.0
74.722	5.0
74.737	9.0
74.752	4.0
74.767	4.0
74.782	4.0
74.797	0.0
74.813	2.0
74.828	5.0
74.843	2.0
74.858	4.0
74.873	3.0
74.888	3.0
74.903	5.0
74.918	5.0
74.934	3.0
74.949	3.0
74.964	3.0
74.979	5.0
74.994	3.0
75.009	2.0
75.024	3.0
75.04	5.0
75.055	7.0
75.07	2.0
75.085	3.0
75.1	5.0
75.115	4.0
75.13	3.0
75.145	6.0
75.161	3.0
75.176	2.0
75.191	9.0
75.206	6.0
75.221	3.0
75.236	4.0
75.251	1.0
75.266	4.0
75.282	0.0
75.297	7.0
75.312	5.0
75.327	2.0
75.342	3.0
75.357	0.0
75.372	1.0
75.387	2.0
75.403	0.0
75.418	3.0
75.433	4.0
75.448	3.0
75.463	4.0
75.478	3.0
75.493	3.0
75.509	7.0
75.524	6.0
75.539	3.0
75.554	3.0
75.569	2.0
75.584	0.0
75.599	6.0
75.614	5.0
75.63	5.0
75.645	4.0
75.66	6.0
75.675	6.0
75.69	4.0
75.705	4.0
75.72	4.0
75.735	6.0
75.751	4.0
75.766	0.0
75.781	2.0
75.796	1.0
75.811	2.0
75.826	3.0
75.841	3.0
75.856	4.0
75.872	3.0
75.887	6.0
75.902	2.0
75.917	1.0
75.932	1.0
75.947	7.0
75.962	2.0
75.977	4.0
75.993	6.0
76.008	4.0
76.023	2.0
76.038	3.0
76.053	3.0
76.068	2.0
76.083	1.0
76.098	6.0
76.114	1.0
76.129	3.0
76.144	1.0
76.159	2.0
76.174	1.0
76.189	6.0
76.204	7.0
76.22	2.0
76.235	5.0
76.25	2.0
76.265	5.0
76.28	1.0
76.295	0.0
76.31	6.0
76.325	2.0
76.341	3.0
76.356	4.0
76.371	4.0
76.386	4.0
76.401	3.0
76.416	3.0
76.431	0.0
76.446	5.0
76.462	4.0
76.477	2.0
76.492	3.0
76.507	4.0
76.522	8.0
76.537	2.0
76.552	1.0
76.567	2.0
76.583	4.0
76.598	2.0
76.613	0.0
76.628	3.0
76.643	3.0
76.658	4.0
76.673	1.0
76.688	3.0
76.704	5.0
76.719	0.0
76.734	7.0
76.749	3.0
76.764	5.0
76.779	6.0
76.794	3.0
76.809	7.0
76.824	4.0
76.84	3.0
76.855	2.0
76.87	0.0
76.885	3.0
76.9	5.0
76.915	4.0
76.93	3.0
76.945	2.0
76.96	4.0
76.976	0.0
76.991	6.0
77.006	2.0
77.021	3.0
77.036	3.0
77.051	2.0
77.066	2.0
77.081	3.0
77.096	2.0
77.112	4.0
77.127	2.0
77.142	1.0
77.157	4.0
77.172	3.0
77.187	3.0
77.202	7.0
77.217	3.0
77.232	4.0
77.247	3.0
77.263	5.0
77.278	4.0
77.293	4.0
77.308	3.0
77.323	6.0
77.338	4.0
77.353	4.0
77.368	1.0
77.383	0.0
77.398	4.0
77.413	2.0
77.428	2.0
77.444	5.0
77.459	3.0
77.474	7.0
77.489	3.0
77.504	4.0
77.519	4.0
77.534	4.0
77.549	5.0
77.564	4.0
77.579	3.0
77.594	6.0
77.609	4.0
77.624	2.0
77.64	5.0
77.655	7.0
77.67	2.0
77.685	3.0
77.7	5.0
77.715	4.0
77.73	3.0
77.745	5.0
77.76	4.0
77.775	5.0
77.79	3.0
77.805	3.0
77.82	4.0
77.835	6.0
77.85	4.0
77.865	4.0
77.88	3.0
77.895	2.0
77.91	4.0
77.926	3.0
77.941	4.0
77.956	4.0
77.971	6.0
77.986	6.0
78.001	3.0
78.016	4.0
78.031	2.0
78.046	2.0
78.061	1.0
78.076	4.0
78.091	1.0
78.106	3.0
78.121	4.0
78.136	5.0
78.151	4.0
78.166	5.0
78.181	4.0
78.196	4.0
78.211	8.0
78.226	3.0
78.241	4.0
78.256	4.0
78.271	1.0
78.286	4.0
78.301	1.0
78.316	4.0
78.331	3.0
78.346	5.0
78.361	2.0
78.376	2.0
78.391	0.0
78.406	2.0
78.421	4.0
78.436	3.0
78.451	2.0
78.466	1.0
78.481	1.0
78.496	3.0
78.511	5.0
78.526	2.0
78.541	3.0
78.556	3.0
78.571	3.0
78.586	3.0
78.601	3.0
78.616	6.0
78.631	3.0
78.646	0.0
78.661	2.0
78.676	3.0
78.691	1.0
78.706	4.0
78.721	2.0
78.736	4.0
78.751	4.0
78.766	1.0
78.781	3.0
78.796	2.0
78.811	5.0
78.826	3.0
78.841	5.0
78.856	2.0
78.871	4.0
78.885	4.0
78.9	4.0
78.915	4.0
78.93	1.0
78.945	3.0
78.96	5.0
78.975	1.0
78.99	3.0
79.005	2.0
79.02	1.0
79.035	3.0
79.05	3.0
79.065	0.0
79.08	2.0
79.095	2.0
79.11	2.0
79.125	4.0
79.14	6.0
79.155	2.0
79.17	7.0
79.185	3.0
79.2	6.0
79.215	2.0
79.23	4.0
79.245	1.0
79.26	2.0
79.275	3.0
79.29	1.0
79.304	2.0
79.319	3.0
79.334	2.0
79.349	9.0
79.364	6.0
79.379	2.0
79.394	2.0
79.409	4.0
79.424	7.0
79.439	4.0
79.454	4.0
79.469	1.0
79.484	4.0
79.499	4.0
79.514	1.0
79.529	2.0
79.544	3.0
79.559	7.0
79.574	0.0
79.589	3.0
79.604	4.0
79.619	4.0
79.634	3.0
79.649	5.0
79.664	5.0
79.679	3.0
79.693	2.0
79.708	3.0
79.723	1.0
79.738	4.0
79.753	3.0
79.768	1.0
79.783	3.0
79.798	3.0
79.813	1.0
79.828	2.0
79.843	4.0
79.858	2.0
79.873	2.0
79.888	2.0
79.903	3.0
79.918	2.0
79.933	5.0
79.948	5.0
79.963	2.0
79.978	2.0
79.993	4.0
80.008	4.0
80.023	4.0
80.038	4.0
80.053	4.0
80.068	3.0
80.083	8.0
80.098	4.0
80.113	5.0
80.128	7.0
80.143	5.0
80.158	3.0
80.173	7.0
80.188	4.0
80.202	6.0
80.217	4.0
80.232	3.0
80.247	3.0
80.262	4.0
80.277	3.0
80.292	1.0
80.307	4.0
80.322	6.0
80.337	5.0
80.352	2.0
80.367	1.0
80.382	1.0
80.397	3.0
80.412	1.0
80.427	2.0
80.442	5.0
80.457	2.0
80.472	0.0
80.487	5.0
80.502	5.0
80.517	4.0
80.532	4.0
80.547	1.0
80.562	6.0
80.577	3.0
80.592	3.0
80.607	3.0
80.622	6.0
80.637	6.0
80.652	4.0
80.667	6.0
80.682	3.0
80.697	0.0
80.712	4.0
80.727	6.0
80.742	2.0
80.757	0.0
80.772	1.0
80.787	5.0
80.802	9.0
80.817	4.0
80.832	6.0
80.847	7.0
80.862	4.0
80.877	1.0
80.892	1.0
80.907	0.0
80.922	1.0
80.937	3.0
80.952	2.0
80.967	3.0
80.982	3.0
80.997	3.0
81.012	7.0
81.027	2.0
81.042	2.0
81.057	6.0
81.072	5.0
81.087	6.0
81.101	4.0
81.116	5.0
81.131	5.0
81.146	4.0
81.161	3.0
81.176	4.0
81.191	2.0
81.206	4.0
81.221	1.0
81.236	4.0
81.251	2.0
81.266	4.0
81.281	3.0
81.296	3.0
81.311	2.0
81.326	1.0
81.341	3.0
81.356	4.0
81.371	4.0
81.386	5.0
81.401	2.0
81.416	1.0
81.431	2.0
81.446	0.0
81.461	1.0
81.476	1.0
81.491	6.0
81.506	5.0
81.521	3.0
81.536	1.0
81.55	1.0
81.565	2.0
81.58	5.0
81.595	1.0
81.61	4.0
81.625	5.0
81.64	4.0
81.655	6.0
81.67	7.0
81.685	3.0
81.7	1.0
81.715	3.0
81.73	2.0
81.745	5.0
81.76	0.0
81.775	4.0
81.79	2.0
81.805	4.0
81.819	4.0
81.834	5.0
81.849	3.0
81.864	3.0
81.879	6.0
81.894	2.0
81.909	3.0
81.924	4.0
81.939	3.0
81.954	3.0
81.969	4.0
81.984	3.0
81.999	3.0
82.013	4.0
82.028	2.0
82.043	1.0
82.058	1.0
82.073	3.0
82.088	5.0
82.103	3.0
82.118	0.0
82.133	1.0
82.148	2.0
82.163	1.0
82.177	1.0
82.192	2.0
82.207	6.0
82.222	2.0
82.237	5.0
82.252	1.0
82.267	1.0
82.282	1.0
82.297	0.0
82.312	5.0
82.326	2.0
82.341	1.0
82.356	5.0
82.371	2.0
82.386	5.0
82.401	4.0
82.416	0.0
82.431	3.0
82.445	4.0
82.46	4.0
82.475	4.0
82.49	3.0
82.505	5.0
82.52	4.0
82.535	2.0
82.55	1.0
82.565	3.0
82.579	3.0
82.594	2.0
82.609	6.0
82.624	0.0
82.639	2.0
82.654	1.0
82.669	3.0
82.684	1.0
82.698	4.0
82.713	2.0
82.728	2.0
82.743	6.0
82.758	3.0
82.773	1.0
82.788	5.0
82.803	3.0
82.817	3.0
82.832	2.0
82.847	1.0
82.862	2.0
82.877	6.0
82.892	3.0
82.907	3.0
82.922	1.0
82.937	3.0
82.951	2.0
82.966	4.0
82.981	4.0
82.996	5.0
83.011	3.0
83.026	1.0
83.041	1.0
83.056	3.0
83.07	3.0
83.085	1.0
83.1	4.0
83.115	4.0
83.13	4.0
83.145	4.0
83.16	6.0
83.175	1.0
83.19	5.0
83.204	1.0
83.219	3.0
83.234	2.0
83.249	1.0
83.264	3.0
83.279	3.0
83.294	3.0
83.309	3.0
83.324	6.0
83.339	3.0
83.353	3.0
83.368	1.0
83.383	3.0
83.398	3.0
83.413	1.0
83.428	2.0
83.443	4.0
83.458	5.0
83.473	4.0
83.488	3.0
83.503	3.0
83.517	4.0
83.532	3.0
83.547	6.0
83.562	2.0
83.577	3.0
83.592	2.0
83.607	5.0
83.622	2.0
83.637	1.0
83.652	5.0
83.667	5.0
83.682	4.0
83.697	2.0
83.712	4.0
83.727	3.0
83.741	4.0
83.756	1.0
83.771	2.0
83.786	2.0
83.801	2.0
83.816	2.0
83.831	4.0
83.846	3.0
83.861	2.0
83.876	1.0
83.891	3.0
83.906	1.0
83.921	2.0
83.936	4.0
83.951	6.0
83.966	5.0
83.981	3.0
83.996	4.0
84.011	1.0
84.026	4.0
84.041	5.0
84.056	1.0
84.071	1.0
84.086	5.0
84.101	3.0
84.116	2.0
84.131	3.0
84.146	3.0
84.161	2.0
84.176	4.0
84.191	2.0
84.206	3.0
84.221	1.0
84.236	7.0
84.251	5.0
84.266	4.0
84.281	2.0
84.296	4.0
84.311	4.0
84.326	5.0
84.341	1.0
84.356	9.0
84.371	3.0
84.386	7.0
84.401	2.0
84.416	4.0
84.431	3.0
84.446	6.0
84.461	5.0
84.476	3.0
84.492	5.0
84.507	5.0
84.522	4.0
84.537	2.0
84.552	6.0
84.567	2.0
84.582	2.0
84.597	4.0
84.612	4.0
84.627	1.0
84.642	5.0
84.657	2.0
84.672	4.0
84.687	1.0
84.702	7.0
84.717	0.0
84.733	3.0
84.748	2.0
84.763	1.0
84.778	5.0
84.793	3.0
84.808	3.0
84.823	3.0
84.838	3.0
84.853	3.0
84.868	3.0
84.883	2.0
84.898	3.0
84.913	4.0
84.929	3.0
84.944	6.0
84.959	5.0
84.974	7.0
84.989	4.0
85.004	7.0
85.019	4.0
85.034	2.0
85.049	2.0
85.064	8.0
85.079	6.0
85.094	3.0
85.11	1.0
85.125	3.0
85.14	2.0
85.155	3.0
85.17	1.0
85.185	3.0
85.2	1.0
85.215	3.0
85.23	1.0
85.245	1.0
85.26	1.0
85.276	1.0
85.291	5.0
85.306	2.0
85.321	1.0
85.336	2.0
85.351	1.0
85.366	2.0
85.381	0.0
85.396	0.0
85.411	2.0
85.426	1.0
85.441	3.0
85.457	2.0
85.472	3.0
85.487	5.0
85.502	2.0
85.517	1.0
85.532	2.0
85.547	3.0
85.562	1.0
85.577	4.0
85.592	1.0
85.607	2.0
85.622	1.0
85.637	4.0
85.653	4.0
85.668	2.0
85.683	2.0
85.698	2.0
85.713	0.0
85.728	1.0
85.743	2.0
85.758	3.0
85.773	5.0
85.788	2.0
85.803	2.0
85.818	5.0
85.833	0.0
85.848	3.0
85.863	2.0
85.879	5.0
85.894	2.0
85.909	4.0
85.924	4.0
85.939	3.0
85.954	3.0
85.969	2.0
85.984	3.0
85.999	7.0
86.014	2.0
86.029	4.0
86.044	4.0
86.059	2.0
86.074	4.0
86.089	0.0
86.104	2.0
86.119	3.0
86.134	0.0
86.149	3.0
86.164	3.0
86.179	2.0
86.194	1.0
86.209	2.0
86.224	2.0
86.239	3.0
86.254	2.0
86.269	2.0
86.284	4.0
86.299	4.0
86.314	0.0
86.33	6.0
86.345	4.0
86.36	4.0
86.375	1.0
86.39	3.0
86.405	0.0
86.42	4.0
86.435	2.0
86.45	2.0
86.465	3.0
86.48	4.0
86.495	4.0
86.51	3.0
86.525	1.0
86.54	1.0
86.555	4.0
86.57	3.0
86.585	2.0
86.6	2.0
86.615	5.0
86.63	0.0
86.645	2.0
86.659	3.0
86.674	3.0
86.689	4.0
86.704	3.0
86.719	5.0
86.734	4.0
86.749	7.0
86.764	1.0
86.779	3.0
86.794	2.0
86.809	2.0
86.824	7.0
86.839	4.0
86.854	4.0
86.869	4.0
86.884	4.0
86.899	2.0
86.914	5.0
86.929	6.0
86.944	4.0
86.959	4.0
86.974	2.0
86.989	2.0
87.004	2.0
87.019	4.0
87.034	2.0
87.049	3.0
87.064	2.0
87.079	3.0
87.094	6.0
87.109	4.0
87.124	9.0
87.139	1.0
87.154	2.0
87.169	1.0
87.184	1.0
87.199	2.0
87.214	2.0
87.229	3.0
87.244	5.0
87.259	4.0
87.274	4.0
87.289	3.0
87.304	4.0
87.319	4.0
87.334	1.0
87.349	4.0
87.364	3.0
87.379	6.0
87.394	2.0
87.409	5.0
87.424	0.0
87.438	5.0
87.453	1.0
87.468	4.0
87.483	4.0
87.498	5.0
87.513	3.0
87.528	3.0
87.543	3.0
87.558	3.0
87.573	2.0
87.588	6.0
87.603	1.0
87.618	1.0
87.633	4.0
87.648	4.0
87.663	8.0
87.678	2.0
87.693	5.0
87.708	1.0
87.723	6.0
87.738	1.0
87.753	2.0
87.768	4.0
87.783	3.0
87.798	3.0
87.813	3.0
87.828	4.0
87.843	4.0
87.858	3.0
87.873	1.0
87.888	3.0
87.903	8.0
87.918	1.0
87.933	6.0
87.948	3.0
87.963	4.0
87.978	1.0
87.993	3.0
88.008	3.0
88.023	6.0
88.038	2.0
88.053	4.0
88.068	2.0
88.083	0.0
88.098	3.0
88.113	3.0
88.128	4.0
88.143	2.0
88.158	2.0
88.174	5.0
88.189	2.0
88.204	0.0
88.219	1.0
88.234	4.0
88.249	2.0
88.264	0.0
88.279	3.0
88.294	4.0
88.309	2.0
88.324	6.0
88.339	6.0
88.354	6.0
88.369	3.0
88.384	1.0
88.399	3.0
88.414	6.0
88.429	2.0
88.444	2.0
88.459	2.0
88.474	3.0
88.489	5.0
88.504	4.0
88.519	2.0
88.534	4.0
88.549	1.0
88.564	2.0
88.58	2.0
88.595	6.0
88.61	4.0
88.625	5.0
88.64	2.0
88.655	0.0
88.67	7.0
88.685	1.0
88.7	3.0
88.715	3.0
88.73	2.0
88.745	6.0
88.76	2.0
88.775	3.0
88.79	3.0
88.805	2.0
88.82	5.0
88.835	2.0
88.85	1.0
88.865	6.0
88.88	0.0
88.895	2.0
88.911	5.0
88.926	3.0
88.941	1.0
88.956	3.0
88.971	1.0
88.986	2.0
89.001	2.0
89.016	3.0
89.031	4.0
89.046	0.0
89.061	1.0
89.076	4.0
89.091	2.0
89.106	2.0
89.121	2.0
89.136	2.0
89.151	4.0
89.166	3.0
89.181	2.0
89.196	1.0
89.211	2.0
89.227	4.0
89.242	2.0
89.257	3.0
89.272	5.0
89.287	5.0
89.302	1.0
89.317	5.0
89.332	0.0
89.347	0.0
89.362	2.0
89.377	2.0
89.392	4.0
89.407	3.0
89.422	3.0
89.437	1.0
89.452	5.0
89.467	6.0
89.482	5.0
89.497	4.0
89.512	5.0
89.527	2.0
89.542	3.0
89.557	0.0
89.572	5.0
89.587	4.0
89.602	6.0
89.617	1.0
89.632	3.0
89.647	0.0
89.662	5.0
89.677	3.0
89.693	2.0
89.708	6.0
89.723	6.0
89.738	3.0
89.753	3.0
89.768	2.0
89.783	5.0
89.798	1.0
89.813	2.0
89.828	2.0
89.843	3.0
89.858	2.0
89.873	3.0
89.888	3.0
89.903	4.0
89.918	1.0
89.933	4.0
89.948	6.0
89.963	3.0
89.978	6.0
89.993	1.0
90.008	3.0
90.023	3.0
90.038	4.0
90.053	2.0
90.068	1.0
90.083	5.0
90.097	4.0
90.112	7.0
90.127	8.0
90.142	5.0
90.157	3.0
90.172	8.0
90.187	7.0
90.202	3.0
90.217	4.0
90.232	3.0
90.247	3.0
90.262	3.0
90.277	5.0
90.292	2.0
90.307	1.0
90.322	3.0
90.337	5.0
90.352	4.0
90.367	2.0
90.382	2.0
90.397	3.0
90.412	8.0
90.427	4.0
90.442	5.0
90.457	5.0
90.472	4.0
90.487	0.0
90.501	2.0
90.516	0.0
90.531	3.0
90.546	4.0
90.561	1.0
90.576	4.0
90.591	0.0
90.606	2.0
90.621	3.0
90.636	2.0
90.651	7.0
90.666	1.0
90.681	4.0
90.696	10.0
90.711	4.0
90.726	0.0
90.741	1.0
90.755	3.0
90.77	4.0
90.785	2.0
90.8	0.0
90.815	3.0
90.83	2.0
90.845	4.0
90.86	2.0
90.875	6.0
90.89	3.0
90.905	6.0
90.92	2.0
90.935	4.0
90.95	2.0
90.965	6.0
90.979	2.0
90.994	4.0
91.009	3.0
91.024	1.0
91.039	2.0
91.054	4.0
91.069	5.0
91.084	5.0
91.099	5.0
91.114	0.0
91.129	3.0
91.144	1.0
91.159	1.0
91.174	1.0
91.188	0.0
91.203	2.0
91.218	1.0
91.233	4.0
91.248	2.0
91.263	3.0
91.278	3.0
91.293	0.0
91.308	5.0
91.323	2.0
91.338	4.0
91.353	3.0
91.368	4.0
91.383	4.0
91.398	2.0
91.412	1.0
91.427	3.0
91.442	3.0
91.457	1.0
91.472	2.0
91.487	1.0
91.502	4.0
91.517	3.0
91.532	0.0
91.547	4.0
91.562	0.0
91.577	1.0
91.592	0.0
91.607	6.0
91.622	3.0
91.637	3.0
91.652	4.0
91.666	3.0
91.681	3.0
91.696	1.0
91.711	1.0
91.726	3.0
91.741	0.0
91.756	2.0
91.771	4.0
91.786	2.0
91.801	1.0
91.816	3.0
91.831	3.0
91.846	0.0
91.861	3.0
91.876	2.0
91.891	2.0
91.906	1.0
91.921	3.0
91.936	2.0
91.951	5.0
91.966	6.0
91.981	4.0
91.995	4.0
92.01	4.0
92.025	2.0
92.04	2.0
92.055	4.0
92.07	2.0
92.085	2.0
92.1	2.0
92.115	4.0
92.13	2.0
92.145	2.0
92.16	3.0
92.175	1.0
92.19	2.0
92.205	4.0
92.22	8.0
92.235	4.0
92.25	4.0
92.265	2.0
92.28	3.0
92.295	4.0
92.31	2.0
92.325	1.0
92.34	3.0
92.355	4.0
92.37	5.0
92.385	4.0
92.4	2.0
92.415	7.0
92.43	3.0
92.445	4.0
92.46	4.0
92.475	3.0
92.49	2.0
92.505	3.0
92.52	5.0
92.535	2.0
92.55	1.0
92.565	4.0
92.58	3.0
92.595	2.0
92.61	1.0
92.625	2.0
92.64	3.0
92.655	2.0
92.67	1.0
92.685	5.0
92.7	2.0
92.715	1.0
92.73	6.0
92.745	3.0
92.76	2.0
92.775	4.0
92.79	5.0
92.805	0.0
92.82	4.0
92.835	3.0
92.85	2.0
92.865	2.0
92.88	4.0
92.895	1.0
92.91	2.0
92.925	0.0
92.94	2.0
92.955	1.0
92.97	2.0
92.985	2.0
93.0	4.0
93.015	1.0
93.03	4.0
93.045	2.0
93.06	3.0
93.075	2.0
93.09	3.0
93.105	4.0
93.12	1.0
93.135	1.0
93.15	2.0
93.165	1.0
93.18	2.0
93.195	7.0
93.21	1.0
93.225	1.0
93.24	2.0
93.255	3.0
93.27	1.0
93.285	2.0
93.3	3.0
93.315	2.0
93.33	1.0
93.345	4.0
93.36	3.0
93.375	3.0
93.39	6.0
93.405	0.0
93.42	2.0
93.435	0.0
93.45	3.0
93.465	5.0
93.48	4.0
93.495	4.0
93.51	3.0
93.525	0.0
93.54	3.0
93.555	4.0
93.57	1.0
93.585	3.0
93.6	3.0
93.615	3.0
93.63	3.0
93.645	3.0
93.66	3.0
93.675	3.0
93.69	4.0
93.705	2.0
93.72	3.0
93.735	4.0
93.75	3.0
93.765	1.0
93.78	5.0
93.795	1.0
93.81	1.0
93.824	2.0
93.839	3.0
93.854	1.0
93.869	2.0
93.884	3.0
93.899	2.0
93.914	6.0
93.929	1.0
93.944	1.0
93.959	5.0
93.974	7.0
93.989	1.0
94.004	2.0
94.019	1.0
94.034	0.0
94.049	1.0
94.064	4.0
94.079	5.0
94.094	6.0
94.108	1.0
94.123	2.0
94.138	3.0
94.153	0.0
94.168	3.0
94.183	4.0
94.198	3.0
94.213	2.0
94.228	3.0
94.243	6.0
94.258	4.0
94.273	5.0
94.288	1.0
94.302	1.0
94.317	6.0
94.332	3.0
94.347	3.0
94.362	8.0
94.377	7.0
94.392	1.0
94.407	5.0
94.422	3.0
94.437	4.0
94.452	6.0
94.466	4.0
94.481	0.0
94.496	3.0
94.511	2.0
94.526	2.0
94.541	4.0
94.556	4.0
94.571	3.0
94.586	2.0
94.601	2.0
94.615	1.0
94.63	3.0
94.645	4.0
94.66	3.0
94.675	2.0
94.69	4.0
94.705	3.0
94.72	3.0
94.735	3.0
94.749	4.0
94.764	2.0
94.779	3.0
94.794	1.0
94.809	1.0
94.824	3.0
94.839	4.0
94.854	0.0
94.868	3.0
94.883	3.0
94.898	1.0
94.913	3.0
94.928	4.0
94.943	3.0
94.958	3.0
94.973	4.0
94.987	1.0
95.002	3.0
95.017	5.0
95.032	1.0
95.047	4.0
95.062	2.0
95.077	5.0
95.092	5.0
95.106	4.0
95.121	7.0
95.136	5.0
95.151	2.0
95.166	5.0
95.181	5.0
95.196	4.0
95.211	4.0
95.226	3.0
95.24	2.0
95.255	5.0
95.27	4.0
95.285	3.0
95.3	7.0
95.315	3.0
95.33	5.0
95.345	1.0
95.359	2.0
95.374	0.0
95.389	5.0
95.404	1.0
95.419	3.0
95.434	2.0
95.449	3.0
95.464	3.0
95.478	5.0
95.493	5.0
95.508	5.0
95.523	5.0
95.538	3.0
95.553	1.0
95.568	2.0
95.583	4.0
95.597	3.0
95.612	3.0
95.627	3.0
95.642	5.0
95.657	3.0
95.672	2.0
95.687	2.0
95.702	4.0
95.717	1.0
95.731	1.0
95.746	3.0
95.761	6.0
95.776	5.0
95.791	2.0
95.806	2.0
95.821	3.0
95.836	6.0
95.851	2.0
95.866	1.0
95.88	1.0
95.895	1.0
95.91	3.0
95.925	3.0
95.94	7.0
95.955	3.0
95.97	3.0
95.985	3.0
96.0	2.0
96.015	4.0
96.029	1.0
96.044	4.0
96.059	4.0
96.074	4.0
96.089	4.0
96.104	1.0
96.119	4.0
96.134	4.0
96.149	3.0
96.164	6.0
96.179	3.0
96.194	2.0
96.208	3.0
96.223	3.0
96.238	2.0
96.253	0.0
96.268	4.0
96.283	2.0
96.298	3.0
96.313	2.0
96.328	2.0
96.343	4.0
96.358	4.0
96.373	2.0
96.388	3.0
96.403	3.0
96.417	2.0
96.432	6.0
96.447	4.0
96.462	1.0
96.477	1.0
96.492	2.0
96.507	2.0
96.522	1.0
96.537	3.0
96.552	3.0
96.567	2.0
96.582	1.0
96.597	4.0
96.612	3.0
96.627	2.0
96.642	0.0
96.656	1.0
96.671	5.0
96.686	1.0
96.701	1.0
96.716	6.0
96.731	5.0
96.746	4.0
96.761	4.0
96.776	2.0
96.791	0.0
96.806	4.0
96.821	0.0
96.836	4.0
96.851	2.0
96.866	3.0
96.881	1.0
96.896	2.0
96.911	3.0
96.926	5.0
96.94	4.0
96.955	4.0
96.97	6.0
96.985	5.0
97.0	3.0
97.015	5.0
97.03	3.0
97.045	0.0
97.06	3.0
97.075	1.0
97.09	0.0
97.105	4.0
97.12	5.0
97.135	5.0
97.15	5.0
97.165	5.0
97.18	0.0
97.195	1.0
97.21	2.0
97.225	5.0
97.239	3.0
97.254	3.0
97.269	5.0
97.284	2.0
97.299	2.0
97.314	2.0
97.329	1.0
97.344	1.0
97.359	1.0
97.374	4.0
97.389	1.0
97.404	3.0
97.419	5.0
97.434	2.0
97.449	4.0
97.464	1.0
97.479	2.0
97.494	4.0
97.509	1.0
97.524	4.0
97.538	4.0
97.553	4.0
97.568	2.0
97.583	3.0
97.598	2.0
97.613	4.0
97.628	3.0
97.643	2.0
97.658	6.0
97.673	4.0
97.688	3.0
97.703	3.0
97.718	3.0
97.733	5.0
97.748	6.0
97.763	3.0
97.778	2.0
97.792	3.0
97.807	1.0
97.822	0.0
97.837	6.0
97.852	5.0
97.867	3.0
97.882	4.0
97.897	2.0
97.912	4.0
97.927	1.0
97.942	2.0
97.957	1.0
97.972	3.0
97.987	2.0
98.001	4.0
98.016	3.0
98.031	2.0
98.046	2.0
98.061	3.0
98.076	3.0
98.091	1.0
98.106	0.0
98.121	3.0
98.136	3.0
98.151	0.0
98.166	1.0
98.181	3.0
98.195	4.0
98.21	4.0
98.225	3.0
98.24	2.0
98.255	3.0
98.27	3.0
98.285	0.0
98.3	7.0
98.315	3.0
98.33	2.0
98.345	4.0
98.359	3.0
98.374	4.0
98.389	1.0
98.404	2.0
98.419	3.0
98.434	7.0
98.449	1.0
98.464	3.0
98.479	3.0
98.494	3.0
98.508	2.0
98.523	1.0
98.538	2.0
98.553	3.0
98.568	2.0
98.583	3.0
98.598	5.0
98.613	4.0
98.628	5.0
98.642	1.0
98.657	4.0
98.672	2.0
98.687	2.0
98.702	0.0
98.717	2.0
98.732	3.0
98.747	1.0
98.762	1.0
98.776	2.0
98.791	1.0
98.806	7.0
98.821	5.0
98.836	3.0
98.851	0.0
98.866	4.0
98.881	2.0
98.896	2.0
98.91	1.0
98.925	4.0
98.94	3.0
98.955	2.0
98.97	3.0
98.985	5.0
99.0	3.0
99.015	2.0
99.029	1.0
99.044	2.0
99.059	4.0
99.074	5.0
99.089	1.0
99.104	2.0
99.119	1.0
99.133	4.0
99.148	2.0
99.163	4.0
99.178	3.0
99.193	0.0
99.208	2.0
99.223	2.0
99.238	3.0
99.252	3.0
99.267	2.0
99.282	3.0
99.297	2.0
99.312	5.0
99.327	2.0
99.342	5.0
99.356	1.0
99.371	3.0
99.386	0.0
99.401	1.0
99.416	2.0
99.431	4.0
99.446	2.0
99.461	0.0
99.475	5.0
99.49	4.0
99.505	4.0
99.52	4.0
99.535	1.0
99.55	1.0
99.565	2.0
99.579	1.0
99.594	4.0
99.609	5.0
99.624	5.0
99.639	1.0
99.654	1.0
99.669	7.0
99.683	2.0
99.698	0.0
99.713	5.0
99.728	1.0
99.743	1.0
99.758	2.0
99.772	1.0
99.787	3.0
99.802	4.0
99.817	4.0
99.832	3.0
99.847	3.0
99.862	4.0
99.876	5.0
99.891	1.0
99.906	2.0
99.921	1.0
99.936	7.0
99.951	2.0
99.966	2.0
99.98	2.0
99.995	8.0
100.01	1.0
100.025	2.0
100.04	1.0
100.055	3.0
100.069	2.0
100.084	2.0
100.099	3.0
100.114	2.0
100.129	4.0
100.144	1.0
100.159	4.0
100.173	5.0
100.188	4.0
100.203	2.0
100.218	4.0
100.233	5.0
100.248	5.0
100.262	2.0
100.277	1.0
100.292	3.0
100.307	5.0
100.322	2.0
100.337	1.0
100.351	5.0
100.366	2.0
100.381	3.0
100.396	2.0
100.411	5.0
100.426	2.0
100.441	2.0
100.455	0.0
100.47	5.0
100.485	3.0
100.5	2.0
100.515	3.0
100.53	2.0
100.544	4.0
100.559	1.0
100.574	6.0
100.589	3.0
100.604	0.0
100.619	2.0
100.633	4.0
100.648	0.0
100.663	3.0
100.678	3.0
100.693	2.0
100.708	5.0
100.722	6.0
100.737	1.0
100.752	3.0
100.767	4.0
100.782	0.0
100.796	5.0
100.811	4.0
100.826	4.0
100.841	3.0
100.856	3.0
100.871	5.0
100.885	5.0
100.9	2.0
100.915	3.0
100.93	3.0
100.945	4.0
100.96	1.0
100.974	2.0
100.989	2.0
101.004	1.0
101.019	2.0
101.034	3.0
101.048	0.0
101.063	2.0
101.078	0.0
101.093	3.0
101.108	9.0
101.123	6.0
101.137	3.0
101.152	1.0
101.167	4.0
101.182	5.0
101.197	3.0
101.211	2.0
101.226	2.0
101.241	3.0
101.256	3.0
101.271	2.0
101.285	1.0
101.3	2.0
101.315	3.0
101.33	0.0
101.345	6.0
101.359	6.0
101.374	2.0
101.389	2.0
101.404	2.0
101.419	4.0
101.433	1.0
101.448	7.0
101.463	3.0
101.478	1.0
101.493	4.0
101.507	4.0
101.522	2.0
101.537	6.0
101.552	2.0
101.567	6.0
101.581	3.0
101.596	1.0
101.611	4.0
101.626	6.0
101.64	2.0
101.655	1.0
101.67	5.0
101.685	4.0
101.7	1.0
101.714	2.0
101.729	4.0
101.744	4.0
101.759	4.0
101.773	2.0
101.788	3.0
101.803	5.0
101.818	2.0
101.833	3.0
101.847	5.0
101.862	1.0
101.877	3.0
101.892	3.0
101.906	2.0
101.921	2.0
101.936	7.0
101.951	4.0
101.965	0.0
101.98	7.0
101.995	3.0
102.01	4.0
102.025	3.0
102.039	2.0
102.054	2.0
102.069	2.0
102.084	4.0
102.098	3.0
102.113	0.0
102.128	2.0
102.143	5.0
102.157	3.0
102.172	4.0
102.187	4.0
102.202	4.0
102.216	4.0
102.231	0.0
102.246	6.0
102.261	6.0
102.275	2.0
102.29	2.0
102.305	5.0
102.32	2.0
102.334	1.0
102.349	4.0
102.364	2.0
102.378	3.0
102.393	3.0
102.408	3.0
102.423	4.0
102.437	5.0
102.452	3.0
102.467	2.0
102.482	1.0
102.496	1.0
102.511	3.0
102.526	4.0
102.541	0.0
102.555	2.0
102.57	4.0
102.585	2.0
102.6	4.0
102.614	3.0
102.629	5.0
102.644	2.0
102.659	3.0
102.673	5.0
102.688	1.0
102.703	3.0
102.717	1.0
102.732	2.0
102.747	3.0
102.762	3.0
102.776	3.0
102.791	5.0
102.806	2.0
102.821	3.0
102.835	2.0
102.85	1.0
102.865	4.0
102.88	3.0
102.894	3.0
102.909	2.0
102.924	3.0
102.938	3.0
102.953	1.0
102.968	1.0
102.983	4.0
102.997	4.0
103.012	1.0
103.027	5.0
103.042	5.0
103.056	4.0
103.071	4.0
103.086	0.0
103.101	3.0
103.115	3.0
103.13	3.0
103.145	3.0
103.16	2.0
103.174	0.0
103.189	5.0
103.204	2.0
103.219	3.0
103.233	1.0
103.248	3.0
103.263	4.0
103.278	1.0
103.292	4.0
103.307	5.0
103.322	3.0
103.337	3.0
103.351	1.0
103.366	3.0
103.381	3.0
103.396	5.0
103.41	3.0
103.425	5.0
103.44	1.0
103.455	3.0
103.469	3.0
103.484	1.0
103.499	1.0
103.514	1.0
103.529	3.0
103.543	3.0
103.558	0.0
103.573	2.0
103.588	3.0
103.602	4.0
103.617	5.0
103.632	3.0
103.647	0.0
103.661	7.0
103.676	0.0
103.691	1.0
103.706	1.0
103.721	5.0
103.735	3.0
103.75	4.0
103.765	2.0
103.78	3.0
103.795	8.0
103.809	5.0
103.824	2.0
103.839	3.0
103.854	6.0
103.869	3.0
103.883	3.0
103.898	3.0
103.913	4.0
103.928	1.0
103.943	3.0
103.957	2.0
103.972	3.0
103.987	2.0
104.002	3.0
104.017	1.0
104.031	2.0
104.046	1.0
104.061	0.0
104.076	3.0
104.091	3.0
104.106	3.0
104.12	4.0
104.135	8.0
104.15	6.0
104.165	4.0
104.18	3.0
104.195	3.0
104.209	3.0
104.224	0.0
104.239	3.0
104.254	4.0
104.269	1.0
104.284	0.0
104.299	4.0
104.313	3.0
104.328	4.0
104.343	2.0
104.358	0.0
104.373	4.0
104.388	6.0
104.403	4.0
104.417	3.0
104.432	1.0
104.447	0.0
104.462	2.0
104.477	2.0
104.492	5.0
104.507	2.0
104.522	1.0
104.536	1.0
104.551	7.0
104.566	2.0
104.581	6.0
104.596	4.0
104.611	4.0
104.626	5.0
104.641	3.0
104.656	2.0
104.67	4.0
104.685	8.0
104.7	0.0
104.715	2.0
104.73	3.0
104.745	1.0
104.76	1.0
104.775	0.0
104.79	4.0
104.804	3.0
104.819	4.0
104.834	3.0
104.849	8.0
104.864	1.0
104.879	3.0
104.894	1.0
104.909	4.0
104.924	3.0
104.939	5.0
104.954	1.0
104.968	2.0
104.983	5.0
104.998	2.0
105.013	3.0
105.028	3.0
105.043	3.0
105.058	1.0
105.073	2.0
105.088	2.0
105.103	1.0
105.118	1.0
105.133	3.0
105.147	2.0
105.162	1.0
105.177	3.0
105.192	4.0
105.207	3.0
105.222	2.0
105.237	3.0
105.252	4.0
105.267	3.0
105.282	2.0
105.297	4.0
105.312	3.0
105.327	2.0
105.342	6.0
105.356	1.0
105.371	6.0
105.386	5.0
105.401	3.0
105.416	3.0
105.431	6.0
105.446	6.0
105.461	3.0
105.476	7.0
105.491	5.0
105.506	1.0
105.521	5.0
105.536	3.0
105.551	1.0
105.566	2.0
105.581	5.0
105.595	3.0
105.61	6.0
105.625	1.0
105.64	2.0
105.655	2.0
105.67	4.0
105.685	4.0
105.7	1.0
105.715	1.0
105.73	3.0
105.745	2.0
105.76	3.0
105.775	6.0
105.79	1.0
105.805	1.0
105.82	3.0
105.835	2.0
105.85	2.0
105.864	3.0
105.879	0.0
105.894	2.0
105.909	2.0
105.924	1.0
105.939	2.0
105.954	2.0
105.969	3.0
105.984	2.0
105.999	2.0
106.014	1.0
106.029	0.0
106.044	5.0
106.059	4.0
106.074	2.0
106.089	5.0
106.104	4.0
106.119	1.0
106.134	3.0
106.148	4.0
106.163	3.0
106.178	2.0
106.193	4.0
106.208	3.0
106.223	3.0
106.238	6.0
106.253	2.0
106.268	0.0
106.283	1.0
106.298	1.0
106.313	4.0
106.328	2.0
106.343	4.0
106.358	6.0
106.373	3.0
106.388	4.0
106.403	1.0
106.418	3.0
106.432	5.0
106.447	4.0
106.462	5.0
106.477	4.0
106.492	2.0
106.507	1.0
106.522	2.0
106.537	4.0
106.552	2.0
106.567	5.0
106.582	2.0
106.597	3.0
106.612	1.0
106.627	4.0
106.642	2.0
106.657	2.0
106.672	0.0
106.687	3.0
106.701	1.0
106.716	4.0
106.731	4.0
106.746	1.0
106.761	0.0
106.776	3.0
106.791	3.0
106.806	0.0
106.821	2.0
106.836	1.0
106.851	4.0
106.866	2.0
106.881	3.0
106.896	6.0
106.911	0.0
106.926	2.0
106.941	2.0
106.955	2.0
106.97	2.0
106.985	4.0
107.0	0.0
107.015	4.0
107.03	5.0
107.045	4.0
107.06	2.0
107.075	4.0
107.09	5.0
107.105	4.0
107.12	1.0
107.135	3.0
107.15	4.0
107.165	3.0
107.18	3.0
107.194	0.0
107.209	7.0
107.224	2.0
107.239	1.0
107.254	2.0
107.269	3.0
107.284	4.0
107.299	5.0
107.314	3.0
107.329	0.0
107.344	3.0
107.359	3.0
107.374	4.0
107.389	2.0
107.404	3.0
107.418	3.0
107.433	3.0
107.448	1.0
107.463	0.0
107.478	5.0
107.493	2.0
107.508	3.0
107.523	7.0
107.538	1.0
107.553	3.0
107.568	0.0
107.583	7.0
107.598	3.0
107.613	3.0
107.627	1.0
107.642	0.0
107.657	2.0
107.672	4.0
107.687	4.0
107.702	1.0
107.717	1.0
107.732	1.0
107.747	4.0
107.762	6.0
107.777	6.0
107.792	6.0
107.807	4.0
107.821	1.0
107.836	4.0
107.851	3.0
107.866	4.0
107.881	5.0
107.896	3.0
107.911	3.0
107.926	5.0
107.941	3.0
107.956	6.0
107.971	4.0
107.986	5.0
108.0	5.0
108.015	4.0
108.03	6.0
108.045	2.0
108.06	2.0
108.075	3.0
108.09	4.0
108.105	5.0
108.12	3.0
108.135	4.0
108.15	3.0
108.164	5.0
108.179	2.0
108.194	7.0
108.209	1.0
108.224	3.0
108.239	4.0
108.254	5.0
108.269	6.0
108.284	4.0
108.299	3.0
108.313	5.0
108.328	4.0
108.343	4.0
108.358	1.0
108.373	3.0
108.388	3.0
108.403	3.0
108.418	3.0
108.433	4.0
108.448	2.0
108.462	2.0
108.477	3.0
108.492	2.0
108.507	4.0
108.522	3.0
108.537	3.0
108.552	6.0
108.567	7.0
108.582	4.0
108.597	2.0
108.611	1.0
108.626	2.0
108.641	3.0
108.656	3.0
108.671	9.0
108.686	5.0
108.701	2.0
108.716	5.0
108.731	2.0
108.745	3.0
108.76	5.0
108.775	3.0
108.79	2.0
108.805	3.0
108.82	5.0
108.835	4.0
108.85	3.0
108.865	4.0
108.879	3.0
108.894	3.0
108.909	9.0
108.924	2.0
108.939	5.0
108.954	2.0
108.969	5.0
108.984	1.0
108.999	5.0
109.013	1.0
109.028	4.0
109.043	2.0
109.058	4.0
109.073	5.0
109.088	3.0
109.103	5.0
109.118	2.0
109.133	8.0
109.147	4.0
109.162	2.0
109.177	1.0
109.192	3.0
109.207	3.0
109.222	5.0
109.237	0.0
109.252	2.0
109.267	2.0
109.281	1.0
109.296	3.0
109.311	1.0
109.326	2.0
109.341	5.0
109.356	5.0
109.371	3.0
109.386	2.0
109.4	2.0
109.415	3.0
109.43	6.0
109.445	3.0
109.46	1.0
109.475	3.0
109.49	2.0
109.505	1.0
109.52	4.0
109.534	3.0
109.549	2.0
109.564	1.0
109.579	4.0
109.594	1.0
109.609	3.0
109.624	3.0
109.639	2.0
109.653	2.0
109.668	3.0
109.683	2.0
109.698	4.0
109.713	5.0
109.728	4.0
109.743	2.0
109.758	2.0
109.773	5.0
109.787	6.0
109.802	1.0
109.817	3.0
109.832	1.0
109.847	2.0
109.862	2.0
109.877	4.0
109.892	1.0
109.907	0.0
109.921	7.0
109.936	3.0
109.951	3.0
109.966	4.0
109.981	4.0
109.996	5.0
110.011	1.0
110.026	4.0
110.04	5.0
110.055	2.0
110.07	1.0
110.085	4.0
110.1	4.0
110.115	8.0
110.13	5.0
110.145	5.0
110.16	2.0
110.174	1.0
110.189	5.0
110.204	3.0
110.219	2.0
110.234	9.0
110.249	3.0
110.264	2.0
110.279	5.0
110.294	2.0
110.308	4.0
110.323	5.0
110.338	4.0
110.353	3.0
110.368	5.0
110.383	6.0
110.398	5.0
110.413	0.0
110.428	0.0
110.442	1.0
110.457	3.0
110.472	1.0
110.487	3.0
110.502	3.0
110.517	1.0
110.532	4.0
110.547	3.0
110.561	2.0
110.576	4.0
110.591	4.0
110.606	2.0
110.621	3.0
110.636	8.0
110.651	0.0
110.666	7.0
110.681	1.0
110.695	7.0
110.71	2.0
110.725	5.0
110.74	3.0
110.755	4.0
110.77	1.0
110.785	4.0
110.8	2.0
110.815	4.0
110.829	6.0
110.844	2.0
110.859	3.0
110.874	2.0
110.889	3.0
110.904	1.0
110.919	4.0
110.934	3.0
110.948	3.0
110.963	2.0
110.978	4.0
110.993	1.0
111.008	1.0
111.023	1.0
111.038	2.0
111.053	2.0
111.067	4.0
111.082	8.0
111.097	3.0
111.112	3.0
111.127	3.0
111.142	1.0
111.157	2.0
111.172	3.0
111.186	4.0
111.201	1.0
111.216	2.0
111.231	3.0
111.246	2.0
111.261	1.0
111.276	3.0
111.291	2.0
111.305	5.0
111.32	4.0
111.335	2.0
111.35	6.0
111.365	3.0
111.38	2.0
111.395	6.0
111.41	3.0
111.424	4.0
111.439	2.0
111.454	4.0
111.469	2.0
111.484	1.0
111.499	1.0
111.514	5.0
111.528	3.0
111.543	3.0
111.558	5.0
111.573	8.0
111.588	5.0
111.603	3.0
111.618	3.0
111.633	6.0
111.647	7.0
111.662	9.0
111.677	7.0
111.692	3.0
111.707	7.0
111.722	2.0
111.737	3.0
111.751	5.0
111.766	3.0
111.781	3.0
111.796	4.0
111.811	4.0
111.826	3.0
111.84	3.0
111.855	1.0
111.87	3.0
111.885	4.0
111.9	2.0
111.915	2.0
111.93	2.0
111.944	1.0
111.959	2.0
111.974	5.0
111.989	0.0
112.004	3.0
112.019	3.0
112.033	1.0
112.048	6.0
112.063	3.0
112.078	6.0
112.093	5.0
112.108	6.0
112.123	1.0
112.137	3.0
112.152	5.0
112.167	3.0
112.182	0.0
112.197	8.0
112.212	4.0
112.226	2.0
112.241	4.0
112.256	3.0
112.271	4.0
112.286	5.0
112.301	5.0
112.315	4.0
112.33	2.0
112.345	1.0
112.36	6.0
112.375	3.0
112.389	1.0
112.404	3.0
112.419	3.0
112.434	1.0
112.449	2.0
112.464	3.0
112.478	3.0
112.493	0.0
112.508	2.0
112.523	2.0
112.538	5.0
112.553	0.0
112.567	7.0
112.582	1.0
112.597	4.0
112.612	2.0
112.627	3.0
112.642	4.0
112.656	5.0
112.671	3.0
112.686	0.0
112.701	1.0
112.716	5.0
112.73	1.0
112.745	3.0
112.76	3.0
112.775	1.0
112.79	4.0
112.805	6.0
112.819	6.0
112.834	3.0
112.849	3.0
112.864	3.0
112.879	3.0
112.894	3.0
112.908	3.0
112.923	2.0
112.938	1.0
112.953	4.0
112.968	5.0
112.983	1.0
112.997	6.0
113.012	6.0
113.027	5.0
113.042	4.0
113.057	1.0
113.072	7.0
113.086	4.0
113.101	7.0
113.116	6.0
113.131	6.0
113.146	5.0
113.161	4.0
113.175	8.0
113.19	2.0
113.205	2.0
113.22	1.0
113.235	1.0
113.25	3.0
113.265	3.0
113.279	1.0
113.294	3.0
113.309	2.0
113.324	4.0
113.339	4.0
113.354	5.0
113.368	1.0
113.383	0.0
113.398	4.0
113.413	3.0
113.428	6.0
113.443	3.0
113.458	2.0
113.472	2.0
113.487	3.0
113.502	6.0
113.517	3.0
113.532	4.0
113.547	3.0
113.562	2.0
113.576	2.0
113.591	5.0
113.606	4.0
113.621	0.0
113.636	6.0
113.651	4.0
113.666	3.0
113.681	1.0
113.695	5.0
113.71	4.0
113.725	2.0
113.74	3.0
113.755	2.0
113.77	2.0
113.785	3.0
113.8	3.0
113.814	0.0
113.829	5.0
113.844	7.0
113.859	0.0
113.874	4.0
113.889	2.0
113.904	2.0
113.919	3.0
113.934	1.0
113.949	5.0
113.963	1.0
113.978	1.0
113.993	5.0
114.008	2.0
114.023	1.0
114.038	5.0
114.053	3.0
114.068	9.0
114.083	4.0
114.098	0.0
114.113	4.0
114.127	3.0
114.142	1.0
114.157	8.0
114.172	3.0
114.187	3.0
114.202	3.0
114.217	3.0
114.232	2.0
114.247	7.0
114.262	3.0
114.277	4.0
114.292	2.0
114.307	5.0
114.322	3.0
114.337	4.0
114.351	2.0
114.366	7.0
114.381	5.0
114.396	3.0
114.411	3.0
114.426	1.0
114.441	4.0
114.456	4.0
114.471	5.0
114.486	3.0
114.501	4.0
114.516	2.0
114.531	4.0
114.546	1.0
114.561	2.0
114.576	2.0
114.591	3.0
114.606	3.0
114.621	1.0
114.636	1.0
114.65	4.0
114.665	0.0
114.68	2.0
114.695	3.0
114.71	2.0
114.725	3.0
114.74	2.0
114.755	4.0
114.77	2.0
114.785	3.0
114.8	4.0
114.815	1.0
114.83	3.0
114.845	1.0
114.86	3.0
114.875	3.0
114.89	2.0
114.905	5.0
114.92	4.0
114.935	1.0
114.95	2.0
114.965	7.0
114.98	0.0
114.995	1.0
115.009	0.0
115.024	3.0
115.039	3.0
115.054	3.0
115.069	4.0
115.084	2.0
115.099	4.0
115.114	3.0
115.129	3.0
115.144	3.0
115.159	3.0
115.174	6.0
115.189	9.0
115.204	5.0
115.219	5.0
115.234	4.0
115.249	5.0
115.264	2.0
115.279	7.0
115.294	4.0
115.309	4.0
115.323	10.0
115.338	3.0
115.353	5.0
115.368	6.0
115.383	6.0
115.398	5.0
115.413	4.0
115.428	3.0
115.443	6.0
115.458	2.0
115.473	5.0
115.488	1.0
115.503	5.0
115.518	7.0
115.533	3.0
115.548	1.0
115.562	2.0
115.577	6.0
115.592	4.0
115.607	3.0
115.622	1.0
115.637	2.0
115.652	3.0
115.667	4.0
115.682	5.0
115.697	0.0
115.712	1.0
115.727	1.0
115.741	1.0
115.756	1.0
115.771	3.0
115.786	2.0
115.801	2.0
115.816	4.0
115.831	1.0
115.846	5.0
115.861	4.0
115.875	4.0
115.89	5.0
115.905	5.0
115.92	5.0
115.935	1.0
115.95	0.0
115.965	3.0
115.98	0.0
115.995	4.0
116.009	5.0
116.024	2.0
116.039	3.0
116.054	1.0
116.069	2.0
116.084	6.0
116.099	4.0
116.113	2.0
116.128	2.0
116.143	8.0
116.158	4.0
116.173	3.0
116.188	4.0
116.202	3.0
116.217	5.0
116.232	7.0
116.247	5.0
116.262	4.0
116.277	5.0
116.291	2.0
116.306	1.0
116.321	2.0
116.336	1.0
116.351	3.0
116.366	3.0
116.38	1.0
116.395	1.0
116.41	4.0
116.425	3.0
116.44	3.0
116.454	6.0
116.469	1.0
116.484	3.0
116.499	6.0
116.514	3.0
116.528	2.0
116.543	2.0
116.558	1.0
116.573	1.0
116.588	4.0
116.602	4.0
116.617	1.0
116.632	4.0
116.647	1.0
116.662	1.0
116.676	1.0
116.691	2.0
116.706	4.0
116.721	5.0
116.735	4.0
116.75	3.0
116.765	7.0
116.78	2.0
116.795	3.0
116.809	3.0
116.824	3.0
116.839	2.0
116.854	3.0
116.868	4.0
116.883	2.0
116.898	7.0
116.913	4.0
116.927	2.0
116.942	2.0
116.957	2.0
116.972	2.0
116.986	2.0
117.001	5.0
117.016	2.0
117.031	4.0
117.045	3.0
117.06	6.0
117.075	2.0
117.09	6.0
117.104	4.0
117.119	6.0
117.134	2.0
117.149	3.0
117.163	6.0
117.178	5.0
117.193	5.0
117.208	3.0
117.222	2.0
117.237	4.0
117.252	2.0
117.267	4.0
117.281	3.0
117.296	4.0
117.311	4.0
117.325	4.0
117.34	4.0
117.355	5.0
117.37	2.0
117.384	1.0
117.399	3.0
117.414	5.0
117.429	3.0
117.443	3.0
117.458	2.0
117.473	7.0
117.487	3.0
117.502	2.0
117.517	2.0
117.532	1.0
117.546	3.0
117.561	3.0
117.576	6.0
117.59	5.0
117.605	1.0
117.62	4.0
117.635	2.0
117.649	2.0
117.664	3.0
117.679	3.0
117.693	2.0
117.708	5.0
117.723	6.0
117.738	2.0
117.752	2.0
117.767	3.0
117.782	2.0
117.796	5.0
117.811	5.0
117.826	2.0
117.841	6.0
117.855	4.0
117.87	3.0
117.885	3.0
117.899	5.0
117.914	2.0
117.929	1.0
117.944	2.0
117.958	3.0
117.973	6.0
117.988	5.0
118.002	3.0
118.017	2.0
118.032	4.0
118.047	0.0
118.062	1.0
118.077	7.0
118.092	4.0
118.107	1.0
118.121	4.0
118.136	4.0
118.151	5.0
118.166	5.0
118.181	4.0
118.196	3.0
118.211	3.0
118.225	6.0
118.24	2.0
118.255	3.0
118.27	3.0
118.285	5.0
118.3	3.0
118.315	3.0
118.33	1.0
118.344	3.0
118.359	2.0
118.374	3.0
118.389	4.0
118.404	2.0
118.419	1.0
118.434	5.0
118.449	5.0
118.463	8.0
118.478	4.0
118.493	1.0
118.508	2.0
118.523	2.0
118.538	2.0
118.553	3.0
118.567	3.0
118.582	2.0
118.597	2.0
118.612	3.0
118.627	3.0
118.642	1.0
118.657	1.0
118.672	1.0
118.686	4.0
118.701	5.0
118.716	1.0
118.731	2.0
118.746	2.0
118.761	2.0
118.776	1.0
118.791	0.0
118.805	1.0
118.82	6.0
118.835	3.0
118.85	5.0
118.865	4.0
118.88	1.0
118.895	3.0
118.909	5.0
118.924	0.0
118.939	5.0
118.954	2.0
118.969	11.0
118.984	6.0
118.999	4.0
119.014	1.0
119.028	0.0
119.043	6.0
119.058	5.0
119.073	7.0
119.088	5.0
119.103	6.0
119.118	4.0
119.133	0.0
119.147	7.0
119.162	6.0
119.177	3.0
119.192	1.0
119.207	4.0
119.222	6.0
119.237	5.0
119.251	5.0
119.266	3.0
119.281	4.0
119.296	4.0
119.311	0.0
119.326	3.0
119.341	5.0
119.356	1.0
119.37	4.0
119.385	1.0
119.4	2.0
119.415	2.0
119.43	3.0
119.445	8.0
119.46	2.0
119.475	4.0
119.489	4.0
119.504	1.0
119.519	1.0
119.534	0.0
119.549	3.0
119.564	3.0
119.579	3.0
119.593	4.0
119.608	2.0
119.623	2.0
119.638	4.0
119.653	3.0
119.668	1.0
119.683	5.0
119.698	2.0
119.712	6.0
119.727	3.0
119.742	7.0
119.757	0.0
119.772	0.0
119.787	5.0
119.802	3.0
119.817	2.0
119.831	3.0
119.846	2.0
119.861	4.0
119.876	4.0
119.891	2.0
119.906	1.0
119.921	4.0
119.935	3.0
119.95	6.0
119.965	4.0
119.98	3.0
119.995	1.0
120.01	3.0
120.025	2.0
120.04	2.0
120.054	4.0
120.069	2.0
120.084	1.0
120.099	1.0
120.114	4.0
120.129	4.0
120.144	2.0
120.159	0.0
120.173	1.0
120.188	4.0
120.203	0.0
120.218	3.0
120.233	0.0
120.248	1.0
120.263	0.0
120.277	2.0
120.292	0.0
120.307	0.0
120.322	2.0
120.337	0.0
120.352	0.0
120.367	0.0
120.382	0.0
120.396	0.0
120.411	0.0
120.426	1.0
120.441	0.0
120.456	1.0
120.471	0.0
120.486	0.0
120.501	0.0
120.515	0.0
120.53	0.0
120.545	1.0
120.56	0.0
120.575	0.0
120.59	0.0
120.605	0.0
120.619	0.0
120.634	0.0
120.649	0.0
120.664	0.0
120.679	1.0
120.694	0.0
120.709	0.0
120.724	1.0
120.738	0.0
120.753	0.0
120.768	0.0
120.783	0.0
120.798	0.0
120.813	0.0
120.828	0.0
120.843	0.0
120.857	0.0
120.872	0.0
120.887	0.0
120.902	0.0
120.917	0.0
120.932	0.0
120.947	0.0
120.961	0.0
120.976	0.0
