-1.217	0.0
-1.202	0.0
-1.187	0.0
-1.172	1.0
-1.157	0.0
-1.142	0.0
-1.128	0.0
-1.113	0.0
-1.098	0.0
-1.083	0.0
-1.068	0.0
-1.054	0.0
-1.039	0.0
-1.024	0.0
-1.009	0.0
-0.994	0.0
-0.979	0.0
-0.965	0.0
-0.95	0.0
-0.935	0.0
-0.92	0.0
-0.905	0.0
-0.891	0.0
-0.876	0.0
-0.861	0.0
-0.846	0.0
-0.831	0.0
-0.816	0.0
-0.802	0.0
-0.787	0.0
-0.772	0.0
-0.757	0.0
-0.742	0.0
-0.728	0.0
-0.713	0.0
-0.698	0.0
-0.683	0.0
-0.668	0.0
-0.653	0.0
-0.639	1.0
-0.624	0.0
-0.609	0.0
-0.594	0.0
-0.579	0.0
-0.565	0.0
-0.55	0.0
-0.535	0.0
-0.52	0.0
-0.505	0.0
-0.49	0.0
-0.476	0.0
-0.461	0.0
-0.446	0.0
-0.431	0.0
-0.416	0.0
-0.401	0.0
-0.387	0.0
-0.372	0.0
-0.357	0.0
-0.342	0.0
-0.327	0.0
-0.313	0.0
-0.298	0.0
-0.283	0.0
-0.268	0.0
-0.253	0.0
-0.238	0.0
-0.224	0.0
-0.209	0.0
-0.194	0.0
-0.179	0.0
-0.164	0.0
-0.15	0.0
-0.135	0.0
-0.12	0.0
-0.105	0.0
-0.09	0.0
-0.075	1.0
-0.061	0.0
-0.046	0.0
-0.031	0.0
-0.016	1.0
-0.001	0.0
0.013	0.0
0.028	0.0
0.043	0.0
0.058	0.0
0.073	0.0
0.088	0.0
0.102	0.0
0.117	0.0
0.132	0.0
0.147	0.0
0.162	0.0
0.176	0.0
0.191	0.0
0.206	0.0
0.221	0.0
0.236	0.0
0.251	0.0
0.265	0.0
0.28	0.0
0.295	0.0
0.31	0.0
0.325	0.0
0.339	0.0
0.354	0.0
0.369	0.0
0.384	0.0
0.399	0.0
0.414	0.0
0.428	0.0
0.443	0.0
0.458	0.0
0.473	0.0
0.488	0.0
0.502	0.0
0.517	0.0
0.532	0.0
0.547	0.0
0.562	0.0
0.577	0.0
0.591	0.0
0.606	0.0
0.621	0.0
0.636	0.0
0.651	0.0
0.665	0.0
0.68	0.0
0.695	0.0
0.71	0.0
0.725	0.0
0.74	0.0
0.754	0.0
0.769	0.0
0.784	0.0
0.799	0.0
0.814	0.0
0.828	0.0
0.843	0.0
0.858	0.0
0.873	0.0
0.888	0.0
0.903	0.0
0.917	0.0
0.932	0.0
0.947	0.0
0.962	0.0
0.977	1.0
0.991	0.0
1.006	0.0
1.021	0.0
1.036	0.0
1.051	0.0
1.065	0.0
1.08	0.0
1.095	0.0
1.11	0.0
1.125	0.0
1.14	0.0
1.154	0.0
1.169	0.0
1.184	0.0
1.199	1.0
1.214	0.0
1.228	0.0
1.243	0.0
1.258	1.0
1.273	0.0
1.288	0.0
1.302	0.0
1.317	0.0
1.332	1.0
1.347	0.0
1.362	0.0
1.376	0.0
1.391	0.0
1.406	0.0
1.421	0.0
1.436	0.0
1.45	0.0
1.465	0.0
1.48	0.0
1.495	0.0
1.51	1.0
1.524	0.0
1.539	0.0
1.554	0.0
1.569	0.0
1.584	0.0
1.598	0.0
1.613	0.0
1.628	0.0
1.643	1.0
1.658	1.0
1.672	0.0
1.687	0.0
1.702	0.0
1.717	0.0
1.732	1.0
1.746	0.0
1.761	0.0
1.776	0.0
1.791	0.0
1.806	0.0
1.82	0.0
1.835	0.0
1.85	0.0
1.865	0.0
1.88	0.0
1.894	0.0
1.909	0.0
1.924	0.0
1.939	1.0
1.954	0.0
1.968	0.0
1.983	0.0
1.998	0.0
2.013	0.0
2.028	0.0
2.042	0.0
2.057	0.0
2.072	0.0
2.087	0.0
2.101	0.0
2.116	0.0
2.131	0.0
2.146	0.0
2.161	0.0
2.175	0.0
2.19	0.0
2.205	0.0
2.22	0.0
2.235	0.0
2.249	1.0
2.264	1.0
2.279	1.0
2.294	0.0
2.308	0.0
2.323	0.0
2.338	2.0
2.353	1.0
2.368	1.0
2.382	1.0
2.397	0.0
2.412	0.0
2.427	0.0
2.442	0.0
2.456	2.0
2.471	2.0
2.486	0.0
2.501	1.0
2.515	1.0
2.53	1.0
2.545	1.0
2.56	4.0
2.575	1.0
2.589	3.0
2.604	1.0
2.619	1.0
2.634	3.0
2.649	1.0
2.663	2.0
2.678	2.0
2.693	3.0
2.708	2.0
2.722	2.0
2.737	2.0
2.752	1.0
2.767	3.0
2.782	2.0
2.796	3.0
2.811	2.0
2.826	1.0
2.841	2.0
2.856	3.0
2.87	1.0
2.885	5.0
2.9	2.0
2.915	3.0
2.93	4.0
2.944	6.0
2.959	2.0
2.974	3.0
2.989	1.0
3.004	6.0
3.018	3.0
3.033	3.0
3.048	5.0
3.063	3.0
3.078	3.0
3.092	3.0
3.107	5.0
3.122	4.0
3.137	7.0
3.152	10.0
3.166	7.0
3.181	4.0
3.196	1.0
3.211	7.0
3.226	6.0
3.24	7.0
3.255	4.0
3.27	3.0
3.285	4.0
3.3	6.0
3.315	1.0
3.329	3.0
3.344	2.0
3.359	6.0
3.374	1.0
3.389	3.0
3.403	4.0
3.418	4.0
3.433	3.0
3.448	3.0
3.463	2.0
3.478	7.0
3.492	8.0
3.507	6.0
3.522	8.0
3.537	7.0
3.552	4.0
3.567	4.0
3.581	4.0
3.596	5.0
3.611	6.0
3.626	8.0
3.641	3.0
3.656	6.0
3.671	7.0
3.685	2.0
3.7	2.0
3.715	5.0
3.73	5.0
3.745	8.0
3.76	3.0
3.775	3.0
3.789	6.0
3.804	3.0
3.819	5.0
3.834	6.0
3.849	3.0
3.864	8.0
3.879	8.0
3.894	8.0
3.908	5.0
3.923	8.0
3.938	6.0
3.953	5.0
3.968	9.0
3.983	5.0
3.998	5.0
4.013	8.0
4.027	3.0
4.042	9.0
4.057	6.0
4.072	7.0
4.087	3.0
4.102	4.0
4.117	6.0
4.132	7.0
4.147	8.0
4.162	4.0
4.176	4.0
4.191	7.0
4.206	8.0
4.221	7.0
4.236	4.0
4.251	8.0
4.266	8.0
4.281	10.0
4.296	6.0
4.311	2.0
4.326	6.0
4.341	5.0
4.356	5.0
4.37	9.0
4.385	7.0
4.4	4.0
4.415	5.0
4.43	10.0
4.445	5.0
4.46	3.0
4.475	9.0
4.49	3.0
4.505	2.0
4.52	8.0
4.535	6.0
4.55	6.0
4.565	2.0
4.58	11.0
4.595	6.0
4.61	5.0
4.625	8.0
4.639	9.0
4.654	8.0
4.669	4.0
4.684	5.0
4.699	10.0
4.714	9.0
4.729	6.0
4.744	4.0
4.759	5.0
4.774	5.0
4.789	5.0
4.804	3.0
4.819	7.0
4.834	8.0
4.849	5.0
4.864	5.0
4.879	8.0
4.894	6.0
4.909	9.0
4.924	6.0
4.939	5.0
4.954	6.0
4.969	7.0
4.984	12.0
4.999	12.0
5.014	2.0
5.029	6.0
5.044	8.0
5.059	4.0
5.074	16.0
5.089	7.0
5.104	9.0
5.119	8.0
5.134	6.0
5.149	5.0
5.164	11.0
5.179	13.0
5.194	4.0
5.209	7.0
5.224	6.0
5.239	11.0
5.254	5.0
5.269	4.0
5.284	7.0
5.299	8.0
5.314	8.0
5.329	11.0
5.344	6.0
5.359	4.0
5.374	7.0
5.389	9.0
5.404	11.0
5.419	8.0
5.434	8.0
5.449	7.0
5.464	5.0
5.479	6.0
5.494	7.0
5.509	5.0
5.524	12.0
5.539	10.0
5.554	9.0
5.569	7.0
5.584	6.0
5.599	6.0
5.614	13.0
5.629	6.0
5.644	11.0
5.659	6.0
5.674	7.0
5.689	7.0
5.704	7.0
5.719	7.0
5.734	3.0
5.749	6.0
5.764	9.0
5.779	6.0
5.794	10.0
5.809	3.0
5.824	8.0
5.839	3.0
5.854	6.0
5.869	13.0
5.884	4.0
5.899	8.0
5.914	5.0
5.929	2.0
5.944	6.0
5.959	8.0
5.974	6.0
5.989	12.0
6.004	13.0
6.019	8.0
6.034	15.0
6.049	11.0
6.064	3.0
6.079	3.0
6.094	8.0
6.109	11.0
6.124	10.0
6.139	8.0
6.154	16.0
6.169	7.0
6.184	9.0
6.199	10.0
6.214	5.0
6.229	6.0
6.244	7.0
6.259	8.0
6.274	10.0
6.289	10.0
6.304	9.0
6.319	6.0
6.334	9.0
6.349	8.0
6.364	10.0
6.379	13.0
6.394	11.0
6.409	2.0
6.424	5.0
6.439	10.0
6.454	7.0
6.469	10.0
6.484	5.0
6.499	4.0
6.514	6.0
6.529	11.0
6.544	9.0
6.559	8.0
6.574	8.0
6.589	12.0
6.604	8.0
6.619	9.0
6.634	10.0
6.649	9.0
6.664	2.0
6.679	12.0
6.694	6.0
6.709	7.0
6.724	9.0
6.739	14.0
6.754	6.0
6.769	12.0
6.784	11.0
6.799	10.0
6.814	12.0
6.829	8.0
6.844	13.0
6.859	10.0
6.873	9.0
6.888	10.0
6.903	11.0
6.918	11.0
6.933	9.0
6.948	4.0
6.963	11.0
6.978	8.0
6.993	6.0
7.008	8.0
7.023	7.0
7.038	12.0
7.053	10.0
7.068	6.0
7.083	16.0
7.098	13.0
7.113	11.0
7.128	6.0
7.143	6.0
7.157	15.0
7.172	5.0
7.187	6.0
7.202	4.0
7.217	7.0
7.232	11.0
7.247	9.0
7.262	7.0
7.277	8.0
7.292	7.0
7.307	8.0
7.322	8.0
7.336	2.0
7.351	5.0
7.366	8.0
7.381	8.0
7.396	7.0
7.411	13.0
7.426	12.0
7.441	5.0
7.456	7.0
7.471	4.0
7.485	6.0
7.5	5.0
7.515	8.0
7.53	11.0
7.545	7.0
7.56	12.0
7.575	15.0
7.59	7.0
7.604	8.0
7.619	5.0
7.634	15.0
7.649	4.0
7.664	9.0
7.679	9.0
7.693	3.0
7.708	3.0
7.723	6.0
7.738	9.0
7.753	6.0
7.768	10.0
7.783	15.0
7.797	10.0
7.812	10.0
7.827	10.0
7.842	3.0
7.857	7.0
7.871	8.0
7.886	5.0
7.901	13.0
7.916	10.0
7.931	5.0
7.945	11.0
7.96	14.0
7.975	9.0
7.99	13.0
8.005	6.0
8.019	11.0
8.034	13.0
8.049	12.0
8.064	12.0
8.078	14.0
8.093	8.0
8.108	7.0
8.123	8.0
8.137	12.0
8.152	7.0
8.167	5.0
8.182	8.0
8.196	10.0
8.211	15.0
8.226	8.0
8.241	8.0
8.255	7.0
8.27	7.0
8.285	16.0
8.3	11.0
8.314	7.0
8.329	8.0
8.344	11.0
8.358	8.0
8.373	6.0
8.388	9.0
8.403	6.0
8.417	5.0
8.432	6.0
8.447	12.0
8.461	11.0
8.476	6.0
8.491	12.0
8.505	5.0
8.52	6.0
8.535	12.0
8.55	8.0
8.564	11.0
8.579	11.0
8.594	12.0
8.608	4.0
8.623	5.0
8.638	11.0
8.652	8.0
8.667	8.0
8.682	6.0
8.696	18.0
8.711	12.0
8.726	7.0
8.74	8.0
8.755	6.0
8.77	11.0
8.784	8.0
8.799	8.0
8.814	4.0
8.828	12.0
8.843	12.0
8.858	8.0
8.872	11.0
8.887	13.0
8.902	2.0
8.916	14.0
8.931	7.0
8.946	11.0
8.96	3.0
8.975	9.0
8.99	5.0
9.004	12.0
9.019	5.0
9.034	9.0
9.048	6.0
9.063	10.0
9.077	11.0
9.092	8.0
9.107	5.0
9.121	5.0
9.136	9.0
9.151	8.0
9.165	8.0
9.18	7.0
9.195	10.0
9.209	8.0
9.224	10.0
9.239	10.0
9.253	13.0
9.268	8.0
9.283	6.0
9.297	6.0
9.312	9.0
9.327	4.0
9.341	8.0
9.356	3.0
9.371	14.0
9.385	7.0
9.4	7.0
9.415	12.0
9.429	9.0
9.444	2.0
9.458	15.0
9.473	6.0
9.488	11.0
9.502	9.0
9.517	7.0
9.532	6.0
9.546	11.0
9.561	7.0
9.576	2.0
9.59	9.0
9.605	8.0
9.62	3.0
9.635	10.0
9.649	4.0
9.664	6.0
9.679	14.0
9.693	9.0
9.708	3.0
9.723	7.0
9.737	4.0
9.752	12.0
9.767	12.0
9.781	6.0
9.796	10.0
9.811	8.0
9.825	8.0
9.84	11.0
9.855	6.0
9.87	7.0
9.884	5.0
9.899	10.0
9.914	8.0
9.928	12.0
9.943	9.0
9.958	12.0
9.973	10.0
9.987	1.0
10.002	2.0
10.017	9.0
10.031	8.0
10.046	8.0
10.061	7.0
10.076	10.0
10.09	4.0
10.105	9.0
10.12	7.0
10.135	9.0
10.149	5.0
10.164	5.0
10.179	7.0
10.194	7.0
10.208	6.0
10.223	3.0
10.238	10.0
10.253	13.0
10.267	8.0
10.282	7.0
10.297	8.0
10.312	10.0
10.326	9.0
10.341	11.0
10.356	8.0
10.371	5.0
10.386	7.0
10.4	6.0
10.415	6.0
10.43	6.0
10.445	7.0
10.46	8.0
10.474	6.0
10.489	5.0
10.504	6.0
10.519	7.0
10.533	8.0
10.548	6.0
10.563	6.0
10.578	7.0
10.593	7.0
10.608	11.0
10.622	7.0
10.637	11.0
10.652	2.0
10.667	10.0
10.682	14.0
10.696	5.0
10.711	6.0
10.726	12.0
10.741	6.0
10.756	7.0
10.771	5.0
10.785	8.0
10.8	7.0
10.815	7.0
10.83	6.0
10.845	11.0
10.86	8.0
10.874	6.0
10.889	5.0
10.904	14.0
10.919	4.0
10.934	4.0
10.949	6.0
10.963	11.0
10.978	10.0
10.993	10.0
11.008	8.0
11.023	10.0
11.038	11.0
11.053	8.0
11.067	2.0
11.082	7.0
11.097	8.0
11.112	7.0
11.127	7.0
11.142	3.0
11.157	5.0
11.172	8.0
11.186	12.0
11.201	9.0
11.216	10.0
11.231	7.0
11.246	7.0
11.261	11.0
11.276	10.0
11.291	6.0
11.305	6.0
11.32	6.0
11.335	5.0
11.35	4.0
11.365	12.0
11.38	14.0
11.395	6.0
11.41	10.0
11.424	9.0
11.439	8.0
11.454	9.0
11.469	7.0
11.484	11.0
11.499	6.0
11.514	5.0
11.529	3.0
11.544	7.0
11.558	9.0
11.573	3.0
11.588	8.0
11.603	9.0
11.618	5.0
11.633	12.0
11.648	7.0
11.663	4.0
11.678	10.0
11.693	3.0
11.707	10.0
11.722	7.0
11.737	9.0
11.752	7.0
11.767	11.0
11.782	6.0
11.797	7.0
11.812	9.0
11.827	11.0
11.842	6.0
11.856	6.0
11.871	4.0
11.886	6.0
11.901	5.0
11.916	4.0
11.931	12.0
11.946	12.0
11.961	12.0
11.976	3.0
11.991	11.0
12.006	6.0
12.02	5.0
12.035	14.0
12.05	12.0
12.065	10.0
12.08	7.0
12.095	7.0
12.11	12.0
12.125	5.0
12.14	7.0
12.155	13.0
12.17	7.0
12.184	18.0
12.199	8.0
12.214	12.0
12.229	9.0
12.244	9.0
12.259	15.0
12.274	12.0
12.289	14.0
12.304	8.0
12.319	6.0
12.334	10.0
12.348	15.0
12.363	15.0
12.378	11.0
12.393	17.0
12.408	6.0
12.423	15.0
12.438	10.0
12.453	12.0
12.468	10.0
12.483	13.0
12.498	15.0
12.513	9.0
12.527	9.0
12.542	7.0
12.557	14.0
12.572	5.0
12.587	8.0
12.602	9.0
12.617	16.0
12.632	11.0
12.647	16.0
12.662	9.0
12.677	12.0
12.692	7.0
12.707	9.0
12.721	16.0
12.736	19.0
12.751	16.0
12.766	15.0
12.781	17.0
12.796	20.0
12.811	15.0
12.826	15.0
12.841	15.0
12.856	11.0
12.871	20.0
12.886	20.0
12.9	17.0
12.915	9.0
12.93	13.0
12.945	13.0
12.96	17.0
12.975	16.0
12.99	13.0
13.005	18.0
13.02	14.0
13.035	16.0
13.05	16.0
13.065	19.0
13.08	21.0
13.094	19.0
13.109	16.0
13.124	21.0
13.139	15.0
13.154	15.0
13.169	13.0
13.184	20.0
13.199	23.0
13.214	20.0
13.229	12.0
13.244	18.0
13.259	15.0
13.274	19.0
13.288	21.0
13.303	20.0
13.318	23.0
13.333	23.0
13.348	17.0
13.363	19.0
13.378	27.0
13.393	25.0
13.408	22.0
13.423	24.0
13.438	26.0
13.453	34.0
13.468	32.0
13.482	33.0
13.497	37.0
13.512	28.0
13.527	53.0
13.542	42.0
13.557	40.0
13.572	46.0
13.587	59.0
13.602	46.0
13.617	56.0
13.632	64.0
13.647	65.0
13.662	66.0
13.677	73.0
13.691	92.0
13.706	70.0
13.721	108.0
13.736	91.0
13.751	105.0
13.766	105.0
13.781	112.0
13.796	118.0
13.811	125.0
13.826	115.0
13.841	128.0
13.856	116.0
13.871	111.0
13.885	97.0
13.9	87.0
13.915	94.0
13.93	73.0
13.945	52.0
13.96	55.0
13.975	34.0
13.99	57.0
14.005	39.0
14.02	31.0
14.035	18.0
14.05	28.0
14.065	29.0
14.08	21.0
14.094	27.0
14.109	19.0
14.124	22.0
14.139	24.0
14.154	26.0
14.169	20.0
14.184	15.0
14.199	22.0
14.214	18.0
14.229	14.0
14.244	17.0
14.259	14.0
14.274	19.0
14.288	15.0
14.303	19.0
14.318	12.0
14.333	18.0
14.348	17.0
14.363	19.0
14.378	16.0
14.393	12.0
14.408	15.0
14.423	22.0
14.438	17.0
14.453	15.0
14.468	13.0
14.482	19.0
14.497	19.0
14.512	14.0
14.527	14.0
14.542	16.0
14.557	13.0
14.572	16.0
14.587	20.0
14.602	20.0
14.617	15.0
14.632	13.0
14.647	11.0
14.661	21.0
14.676	14.0
14.691	18.0
14.706	11.0
14.721	17.0
14.736	17.0
14.751	23.0
14.766	16.0
14.781	10.0
14.796	20.0
14.811	12.0
14.826	21.0
14.84	17.0
14.855	15.0
14.87	19.0
14.885	13.0
14.9	10.0
14.915	15.0
14.93	13.0
14.945	14.0
14.96	17.0
14.975	21.0
14.989	18.0
15.004	20.0
15.019	18.0
15.034	15.0
15.049	12.0
15.064	8.0
15.079	12.0
15.094	12.0
15.109	14.0
15.124	11.0
15.138	15.0
15.153	8.0
15.168	20.0
15.183	15.0
15.198	9.0
15.213	10.0
15.228	9.0
15.243	25.0
15.258	11.0
15.272	15.0
15.287	11.0
15.302	9.0
15.317	12.0
15.332	13.0
15.347	13.0
15.362	16.0
15.377	17.0
15.391	14.0
15.406	10.0
15.421	19.0
15.436	16.0
15.451	14.0
15.466	13.0
15.481	13.0
15.496	12.0
15.51	13.0
15.525	12.0
15.54	14.0
15.555	12.0
15.57	20.0
15.585	20.0
15.6	14.0
15.614	13.0
15.629	11.0
15.644	17.0
15.659	15.0
15.674	12.0
15.689	16.0
15.704	11.0
15.718	12.0
15.733	21.0
15.748	15.0
15.763	12.0
15.778	10.0
15.793	8.0
15.808	16.0
15.822	15.0
15.837	15.0
15.852	8.0
15.867	15.0
15.882	12.0
15.897	21.0
15.911	15.0
15.926	12.0
15.941	12.0
15.956	16.0
15.971	15.0
15.986	14.0
16.0	10.0
16.015	12.0
16.03	14.0
16.045	21.0
16.06	12.0
16.074	13.0
16.089	11.0
16.104	11.0
16.119	20.0
16.134	15.0
16.149	12.0
16.163	8.0
16.178	15.0
16.193	18.0
16.208	10.0
16.223	18.0
16.237	15.0
16.252	14.0
16.267	10.0
16.282	8.0
16.297	15.0
16.311	11.0
16.326	12.0
16.341	17.0
16.356	9.0
16.37	17.0
16.385	16.0
16.4	15.0
16.415	22.0
16.43	10.0
16.444	13.0
16.459	19.0
16.474	17.0
16.489	20.0
16.504	16.0
16.518	11.0
16.533	12.0
16.548	16.0
16.563	9.0
16.577	14.0
16.592	21.0
16.607	21.0
16.622	28.0
16.637	15.0
16.651	26.0
16.666	22.0
16.681	20.0
16.696	24.0
16.71	31.0
16.725	25.0
16.74	26.0
16.755	29.0
16.77	30.0
16.784	29.0
16.799	44.0
16.814	32.0
16.829	45.0
16.843	32.0
16.858	51.0
16.873	56.0
16.888	45.0
16.902	73.0
16.917	77.0
16.932	74.0
16.947	77.0
16.961	61.0
16.976	67.0
16.991	68.0
17.006	62.0
17.021	58.0
17.035	48.0
17.05	45.0
17.065	41.0
17.08	39.0
17.094	29.0
17.109	25.0
17.124	13.0
17.139	24.0
17.153	23.0
17.168	19.0
17.183	13.0
17.198	15.0
17.212	9.0
17.227	19.0
17.242	10.0
17.257	10.0
17.271	11.0
17.286	12.0
17.301	16.0
17.316	15.0
17.33	12.0
17.345	19.0
17.36	15.0
17.375	17.0
17.39	11.0
17.404	16.0
17.419	9.0
17.434	13.0
17.449	10.0
17.463	17.0
17.478	16.0
17.493	16.0
17.508	16.0
17.522	12.0
17.537	12.0
17.552	17.0
17.567	7.0
17.581	10.0
17.596	12.0
17.611	20.0
17.626	11.0
17.641	9.0
17.655	13.0
17.67	9.0
17.685	15.0
17.7	11.0
17.714	13.0
17.729	11.0
17.744	13.0
17.759	7.0
17.773	15.0
17.788	12.0
17.803	14.0
17.818	13.0
17.833	11.0
17.847	8.0
17.862	8.0
17.877	16.0
17.892	12.0
17.906	14.0
17.921	13.0
17.936	22.0
17.951	16.0
17.966	12.0
17.98	11.0
17.995	4.0
18.01	8.0
18.025	16.0
18.04	13.0
18.054	11.0
18.069	9.0
18.084	16.0
18.099	10.0
18.114	11.0
18.128	6.0
18.143	16.0
18.158	12.0
18.173	10.0
18.188	9.0
18.202	8.0
18.217	7.0
18.232	15.0
18.247	14.0
18.262	16.0
18.276	10.0
18.291	10.0
18.306	10.0
18.321	8.0
18.336	13.0
18.35	12.0
18.365	9.0
18.38	13.0
18.395	10.0
18.41	11.0
18.424	16.0
18.439	6.0
18.454	8.0
18.469	10.0
18.484	8.0
18.498	9.0
18.513	10.0
18.528	8.0
18.543	7.0
18.558	15.0
18.573	11.0
18.587	12.0
18.602	10.0
18.617	5.0
18.632	12.0
18.647	12.0
18.661	21.0
18.676	6.0
18.691	8.0
18.706	7.0
18.721	10.0
18.736	12.0
18.75	12.0
18.765	9.0
18.78	15.0
18.795	10.0
18.81	9.0
18.825	11.0
18.839	8.0
18.854	9.0
18.869	15.0
18.884	14.0
18.899	8.0
18.913	12.0
18.928	6.0
18.943	17.0
18.958	13.0
18.973	14.0
18.988	8.0
19.002	11.0
19.017	14.0
19.032	14.0
19.047	10.0
19.062	10.0
19.077	10.0
19.091	17.0
19.106	17.0
19.121	12.0
19.136	2.0
19.151	13.0
19.165	17.0
19.18	9.0
19.195	10.0
19.21	12.0
19.225	7.0
19.24	10.0
19.254	16.0
19.269	5.0
19.284	15.0
19.299	21.0
19.314	12.0
19.329	18.0
19.343	13.0
19.358	18.0
19.373	12.0
19.388	18.0
19.403	20.0
19.417	18.0
19.432	21.0
19.447	11.0
19.462	19.0
19.477	28.0
19.492	22.0
19.506	27.0
19.521	29.0
19.536	44.0
19.551	40.0
19.566	58.0
19.58	45.0
19.595	39.0
19.61	27.0
19.625	50.0
19.64	42.0
19.655	44.0
19.669	40.0
19.684	30.0
19.699	42.0
19.714	23.0
19.729	23.0
19.743	23.0
19.758	20.0
19.773	22.0
19.788	16.0
19.803	14.0
19.817	15.0
19.832	12.0
19.847	15.0
19.862	14.0
19.877	14.0
19.891	10.0
19.906	8.0
19.921	10.0
19.936	13.0
19.951	10.0
19.965	13.0
19.98	11.0
19.995	14.0
20.01	20.0
20.025	12.0
20.039	20.0
20.054	13.0
20.069	14.0
20.084	14.0
20.099	8.0
20.113	7.0
20.128	17.0
20.143	9.0
20.158	13.0
20.173	11.0
20.187	12.0
20.202	16.0
20.217	9.0
20.232	13.0
20.246	13.0
20.261	8.0
20.276	13.0
20.291	3.0
20.306	7.0
20.32	16.0
20.335	14.0
20.35	10.0
20.365	6.0
20.38	16.0
20.394	8.0
20.409	9.0
20.424	16.0
20.439	12.0
20.453	8.0
20.468	14.0
20.483	12.0
20.498	15.0
20.513	15.0
20.527	11.0
20.542	16.0
20.557	10.0
20.572	9.0
20.586	9.0
20.601	11.0
20.616	20.0
20.631	14.0
20.646	8.0
20.66	8.0
20.675	12.0
20.69	11.0
20.705	15.0
20.719	9.0
20.734	11.0
20.749	19.0
20.764	4.0
20.779	11.0
20.793	6.0
20.808	14.0
20.823	13.0
20.838	15.0
20.853	5.0
20.867	12.0
20.882	9.0
20.897	14.0
20.912	8.0
20.926	10.0
20.941	10.0
20.956	12.0
20.971	4.0
20.986	9.0
21.0	11.0
21.015	11.0
21.03	9.0
21.045	13.0
21.06	12.0
21.074	9.0
21.089	6.0
21.104	13.0
21.119	13.0
21.134	13.0
21.148	11.0
21.163	18.0
21.178	13.0
21.193	15.0
21.208	12.0
21.222	12.0
21.237	3.0
21.252	13.0
21.267	14.0
21.282	15.0
21.296	6.0
21.311	9.0
21.326	13.0
21.341	14.0
21.356	6.0
21.37	8.0
21.385	10.0
21.4	8.0
21.415	16.0
21.43	11.0
21.444	14.0
21.459	9.0
21.474	12.0
21.489	6.0
21.504	17.0
21.519	15.0
21.533	18.0
21.548	17.0
21.563	12.0
21.578	6.0
21.593	13.0
21.608	21.0
21.622	16.0
21.637	6.0
21.652	15.0
21.667	20.0
21.682	17.0
21.697	8.0
21.712	18.0
21.726	27.0
21.741	20.0
21.756	26.0
21.771	41.0
21.786	36.0
21.801	26.0
21.816	43.0
21.83	39.0
21.845	38.0
21.86	59.0
21.875	56.0
21.89	67.0
21.905	62.0
21.92	77.0
21.935	73.0
21.949	70.0
21.964	88.0
21.979	67.0
21.994	65.0
22.009	62.0
22.024	75.0
22.039	60.0
22.054	50.0
22.069	46.0
22.083	36.0
22.098	40.0
22.113	37.0
22.128	38.0
22.143	33.0
22.158	23.0
22.173	23.0
22.188	22.0
22.203	12.0
22.218	19.0
22.233	5.0
22.248	6.0
22.262	18.0
22.277	10.0
22.292	11.0
22.307	10.0
22.322	13.0
22.337	8.0
22.352	15.0
22.367	9.0
22.382	19.0
22.397	7.0
22.412	13.0
22.427	19.0
22.442	20.0
22.457	9.0
22.472	15.0
22.487	14.0
22.502	12.0
22.516	8.0
22.531	19.0
22.546	6.0
22.561	7.0
22.576	10.0
22.591	16.0
22.606	9.0
22.621	8.0
22.636	9.0
22.651	8.0
22.666	8.0
22.681	6.0
22.696	13.0
22.711	10.0
22.726	12.0
22.741	10.0
22.756	7.0
22.771	11.0
22.786	12.0
22.801	10.0
22.816	12.0
22.831	15.0
22.846	7.0
22.861	13.0
22.876	10.0
22.891	15.0
22.906	8.0
22.92	13.0
22.935	8.0
22.95	10.0
22.965	5.0
22.98	16.0
22.995	7.0
23.01	7.0
23.025	9.0
23.04	11.0
23.055	11.0
23.07	12.0
23.085	8.0
23.1	9.0
23.115	9.0
23.13	8.0
23.145	11.0
23.16	12.0
23.175	10.0
23.19	5.0
23.205	6.0
23.22	9.0
23.235	7.0
23.25	5.0
23.265	15.0
23.28	11.0
23.295	10.0
23.31	13.0
23.325	9.0
23.34	6.0
23.355	15.0
23.37	7.0
23.384	8.0
23.399	9.0
23.414	15.0
23.429	7.0
23.444	12.0
23.459	11.0
23.474	9.0
23.489	13.0
23.504	8.0
23.519	7.0
23.534	10.0
23.549	15.0
23.564	11.0
23.579	12.0
23.594	10.0
23.609	13.0
23.624	13.0
23.639	10.0
23.654	10.0
23.668	16.0
23.683	11.0
23.698	4.0
23.713	7.0
23.728	6.0
23.743	10.0
23.758	8.0
23.773	14.0
23.788	13.0
23.803	18.0
23.818	15.0
23.833	9.0
23.848	16.0
23.862	13.0
23.877	19.0
23.892	18.0
23.907	18.0
23.922	20.0
23.937	31.0
23.952	28.0
23.967	39.0
23.982	28.0
23.997	49.0
24.011	45.0
24.026	45.0
24.041	44.0
24.056	48.0
24.071	47.0
24.086	57.0
24.101	48.0
24.116	48.0
24.131	45.0
24.145	35.0
24.16	37.0
24.175	42.0
24.19	46.0
24.205	34.0
24.22	25.0
24.235	24.0
24.249	21.0
24.264	29.0
24.279	25.0
24.294	21.0
24.309	17.0
24.324	15.0
24.338	20.0
24.353	5.0
24.368	16.0
24.383	12.0
24.398	12.0
24.413	7.0
24.428	10.0
24.442	9.0
24.457	11.0
24.472	12.0
24.487	14.0
24.502	8.0
24.516	10.0
24.531	12.0
24.546	8.0
24.561	7.0
24.576	9.0
24.591	11.0
24.605	11.0
24.62	4.0
24.635	9.0
24.65	10.0
24.665	8.0
24.679	7.0
24.694	17.0
24.709	9.0
24.724	8.0
24.739	11.0
24.753	14.0
24.768	12.0
24.783	7.0
24.798	10.0
24.813	8.0
24.827	6.0
24.842	12.0
24.857	13.0
24.872	6.0
24.886	12.0
24.901	8.0
24.916	9.0
24.931	9.0
24.946	17.0
24.96	9.0
24.975	8.0
24.99	10.0
25.005	8.0
25.019	6.0
25.034	19.0
25.049	9.0
25.064	13.0
25.078	12.0
25.093	5.0
25.108	11.0
25.123	10.0
25.138	9.0
25.152	8.0
25.167	10.0
25.182	8.0
25.197	15.0
25.211	10.0
25.226	7.0
25.241	12.0
25.256	13.0
25.27	5.0
25.285	5.0
25.3	7.0
25.315	8.0
25.329	11.0
25.344	8.0
25.359	11.0
25.374	8.0
25.388	15.0
25.403	7.0
25.418	9.0
25.433	7.0
25.447	16.0
25.462	12.0
25.477	12.0
25.492	4.0
25.506	10.0
25.521	15.0
25.536	13.0
25.55	8.0
25.565	8.0
25.58	5.0
25.595	9.0
25.609	9.0
25.624	10.0
25.639	10.0
25.654	7.0
25.668	6.0
25.683	8.0
25.698	8.0
25.713	6.0
25.727	13.0
25.742	14.0
25.757	13.0
25.772	9.0
25.786	13.0
25.801	6.0
25.816	14.0
25.83	12.0
25.845	10.0
25.86	6.0
25.875	12.0
25.889	9.0
25.904	10.0
25.919	6.0
25.934	11.0
25.948	4.0
25.963	13.0
25.978	10.0
25.992	12.0
26.007	8.0
26.022	7.0
26.037	5.0
26.051	9.0
26.066	3.0
26.081	6.0
26.096	8.0
26.11	10.0
26.125	10.0
26.14	11.0
26.155	11.0
26.169	7.0
26.184	10.0
26.199	10.0
26.213	9.0
26.228	13.0
26.243	11.0
26.258	7.0
26.272	5.0
26.287	6.0
26.302	10.0
26.317	7.0
26.331	7.0
26.346	7.0
26.361	9.0
26.376	13.0
26.39	8.0
26.405	7.0
26.42	11.0
26.434	11.0
26.449	13.0
26.464	8.0
26.479	13.0
26.493	12.0
26.508	15.0
26.523	8.0
26.538	9.0
26.552	12.0
26.567	12.0
26.582	2.0
26.597	12.0
26.611	13.0
26.626	8.0
26.641	15.0
26.656	11.0
26.67	9.0
26.685	13.0
26.7	8.0
26.715	6.0
26.729	3.0
26.744	7.0
26.759	15.0
26.773	10.0
26.788	15.0
26.803	10.0
26.818	11.0
26.832	4.0
26.847	12.0
26.862	6.0
26.877	12.0
26.891	11.0
26.906	12.0
26.921	6.0
26.936	10.0
26.95	8.0
26.965	10.0
26.98	8.0
26.995	7.0
27.01	6.0
27.024	12.0
27.039	10.0
27.054	5.0
27.069	7.0
27.083	11.0
27.098	11.0
27.113	7.0
27.128	16.0
27.142	11.0
27.157	10.0
27.172	13.0
27.187	10.0
27.201	11.0
27.216	12.0
27.231	3.0
27.246	10.0
27.261	9.0
27.275	8.0
27.29	12.0
27.305	5.0
27.32	5.0
27.334	7.0
27.349	3.0
27.364	9.0
27.379	11.0
27.394	5.0
27.408	9.0
27.423	7.0
27.438	13.0
27.453	16.0
27.467	9.0
27.482	7.0
27.497	5.0
27.512	10.0
27.527	6.0
27.541	8.0
27.556	14.0
27.571	10.0
27.586	11.0
27.601	5.0
27.615	14.0
27.63	8.0
27.645	13.0
27.66	20.0
27.675	5.0
27.689	10.0
27.704	13.0
27.719	10.0
27.734	13.0
27.749	16.0
27.763	13.0
27.778	26.0
27.793	20.0
27.808	17.0
27.823	19.0
27.838	22.0
27.852	28.0
27.867	19.0
27.882	22.0
27.897	18.0
27.912	14.0
27.926	21.0
27.941	15.0
27.956	16.0
27.971	13.0
27.986	18.0
28.001	22.0
28.015	15.0
28.03	18.0
28.045	18.0
28.06	14.0
28.075	14.0
28.09	12.0
28.105	12.0
28.119	14.0
28.134	12.0
28.149	13.0
28.164	11.0
28.179	11.0
28.194	8.0
28.208	6.0
28.223	10.0
28.238	15.0
28.253	12.0
28.268	6.0
28.283	11.0
28.298	5.0
28.312	14.0
28.327	8.0
28.342	10.0
28.357	8.0
28.372	11.0
28.387	11.0
28.402	14.0
28.417	5.0
28.431	14.0
28.446	9.0
28.461	11.0
28.476	8.0
28.491	11.0
28.506	8.0
28.521	11.0
28.536	10.0
28.55	9.0
28.565	7.0
28.58	5.0
28.595	14.0
28.61	7.0
28.625	9.0
28.64	9.0
28.655	12.0
28.669	15.0
28.684	11.0
28.699	11.0
28.714	11.0
28.729	10.0
28.744	5.0
28.759	12.0
28.774	6.0
28.788	10.0
28.803	13.0
28.818	14.0
28.833	8.0
28.848	10.0
28.863	10.0
28.878	15.0
28.893	9.0
28.908	7.0
28.922	9.0
28.937	9.0
28.952	12.0
28.967	10.0
28.982	17.0
28.997	6.0
29.012	14.0
29.027	5.0
29.041	13.0
29.056	12.0
29.071	10.0
29.086	9.0
29.101	12.0
29.116	7.0
29.131	12.0
29.146	3.0
29.16	9.0
29.175	14.0
29.19	14.0
29.205	6.0
29.22	13.0
29.235	13.0
29.25	7.0
29.265	11.0
29.279	9.0
29.294	9.0
29.309	17.0
29.324	9.0
29.339	5.0
29.354	11.0
29.369	19.0
29.384	15.0
29.398	11.0
29.413	21.0
29.428	11.0
29.443	19.0
29.458	21.0
29.473	22.0
29.488	21.0
29.502	27.0
29.517	27.0
29.532	33.0
29.547	39.0
29.562	38.0
29.577	42.0
29.592	41.0
29.606	48.0
29.621	50.0
29.636	48.0
29.651	45.0
29.666	49.0
29.681	24.0
29.695	42.0
29.71	47.0
29.725	43.0
29.74	33.0
29.755	30.0
29.77	30.0
29.784	22.0
29.799	23.0
29.814	34.0
29.829	22.0
29.844	27.0
29.859	17.0
29.873	22.0
29.888	23.0
29.903	12.0
29.918	14.0
29.933	10.0
29.947	15.0
29.962	21.0
29.977	10.0
29.992	14.0
30.007	9.0
30.021	12.0
30.036	8.0
30.051	9.0
30.066	13.0
30.081	7.0
30.095	14.0
30.11	11.0
30.125	11.0
30.14	14.0
30.155	10.0
30.169	9.0
30.184	16.0
30.199	11.0
30.214	7.0
30.228	7.0
30.243	9.0
30.258	11.0
30.273	14.0
30.288	15.0
30.302	12.0
30.317	8.0
30.332	8.0
30.347	7.0
30.361	7.0
30.376	7.0
30.391	8.0
30.406	7.0
30.42	9.0
30.435	10.0
30.45	11.0
30.465	4.0
30.479	10.0
30.494	12.0
30.509	7.0
30.524	11.0
30.538	13.0
30.553	9.0
30.568	6.0
30.583	9.0
30.597	10.0
30.612	15.0
30.627	15.0
30.641	9.0
30.656	18.0
30.671	11.0
30.686	9.0
30.7	16.0
30.715	7.0
30.73	9.0
30.745	11.0
30.759	11.0
30.774	13.0
30.789	12.0
30.803	17.0
30.818	8.0
30.833	14.0
30.848	10.0
30.862	12.0
30.877	13.0
30.892	11.0
30.906	11.0
30.921	13.0
30.936	7.0
30.951	10.0
30.965	13.0
30.98	6.0
30.995	8.0
31.009	10.0
31.024	12.0
31.039	19.0
31.053	19.0
31.068	17.0
31.083	19.0
31.098	19.0
31.112	11.0
31.127	23.0
31.142	26.0
31.156	29.0
31.171	26.0
31.186	25.0
31.2	41.0
31.215	35.0
31.23	37.0
31.245	35.0
31.259	35.0
31.274	44.0
31.289	41.0
31.303	26.0
31.318	26.0
31.333	21.0
31.347	29.0
31.362	26.0
31.377	28.0
31.392	26.0
31.406	22.0
31.421	28.0
31.436	30.0
31.45	29.0
31.465	15.0
31.48	22.0
31.494	19.0
31.509	25.0
31.524	23.0
31.538	16.0
31.553	13.0
31.568	8.0
31.583	14.0
31.597	9.0
31.612	6.0
31.627	10.0
31.641	10.0
31.656	14.0
31.671	15.0
31.685	10.0
31.7	14.0
31.715	11.0
31.729	8.0
31.744	9.0
31.759	11.0
31.774	9.0
31.788	2.0
31.803	12.0
31.818	12.0
31.832	15.0
31.847	11.0
31.862	9.0
31.876	5.0
31.891	13.0
31.906	7.0
31.92	4.0
31.935	8.0
31.95	7.0
31.965	12.0
31.979	5.0
31.994	16.0
32.009	8.0
32.023	6.0
32.038	7.0
32.053	11.0
32.067	17.0
32.082	4.0
32.097	8.0
32.112	5.0
32.126	6.0
32.141	12.0
32.156	9.0
32.17	4.0
32.185	11.0
32.2	10.0
32.214	11.0
32.229	12.0
32.244	15.0
32.259	10.0
32.273	12.0
32.288	7.0
32.303	11.0
32.317	5.0
32.332	12.0
32.347	10.0
32.362	10.0
32.376	7.0
32.391	11.0
32.406	6.0
32.42	14.0
32.435	10.0
32.45	5.0
32.465	8.0
32.479	9.0
32.494	7.0
32.509	9.0
32.523	9.0
32.538	2.0
32.553	5.0
32.568	8.0
32.582	12.0
32.597	9.0
32.612	3.0
32.627	5.0
32.641	18.0
32.656	16.0
32.671	14.0
32.685	13.0
32.7	15.0
32.715	12.0
32.73	13.0
32.744	20.0
32.759	20.0
32.774	22.0
32.788	26.0
32.803	21.0
32.818	24.0
32.833	19.0
32.847	27.0
32.862	24.0
32.877	19.0
32.892	20.0
32.906	20.0
32.921	21.0
32.936	21.0
32.951	13.0
32.965	21.0
32.98	19.0
32.995	14.0
33.009	8.0
33.024	25.0
33.039	9.0
33.054	23.0
33.068	12.0
33.083	18.0
33.098	16.0
33.113	9.0
33.127	17.0
33.142	12.0
33.157	11.0
33.172	9.0
33.186	9.0
33.201	7.0
33.216	12.0
33.231	8.0
33.245	8.0
33.26	7.0
33.275	7.0
33.29	7.0
33.304	9.0
33.319	14.0
33.334	11.0
33.349	10.0
33.363	9.0
33.378	2.0
33.393	7.0
33.408	9.0
33.422	7.0
33.437	15.0
33.452	12.0
33.467	7.0
33.481	9.0
33.496	10.0
33.511	13.0
33.526	8.0
33.54	9.0
33.555	4.0
33.57	7.0
33.585	8.0
33.599	7.0
33.614	11.0
33.629	12.0
33.644	9.0
33.658	10.0
33.673	5.0
33.688	1.0
33.703	11.0
33.718	12.0
33.732	10.0
33.747	14.0
33.762	12.0
33.777	11.0
33.791	13.0
33.806	11.0
33.821	12.0
33.836	8.0
33.85	9.0
33.865	10.0
33.88	6.0
33.895	6.0
33.91	10.0
33.924	8.0
33.939	9.0
33.954	9.0
33.969	3.0
33.983	6.0
33.998	9.0
34.013	15.0
34.028	11.0
34.042	8.0
34.057	8.0
34.072	12.0
34.087	10.0
34.102	12.0
34.116	17.0
34.131	12.0
34.146	7.0
34.161	11.0
34.175	10.0
34.19	14.0
34.205	8.0
34.22	14.0
34.235	23.0
34.249	17.0
34.264	16.0
34.279	18.0
34.294	13.0
34.309	7.0
34.323	14.0
34.338	17.0
34.353	11.0
34.368	13.0
34.382	14.0
34.397	11.0
34.412	9.0
34.427	15.0
34.442	12.0
34.456	13.0
34.471	5.0
34.486	12.0
34.501	16.0
34.516	12.0
34.53	11.0
34.545	14.0
34.56	11.0
34.575	11.0
34.59	4.0
34.604	12.0
34.619	14.0
34.634	8.0
34.649	9.0
34.664	9.0
34.678	8.0
34.693	10.0
34.708	5.0
34.723	9.0
34.738	8.0
34.752	10.0
34.767	7.0
34.782	6.0
34.797	3.0
34.812	11.0
34.826	7.0
34.841	7.0
34.856	8.0
34.871	5.0
34.886	9.0
34.9	10.0
34.915	6.0
34.93	7.0
34.945	1.0
34.96	6.0
34.974	9.0
34.989	9.0
35.004	6.0
35.019	9.0
35.034	6.0
35.048	11.0
35.063	8.0
35.078	14.0
35.093	4.0
35.108	6.0
35.122	9.0
35.137	7.0
35.152	9.0
35.167	9.0
35.182	12.0
35.196	8.0
35.211	8.0
35.226	9.0
35.241	10.0
35.256	10.0
35.27	3.0
35.285	11.0
35.3	10.0
35.315	6.0
35.33	12.0
35.344	6.0
35.359	5.0
35.374	11.0
35.389	7.0
35.404	9.0
35.418	9.0
35.433	11.0
35.448	9.0
35.463	8.0
35.478	11.0
35.493	5.0
35.507	7.0
35.522	10.0
35.537	11.0
35.552	10.0
35.567	10.0
35.581	8.0
35.596	14.0
35.611	11.0
35.626	5.0
35.641	9.0
35.655	10.0
35.67	11.0
35.685	12.0
35.7	14.0
35.715	12.0
35.729	21.0
35.744	21.0
35.759	15.0
35.774	14.0
35.789	14.0
35.804	19.0
35.818	23.0
35.833	18.0
35.848	17.0
35.863	17.0
35.878	19.0
35.892	15.0
35.907	16.0
35.922	12.0
35.937	18.0
35.952	15.0
35.966	12.0
35.981	14.0
35.996	19.0
36.011	16.0
36.026	11.0
36.04	7.0
36.055	14.0
36.07	10.0
36.085	7.0
36.1	10.0
36.114	11.0
36.129	7.0
36.144	9.0
36.159	5.0
36.174	6.0
36.189	8.0
36.203	8.0
36.218	11.0
36.233	9.0
36.248	8.0
36.263	11.0
36.277	7.0
36.292	11.0
36.307	8.0
36.322	10.0
36.337	14.0
36.351	7.0
36.366	13.0
36.381	8.0
36.396	13.0
36.411	8.0
36.426	9.0
36.44	6.0
36.455	6.0
36.47	8.0
36.485	8.0
36.5	12.0
36.514	6.0
36.529	11.0
36.544	5.0
36.559	4.0
36.574	8.0
36.589	7.0
36.603	7.0
36.618	4.0
36.633	9.0
36.648	6.0
36.663	7.0
36.677	10.0
36.692	8.0
36.707	8.0
36.722	5.0
36.737	9.0
36.752	5.0
36.766	8.0
36.781	9.0
36.796	7.0
36.811	10.0
36.826	6.0
36.841	12.0
36.855	10.0
36.87	7.0
36.885	11.0
36.9	6.0
36.915	9.0
36.93	6.0
36.944	13.0
36.959	6.0
36.974	11.0
36.989	7.0
37.004	8.0
37.019	11.0
37.033	14.0
37.048	17.0
37.063	13.0
37.078	21.0
37.093	16.0
37.108	22.0
37.123	18.0
37.137	22.0
37.152	21.0
37.167	22.0
37.182	26.0
37.197	28.0
37.212	27.0
37.226	25.0
37.241	20.0
37.256	18.0
37.271	18.0
37.286	15.0
37.301	14.0
37.316	13.0
37.331	16.0
37.345	15.0
37.36	27.0
37.375	16.0
37.39	23.0
37.405	17.0
37.42	19.0
37.435	16.0
37.45	17.0
37.464	10.0
37.479	9.0
37.494	12.0
37.509	6.0
37.524	16.0
37.539	3.0
37.554	8.0
37.569	5.0
37.583	9.0
37.598	10.0
37.613	6.0
37.628	15.0
37.643	12.0
37.658	9.0
37.673	7.0
37.688	7.0
37.703	11.0
37.718	10.0
37.733	11.0
37.747	9.0
37.762	8.0
37.777	8.0
37.792	7.0
37.807	2.0
37.822	7.0
37.837	6.0
37.852	5.0
37.867	4.0
37.882	6.0
37.897	4.0
37.912	8.0
37.927	10.0
37.941	6.0
37.956	7.0
37.971	11.0
37.986	4.0
38.001	10.0
38.016	8.0
38.031	9.0
38.046	6.0
38.061	3.0
38.076	7.0
38.091	10.0
38.106	15.0
38.121	6.0
38.136	5.0
38.151	8.0
38.166	6.0
38.181	1.0
38.196	5.0
38.211	4.0
38.226	4.0
38.241	5.0
38.256	7.0
38.271	7.0
38.285	11.0
38.3	9.0
38.315	9.0
38.33	8.0
38.345	6.0
38.36	9.0
38.375	8.0
38.39	3.0
38.405	4.0
38.42	10.0
38.435	3.0
38.45	3.0
38.465	5.0
38.48	12.0
38.495	6.0
38.51	3.0
38.525	6.0
38.54	9.0
38.555	8.0
38.57	3.0
38.585	12.0
38.6	2.0
38.615	5.0
38.63	5.0
38.645	6.0
38.66	7.0
38.675	5.0
38.69	4.0
38.705	5.0
38.72	3.0
38.735	5.0
38.75	9.0
38.765	6.0
38.78	6.0
38.795	2.0
38.81	8.0
38.825	6.0
38.84	7.0
38.855	4.0
38.87	7.0
38.885	5.0
38.9	5.0
38.915	8.0
38.93	7.0
38.945	5.0
38.96	5.0
38.975	6.0
38.99	5.0
39.005	7.0
39.02	8.0
39.035	7.0
39.05	5.0
39.065	2.0
39.08	7.0
39.095	5.0
39.11	10.0
39.125	7.0
39.14	7.0
39.155	4.0
39.17	4.0
39.185	5.0
39.2	7.0
39.215	4.0
39.23	10.0
39.245	3.0
39.26	5.0
39.275	7.0
39.29	6.0
39.305	6.0
39.32	7.0
39.335	4.0
39.35	6.0
39.365	3.0
39.38	7.0
39.395	8.0
39.409	11.0
39.424	4.0
39.439	3.0
39.454	1.0
39.469	3.0
39.484	6.0
39.499	7.0
39.514	5.0
39.529	4.0
39.544	7.0
39.559	3.0
39.574	3.0
39.589	5.0
39.604	5.0
39.619	8.0
39.634	4.0
39.649	12.0
39.664	6.0
39.678	5.0
39.693	6.0
39.708	9.0
39.723	8.0
39.738	7.0
39.753	4.0
39.768	11.0
39.783	4.0
39.798	13.0
39.813	12.0
39.827	4.0
39.842	8.0
39.857	11.0
39.872	4.0
39.887	12.0
39.902	10.0
39.917	7.0
39.932	10.0
39.947	11.0
39.961	9.0
39.976	11.0
39.991	9.0
40.006	11.0
40.021	9.0
40.036	11.0
40.051	7.0
40.065	6.0
40.08	8.0
40.095	11.0
40.11	5.0
40.125	8.0
40.14	9.0
40.154	5.0
40.169	6.0
40.184	3.0
40.199	4.0
40.214	9.0
40.228	6.0
40.243	8.0
40.258	6.0
40.273	6.0
40.288	7.0
40.302	8.0
40.317	9.0
40.332	8.0
40.347	7.0
40.362	6.0
40.376	5.0
40.391	7.0
40.406	2.0
40.421	7.0
40.436	6.0
40.45	5.0
40.465	9.0
40.48	7.0
40.495	4.0
40.509	7.0
40.524	9.0
40.539	5.0
40.554	5.0
40.568	7.0
40.583	3.0
40.598	5.0
40.613	1.0
40.627	7.0
40.642	2.0
40.657	6.0
40.672	5.0
40.686	10.0
40.701	2.0
40.716	5.0
40.731	3.0
40.745	3.0
40.76	6.0
40.775	7.0
40.79	7.0
40.804	8.0
40.819	3.0
40.834	4.0
40.849	3.0
40.863	6.0
40.878	7.0
40.893	4.0
40.907	11.0
40.922	3.0
40.937	4.0
40.952	8.0
40.966	4.0
40.981	10.0
40.996	10.0
41.011	7.0
41.025	9.0
41.04	18.0
41.055	15.0
41.069	16.0
41.084	18.0
41.099	19.0
41.114	16.0
41.128	20.0
41.143	19.0
41.158	22.0
41.173	21.0
41.187	14.0
41.202	22.0
41.217	16.0
41.231	11.0
41.246	12.0
41.261	19.0
41.276	8.0
41.29	6.0
41.305	12.0
41.32	8.0
41.335	11.0
41.349	12.0
41.364	16.0
41.379	18.0
41.393	15.0
41.408	11.0
41.423	13.0
41.438	15.0
41.452	13.0
41.467	14.0
41.482	5.0
41.497	3.0
41.511	12.0
41.526	6.0
41.541	9.0
41.556	9.0
41.57	4.0
41.585	6.0
41.6	6.0
41.615	5.0
41.629	6.0
41.644	5.0
41.659	4.0
41.674	11.0
41.688	10.0
41.703	6.0
41.718	7.0
41.733	7.0
41.747	5.0
41.762	4.0
41.777	2.0
41.792	4.0
41.806	10.0
41.821	6.0
41.836	4.0
41.851	6.0
41.866	7.0
41.88	1.0
41.895	3.0
41.91	4.0
41.925	9.0
41.939	7.0
41.954	6.0
41.969	2.0
41.984	4.0
41.999	5.0
42.013	8.0
42.028	10.0
42.043	7.0
42.058	5.0
42.073	8.0
42.088	5.0
42.102	6.0
42.117	5.0
42.132	3.0
42.147	7.0
42.162	6.0
42.176	9.0
42.191	7.0
42.206	10.0
42.221	5.0
42.236	7.0
42.251	11.0
42.266	7.0
42.28	12.0
42.295	4.0
42.31	12.0
42.325	14.0
42.34	18.0
42.355	16.0
42.369	9.0
42.384	15.0
42.399	11.0
42.414	15.0
42.429	16.0
42.444	14.0
42.459	13.0
42.474	14.0
42.488	6.0
42.503	6.0
42.518	8.0
42.533	3.0
42.548	13.0
42.563	8.0
42.578	8.0
42.593	9.0
42.608	6.0
42.622	8.0
42.637	9.0
42.652	10.0
42.667	9.0
42.682	11.0
42.697	6.0
42.712	11.0
42.727	9.0
42.742	6.0
42.757	4.0
42.772	13.0
42.786	6.0
42.801	4.0
42.816	6.0
42.831	3.0
42.846	3.0
42.861	7.0
42.876	10.0
42.891	7.0
42.906	8.0
42.921	9.0
42.936	3.0
42.951	4.0
42.966	5.0
42.981	7.0
42.996	5.0
43.011	5.0
43.025	11.0
43.04	1.0
43.055	6.0
43.07	5.0
43.085	5.0
43.1	5.0
43.115	3.0
43.13	3.0
43.145	5.0
43.16	0.0
43.175	6.0
43.19	4.0
43.205	3.0
43.22	7.0
43.235	5.0
43.25	4.0
43.265	6.0
43.28	5.0
43.295	9.0
43.31	2.0
43.325	4.0
43.34	5.0
43.355	2.0
43.37	7.0
43.385	5.0
43.4	3.0
43.415	3.0
43.43	7.0
43.445	5.0
43.46	6.0
43.475	2.0
43.49	9.0
43.505	6.0
43.52	7.0
43.535	4.0
43.55	15.0
43.565	10.0
43.58	4.0
43.595	8.0
43.61	10.0
43.625	13.0
43.64	10.0
43.655	9.0
43.67	8.0
43.685	7.0
43.7	6.0
43.715	4.0
43.73	1.0
43.745	1.0
43.76	6.0
43.775	4.0
43.79	5.0
43.805	5.0
43.82	6.0
43.835	5.0
43.85	6.0
43.865	7.0
43.88	8.0
43.895	6.0
43.91	9.0
43.925	7.0
43.94	6.0
43.955	4.0
43.97	6.0
43.985	11.0
44.0	4.0
44.015	6.0
44.03	3.0
44.045	4.0
44.061	3.0
44.076	3.0
44.091	0.0
44.106	3.0
44.121	3.0
44.136	8.0
44.151	6.0
44.166	4.0
44.181	3.0
44.196	7.0
44.211	7.0
44.226	11.0
44.241	6.0
44.256	2.0
44.271	6.0
44.286	4.0
44.301	5.0
44.316	6.0
44.331	7.0
44.346	2.0
44.361	3.0
44.377	2.0
44.392	2.0
44.407	3.0
44.422	8.0
44.437	5.0
44.452	5.0
44.467	8.0
44.482	5.0
44.497	11.0
44.512	3.0
44.527	6.0
44.542	5.0
44.557	4.0
44.572	2.0
44.587	2.0
44.602	5.0
44.617	4.0
44.632	7.0
44.647	3.0
44.663	5.0
44.678	2.0
44.693	3.0
44.708	8.0
44.723	2.0
44.738	9.0
44.753	5.0
44.768	13.0
44.783	6.0
44.798	12.0
44.813	7.0
44.828	7.0
44.843	9.0
44.858	9.0
44.873	6.0
44.888	11.0
44.903	5.0
44.918	10.0
44.933	5.0
44.948	9.0
44.964	5.0
44.979	3.0
44.994	6.0
45.009	7.0
45.024	10.0
45.039	7.0
45.054	7.0
45.069	14.0
45.084	9.0
45.099	8.0
45.114	4.0
45.129	8.0
45.144	10.0
45.159	5.0
45.174	6.0
45.189	11.0
45.204	2.0
45.219	4.0
45.234	7.0
45.249	5.0
45.264	4.0
45.279	8.0
45.294	5.0
45.309	5.0
45.324	8.0
45.339	3.0
45.354	8.0
45.369	4.0
45.384	4.0
45.399	2.0
45.414	7.0
45.429	3.0
45.444	3.0
45.459	3.0
45.474	3.0
45.489	5.0
45.504	5.0
45.519	5.0
45.534	3.0
45.549	2.0
45.564	7.0
45.579	12.0
45.594	4.0
45.609	3.0
45.624	7.0
45.639	2.0
45.654	8.0
45.669	5.0
45.684	5.0
45.699	5.0
45.714	7.0
45.729	8.0
45.744	4.0
45.759	7.0
45.774	5.0
45.789	7.0
45.804	2.0
45.819	5.0
45.834	7.0
45.849	7.0
45.864	9.0
45.879	9.0
45.894	5.0
45.909	15.0
45.924	9.0
45.939	10.0
45.954	19.0
45.969	23.0
45.984	10.0
45.998	17.0
46.013	14.0
46.028	9.0
46.043	13.0
46.058	13.0
46.073	10.0
46.088	4.0
46.103	8.0
46.118	7.0
46.133	12.0
46.148	12.0
46.163	6.0
46.178	14.0
46.192	10.0
46.207	15.0
46.222	10.0
46.237	12.0
46.252	9.0
46.267	6.0
46.282	10.0
46.297	15.0
46.312	6.0
46.327	10.0
46.341	8.0
46.356	8.0
46.371	8.0
46.386	12.0
46.401	3.0
46.416	3.0
46.431	4.0
46.446	4.0
46.46	5.0
46.475	4.0
46.49	9.0
46.505	3.0
46.52	9.0
46.535	4.0
46.55	4.0
46.564	4.0
46.579	7.0
46.594	5.0
46.609	5.0
46.624	4.0
46.639	4.0
46.654	6.0
46.668	1.0
46.683	7.0
46.698	4.0
46.713	4.0
46.728	6.0
46.743	7.0
46.758	2.0
46.772	5.0
46.787	12.0
46.802	3.0
46.817	3.0
46.832	6.0
46.847	5.0
46.861	5.0
46.876	1.0
46.891	2.0
46.906	4.0
46.921	6.0
46.936	3.0
46.95	3.0
46.965	5.0
46.98	4.0
46.995	7.0
47.01	4.0
47.025	8.0
47.039	6.0
47.054	12.0
47.069	9.0
47.084	8.0
47.099	11.0
47.113	7.0
47.128	14.0
47.143	10.0
47.158	8.0
47.173	9.0
47.188	6.0
47.202	5.0
47.217	2.0
47.232	7.0
47.247	2.0
47.262	3.0
47.277	4.0
47.291	4.0
47.306	5.0
47.321	11.0
47.336	3.0
47.351	4.0
47.365	11.0
47.38	3.0
47.395	8.0
47.41	4.0
47.425	6.0
47.44	8.0
47.454	15.0
47.469	5.0
47.484	12.0
47.499	6.0
47.514	5.0
47.528	2.0
47.543	7.0
47.558	5.0
47.573	5.0
47.588	1.0
47.603	2.0
47.617	5.0
47.632	2.0
47.647	7.0
47.662	3.0
47.677	3.0
47.691	5.0
47.706	4.0
47.721	11.0
47.736	8.0
47.751	8.0
47.766	5.0
47.78	6.0
47.795	4.0
47.81	4.0
47.825	8.0
47.84	3.0
47.855	7.0
47.869	0.0
47.884	6.0
47.899	3.0
47.914	3.0
47.929	6.0
47.944	6.0
47.958	2.0
47.973	4.0
47.988	7.0
48.003	2.0
48.018	5.0
48.033	2.0
48.047	3.0
48.062	7.0
48.077	3.0
48.092	5.0
48.107	5.0
48.122	4.0
48.137	2.0
48.151	5.0
48.166	6.0
48.181	3.0
48.196	6.0
48.211	5.0
48.226	5.0
48.241	8.0
48.255	2.0
48.27	9.0
48.285	3.0
48.3	3.0
48.315	5.0
48.33	8.0
48.345	3.0
48.359	0.0
48.374	4.0
48.389	4.0
48.404	8.0
48.419	6.0
48.434	5.0
48.449	5.0
48.464	4.0
48.478	6.0
48.493	3.0
48.508	4.0
48.523	5.0
48.538	3.0
48.553	4.0
48.568	3.0
48.583	3.0
48.597	4.0
48.612	6.0
48.627	6.0
48.642	4.0
48.657	2.0
48.672	6.0
48.687	3.0
48.702	1.0
48.717	0.0
48.731	9.0
48.746	4.0
48.761	1.0
48.776	5.0
48.791	3.0
48.806	4.0
48.821	6.0
48.836	5.0
48.851	4.0
48.866	4.0
48.88	3.0
48.895	2.0
48.91	5.0
48.925	4.0
48.94	2.0
48.955	4.0
48.97	5.0
48.985	6.0
49.0	3.0
49.015	6.0
49.03	5.0
49.044	4.0
49.059	8.0
49.074	9.0
49.089	5.0
49.104	4.0
49.119	2.0
49.134	5.0
49.149	9.0
49.164	3.0
49.179	5.0
49.194	6.0
49.209	1.0
49.224	5.0
49.238	2.0
49.253	5.0
49.268	7.0
49.283	7.0
49.298	6.0
49.313	7.0
49.328	7.0
49.343	6.0
49.358	4.0
49.373	4.0
49.388	5.0
49.403	6.0
49.418	9.0
49.433	7.0
49.448	5.0
49.463	5.0
49.478	8.0
49.492	6.0
49.507	5.0
49.522	4.0
49.537	1.0
49.552	2.0
49.567	7.0
49.582	6.0
49.597	11.0
49.612	4.0
49.627	11.0
49.642	4.0
49.657	3.0
49.672	6.0
49.687	7.0
49.702	4.0
49.717	2.0
49.732	10.0
49.747	7.0
49.762	4.0
49.777	2.0
49.792	4.0
49.807	7.0
49.822	2.0
49.837	2.0
49.852	5.0
49.867	7.0
49.882	4.0
49.897	1.0
49.912	4.0
49.927	4.0
49.942	8.0
49.957	5.0
49.971	4.0
49.986	5.0
50.001	4.0
50.016	1.0
50.031	2.0
50.046	4.0
50.061	4.0
50.076	5.0
50.091	7.0
50.106	5.0
50.121	6.0
50.136	4.0
50.151	4.0
50.166	4.0
50.181	4.0
50.196	3.0
50.211	3.0
50.226	6.0
50.241	8.0
50.256	4.0
50.271	3.0
50.286	9.0
50.302	3.0
50.317	4.0
50.332	5.0
50.347	8.0
50.362	4.0
50.377	7.0
50.392	5.0
50.407	5.0
50.422	8.0
50.437	13.0
50.452	7.0
50.467	8.0
50.482	12.0
50.497	10.0
50.512	2.0
50.527	7.0
50.542	5.0
50.557	6.0
50.572	3.0
50.587	3.0
50.602	4.0
50.617	6.0
50.632	8.0
50.647	9.0
50.662	5.0
50.677	6.0
50.692	6.0
50.707	5.0
50.722	7.0
50.737	4.0
50.752	6.0
50.767	6.0
50.782	7.0
50.797	5.0
50.812	5.0
50.828	6.0
50.843	3.0
50.858	7.0
50.873	7.0
50.888	4.0
50.903	3.0
50.918	6.0
50.933	4.0
50.948	7.0
50.963	1.0
50.978	3.0
50.993	4.0
51.008	0.0
51.023	5.0
51.038	4.0
51.053	3.0
51.068	2.0
51.083	4.0
51.098	6.0
51.114	6.0
51.129	8.0
51.144	6.0
51.159	1.0
51.174	3.0
51.189	5.0
51.204	6.0
51.219	6.0
51.234	10.0
51.249	5.0
51.264	6.0
51.279	3.0
51.294	8.0
51.309	10.0
51.324	4.0
51.34	5.0
51.355	7.0
51.37	8.0
51.385	6.0
51.4	6.0
51.415	2.0
51.43	8.0
51.445	7.0
51.46	9.0
51.475	14.0
51.49	15.0
51.505	15.0
51.52	12.0
51.535	12.0
51.551	16.0
51.566	20.0
51.581	12.0
51.596	11.0
51.611	13.0
51.626	4.0
51.641	9.0
51.656	4.0
51.671	4.0
51.686	7.0
51.701	7.0
51.716	6.0
51.732	4.0
51.747	7.0
51.762	10.0
51.777	1.0
51.792	6.0
51.807	7.0
51.822	16.0
51.837	13.0
51.852	10.0
51.867	10.0
51.882	12.0
51.898	6.0
51.913	4.0
51.928	8.0
51.943	12.0
51.958	6.0
51.973	8.0
51.988	3.0
52.003	3.0
52.018	13.0
52.033	2.0
52.048	3.0
52.064	7.0
52.079	6.0
52.094	6.0
52.109	5.0
52.124	4.0
52.139	6.0
52.154	4.0
52.169	6.0
52.184	8.0
52.199	6.0
52.215	5.0
52.23	5.0
52.245	2.0
52.26	2.0
52.275	2.0
52.29	4.0
52.305	6.0
52.32	4.0
52.335	4.0
52.35	2.0
52.366	8.0
52.381	5.0
52.396	1.0
52.411	5.0
52.426	4.0
52.441	4.0
52.456	9.0
52.471	4.0
52.486	12.0
52.502	8.0
52.517	9.0
52.532	6.0
52.547	5.0
52.562	7.0
52.577	4.0
52.592	10.0
52.607	11.0
52.622	10.0
52.637	8.0
52.653	15.0
52.668	5.0
52.683	4.0
52.698	3.0
52.713	4.0
52.728	5.0
52.743	6.0
52.758	7.0
52.774	4.0
52.789	3.0
52.804	7.0
52.819	4.0
52.834	8.0
52.849	8.0
52.864	5.0
52.879	7.0
52.894	5.0
52.91	7.0
52.925	5.0
52.94	6.0
52.955	6.0
52.97	5.0
52.985	5.0
53.0	4.0
53.015	9.0
53.031	9.0
53.046	8.0
53.061	6.0
53.076	2.0
53.091	2.0
53.106	8.0
53.121	7.0
53.136	5.0
53.152	3.0
53.167	4.0
53.182	4.0
53.197	4.0
53.212	4.0
53.227	2.0
53.242	3.0
53.257	5.0
53.273	3.0
53.288	6.0
53.303	12.0
53.318	5.0
53.333	2.0
53.348	6.0
53.363	2.0
53.379	4.0
53.394	4.0
53.409	3.0
53.424	7.0
53.439	5.0
53.454	6.0
53.469	7.0
53.484	5.0
53.5	8.0
53.515	5.0
53.53	4.0
53.545	2.0
53.56	3.0
53.575	4.0
53.59	4.0
53.606	4.0
53.621	4.0
53.636	8.0
53.651	3.0
53.666	4.0
53.681	6.0
53.696	6.0
53.712	2.0
53.727	5.0
53.742	9.0
53.757	0.0
53.772	5.0
53.787	5.0
53.802	5.0
53.818	2.0
53.833	4.0
53.848	2.0
53.863	6.0
53.878	6.0
53.893	7.0
53.909	3.0
53.924	8.0
53.939	6.0
53.954	6.0
53.969	5.0
53.984	8.0
53.999	5.0
54.015	0.0
54.03	7.0
54.045	4.0
54.06	4.0
54.075	4.0
54.09	7.0
54.106	7.0
54.121	3.0
54.136	12.0
54.151	5.0
54.166	8.0
54.181	7.0
54.197	3.0
54.212	1.0
54.227	4.0
54.242	7.0
54.257	4.0
54.272	5.0
54.288	6.0
54.303	4.0
54.318	5.0
54.333	12.0
54.348	2.0
54.363	7.0
54.379	6.0
54.394	6.0
54.409	3.0
54.424	5.0
54.439	9.0
54.454	4.0
54.47	3.0
54.485	2.0
54.5	5.0
54.515	5.0
54.53	5.0
54.545	8.0
54.561	6.0
54.576	6.0
54.591	10.0
54.606	9.0
54.621	7.0
54.636	15.0
54.652	12.0
54.667	14.0
54.682	10.0
54.697	12.0
54.712	15.0
54.727	4.0
54.743	11.0
54.758	8.0
54.773	4.0
54.788	8.0
54.803	11.0
54.819	6.0
54.834	6.0
54.849	7.0
54.864	5.0
54.879	2.0
54.894	6.0
54.91	11.0
54.925	13.0
54.94	5.0
54.955	7.0
54.97	6.0
54.985	9.0
55.001	5.0
55.016	6.0
55.031	9.0
55.046	7.0
55.061	2.0
55.077	6.0
55.092	6.0
55.107	10.0
55.122	4.0
55.137	2.0
55.152	4.0
55.168	6.0
55.183	2.0
55.198	0.0
55.213	3.0
55.228	4.0
55.243	2.0
55.259	6.0
55.274	5.0
55.289	4.0
55.304	6.0
55.319	2.0
55.335	5.0
55.35	2.0
55.365	4.0
55.38	5.0
55.395	8.0
55.41	3.0
55.426	6.0
55.441	4.0
55.456	6.0
55.471	4.0
55.486	1.0
55.501	3.0
55.517	6.0
55.532	3.0
55.547	4.0
55.562	2.0
55.577	3.0
55.592	9.0
55.608	6.0
55.623	4.0
55.638	6.0
55.653	3.0
55.668	7.0
55.683	9.0
55.699	10.0
55.714	9.0
55.729	6.0
55.744	4.0
55.759	7.0
55.774	5.0
55.79	8.0
55.805	7.0
55.82	2.0
55.835	2.0
55.85	1.0
55.865	3.0
55.881	3.0
55.896	2.0
55.911	2.0
55.926	6.0
55.941	2.0
55.956	9.0
55.972	2.0
55.987	4.0
56.002	6.0
56.017	6.0
56.032	12.0
56.047	9.0
56.063	5.0
56.078	4.0
56.093	4.0
56.108	2.0
56.123	2.0
56.138	5.0
56.154	1.0
56.169	2.0
56.184	3.0
56.199	3.0
56.214	6.0
56.229	6.0
56.244	2.0
56.26	8.0
56.275	5.0
56.29	3.0
56.305	2.0
56.32	0.0
56.335	4.0
56.351	5.0
56.366	2.0
56.381	4.0
56.396	3.0
56.411	1.0
56.426	4.0
56.441	3.0
56.457	3.0
56.472	3.0
56.487	5.0
56.502	3.0
56.517	0.0
56.532	5.0
56.547	8.0
56.563	10.0
56.578	3.0
56.593	4.0
56.608	7.0
56.623	9.0
56.638	3.0
56.653	4.0
56.668	5.0
56.684	2.0
56.699	5.0
56.714	2.0
56.729	6.0
56.744	8.0
56.759	3.0
56.774	4.0
56.79	4.0
56.805	2.0
56.82	2.0
56.835	9.0
56.85	5.0
56.865	4.0
56.88	4.0
56.895	0.0
56.911	2.0
56.926	3.0
56.941	4.0
56.956	7.0
56.971	0.0
56.986	3.0
57.001	6.0
57.016	6.0
57.031	3.0
57.047	3.0
57.062	1.0
57.077	3.0
57.092	3.0
57.107	4.0
57.122	4.0
57.137	4.0
57.152	8.0
57.167	3.0
57.183	2.0
57.198	2.0
57.213	5.0
57.228	2.0
57.243	5.0
57.258	4.0
57.273	7.0
57.288	4.0
57.303	7.0
57.318	4.0
57.334	5.0
57.349	3.0
57.364	1.0
57.379	8.0
57.394	6.0
57.409	8.0
57.424	6.0
57.439	5.0
57.454	5.0
57.469	4.0
57.484	1.0
57.5	4.0
57.515	5.0
57.53	3.0
57.545	4.0
57.56	4.0
57.575	5.0
57.59	5.0
57.605	4.0
57.62	11.0
57.635	7.0
57.65	6.0
57.665	12.0
57.68	7.0
57.696	9.0
57.711	7.0
57.726	3.0
57.741	4.0
57.756	5.0
57.771	1.0
57.786	3.0
57.801	0.0
57.816	5.0
57.831	7.0
57.846	5.0
57.861	2.0
57.876	4.0
57.891	7.0
57.906	1.0
57.921	4.0
57.937	5.0
57.952	3.0
57.967	5.0
57.982	6.0
57.997	6.0
58.012	3.0
58.027	1.0
58.042	7.0
58.057	2.0
58.072	5.0
58.087	13.0
58.102	4.0
58.117	2.0
58.132	6.0
58.147	3.0
58.162	4.0
58.177	0.0
58.192	0.0
58.207	6.0
58.222	8.0
58.237	6.0
58.252	3.0
58.267	3.0
58.282	8.0
58.297	5.0
58.312	2.0
58.327	4.0
58.342	1.0
58.357	6.0
58.372	6.0
58.387	3.0
58.402	9.0
58.418	3.0
58.433	3.0
58.448	4.0
58.463	5.0
58.478	5.0
58.493	2.0
58.508	3.0
58.523	3.0
58.538	9.0
58.553	4.0
58.568	9.0
58.583	6.0
58.598	10.0
58.613	3.0
58.628	7.0
58.643	9.0
58.658	14.0
58.673	7.0
58.688	11.0
58.703	7.0
58.718	6.0
58.733	5.0
58.748	6.0
58.763	1.0
58.778	9.0
58.793	2.0
58.808	10.0
58.823	5.0
58.838	3.0
58.853	6.0
58.868	6.0
58.883	9.0
58.898	2.0
58.913	4.0
58.928	10.0
58.942	5.0
58.957	7.0
58.972	4.0
58.987	7.0
59.002	5.0
59.017	8.0
59.032	5.0
59.047	9.0
59.062	7.0
59.077	4.0
59.092	5.0
59.107	8.0
59.122	6.0
59.137	4.0
59.152	5.0
59.167	1.0
59.182	6.0
59.197	6.0
59.212	5.0
59.227	3.0
59.242	5.0
59.257	4.0
59.272	3.0
59.287	4.0
59.302	4.0
59.317	4.0
59.332	2.0
59.347	6.0
59.362	4.0
59.377	2.0
59.392	3.0
59.407	3.0
59.422	4.0
59.437	3.0
59.452	3.0
59.467	3.0
59.482	5.0
59.497	3.0
59.512	6.0
59.527	5.0
59.542	6.0
59.557	5.0
59.572	13.0
59.587	3.0
59.602	7.0
59.617	12.0
59.632	6.0
59.647	8.0
59.661	9.0
59.676	3.0
59.691	4.0
59.706	5.0
59.721	6.0
59.736	7.0
59.751	2.0
59.766	6.0
59.781	4.0
59.796	6.0
59.811	3.0
59.826	1.0
59.841	1.0
59.856	1.0
59.871	5.0
59.886	1.0
59.901	6.0
59.916	8.0
59.931	5.0
59.946	5.0
59.961	7.0
59.976	4.0
59.991	4.0
60.006	6.0
60.021	17.0
60.036	7.0
60.051	6.0
60.066	6.0
60.081	5.0
60.096	4.0
60.111	3.0
60.126	5.0
60.141	7.0
60.156	2.0
60.171	8.0
60.186	6.0
60.201	3.0
60.216	2.0
60.231	5.0
60.246	3.0
60.261	7.0
60.276	3.0
60.291	6.0
60.306	1.0
60.321	5.0
60.336	2.0
60.35	3.0
60.365	4.0
60.38	9.0
60.395	5.0
60.41	3.0
60.425	1.0
60.44	4.0
60.455	5.0
60.47	3.0
60.485	7.0
60.5	7.0
60.515	6.0
60.53	6.0
60.545	10.0
60.56	12.0
60.575	10.0
60.59	9.0
60.605	7.0
60.62	6.0
60.635	8.0
60.65	3.0
60.665	6.0
60.68	11.0
60.695	6.0
60.71	5.0
60.725	2.0
60.74	3.0
60.755	4.0
60.77	4.0
60.785	1.0
60.8	6.0
60.815	6.0
60.83	5.0
60.845	5.0
60.86	5.0
60.875	5.0
60.89	3.0
60.905	5.0
60.92	5.0
60.935	3.0
60.95	4.0
60.965	4.0
60.98	5.0
60.995	7.0
61.01	4.0
61.025	6.0
61.04	3.0
61.055	1.0
61.07	3.0
61.085	2.0
61.1	6.0
61.115	5.0
61.13	3.0
61.145	3.0
61.16	3.0
61.175	3.0
61.191	4.0
61.206	4.0
61.221	3.0
61.236	4.0
61.251	3.0
61.266	3.0
61.281	8.0
61.296	1.0
61.311	3.0
61.326	3.0
61.341	6.0
61.356	4.0
61.371	4.0
61.386	4.0
61.401	4.0
61.416	5.0
61.431	7.0
61.446	4.0
61.461	3.0
61.476	3.0
61.491	5.0
61.506	2.0
61.521	5.0
61.536	7.0
61.551	2.0
61.566	9.0
61.581	6.0
61.596	7.0
61.611	7.0
61.626	6.0
61.641	4.0
61.656	5.0
61.672	5.0
61.687	3.0
61.702	3.0
61.717	7.0
61.732	2.0
61.747	3.0
61.762	3.0
61.777	5.0
61.792	2.0
61.807	7.0
61.822	6.0
61.837	5.0
61.852	1.0
61.867	9.0
61.882	7.0
61.897	5.0
61.912	5.0
61.927	5.0
61.943	7.0
61.958	2.0
61.973	3.0
61.988	7.0
62.003	6.0
62.018	4.0
62.033	8.0
62.048	5.0
62.063	3.0
62.078	6.0
62.093	4.0
62.108	4.0
62.123	1.0
62.138	3.0
62.153	4.0
62.169	1.0
62.184	1.0
62.199	2.0
62.214	5.0
62.229	6.0
62.244	4.0
62.259	4.0
62.274	1.0
62.289	4.0
62.304	7.0
62.319	2.0
62.335	6.0
62.35	7.0
62.365	2.0
62.38	7.0
62.395	3.0
62.41	4.0
62.425	3.0
62.44	4.0
62.455	2.0
62.47	5.0
62.485	2.0
62.501	2.0
62.516	2.0
62.531	5.0
62.546	3.0
62.561	1.0
62.576	2.0
62.591	6.0
62.606	2.0
62.621	3.0
62.636	5.0
62.652	2.0
62.667	4.0
62.682	1.0
62.697	3.0
62.712	3.0
62.727	2.0
62.742	6.0
62.757	3.0
62.772	4.0
62.787	2.0
62.803	4.0
62.818	0.0
62.833	4.0
62.848	3.0
62.863	5.0
62.878	4.0
62.893	8.0
62.908	4.0
62.923	5.0
62.939	3.0
62.954	2.0
62.969	5.0
62.984	3.0
62.999	5.0
63.014	3.0
63.029	5.0
63.044	5.0
63.059	1.0
63.074	5.0
63.09	1.0
63.105	4.0
63.12	3.0
63.135	3.0
63.15	7.0
63.165	3.0
63.18	8.0
63.195	7.0
63.21	2.0
63.226	9.0
63.241	4.0
63.256	6.0
63.271	4.0
63.286	7.0
63.301	8.0
63.316	9.0
63.331	4.0
63.346	5.0
63.362	4.0
63.377	8.0
63.392	5.0
63.407	8.0
63.422	5.0
63.437	4.0
63.452	5.0
63.467	8.0
63.482	3.0
63.497	8.0
63.513	3.0
63.528	6.0
63.543	5.0
63.558	5.0
63.573	0.0
63.588	10.0
63.603	1.0
63.618	5.0
63.633	2.0
63.648	4.0
63.664	3.0
63.679	3.0
63.694	4.0
63.709	4.0
63.724	4.0
63.739	3.0
63.754	2.0
63.769	2.0
63.784	5.0
63.799	7.0
63.814	6.0
63.83	2.0
63.845	7.0
63.86	3.0
63.875	3.0
63.89	3.0
63.905	5.0
63.92	4.0
63.935	4.0
63.95	2.0
63.965	5.0
63.98	3.0
63.996	3.0
64.011	2.0
64.026	2.0
64.041	1.0
64.056	4.0
64.071	4.0
64.086	6.0
64.101	5.0
64.116	0.0
64.131	4.0
64.146	4.0
64.161	4.0
64.176	8.0
64.191	1.0
64.207	3.0
64.222	3.0
64.237	2.0
64.252	2.0
64.267	8.0
64.282	3.0
64.297	4.0
64.312	2.0
64.327	4.0
64.342	5.0
64.357	3.0
64.372	3.0
64.387	2.0
64.402	3.0
64.417	3.0
64.433	3.0
64.448	5.0
64.463	3.0
64.478	1.0
64.493	5.0
64.508	3.0
64.523	0.0
64.538	3.0
64.553	6.0
64.568	4.0
64.583	5.0
64.598	3.0
64.613	4.0
64.628	3.0
64.643	6.0
64.658	2.0
64.673	2.0
64.688	3.0
64.703	3.0
64.718	3.0
64.734	3.0
64.749	5.0
64.764	1.0
64.779	6.0
64.794	2.0
64.809	4.0
64.824	2.0
64.839	5.0
64.854	5.0
64.869	3.0
64.884	2.0
64.899	4.0
64.914	1.0
64.929	2.0
64.944	1.0
64.959	6.0
64.974	2.0
64.989	5.0
65.004	2.0
65.019	5.0
65.034	4.0
65.049	7.0
65.064	4.0
65.079	3.0
65.094	4.0
65.109	3.0
65.125	2.0
65.14	0.0
65.155	4.0
65.17	4.0
65.185	6.0
65.2	7.0
65.215	6.0
65.23	8.0
65.245	4.0
65.26	5.0
65.275	2.0
65.29	2.0
65.305	7.0
65.32	5.0
65.335	2.0
65.35	4.0
65.365	0.0
65.38	5.0
65.395	1.0
65.41	7.0
65.425	4.0
65.44	3.0
65.455	1.0
65.47	3.0
65.485	3.0
65.5	4.0
65.515	8.0
65.53	11.0
65.545	5.0
65.56	2.0
65.575	3.0
65.59	6.0
65.605	4.0
65.62	3.0
65.635	6.0
65.65	4.0
65.666	4.0
65.681	5.0
65.696	0.0
65.711	3.0
65.726	5.0
65.741	6.0
65.756	4.0
65.771	4.0
65.786	3.0
65.801	8.0
65.816	2.0
65.831	0.0
65.846	2.0
65.861	2.0
65.876	4.0
65.891	2.0
65.906	6.0
65.921	6.0
65.936	2.0
65.951	6.0
65.966	5.0
65.981	4.0
65.996	8.0
66.011	4.0
66.026	4.0
66.041	4.0
66.056	2.0
66.071	3.0
66.086	8.0
66.101	7.0
66.116	5.0
66.131	4.0
66.146	6.0
66.161	5.0
66.176	9.0
66.191	7.0
66.206	1.0
66.221	7.0
66.236	8.0
66.251	6.0
66.266	4.0
66.281	4.0
66.296	7.0
66.311	0.0
66.327	5.0
66.342	7.0
66.357	3.0
66.372	4.0
66.387	3.0
66.402	3.0
66.417	2.0
66.432	3.0
66.447	0.0
66.462	1.0
66.477	3.0
66.492	1.0
66.507	2.0
66.522	4.0
66.537	5.0
66.552	3.0
66.567	5.0
66.582	4.0
66.597	2.0
66.612	8.0
66.627	5.0
66.642	6.0
66.657	4.0
66.672	5.0
66.687	5.0
66.702	5.0
66.717	3.0
66.732	8.0
66.747	4.0
66.762	5.0
66.777	2.0
66.792	3.0
66.807	6.0
66.822	2.0
66.837	5.0
66.853	1.0
66.868	3.0
66.883	4.0
66.898	5.0
66.913	2.0
66.928	3.0
66.943	2.0
66.958	7.0
66.973	6.0
66.988	4.0
67.003	2.0
67.018	2.0
67.033	5.0
67.048	2.0
67.063	7.0
67.078	2.0
67.093	2.0
67.108	5.0
67.123	5.0
67.138	5.0
67.153	4.0
67.168	2.0
67.183	4.0
67.198	0.0
67.214	3.0
67.229	1.0
67.244	5.0
67.259	3.0
67.274	3.0
67.289	1.0
67.304	4.0
67.319	5.0
67.334	3.0
67.349	3.0
67.364	3.0
67.379	5.0
67.394	3.0
67.409	4.0
67.424	6.0
67.439	4.0
67.454	4.0
67.469	4.0
67.484	3.0
67.5	2.0
67.515	6.0
67.53	4.0
67.545	5.0
67.56	10.0
67.575	3.0
67.59	4.0
67.605	9.0
67.62	2.0
67.635	5.0
67.65	6.0
67.665	6.0
67.68	3.0
67.695	4.0
67.71	6.0
67.726	4.0
67.741	4.0
67.756	2.0
67.771	5.0
67.786	3.0
67.801	4.0
67.816	5.0
67.831	2.0
67.846	3.0
67.861	3.0
67.876	4.0
67.891	5.0
67.906	2.0
67.922	5.0
67.937	8.0
67.952	2.0
67.967	1.0
67.982	6.0
67.997	4.0
68.012	8.0
68.027	3.0
68.042	10.0
68.057	2.0
68.072	5.0
68.087	1.0
68.103	7.0
68.118	3.0
68.133	4.0
68.148	3.0
68.163	2.0
68.178	3.0
68.193	5.0
68.208	4.0
68.223	1.0
68.238	2.0
68.254	2.0
68.269	4.0
68.284	3.0
68.299	1.0
68.314	3.0
68.329	3.0
68.344	2.0
68.359	2.0
68.374	5.0
68.389	0.0
68.405	3.0
68.42	3.0
68.435	4.0
68.45	6.0
68.465	6.0
68.48	3.0
68.495	4.0
68.51	2.0
68.525	2.0
68.54	3.0
68.556	3.0
68.571	2.0
68.586	5.0
68.601	1.0
68.616	8.0
68.631	3.0
68.646	7.0
68.661	2.0
68.676	6.0
68.691	2.0
68.707	5.0
68.722	9.0
68.737	5.0
68.752	2.0
68.767	1.0
68.782	8.0
68.797	4.0
68.812	3.0
68.827	4.0
68.842	8.0
68.857	6.0
68.873	0.0
68.888	2.0
68.903	8.0
68.918	7.0
68.933	5.0
68.948	2.0
68.963	2.0
68.978	7.0
68.993	2.0
69.008	2.0
69.023	5.0
69.038	2.0
69.054	2.0
69.069	3.0
69.084	3.0
69.099	2.0
69.114	3.0
69.129	4.0
69.144	1.0
69.159	1.0
69.174	6.0
69.189	3.0
69.204	6.0
69.219	3.0
69.234	2.0
69.249	4.0
69.264	3.0
69.279	2.0
69.295	4.0
69.31	5.0
69.325	4.0
69.34	7.0
69.355	3.0
69.37	5.0
69.385	1.0
69.4	4.0
69.415	9.0
69.43	4.0
69.445	4.0
69.46	3.0
69.475	2.0
69.49	6.0
69.505	2.0
69.52	2.0
69.535	6.0
69.55	0.0
69.565	3.0
69.58	4.0
69.595	1.0
69.61	3.0
69.625	4.0
69.64	3.0
69.655	4.0
69.67	6.0
69.685	5.0
69.7	5.0
69.715	6.0
69.73	6.0
69.745	6.0
69.76	6.0
69.775	6.0
69.79	4.0
69.805	5.0
69.82	1.0
69.835	6.0
69.85	3.0
69.865	7.0
69.88	7.0
69.895	2.0
69.909	6.0
69.924	4.0
69.939	6.0
69.954	3.0
69.969	4.0
69.984	4.0
69.999	5.0
70.014	6.0
70.029	3.0
70.044	9.0
70.059	4.0
70.074	2.0
70.088	3.0
70.103	3.0
70.118	3.0
70.133	6.0
70.148	7.0
70.163	7.0
70.178	3.0
70.193	4.0
70.208	4.0
70.222	6.0
70.237	4.0
70.252	3.0
70.267	4.0
70.282	1.0
70.297	6.0
70.312	5.0
70.327	5.0
70.341	3.0
70.356	3.0
70.371	2.0
70.386	4.0
70.401	3.0
70.416	4.0
70.43	3.0
70.445	1.0
70.46	6.0
70.475	3.0
70.49	2.0
70.505	3.0
70.519	6.0
70.534	6.0
70.549	6.0
70.564	6.0
70.579	4.0
70.594	5.0
70.608	4.0
70.623	1.0
70.638	7.0
70.653	2.0
70.668	5.0
70.683	9.0
70.697	7.0
70.712	9.0
70.727	5.0
70.742	9.0
70.757	5.0
70.771	5.0
70.786	7.0
70.801	4.0
70.816	3.0
70.831	1.0
70.845	6.0
70.86	5.0
70.875	4.0
70.89	1.0
70.905	6.0
70.92	2.0
70.934	4.0
70.949	5.0
70.964	3.0
70.979	2.0
70.994	2.0
71.008	6.0
71.023	7.0
71.038	4.0
71.053	5.0
71.068	2.0
71.082	6.0
71.097	4.0
71.112	5.0
71.127	3.0
71.142	3.0
71.156	2.0
71.171	6.0
71.186	3.0
71.201	7.0
71.216	5.0
71.231	6.0
71.245	7.0
71.26	6.0
71.275	5.0
71.29	5.0
71.305	3.0
71.319	4.0
71.334	3.0
71.349	8.0
71.364	2.0
71.379	3.0
71.394	3.0
71.408	5.0
71.423	2.0
71.438	5.0
71.453	1.0
71.468	0.0
71.483	0.0
71.497	1.0
71.512	3.0
71.527	1.0
71.542	2.0
71.557	7.0
71.572	6.0
71.586	5.0
71.601	5.0
71.616	0.0
71.631	4.0
71.646	2.0
71.661	6.0
71.676	1.0
71.69	5.0
71.705	4.0
71.72	3.0
71.735	6.0
71.75	4.0
71.765	4.0
71.78	4.0
71.795	3.0
71.81	1.0
71.824	5.0
71.839	2.0
71.854	3.0
71.869	2.0
71.884	3.0
71.899	4.0
71.914	9.0
71.929	3.0
71.944	2.0
71.959	5.0
71.974	5.0
71.988	2.0
72.003	1.0
72.018	5.0
72.033	4.0
72.048	4.0
72.063	4.0
72.078	1.0
72.093	1.0
72.108	4.0
72.123	5.0
72.138	0.0
72.153	2.0
72.168	1.0
72.183	1.0
72.198	2.0
72.213	2.0
72.228	4.0
72.243	1.0
72.258	6.0
72.273	4.0
72.288	2.0
72.303	3.0
72.318	1.0
72.333	0.0
72.348	1.0
72.363	4.0
72.378	2.0
72.393	3.0
72.408	2.0
72.423	1.0
72.438	1.0
72.453	5.0
72.468	4.0
72.483	2.0
72.498	1.0
72.513	2.0
72.528	4.0
72.543	5.0
72.558	2.0
72.573	6.0
72.588	5.0
72.603	2.0
72.618	2.0
72.633	3.0
72.649	3.0
72.664	4.0
72.679	5.0
72.694	0.0
72.709	4.0
72.724	2.0
72.739	1.0
72.754	4.0
72.769	5.0
72.784	3.0
72.799	8.0
72.814	7.0
72.829	3.0
72.845	5.0
72.86	3.0
72.875	5.0
72.89	1.0
72.905	3.0
72.92	7.0
72.935	3.0
72.95	3.0
72.965	5.0
72.98	5.0
72.996	1.0
73.011	2.0
73.026	4.0
73.041	3.0
73.056	2.0
73.071	2.0
73.086	5.0
73.101	4.0
73.117	3.0
73.132	3.0
73.147	1.0
73.162	4.0
73.177	2.0
73.192	5.0
73.207	2.0
73.222	1.0
73.238	4.0
73.253	1.0
73.268	4.0
73.283	4.0
73.298	3.0
73.313	2.0
73.328	3.0
73.343	3.0
73.359	7.0
73.374	3.0
73.389	4.0
73.404	2.0
73.419	3.0
73.434	5.0
73.449	5.0
73.465	2.0
73.48	5.0
73.495	3.0
73.51	3.0
73.525	0.0
73.54	2.0
73.556	1.0
73.571	2.0
73.586	3.0
73.601	3.0
73.616	3.0
73.631	1.0
73.646	4.0
73.662	6.0
73.677	2.0
73.692	3.0
73.707	4.0
73.722	2.0
73.737	5.0
73.752	3.0
73.768	1.0
73.783	1.0
73.798	5.0
73.813	8.0
73.828	1.0
73.843	4.0
73.859	4.0
73.874	6.0
73.889	1.0
73.904	3.0
73.919	3.0
73.934	5.0
73.949	3.0
73.965	5.0
73.98	4.0
73.995	2.0
74.01	3.0
74.025	6.0
74.04	5.0
74.056	4.0
74.071	5.0
74.086	7.0
74.101	4.0
74.116	6.0
74.131	3.0
74.146	6.0
74.162	7.0
74.177	3.0
74.192	4.0
74.207	3.0
74.222	6.0
74.237	3.0
74.252	4.0
74.268	3.0
74.283	2.0
74.298	3.0
74.313	2.0
74.328	0.0
74.343	3.0
74.358	0.0
74.374	2.0
74.389	6.0
74.404	2.0
74.419	4.0
74.434	1.0
74.449	4.0
74.464	4.0
74.48	0.0
74.495	3.0
74.51	2.0
74.525	3.0
74.54	3.0
74.555	4.0
74.57	2.0
74.586	1.0
74.601	2.0
74.616	2.0
74.631	4.0
74.646	6.0
74.661	4.0
74.676	3.0
74.691	1.0
74.707	6.0
74.722	1.0
74.737	9.0
74.752	5.0
74.767	4.0
74.782	3.0
74.797	2.0
74.813	5.0
74.828	4.0
74.843	3.0
74.858	3.0
74.873	4.0
74.888	4.0
74.903	4.0
74.918	3.0
74.934	3.0
74.949	5.0
74.964	5.0
74.979	5.0
74.994	8.0
75.009	8.0
75.024	5.0
75.04	8.0
75.055	5.0
75.07	6.0
75.085	4.0
75.1	2.0
75.115	3.0
75.13	1.0
75.145	5.0
75.161	1.0
75.176	2.0
75.191	3.0
75.206	6.0
75.221	7.0
75.236	2.0
75.251	5.0
75.266	4.0
75.282	0.0
75.297	3.0
75.312	2.0
75.327	1.0
75.342	1.0
75.357	7.0
75.372	4.0
75.387	4.0
75.403	2.0
75.418	8.0
75.433	3.0
75.448	1.0
75.463	4.0
75.478	5.0
75.493	5.0
75.509	0.0
75.524	1.0
75.539	4.0
75.554	4.0
75.569	2.0
75.584	8.0
75.599	5.0
75.614	6.0
75.63	2.0
75.645	2.0
75.66	1.0
75.675	5.0
75.69	3.0
75.705	9.0
75.72	1.0
75.735	1.0
75.751	6.0
75.766	1.0
75.781	3.0
75.796	3.0
75.811	7.0
75.826	4.0
75.841	2.0
75.856	3.0
75.872	4.0
75.887	6.0
75.902	1.0
75.917	3.0
75.932	2.0
75.947	2.0
75.962	5.0
75.977	0.0
75.993	4.0
76.008	4.0
76.023	3.0
76.038	2.0
76.053	4.0
76.068	5.0
76.083	2.0
76.098	7.0
76.114	3.0
76.129	4.0
76.144	1.0
76.159	4.0
76.174	5.0
76.189	3.0
76.204	0.0
76.22	3.0
76.235	5.0
76.25	4.0
76.265	2.0
76.28	2.0
76.295	6.0
76.31	3.0
76.325	2.0
76.341	4.0
76.356	5.0
76.371	4.0
76.386	4.0
76.401	4.0
76.416	2.0
76.431	2.0
76.446	1.0
76.462	2.0
76.477	2.0
76.492	5.0
76.507	2.0
76.522	0.0
76.537	1.0
76.552	6.0
76.567	3.0
76.583	4.0
76.598	3.0
76.613	3.0
76.628	1.0
76.643	2.0
76.658	2.0
76.673	5.0
76.688	5.0
76.704	5.0
76.719	3.0
76.734	6.0
76.749	6.0
76.764	6.0
76.779	4.0
76.794	7.0
76.809	4.0
76.824	4.0
76.84	7.0
76.855	3.0
76.87	2.0
76.885	0.0
76.9	5.0
76.915	2.0
76.93	3.0
76.945	2.0
76.96	2.0
76.976	5.0
76.991	3.0
77.006	3.0
77.021	0.0
77.036	3.0
77.051	2.0
77.066	2.0
77.081	1.0
77.096	5.0
77.112	2.0
77.127	2.0
77.142	3.0
77.157	3.0
77.172	4.0
77.187	2.0
77.202	6.0
77.217	1.0
77.232	2.0
77.247	5.0
77.263	2.0
77.278	2.0
77.293	1.0
77.308	2.0
77.323	1.0
77.338	5.0
77.353	4.0
77.368	4.0
77.383	1.0
77.398	3.0
77.413	4.0
77.428	3.0
77.444	4.0
77.459	2.0
77.474	1.0
77.489	2.0
77.504	7.0
77.519	5.0
77.534	3.0
77.549	4.0
77.564	8.0
77.579	1.0
77.594	2.0
77.609	10.0
77.624	4.0
77.64	6.0
77.655	6.0
77.67	7.0
77.685	7.0
77.7	4.0
77.715	4.0
77.73	4.0
77.745	5.0
77.76	4.0
77.775	2.0
77.79	2.0
77.805	4.0
77.82	2.0
77.835	1.0
77.85	3.0
77.865	2.0
77.88	6.0
77.895	2.0
77.91	2.0
77.926	5.0
77.941	1.0
77.956	2.0
77.971	3.0
77.986	1.0
78.001	4.0
78.016	1.0
78.031	3.0
78.046	1.0
78.061	2.0
78.076	5.0
78.091	4.0
78.106	2.0
78.121	7.0
78.136	5.0
78.151	3.0
78.166	3.0
78.181	1.0
78.196	5.0
78.211	4.0
78.226	2.0
78.241	3.0
78.256	2.0
78.271	1.0
78.286	3.0
78.301	4.0
78.316	1.0
78.331	6.0
78.346	3.0
78.361	5.0
78.376	7.0
78.391	3.0
78.406	1.0
78.421	1.0
78.436	4.0
78.451	1.0
78.466	2.0
78.481	5.0
78.496	3.0
78.511	2.0
78.526	3.0
78.541	3.0
78.556	3.0
78.571	2.0
78.586	1.0
78.601	2.0
78.616	4.0
78.631	0.0
78.646	4.0
78.661	4.0
78.676	5.0
78.691	1.0
78.706	7.0
78.721	1.0
78.736	2.0
78.751	3.0
78.766	1.0
78.781	1.0
78.796	0.0
78.811	0.0
78.826	4.0
78.841	2.0
78.856	4.0
78.871	7.0
78.885	7.0
78.9	2.0
78.915	2.0
78.93	2.0
78.945	6.0
78.96	4.0
78.975	2.0
78.99	2.0
79.005	4.0
79.02	2.0
79.035	4.0
79.05	1.0
79.065	6.0
79.08	5.0
79.095	0.0
79.11	1.0
79.125	3.0
79.14	2.0
79.155	3.0
79.17	1.0
79.185	3.0
79.2	2.0
79.215	5.0
79.23	4.0
79.245	4.0
79.26	1.0
79.275	3.0
79.29	2.0
79.304	4.0
79.319	6.0
79.334	3.0
79.349	5.0
79.364	6.0
79.379	4.0
79.394	7.0
79.409	7.0
79.424	6.0
79.439	2.0
79.454	7.0
79.469	1.0
79.484	2.0
79.499	3.0
79.514	4.0
79.529	2.0
79.544	5.0
79.559	5.0
79.574	2.0
79.589	2.0
79.604	4.0
79.619	1.0
79.634	0.0
79.649	5.0
79.664	4.0
79.679	1.0
79.693	1.0
79.708	0.0
79.723	5.0
79.738	2.0
79.753	0.0
79.768	1.0
79.783	4.0
79.798	9.0
79.813	0.0
79.828	1.0
79.843	4.0
79.858	2.0
79.873	4.0
79.888	1.0
79.903	1.0
79.918	5.0
79.933	3.0
79.948	2.0
79.963	1.0
79.978	5.0
79.993	4.0
80.008	4.0
80.023	7.0
80.038	5.0
80.053	2.0
80.068	2.0
80.083	2.0
80.098	1.0
80.113	5.0
80.128	3.0
80.143	3.0
80.158	1.0
80.173	2.0
80.188	1.0
80.202	4.0
80.217	3.0
80.232	3.0
80.247	5.0
80.262	7.0
80.277	3.0
80.292	1.0
80.307	2.0
80.322	3.0
80.337	1.0
80.352	1.0
80.367	1.0
80.382	2.0
80.397	3.0
80.412	5.0
80.427	3.0
80.442	3.0
80.457	3.0
80.472	3.0
80.487	2.0
80.502	3.0
80.517	1.0
80.532	2.0
80.547	4.0
80.562	2.0
80.577	1.0
80.592	3.0
80.607	8.0
80.622	2.0
80.637	4.0
80.652	9.0
80.667	5.0
80.682	2.0
80.697	6.0
80.712	2.0
80.727	3.0
80.742	5.0
80.757	2.0
80.772	0.0
80.787	2.0
80.802	1.0
80.817	2.0
80.832	7.0
80.847	1.0
80.862	2.0
80.877	3.0
80.892	4.0
80.907	1.0
80.922	0.0
80.937	2.0
80.952	4.0
80.967	2.0
80.982	2.0
80.997	6.0
81.012	4.0
81.027	5.0
81.042	2.0
81.057	4.0
81.072	3.0
81.087	3.0
81.101	1.0
81.116	1.0
81.131	1.0
81.146	6.0
81.161	4.0
81.176	0.0
81.191	1.0
81.206	0.0
81.221	3.0
81.236	2.0
81.251	1.0
81.266	2.0
81.281	4.0
81.296	6.0
81.311	4.0
81.326	4.0
81.341	1.0
81.356	1.0
81.371	4.0
81.386	0.0
81.401	6.0
81.416	2.0
81.431	2.0
81.446	4.0
81.461	0.0
81.476	2.0
81.491	2.0
81.506	2.0
81.521	2.0
81.536	2.0
81.55	4.0
81.565	4.0
81.58	1.0
81.595	6.0
81.61	4.0
81.625	3.0
81.64	0.0
81.655	2.0
81.67	6.0
81.685	2.0
81.7	1.0
81.715	4.0
81.73	0.0
81.745	4.0
81.76	0.0
81.775	5.0
81.79	2.0
81.805	0.0
81.819	2.0
81.834	4.0
81.849	2.0
81.864	2.0
81.879	3.0
81.894	2.0
81.909	5.0
81.924	3.0
81.939	2.0
81.954	3.0
81.969	1.0
81.984	5.0
81.999	4.0
82.013	1.0
82.028	2.0
82.043	3.0
82.058	2.0
82.073	2.0
82.088	5.0
82.103	4.0
82.118	4.0
82.133	1.0
82.148	2.0
82.163	3.0
82.177	1.0
82.192	2.0
82.207	3.0
82.222	2.0
82.237	1.0
82.252	5.0
82.267	1.0
82.282	2.0
82.297	1.0
82.312	3.0
82.326	0.0
82.341	2.0
82.356	6.0
82.371	3.0
82.386	6.0
82.401	4.0
82.416	1.0
82.431	5.0
82.445	5.0
82.46	2.0
82.475	7.0
82.49	1.0
82.505	4.0
82.52	0.0
82.535	4.0
82.55	5.0
82.565	3.0
82.579	4.0
82.594	3.0
82.609	0.0
82.624	4.0
82.639	0.0
82.654	4.0
82.669	2.0
82.684	1.0
82.698	3.0
82.713	4.0
82.728	5.0
82.743	7.0
82.758	0.0
82.773	4.0
82.788	2.0
82.803	5.0
82.817	3.0
82.832	4.0
82.847	2.0
82.862	2.0
82.877	5.0
82.892	3.0
82.907	3.0
82.922	3.0
82.937	1.0
82.951	2.0
82.966	2.0
82.981	4.0
82.996	3.0
83.011	3.0
83.026	3.0
83.041	2.0
83.056	2.0
83.07	2.0
83.085	4.0
83.1	0.0
83.115	4.0
83.13	4.0
83.145	5.0
83.16	6.0
83.175	5.0
83.19	3.0
83.204	2.0
83.219	1.0
83.234	0.0
83.249	1.0
83.264	3.0
83.279	3.0
83.294	1.0
83.309	3.0
83.324	2.0
83.339	7.0
83.353	4.0
83.368	3.0
83.383	2.0
83.398	4.0
83.413	1.0
83.428	3.0
83.443	5.0
83.458	3.0
83.473	4.0
83.488	4.0
83.503	1.0
83.517	4.0
83.532	2.0
83.547	4.0
83.562	1.0
83.577	4.0
83.592	4.0
83.607	6.0
83.622	4.0
83.637	3.0
83.652	2.0
83.667	2.0
83.682	6.0
83.697	2.0
83.712	0.0
83.727	1.0
83.741	3.0
83.756	3.0
83.771	1.0
83.786	4.0
83.801	3.0
83.816	6.0
83.831	2.0
83.846	1.0
83.861	3.0
83.876	10.0
83.891	3.0
83.906	3.0
83.921	5.0
83.936	3.0
83.951	3.0
83.966	1.0
83.981	4.0
83.996	3.0
84.011	2.0
84.026	1.0
84.041	4.0
84.056	4.0
84.071	1.0
84.086	3.0
84.101	4.0
84.116	4.0
84.131	6.0
84.146	2.0
84.161	3.0
84.176	1.0
84.191	4.0
84.206	3.0
84.221	1.0
84.236	3.0
84.251	4.0
84.266	1.0
84.281	4.0
84.296	3.0
84.311	7.0
84.326	7.0
84.341	3.0
84.356	7.0
84.371	2.0
84.386	3.0
84.401	5.0
84.416	1.0
84.431	8.0
84.446	2.0
84.461	4.0
84.476	3.0
84.492	4.0
84.507	4.0
84.522	2.0
84.537	2.0
84.552	1.0
84.567	4.0
84.582	4.0
84.597	2.0
84.612	3.0
84.627	2.0
84.642	4.0
84.657	2.0
84.672	5.0
84.687	3.0
84.702	3.0
84.717	2.0
84.733	2.0
84.748	2.0
84.763	1.0
84.778	2.0
84.793	0.0
84.808	3.0
84.823	1.0
84.838	4.0
84.853	7.0
84.868	3.0
84.883	10.0
84.898	4.0
84.913	2.0
84.929	5.0
84.944	3.0
84.959	3.0
84.974	6.0
84.989	1.0
85.004	4.0
85.019	4.0
85.034	0.0
85.049	4.0
85.064	1.0
85.079	4.0
85.094	3.0
85.11	0.0
85.125	1.0
85.14	3.0
85.155	2.0
85.17	2.0
85.185	2.0
85.2	3.0
85.215	4.0
85.23	3.0
85.245	6.0
85.26	4.0
85.276	6.0
85.291	2.0
85.306	0.0
85.321	1.0
85.336	2.0
85.351	2.0
85.366	0.0
85.381	3.0
85.396	2.0
85.411	4.0
85.426	2.0
85.441	6.0
85.457	3.0
85.472	2.0
85.487	2.0
85.502	4.0
85.517	5.0
85.532	4.0
85.547	4.0
85.562	5.0
85.577	5.0
85.592	0.0
85.607	3.0
85.622	4.0
85.637	3.0
85.653	2.0
85.668	1.0
85.683	8.0
85.698	4.0
85.713	4.0
85.728	3.0
85.743	1.0
85.758	2.0
85.773	5.0
85.788	2.0
85.803	2.0
85.818	2.0
85.833	3.0
85.848	4.0
85.863	2.0
85.879	2.0
85.894	1.0
85.909	2.0
85.924	2.0
85.939	2.0
85.954	1.0
85.969	2.0
85.984	1.0
85.999	2.0
86.014	3.0
86.029	2.0
86.044	1.0
86.059	5.0
86.074	2.0
86.089	2.0
86.104	1.0
86.119	5.0
86.134	5.0
86.149	3.0
86.164	1.0
86.179	1.0
86.194	3.0
86.209	1.0
86.224	0.0
86.239	0.0
86.254	3.0
86.269	1.0
86.284	5.0
86.299	2.0
86.314	2.0
86.33	2.0
86.345	4.0
86.36	4.0
86.375	3.0
86.39	3.0
86.405	1.0
86.42	1.0
86.435	3.0
86.45	4.0
86.465	5.0
86.48	3.0
86.495	2.0
86.51	3.0
86.525	3.0
86.54	3.0
86.555	3.0
86.57	2.0
86.585	2.0
86.6	3.0
86.615	1.0
86.63	2.0
86.645	4.0
86.659	3.0
86.674	5.0
86.689	4.0
86.704	3.0
86.719	4.0
86.734	0.0
86.749	5.0
86.764	5.0
86.779	6.0
86.794	1.0
86.809	3.0
86.824	4.0
86.839	3.0
86.854	7.0
86.869	1.0
86.884	2.0
86.899	5.0
86.914	4.0
86.929	3.0
86.944	6.0
86.959	4.0
86.974	3.0
86.989	4.0
87.004	3.0
87.019	2.0
87.034	2.0
87.049	6.0
87.064	6.0
87.079	2.0
87.094	5.0
87.109	5.0
87.124	2.0
87.139	6.0
87.154	3.0
87.169	3.0
87.184	4.0
87.199	3.0
87.214	4.0
87.229	4.0
87.244	0.0
87.259	4.0
87.274	3.0
87.289	2.0
87.304	0.0
87.319	2.0
87.334	4.0
87.349	5.0
87.364	1.0
87.379	1.0
87.394	1.0
87.409	1.0
87.424	3.0
87.438	2.0
87.453	2.0
87.468	0.0
87.483	2.0
87.498	2.0
87.513	6.0
87.528	5.0
87.543	8.0
87.558	3.0
87.573	4.0
87.588	0.0
87.603	2.0
87.618	4.0
87.633	6.0
87.648	4.0
87.663	2.0
87.678	2.0
87.693	2.0
87.708	8.0
87.723	7.0
87.738	5.0
87.753	2.0
87.768	4.0
87.783	7.0
87.798	2.0
87.813	2.0
87.828	4.0
87.843	5.0
87.858	4.0
87.873	5.0
87.888	0.0
87.903	6.0
87.918	3.0
87.933	3.0
87.948	3.0
87.963	2.0
87.978	5.0
87.993	2.0
88.008	4.0
88.023	6.0
88.038	2.0
88.053	4.0
88.068	2.0
88.083	2.0
88.098	2.0
88.113	1.0
88.128	7.0
88.143	8.0
88.158	3.0
88.174	2.0
88.189	2.0
88.204	2.0
88.219	7.0
88.234	3.0
88.249	2.0
88.264	5.0
88.279	5.0
88.294	5.0
88.309	3.0
88.324	5.0
88.339	6.0
88.354	7.0
88.369	1.0
88.384	3.0
88.399	2.0
88.414	4.0
88.429	4.0
88.444	6.0
88.459	0.0
88.474	1.0
88.489	6.0
88.504	2.0
88.519	3.0
88.534	2.0
88.549	4.0
88.564	4.0
88.58	1.0
88.595	3.0
88.61	2.0
88.625	2.0
88.64	4.0
88.655	1.0
88.67	0.0
88.685	1.0
88.7	7.0
88.715	1.0
88.73	5.0
88.745	2.0
88.76	3.0
88.775	0.0
88.79	2.0
88.805	3.0
88.82	4.0
88.835	1.0
88.85	2.0
88.865	2.0
88.88	2.0
88.895	3.0
88.911	2.0
88.926	5.0
88.941	4.0
88.956	1.0
88.971	3.0
88.986	2.0
89.001	0.0
89.016	4.0
89.031	3.0
89.046	4.0
89.061	3.0
89.076	3.0
89.091	3.0
89.106	7.0
89.121	6.0
89.136	4.0
89.151	4.0
89.166	3.0
89.181	3.0
89.196	4.0
89.211	3.0
89.227	2.0
89.242	0.0
89.257	0.0
89.272	1.0
89.287	4.0
89.302	1.0
89.317	1.0
89.332	5.0
89.347	4.0
89.362	2.0
89.377	1.0
89.392	2.0
89.407	6.0
89.422	5.0
89.437	4.0
89.452	3.0
89.467	2.0
89.482	3.0
89.497	5.0
89.512	3.0
89.527	3.0
89.542	2.0
89.557	2.0
89.572	5.0
89.587	3.0
89.602	1.0
89.617	1.0
89.632	4.0
89.647	7.0
89.662	4.0
89.677	4.0
89.693	4.0
89.708	5.0
89.723	5.0
89.738	4.0
89.753	3.0
89.768	1.0
89.783	4.0
89.798	5.0
89.813	2.0
89.828	2.0
89.843	2.0
89.858	5.0
89.873	0.0
89.888	4.0
89.903	1.0
89.918	4.0
89.933	4.0
89.948	5.0
89.963	0.0
89.978	4.0
89.993	3.0
90.008	4.0
90.023	2.0
90.038	2.0
90.053	2.0
90.068	2.0
90.083	3.0
90.097	5.0
90.112	0.0
90.127	2.0
90.142	6.0
90.157	2.0
90.172	3.0
90.187	4.0
90.202	1.0
90.217	5.0
90.232	4.0
90.247	4.0
90.262	6.0
90.277	8.0
90.292	6.0
90.307	9.0
90.322	3.0
90.337	0.0
90.352	6.0
90.367	4.0
90.382	7.0
90.397	1.0
90.412	4.0
90.427	0.0
90.442	1.0
90.457	0.0
90.472	6.0
90.487	3.0
90.501	1.0
90.516	4.0
90.531	0.0
90.546	0.0
90.561	2.0
90.576	1.0
90.591	2.0
90.606	5.0
90.621	1.0
90.636	3.0
90.651	7.0
90.666	2.0
90.681	2.0
90.696	2.0
90.711	3.0
90.726	3.0
90.741	7.0
90.755	3.0
90.77	2.0
90.785	3.0
90.8	4.0
90.815	2.0
90.83	3.0
90.845	2.0
90.86	4.0
90.875	2.0
90.89	2.0
90.905	3.0
90.92	4.0
90.935	5.0
90.95	5.0
90.965	2.0
90.979	0.0
90.994	4.0
91.009	4.0
91.024	3.0
91.039	3.0
91.054	6.0
91.069	3.0
91.084	5.0
91.099	2.0
91.114	5.0
91.129	1.0
91.144	1.0
91.159	2.0
91.174	3.0
91.188	1.0
91.203	1.0
91.218	5.0
91.233	2.0
91.248	5.0
91.263	6.0
91.278	4.0
91.293	3.0
91.308	4.0
91.323	2.0
91.338	2.0
91.353	3.0
91.368	3.0
91.383	3.0
91.398	5.0
91.412	5.0
91.427	2.0
91.442	3.0
91.457	2.0
91.472	1.0
91.487	3.0
91.502	2.0
91.517	5.0
91.532	1.0
91.547	4.0
91.562	0.0
91.577	1.0
91.592	2.0
91.607	3.0
91.622	3.0
91.637	2.0
91.652	4.0
91.666	2.0
91.681	5.0
91.696	1.0
91.711	3.0
91.726	7.0
91.741	4.0
91.756	5.0
91.771	3.0
91.786	2.0
91.801	5.0
91.816	0.0
91.831	8.0
91.846	2.0
91.861	4.0
91.876	0.0
91.891	1.0
91.906	0.0
91.921	4.0
91.936	2.0
91.951	7.0
91.966	2.0
91.981	3.0
91.995	1.0
92.01	4.0
92.025	0.0
92.04	2.0
92.055	1.0
92.07	3.0
92.085	2.0
92.1	2.0
92.115	3.0
92.13	6.0
92.145	3.0
92.16	2.0
92.175	2.0
92.19	3.0
92.205	2.0
92.22	1.0
92.235	1.0
92.25	2.0
92.265	3.0
92.28	7.0
92.295	2.0
92.31	4.0
92.325	1.0
92.34	3.0
92.355	1.0
92.37	4.0
92.385	6.0
92.4	6.0
92.415	3.0
92.43	2.0
92.445	2.0
92.46	4.0
92.475	1.0
92.49	1.0
92.505	3.0
92.52	4.0
92.535	2.0
92.55	0.0
92.565	3.0
92.58	5.0
92.595	3.0
92.61	2.0
92.625	2.0
92.64	3.0
92.655	4.0
92.67	4.0
92.685	2.0
92.7	4.0
92.715	4.0
92.73	3.0
92.745	5.0
92.76	2.0
92.775	0.0
92.79	5.0
92.805	4.0
92.82	4.0
92.835	2.0
92.85	0.0
92.865	3.0
92.88	2.0
92.895	1.0
92.91	3.0
92.925	6.0
92.94	4.0
92.955	3.0
92.97	2.0
92.985	2.0
93.0	4.0
93.015	2.0
93.03	1.0
93.045	0.0
93.06	1.0
93.075	4.0
93.09	2.0
93.105	3.0
93.12	2.0
93.135	2.0
93.15	3.0
93.165	2.0
93.18	2.0
93.195	3.0
93.21	3.0
93.225	2.0
93.24	4.0
93.255	2.0
93.27	6.0
93.285	1.0
93.3	2.0
93.315	1.0
93.33	2.0
93.345	2.0
93.36	1.0
93.375	2.0
93.39	2.0
93.405	6.0
93.42	2.0
93.435	3.0
93.45	3.0
93.465	2.0
93.48	6.0
93.495	1.0
93.51	4.0
93.525	4.0
93.54	0.0
93.555	2.0
93.57	3.0
93.585	2.0
93.6	4.0
93.615	2.0
93.63	5.0
93.645	1.0
93.66	5.0
93.675	3.0
93.69	1.0
93.705	8.0
93.72	4.0
93.735	4.0
93.75	0.0
93.765	2.0
93.78	0.0
93.795	2.0
93.81	4.0
93.824	0.0
93.839	1.0
93.854	6.0
93.869	4.0
93.884	1.0
93.899	2.0
93.914	3.0
93.929	4.0
93.944	3.0
93.959	2.0
93.974	3.0
93.989	3.0
94.004	1.0
94.019	3.0
94.034	6.0
94.049	2.0
94.064	3.0
94.079	4.0
94.094	4.0
94.108	6.0
94.123	3.0
94.138	1.0
94.153	2.0
94.168	4.0
94.183	5.0
94.198	5.0
94.213	3.0
94.228	0.0
94.243	2.0
94.258	2.0
94.273	4.0
94.288	5.0
94.302	2.0
94.317	3.0
94.332	1.0
94.347	6.0
94.362	8.0
94.377	4.0
94.392	5.0
94.407	2.0
94.422	2.0
94.437	4.0
94.452	5.0
94.466	4.0
94.481	6.0
94.496	6.0
94.511	4.0
94.526	2.0
94.541	3.0
94.556	3.0
94.571	1.0
94.586	1.0
94.601	6.0
94.615	3.0
94.63	2.0
94.645	2.0
94.66	7.0
94.675	3.0
94.69	1.0
94.705	0.0
94.72	1.0
94.735	2.0
94.749	2.0
94.764	2.0
94.779	0.0
94.794	1.0
94.809	3.0
94.824	4.0
94.839	3.0
94.854	4.0
94.868	5.0
94.883	3.0
94.898	5.0
94.913	3.0
94.928	1.0
94.943	6.0
94.958	2.0
94.973	3.0
94.987	2.0
95.002	5.0
95.017	2.0
95.032	4.0
95.047	5.0
95.062	4.0
95.077	6.0
95.092	2.0
95.106	3.0
95.121	6.0
95.136	7.0
95.151	2.0
95.166	3.0
95.181	8.0
95.196	2.0
95.211	7.0
95.226	6.0
95.24	1.0
95.255	2.0
95.27	5.0
95.285	5.0
95.3	3.0
95.315	1.0
95.33	4.0
95.345	1.0
95.359	5.0
95.374	1.0
95.389	2.0
95.404	5.0
95.419	4.0
95.434	4.0
95.449	5.0
95.464	7.0
95.478	3.0
95.493	6.0
95.508	2.0
95.523	1.0
95.538	5.0
95.553	7.0
95.568	3.0
95.583	2.0
95.597	1.0
95.612	3.0
95.627	5.0
95.642	2.0
95.657	2.0
95.672	1.0
95.687	6.0
95.702	3.0
95.717	2.0
95.731	1.0
95.746	0.0
95.761	2.0
95.776	3.0
95.791	4.0
95.806	2.0
95.821	2.0
95.836	1.0
95.851	2.0
95.866	1.0
95.88	4.0
95.895	3.0
95.91	2.0
95.925	1.0
95.94	4.0
95.955	5.0
95.97	5.0
95.985	2.0
96.0	5.0
96.015	5.0
96.029	2.0
96.044	6.0
96.059	1.0
96.074	2.0
96.089	4.0
96.104	2.0
96.119	3.0
96.134	6.0
96.149	5.0
96.164	2.0
96.179	1.0
96.194	2.0
96.208	3.0
96.223	1.0
96.238	2.0
96.253	4.0
96.268	5.0
96.283	3.0
96.298	3.0
96.313	1.0
96.328	2.0
96.343	2.0
96.358	1.0
96.373	3.0
96.388	3.0
96.403	0.0
96.417	2.0
96.432	4.0
96.447	4.0
96.462	4.0
96.477	2.0
96.492	2.0
96.507	1.0
96.522	4.0
96.537	2.0
96.552	4.0
96.567	4.0
96.582	2.0
96.597	3.0
96.612	4.0
96.627	2.0
96.642	4.0
96.656	3.0
96.671	5.0
96.686	0.0
96.701	3.0
96.716	5.0
96.731	2.0
96.746	1.0
96.761	2.0
96.776	6.0
96.791	2.0
96.806	2.0
96.821	4.0
96.836	4.0
96.851	7.0
96.866	4.0
96.881	4.0
96.896	6.0
96.911	5.0
96.926	5.0
96.94	4.0
96.955	6.0
96.97	4.0
96.985	4.0
97.0	1.0
97.015	6.0
97.03	3.0
97.045	4.0
97.06	4.0
97.075	8.0
97.09	4.0
97.105	5.0
97.12	2.0
97.135	2.0
97.15	4.0
97.165	0.0
97.18	2.0
97.195	2.0
97.21	1.0
97.225	4.0
97.239	1.0
97.254	3.0
97.269	4.0
97.284	2.0
97.299	4.0
97.314	3.0
97.329	3.0
97.344	1.0
97.359	0.0
97.374	4.0
97.389	2.0
97.404	4.0
97.419	1.0
97.434	3.0
97.449	1.0
97.464	3.0
97.479	2.0
97.494	3.0
97.509	3.0
97.524	2.0
97.538	2.0
97.553	4.0
97.568	2.0
97.583	2.0
97.598	1.0
97.613	2.0
97.628	4.0
97.643	2.0
97.658	0.0
97.673	7.0
97.688	2.0
97.703	4.0
97.718	4.0
97.733	6.0
97.748	3.0
97.763	3.0
97.778	3.0
97.792	4.0
97.807	5.0
97.822	5.0
97.837	6.0
97.852	4.0
97.867	3.0
97.882	0.0
97.897	5.0
97.912	1.0
97.927	3.0
97.942	8.0
97.957	1.0
97.972	6.0
97.987	2.0
98.001	4.0
98.016	4.0
98.031	1.0
98.046	2.0
98.061	0.0
98.076	1.0
98.091	3.0
98.106	3.0
98.121	1.0
98.136	1.0
98.151	2.0
98.166	1.0
98.181	1.0
98.195	5.0
98.21	2.0
98.225	5.0
98.24	2.0
98.255	4.0
98.27	3.0
98.285	1.0
98.3	2.0
98.315	2.0
98.33	1.0
98.345	3.0
98.359	5.0
98.374	4.0
98.389	4.0
98.404	3.0
98.419	1.0
98.434	1.0
98.449	2.0
98.464	4.0
98.479	5.0
98.494	3.0
98.508	5.0
98.523	1.0
98.538	6.0
98.553	5.0
98.568	1.0
98.583	2.0
98.598	10.0
98.613	0.0
98.628	2.0
98.642	3.0
98.657	4.0
98.672	2.0
98.687	2.0
98.702	4.0
98.717	3.0
98.732	3.0
98.747	2.0
98.762	3.0
98.776	4.0
98.791	4.0
98.806	1.0
98.821	1.0
98.836	5.0
98.851	3.0
98.866	1.0
98.881	2.0
98.896	4.0
98.91	3.0
98.925	3.0
98.94	3.0
98.955	4.0
98.97	2.0
98.985	3.0
99.0	3.0
99.015	3.0
99.029	4.0
99.044	2.0
99.059	4.0
99.074	2.0
99.089	3.0
99.104	2.0
99.119	1.0
99.133	1.0
99.148	2.0
99.163	6.0
99.178	3.0
99.193	2.0
99.208	2.0
99.223	1.0
99.238	1.0
99.252	2.0
99.267	4.0
99.282	4.0
99.297	2.0
99.312	1.0
99.327	3.0
99.342	3.0
99.356	2.0
99.371	2.0
99.386	2.0
99.401	3.0
99.416	2.0
99.431	1.0
99.446	5.0
99.461	3.0
99.475	6.0
99.49	4.0
99.505	4.0
99.52	5.0
99.535	4.0
99.55	5.0
99.565	3.0
99.579	6.0
99.594	2.0
99.609	3.0
99.624	2.0
99.639	3.0
99.654	1.0
99.669	2.0
99.683	5.0
99.698	5.0
99.713	5.0
99.728	1.0
99.743	1.0
99.758	3.0
99.772	3.0
99.787	6.0
99.802	0.0
99.817	3.0
99.832	5.0
99.847	2.0
99.862	1.0
99.876	1.0
99.891	3.0
99.906	4.0
99.921	3.0
99.936	6.0
99.951	7.0
99.966	0.0
99.98	4.0
99.995	5.0
100.01	4.0
100.025	2.0
100.04	4.0
100.055	3.0
100.069	4.0
100.084	1.0
100.099	3.0
100.114	3.0
100.129	2.0
100.144	6.0
100.159	1.0
100.173	2.0
100.188	4.0
100.203	2.0
100.218	3.0
100.233	0.0
100.248	2.0
100.262	3.0
100.277	7.0
100.292	4.0
100.307	4.0
100.322	9.0
100.337	0.0
100.351	3.0
100.366	2.0
100.381	5.0
100.396	6.0
100.411	7.0
100.426	0.0
100.441	5.0
100.455	3.0
100.47	3.0
100.485	7.0
100.5	3.0
100.515	2.0
100.53	0.0
100.544	3.0
100.559	6.0
100.574	2.0
100.589	1.0
100.604	2.0
100.619	1.0
100.633	2.0
100.648	1.0
100.663	6.0
100.678	1.0
100.693	3.0
100.708	2.0
100.722	4.0
100.737	2.0
100.752	2.0
100.767	1.0
100.782	2.0
100.796	3.0
100.811	4.0
100.826	4.0
100.841	1.0
100.856	8.0
100.871	1.0
100.885	3.0
100.9	3.0
100.915	4.0
100.93	2.0
100.945	5.0
100.96	2.0
100.974	2.0
100.989	3.0
101.004	5.0
101.019	2.0
101.034	4.0
101.048	1.0
101.063	4.0
101.078	4.0
101.093	1.0
101.108	7.0
101.123	2.0
101.137	0.0
101.152	6.0
101.167	3.0
101.182	4.0
101.197	4.0
101.211	6.0
101.226	1.0
101.241	1.0
101.256	4.0
101.271	1.0
101.285	3.0
101.3	3.0
101.315	1.0
101.33	3.0
101.345	4.0
101.359	3.0
101.374	3.0
101.389	2.0
101.404	3.0
101.419	4.0
101.433	3.0
101.448	3.0
101.463	2.0
101.478	3.0
101.493	1.0
101.507	1.0
101.522	7.0
101.537	3.0
101.552	5.0
101.567	3.0
101.581	3.0
101.596	2.0
101.611	2.0
101.626	2.0
101.64	3.0
101.655	1.0
101.67	4.0
101.685	5.0
101.7	1.0
101.714	1.0
101.729	4.0
101.744	7.0
101.759	7.0
101.773	3.0
101.788	2.0
101.803	3.0
101.818	3.0
101.833	1.0
101.847	1.0
101.862	1.0
101.877	1.0
101.892	2.0
101.906	2.0
101.921	3.0
101.936	3.0
101.951	3.0
101.965	1.0
101.98	2.0
101.995	4.0
102.01	6.0
102.025	4.0
102.039	3.0
102.054	2.0
102.069	2.0
102.084	4.0
102.098	3.0
102.113	3.0
102.128	2.0
102.143	3.0
102.157	3.0
102.172	3.0
102.187	2.0
102.202	5.0
102.216	5.0
102.231	1.0
102.246	1.0
102.261	4.0
102.275	1.0
102.29	4.0
102.305	2.0
102.32	3.0
102.334	4.0
102.349	1.0
102.364	3.0
102.378	5.0
102.393	4.0
102.408	1.0
102.423	6.0
102.437	3.0
102.452	2.0
102.467	1.0
102.482	1.0
102.496	0.0
102.511	1.0
102.526	3.0
102.541	0.0
102.555	1.0
102.57	1.0
102.585	3.0
102.6	4.0
102.614	3.0
102.629	2.0
102.644	3.0
102.659	3.0
102.673	1.0
102.688	1.0
102.703	3.0
102.717	1.0
102.732	5.0
102.747	1.0
102.762	3.0
102.776	1.0
102.791	5.0
102.806	4.0
102.821	2.0
102.835	5.0
102.85	3.0
102.865	2.0
102.88	2.0
102.894	2.0
102.909	6.0
102.924	5.0
102.938	2.0
102.953	3.0
102.968	5.0
102.983	2.0
102.997	4.0
103.012	1.0
103.027	1.0
103.042	2.0
103.056	5.0
103.071	3.0
103.086	2.0
103.101	3.0
103.115	6.0
103.13	5.0
103.145	3.0
103.16	1.0
103.174	1.0
103.189	0.0
103.204	6.0
103.219	3.0
103.233	3.0
103.248	2.0
103.263	4.0
103.278	2.0
103.292	5.0
103.307	6.0
103.322	5.0
103.337	6.0
103.351	5.0
103.366	2.0
103.381	4.0
103.396	3.0
103.41	7.0
103.425	4.0
103.44	0.0
103.455	0.0
103.469	3.0
103.484	3.0
103.499	4.0
103.514	4.0
103.529	3.0
103.543	8.0
103.558	4.0
103.573	2.0
103.588	4.0
103.602	3.0
103.617	0.0
103.632	2.0
103.647	2.0
103.661	3.0
103.676	1.0
103.691	2.0
103.706	4.0
103.721	0.0
103.735	6.0
103.75	2.0
103.765	1.0
103.78	0.0
103.795	3.0
103.809	2.0
103.824	2.0
103.839	3.0
103.854	1.0
103.869	0.0
103.883	3.0
103.898	1.0
103.913	1.0
103.928	2.0
103.943	3.0
103.957	1.0
103.972	1.0
103.987	7.0
104.002	2.0
104.017	3.0
104.031	4.0
104.046	0.0
104.061	2.0
104.076	3.0
104.091	5.0
104.106	1.0
104.12	3.0
104.135	0.0
104.15	0.0
104.165	2.0
104.18	4.0
104.195	1.0
104.209	1.0
104.224	1.0
104.239	2.0
104.254	6.0
104.269	6.0
104.284	2.0
104.299	5.0
104.313	1.0
104.328	4.0
104.343	4.0
104.358	3.0
104.373	1.0
104.388	2.0
104.403	2.0
104.417	1.0
104.432	5.0
104.447	6.0
104.462	7.0
104.477	7.0
104.492	4.0
104.507	6.0
104.522	0.0
104.536	3.0
104.551	1.0
104.566	5.0
104.581	4.0
104.596	8.0
104.611	1.0
104.626	6.0
104.641	2.0
104.656	4.0
104.67	4.0
104.685	2.0
104.7	2.0
104.715	1.0
104.73	3.0
104.745	2.0
104.76	3.0
104.775	3.0
104.79	4.0
104.804	6.0
104.819	3.0
104.834	3.0
104.849	3.0
104.864	2.0
104.879	4.0
104.894	1.0
104.909	0.0
104.924	3.0
104.939	2.0
104.954	4.0
104.968	5.0
104.983	2.0
104.998	3.0
105.013	0.0
105.028	1.0
105.043	4.0
105.058	5.0
105.073	0.0
105.088	6.0
105.103	2.0
105.118	4.0
105.133	5.0
105.147	4.0
105.162	2.0
105.177	0.0
105.192	4.0
105.207	5.0
105.222	1.0
105.237	10.0
105.252	2.0
105.267	2.0
105.282	3.0
105.297	4.0
105.312	0.0
105.327	4.0
105.342	5.0
105.356	3.0
105.371	4.0
105.386	4.0
105.401	6.0
105.416	1.0
105.431	3.0
105.446	2.0
105.461	3.0
105.476	3.0
105.491	2.0
105.506	3.0
105.521	3.0
105.536	4.0
105.551	4.0
105.566	1.0
105.581	2.0
105.595	1.0
105.61	7.0
105.625	1.0
105.64	3.0
105.655	2.0
105.67	2.0
105.685	2.0
105.7	3.0
105.715	2.0
105.73	1.0
105.745	2.0
105.76	3.0
105.775	1.0
105.79	3.0
105.805	4.0
105.82	3.0
105.835	3.0
105.85	3.0
105.864	4.0
105.879	3.0
105.894	4.0
105.909	6.0
105.924	1.0
105.939	1.0
105.954	1.0
105.969	3.0
105.984	3.0
105.999	3.0
106.014	2.0
106.029	1.0
106.044	5.0
106.059	0.0
106.074	3.0
106.089	1.0
106.104	5.0
106.119	4.0
106.134	4.0
106.148	1.0
106.163	1.0
106.178	1.0
106.193	3.0
106.208	5.0
106.223	1.0
106.238	1.0
106.253	5.0
106.268	3.0
106.283	5.0
106.298	4.0
106.313	2.0
106.328	4.0
106.343	2.0
106.358	4.0
106.373	6.0
106.388	1.0
106.403	3.0
106.418	1.0
106.432	4.0
106.447	2.0
106.462	2.0
106.477	3.0
106.492	4.0
106.507	5.0
106.522	0.0
106.537	1.0
106.552	0.0
106.567	1.0
106.582	3.0
106.597	5.0
106.612	4.0
106.627	2.0
106.642	1.0
106.657	4.0
106.672	4.0
106.687	3.0
106.701	0.0
106.716	7.0
106.731	1.0
106.746	4.0
106.761	1.0
106.776	1.0
106.791	3.0
106.806	3.0
106.821	1.0
106.836	2.0
106.851	3.0
106.866	5.0
106.881	3.0
106.896	2.0
106.911	8.0
106.926	2.0
106.941	2.0
106.955	3.0
106.97	3.0
106.985	3.0
107.0	6.0
107.015	2.0
107.03	3.0
107.045	3.0
107.06	5.0
107.075	8.0
107.09	7.0
107.105	5.0
107.12	5.0
107.135	5.0
107.15	3.0
107.165	4.0
107.18	6.0
107.194	5.0
107.209	10.0
107.224	1.0
107.239	5.0
107.254	5.0
107.269	4.0
107.284	5.0
107.299	3.0
107.314	3.0
107.329	2.0
107.344	4.0
107.359	2.0
107.374	5.0
107.389	5.0
107.404	3.0
107.418	4.0
107.433	2.0
107.448	5.0
107.463	5.0
107.478	2.0
107.493	3.0
107.508	4.0
107.523	7.0
107.538	6.0
107.553	2.0
107.568	3.0
107.583	4.0
107.598	4.0
107.613	0.0
107.627	3.0
107.642	4.0
107.657	11.0
107.672	2.0
107.687	4.0
107.702	2.0
107.717	6.0
107.732	5.0
107.747	3.0
107.762	6.0
107.777	2.0
107.792	0.0
107.807	1.0
107.821	3.0
107.836	4.0
107.851	1.0
107.866	2.0
107.881	5.0
107.896	7.0
107.911	1.0
107.926	2.0
107.941	4.0
107.956	0.0
107.971	3.0
107.986	6.0
108.0	2.0
108.015	5.0
108.03	5.0
108.045	3.0
108.06	8.0
108.075	3.0
108.09	7.0
108.105	6.0
108.12	2.0
108.135	6.0
108.15	3.0
108.164	4.0
108.179	5.0
108.194	6.0
108.209	2.0
108.224	3.0
108.239	3.0
108.254	2.0
108.269	5.0
108.284	7.0
108.299	3.0
108.313	1.0
108.328	4.0
108.343	6.0
108.358	7.0
108.373	5.0
108.388	3.0
108.403	3.0
108.418	4.0
108.433	3.0
108.448	3.0
108.462	3.0
108.477	0.0
108.492	4.0
108.507	3.0
108.522	4.0
108.537	3.0
108.552	4.0
108.567	4.0
108.582	4.0
108.597	1.0
108.611	5.0
108.626	4.0
108.641	1.0
108.656	1.0
108.671	6.0
108.686	4.0
108.701	4.0
108.716	2.0
108.731	1.0
108.745	2.0
108.76	5.0
108.775	2.0
108.79	5.0
108.805	0.0
108.82	3.0
108.835	0.0
108.85	3.0
108.865	6.0
108.879	2.0
108.894	6.0
108.909	5.0
108.924	3.0
108.939	4.0
108.954	1.0
108.969	3.0
108.984	4.0
108.999	10.0
109.013	0.0
109.028	4.0
109.043	6.0
109.058	4.0
109.073	2.0
109.088	4.0
109.103	0.0
109.118	5.0
109.133	1.0
109.147	3.0
109.162	4.0
109.177	6.0
109.192	3.0
109.207	4.0
109.222	2.0
109.237	5.0
109.252	2.0
109.267	3.0
109.281	2.0
109.296	2.0
109.311	6.0
109.326	3.0
109.341	1.0
109.356	3.0
109.371	3.0
109.386	1.0
109.4	2.0
109.415	3.0
109.43	4.0
109.445	4.0
109.46	3.0
109.475	3.0
109.49	1.0
109.505	4.0
109.52	5.0
109.534	3.0
109.549	5.0
109.564	4.0
109.579	4.0
109.594	6.0
109.609	0.0
109.624	4.0
109.639	3.0
109.653	4.0
109.668	9.0
109.683	1.0
109.698	3.0
109.713	4.0
109.728	3.0
109.743	6.0
109.758	2.0
109.773	0.0
109.787	7.0
109.802	0.0
109.817	4.0
109.832	2.0
109.847	4.0
109.862	4.0
109.877	2.0
109.892	2.0
109.907	1.0
109.921	3.0
109.936	1.0
109.951	5.0
109.966	1.0
109.981	2.0
109.996	5.0
110.011	3.0
110.026	5.0
110.04	2.0
110.055	1.0
110.07	4.0
110.085	1.0
110.1	3.0
110.115	2.0
110.13	5.0
110.145	2.0
110.16	1.0
110.174	3.0
110.189	4.0
110.204	4.0
110.219	2.0
110.234	1.0
110.249	2.0
110.264	2.0
110.279	2.0
110.294	1.0
110.308	3.0
110.323	2.0
110.338	3.0
110.353	4.0
110.368	2.0
110.383	3.0
110.398	2.0
110.413	8.0
110.428	2.0
110.442	2.0
110.457	3.0
110.472	2.0
110.487	2.0
110.502	3.0
110.517	5.0
110.532	4.0
110.547	3.0
110.561	5.0
110.576	4.0
110.591	1.0
110.606	2.0
110.621	3.0
110.636	2.0
110.651	7.0
110.666	3.0
110.681	4.0
110.695	1.0
110.71	2.0
110.725	0.0
110.74	2.0
110.755	4.0
110.77	6.0
110.785	7.0
110.8	2.0
110.815	4.0
110.829	0.0
110.844	2.0
110.859	0.0
110.874	3.0
110.889	4.0
110.904	1.0
110.919	3.0
110.934	2.0
110.948	4.0
110.963	3.0
110.978	4.0
110.993	2.0
111.008	1.0
111.023	3.0
111.038	3.0
111.053	4.0
111.067	3.0
111.082	4.0
111.097	1.0
111.112	2.0
111.127	6.0
111.142	1.0
111.157	6.0
111.172	2.0
111.186	3.0
111.201	1.0
111.216	7.0
111.231	4.0
111.246	7.0
111.261	5.0
111.276	3.0
111.291	4.0
111.305	0.0
111.32	4.0
111.335	4.0
111.35	5.0
111.365	0.0
111.38	8.0
111.395	4.0
111.41	0.0
111.424	5.0
111.439	2.0
111.454	5.0
111.469	3.0
111.484	0.0
111.499	7.0
111.514	2.0
111.528	6.0
111.543	1.0
111.558	8.0
111.573	6.0
111.588	4.0
111.603	4.0
111.618	3.0
111.633	7.0
111.647	2.0
111.662	5.0
111.677	2.0
111.692	5.0
111.707	2.0
111.722	2.0
111.737	3.0
111.751	6.0
111.766	5.0
111.781	3.0
111.796	1.0
111.811	6.0
111.826	6.0
111.84	4.0
111.855	4.0
111.87	0.0
111.885	4.0
111.9	4.0
111.915	5.0
111.93	0.0
111.944	4.0
111.959	7.0
111.974	4.0
111.989	7.0
112.004	4.0
112.019	3.0
112.033	2.0
112.048	5.0
112.063	3.0
112.078	3.0
112.093	1.0
112.108	4.0
112.123	4.0
112.137	2.0
112.152	4.0
112.167	5.0
112.182	2.0
112.197	5.0
112.212	2.0
112.226	3.0
112.241	2.0
112.256	1.0
112.271	4.0
112.286	7.0
112.301	3.0
112.315	3.0
112.33	2.0
112.345	3.0
112.36	3.0
112.375	5.0
112.389	2.0
112.404	5.0
112.419	1.0
112.434	5.0
112.449	4.0
112.464	4.0
112.478	3.0
112.493	4.0
112.508	8.0
112.523	1.0
112.538	5.0
112.553	1.0
112.567	4.0
112.582	3.0
112.597	4.0
112.612	3.0
112.627	2.0
112.642	5.0
112.656	3.0
112.671	5.0
112.686	6.0
112.701	3.0
112.716	4.0
112.73	1.0
112.745	0.0
112.76	5.0
112.775	6.0
112.79	3.0
112.805	3.0
112.819	8.0
112.834	1.0
112.849	3.0
112.864	1.0
112.879	2.0
112.894	7.0
112.908	2.0
112.923	2.0
112.938	2.0
112.953	3.0
112.968	4.0
112.983	3.0
112.997	0.0
113.012	0.0
113.027	5.0
113.042	1.0
113.057	2.0
113.072	2.0
113.086	4.0
113.101	3.0
113.116	4.0
113.131	7.0
113.146	6.0
113.161	2.0
113.175	3.0
113.19	2.0
113.205	2.0
113.22	5.0
113.235	3.0
113.25	1.0
113.265	4.0
113.279	1.0
113.294	1.0
113.309	5.0
113.324	3.0
113.339	1.0
113.354	4.0
113.368	3.0
113.383	4.0
113.398	3.0
113.413	1.0
113.428	4.0
113.443	3.0
113.458	7.0
113.472	2.0
113.487	2.0
113.502	2.0
113.517	2.0
113.532	9.0
113.547	4.0
113.562	5.0
113.576	4.0
113.591	3.0
113.606	5.0
113.621	2.0
113.636	1.0
113.651	3.0
113.666	1.0
113.681	3.0
113.695	1.0
113.71	5.0
113.725	3.0
113.74	3.0
113.755	5.0
113.77	2.0
113.785	2.0
113.8	3.0
113.814	2.0
113.829	7.0
113.844	0.0
113.859	2.0
113.874	5.0
113.889	2.0
113.904	5.0
113.919	4.0
113.934	3.0
113.949	2.0
113.963	1.0
113.978	0.0
113.993	5.0
114.008	3.0
114.023	5.0
114.038	4.0
114.053	4.0
114.068	3.0
114.083	3.0
114.098	5.0
114.113	4.0
114.127	3.0
114.142	8.0
114.157	2.0
114.172	2.0
114.187	2.0
114.202	4.0
114.217	4.0
114.232	3.0
114.247	4.0
114.262	2.0
114.277	2.0
114.292	1.0
114.307	12.0
114.322	7.0
114.337	2.0
114.351	5.0
114.366	5.0
114.381	4.0
114.396	2.0
114.411	4.0
114.426	3.0
114.441	4.0
114.456	1.0
114.471	7.0
114.486	4.0
114.501	5.0
114.516	2.0
114.531	6.0
114.546	3.0
114.561	3.0
114.576	2.0
114.591	3.0
114.606	4.0
114.621	1.0
114.636	3.0
114.65	3.0
114.665	4.0
114.68	2.0
114.695	3.0
114.71	3.0
114.725	1.0
114.74	3.0
114.755	0.0
114.77	5.0
114.785	3.0
114.8	2.0
114.815	3.0
114.83	0.0
114.845	1.0
114.86	4.0
114.875	5.0
114.89	4.0
114.905	3.0
114.92	4.0
114.935	1.0
114.95	3.0
114.965	4.0
114.98	5.0
114.995	3.0
115.009	4.0
115.024	3.0
115.039	2.0
115.054	6.0
115.069	5.0
115.084	2.0
115.099	2.0
115.114	3.0
115.129	4.0
115.144	4.0
115.159	3.0
115.174	3.0
115.189	1.0
115.204	5.0
115.219	6.0
115.234	6.0
115.249	1.0
115.264	4.0
115.279	4.0
115.294	2.0
115.309	4.0
115.323	2.0
115.338	3.0
115.353	5.0
115.368	3.0
115.383	5.0
115.398	1.0
115.413	2.0
115.428	4.0
115.443	4.0
115.458	2.0
115.473	1.0
115.488	3.0
115.503	4.0
115.518	1.0
115.533	6.0
115.548	3.0
115.562	6.0
115.577	2.0
115.592	4.0
115.607	0.0
115.622	2.0
115.637	1.0
115.652	3.0
115.667	3.0
115.682	2.0
115.697	3.0
115.712	1.0
115.727	4.0
115.741	2.0
115.756	0.0
115.771	3.0
115.786	4.0
115.801	4.0
115.816	1.0
115.831	7.0
115.846	4.0
115.861	5.0
115.875	5.0
115.89	3.0
115.905	1.0
115.92	2.0
115.935	6.0
115.95	5.0
115.965	2.0
115.98	4.0
115.995	6.0
116.009	1.0
116.024	5.0
116.039	4.0
116.054	5.0
116.069	1.0
116.084	7.0
116.099	5.0
116.113	2.0
116.128	1.0
116.143	3.0
116.158	3.0
116.173	7.0
116.188	3.0
116.202	2.0
116.217	5.0
116.232	3.0
116.247	2.0
116.262	2.0
116.277	0.0
116.291	4.0
116.306	2.0
116.321	2.0
116.336	2.0
116.351	4.0
116.366	3.0
116.38	4.0
116.395	4.0
116.41	2.0
116.425	4.0
116.44	2.0
116.454	10.0
116.469	6.0
116.484	3.0
116.499	5.0
116.514	1.0
116.528	1.0
116.543	3.0
116.558	1.0
116.573	3.0
116.588	6.0
116.602	3.0
116.617	3.0
116.632	5.0
116.647	1.0
116.662	2.0
116.676	7.0
116.691	4.0
116.706	2.0
116.721	4.0
116.735	3.0
116.75	5.0
116.765	1.0
116.78	4.0
116.795	3.0
116.809	2.0
116.824	3.0
116.839	3.0
116.854	4.0
116.868	1.0
116.883	0.0
116.898	5.0
116.913	10.0
116.927	4.0
116.942	1.0
116.957	2.0
116.972	4.0
116.986	6.0
117.001	1.0
117.016	4.0
117.031	2.0
117.045	3.0
117.06	6.0
117.075	8.0
117.09	0.0
117.104	1.0
117.119	3.0
117.134	7.0
117.149	2.0
117.163	5.0
117.178	0.0
117.193	2.0
117.208	3.0
117.222	4.0
117.237	9.0
117.252	2.0
117.267	7.0
117.281	4.0
117.296	6.0
117.311	4.0
117.325	6.0
117.34	5.0
117.355	4.0
117.37	5.0
117.384	2.0
117.399	3.0
117.414	4.0
117.429	6.0
117.443	5.0
117.458	2.0
117.473	4.0
117.487	6.0
117.502	9.0
117.517	4.0
117.532	2.0
117.546	1.0
117.561	6.0
117.576	6.0
117.59	7.0
117.605	5.0
117.62	1.0
117.635	4.0
117.649	4.0
117.664	3.0
117.679	2.0
117.693	3.0
117.708	3.0
117.723	0.0
117.738	5.0
117.752	5.0
117.767	6.0
117.782	5.0
117.796	2.0
117.811	8.0
117.826	3.0
117.841	2.0
117.855	6.0
117.87	2.0
117.885	1.0
117.899	1.0
117.914	4.0
117.929	2.0
117.944	1.0
117.958	2.0
117.973	2.0
117.988	3.0
118.002	2.0
118.017	4.0
118.032	4.0
118.047	3.0
118.062	3.0
118.077	3.0
118.092	2.0
118.107	7.0
118.121	8.0
118.136	4.0
118.151	7.0
118.166	6.0
118.181	0.0
118.196	4.0
118.211	3.0
118.225	2.0
118.24	6.0
118.255	4.0
118.27	0.0
118.285	3.0
118.3	3.0
118.315	5.0
118.33	4.0
118.344	1.0
118.359	1.0
118.374	7.0
118.389	3.0
118.404	6.0
118.419	6.0
118.434	1.0
118.449	5.0
118.463	11.0
118.478	5.0
118.493	2.0
118.508	5.0
118.523	5.0
118.538	5.0
118.553	6.0
118.567	6.0
118.582	7.0
118.597	4.0
118.612	3.0
118.627	1.0
118.642	3.0
118.657	4.0
118.672	2.0
118.686	3.0
118.701	6.0
118.716	6.0
118.731	5.0
118.746	3.0
118.761	2.0
118.776	4.0
118.791	2.0
118.805	3.0
118.82	3.0
118.835	4.0
118.85	4.0
118.865	7.0
118.88	5.0
118.895	8.0
118.909	2.0
118.924	6.0
118.939	6.0
118.954	4.0
118.969	5.0
118.984	0.0
118.999	5.0
119.014	4.0
119.028	3.0
119.043	2.0
119.058	2.0
119.073	4.0
119.088	3.0
119.103	3.0
119.118	0.0
119.133	6.0
119.147	1.0
119.162	3.0
119.177	6.0
119.192	1.0
119.207	6.0
119.222	2.0
119.237	4.0
119.251	3.0
119.266	3.0
119.281	2.0
119.296	0.0
119.311	5.0
119.326	3.0
119.341	4.0
119.356	3.0
119.37	6.0
119.385	3.0
119.4	2.0
119.415	0.0
119.43	5.0
119.445	3.0
119.46	3.0
119.475	2.0
119.489	4.0
119.504	2.0
119.519	5.0
119.534	0.0
119.549	4.0
119.564	3.0
119.579	1.0
119.593	3.0
119.608	3.0
119.623	2.0
119.638	2.0
119.653	0.0
119.668	5.0
119.683	2.0
119.698	5.0
119.712	3.0
119.727	6.0
119.742	2.0
119.757	2.0
119.772	5.0
119.787	2.0
119.802	4.0
119.817	0.0
119.831	2.0
119.846	2.0
119.861	2.0
119.876	4.0
119.891	3.0
119.906	6.0
119.921	0.0
119.935	2.0
119.95	4.0
119.965	1.0
119.98	0.0
119.995	3.0
120.01	3.0
120.025	4.0
120.04	2.0
120.054	2.0
120.069	3.0
120.084	3.0
120.099	0.0
120.114	1.0
120.129	0.0
120.144	1.0
120.159	2.0
120.173	3.0
120.188	2.0
120.203	1.0
120.218	1.0
120.233	0.0
120.248	1.0
120.263	1.0
120.277	0.0
120.292	1.0
120.307	0.0
120.322	1.0
120.337	0.0
120.352	0.0
120.367	0.0
120.382	1.0
120.396	0.0
120.411	0.0
120.426	0.0
120.441	0.0
120.456	0.0
120.471	0.0
120.486	0.0
120.501	0.0
120.515	0.0
120.53	0.0
120.545	0.0
120.56	0.0
120.575	0.0
120.59	0.0
120.605	0.0
120.619	1.0
120.634	1.0
120.649	1.0
120.664	0.0
120.679	0.0
120.694	0.0
120.709	0.0
120.724	0.0
120.738	0.0
120.753	0.0
120.768	0.0
120.783	0.0
120.798	0.0
120.813	0.0
120.828	0.0
120.843	0.0
120.857	0.0
120.872	0.0
120.887	0.0
120.902	0.0
120.917	1.0
120.932	0.0
120.947	0.0
120.961	0.0
120.976	0.0
