-1.217	0.0
-1.202	0.0
-1.187	0.0
-1.172	0.0
-1.157	0.0
-1.142	0.0
-1.128	0.0
-1.113	0.0
-1.098	0.0
-1.083	0.0
-1.068	0.0
-1.054	0.0
-1.039	0.0
-1.024	0.0
-1.009	0.0
-0.994	0.0
-0.979	0.0
-0.965	0.0
-0.95	0.0
-0.935	0.0
-0.92	0.0
-0.905	0.0
-0.891	0.0
-0.876	0.0
-0.861	0.0
-0.846	0.0
-0.831	0.0
-0.816	0.0
-0.802	0.0
-0.787	0.0
-0.772	0.0
-0.757	0.0
-0.742	0.0
-0.728	0.0
-0.713	0.0
-0.698	0.0
-0.683	0.0
-0.668	0.0
-0.653	0.0
-0.639	0.0
-0.624	0.0
-0.609	0.0
-0.594	0.0
-0.579	1.0
-0.565	0.0
-0.55	0.0
-0.535	0.0
-0.52	0.0
-0.505	0.0
-0.49	0.0
-0.476	0.0
-0.461	0.0
-0.446	0.0
-0.431	0.0
-0.416	0.0
-0.401	0.0
-0.387	0.0
-0.372	0.0
-0.357	0.0
-0.342	0.0
-0.327	0.0
-0.313	0.0
-0.298	0.0
-0.283	0.0
-0.268	0.0
-0.253	0.0
-0.238	0.0
-0.224	0.0
-0.209	0.0
-0.194	1.0
-0.179	0.0
-0.164	0.0
-0.15	0.0
-0.135	0.0
-0.12	0.0
-0.105	0.0
-0.09	0.0
-0.075	0.0
-0.061	0.0
-0.046	0.0
-0.031	0.0
-0.016	0.0
-0.001	0.0
0.013	0.0
0.028	0.0
0.043	0.0
0.058	0.0
0.073	0.0
0.088	0.0
0.102	0.0
0.117	0.0
0.132	0.0
0.147	0.0
0.162	0.0
0.176	0.0
0.191	0.0
0.206	0.0
0.221	0.0
0.236	0.0
0.251	0.0
0.265	0.0
0.28	0.0
0.295	0.0
0.31	0.0
0.325	0.0
0.339	1.0
0.354	0.0
0.369	0.0
0.384	0.0
0.399	0.0
0.414	0.0
0.428	0.0
0.443	0.0
0.458	0.0
0.473	0.0
0.488	0.0
0.502	0.0
0.517	1.0
0.532	0.0
0.547	0.0
0.562	0.0
0.577	0.0
0.591	0.0
0.606	0.0
0.621	0.0
0.636	0.0
0.651	0.0
0.665	0.0
0.68	0.0
0.695	0.0
0.71	0.0
0.725	0.0
0.74	0.0
0.754	0.0
0.769	0.0
0.784	0.0
0.799	0.0
0.814	0.0
0.828	0.0
0.843	0.0
0.858	0.0
0.873	0.0
0.888	0.0
0.903	0.0
0.917	0.0
0.932	0.0
0.947	0.0
0.962	0.0
0.977	0.0
0.991	0.0
1.006	0.0
1.021	0.0
1.036	0.0
1.051	1.0
1.065	0.0
1.08	0.0
1.095	0.0
1.11	0.0
1.125	0.0
1.14	0.0
1.154	0.0
1.169	0.0
1.184	0.0
1.199	0.0
1.214	0.0
1.228	0.0
1.243	0.0
1.258	0.0
1.273	0.0
1.288	0.0
1.302	0.0
1.317	0.0
1.332	0.0
1.347	0.0
1.362	0.0
1.376	0.0
1.391	0.0
1.406	1.0
1.421	0.0
1.436	0.0
1.45	0.0
1.465	0.0
1.48	0.0
1.495	0.0
1.51	0.0
1.524	0.0
1.539	0.0
1.554	0.0
1.569	0.0
1.584	0.0
1.598	0.0
1.613	0.0
1.628	0.0
1.643	0.0
1.658	0.0
1.672	0.0
1.687	1.0
1.702	0.0
1.717	0.0
1.732	0.0
1.746	0.0
1.761	0.0
1.776	0.0
1.791	0.0
1.806	0.0
1.82	0.0
1.835	0.0
1.85	0.0
1.865	0.0
1.88	0.0
1.894	0.0
1.909	0.0
1.924	0.0
1.939	0.0
1.954	0.0
1.968	1.0
1.983	0.0
1.998	0.0
2.013	0.0
2.028	0.0
2.042	0.0
2.057	0.0
2.072	0.0
2.087	0.0
2.101	0.0
2.116	0.0
2.131	0.0
2.146	0.0
2.161	1.0
2.175	1.0
2.19	1.0
2.205	0.0
2.22	0.0
2.235	0.0
2.249	1.0
2.264	1.0
2.279	0.0
2.294	0.0
2.308	0.0
2.323	0.0
2.338	2.0
2.353	2.0
2.368	2.0
2.382	1.0
2.397	0.0
2.412	1.0
2.427	1.0
2.442	0.0
2.456	2.0
2.471	2.0
2.486	0.0
2.501	1.0
2.515	1.0
2.53	3.0
2.545	1.0
2.56	1.0
2.575	2.0
2.589	2.0
2.604	5.0
2.619	2.0
2.634	1.0
2.649	2.0
2.663	4.0
2.678	2.0
2.693	3.0
2.708	2.0
2.722	6.0
2.737	3.0
2.752	1.0
2.767	3.0
2.782	2.0
2.796	4.0
2.811	2.0
2.826	3.0
2.841	1.0
2.856	5.0
2.87	5.0
2.885	4.0
2.9	0.0
2.915	1.0
2.93	11.0
2.944	7.0
2.959	3.0
2.974	5.0
2.989	3.0
3.004	4.0
3.018	0.0
3.033	4.0
3.048	5.0
3.063	5.0
3.078	2.0
3.092	6.0
3.107	5.0
3.122	2.0
3.137	5.0
3.152	4.0
3.166	4.0
3.181	3.0
3.196	2.0
3.211	2.0
3.226	3.0
3.24	2.0
3.255	4.0
3.27	9.0
3.285	5.0
3.3	6.0
3.315	7.0
3.329	4.0
3.344	5.0
3.359	5.0
3.374	2.0
3.389	3.0
3.403	10.0
3.418	1.0
3.433	5.0
3.448	3.0
3.463	6.0
3.478	5.0
3.492	8.0
3.507	3.0
3.522	3.0
3.537	1.0
3.552	7.0
3.567	3.0
3.581	7.0
3.596	4.0
3.611	5.0
3.626	3.0
3.641	5.0
3.656	1.0
3.671	8.0
3.685	3.0
3.7	5.0
3.715	9.0
3.73	8.0
3.745	5.0
3.76	5.0
3.775	8.0
3.789	1.0
3.804	9.0
3.819	5.0
3.834	7.0
3.849	2.0
3.864	9.0
3.879	6.0
3.894	5.0
3.908	7.0
3.923	4.0
3.938	1.0
3.953	2.0
3.968	3.0
3.983	7.0
3.998	5.0
4.013	5.0
4.027	0.0
4.042	4.0
4.057	8.0
4.072	7.0
4.087	7.0
4.102	3.0
4.117	7.0
4.132	14.0
4.147	7.0
4.162	4.0
4.176	8.0
4.191	6.0
4.206	14.0
4.221	5.0
4.236	8.0
4.251	5.0
4.266	7.0
4.281	7.0
4.296	4.0
4.311	5.0
4.326	8.0
4.341	0.0
4.356	5.0
4.37	5.0
4.385	11.0
4.4	6.0
4.415	2.0
4.43	7.0
4.445	9.0
4.46	7.0
4.475	7.0
4.49	9.0
4.505	5.0
4.52	8.0
4.535	9.0
4.55	5.0
4.565	9.0
4.58	7.0
4.595	4.0
4.61	6.0
4.625	9.0
4.639	10.0
4.654	6.0
4.669	7.0
4.684	8.0
4.699	6.0
4.714	5.0
4.729	4.0
4.744	7.0
4.759	3.0
4.774	5.0
4.789	6.0
4.804	9.0
4.819	6.0
4.834	5.0
4.849	5.0
4.864	5.0
4.879	3.0
4.894	13.0
4.909	7.0
4.924	10.0
4.939	7.0
4.954	10.0
4.969	8.0
4.984	5.0
4.999	4.0
5.014	6.0
5.029	7.0
5.044	9.0
5.059	9.0
5.074	6.0
5.089	8.0
5.104	5.0
5.119	6.0
5.134	5.0
5.149	8.0
5.164	7.0
5.179	4.0
5.194	5.0
5.209	8.0
5.224	7.0
5.239	9.0
5.254	11.0
5.269	9.0
5.284	6.0
5.299	6.0
5.314	8.0
5.329	6.0
5.344	4.0
5.359	8.0
5.374	11.0
5.389	6.0
5.404	14.0
5.419	10.0
5.434	6.0
5.449	8.0
5.464	6.0
5.479	9.0
5.494	11.0
5.509	7.0
5.524	14.0
5.539	3.0
5.554	4.0
5.569	9.0
5.584	8.0
5.599	7.0
5.614	9.0
5.629	12.0
5.644	11.0
5.659	17.0
5.674	4.0
5.689	7.0
5.704	8.0
5.719	10.0
5.734	7.0
5.749	5.0
5.764	8.0
5.779	7.0
5.794	11.0
5.809	10.0
5.824	10.0
5.839	8.0
5.854	11.0
5.869	3.0
5.884	9.0
5.899	5.0
5.914	8.0
5.929	7.0
5.944	6.0
5.959	7.0
5.974	5.0
5.989	10.0
6.004	11.0
6.019	5.0
6.034	6.0
6.049	5.0
6.064	14.0
6.079	8.0
6.094	9.0
6.109	4.0
6.124	9.0
6.139	5.0
6.154	8.0
6.169	6.0
6.184	7.0
6.199	6.0
6.214	13.0
6.229	7.0
6.244	9.0
6.259	6.0
6.274	15.0
6.289	9.0
6.304	10.0
6.319	8.0
6.334	7.0
6.349	4.0
6.364	7.0
6.379	8.0
6.394	8.0
6.409	10.0
6.424	10.0
6.439	7.0
6.454	8.0
6.469	11.0
6.484	9.0
6.499	6.0
6.514	7.0
6.529	11.0
6.544	11.0
6.559	9.0
6.574	10.0
6.589	9.0
6.604	9.0
6.619	17.0
6.634	4.0
6.649	10.0
6.664	6.0
6.679	10.0
6.694	12.0
6.709	11.0
6.724	8.0
6.739	6.0
6.754	10.0
6.769	12.0
6.784	11.0
6.799	8.0
6.814	11.0
6.829	10.0
6.844	7.0
6.859	5.0
6.873	10.0
6.888	11.0
6.903	9.0
6.918	9.0
6.933	13.0
6.948	11.0
6.963	8.0
6.978	6.0
6.993	14.0
7.008	7.0
7.023	10.0
7.038	12.0
7.053	7.0
7.068	3.0
7.083	9.0
7.098	7.0
7.113	9.0
7.128	13.0
7.143	5.0
7.157	7.0
7.172	9.0
7.187	7.0
7.202	13.0
7.217	4.0
7.232	11.0
7.247	10.0
7.262	12.0
7.277	6.0
7.292	9.0
7.307	11.0
7.322	8.0
7.336	6.0
7.351	10.0
7.366	14.0
7.381	8.0
7.396	6.0
7.411	10.0
7.426	9.0
7.441	6.0
7.456	8.0
7.471	6.0
7.485	9.0
7.5	10.0
7.515	6.0
7.53	11.0
7.545	9.0
7.56	4.0
7.575	9.0
7.59	7.0
7.604	7.0
7.619	9.0
7.634	6.0
7.649	7.0
7.664	7.0
7.679	8.0
7.693	7.0
7.708	6.0
7.723	6.0
7.738	10.0
7.753	4.0
7.768	8.0
7.783	10.0
7.797	20.0
7.812	15.0
7.827	16.0
7.842	9.0
7.857	10.0
7.871	12.0
7.886	14.0
7.901	9.0
7.916	11.0
7.931	7.0
7.945	15.0
7.96	6.0
7.975	4.0
7.99	9.0
8.005	9.0
8.019	11.0
8.034	11.0
8.049	10.0
8.064	9.0
8.078	8.0
8.093	11.0
8.108	11.0
8.123	6.0
8.137	5.0
8.152	10.0
8.167	4.0
8.182	5.0
8.196	7.0
8.211	6.0
8.226	13.0
8.241	7.0
8.255	9.0
8.27	11.0
8.285	8.0
8.3	7.0
8.314	10.0
8.329	13.0
8.344	7.0
8.358	14.0
8.373	4.0
8.388	15.0
8.403	8.0
8.417	8.0
8.432	8.0
8.447	9.0
8.461	8.0
8.476	6.0
8.491	10.0
8.505	9.0
8.52	8.0
8.535	8.0
8.55	5.0
8.564	6.0
8.579	8.0
8.594	8.0
8.608	4.0
8.623	6.0
8.638	7.0
8.652	3.0
8.667	12.0
8.682	6.0
8.696	9.0
8.711	12.0
8.726	6.0
8.74	11.0
8.755	10.0
8.77	13.0
8.784	13.0
8.799	13.0
8.814	8.0
8.828	5.0
8.843	6.0
8.858	8.0
8.872	8.0
8.887	10.0
8.902	9.0
8.916	10.0
8.931	7.0
8.946	5.0
8.96	4.0
8.975	7.0
8.99	7.0
9.004	9.0
9.019	10.0
9.034	10.0
9.048	14.0
9.063	5.0
9.077	7.0
9.092	6.0
9.107	11.0
9.121	10.0
9.136	6.0
9.151	7.0
9.165	10.0
9.18	5.0
9.195	5.0
9.209	5.0
9.224	5.0
9.239	7.0
9.253	4.0
9.268	8.0
9.283	2.0
9.297	8.0
9.312	10.0
9.327	6.0
9.341	10.0
9.356	13.0
9.371	8.0
9.385	9.0
9.4	10.0
9.415	12.0
9.429	13.0
9.444	14.0
9.458	11.0
9.473	7.0
9.488	8.0
9.502	13.0
9.517	7.0
9.532	11.0
9.546	11.0
9.561	18.0
9.576	8.0
9.59	7.0
9.605	6.0
9.62	9.0
9.635	9.0
9.649	8.0
9.664	10.0
9.679	10.0
9.693	8.0
9.708	10.0
9.723	12.0
9.737	9.0
9.752	13.0
9.767	6.0
9.781	10.0
9.796	8.0
9.811	7.0
9.825	9.0
9.84	9.0
9.855	8.0
9.87	7.0
9.884	7.0
9.899	9.0
9.914	7.0
9.928	12.0
9.943	9.0
9.958	7.0
9.973	8.0
9.987	14.0
10.002	9.0
10.017	9.0
10.031	14.0
10.046	7.0
10.061	8.0
10.076	2.0
10.09	8.0
10.105	5.0
10.12	6.0
10.135	10.0
10.149	4.0
10.164	6.0
10.179	6.0
10.194	8.0
10.208	8.0
10.223	5.0
10.238	6.0
10.253	13.0
10.267	8.0
10.282	11.0
10.297	6.0
10.312	10.0
10.326	8.0
10.341	8.0
10.356	10.0
10.371	7.0
10.386	1.0
10.4	10.0
10.415	11.0
10.43	5.0
10.445	5.0
10.46	10.0
10.474	6.0
10.489	7.0
10.504	12.0
10.519	10.0
10.533	6.0
10.548	9.0
10.563	5.0
10.578	6.0
10.593	9.0
10.608	4.0
10.622	5.0
10.637	10.0
10.652	7.0
10.667	11.0
10.682	6.0
10.696	10.0
10.711	3.0
10.726	10.0
10.741	15.0
10.756	7.0
10.771	6.0
10.785	11.0
10.8	11.0
10.815	3.0
10.83	7.0
10.845	8.0
10.86	9.0
10.874	13.0
10.889	14.0
10.904	8.0
10.919	10.0
10.934	11.0
10.949	6.0
10.963	8.0
10.978	13.0
10.993	11.0
11.008	5.0
11.023	8.0
11.038	6.0
11.053	8.0
11.067	10.0
11.082	14.0
11.097	6.0
11.112	8.0
11.127	7.0
11.142	7.0
11.157	7.0
11.172	8.0
11.186	6.0
11.201	8.0
11.216	4.0
11.231	14.0
11.246	4.0
11.261	13.0
11.276	10.0
11.291	9.0
11.305	11.0
11.32	11.0
11.335	9.0
11.35	2.0
11.365	7.0
11.38	10.0
11.395	7.0
11.41	3.0
11.424	5.0
11.439	7.0
11.454	4.0
11.469	3.0
11.484	0.0
11.499	9.0
11.514	9.0
11.529	11.0
11.544	15.0
11.558	11.0
11.573	8.0
11.588	6.0
11.603	8.0
11.618	6.0
11.633	6.0
11.648	11.0
11.663	5.0
11.678	6.0
11.693	9.0
11.707	6.0
11.722	5.0
11.737	8.0
11.752	8.0
11.767	7.0
11.782	9.0
11.797	6.0
11.812	6.0
11.827	7.0
11.842	5.0
11.856	7.0
11.871	16.0
11.886	14.0
11.901	6.0
11.916	12.0
11.931	10.0
11.946	10.0
11.961	10.0
11.976	8.0
11.991	11.0
12.006	5.0
12.02	13.0
12.035	7.0
12.05	17.0
12.065	9.0
12.08	5.0
12.095	9.0
12.11	9.0
12.125	13.0
12.14	9.0
12.155	11.0
12.17	10.0
12.184	7.0
12.199	7.0
12.214	13.0
12.229	9.0
12.244	10.0
12.259	9.0
12.274	7.0
12.289	18.0
12.304	13.0
12.319	12.0
12.334	7.0
12.348	13.0
12.363	9.0
12.378	15.0
12.393	12.0
12.408	8.0
12.423	16.0
12.438	5.0
12.453	13.0
12.468	10.0
12.483	6.0
12.498	13.0
12.513	12.0
12.527	12.0
12.542	14.0
12.557	19.0
12.572	9.0
12.587	10.0
12.602	8.0
12.617	16.0
12.632	11.0
12.647	9.0
12.662	12.0
12.677	16.0
12.692	10.0
12.707	11.0
12.721	15.0
12.736	15.0
12.751	16.0
12.766	11.0
12.781	14.0
12.796	8.0
12.811	13.0
12.826	11.0
12.841	19.0
12.856	13.0
12.871	17.0
12.886	10.0
12.9	10.0
12.915	11.0
12.93	26.0
12.945	24.0
12.96	11.0
12.975	15.0
12.99	17.0
13.005	13.0
13.02	9.0
13.035	15.0
13.05	19.0
13.065	20.0
13.08	15.0
13.094	18.0
13.109	20.0
13.124	17.0
13.139	17.0
13.154	15.0
13.169	16.0
13.184	21.0
13.199	21.0
13.214	20.0
13.229	19.0
13.244	16.0
13.259	20.0
13.274	27.0
13.288	22.0
13.303	25.0
13.318	20.0
13.333	25.0
13.348	19.0
13.363	25.0
13.378	20.0
13.393	35.0
13.408	21.0
13.423	19.0
13.438	31.0
13.453	35.0
13.468	38.0
13.482	39.0
13.497	36.0
13.512	53.0
13.527	58.0
13.542	53.0
13.557	55.0
13.572	44.0
13.587	58.0
13.602	54.0
13.617	52.0
13.632	61.0
13.647	65.0
13.662	75.0
13.677	88.0
13.691	97.0
13.706	94.0
13.721	113.0
13.736	114.0
13.751	106.0
13.766	105.0
13.781	128.0
13.796	130.0
13.811	106.0
13.826	134.0
13.841	121.0
13.856	115.0
13.871	120.0
13.885	100.0
13.9	94.0
13.915	95.0
13.93	73.0
13.945	67.0
13.96	47.0
13.975	49.0
13.99	40.0
14.005	35.0
14.02	37.0
14.035	34.0
14.05	30.0
14.065	29.0
14.08	24.0
14.094	28.0
14.109	21.0
14.124	27.0
14.139	19.0
14.154	24.0
14.169	19.0
14.184	23.0
14.199	20.0
14.214	32.0
14.229	23.0
14.244	22.0
14.259	22.0
14.274	18.0
14.288	13.0
14.303	23.0
14.318	15.0
14.333	18.0
14.348	16.0
14.363	30.0
14.378	19.0
14.393	12.0
14.408	24.0
14.423	18.0
14.438	16.0
14.453	17.0
14.468	16.0
14.482	26.0
14.497	11.0
14.512	20.0
14.527	21.0
14.542	10.0
14.557	20.0
14.572	12.0
14.587	14.0
14.602	19.0
14.617	25.0
14.632	20.0
14.647	14.0
14.661	18.0
14.676	19.0
14.691	17.0
14.706	13.0
14.721	20.0
14.736	16.0
14.751	14.0
14.766	18.0
14.781	17.0
14.796	10.0
14.811	10.0
14.826	17.0
14.84	14.0
14.855	13.0
14.87	21.0
14.885	19.0
14.9	22.0
14.915	22.0
14.93	13.0
14.945	12.0
14.96	15.0
14.975	13.0
14.989	18.0
15.004	13.0
15.019	18.0
15.034	17.0
15.049	22.0
15.064	12.0
15.079	9.0
15.094	15.0
15.109	18.0
15.124	16.0
15.138	20.0
15.153	27.0
15.168	21.0
15.183	16.0
15.198	11.0
15.213	17.0
15.228	12.0
15.243	12.0
15.258	14.0
15.272	10.0
15.287	11.0
15.302	12.0
15.317	16.0
15.332	21.0
15.347	10.0
15.362	20.0
15.377	12.0
15.391	12.0
15.406	11.0
15.421	16.0
15.436	16.0
15.451	13.0
15.466	14.0
15.481	10.0
15.496	20.0
15.51	9.0
15.525	15.0
15.54	14.0
15.555	16.0
15.57	10.0
15.585	14.0
15.6	17.0
15.614	11.0
15.629	13.0
15.644	10.0
15.659	11.0
15.674	13.0
15.689	15.0
15.704	16.0
15.718	17.0
15.733	9.0
15.748	12.0
15.763	16.0
15.778	12.0
15.793	20.0
15.808	7.0
15.822	18.0
15.837	11.0
15.852	18.0
15.867	11.0
15.882	18.0
15.897	17.0
15.911	13.0
15.926	8.0
15.941	15.0
15.956	15.0
15.971	11.0
15.986	15.0
16.0	14.0
16.015	6.0
16.03	18.0
16.045	18.0
16.06	16.0
16.074	17.0
16.089	17.0
16.104	11.0
16.119	21.0
16.134	16.0
16.149	13.0
16.163	20.0
16.178	13.0
16.193	16.0
16.208	20.0
16.223	7.0
16.237	15.0
16.252	12.0
16.267	6.0
16.282	10.0
16.297	14.0
16.311	13.0
16.326	18.0
16.341	14.0
16.356	12.0
16.37	13.0
16.385	17.0
16.4	15.0
16.415	11.0
16.43	14.0
16.444	11.0
16.459	14.0
16.474	11.0
16.489	11.0
16.504	16.0
16.518	10.0
16.533	12.0
16.548	8.0
16.563	18.0
16.577	25.0
16.592	17.0
16.607	25.0
16.622	20.0
16.637	17.0
16.651	13.0
16.666	27.0
16.681	21.0
16.696	26.0
16.71	31.0
16.725	30.0
16.74	37.0
16.755	28.0
16.77	35.0
16.784	42.0
16.799	46.0
16.814	30.0
16.829	51.0
16.843	57.0
16.858	63.0
16.873	40.0
16.888	45.0
16.902	56.0
16.917	55.0
16.932	71.0
16.947	80.0
16.961	67.0
16.976	66.0
16.991	46.0
17.006	68.0
17.021	59.0
17.035	63.0
17.05	44.0
17.065	44.0
17.08	33.0
17.094	24.0
17.109	29.0
17.124	30.0
17.139	20.0
17.153	24.0
17.168	25.0
17.183	28.0
17.198	12.0
17.212	21.0
17.227	17.0
17.242	19.0
17.257	20.0
17.271	12.0
17.286	14.0
17.301	16.0
17.316	13.0
17.33	14.0
17.345	12.0
17.36	15.0
17.375	10.0
17.39	16.0
17.404	15.0
17.419	24.0
17.434	13.0
17.449	9.0
17.463	18.0
17.478	19.0
17.493	18.0
17.508	8.0
17.522	15.0
17.537	22.0
17.552	9.0
17.567	14.0
17.581	13.0
17.596	14.0
17.611	9.0
17.626	9.0
17.641	10.0
17.655	13.0
17.67	22.0
17.685	20.0
17.7	8.0
17.714	7.0
17.729	13.0
17.744	14.0
17.759	10.0
17.773	19.0
17.788	6.0
17.803	6.0
17.818	12.0
17.833	9.0
17.847	9.0
17.862	12.0
17.877	11.0
17.892	10.0
17.906	11.0
17.921	10.0
17.936	17.0
17.951	14.0
17.966	11.0
17.98	14.0
17.995	12.0
18.01	11.0
18.025	8.0
18.04	16.0
18.054	7.0
18.069	12.0
18.084	11.0
18.099	18.0
18.114	8.0
18.128	12.0
18.143	11.0
18.158	14.0
18.173	9.0
18.188	14.0
18.202	18.0
18.217	11.0
18.232	13.0
18.247	10.0
18.262	16.0
18.276	11.0
18.291	7.0
18.306	11.0
18.321	16.0
18.336	20.0
18.35	13.0
18.365	15.0
18.38	12.0
18.395	8.0
18.41	13.0
18.424	7.0
18.439	13.0
18.454	20.0
18.469	10.0
18.484	12.0
18.498	10.0
18.513	10.0
18.528	9.0
18.543	13.0
18.558	11.0
18.573	17.0
18.587	9.0
18.602	19.0
18.617	16.0
18.632	17.0
18.647	13.0
18.661	11.0
18.676	13.0
18.691	12.0
18.706	9.0
18.721	14.0
18.736	6.0
18.75	14.0
18.765	16.0
18.78	8.0
18.795	18.0
18.81	13.0
18.825	14.0
18.839	11.0
18.854	11.0
18.869	10.0
18.884	11.0
18.899	12.0
18.913	10.0
18.928	12.0
18.943	9.0
18.958	5.0
18.973	13.0
18.988	8.0
19.002	14.0
19.017	12.0
19.032	13.0
19.047	17.0
19.062	12.0
19.077	11.0
19.091	15.0
19.106	11.0
19.121	13.0
19.136	11.0
19.151	20.0
19.165	13.0
19.18	7.0
19.195	11.0
19.21	10.0
19.225	18.0
19.24	14.0
19.254	24.0
19.269	17.0
19.284	20.0
19.299	12.0
19.314	21.0
19.329	13.0
19.343	20.0
19.358	19.0
19.373	17.0
19.388	23.0
19.403	14.0
19.417	24.0
19.432	26.0
19.447	28.0
19.462	17.0
19.477	29.0
19.492	39.0
19.506	44.0
19.521	31.0
19.536	38.0
19.551	24.0
19.566	45.0
19.58	36.0
19.595	47.0
19.61	36.0
19.625	42.0
19.64	35.0
19.655	34.0
19.669	26.0
19.684	35.0
19.699	33.0
19.714	24.0
19.729	24.0
19.743	23.0
19.758	31.0
19.773	22.0
19.788	19.0
19.803	14.0
19.817	11.0
19.832	11.0
19.847	10.0
19.862	10.0
19.877	23.0
19.891	12.0
19.906	10.0
19.921	7.0
19.936	9.0
19.951	12.0
19.965	13.0
19.98	13.0
19.995	11.0
20.01	12.0
20.025	12.0
20.039	13.0
20.054	9.0
20.069	13.0
20.084	13.0
20.099	9.0
20.113	18.0
20.128	7.0
20.143	18.0
20.158	14.0
20.173	11.0
20.187	10.0
20.202	10.0
20.217	10.0
20.232	12.0
20.246	17.0
20.261	16.0
20.276	13.0
20.291	12.0
20.306	10.0
20.32	12.0
20.335	8.0
20.35	11.0
20.365	8.0
20.38	7.0
20.394	12.0
20.409	13.0
20.424	6.0
20.439	10.0
20.453	14.0
20.468	13.0
20.483	17.0
20.498	13.0
20.513	12.0
20.527	6.0
20.542	13.0
20.557	6.0
20.572	7.0
20.586	13.0
20.601	8.0
20.616	13.0
20.631	9.0
20.646	10.0
20.66	4.0
20.675	12.0
20.69	8.0
20.705	13.0
20.719	13.0
20.734	9.0
20.749	12.0
20.764	12.0
20.779	10.0
20.793	13.0
20.808	15.0
20.823	10.0
20.838	11.0
20.853	13.0
20.867	11.0
20.882	16.0
20.897	11.0
20.912	8.0
20.926	11.0
20.941	11.0
20.956	8.0
20.971	11.0
20.986	15.0
21.0	17.0
21.015	9.0
21.03	16.0
21.045	8.0
21.06	11.0
21.074	16.0
21.089	11.0
21.104	10.0
21.119	12.0
21.134	11.0
21.148	9.0
21.163	9.0
21.178	10.0
21.193	8.0
21.208	18.0
21.222	8.0
21.237	9.0
21.252	15.0
21.267	7.0
21.282	18.0
21.296	12.0
21.311	9.0
21.326	8.0
21.341	12.0
21.356	13.0
21.37	10.0
21.385	10.0
21.4	25.0
21.415	19.0
21.43	9.0
21.444	13.0
21.459	9.0
21.474	15.0
21.489	8.0
21.504	16.0
21.519	21.0
21.533	10.0
21.548	24.0
21.563	16.0
21.578	10.0
21.593	16.0
21.608	8.0
21.622	21.0
21.637	23.0
21.652	15.0
21.667	14.0
21.682	20.0
21.697	16.0
21.712	12.0
21.726	13.0
21.741	20.0
21.756	32.0
21.771	27.0
21.786	24.0
21.801	42.0
21.816	42.0
21.83	49.0
21.845	59.0
21.86	51.0
21.875	76.0
21.89	61.0
21.905	68.0
21.92	64.0
21.935	64.0
21.949	77.0
21.964	79.0
21.979	84.0
21.994	86.0
22.009	69.0
22.024	65.0
22.039	81.0
22.054	59.0
22.069	37.0
22.083	50.0
22.098	53.0
22.113	45.0
22.128	41.0
22.143	28.0
22.158	32.0
22.173	23.0
22.188	26.0
22.203	16.0
22.218	19.0
22.233	14.0
22.248	16.0
22.262	20.0
22.277	15.0
22.292	20.0
22.307	12.0
22.322	9.0
22.337	8.0
22.352	13.0
22.367	17.0
22.382	10.0
22.397	14.0
22.412	15.0
22.427	12.0
22.442	11.0
22.457	9.0
22.472	12.0
22.487	12.0
22.502	7.0
22.516	9.0
22.531	12.0
22.546	12.0
22.561	15.0
22.576	10.0
22.591	17.0
22.606	13.0
22.621	12.0
22.636	9.0
22.651	10.0
22.666	5.0
22.681	19.0
22.696	6.0
22.711	13.0
22.726	14.0
22.741	14.0
22.756	14.0
22.771	10.0
22.786	6.0
22.801	15.0
22.816	7.0
22.831	13.0
22.846	12.0
22.861	13.0
22.876	12.0
22.891	11.0
22.906	14.0
22.92	9.0
22.935	11.0
22.95	18.0
22.965	10.0
22.98	11.0
22.995	10.0
23.01	12.0
23.025	7.0
23.04	12.0
23.055	12.0
23.07	5.0
23.085	10.0
23.1	11.0
23.115	6.0
23.13	9.0
23.145	17.0
23.16	11.0
23.175	9.0
23.19	15.0
23.205	6.0
23.22	7.0
23.235	8.0
23.25	9.0
23.265	12.0
23.28	10.0
23.295	9.0
23.31	10.0
23.325	13.0
23.34	5.0
23.355	14.0
23.37	11.0
23.384	7.0
23.399	9.0
23.414	6.0
23.429	13.0
23.444	14.0
23.459	15.0
23.474	10.0
23.489	16.0
23.504	8.0
23.519	6.0
23.534	7.0
23.549	10.0
23.564	9.0
23.579	13.0
23.594	12.0
23.609	15.0
23.624	10.0
23.639	15.0
23.654	9.0
23.668	10.0
23.683	8.0
23.698	5.0
23.713	8.0
23.728	6.0
23.743	10.0
23.758	13.0
23.773	11.0
23.788	15.0
23.803	11.0
23.818	10.0
23.833	17.0
23.848	21.0
23.862	17.0
23.877	15.0
23.892	20.0
23.907	31.0
23.922	21.0
23.937	26.0
23.952	35.0
23.967	40.0
23.982	32.0
23.997	37.0
24.011	41.0
24.026	49.0
24.041	53.0
24.056	47.0
24.071	48.0
24.086	49.0
24.101	56.0
24.116	45.0
24.131	42.0
24.145	36.0
24.16	37.0
24.175	35.0
24.19	39.0
24.205	31.0
24.22	26.0
24.235	19.0
24.249	30.0
24.264	23.0
24.279	26.0
24.294	24.0
24.309	17.0
24.324	15.0
24.338	13.0
24.353	19.0
24.368	13.0
24.383	9.0
24.398	13.0
24.413	14.0
24.428	11.0
24.442	12.0
24.457	13.0
24.472	16.0
24.487	12.0
24.502	14.0
24.516	17.0
24.531	11.0
24.546	12.0
24.561	13.0
24.576	15.0
24.591	11.0
24.605	10.0
24.62	11.0
24.635	12.0
24.65	10.0
24.665	10.0
24.679	11.0
24.694	12.0
24.709	17.0
24.724	12.0
24.739	14.0
24.753	16.0
24.768	16.0
24.783	14.0
24.798	8.0
24.813	12.0
24.827	7.0
24.842	4.0
24.857	8.0
24.872	11.0
24.886	6.0
24.901	12.0
24.916	8.0
24.931	9.0
24.946	10.0
24.96	8.0
24.975	10.0
24.99	15.0
25.005	12.0
25.019	11.0
25.034	8.0
25.049	7.0
25.064	14.0
25.078	7.0
25.093	3.0
25.108	8.0
25.123	4.0
25.138	4.0
25.152	8.0
25.167	10.0
25.182	9.0
25.197	8.0
25.211	15.0
25.226	13.0
25.241	9.0
25.256	6.0
25.27	11.0
25.285	16.0
25.3	9.0
25.315	12.0
25.329	12.0
25.344	14.0
25.359	11.0
25.374	8.0
25.388	8.0
25.403	5.0
25.418	10.0
25.433	9.0
25.447	13.0
25.462	9.0
25.477	12.0
25.492	5.0
25.506	12.0
25.521	8.0
25.536	6.0
25.55	7.0
25.565	7.0
25.58	5.0
25.595	8.0
25.609	2.0
25.624	13.0
25.639	7.0
25.654	12.0
25.668	6.0
25.683	9.0
25.698	14.0
25.713	9.0
25.727	8.0
25.742	7.0
25.757	7.0
25.772	15.0
25.786	13.0
25.801	11.0
25.816	10.0
25.83	8.0
25.845	15.0
25.86	7.0
25.875	11.0
25.889	9.0
25.904	11.0
25.919	10.0
25.934	13.0
25.948	12.0
25.963	9.0
25.978	8.0
25.992	11.0
26.007	11.0
26.022	10.0
26.037	7.0
26.051	12.0
26.066	12.0
26.081	7.0
26.096	9.0
26.11	8.0
26.125	8.0
26.14	14.0
26.155	11.0
26.169	8.0
26.184	8.0
26.199	15.0
26.213	5.0
26.228	8.0
26.243	7.0
26.258	10.0
26.272	10.0
26.287	13.0
26.302	13.0
26.317	11.0
26.331	15.0
26.346	12.0
26.361	8.0
26.376	7.0
26.39	12.0
26.405	16.0
26.42	10.0
26.434	12.0
26.449	13.0
26.464	7.0
26.479	7.0
26.493	10.0
26.508	7.0
26.523	10.0
26.538	12.0
26.552	14.0
26.567	6.0
26.582	13.0
26.597	10.0
26.611	14.0
26.626	13.0
26.641	8.0
26.656	9.0
26.67	7.0
26.685	9.0
26.7	10.0
26.715	7.0
26.729	5.0
26.744	7.0
26.759	12.0
26.773	7.0
26.788	7.0
26.803	13.0
26.818	12.0
26.832	7.0
26.847	11.0
26.862	15.0
26.877	10.0
26.891	12.0
26.906	6.0
26.921	12.0
26.936	11.0
26.95	4.0
26.965	13.0
26.98	8.0
26.995	4.0
27.01	13.0
27.024	13.0
27.039	12.0
27.054	7.0
27.069	8.0
27.083	5.0
27.098	13.0
27.113	9.0
27.128	12.0
27.142	8.0
27.157	10.0
27.172	15.0
27.187	12.0
27.201	16.0
27.216	11.0
27.231	14.0
27.246	10.0
27.261	17.0
27.275	14.0
27.29	9.0
27.305	9.0
27.32	14.0
27.334	4.0
27.349	7.0
27.364	14.0
27.379	5.0
27.394	11.0
27.408	7.0
27.423	9.0
27.438	10.0
27.453	12.0
27.467	7.0
27.482	6.0
27.497	12.0
27.512	8.0
27.527	12.0
27.541	7.0
27.556	7.0
27.571	14.0
27.586	8.0
27.601	9.0
27.615	8.0
27.63	8.0
27.645	3.0
27.66	14.0
27.675	16.0
27.689	7.0
27.704	19.0
27.719	12.0
27.734	20.0
27.749	12.0
27.763	17.0
27.778	27.0
27.793	25.0
27.808	22.0
27.823	23.0
27.838	24.0
27.852	20.0
27.867	25.0
27.882	18.0
27.897	15.0
27.912	28.0
27.926	21.0
27.941	32.0
27.956	26.0
27.971	18.0
27.986	19.0
28.001	12.0
28.015	20.0
28.03	14.0
28.045	24.0
28.06	10.0
28.075	17.0
28.09	10.0
28.105	11.0
28.119	13.0
28.134	8.0
28.149	14.0
28.164	9.0
28.179	10.0
28.194	8.0
28.208	17.0
28.223	10.0
28.238	17.0
28.253	12.0
28.268	9.0
28.283	10.0
28.298	15.0
28.312	11.0
28.327	17.0
28.342	8.0
28.357	10.0
28.372	16.0
28.387	8.0
28.402	13.0
28.417	12.0
28.431	9.0
28.446	6.0
28.461	11.0
28.476	10.0
28.491	16.0
28.506	12.0
28.521	10.0
28.536	4.0
28.55	12.0
28.565	8.0
28.58	10.0
28.595	10.0
28.61	6.0
28.625	18.0
28.64	10.0
28.655	8.0
28.669	10.0
28.684	10.0
28.699	11.0
28.714	11.0
28.729	3.0
28.744	13.0
28.759	13.0
28.774	12.0
28.788	10.0
28.803	7.0
28.818	9.0
28.833	14.0
28.848	10.0
28.863	10.0
28.878	9.0
28.893	9.0
28.908	15.0
28.922	9.0
28.937	7.0
28.952	11.0
28.967	6.0
28.982	15.0
28.997	10.0
29.012	7.0
29.027	12.0
29.041	7.0
29.056	11.0
29.071	13.0
29.086	6.0
29.101	11.0
29.116	7.0
29.131	10.0
29.146	11.0
29.16	15.0
29.175	10.0
29.19	8.0
29.205	7.0
29.22	11.0
29.235	8.0
29.25	12.0
29.265	10.0
29.279	17.0
29.294	15.0
29.309	12.0
29.324	13.0
29.339	8.0
29.354	16.0
29.369	15.0
29.384	15.0
29.398	10.0
29.413	20.0
29.428	19.0
29.443	24.0
29.458	19.0
29.473	20.0
29.488	25.0
29.502	16.0
29.517	42.0
29.532	46.0
29.547	53.0
29.562	37.0
29.577	44.0
29.592	62.0
29.606	49.0
29.621	43.0
29.636	57.0
29.651	58.0
29.666	42.0
29.681	44.0
29.695	29.0
29.71	35.0
29.725	29.0
29.74	41.0
29.755	34.0
29.77	25.0
29.784	31.0
29.799	26.0
29.814	31.0
29.829	30.0
29.844	31.0
29.859	18.0
29.873	14.0
29.888	19.0
29.903	18.0
29.918	20.0
29.933	17.0
29.947	15.0
29.962	11.0
29.977	15.0
29.992	11.0
30.007	14.0
30.021	13.0
30.036	12.0
30.051	10.0
30.066	17.0
30.081	10.0
30.095	8.0
30.11	9.0
30.125	10.0
30.14	10.0
30.155	16.0
30.169	14.0
30.184	12.0
30.199	12.0
30.214	8.0
30.228	9.0
30.243	11.0
30.258	5.0
30.273	13.0
30.288	11.0
30.302	11.0
30.317	11.0
30.332	16.0
30.347	10.0
30.361	18.0
30.376	9.0
30.391	5.0
30.406	5.0
30.42	11.0
30.435	11.0
30.45	7.0
30.465	17.0
30.479	11.0
30.494	13.0
30.509	11.0
30.524	12.0
30.538	13.0
30.553	10.0
30.568	10.0
30.583	11.0
30.597	4.0
30.612	15.0
30.627	11.0
30.641	14.0
30.656	8.0
30.671	10.0
30.686	12.0
30.7	11.0
30.715	9.0
30.73	7.0
30.745	9.0
30.759	12.0
30.774	10.0
30.789	12.0
30.803	12.0
30.818	10.0
30.833	6.0
30.848	8.0
30.862	12.0
30.877	7.0
30.892	8.0
30.906	10.0
30.921	8.0
30.936	11.0
30.951	17.0
30.965	9.0
30.98	9.0
30.995	13.0
31.009	8.0
31.024	18.0
31.039	10.0
31.053	18.0
31.068	8.0
31.083	17.0
31.098	21.0
31.112	15.0
31.127	25.0
31.142	26.0
31.156	32.0
31.171	25.0
31.186	39.0
31.2	34.0
31.215	32.0
31.23	28.0
31.245	33.0
31.259	42.0
31.274	36.0
31.289	36.0
31.303	25.0
31.318	38.0
31.333	30.0
31.347	22.0
31.362	28.0
31.377	35.0
31.392	32.0
31.406	24.0
31.421	14.0
31.436	21.0
31.45	20.0
31.465	35.0
31.48	21.0
31.494	23.0
31.509	24.0
31.524	16.0
31.538	20.0
31.553	17.0
31.568	12.0
31.583	12.0
31.597	11.0
31.612	8.0
31.627	13.0
31.641	13.0
31.656	4.0
31.671	10.0
31.685	10.0
31.7	8.0
31.715	7.0
31.729	10.0
31.744	14.0
31.759	13.0
31.774	7.0
31.788	10.0
31.803	12.0
31.818	8.0
31.832	8.0
31.847	14.0
31.862	8.0
31.876	10.0
31.891	12.0
31.906	5.0
31.92	10.0
31.935	18.0
31.95	17.0
31.965	5.0
31.979	7.0
31.994	12.0
32.009	9.0
32.023	9.0
32.038	12.0
32.053	6.0
32.067	12.0
32.082	16.0
32.097	4.0
32.112	12.0
32.126	7.0
32.141	7.0
32.156	5.0
32.17	7.0
32.185	13.0
32.2	20.0
32.214	7.0
32.229	9.0
32.244	8.0
32.259	13.0
32.273	9.0
32.288	10.0
32.303	12.0
32.317	8.0
32.332	5.0
32.347	9.0
32.362	11.0
32.376	13.0
32.391	11.0
32.406	11.0
32.42	20.0
32.435	12.0
32.45	7.0
32.465	5.0
32.479	11.0
32.494	6.0
32.509	13.0
32.523	9.0
32.538	5.0
32.553	13.0
32.568	7.0
32.582	9.0
32.597	15.0
32.612	11.0
32.627	11.0
32.641	18.0
32.656	14.0
32.671	14.0
32.685	19.0
32.7	17.0
32.715	13.0
32.73	13.0
32.744	26.0
32.759	25.0
32.774	25.0
32.788	25.0
32.803	28.0
32.818	25.0
32.833	27.0
32.847	29.0
32.862	29.0
32.877	23.0
32.892	25.0
32.906	34.0
32.921	14.0
32.936	18.0
32.951	16.0
32.965	12.0
32.98	26.0
32.995	20.0
33.009	19.0
33.024	12.0
33.039	21.0
33.054	17.0
33.068	18.0
33.083	13.0
33.098	19.0
33.113	12.0
33.127	10.0
33.142	17.0
33.157	12.0
33.172	9.0
33.186	13.0
33.201	17.0
33.216	11.0
33.231	7.0
33.245	12.0
33.26	10.0
33.275	9.0
33.29	9.0
33.304	13.0
33.319	8.0
33.334	10.0
33.349	12.0
33.363	4.0
33.378	10.0
33.393	13.0
33.408	8.0
33.422	4.0
33.437	13.0
33.452	12.0
33.467	6.0
33.481	10.0
33.496	8.0
33.511	7.0
33.526	22.0
33.54	6.0
33.555	10.0
33.57	15.0
33.585	12.0
33.599	11.0
33.614	9.0
33.629	6.0
33.644	7.0
33.658	10.0
33.673	6.0
33.688	5.0
33.703	6.0
33.718	7.0
33.732	7.0
33.747	12.0
33.762	12.0
33.777	4.0
33.791	7.0
33.806	4.0
33.821	13.0
33.836	8.0
33.85	10.0
33.865	15.0
33.88	7.0
33.895	11.0
33.91	10.0
33.924	10.0
33.939	11.0
33.954	8.0
33.969	9.0
33.983	9.0
33.998	13.0
34.013	5.0
34.028	8.0
34.042	5.0
34.057	11.0
34.072	15.0
34.087	10.0
34.102	9.0
34.116	10.0
34.131	10.0
34.146	14.0
34.161	12.0
34.175	9.0
34.19	18.0
34.205	14.0
34.22	10.0
34.235	12.0
34.249	7.0
34.264	14.0
34.279	22.0
34.294	8.0
34.309	9.0
34.323	12.0
34.338	9.0
34.353	20.0
34.368	13.0
34.382	9.0
34.397	13.0
34.412	12.0
34.427	12.0
34.442	13.0
34.456	17.0
34.471	12.0
34.486	11.0
34.501	11.0
34.516	12.0
34.53	8.0
34.545	9.0
34.56	8.0
34.575	11.0
34.59	10.0
34.604	5.0
34.619	10.0
34.634	8.0
34.649	8.0
34.664	10.0
34.678	8.0
34.693	14.0
34.708	12.0
34.723	9.0
34.738	12.0
34.752	8.0
34.767	12.0
34.782	14.0
34.797	10.0
34.812	10.0
34.826	13.0
34.841	9.0
34.856	13.0
34.871	11.0
34.886	9.0
34.9	11.0
34.915	9.0
34.93	6.0
34.945	7.0
34.96	8.0
34.974	5.0
34.989	8.0
35.004	7.0
35.019	7.0
35.034	3.0
35.048	5.0
35.063	17.0
35.078	11.0
35.093	9.0
35.108	5.0
35.122	7.0
35.137	10.0
35.152	11.0
35.167	8.0
35.182	6.0
35.196	5.0
35.211	11.0
35.226	7.0
35.241	13.0
35.256	10.0
35.27	9.0
35.285	6.0
35.3	10.0
35.315	15.0
35.33	9.0
35.344	12.0
35.359	7.0
35.374	4.0
35.389	9.0
35.404	9.0
35.418	6.0
35.433	11.0
35.448	8.0
35.463	11.0
35.478	5.0
35.493	9.0
35.507	8.0
35.522	3.0
35.537	10.0
35.552	8.0
35.567	11.0
35.581	8.0
35.596	7.0
35.611	13.0
35.626	7.0
35.641	9.0
35.655	15.0
35.67	17.0
35.685	18.0
35.7	15.0
35.715	19.0
35.729	17.0
35.744	22.0
35.759	15.0
35.774	23.0
35.789	20.0
35.804	17.0
35.818	11.0
35.833	19.0
35.848	20.0
35.863	12.0
35.878	17.0
35.892	7.0
35.907	21.0
35.922	14.0
35.937	17.0
35.952	15.0
35.966	17.0
35.981	12.0
35.996	11.0
36.011	11.0
36.026	11.0
36.04	11.0
36.055	11.0
36.07	13.0
36.085	11.0
36.1	17.0
36.114	9.0
36.129	11.0
36.144	15.0
36.159	8.0
36.174	9.0
36.189	8.0
36.203	8.0
36.218	13.0
36.233	12.0
36.248	7.0
36.263	8.0
36.277	6.0
36.292	6.0
36.307	7.0
36.322	9.0
36.337	6.0
36.351	11.0
36.366	3.0
36.381	8.0
36.396	5.0
36.411	14.0
36.426	6.0
36.44	12.0
36.455	6.0
36.47	7.0
36.485	9.0
36.5	7.0
36.514	7.0
36.529	5.0
36.544	9.0
36.559	12.0
36.574	5.0
36.589	8.0
36.603	7.0
36.618	10.0
36.633	13.0
36.648	7.0
36.663	8.0
36.677	7.0
36.692	7.0
36.707	9.0
36.722	8.0
36.737	12.0
36.752	5.0
36.766	7.0
36.781	3.0
36.796	4.0
36.811	11.0
36.826	9.0
36.841	3.0
36.855	7.0
36.87	13.0
36.885	11.0
36.9	7.0
36.915	5.0
36.93	8.0
36.944	10.0
36.959	9.0
36.974	14.0
36.989	12.0
37.004	10.0
37.019	12.0
37.033	9.0
37.048	14.0
37.063	12.0
37.078	16.0
37.093	13.0
37.108	25.0
37.123	19.0
37.137	24.0
37.152	25.0
37.167	23.0
37.182	29.0
37.197	20.0
37.212	28.0
37.226	21.0
37.241	22.0
37.256	18.0
37.271	18.0
37.286	19.0
37.301	13.0
37.316	15.0
37.331	25.0
37.345	13.0
37.36	20.0
37.375	29.0
37.39	19.0
37.405	19.0
37.42	26.0
37.435	8.0
37.45	14.0
37.464	19.0
37.479	14.0
37.494	18.0
37.509	7.0
37.524	7.0
37.539	10.0
37.554	10.0
37.569	6.0
37.583	10.0
37.598	5.0
37.613	5.0
37.628	6.0
37.643	6.0
37.658	4.0
37.673	12.0
37.688	7.0
37.703	4.0
37.718	10.0
37.733	5.0
37.747	4.0
37.762	8.0
37.777	8.0
37.792	9.0
37.807	5.0
37.822	7.0
37.837	4.0
37.852	3.0
37.867	0.0
37.882	10.0
37.897	7.0
37.912	9.0
37.927	6.0
37.941	3.0
37.956	12.0
37.971	11.0
37.986	6.0
38.001	5.0
38.016	4.0
38.031	8.0
38.046	5.0
38.061	4.0
38.076	8.0
38.091	7.0
38.106	7.0
38.121	6.0
38.136	4.0
38.151	8.0
38.166	10.0
38.181	4.0
38.196	10.0
38.211	5.0
38.226	7.0
38.241	10.0
38.256	8.0
38.271	7.0
38.285	9.0
38.3	6.0
38.315	7.0
38.33	5.0
38.345	5.0
38.36	10.0
38.375	6.0
38.39	3.0
38.405	9.0
38.42	7.0
38.435	4.0
38.45	8.0
38.465	7.0
38.48	11.0
38.495	3.0
38.51	7.0
38.525	7.0
38.54	7.0
38.555	4.0
38.57	5.0
38.585	4.0
38.6	9.0
38.615	9.0
38.63	6.0
38.645	6.0
38.66	8.0
38.675	7.0
38.69	7.0
38.705	8.0
38.72	4.0
38.735	5.0
38.75	5.0
38.765	11.0
38.78	6.0
38.795	6.0
38.81	8.0
38.825	6.0
38.84	7.0
38.855	4.0
38.87	5.0
38.885	7.0
38.9	9.0
38.915	2.0
38.93	8.0
38.945	4.0
38.96	8.0
38.975	4.0
38.99	5.0
39.005	6.0
39.02	7.0
39.035	7.0
39.05	6.0
39.065	6.0
39.08	4.0
39.095	4.0
39.11	6.0
39.125	3.0
39.14	8.0
39.155	6.0
39.17	6.0
39.185	5.0
39.2	7.0
39.215	3.0
39.23	4.0
39.245	5.0
39.26	6.0
39.275	5.0
39.29	3.0
39.305	6.0
39.32	7.0
39.335	6.0
39.35	7.0
39.365	4.0
39.38	11.0
39.395	5.0
39.409	9.0
39.424	10.0
39.439	3.0
39.454	12.0
39.469	8.0
39.484	6.0
39.499	4.0
39.514	6.0
39.529	6.0
39.544	5.0
39.559	9.0
39.574	8.0
39.589	4.0
39.604	8.0
39.619	11.0
39.634	7.0
39.649	7.0
39.664	10.0
39.678	6.0
39.693	7.0
39.708	10.0
39.723	6.0
39.738	8.0
39.753	3.0
39.768	7.0
39.783	14.0
39.798	8.0
39.813	5.0
39.827	9.0
39.842	14.0
39.857	7.0
39.872	17.0
39.887	11.0
39.902	6.0
39.917	7.0
39.932	8.0
39.947	4.0
39.961	8.0
39.976	6.0
39.991	5.0
40.006	15.0
40.021	10.0
40.036	9.0
40.051	7.0
40.065	12.0
40.08	12.0
40.095	5.0
40.11	5.0
40.125	3.0
40.14	4.0
40.154	5.0
40.169	4.0
40.184	4.0
40.199	6.0
40.214	2.0
40.228	8.0
40.243	5.0
40.258	6.0
40.273	3.0
40.288	4.0
40.302	5.0
40.317	5.0
40.332	11.0
40.347	8.0
40.362	6.0
40.376	9.0
40.391	7.0
40.406	2.0
40.421	3.0
40.436	5.0
40.45	5.0
40.465	9.0
40.48	6.0
40.495	6.0
40.509	12.0
40.524	3.0
40.539	9.0
40.554	4.0
40.568	2.0
40.583	4.0
40.598	9.0
40.613	9.0
40.627	7.0
40.642	7.0
40.657	8.0
40.672	8.0
40.686	7.0
40.701	4.0
40.716	4.0
40.731	5.0
40.745	3.0
40.76	5.0
40.775	4.0
40.79	5.0
40.804	5.0
40.819	9.0
40.834	3.0
40.849	5.0
40.863	4.0
40.878	8.0
40.893	2.0
40.907	10.0
40.922	4.0
40.937	9.0
40.952	9.0
40.966	7.0
40.981	12.0
40.996	6.0
41.011	9.0
41.025	8.0
41.04	12.0
41.055	6.0
41.069	11.0
41.084	21.0
41.099	6.0
41.114	12.0
41.128	17.0
41.143	14.0
41.158	19.0
41.173	18.0
41.187	24.0
41.202	17.0
41.217	14.0
41.231	16.0
41.246	9.0
41.261	10.0
41.276	4.0
41.29	12.0
41.305	17.0
41.32	12.0
41.335	8.0
41.349	13.0
41.364	5.0
41.379	12.0
41.393	17.0
41.408	14.0
41.423	16.0
41.438	11.0
41.452	10.0
41.467	14.0
41.482	14.0
41.497	5.0
41.511	8.0
41.526	9.0
41.541	7.0
41.556	5.0
41.57	5.0
41.585	4.0
41.6	6.0
41.615	11.0
41.629	5.0
41.644	6.0
41.659	5.0
41.674	2.0
41.688	6.0
41.703	5.0
41.718	11.0
41.733	5.0
41.747	4.0
41.762	11.0
41.777	10.0
41.792	5.0
41.806	4.0
41.821	4.0
41.836	7.0
41.851	8.0
41.866	6.0
41.88	1.0
41.895	6.0
41.91	10.0
41.925	5.0
41.939	8.0
41.954	9.0
41.969	8.0
41.984	6.0
41.999	5.0
42.013	5.0
42.028	1.0
42.043	5.0
42.058	7.0
42.073	3.0
42.088	3.0
42.102	4.0
42.117	9.0
42.132	5.0
42.147	6.0
42.162	5.0
42.176	6.0
42.191	5.0
42.206	7.0
42.221	7.0
42.236	8.0
42.251	8.0
42.266	9.0
42.28	8.0
42.295	2.0
42.31	19.0
42.325	14.0
42.34	9.0
42.355	17.0
42.369	13.0
42.384	15.0
42.399	18.0
42.414	17.0
42.429	16.0
42.444	13.0
42.459	17.0
42.474	10.0
42.488	18.0
42.503	5.0
42.518	14.0
42.533	11.0
42.548	7.0
42.563	12.0
42.578	8.0
42.593	6.0
42.608	9.0
42.622	8.0
42.637	11.0
42.652	7.0
42.667	16.0
42.682	17.0
42.697	11.0
42.712	14.0
42.727	10.0
42.742	6.0
42.757	3.0
42.772	10.0
42.786	8.0
42.801	6.0
42.816	11.0
42.831	2.0
42.846	4.0
42.861	12.0
42.876	5.0
42.891	9.0
42.906	7.0
42.921	10.0
42.936	6.0
42.951	7.0
42.966	5.0
42.981	7.0
42.996	6.0
43.011	6.0
43.025	4.0
43.04	9.0
43.055	9.0
43.07	3.0
43.085	8.0
43.1	4.0
43.115	4.0
43.13	4.0
43.145	9.0
43.16	6.0
43.175	6.0
43.19	4.0
43.205	5.0
43.22	8.0
43.235	8.0
43.25	2.0
43.265	5.0
43.28	5.0
43.295	6.0
43.31	3.0
43.325	3.0
43.34	7.0
43.355	8.0
43.37	5.0
43.385	8.0
43.4	4.0
43.415	5.0
43.43	8.0
43.445	8.0
43.46	13.0
43.475	10.0
43.49	8.0
43.505	8.0
43.52	5.0
43.535	6.0
43.55	6.0
43.565	4.0
43.58	11.0
43.595	13.0
43.61	13.0
43.625	6.0
43.64	6.0
43.655	15.0
43.67	8.0
43.685	7.0
43.7	6.0
43.715	6.0
43.73	6.0
43.745	12.0
43.76	4.0
43.775	3.0
43.79	6.0
43.805	4.0
43.82	7.0
43.835	4.0
43.85	9.0
43.865	8.0
43.88	9.0
43.895	6.0
43.91	4.0
43.925	13.0
43.94	5.0
43.955	5.0
43.97	2.0
43.985	5.0
44.0	8.0
44.015	6.0
44.03	2.0
44.045	3.0
44.061	6.0
44.076	5.0
44.091	2.0
44.106	6.0
44.121	2.0
44.136	3.0
44.151	3.0
44.166	5.0
44.181	5.0
44.196	5.0
44.211	7.0
44.226	7.0
44.241	7.0
44.256	2.0
44.271	6.0
44.286	2.0
44.301	8.0
44.316	4.0
44.331	6.0
44.346	7.0
44.361	9.0
44.377	8.0
44.392	5.0
44.407	5.0
44.422	8.0
44.437	5.0
44.452	8.0
44.467	3.0
44.482	10.0
44.497	7.0
44.512	5.0
44.527	3.0
44.542	8.0
44.557	3.0
44.572	3.0
44.587	5.0
44.602	6.0
44.617	11.0
44.632	3.0
44.647	4.0
44.663	8.0
44.678	12.0
44.693	11.0
44.708	8.0
44.723	6.0
44.738	13.0
44.753	8.0
44.768	13.0
44.783	12.0
44.798	12.0
44.813	14.0
44.828	12.0
44.843	13.0
44.858	13.0
44.873	12.0
44.888	7.0
44.903	6.0
44.918	12.0
44.933	4.0
44.948	7.0
44.964	7.0
44.979	8.0
44.994	5.0
45.009	6.0
45.024	5.0
45.039	4.0
45.054	7.0
45.069	10.0
45.084	7.0
45.099	9.0
45.114	4.0
45.129	9.0
45.144	3.0
45.159	10.0
45.174	9.0
45.189	6.0
45.204	5.0
45.219	2.0
45.234	3.0
45.249	8.0
45.264	9.0
45.279	2.0
45.294	4.0
45.309	4.0
45.324	4.0
45.339	6.0
45.354	9.0
45.369	3.0
45.384	8.0
45.399	9.0
45.414	9.0
45.429	2.0
45.444	4.0
45.459	6.0
45.474	8.0
45.489	3.0
45.504	3.0
45.519	6.0
45.534	2.0
45.549	2.0
45.564	9.0
45.579	5.0
45.594	6.0
45.609	5.0
45.624	2.0
45.639	4.0
45.654	5.0
45.669	5.0
45.684	12.0
45.699	6.0
45.714	4.0
45.729	8.0
45.744	12.0
45.759	4.0
45.774	7.0
45.789	6.0
45.804	5.0
45.819	6.0
45.834	6.0
45.849	9.0
45.864	6.0
45.879	5.0
45.894	4.0
45.909	14.0
45.924	14.0
45.939	9.0
45.954	24.0
45.969	17.0
45.984	15.0
45.998	11.0
46.013	17.0
46.028	8.0
46.043	20.0
46.058	16.0
46.073	13.0
46.088	11.0
46.103	10.0
46.118	8.0
46.133	3.0
46.148	9.0
46.163	9.0
46.178	14.0
46.192	6.0
46.207	14.0
46.222	13.0
46.237	13.0
46.252	13.0
46.267	12.0
46.282	10.0
46.297	14.0
46.312	13.0
46.327	6.0
46.341	12.0
46.356	12.0
46.371	6.0
46.386	2.0
46.401	2.0
46.416	6.0
46.431	4.0
46.446	5.0
46.46	4.0
46.475	4.0
46.49	8.0
46.505	3.0
46.52	11.0
46.535	4.0
46.55	7.0
46.564	3.0
46.579	5.0
46.594	9.0
46.609	5.0
46.624	1.0
46.639	1.0
46.654	2.0
46.668	5.0
46.683	5.0
46.698	8.0
46.713	5.0
46.728	4.0
46.743	2.0
46.758	5.0
46.772	5.0
46.787	7.0
46.802	6.0
46.817	4.0
46.832	5.0
46.847	2.0
46.861	6.0
46.876	3.0
46.891	6.0
46.906	5.0
46.921	5.0
46.936	2.0
46.95	5.0
46.965	9.0
46.98	4.0
46.995	5.0
47.01	2.0
47.025	4.0
47.039	6.0
47.054	6.0
47.069	7.0
47.084	11.0
47.099	9.0
47.113	6.0
47.128	7.0
47.143	7.0
47.158	9.0
47.173	13.0
47.188	5.0
47.202	6.0
47.217	9.0
47.232	8.0
47.247	4.0
47.262	7.0
47.277	8.0
47.291	5.0
47.306	9.0
47.321	3.0
47.336	4.0
47.351	6.0
47.365	11.0
47.38	10.0
47.395	9.0
47.41	6.0
47.425	7.0
47.44	7.0
47.454	8.0
47.469	10.0
47.484	6.0
47.499	9.0
47.514	5.0
47.528	7.0
47.543	6.0
47.558	6.0
47.573	4.0
47.588	3.0
47.603	10.0
47.617	6.0
47.632	6.0
47.647	4.0
47.662	4.0
47.677	5.0
47.691	3.0
47.706	4.0
47.721	3.0
47.736	6.0
47.751	4.0
47.766	3.0
47.78	6.0
47.795	4.0
47.81	5.0
47.825	6.0
47.84	4.0
47.855	4.0
47.869	6.0
47.884	5.0
47.899	5.0
47.914	3.0
47.929	5.0
47.944	4.0
47.958	2.0
47.973	6.0
47.988	4.0
48.003	3.0
48.018	7.0
48.033	3.0
48.047	4.0
48.062	3.0
48.077	6.0
48.092	1.0
48.107	9.0
48.122	1.0
48.137	3.0
48.151	6.0
48.166	5.0
48.181	3.0
48.196	7.0
48.211	7.0
48.226	7.0
48.241	8.0
48.255	1.0
48.27	2.0
48.285	5.0
48.3	4.0
48.315	3.0
48.33	6.0
48.345	5.0
48.359	2.0
48.374	6.0
48.389	2.0
48.404	5.0
48.419	6.0
48.434	3.0
48.449	7.0
48.464	7.0
48.478	6.0
48.493	4.0
48.508	3.0
48.523	8.0
48.538	2.0
48.553	2.0
48.568	3.0
48.583	5.0
48.597	2.0
48.612	9.0
48.627	9.0
48.642	1.0
48.657	4.0
48.672	3.0
48.687	2.0
48.702	5.0
48.717	6.0
48.731	3.0
48.746	7.0
48.761	2.0
48.776	9.0
48.791	4.0
48.806	4.0
48.821	1.0
48.836	12.0
48.851	4.0
48.866	6.0
48.88	8.0
48.895	9.0
48.91	3.0
48.925	11.0
48.94	11.0
48.955	5.0
48.97	9.0
48.985	5.0
49.0	8.0
49.015	4.0
49.03	3.0
49.044	7.0
49.059	7.0
49.074	4.0
49.089	8.0
49.104	3.0
49.119	3.0
49.134	6.0
49.149	4.0
49.164	9.0
49.179	3.0
49.194	5.0
49.209	7.0
49.224	5.0
49.238	6.0
49.253	5.0
49.268	8.0
49.283	5.0
49.298	5.0
49.313	5.0
49.328	3.0
49.343	6.0
49.358	9.0
49.373	7.0
49.388	8.0
49.403	7.0
49.418	8.0
49.433	4.0
49.448	6.0
49.463	6.0
49.478	1.0
49.492	8.0
49.507	6.0
49.522	2.0
49.537	6.0
49.552	7.0
49.567	6.0
49.582	4.0
49.597	6.0
49.612	4.0
49.627	5.0
49.642	3.0
49.657	8.0
49.672	10.0
49.687	6.0
49.702	5.0
49.717	2.0
49.732	3.0
49.747	4.0
49.762	11.0
49.777	5.0
49.792	7.0
49.807	10.0
49.822	7.0
49.837	4.0
49.852	6.0
49.867	6.0
49.882	5.0
49.897	5.0
49.912	7.0
49.927	4.0
49.942	7.0
49.957	8.0
49.971	8.0
49.986	0.0
50.001	4.0
50.016	4.0
50.031	6.0
50.046	6.0
50.061	3.0
50.076	6.0
50.091	5.0
50.106	5.0
50.121	4.0
50.136	6.0
50.151	7.0
50.166	9.0
50.181	6.0
50.196	5.0
50.211	3.0
50.226	1.0
50.241	6.0
50.256	3.0
50.271	5.0
50.286	4.0
50.302	8.0
50.317	9.0
50.332	4.0
50.347	10.0
50.362	7.0
50.377	4.0
50.392	5.0
50.407	9.0
50.422	11.0
50.437	7.0
50.452	10.0
50.467	6.0
50.482	8.0
50.497	7.0
50.512	6.0
50.527	7.0
50.542	11.0
50.557	8.0
50.572	8.0
50.587	4.0
50.602	5.0
50.617	5.0
50.632	7.0
50.647	7.0
50.662	2.0
50.677	1.0
50.692	9.0
50.707	4.0
50.722	5.0
50.737	5.0
50.752	4.0
50.767	4.0
50.782	5.0
50.797	8.0
50.812	6.0
50.828	8.0
50.843	6.0
50.858	11.0
50.873	9.0
50.888	5.0
50.903	5.0
50.918	3.0
50.933	2.0
50.948	3.0
50.963	2.0
50.978	3.0
50.993	3.0
51.008	6.0
51.023	4.0
51.038	8.0
51.053	5.0
51.068	3.0
51.083	3.0
51.098	1.0
51.114	6.0
51.129	4.0
51.144	6.0
51.159	3.0
51.174	8.0
51.189	2.0
51.204	2.0
51.219	8.0
51.234	4.0
51.249	5.0
51.264	8.0
51.279	4.0
51.294	9.0
51.309	5.0
51.324	1.0
51.34	1.0
51.355	10.0
51.37	3.0
51.385	7.0
51.4	7.0
51.415	9.0
51.43	13.0
51.445	12.0
51.46	8.0
51.475	15.0
51.49	16.0
51.505	10.0
51.52	13.0
51.535	16.0
51.551	13.0
51.566	17.0
51.581	6.0
51.596	9.0
51.611	9.0
51.626	13.0
51.641	13.0
51.656	5.0
51.671	7.0
51.686	5.0
51.701	6.0
51.716	10.0
51.732	6.0
51.747	9.0
51.762	7.0
51.777	8.0
51.792	7.0
51.807	15.0
51.822	7.0
51.837	11.0
51.852	10.0
51.867	12.0
51.882	11.0
51.898	7.0
51.913	12.0
51.928	9.0
51.943	8.0
51.958	8.0
51.973	7.0
51.988	5.0
52.003	7.0
52.018	2.0
52.033	8.0
52.048	3.0
52.064	3.0
52.079	8.0
52.094	4.0
52.109	3.0
52.124	7.0
52.139	3.0
52.154	6.0
52.169	5.0
52.184	5.0
52.199	4.0
52.215	3.0
52.23	5.0
52.245	6.0
52.26	7.0
52.275	2.0
52.29	8.0
52.305	5.0
52.32	3.0
52.335	8.0
52.35	7.0
52.366	7.0
52.381	6.0
52.396	5.0
52.411	7.0
52.426	3.0
52.441	4.0
52.456	5.0
52.471	8.0
52.486	10.0
52.502	15.0
52.517	8.0
52.532	5.0
52.547	8.0
52.562	13.0
52.577	6.0
52.592	9.0
52.607	11.0
52.622	5.0
52.637	7.0
52.653	9.0
52.668	6.0
52.683	8.0
52.698	5.0
52.713	6.0
52.728	3.0
52.743	7.0
52.758	4.0
52.774	3.0
52.789	5.0
52.804	7.0
52.819	7.0
52.834	7.0
52.849	1.0
52.864	10.0
52.879	12.0
52.894	11.0
52.91	10.0
52.925	6.0
52.94	10.0
52.955	5.0
52.97	3.0
52.985	8.0
53.0	6.0
53.015	10.0
53.031	4.0
53.046	5.0
53.061	3.0
53.076	7.0
53.091	4.0
53.106	3.0
53.121	3.0
53.136	0.0
53.152	2.0
53.167	7.0
53.182	6.0
53.197	5.0
53.212	6.0
53.227	8.0
53.242	3.0
53.257	1.0
53.273	9.0
53.288	9.0
53.303	7.0
53.318	4.0
53.333	3.0
53.348	6.0
53.363	1.0
53.379	6.0
53.394	5.0
53.409	4.0
53.424	7.0
53.439	9.0
53.454	0.0
53.469	3.0
53.484	9.0
53.5	8.0
53.515	4.0
53.53	2.0
53.545	8.0
53.56	5.0
53.575	1.0
53.59	5.0
53.606	3.0
53.621	7.0
53.636	6.0
53.651	4.0
53.666	3.0
53.681	8.0
53.696	5.0
53.712	4.0
53.727	6.0
53.742	2.0
53.757	9.0
53.772	5.0
53.787	4.0
53.802	5.0
53.818	7.0
53.833	6.0
53.848	4.0
53.863	5.0
53.878	3.0
53.893	3.0
53.909	5.0
53.924	8.0
53.939	6.0
53.954	4.0
53.969	9.0
53.984	5.0
53.999	7.0
54.015	5.0
54.03	4.0
54.045	2.0
54.06	3.0
54.075	4.0
54.09	6.0
54.106	4.0
54.121	6.0
54.136	3.0
54.151	6.0
54.166	5.0
54.181	7.0
54.197	3.0
54.212	2.0
54.227	4.0
54.242	3.0
54.257	6.0
54.272	3.0
54.288	3.0
54.303	6.0
54.318	7.0
54.333	2.0
54.348	4.0
54.363	2.0
54.379	2.0
54.394	3.0
54.409	3.0
54.424	2.0
54.439	2.0
54.454	5.0
54.47	7.0
54.485	6.0
54.5	3.0
54.515	5.0
54.53	5.0
54.545	6.0
54.561	7.0
54.576	15.0
54.591	9.0
54.606	8.0
54.621	13.0
54.636	14.0
54.652	6.0
54.667	17.0
54.682	19.0
54.697	13.0
54.712	10.0
54.727	13.0
54.743	4.0
54.758	6.0
54.773	6.0
54.788	1.0
54.803	5.0
54.819	6.0
54.834	12.0
54.849	5.0
54.864	5.0
54.879	4.0
54.894	6.0
54.91	8.0
54.925	9.0
54.94	3.0
54.955	8.0
54.97	8.0
54.985	9.0
55.001	14.0
55.016	8.0
55.031	10.0
55.046	9.0
55.061	12.0
55.077	13.0
55.092	8.0
55.107	7.0
55.122	3.0
55.137	7.0
55.152	6.0
55.168	14.0
55.183	1.0
55.198	5.0
55.213	7.0
55.228	3.0
55.243	6.0
55.259	5.0
55.274	5.0
55.289	5.0
55.304	6.0
55.319	5.0
55.335	8.0
55.35	7.0
55.365	3.0
55.38	3.0
55.395	2.0
55.41	1.0
55.426	3.0
55.441	5.0
55.456	6.0
55.471	4.0
55.486	8.0
55.501	2.0
55.517	5.0
55.532	3.0
55.547	2.0
55.562	1.0
55.577	4.0
55.592	5.0
55.608	6.0
55.623	3.0
55.638	7.0
55.653	8.0
55.668	8.0
55.683	7.0
55.699	9.0
55.714	7.0
55.729	8.0
55.744	7.0
55.759	2.0
55.774	7.0
55.79	9.0
55.805	8.0
55.82	4.0
55.835	1.0
55.85	10.0
55.865	5.0
55.881	4.0
55.896	4.0
55.911	1.0
55.926	2.0
55.941	8.0
55.956	3.0
55.972	4.0
55.987	9.0
56.002	5.0
56.017	9.0
56.032	8.0
56.047	10.0
56.063	7.0
56.078	3.0
56.093	3.0
56.108	6.0
56.123	5.0
56.138	2.0
56.154	8.0
56.169	5.0
56.184	4.0
56.199	7.0
56.214	5.0
56.229	5.0
56.244	4.0
56.26	6.0
56.275	6.0
56.29	4.0
56.305	5.0
56.32	5.0
56.335	3.0
56.351	4.0
56.366	6.0
56.381	2.0
56.396	6.0
56.411	3.0
56.426	1.0
56.441	3.0
56.457	2.0
56.472	3.0
56.487	5.0
56.502	3.0
56.517	3.0
56.532	5.0
56.547	3.0
56.563	3.0
56.578	3.0
56.593	5.0
56.608	4.0
56.623	1.0
56.638	5.0
56.653	3.0
56.668	5.0
56.684	4.0
56.699	8.0
56.714	3.0
56.729	3.0
56.744	4.0
56.759	3.0
56.774	3.0
56.79	3.0
56.805	5.0
56.82	6.0
56.835	7.0
56.85	6.0
56.865	5.0
56.88	5.0
56.895	4.0
56.911	6.0
56.926	4.0
56.941	3.0
56.956	6.0
56.971	4.0
56.986	2.0
57.001	2.0
57.016	6.0
57.031	3.0
57.047	3.0
57.062	6.0
57.077	4.0
57.092	5.0
57.107	4.0
57.122	9.0
57.137	4.0
57.152	3.0
57.167	6.0
57.183	3.0
57.198	5.0
57.213	1.0
57.228	4.0
57.243	3.0
57.258	4.0
57.273	7.0
57.288	4.0
57.303	5.0
57.318	3.0
57.334	6.0
57.349	3.0
57.364	2.0
57.379	1.0
57.394	7.0
57.409	2.0
57.424	2.0
57.439	4.0
57.454	5.0
57.469	5.0
57.484	5.0
57.5	2.0
57.515	4.0
57.53	2.0
57.545	2.0
57.56	7.0
57.575	5.0
57.59	2.0
57.605	5.0
57.62	6.0
57.635	5.0
57.65	6.0
57.665	5.0
57.68	10.0
57.696	8.0
57.711	7.0
57.726	7.0
57.741	10.0
57.756	7.0
57.771	1.0
57.786	5.0
57.801	4.0
57.816	3.0
57.831	4.0
57.846	1.0
57.861	3.0
57.876	2.0
57.891	4.0
57.906	6.0
57.921	4.0
57.937	3.0
57.952	6.0
57.967	5.0
57.982	7.0
57.997	4.0
58.012	3.0
58.027	5.0
58.042	7.0
58.057	5.0
58.072	3.0
58.087	1.0
58.102	8.0
58.117	6.0
58.132	2.0
58.147	5.0
58.162	4.0
58.177	2.0
58.192	2.0
58.207	6.0
58.222	4.0
58.237	6.0
58.252	9.0
58.267	6.0
58.282	4.0
58.297	7.0
58.312	5.0
58.327	2.0
58.342	5.0
58.357	4.0
58.372	5.0
58.387	5.0
58.402	3.0
58.418	4.0
58.433	4.0
58.448	12.0
58.463	6.0
58.478	7.0
58.493	4.0
58.508	1.0
58.523	3.0
58.538	7.0
58.553	5.0
58.568	10.0
58.583	6.0
58.598	7.0
58.613	9.0
58.628	8.0
58.643	14.0
58.658	11.0
58.673	9.0
58.688	6.0
58.703	6.0
58.718	6.0
58.733	4.0
58.748	4.0
58.763	4.0
58.778	5.0
58.793	5.0
58.808	7.0
58.823	3.0
58.838	2.0
58.853	6.0
58.868	16.0
58.883	7.0
58.898	6.0
58.913	6.0
58.928	4.0
58.942	7.0
58.957	6.0
58.972	4.0
58.987	6.0
59.002	7.0
59.017	3.0
59.032	4.0
59.047	9.0
59.062	5.0
59.077	6.0
59.092	5.0
59.107	3.0
59.122	11.0
59.137	7.0
59.152	4.0
59.167	3.0
59.182	4.0
59.197	7.0
59.212	2.0
59.227	3.0
59.242	5.0
59.257	4.0
59.272	6.0
59.287	3.0
59.302	4.0
59.317	8.0
59.332	5.0
59.347	6.0
59.362	3.0
59.377	8.0
59.392	1.0
59.407	5.0
59.422	8.0
59.437	8.0
59.452	3.0
59.467	4.0
59.482	2.0
59.497	4.0
59.512	3.0
59.527	11.0
59.542	4.0
59.557	6.0
59.572	8.0
59.587	4.0
59.602	9.0
59.617	12.0
59.632	6.0
59.647	8.0
59.661	14.0
59.676	12.0
59.691	11.0
59.706	5.0
59.721	3.0
59.736	8.0
59.751	9.0
59.766	8.0
59.781	5.0
59.796	10.0
59.811	3.0
59.826	4.0
59.841	0.0
59.856	3.0
59.871	4.0
59.886	8.0
59.901	5.0
59.916	8.0
59.931	4.0
59.946	5.0
59.961	7.0
59.976	4.0
59.991	10.0
60.006	13.0
60.021	6.0
60.036	12.0
60.051	6.0
60.066	2.0
60.081	6.0
60.096	6.0
60.111	3.0
60.126	7.0
60.141	2.0
60.156	7.0
60.171	4.0
60.186	3.0
60.201	3.0
60.216	3.0
60.231	7.0
60.246	5.0
60.261	1.0
60.276	6.0
60.291	4.0
60.306	3.0
60.321	4.0
60.336	3.0
60.35	8.0
60.365	3.0
60.38	4.0
60.395	9.0
60.41	4.0
60.425	5.0
60.44	1.0
60.455	5.0
60.47	4.0
60.485	6.0
60.5	10.0
60.515	10.0
60.53	6.0
60.545	4.0
60.56	1.0
60.575	1.0
60.59	14.0
60.605	6.0
60.62	6.0
60.635	4.0
60.65	4.0
60.665	3.0
60.68	3.0
60.695	6.0
60.71	5.0
60.725	8.0
60.74	10.0
60.755	7.0
60.77	4.0
60.785	3.0
60.8	4.0
60.815	8.0
60.83	6.0
60.845	4.0
60.86	6.0
60.875	1.0
60.89	7.0
60.905	3.0
60.92	8.0
60.935	8.0
60.95	6.0
60.965	9.0
60.98	7.0
60.995	5.0
61.01	9.0
61.025	5.0
61.04	8.0
61.055	2.0
61.07	3.0
61.085	5.0
61.1	3.0
61.115	3.0
61.13	8.0
61.145	2.0
61.16	3.0
61.175	6.0
61.191	4.0
61.206	4.0
61.221	2.0
61.236	1.0
61.251	0.0
61.266	5.0
61.281	2.0
61.296	4.0
61.311	5.0
61.326	3.0
61.341	3.0
61.356	5.0
61.371	2.0
61.386	5.0
61.401	9.0
61.416	4.0
61.431	8.0
61.446	6.0
61.461	7.0
61.476	8.0
61.491	8.0
61.506	4.0
61.521	4.0
61.536	4.0
61.551	4.0
61.566	6.0
61.581	11.0
61.596	10.0
61.611	5.0
61.626	5.0
61.641	4.0
61.656	7.0
61.672	4.0
61.687	2.0
61.702	5.0
61.717	3.0
61.732	5.0
61.747	3.0
61.762	2.0
61.777	2.0
61.792	6.0
61.807	2.0
61.822	1.0
61.837	6.0
61.852	3.0
61.867	3.0
61.882	3.0
61.897	7.0
61.912	5.0
61.927	6.0
61.943	2.0
61.958	8.0
61.973	4.0
61.988	5.0
62.003	2.0
62.018	6.0
62.033	4.0
62.048	3.0
62.063	0.0
62.078	3.0
62.093	4.0
62.108	0.0
62.123	3.0
62.138	4.0
62.153	5.0
62.169	5.0
62.184	7.0
62.199	3.0
62.214	2.0
62.229	5.0
62.244	5.0
62.259	3.0
62.274	2.0
62.289	1.0
62.304	4.0
62.319	7.0
62.335	3.0
62.35	4.0
62.365	5.0
62.38	3.0
62.395	7.0
62.41	6.0
62.425	4.0
62.44	6.0
62.455	4.0
62.47	4.0
62.485	3.0
62.501	1.0
62.516	4.0
62.531	2.0
62.546	4.0
62.561	4.0
62.576	4.0
62.591	5.0
62.606	3.0
62.621	4.0
62.636	3.0
62.652	6.0
62.667	3.0
62.682	4.0
62.697	5.0
62.712	7.0
62.727	7.0
62.742	6.0
62.757	6.0
62.772	9.0
62.787	5.0
62.803	2.0
62.818	6.0
62.833	7.0
62.848	3.0
62.863	4.0
62.878	7.0
62.893	2.0
62.908	7.0
62.923	2.0
62.939	4.0
62.954	5.0
62.969	6.0
62.984	6.0
62.999	4.0
63.014	2.0
63.029	1.0
63.044	2.0
63.059	4.0
63.074	5.0
63.09	5.0
63.105	4.0
63.12	2.0
63.135	3.0
63.15	7.0
63.165	1.0
63.18	2.0
63.195	1.0
63.21	4.0
63.226	5.0
63.241	3.0
63.256	3.0
63.271	4.0
63.286	2.0
63.301	4.0
63.316	7.0
63.331	6.0
63.346	5.0
63.362	5.0
63.377	4.0
63.392	7.0
63.407	3.0
63.422	4.0
63.437	9.0
63.452	5.0
63.467	4.0
63.482	3.0
63.497	3.0
63.513	5.0
63.528	2.0
63.543	4.0
63.558	3.0
63.573	3.0
63.588	4.0
63.603	4.0
63.618	3.0
63.633	3.0
63.648	1.0
63.664	6.0
63.679	8.0
63.694	3.0
63.709	5.0
63.724	3.0
63.739	4.0
63.754	4.0
63.769	3.0
63.784	4.0
63.799	6.0
63.814	7.0
63.83	9.0
63.845	9.0
63.86	7.0
63.875	8.0
63.89	8.0
63.905	9.0
63.92	4.0
63.935	6.0
63.95	6.0
63.965	5.0
63.98	1.0
63.996	2.0
64.011	3.0
64.026	3.0
64.041	3.0
64.056	3.0
64.071	1.0
64.086	2.0
64.101	2.0
64.116	4.0
64.131	7.0
64.146	3.0
64.161	4.0
64.176	5.0
64.191	1.0
64.207	2.0
64.222	2.0
64.237	2.0
64.252	2.0
64.267	7.0
64.282	5.0
64.297	5.0
64.312	4.0
64.327	0.0
64.342	2.0
64.357	2.0
64.372	1.0
64.387	2.0
64.402	5.0
64.417	4.0
64.433	3.0
64.448	1.0
64.463	4.0
64.478	4.0
64.493	1.0
64.508	1.0
64.523	4.0
64.538	2.0
64.553	2.0
64.568	2.0
64.583	3.0
64.598	3.0
64.613	1.0
64.628	3.0
64.643	5.0
64.658	3.0
64.673	4.0
64.688	2.0
64.703	4.0
64.718	2.0
64.734	3.0
64.749	4.0
64.764	5.0
64.779	5.0
64.794	4.0
64.809	1.0
64.824	8.0
64.839	2.0
64.854	5.0
64.869	1.0
64.884	7.0
64.899	6.0
64.914	4.0
64.929	6.0
64.944	6.0
64.959	6.0
64.974	6.0
64.989	2.0
65.004	3.0
65.019	3.0
65.034	5.0
65.049	3.0
65.064	3.0
65.079	2.0
65.094	6.0
65.109	5.0
65.125	4.0
65.14	5.0
65.155	6.0
65.17	4.0
65.185	8.0
65.2	7.0
65.215	4.0
65.23	5.0
65.245	3.0
65.26	9.0
65.275	1.0
65.29	10.0
65.305	7.0
65.32	5.0
65.335	3.0
65.35	2.0
65.365	5.0
65.38	3.0
65.395	2.0
65.41	2.0
65.425	2.0
65.44	4.0
65.455	2.0
65.47	4.0
65.485	2.0
65.5	5.0
65.515	2.0
65.53	1.0
65.545	2.0
65.56	7.0
65.575	2.0
65.59	3.0
65.605	2.0
65.62	4.0
65.635	4.0
65.65	8.0
65.666	1.0
65.681	3.0
65.696	6.0
65.711	2.0
65.726	4.0
65.741	6.0
65.756	3.0
65.771	6.0
65.786	7.0
65.801	4.0
65.816	3.0
65.831	2.0
65.846	3.0
65.861	7.0
65.876	7.0
65.891	1.0
65.906	1.0
65.921	4.0
65.936	2.0
65.951	4.0
65.966	7.0
65.981	4.0
65.996	4.0
66.011	2.0
66.026	6.0
66.041	4.0
66.056	6.0
66.071	5.0
66.086	4.0
66.101	6.0
66.116	7.0
66.131	11.0
66.146	9.0
66.161	6.0
66.176	10.0
66.191	6.0
66.206	5.0
66.221	7.0
66.236	5.0
66.251	6.0
66.266	3.0
66.281	5.0
66.296	5.0
66.311	3.0
66.327	6.0
66.342	7.0
66.357	8.0
66.372	4.0
66.387	5.0
66.402	2.0
66.417	0.0
66.432	4.0
66.447	3.0
66.462	4.0
66.477	6.0
66.492	7.0
66.507	7.0
66.522	3.0
66.537	2.0
66.552	3.0
66.567	9.0
66.582	6.0
66.597	5.0
66.612	4.0
66.627	7.0
66.642	5.0
66.657	6.0
66.672	10.0
66.687	8.0
66.702	5.0
66.717	3.0
66.732	8.0
66.747	3.0
66.762	5.0
66.777	3.0
66.792	2.0
66.807	2.0
66.822	8.0
66.837	2.0
66.853	4.0
66.868	5.0
66.883	5.0
66.898	5.0
66.913	5.0
66.928	4.0
66.943	6.0
66.958	1.0
66.973	7.0
66.988	7.0
67.003	2.0
67.018	9.0
67.033	3.0
67.048	7.0
67.063	6.0
67.078	2.0
67.093	5.0
67.108	1.0
67.123	5.0
67.138	9.0
67.153	1.0
67.168	4.0
67.183	1.0
67.198	1.0
67.214	5.0
67.229	2.0
67.244	4.0
67.259	2.0
67.274	7.0
67.289	5.0
67.304	4.0
67.319	3.0
67.334	1.0
67.349	3.0
67.364	3.0
67.379	8.0
67.394	3.0
67.409	4.0
67.424	4.0
67.439	3.0
67.454	1.0
67.469	3.0
67.484	3.0
67.5	5.0
67.515	2.0
67.53	6.0
67.545	3.0
67.56	3.0
67.575	1.0
67.59	3.0
67.605	4.0
67.62	4.0
67.635	8.0
67.65	3.0
67.665	2.0
67.68	1.0
67.695	1.0
67.71	3.0
67.726	5.0
67.741	4.0
67.756	3.0
67.771	8.0
67.786	1.0
67.801	6.0
67.816	2.0
67.831	3.0
67.846	3.0
67.861	5.0
67.876	3.0
67.891	4.0
67.906	2.0
67.922	5.0
67.937	4.0
67.952	1.0
67.967	4.0
67.982	7.0
67.997	4.0
68.012	6.0
68.027	1.0
68.042	4.0
68.057	4.0
68.072	5.0
68.087	4.0
68.103	4.0
68.118	4.0
68.133	2.0
68.148	1.0
68.163	3.0
68.178	4.0
68.193	1.0
68.208	8.0
68.223	3.0
68.238	5.0
68.254	1.0
68.269	2.0
68.284	3.0
68.299	7.0
68.314	2.0
68.329	3.0
68.344	4.0
68.359	2.0
68.374	6.0
68.389	3.0
68.405	4.0
68.42	5.0
68.435	4.0
68.45	2.0
68.465	2.0
68.48	8.0
68.495	1.0
68.51	2.0
68.525	3.0
68.54	5.0
68.556	4.0
68.571	2.0
68.586	3.0
68.601	7.0
68.616	4.0
68.631	4.0
68.646	5.0
68.661	6.0
68.676	9.0
68.691	3.0
68.707	4.0
68.722	4.0
68.737	4.0
68.752	4.0
68.767	1.0
68.782	3.0
68.797	5.0
68.812	2.0
68.827	5.0
68.842	5.0
68.857	4.0
68.873	4.0
68.888	3.0
68.903	2.0
68.918	5.0
68.933	3.0
68.948	3.0
68.963	2.0
68.978	3.0
68.993	9.0
69.008	4.0
69.023	5.0
69.038	5.0
69.054	2.0
69.069	4.0
69.084	3.0
69.099	5.0
69.114	3.0
69.129	3.0
69.144	4.0
69.159	1.0
69.174	3.0
69.189	7.0
69.204	10.0
69.219	4.0
69.234	3.0
69.249	5.0
69.264	3.0
69.279	2.0
69.295	4.0
69.31	6.0
69.325	5.0
69.34	3.0
69.355	3.0
69.37	4.0
69.385	5.0
69.4	3.0
69.415	1.0
69.43	6.0
69.445	1.0
69.46	2.0
69.475	1.0
69.49	4.0
69.505	3.0
69.52	3.0
69.535	6.0
69.55	4.0
69.565	4.0
69.58	3.0
69.595	2.0
69.61	2.0
69.625	2.0
69.64	2.0
69.655	4.0
69.67	5.0
69.685	6.0
69.7	5.0
69.715	5.0
69.73	8.0
69.745	14.0
69.76	6.0
69.775	3.0
69.79	8.0
69.805	7.0
69.82	6.0
69.835	5.0
69.85	5.0
69.865	0.0
69.88	10.0
69.895	4.0
69.909	2.0
69.924	6.0
69.939	0.0
69.954	2.0
69.969	0.0
69.984	4.0
69.999	3.0
70.014	3.0
70.029	4.0
70.044	3.0
70.059	5.0
70.074	4.0
70.088	2.0
70.103	2.0
70.118	5.0
70.133	5.0
70.148	2.0
70.163	4.0
70.178	2.0
70.193	6.0
70.208	4.0
70.222	3.0
70.237	7.0
70.252	3.0
70.267	5.0
70.282	5.0
70.297	4.0
70.312	2.0
70.327	6.0
70.341	4.0
70.356	6.0
70.371	7.0
70.386	1.0
70.401	1.0
70.416	4.0
70.43	2.0
70.445	5.0
70.46	2.0
70.475	3.0
70.49	5.0
70.505	1.0
70.519	0.0
70.534	4.0
70.549	2.0
70.564	6.0
70.579	3.0
70.594	7.0
70.608	8.0
70.623	5.0
70.638	7.0
70.653	3.0
70.668	7.0
70.683	6.0
70.697	2.0
70.712	6.0
70.727	2.0
70.742	4.0
70.757	8.0
70.771	5.0
70.786	3.0
70.801	1.0
70.816	4.0
70.831	2.0
70.845	7.0
70.86	4.0
70.875	10.0
70.89	1.0
70.905	4.0
70.92	4.0
70.934	1.0
70.949	5.0
70.964	4.0
70.979	3.0
70.994	2.0
71.008	4.0
71.023	1.0
71.038	4.0
71.053	0.0
71.068	3.0
71.082	4.0
71.097	4.0
71.112	5.0
71.127	5.0
71.142	5.0
71.156	4.0
71.171	6.0
71.186	2.0
71.201	5.0
71.216	3.0
71.231	6.0
71.245	2.0
71.26	3.0
71.275	3.0
71.29	2.0
71.305	4.0
71.319	2.0
71.334	3.0
71.349	3.0
71.364	4.0
71.379	7.0
71.394	4.0
71.408	4.0
71.423	6.0
71.438	2.0
71.453	3.0
71.468	4.0
71.483	5.0
71.497	4.0
71.512	3.0
71.527	1.0
71.542	6.0
71.557	0.0
71.572	2.0
71.586	5.0
71.601	0.0
71.616	6.0
71.631	3.0
71.646	3.0
71.661	2.0
71.676	8.0
71.69	2.0
71.705	2.0
71.72	4.0
71.735	1.0
71.75	4.0
71.765	4.0
71.78	2.0
71.795	4.0
71.81	1.0
71.824	2.0
71.839	4.0
71.854	2.0
71.869	3.0
71.884	6.0
71.899	6.0
71.914	3.0
71.929	2.0
71.944	1.0
71.959	2.0
71.974	3.0
71.988	5.0
72.003	3.0
72.018	4.0
72.033	2.0
72.048	3.0
72.063	0.0
72.078	5.0
72.093	6.0
72.108	3.0
72.123	4.0
72.138	1.0
72.153	4.0
72.168	3.0
72.183	3.0
72.198	5.0
72.213	3.0
72.228	3.0
72.243	4.0
72.258	2.0
72.273	2.0
72.288	2.0
72.303	5.0
72.318	3.0
72.333	7.0
72.348	2.0
72.363	1.0
72.378	4.0
72.393	2.0
72.408	3.0
72.423	3.0
72.438	7.0
72.453	5.0
72.468	4.0
72.483	5.0
72.498	3.0
72.513	3.0
72.528	3.0
72.543	4.0
72.558	3.0
72.573	0.0
72.588	4.0
72.603	1.0
72.618	6.0
72.633	6.0
72.649	4.0
72.664	1.0
72.679	6.0
72.694	3.0
72.709	4.0
72.724	0.0
72.739	1.0
72.754	3.0
72.769	3.0
72.784	4.0
72.799	3.0
72.814	3.0
72.829	4.0
72.845	5.0
72.86	1.0
72.875	2.0
72.89	2.0
72.905	7.0
72.92	8.0
72.935	5.0
72.95	8.0
72.965	4.0
72.98	1.0
72.996	5.0
73.011	4.0
73.026	3.0
73.041	3.0
73.056	0.0
73.071	3.0
73.086	8.0
73.101	8.0
73.117	4.0
73.132	3.0
73.147	3.0
73.162	5.0
73.177	4.0
73.192	2.0
73.207	2.0
73.222	3.0
73.238	7.0
73.253	4.0
73.268	3.0
73.283	7.0
73.298	2.0
73.313	5.0
73.328	4.0
73.343	6.0
73.359	3.0
73.374	6.0
73.389	4.0
73.404	4.0
73.419	3.0
73.434	4.0
73.449	5.0
73.465	0.0
73.48	4.0
73.495	4.0
73.51	8.0
73.525	2.0
73.54	5.0
73.556	5.0
73.571	1.0
73.586	4.0
73.601	1.0
73.616	2.0
73.631	4.0
73.646	4.0
73.662	1.0
73.677	3.0
73.692	1.0
73.707	2.0
73.722	2.0
73.737	3.0
73.752	4.0
73.768	3.0
73.783	7.0
73.798	2.0
73.813	5.0
73.828	2.0
73.843	3.0
73.859	4.0
73.874	5.0
73.889	7.0
73.904	7.0
73.919	5.0
73.934	2.0
73.949	1.0
73.965	3.0
73.98	6.0
73.995	1.0
74.01	5.0
74.025	7.0
74.04	9.0
74.056	5.0
74.071	4.0
74.086	2.0
74.101	4.0
74.116	6.0
74.131	3.0
74.146	9.0
74.162	7.0
74.177	4.0
74.192	5.0
74.207	4.0
74.222	7.0
74.237	5.0
74.252	8.0
74.268	4.0
74.283	7.0
74.298	1.0
74.313	1.0
74.328	4.0
74.343	5.0
74.358	3.0
74.374	4.0
74.389	4.0
74.404	8.0
74.419	3.0
74.434	3.0
74.449	5.0
74.464	1.0
74.48	6.0
74.495	3.0
74.51	2.0
74.525	2.0
74.54	0.0
74.555	6.0
74.57	6.0
74.586	2.0
74.601	3.0
74.616	4.0
74.631	7.0
74.646	4.0
74.661	2.0
74.676	9.0
74.691	1.0
74.707	5.0
74.722	8.0
74.737	5.0
74.752	5.0
74.767	2.0
74.782	5.0
74.797	2.0
74.813	3.0
74.828	3.0
74.843	4.0
74.858	1.0
74.873	1.0
74.888	4.0
74.903	3.0
74.918	3.0
74.934	1.0
74.949	6.0
74.964	3.0
74.979	5.0
74.994	3.0
75.009	4.0
75.024	2.0
75.04	4.0
75.055	5.0
75.07	7.0
75.085	3.0
75.1	6.0
75.115	3.0
75.13	4.0
75.145	1.0
75.161	2.0
75.176	2.0
75.191	4.0
75.206	1.0
75.221	6.0
75.236	1.0
75.251	3.0
75.266	4.0
75.282	4.0
75.297	2.0
75.312	3.0
75.327	2.0
75.342	5.0
75.357	4.0
75.372	5.0
75.387	3.0
75.403	3.0
75.418	0.0
75.433	4.0
75.448	5.0
75.463	5.0
75.478	3.0
75.493	4.0
75.509	2.0
75.524	7.0
75.539	2.0
75.554	5.0
75.569	6.0
75.584	3.0
75.599	3.0
75.614	3.0
75.63	5.0
75.645	2.0
75.66	1.0
75.675	4.0
75.69	3.0
75.705	2.0
75.72	3.0
75.735	4.0
75.751	5.0
75.766	6.0
75.781	3.0
75.796	3.0
75.811	8.0
75.826	9.0
75.841	3.0
75.856	2.0
75.872	4.0
75.887	3.0
75.902	3.0
75.917	5.0
75.932	4.0
75.947	4.0
75.962	1.0
75.977	3.0
75.993	2.0
76.008	5.0
76.023	1.0
76.038	3.0
76.053	4.0
76.068	3.0
76.083	6.0
76.098	3.0
76.114	4.0
76.129	3.0
76.144	6.0
76.159	5.0
76.174	3.0
76.189	4.0
76.204	7.0
76.22	3.0
76.235	0.0
76.25	2.0
76.265	8.0
76.28	5.0
76.295	1.0
76.31	3.0
76.325	6.0
76.341	1.0
76.356	2.0
76.371	2.0
76.386	2.0
76.401	3.0
76.416	1.0
76.431	5.0
76.446	7.0
76.462	8.0
76.477	2.0
76.492	4.0
76.507	3.0
76.522	6.0
76.537	5.0
76.552	3.0
76.567	5.0
76.583	4.0
76.598	3.0
76.613	6.0
76.628	3.0
76.643	3.0
76.658	3.0
76.673	5.0
76.688	9.0
76.704	1.0
76.719	5.0
76.734	4.0
76.749	7.0
76.764	2.0
76.779	4.0
76.794	5.0
76.809	4.0
76.824	5.0
76.84	8.0
76.855	1.0
76.87	4.0
76.885	3.0
76.9	2.0
76.915	4.0
76.93	4.0
76.945	3.0
76.96	3.0
76.976	5.0
76.991	3.0
77.006	5.0
77.021	1.0
77.036	2.0
77.051	7.0
77.066	2.0
77.081	2.0
77.096	3.0
77.112	4.0
77.127	0.0
77.142	9.0
77.157	2.0
77.172	0.0
77.187	1.0
77.202	3.0
77.217	3.0
77.232	5.0
77.247	7.0
77.263	3.0
77.278	4.0
77.293	2.0
77.308	5.0
77.323	7.0
77.338	1.0
77.353	6.0
77.368	5.0
77.383	6.0
77.398	7.0
77.413	5.0
77.428	0.0
77.444	9.0
77.459	5.0
77.474	8.0
77.489	7.0
77.504	6.0
77.519	5.0
77.534	4.0
77.549	2.0
77.564	7.0
77.579	7.0
77.594	5.0
77.609	8.0
77.624	2.0
77.64	11.0
77.655	9.0
77.67	5.0
77.685	3.0
77.7	4.0
77.715	6.0
77.73	0.0
77.745	7.0
77.76	2.0
77.775	2.0
77.79	2.0
77.805	0.0
77.82	2.0
77.835	5.0
77.85	6.0
77.865	5.0
77.88	3.0
77.895	4.0
77.91	1.0
77.926	3.0
77.941	6.0
77.956	4.0
77.971	0.0
77.986	5.0
78.001	1.0
78.016	7.0
78.031	3.0
78.046	1.0
78.061	0.0
78.076	4.0
78.091	5.0
78.106	3.0
78.121	2.0
78.136	4.0
78.151	5.0
78.166	0.0
78.181	6.0
78.196	4.0
78.211	2.0
78.226	5.0
78.241	5.0
78.256	4.0
78.271	4.0
78.286	1.0
78.301	2.0
78.316	3.0
78.331	3.0
78.346	0.0
78.361	3.0
78.376	2.0
78.391	3.0
78.406	3.0
78.421	1.0
78.436	0.0
78.451	0.0
78.466	4.0
78.481	1.0
78.496	0.0
78.511	1.0
78.526	3.0
78.541	5.0
78.556	4.0
78.571	3.0
78.586	2.0
78.601	2.0
78.616	4.0
78.631	2.0
78.646	2.0
78.661	2.0
78.676	3.0
78.691	7.0
78.706	4.0
78.721	2.0
78.736	4.0
78.751	5.0
78.766	5.0
78.781	4.0
78.796	2.0
78.811	3.0
78.826	0.0
78.841	5.0
78.856	2.0
78.871	3.0
78.885	3.0
78.9	3.0
78.915	3.0
78.93	1.0
78.945	4.0
78.96	5.0
78.975	4.0
78.99	4.0
79.005	2.0
79.02	5.0
79.035	4.0
79.05	3.0
79.065	2.0
79.08	2.0
79.095	5.0
79.11	1.0
79.125	5.0
79.14	5.0
79.155	5.0
79.17	4.0
79.185	3.0
79.2	6.0
79.215	8.0
79.23	2.0
79.245	4.0
79.26	5.0
79.275	6.0
79.29	7.0
79.304	5.0
79.319	3.0
79.334	6.0
79.349	2.0
79.364	3.0
79.379	4.0
79.394	5.0
79.409	6.0
79.424	1.0
79.439	5.0
79.454	4.0
79.469	1.0
79.484	1.0
79.499	1.0
79.514	2.0
79.529	3.0
79.544	6.0
79.559	4.0
79.574	3.0
79.589	2.0
79.604	2.0
79.619	2.0
79.634	2.0
79.649	1.0
79.664	5.0
79.679	10.0
79.693	2.0
79.708	5.0
79.723	0.0
79.738	5.0
79.753	2.0
79.768	0.0
79.783	3.0
79.798	2.0
79.813	3.0
79.828	6.0
79.843	3.0
79.858	6.0
79.873	3.0
79.888	2.0
79.903	1.0
79.918	3.0
79.933	3.0
79.948	4.0
79.963	2.0
79.978	2.0
79.993	5.0
80.008	4.0
80.023	1.0
80.038	2.0
80.053	2.0
80.068	3.0
80.083	1.0
80.098	7.0
80.113	3.0
80.128	5.0
80.143	0.0
80.158	3.0
80.173	7.0
80.188	2.0
80.202	4.0
80.217	7.0
80.232	1.0
80.247	5.0
80.262	5.0
80.277	2.0
80.292	3.0
80.307	4.0
80.322	6.0
80.337	3.0
80.352	4.0
80.367	3.0
80.382	1.0
80.397	3.0
80.412	3.0
80.427	1.0
80.442	3.0
80.457	2.0
80.472	3.0
80.487	1.0
80.502	5.0
80.517	3.0
80.532	5.0
80.547	0.0
80.562	3.0
80.577	3.0
80.592	3.0
80.607	3.0
80.622	0.0
80.637	4.0
80.652	4.0
80.667	3.0
80.682	4.0
80.697	2.0
80.712	3.0
80.727	3.0
80.742	0.0
80.757	1.0
80.772	6.0
80.787	9.0
80.802	4.0
80.817	1.0
80.832	1.0
80.847	5.0
80.862	1.0
80.877	5.0
80.892	3.0
80.907	4.0
80.922	1.0
80.937	6.0
80.952	4.0
80.967	3.0
80.982	4.0
80.997	2.0
81.012	4.0
81.027	6.0
81.042	7.0
81.057	3.0
81.072	6.0
81.087	3.0
81.101	4.0
81.116	6.0
81.131	4.0
81.146	5.0
81.161	2.0
81.176	3.0
81.191	6.0
81.206	5.0
81.221	1.0
81.236	3.0
81.251	3.0
81.266	3.0
81.281	1.0
81.296	2.0
81.311	2.0
81.326	5.0
81.341	2.0
81.356	4.0
81.371	1.0
81.386	4.0
81.401	3.0
81.416	2.0
81.431	3.0
81.446	3.0
81.461	6.0
81.476	4.0
81.491	4.0
81.506	3.0
81.521	1.0
81.536	7.0
81.55	4.0
81.565	3.0
81.58	5.0
81.595	1.0
81.61	1.0
81.625	3.0
81.64	1.0
81.655	4.0
81.67	4.0
81.685	3.0
81.7	3.0
81.715	3.0
81.73	6.0
81.745	6.0
81.76	6.0
81.775	3.0
81.79	2.0
81.805	2.0
81.819	2.0
81.834	7.0
81.849	7.0
81.864	3.0
81.879	8.0
81.894	3.0
81.909	2.0
81.924	6.0
81.939	0.0
81.954	1.0
81.969	1.0
81.984	5.0
81.999	2.0
82.013	6.0
82.028	4.0
82.043	1.0
82.058	1.0
82.073	4.0
82.088	1.0
82.103	3.0
82.118	2.0
82.133	2.0
82.148	3.0
82.163	3.0
82.177	1.0
82.192	2.0
82.207	4.0
82.222	5.0
82.237	3.0
82.252	7.0
82.267	3.0
82.282	3.0
82.297	3.0
82.312	3.0
82.326	2.0
82.341	4.0
82.356	5.0
82.371	3.0
82.386	5.0
82.401	4.0
82.416	2.0
82.431	4.0
82.445	2.0
82.46	3.0
82.475	2.0
82.49	4.0
82.505	1.0
82.52	2.0
82.535	3.0
82.55	1.0
82.565	3.0
82.579	4.0
82.594	2.0
82.609	0.0
82.624	1.0
82.639	2.0
82.654	2.0
82.669	3.0
82.684	3.0
82.698	2.0
82.713	4.0
82.728	3.0
82.743	3.0
82.758	6.0
82.773	2.0
82.788	2.0
82.803	3.0
82.817	3.0
82.832	3.0
82.847	3.0
82.862	4.0
82.877	1.0
82.892	3.0
82.907	4.0
82.922	0.0
82.937	0.0
82.951	3.0
82.966	5.0
82.981	3.0
82.996	4.0
83.011	1.0
83.026	1.0
83.041	3.0
83.056	6.0
83.07	5.0
83.085	5.0
83.1	5.0
83.115	3.0
83.13	2.0
83.145	7.0
83.16	3.0
83.175	7.0
83.19	1.0
83.204	3.0
83.219	3.0
83.234	1.0
83.249	2.0
83.264	2.0
83.279	5.0
83.294	6.0
83.309	3.0
83.324	3.0
83.339	1.0
83.353	4.0
83.368	6.0
83.383	2.0
83.398	2.0
83.413	3.0
83.428	4.0
83.443	5.0
83.458	2.0
83.473	4.0
83.488	5.0
83.503	2.0
83.517	5.0
83.532	1.0
83.547	6.0
83.562	6.0
83.577	7.0
83.592	4.0
83.607	7.0
83.622	2.0
83.637	2.0
83.652	4.0
83.667	3.0
83.682	1.0
83.697	2.0
83.712	2.0
83.727	2.0
83.741	4.0
83.756	1.0
83.771	4.0
83.786	1.0
83.801	1.0
83.816	4.0
83.831	7.0
83.846	4.0
83.861	6.0
83.876	1.0
83.891	5.0
83.906	0.0
83.921	2.0
83.936	6.0
83.951	5.0
83.966	6.0
83.981	2.0
83.996	3.0
84.011	0.0
84.026	5.0
84.041	3.0
84.056	2.0
84.071	3.0
84.086	9.0
84.101	1.0
84.116	4.0
84.131	1.0
84.146	4.0
84.161	3.0
84.176	2.0
84.191	3.0
84.206	3.0
84.221	6.0
84.236	4.0
84.251	6.0
84.266	3.0
84.281	1.0
84.296	6.0
84.311	2.0
84.326	4.0
84.341	9.0
84.356	4.0
84.371	5.0
84.386	2.0
84.401	3.0
84.416	3.0
84.431	4.0
84.446	4.0
84.461	1.0
84.476	6.0
84.492	1.0
84.507	2.0
84.522	8.0
84.537	3.0
84.552	2.0
84.567	1.0
84.582	2.0
84.597	1.0
84.612	5.0
84.627	2.0
84.642	3.0
84.657	5.0
84.672	1.0
84.687	3.0
84.702	1.0
84.717	6.0
84.733	5.0
84.748	3.0
84.763	5.0
84.778	4.0
84.793	3.0
84.808	2.0
84.823	5.0
84.838	2.0
84.853	3.0
84.868	3.0
84.883	3.0
84.898	3.0
84.913	2.0
84.929	6.0
84.944	5.0
84.959	4.0
84.974	2.0
84.989	2.0
85.004	10.0
85.019	3.0
85.034	1.0
85.049	3.0
85.064	5.0
85.079	2.0
85.094	5.0
85.11	2.0
85.125	4.0
85.14	4.0
85.155	4.0
85.17	2.0
85.185	2.0
85.2	2.0
85.215	1.0
85.23	1.0
85.245	3.0
85.26	4.0
85.276	3.0
85.291	4.0
85.306	8.0
85.321	1.0
85.336	5.0
85.351	1.0
85.366	3.0
85.381	2.0
85.396	5.0
85.411	4.0
85.426	2.0
85.441	4.0
85.457	0.0
85.472	5.0
85.487	3.0
85.502	5.0
85.517	2.0
85.532	6.0
85.547	3.0
85.562	5.0
85.577	7.0
85.592	4.0
85.607	6.0
85.622	5.0
85.637	1.0
85.653	0.0
85.668	7.0
85.683	2.0
85.698	5.0
85.713	1.0
85.728	4.0
85.743	6.0
85.758	3.0
85.773	1.0
85.788	4.0
85.803	4.0
85.818	2.0
85.833	2.0
85.848	2.0
85.863	4.0
85.879	2.0
85.894	5.0
85.909	7.0
85.924	1.0
85.939	0.0
85.954	4.0
85.969	3.0
85.984	6.0
85.999	4.0
86.014	2.0
86.029	2.0
86.044	4.0
86.059	3.0
86.074	0.0
86.089	3.0
86.104	4.0
86.119	3.0
86.134	8.0
86.149	3.0
86.164	8.0
86.179	6.0
86.194	5.0
86.209	2.0
86.224	3.0
86.239	1.0
86.254	4.0
86.269	2.0
86.284	2.0
86.299	3.0
86.314	4.0
86.33	2.0
86.345	2.0
86.36	3.0
86.375	3.0
86.39	2.0
86.405	11.0
86.42	1.0
86.435	2.0
86.45	3.0
86.465	2.0
86.48	3.0
86.495	2.0
86.51	4.0
86.525	2.0
86.54	3.0
86.555	0.0
86.57	4.0
86.585	4.0
86.6	0.0
86.615	2.0
86.63	3.0
86.645	4.0
86.659	4.0
86.674	5.0
86.689	4.0
86.704	4.0
86.719	3.0
86.734	3.0
86.749	3.0
86.764	3.0
86.779	3.0
86.794	6.0
86.809	2.0
86.824	3.0
86.839	3.0
86.854	4.0
86.869	5.0
86.884	3.0
86.899	3.0
86.914	4.0
86.929	0.0
86.944	2.0
86.959	5.0
86.974	3.0
86.989	6.0
87.004	3.0
87.019	2.0
87.034	1.0
87.049	4.0
87.064	6.0
87.079	3.0
87.094	5.0
87.109	1.0
87.124	5.0
87.139	5.0
87.154	6.0
87.169	6.0
87.184	4.0
87.199	5.0
87.214	2.0
87.229	2.0
87.244	1.0
87.259	5.0
87.274	2.0
87.289	3.0
87.304	0.0
87.319	7.0
87.334	3.0
87.349	2.0
87.364	1.0
87.379	4.0
87.394	2.0
87.409	3.0
87.424	6.0
87.438	4.0
87.453	2.0
87.468	3.0
87.483	5.0
87.498	4.0
87.513	5.0
87.528	3.0
87.543	5.0
87.558	5.0
87.573	7.0
87.588	2.0
87.603	5.0
87.618	2.0
87.633	6.0
87.648	4.0
87.663	8.0
87.678	2.0
87.693	3.0
87.708	3.0
87.723	5.0
87.738	4.0
87.753	1.0
87.768	4.0
87.783	5.0
87.798	7.0
87.813	5.0
87.828	4.0
87.843	5.0
87.858	2.0
87.873	2.0
87.888	4.0
87.903	1.0
87.918	4.0
87.933	5.0
87.948	3.0
87.963	3.0
87.978	3.0
87.993	5.0
88.008	2.0
88.023	3.0
88.038	5.0
88.053	5.0
88.068	3.0
88.083	3.0
88.098	1.0
88.113	2.0
88.128	0.0
88.143	2.0
88.158	2.0
88.174	4.0
88.189	5.0
88.204	1.0
88.219	3.0
88.234	3.0
88.249	2.0
88.264	2.0
88.279	1.0
88.294	4.0
88.309	2.0
88.324	6.0
88.339	2.0
88.354	7.0
88.369	6.0
88.384	6.0
88.399	3.0
88.414	5.0
88.429	5.0
88.444	1.0
88.459	4.0
88.474	4.0
88.489	4.0
88.504	6.0
88.519	10.0
88.534	1.0
88.549	2.0
88.564	6.0
88.58	1.0
88.595	5.0
88.61	3.0
88.625	2.0
88.64	4.0
88.655	3.0
88.67	2.0
88.685	2.0
88.7	0.0
88.715	3.0
88.73	3.0
88.745	4.0
88.76	3.0
88.775	5.0
88.79	4.0
88.805	5.0
88.82	5.0
88.835	3.0
88.85	8.0
88.865	4.0
88.88	6.0
88.895	5.0
88.911	3.0
88.926	2.0
88.941	1.0
88.956	3.0
88.971	5.0
88.986	1.0
89.001	4.0
89.016	2.0
89.031	0.0
89.046	1.0
89.061	0.0
89.076	3.0
89.091	0.0
89.106	2.0
89.121	2.0
89.136	4.0
89.151	1.0
89.166	3.0
89.181	0.0
89.196	2.0
89.211	0.0
89.227	3.0
89.242	7.0
89.257	4.0
89.272	3.0
89.287	8.0
89.302	4.0
89.317	5.0
89.332	2.0
89.347	2.0
89.362	5.0
89.377	1.0
89.392	2.0
89.407	5.0
89.422	0.0
89.437	3.0
89.452	3.0
89.467	0.0
89.482	4.0
89.497	2.0
89.512	6.0
89.527	3.0
89.542	2.0
89.557	3.0
89.572	2.0
89.587	2.0
89.602	3.0
89.617	4.0
89.632	4.0
89.647	1.0
89.662	2.0
89.677	4.0
89.693	4.0
89.708	4.0
89.723	3.0
89.738	0.0
89.753	4.0
89.768	7.0
89.783	2.0
89.798	5.0
89.813	1.0
89.828	1.0
89.843	3.0
89.858	3.0
89.873	2.0
89.888	3.0
89.903	2.0
89.918	5.0
89.933	3.0
89.948	3.0
89.963	5.0
89.978	5.0
89.993	1.0
90.008	2.0
90.023	6.0
90.038	2.0
90.053	5.0
90.068	3.0
90.083	3.0
90.097	2.0
90.112	2.0
90.127	4.0
90.142	1.0
90.157	4.0
90.172	3.0
90.187	9.0
90.202	11.0
90.217	3.0
90.232	5.0
90.247	6.0
90.262	8.0
90.277	4.0
90.292	2.0
90.307	4.0
90.322	6.0
90.337	2.0
90.352	7.0
90.367	2.0
90.382	5.0
90.397	3.0
90.412	11.0
90.427	4.0
90.442	3.0
90.457	2.0
90.472	2.0
90.487	2.0
90.501	2.0
90.516	4.0
90.531	1.0
90.546	2.0
90.561	2.0
90.576	2.0
90.591	3.0
90.606	2.0
90.621	2.0
90.636	2.0
90.651	2.0
90.666	6.0
90.681	3.0
90.696	2.0
90.711	2.0
90.726	4.0
90.741	6.0
90.755	2.0
90.77	6.0
90.785	3.0
90.8	3.0
90.815	2.0
90.83	4.0
90.845	3.0
90.86	4.0
90.875	4.0
90.89	3.0
90.905	1.0
90.92	2.0
90.935	8.0
90.95	2.0
90.965	3.0
90.979	3.0
90.994	4.0
91.009	4.0
91.024	2.0
91.039	6.0
91.054	3.0
91.069	2.0
91.084	5.0
91.099	3.0
91.114	3.0
91.129	2.0
91.144	1.0
91.159	2.0
91.174	7.0
91.188	5.0
91.203	2.0
91.218	0.0
91.233	6.0
91.248	3.0
91.263	0.0
91.278	4.0
91.293	5.0
91.308	5.0
91.323	2.0
91.338	7.0
91.353	6.0
91.368	1.0
91.383	3.0
91.398	2.0
91.412	2.0
91.427	5.0
91.442	5.0
91.457	1.0
91.472	4.0
91.487	2.0
91.502	5.0
91.517	2.0
91.532	2.0
91.547	2.0
91.562	5.0
91.577	2.0
91.592	4.0
91.607	7.0
91.622	2.0
91.637	3.0
91.652	2.0
91.666	2.0
91.681	5.0
91.696	2.0
91.711	3.0
91.726	3.0
91.741	3.0
91.756	6.0
91.771	6.0
91.786	2.0
91.801	1.0
91.816	3.0
91.831	4.0
91.846	3.0
91.861	3.0
91.876	2.0
91.891	3.0
91.906	2.0
91.921	2.0
91.936	2.0
91.951	3.0
91.966	0.0
91.981	2.0
91.995	0.0
92.01	3.0
92.025	6.0
92.04	2.0
92.055	2.0
92.07	3.0
92.085	2.0
92.1	2.0
92.115	4.0
92.13	0.0
92.145	2.0
92.16	1.0
92.175	3.0
92.19	1.0
92.205	5.0
92.22	5.0
92.235	4.0
92.25	1.0
92.265	2.0
92.28	4.0
92.295	3.0
92.31	4.0
92.325	2.0
92.34	3.0
92.355	3.0
92.37	2.0
92.385	4.0
92.4	3.0
92.415	5.0
92.43	3.0
92.445	7.0
92.46	4.0
92.475	4.0
92.49	5.0
92.505	3.0
92.52	3.0
92.535	2.0
92.55	1.0
92.565	1.0
92.58	5.0
92.595	0.0
92.61	2.0
92.625	3.0
92.64	4.0
92.655	2.0
92.67	7.0
92.685	2.0
92.7	4.0
92.715	1.0
92.73	4.0
92.745	2.0
92.76	3.0
92.775	4.0
92.79	3.0
92.805	7.0
92.82	7.0
92.835	1.0
92.85	3.0
92.865	4.0
92.88	1.0
92.895	4.0
92.91	3.0
92.925	3.0
92.94	4.0
92.955	6.0
92.97	4.0
92.985	3.0
93.0	6.0
93.015	3.0
93.03	3.0
93.045	1.0
93.06	3.0
93.075	1.0
93.09	2.0
93.105	2.0
93.12	0.0
93.135	4.0
93.15	5.0
93.165	2.0
93.18	4.0
93.195	1.0
93.21	3.0
93.225	4.0
93.24	1.0
93.255	3.0
93.27	3.0
93.285	2.0
93.3	4.0
93.315	7.0
93.33	1.0
93.345	1.0
93.36	2.0
93.375	4.0
93.39	4.0
93.405	3.0
93.42	3.0
93.435	4.0
93.45	4.0
93.465	2.0
93.48	0.0
93.495	4.0
93.51	1.0
93.525	5.0
93.54	4.0
93.555	4.0
93.57	1.0
93.585	5.0
93.6	2.0
93.615	4.0
93.63	2.0
93.645	2.0
93.66	5.0
93.675	2.0
93.69	1.0
93.705	3.0
93.72	3.0
93.735	4.0
93.75	2.0
93.765	4.0
93.78	1.0
93.795	4.0
93.81	3.0
93.824	1.0
93.839	3.0
93.854	2.0
93.869	3.0
93.884	4.0
93.899	5.0
93.914	1.0
93.929	7.0
93.944	0.0
93.959	2.0
93.974	7.0
93.989	5.0
94.004	5.0
94.019	1.0
94.034	2.0
94.049	3.0
94.064	4.0
94.079	2.0
94.094	2.0
94.108	3.0
94.123	6.0
94.138	3.0
94.153	5.0
94.168	4.0
94.183	1.0
94.198	1.0
94.213	3.0
94.228	3.0
94.243	2.0
94.258	6.0
94.273	3.0
94.288	4.0
94.302	1.0
94.317	4.0
94.332	4.0
94.347	3.0
94.362	4.0
94.377	2.0
94.392	3.0
94.407	8.0
94.422	4.0
94.437	3.0
94.452	8.0
94.466	1.0
94.481	4.0
94.496	4.0
94.511	2.0
94.526	3.0
94.541	0.0
94.556	5.0
94.571	3.0
94.586	3.0
94.601	3.0
94.615	3.0
94.63	3.0
94.645	2.0
94.66	1.0
94.675	1.0
94.69	2.0
94.705	5.0
94.72	1.0
94.735	2.0
94.749	1.0
94.764	4.0
94.779	1.0
94.794	2.0
94.809	8.0
94.824	2.0
94.839	4.0
94.854	3.0
94.868	2.0
94.883	4.0
94.898	4.0
94.913	3.0
94.928	2.0
94.943	1.0
94.958	3.0
94.973	1.0
94.987	2.0
95.002	2.0
95.017	4.0
95.032	1.0
95.047	2.0
95.062	4.0
95.077	2.0
95.092	4.0
95.106	4.0
95.121	6.0
95.136	3.0
95.151	6.0
95.166	2.0
95.181	10.0
95.196	7.0
95.211	10.0
95.226	5.0
95.24	5.0
95.255	5.0
95.27	4.0
95.285	5.0
95.3	5.0
95.315	4.0
95.33	5.0
95.345	1.0
95.359	1.0
95.374	3.0
95.389	6.0
95.404	6.0
95.419	6.0
95.434	1.0
95.449	2.0
95.464	5.0
95.478	2.0
95.493	5.0
95.508	3.0
95.523	5.0
95.538	1.0
95.553	4.0
95.568	3.0
95.583	4.0
95.597	4.0
95.612	3.0
95.627	5.0
95.642	2.0
95.657	1.0
95.672	4.0
95.687	3.0
95.702	3.0
95.717	3.0
95.731	3.0
95.746	3.0
95.761	3.0
95.776	3.0
95.791	1.0
95.806	2.0
95.821	6.0
95.836	1.0
95.851	3.0
95.866	3.0
95.88	4.0
95.895	0.0
95.91	8.0
95.925	5.0
95.94	7.0
95.955	6.0
95.97	2.0
95.985	2.0
96.0	6.0
96.015	7.0
96.029	4.0
96.044	1.0
96.059	5.0
96.074	3.0
96.089	6.0
96.104	1.0
96.119	2.0
96.134	3.0
96.149	3.0
96.164	4.0
96.179	4.0
96.194	4.0
96.208	2.0
96.223	2.0
96.238	4.0
96.253	5.0
96.268	0.0
96.283	3.0
96.298	4.0
96.313	2.0
96.328	4.0
96.343	6.0
96.358	2.0
96.373	3.0
96.388	5.0
96.403	5.0
96.417	3.0
96.432	3.0
96.447	2.0
96.462	0.0
96.477	4.0
96.492	6.0
96.507	1.0
96.522	3.0
96.537	1.0
96.552	2.0
96.567	0.0
96.582	2.0
96.597	7.0
96.612	1.0
96.627	4.0
96.642	1.0
96.656	5.0
96.671	4.0
96.686	8.0
96.701	2.0
96.716	3.0
96.731	2.0
96.746	2.0
96.761	4.0
96.776	6.0
96.791	2.0
96.806	4.0
96.821	2.0
96.836	5.0
96.851	0.0
96.866	2.0
96.881	1.0
96.896	6.0
96.911	5.0
96.926	6.0
96.94	4.0
96.955	2.0
96.97	7.0
96.985	9.0
97.0	3.0
97.015	3.0
97.03	0.0
97.045	5.0
97.06	1.0
97.075	1.0
97.09	3.0
97.105	5.0
97.12	4.0
97.135	1.0
97.15	2.0
97.165	1.0
97.18	2.0
97.195	4.0
97.21	3.0
97.225	3.0
97.239	1.0
97.254	3.0
97.269	4.0
97.284	2.0
97.299	5.0
97.314	4.0
97.329	3.0
97.344	1.0
97.359	3.0
97.374	3.0
97.389	4.0
97.404	3.0
97.419	5.0
97.434	4.0
97.449	4.0
97.464	1.0
97.479	4.0
97.494	4.0
97.509	0.0
97.524	5.0
97.538	4.0
97.553	1.0
97.568	3.0
97.583	3.0
97.598	2.0
97.613	2.0
97.628	2.0
97.643	3.0
97.658	3.0
97.673	2.0
97.688	3.0
97.703	2.0
97.718	3.0
97.733	2.0
97.748	1.0
97.763	1.0
97.778	3.0
97.792	4.0
97.807	6.0
97.822	3.0
97.837	4.0
97.852	4.0
97.867	2.0
97.882	2.0
97.897	1.0
97.912	5.0
97.927	4.0
97.942	2.0
97.957	2.0
97.972	1.0
97.987	2.0
98.001	3.0
98.016	1.0
98.031	4.0
98.046	7.0
98.061	2.0
98.076	2.0
98.091	1.0
98.106	2.0
98.121	4.0
98.136	2.0
98.151	1.0
98.166	1.0
98.181	3.0
98.195	3.0
98.21	3.0
98.225	1.0
98.24	0.0
98.255	3.0
98.27	4.0
98.285	0.0
98.3	4.0
98.315	4.0
98.33	1.0
98.345	4.0
98.359	3.0
98.374	2.0
98.389	1.0
98.404	4.0
98.419	2.0
98.434	3.0
98.449	1.0
98.464	2.0
98.479	2.0
98.494	1.0
98.508	4.0
98.523	1.0
98.538	6.0
98.553	1.0
98.568	5.0
98.583	3.0
98.598	3.0
98.613	4.0
98.628	3.0
98.642	3.0
98.657	4.0
98.672	1.0
98.687	4.0
98.702	4.0
98.717	0.0
98.732	3.0
98.747	3.0
98.762	2.0
98.776	2.0
98.791	2.0
98.806	3.0
98.821	4.0
98.836	2.0
98.851	3.0
98.866	2.0
98.881	4.0
98.896	2.0
98.91	0.0
98.925	4.0
98.94	5.0
98.955	4.0
98.97	4.0
98.985	5.0
99.0	3.0
99.015	2.0
99.029	4.0
99.044	1.0
99.059	3.0
99.074	3.0
99.089	2.0
99.104	5.0
99.119	4.0
99.133	3.0
99.148	2.0
99.163	7.0
99.178	3.0
99.193	3.0
99.208	3.0
99.223	0.0
99.238	2.0
99.252	0.0
99.267	3.0
99.282	3.0
99.297	6.0
99.312	3.0
99.327	2.0
99.342	5.0
99.356	1.0
99.371	3.0
99.386	2.0
99.401	4.0
99.416	3.0
99.431	2.0
99.446	2.0
99.461	7.0
99.475	2.0
99.49	2.0
99.505	3.0
99.52	0.0
99.535	4.0
99.55	5.0
99.565	3.0
99.579	5.0
99.594	2.0
99.609	4.0
99.624	3.0
99.639	2.0
99.654	2.0
99.669	5.0
99.683	2.0
99.698	2.0
99.713	3.0
99.728	3.0
99.743	2.0
99.758	3.0
99.772	2.0
99.787	5.0
99.802	5.0
99.817	0.0
99.832	4.0
99.847	4.0
99.862	4.0
99.876	3.0
99.891	2.0
99.906	1.0
99.921	0.0
99.936	2.0
99.951	4.0
99.966	3.0
99.98	4.0
99.995	5.0
100.01	4.0
100.025	4.0
100.04	7.0
100.055	4.0
100.069	4.0
100.084	4.0
100.099	2.0
100.114	1.0
100.129	1.0
100.144	6.0
100.159	4.0
100.173	3.0
100.188	0.0
100.203	4.0
100.218	4.0
100.233	1.0
100.248	3.0
100.262	9.0
100.277	4.0
100.292	1.0
100.307	1.0
100.322	3.0
100.337	5.0
100.351	4.0
100.366	5.0
100.381	2.0
100.396	7.0
100.411	7.0
100.426	3.0
100.441	6.0
100.455	8.0
100.47	2.0
100.485	6.0
100.5	2.0
100.515	3.0
100.53	6.0
100.544	1.0
100.559	0.0
100.574	1.0
100.589	6.0
100.604	3.0
100.619	4.0
100.633	2.0
100.648	5.0
100.663	2.0
100.678	3.0
100.693	8.0
100.708	5.0
100.722	5.0
100.737	2.0
100.752	1.0
100.767	1.0
100.782	2.0
100.796	4.0
100.811	3.0
100.826	8.0
100.841	0.0
100.856	5.0
100.871	7.0
100.885	4.0
100.9	3.0
100.915	4.0
100.93	4.0
100.945	9.0
100.96	3.0
100.974	2.0
100.989	2.0
101.004	3.0
101.019	2.0
101.034	7.0
101.048	3.0
101.063	7.0
101.078	4.0
101.093	4.0
101.108	3.0
101.123	3.0
101.137	2.0
101.152	2.0
101.167	1.0
101.182	6.0
101.197	6.0
101.211	7.0
101.226	5.0
101.241	2.0
101.256	6.0
101.271	2.0
101.285	3.0
101.3	6.0
101.315	3.0
101.33	2.0
101.345	2.0
101.359	4.0
101.374	2.0
101.389	3.0
101.404	4.0
101.419	3.0
101.433	3.0
101.448	4.0
101.463	6.0
101.478	3.0
101.493	1.0
101.507	3.0
101.522	2.0
101.537	2.0
101.552	4.0
101.567	5.0
101.581	2.0
101.596	3.0
101.611	3.0
101.626	3.0
101.64	4.0
101.655	2.0
101.67	5.0
101.685	4.0
101.7	4.0
101.714	1.0
101.729	4.0
101.744	2.0
101.759	1.0
101.773	4.0
101.788	2.0
101.803	0.0
101.818	2.0
101.833	4.0
101.847	1.0
101.862	2.0
101.877	1.0
101.892	1.0
101.906	8.0
101.921	6.0
101.936	3.0
101.951	1.0
101.965	2.0
101.98	2.0
101.995	3.0
102.01	3.0
102.025	1.0
102.039	3.0
102.054	4.0
102.069	6.0
102.084	4.0
102.098	6.0
102.113	3.0
102.128	2.0
102.143	6.0
102.157	1.0
102.172	3.0
102.187	4.0
102.202	2.0
102.216	3.0
102.231	2.0
102.246	3.0
102.261	3.0
102.275	2.0
102.29	1.0
102.305	5.0
102.32	0.0
102.334	2.0
102.349	4.0
102.364	5.0
102.378	3.0
102.393	1.0
102.408	3.0
102.423	1.0
102.437	4.0
102.452	2.0
102.467	2.0
102.482	0.0
102.496	1.0
102.511	1.0
102.526	2.0
102.541	2.0
102.555	4.0
102.57	2.0
102.585	3.0
102.6	6.0
102.614	1.0
102.629	4.0
102.644	0.0
102.659	2.0
102.673	4.0
102.688	3.0
102.703	5.0
102.717	2.0
102.732	5.0
102.747	1.0
102.762	2.0
102.776	2.0
102.791	5.0
102.806	3.0
102.821	3.0
102.835	1.0
102.85	2.0
102.865	2.0
102.88	3.0
102.894	2.0
102.909	4.0
102.924	1.0
102.938	2.0
102.953	2.0
102.968	6.0
102.983	8.0
102.997	0.0
103.012	5.0
103.027	1.0
103.042	6.0
103.056	0.0
103.071	2.0
103.086	4.0
103.101	4.0
103.115	1.0
103.13	5.0
103.145	1.0
103.16	6.0
103.174	4.0
103.189	3.0
103.204	5.0
103.219	1.0
103.233	2.0
103.248	2.0
103.263	0.0
103.278	0.0
103.292	4.0
103.307	2.0
103.322	2.0
103.337	2.0
103.351	3.0
103.366	3.0
103.381	2.0
103.396	2.0
103.41	1.0
103.425	1.0
103.44	8.0
103.455	3.0
103.469	7.0
103.484	2.0
103.499	5.0
103.514	5.0
103.529	0.0
103.543	3.0
103.558	2.0
103.573	4.0
103.588	8.0
103.602	5.0
103.617	0.0
103.632	1.0
103.647	2.0
103.661	5.0
103.676	3.0
103.691	6.0
103.706	0.0
103.721	1.0
103.735	2.0
103.75	4.0
103.765	6.0
103.78	5.0
103.795	3.0
103.809	5.0
103.824	1.0
103.839	1.0
103.854	3.0
103.869	0.0
103.883	3.0
103.898	3.0
103.913	3.0
103.928	3.0
103.943	4.0
103.957	7.0
103.972	2.0
103.987	2.0
104.002	2.0
104.017	0.0
104.031	5.0
104.046	7.0
104.061	5.0
104.076	5.0
104.091	4.0
104.106	5.0
104.12	2.0
104.135	2.0
104.15	6.0
104.165	3.0
104.18	4.0
104.195	1.0
104.209	3.0
104.224	3.0
104.239	3.0
104.254	0.0
104.269	2.0
104.284	7.0
104.299	4.0
104.313	3.0
104.328	2.0
104.343	2.0
104.358	3.0
104.373	4.0
104.388	6.0
104.403	4.0
104.417	10.0
104.432	3.0
104.447	2.0
104.462	2.0
104.477	2.0
104.492	4.0
104.507	3.0
104.522	4.0
104.536	1.0
104.551	4.0
104.566	5.0
104.581	2.0
104.596	4.0
104.611	2.0
104.626	3.0
104.641	6.0
104.656	3.0
104.67	7.0
104.685	1.0
104.7	2.0
104.715	4.0
104.73	2.0
104.745	5.0
104.76	2.0
104.775	4.0
104.79	2.0
104.804	1.0
104.819	0.0
104.834	1.0
104.849	5.0
104.864	2.0
104.879	2.0
104.894	8.0
104.909	3.0
104.924	2.0
104.939	3.0
104.954	4.0
104.968	2.0
104.983	3.0
104.998	4.0
105.013	5.0
105.028	3.0
105.043	1.0
105.058	0.0
105.073	1.0
105.088	2.0
105.103	4.0
105.118	1.0
105.133	3.0
105.147	2.0
105.162	1.0
105.177	3.0
105.192	9.0
105.207	6.0
105.222	4.0
105.237	2.0
105.252	4.0
105.267	3.0
105.282	5.0
105.297	3.0
105.312	7.0
105.327	4.0
105.342	1.0
105.356	4.0
105.371	5.0
105.386	4.0
105.401	12.0
105.416	2.0
105.431	2.0
105.446	4.0
105.461	2.0
105.476	1.0
105.491	2.0
105.506	3.0
105.521	3.0
105.536	4.0
105.551	8.0
105.566	2.0
105.581	2.0
105.595	1.0
105.61	6.0
105.625	4.0
105.64	2.0
105.655	5.0
105.67	3.0
105.685	2.0
105.7	1.0
105.715	3.0
105.73	3.0
105.745	3.0
105.76	5.0
105.775	0.0
105.79	3.0
105.805	3.0
105.82	3.0
105.835	3.0
105.85	3.0
105.864	5.0
105.879	4.0
105.894	2.0
105.909	3.0
105.924	3.0
105.939	1.0
105.954	1.0
105.969	2.0
105.984	5.0
105.999	2.0
106.014	3.0
106.029	3.0
106.044	1.0
106.059	0.0
106.074	3.0
106.089	2.0
106.104	4.0
106.119	2.0
106.134	1.0
106.148	4.0
106.163	6.0
106.178	2.0
106.193	3.0
106.208	5.0
106.223	3.0
106.238	3.0
106.253	3.0
106.268	4.0
106.283	3.0
106.298	3.0
106.313	5.0
106.328	7.0
106.343	2.0
106.358	3.0
106.373	4.0
106.388	4.0
106.403	5.0
106.418	3.0
106.432	2.0
106.447	6.0
106.462	2.0
106.477	1.0
106.492	5.0
106.507	5.0
106.522	8.0
106.537	6.0
106.552	3.0
106.567	2.0
106.582	5.0
106.597	5.0
106.612	8.0
106.627	4.0
106.642	3.0
106.657	3.0
106.672	4.0
106.687	2.0
106.701	4.0
106.716	2.0
106.731	2.0
106.746	5.0
106.761	2.0
106.776	8.0
106.791	0.0
106.806	2.0
106.821	1.0
106.836	1.0
106.851	2.0
106.866	5.0
106.881	4.0
106.896	0.0
106.911	3.0
106.926	5.0
106.941	5.0
106.955	5.0
106.97	1.0
106.985	3.0
107.0	3.0
107.015	2.0
107.03	2.0
107.045	2.0
107.06	4.0
107.075	7.0
107.09	2.0
107.105	4.0
107.12	3.0
107.135	5.0
107.15	6.0
107.165	7.0
107.18	7.0
107.194	4.0
107.209	8.0
107.224	1.0
107.239	7.0
107.254	8.0
107.269	2.0
107.284	3.0
107.299	1.0
107.314	2.0
107.329	6.0
107.344	4.0
107.359	0.0
107.374	5.0
107.389	4.0
107.404	2.0
107.418	0.0
107.433	5.0
107.448	2.0
107.463	3.0
107.478	2.0
107.493	3.0
107.508	4.0
107.523	1.0
107.538	2.0
107.553	5.0
107.568	4.0
107.583	2.0
107.598	2.0
107.613	3.0
107.627	4.0
107.642	6.0
107.657	3.0
107.672	2.0
107.687	3.0
107.702	8.0
107.717	6.0
107.732	5.0
107.747	3.0
107.762	5.0
107.777	2.0
107.792	8.0
107.807	4.0
107.821	2.0
107.836	5.0
107.851	3.0
107.866	1.0
107.881	4.0
107.896	2.0
107.911	3.0
107.926	6.0
107.941	2.0
107.956	6.0
107.971	5.0
107.986	3.0
108.0	2.0
108.015	5.0
108.03	5.0
108.045	4.0
108.06	9.0
108.075	0.0
108.09	2.0
108.105	9.0
108.12	4.0
108.135	6.0
108.15	4.0
108.164	4.0
108.179	3.0
108.194	3.0
108.209	2.0
108.224	3.0
108.239	1.0
108.254	4.0
108.269	2.0
108.284	4.0
108.299	4.0
108.313	7.0
108.328	1.0
108.343	2.0
108.358	1.0
108.373	3.0
108.388	1.0
108.403	3.0
108.418	1.0
108.433	2.0
108.448	3.0
108.462	4.0
108.477	2.0
108.492	2.0
108.507	2.0
108.522	4.0
108.537	2.0
108.552	4.0
108.567	2.0
108.582	4.0
108.597	2.0
108.611	3.0
108.626	4.0
108.641	2.0
108.656	1.0
108.671	1.0
108.686	2.0
108.701	2.0
108.716	2.0
108.731	2.0
108.745	1.0
108.76	1.0
108.775	2.0
108.79	5.0
108.805	4.0
108.82	0.0
108.835	3.0
108.85	3.0
108.865	1.0
108.879	5.0
108.894	0.0
108.909	3.0
108.924	7.0
108.939	5.0
108.954	2.0
108.969	3.0
108.984	3.0
108.999	6.0
109.013	4.0
109.028	4.0
109.043	4.0
109.058	4.0
109.073	1.0
109.088	2.0
109.103	3.0
109.118	4.0
109.133	3.0
109.147	5.0
109.162	6.0
109.177	0.0
109.192	2.0
109.207	0.0
109.222	2.0
109.237	2.0
109.252	2.0
109.267	4.0
109.281	4.0
109.296	1.0
109.311	2.0
109.326	4.0
109.341	3.0
109.356	2.0
109.371	2.0
109.386	4.0
109.4	3.0
109.415	3.0
109.43	5.0
109.445	4.0
109.46	5.0
109.475	2.0
109.49	4.0
109.505	2.0
109.52	2.0
109.534	2.0
109.549	5.0
109.564	5.0
109.579	2.0
109.594	5.0
109.609	2.0
109.624	5.0
109.639	1.0
109.653	5.0
109.668	2.0
109.683	2.0
109.698	1.0
109.713	4.0
109.728	4.0
109.743	1.0
109.758	7.0
109.773	4.0
109.787	2.0
109.802	5.0
109.817	1.0
109.832	2.0
109.847	1.0
109.862	4.0
109.877	5.0
109.892	2.0
109.907	4.0
109.921	1.0
109.936	6.0
109.951	2.0
109.966	3.0
109.981	1.0
109.996	2.0
110.011	3.0
110.026	2.0
110.04	10.0
110.055	1.0
110.07	10.0
110.085	7.0
110.1	2.0
110.115	3.0
110.13	4.0
110.145	5.0
110.16	1.0
110.174	3.0
110.189	1.0
110.204	2.0
110.219	1.0
110.234	0.0
110.249	2.0
110.264	3.0
110.279	2.0
110.294	4.0
110.308	6.0
110.323	4.0
110.338	3.0
110.353	0.0
110.368	5.0
110.383	3.0
110.398	2.0
110.413	2.0
110.428	3.0
110.442	2.0
110.457	1.0
110.472	7.0
110.487	4.0
110.502	2.0
110.517	3.0
110.532	2.0
110.547	9.0
110.561	3.0
110.576	2.0
110.591	4.0
110.606	5.0
110.621	5.0
110.636	1.0
110.651	3.0
110.666	2.0
110.681	5.0
110.695	5.0
110.71	2.0
110.725	5.0
110.74	1.0
110.755	6.0
110.77	0.0
110.785	5.0
110.8	3.0
110.815	5.0
110.829	4.0
110.844	2.0
110.859	4.0
110.874	1.0
110.889	6.0
110.904	3.0
110.919	5.0
110.934	7.0
110.948	4.0
110.963	0.0
110.978	4.0
110.993	6.0
111.008	6.0
111.023	2.0
111.038	4.0
111.053	7.0
111.067	2.0
111.082	1.0
111.097	3.0
111.112	3.0
111.127	4.0
111.142	2.0
111.157	4.0
111.172	2.0
111.186	6.0
111.201	2.0
111.216	1.0
111.231	1.0
111.246	6.0
111.261	1.0
111.276	7.0
111.291	1.0
111.305	2.0
111.32	2.0
111.335	2.0
111.35	5.0
111.365	3.0
111.38	2.0
111.395	4.0
111.41	3.0
111.424	3.0
111.439	3.0
111.454	1.0
111.469	2.0
111.484	3.0
111.499	4.0
111.514	5.0
111.528	4.0
111.543	4.0
111.558	4.0
111.573	3.0
111.588	3.0
111.603	0.0
111.618	4.0
111.633	10.0
111.647	5.0
111.662	9.0
111.677	3.0
111.692	3.0
111.707	4.0
111.722	2.0
111.737	5.0
111.751	6.0
111.766	4.0
111.781	4.0
111.796	2.0
111.811	5.0
111.826	5.0
111.84	3.0
111.855	1.0
111.87	4.0
111.885	5.0
111.9	2.0
111.915	4.0
111.93	5.0
111.944	4.0
111.959	6.0
111.974	2.0
111.989	3.0
112.004	2.0
112.019	5.0
112.033	3.0
112.048	4.0
112.063	2.0
112.078	6.0
112.093	2.0
112.108	2.0
112.123	3.0
112.137	4.0
112.152	2.0
112.167	3.0
112.182	5.0
112.197	6.0
112.212	6.0
112.226	3.0
112.241	3.0
112.256	2.0
112.271	5.0
112.286	1.0
112.301	1.0
112.315	5.0
112.33	1.0
112.345	3.0
112.36	3.0
112.375	2.0
112.389	3.0
112.404	2.0
112.419	4.0
112.434	2.0
112.449	1.0
112.464	1.0
112.478	4.0
112.493	8.0
112.508	2.0
112.523	3.0
112.538	4.0
112.553	5.0
112.567	5.0
112.582	4.0
112.597	8.0
112.612	1.0
112.627	3.0
112.642	5.0
112.656	3.0
112.671	1.0
112.686	5.0
112.701	8.0
112.716	2.0
112.73	7.0
112.745	3.0
112.76	6.0
112.775	5.0
112.79	0.0
112.805	2.0
112.819	2.0
112.834	4.0
112.849	4.0
112.864	4.0
112.879	5.0
112.894	5.0
112.908	3.0
112.923	4.0
112.938	3.0
112.953	4.0
112.968	3.0
112.983	3.0
112.997	6.0
113.012	2.0
113.027	5.0
113.042	2.0
113.057	2.0
113.072	5.0
113.086	7.0
113.101	5.0
113.116	1.0
113.131	4.0
113.146	2.0
113.161	4.0
113.175	3.0
113.19	2.0
113.205	3.0
113.22	4.0
113.235	4.0
113.25	1.0
113.265	5.0
113.279	6.0
113.294	4.0
113.309	4.0
113.324	1.0
113.339	3.0
113.354	6.0
113.368	1.0
113.383	1.0
113.398	1.0
113.413	1.0
113.428	5.0
113.443	4.0
113.458	8.0
113.472	7.0
113.487	1.0
113.502	4.0
113.517	2.0
113.532	2.0
113.547	6.0
113.562	2.0
113.576	2.0
113.591	4.0
113.606	0.0
113.621	2.0
113.636	6.0
113.651	2.0
113.666	3.0
113.681	5.0
113.695	8.0
113.71	4.0
113.725	1.0
113.74	2.0
113.755	7.0
113.77	3.0
113.785	2.0
113.8	4.0
113.814	4.0
113.829	3.0
113.844	4.0
113.859	1.0
113.874	7.0
113.889	3.0
113.904	3.0
113.919	5.0
113.934	3.0
113.949	5.0
113.963	3.0
113.978	1.0
113.993	2.0
114.008	6.0
114.023	3.0
114.038	6.0
114.053	5.0
114.068	5.0
114.083	2.0
114.098	0.0
114.113	3.0
114.127	5.0
114.142	4.0
114.157	3.0
114.172	1.0
114.187	5.0
114.202	5.0
114.217	3.0
114.232	2.0
114.247	3.0
114.262	5.0
114.277	4.0
114.292	4.0
114.307	4.0
114.322	3.0
114.337	1.0
114.351	4.0
114.366	2.0
114.381	4.0
114.396	2.0
114.411	7.0
114.426	3.0
114.441	3.0
114.456	2.0
114.471	3.0
114.486	5.0
114.501	3.0
114.516	3.0
114.531	4.0
114.546	4.0
114.561	5.0
114.576	4.0
114.591	10.0
114.606	2.0
114.621	2.0
114.636	7.0
114.65	3.0
114.665	4.0
114.68	6.0
114.695	4.0
114.71	3.0
114.725	2.0
114.74	5.0
114.755	1.0
114.77	4.0
114.785	3.0
114.8	2.0
114.815	6.0
114.83	6.0
114.845	2.0
114.86	3.0
114.875	3.0
114.89	3.0
114.905	9.0
114.92	1.0
114.935	4.0
114.95	4.0
114.965	4.0
114.98	3.0
114.995	0.0
115.009	1.0
115.024	5.0
115.039	7.0
115.054	3.0
115.069	2.0
115.084	5.0
115.099	3.0
115.114	2.0
115.129	5.0
115.144	2.0
115.159	1.0
115.174	3.0
115.189	3.0
115.204	5.0
115.219	2.0
115.234	5.0
115.249	4.0
115.264	2.0
115.279	1.0
115.294	4.0
115.309	3.0
115.323	3.0
115.338	6.0
115.353	4.0
115.368	2.0
115.383	4.0
115.398	6.0
115.413	6.0
115.428	7.0
115.443	2.0
115.458	5.0
115.473	3.0
115.488	8.0
115.503	3.0
115.518	2.0
115.533	8.0
115.548	2.0
115.562	2.0
115.577	4.0
115.592	6.0
115.607	2.0
115.622	6.0
115.637	4.0
115.652	3.0
115.667	3.0
115.682	2.0
115.697	4.0
115.712	6.0
115.727	4.0
115.741	2.0
115.756	3.0
115.771	3.0
115.786	4.0
115.801	6.0
115.816	2.0
115.831	2.0
115.846	5.0
115.861	4.0
115.875	3.0
115.89	2.0
115.905	3.0
115.92	3.0
115.935	2.0
115.95	6.0
115.965	4.0
115.98	3.0
115.995	5.0
116.009	4.0
116.024	3.0
116.039	6.0
116.054	1.0
116.069	3.0
116.084	1.0
116.099	4.0
116.113	3.0
116.128	5.0
116.143	5.0
116.158	5.0
116.173	6.0
116.188	7.0
116.202	4.0
116.217	5.0
116.232	3.0
116.247	1.0
116.262	6.0
116.277	8.0
116.291	4.0
116.306	3.0
116.321	0.0
116.336	4.0
116.351	5.0
116.366	3.0
116.38	6.0
116.395	5.0
116.41	5.0
116.425	1.0
116.44	2.0
116.454	5.0
116.469	4.0
116.484	7.0
116.499	5.0
116.514	4.0
116.528	0.0
116.543	2.0
116.558	3.0
116.573	3.0
116.588	2.0
116.602	7.0
116.617	5.0
116.632	5.0
116.647	3.0
116.662	6.0
116.676	3.0
116.691	2.0
116.706	2.0
116.721	3.0
116.735	1.0
116.75	2.0
116.765	7.0
116.78	5.0
116.795	0.0
116.809	0.0
116.824	7.0
116.839	2.0
116.854	4.0
116.868	4.0
116.883	3.0
116.898	2.0
116.913	5.0
116.927	3.0
116.942	4.0
116.957	3.0
116.972	3.0
116.986	2.0
117.001	0.0
117.016	5.0
117.031	4.0
117.045	2.0
117.06	1.0
117.075	4.0
117.09	1.0
117.104	4.0
117.119	4.0
117.134	2.0
117.149	9.0
117.163	4.0
117.178	4.0
117.193	5.0
117.208	7.0
117.222	7.0
117.237	5.0
117.252	4.0
117.267	4.0
117.281	5.0
117.296	1.0
117.311	3.0
117.325	3.0
117.34	5.0
117.355	4.0
117.37	3.0
117.384	4.0
117.399	0.0
117.414	2.0
117.429	4.0
117.443	4.0
117.458	6.0
117.473	3.0
117.487	6.0
117.502	2.0
117.517	6.0
117.532	3.0
117.546	6.0
117.561	0.0
117.576	4.0
117.59	6.0
117.605	5.0
117.62	5.0
117.635	5.0
117.649	2.0
117.664	3.0
117.679	2.0
117.693	4.0
117.708	8.0
117.723	7.0
117.738	2.0
117.752	3.0
117.767	3.0
117.782	6.0
117.796	3.0
117.811	3.0
117.826	3.0
117.841	3.0
117.855	4.0
117.87	4.0
117.885	2.0
117.899	5.0
117.914	4.0
117.929	5.0
117.944	7.0
117.958	4.0
117.973	4.0
117.988	4.0
118.002	3.0
118.017	2.0
118.032	3.0
118.047	2.0
118.062	3.0
118.077	4.0
118.092	2.0
118.107	8.0
118.121	4.0
118.136	6.0
118.151	4.0
118.166	5.0
118.181	6.0
118.196	4.0
118.211	4.0
118.225	5.0
118.24	6.0
118.255	2.0
118.27	3.0
118.285	5.0
118.3	1.0
118.315	3.0
118.33	6.0
118.344	5.0
118.359	2.0
118.374	3.0
118.389	5.0
118.404	4.0
118.419	4.0
118.434	4.0
118.449	8.0
118.463	6.0
118.478	2.0
118.493	6.0
118.508	2.0
118.523	3.0
118.538	7.0
118.553	2.0
118.567	3.0
118.582	2.0
118.597	3.0
118.612	3.0
118.627	4.0
118.642	4.0
118.657	1.0
118.672	7.0
118.686	3.0
118.701	4.0
118.716	5.0
118.731	2.0
118.746	3.0
118.761	5.0
118.776	5.0
118.791	3.0
118.805	4.0
118.82	9.0
118.835	6.0
118.85	1.0
118.865	4.0
118.88	1.0
118.895	2.0
118.909	2.0
118.924	5.0
118.939	5.0
118.954	4.0
118.969	5.0
118.984	5.0
118.999	5.0
119.014	5.0
119.028	2.0
119.043	2.0
119.058	2.0
119.073	6.0
119.088	3.0
119.103	3.0
119.118	4.0
119.133	1.0
119.147	3.0
119.162	4.0
119.177	5.0
119.192	5.0
119.207	2.0
119.222	4.0
119.237	4.0
119.251	5.0
119.266	6.0
119.281	4.0
119.296	1.0
119.311	3.0
119.326	1.0
119.341	4.0
119.356	1.0
119.37	6.0
119.385	1.0
119.4	8.0
119.415	3.0
119.43	2.0
119.445	4.0
119.46	5.0
119.475	3.0
119.489	5.0
119.504	1.0
119.519	5.0
119.534	3.0
119.549	1.0
119.564	3.0
119.579	3.0
119.593	2.0
119.608	4.0
119.623	3.0
119.638	2.0
119.653	5.0
119.668	2.0
119.683	3.0
119.698	1.0
119.712	5.0
119.727	2.0
119.742	0.0
119.757	1.0
119.772	9.0
119.787	5.0
119.802	2.0
119.817	1.0
119.831	5.0
119.846	3.0
119.861	7.0
119.876	5.0
119.891	4.0
119.906	2.0
119.921	2.0
119.935	0.0
119.95	3.0
119.965	3.0
119.98	4.0
119.995	4.0
120.01	0.0
120.025	1.0
120.04	2.0
120.054	0.0
120.069	4.0
120.084	1.0
120.099	1.0
120.114	0.0
120.129	1.0
120.144	1.0
120.159	5.0
120.173	1.0
120.188	1.0
120.203	3.0
120.218	0.0
120.233	1.0
120.248	2.0
120.263	1.0
120.277	0.0
120.292	2.0
120.307	2.0
120.322	0.0
120.337	0.0
120.352	0.0
120.367	0.0
120.382	0.0
120.396	0.0
120.411	2.0
120.426	0.0
120.441	0.0
120.456	0.0
120.471	0.0
120.486	0.0
120.501	0.0
120.515	0.0
120.53	1.0
120.545	0.0
120.56	0.0
120.575	0.0
120.59	0.0
120.605	0.0
120.619	0.0
120.634	1.0
120.649	0.0
120.664	0.0
120.679	0.0
120.694	1.0
120.709	0.0
120.724	0.0
120.738	0.0
120.753	0.0
120.768	0.0
120.783	0.0
120.798	0.0
120.813	0.0
120.828	0.0
120.843	0.0
120.857	0.0
120.872	0.0
120.887	0.0
120.902	0.0
120.917	0.0
120.932	0.0
120.947	0.0
120.961	0.0
120.976	0.0
