-1.217	0.0
-1.202	0.0
-1.187	0.0
-1.172	0.0
-1.157	0.0
-1.142	0.0
-1.128	0.0
-1.113	0.0
-1.098	0.0
-1.083	0.0
-1.068	0.0
-1.054	0.0
-1.039	0.0
-1.024	0.0
-1.009	0.0
-0.994	0.0
-0.979	0.0
-0.965	0.0
-0.95	0.0
-0.935	0.0
-0.92	0.0
-0.905	0.0
-0.891	0.0
-0.876	0.0
-0.861	0.0
-0.846	0.0
-0.831	0.0
-0.816	0.0
-0.802	0.0
-0.787	0.0
-0.772	0.0
-0.757	0.0
-0.742	0.0
-0.728	0.0
-0.713	0.0
-0.698	0.0
-0.683	0.0
-0.668	0.0
-0.653	0.0
-0.639	0.0
-0.624	0.0
-0.609	0.0
-0.594	0.0
-0.579	0.0
-0.565	0.0
-0.55	0.0
-0.535	0.0
-0.52	0.0
-0.505	0.0
-0.49	0.0
-0.476	0.0
-0.461	0.0
-0.446	0.0
-0.431	0.0
-0.416	0.0
-0.401	0.0
-0.387	0.0
-0.372	0.0
-0.357	0.0
-0.342	0.0
-0.327	0.0
-0.313	0.0
-0.298	0.0
-0.283	0.0
-0.268	0.0
-0.253	0.0
-0.238	0.0
-0.224	0.0
-0.209	0.0
-0.194	0.0
-0.179	0.0
-0.164	0.0
-0.15	0.0
-0.135	0.0
-0.12	0.0
-0.105	0.0
-0.09	0.0
-0.075	0.0
-0.061	0.0
-0.046	0.0
-0.031	0.0
-0.016	0.0
-0.001	0.0
0.013	0.0
0.028	0.0
0.043	0.0
0.058	0.0
0.073	0.0
0.088	0.0
0.102	0.0
0.117	0.0
0.132	0.0
0.147	0.0
0.162	0.0
0.176	0.0
0.191	0.0
0.206	0.0
0.221	0.0
0.236	0.0
0.251	0.0
0.265	0.0
0.28	0.0
0.295	0.0
0.31	0.0
0.325	0.0
0.339	0.0
0.354	0.0
0.369	0.0
0.384	1.0
0.399	0.0
0.414	0.0
0.428	0.0
0.443	0.0
0.458	0.0
0.473	0.0
0.488	0.0
0.502	0.0
0.517	0.0
0.532	0.0
0.547	0.0
0.562	0.0
0.577	0.0
0.591	0.0
0.606	0.0
0.621	0.0
0.636	0.0
0.651	1.0
0.665	0.0
0.68	0.0
0.695	0.0
0.71	0.0
0.725	0.0
0.74	0.0
0.754	1.0
0.769	0.0
0.784	0.0
0.799	0.0
0.814	0.0
0.828	0.0
0.843	1.0
0.858	0.0
0.873	0.0
0.888	0.0
0.903	0.0
0.917	0.0
0.932	0.0
0.947	0.0
0.962	0.0
0.977	0.0
0.991	0.0
1.006	0.0
1.021	0.0
1.036	0.0
1.051	0.0
1.065	0.0
1.08	0.0
1.095	0.0
1.11	0.0
1.125	0.0
1.14	0.0
1.154	0.0
1.169	0.0
1.184	0.0
1.199	1.0
1.214	0.0
1.228	0.0
1.243	0.0
1.258	0.0
1.273	0.0
1.288	0.0
1.302	0.0
1.317	1.0
1.332	0.0
1.347	0.0
1.362	0.0
1.376	0.0
1.391	0.0
1.406	0.0
1.421	0.0
1.436	0.0
1.45	0.0
1.465	0.0
1.48	0.0
1.495	0.0
1.51	0.0
1.524	0.0
1.539	0.0
1.554	0.0
1.569	0.0
1.584	0.0
1.598	0.0
1.613	0.0
1.628	0.0
1.643	0.0
1.658	0.0
1.672	0.0
1.687	0.0
1.702	0.0
1.717	0.0
1.732	0.0
1.746	0.0
1.761	0.0
1.776	0.0
1.791	0.0
1.806	0.0
1.82	0.0
1.835	0.0
1.85	0.0
1.865	0.0
1.88	0.0
1.894	0.0
1.909	0.0
1.924	0.0
1.939	1.0
1.954	0.0
1.968	0.0
1.983	1.0
1.998	1.0
2.013	1.0
2.028	1.0
2.042	1.0
2.057	0.0
2.072	1.0
2.087	0.0
2.101	0.0
2.116	0.0
2.131	0.0
2.146	0.0
2.161	1.0
2.175	1.0
2.19	0.0
2.205	0.0
2.22	0.0
2.235	0.0
2.249	0.0
2.264	0.0
2.279	0.0
2.294	1.0
2.308	0.0
2.323	0.0
2.338	2.0
2.353	4.0
2.368	0.0
2.382	0.0
2.397	2.0
2.412	1.0
2.427	1.0
2.442	1.0
2.456	2.0
2.471	2.0
2.486	2.0
2.501	0.0
2.515	3.0
2.53	1.0
2.545	4.0
2.56	0.0
2.575	1.0
2.589	0.0
2.604	4.0
2.619	4.0
2.634	3.0
2.649	3.0
2.663	3.0
2.678	5.0
2.693	5.0
2.708	2.0
2.722	3.0
2.737	2.0
2.752	3.0
2.767	4.0
2.782	3.0
2.796	1.0
2.811	4.0
2.826	3.0
2.841	0.0
2.856	5.0
2.87	2.0
2.885	3.0
2.9	4.0
2.915	4.0
2.93	5.0
2.944	3.0
2.959	6.0
2.974	5.0
2.989	4.0
3.004	2.0
3.018	5.0
3.033	4.0
3.048	3.0
3.063	2.0
3.078	2.0
3.092	3.0
3.107	4.0
3.122	4.0
3.137	4.0
3.152	5.0
3.166	7.0
3.181	1.0
3.196	6.0
3.211	2.0
3.226	5.0
3.24	5.0
3.255	3.0
3.27	4.0
3.285	6.0
3.3	3.0
3.315	5.0
3.329	3.0
3.344	1.0
3.359	6.0
3.374	7.0
3.389	4.0
3.403	4.0
3.418	4.0
3.433	5.0
3.448	6.0
3.463	4.0
3.478	4.0
3.492	4.0
3.507	5.0
3.522	5.0
3.537	4.0
3.552	4.0
3.567	3.0
3.581	5.0
3.596	7.0
3.611	5.0
3.626	9.0
3.641	5.0
3.656	6.0
3.671	4.0
3.685	6.0
3.7	11.0
3.715	6.0
3.73	7.0
3.745	3.0
3.76	7.0
3.775	5.0
3.789	3.0
3.804	7.0
3.819	7.0
3.834	4.0
3.849	4.0
3.864	5.0
3.879	9.0
3.894	4.0
3.908	7.0
3.923	7.0
3.938	10.0
3.953	7.0
3.968	5.0
3.983	9.0
3.998	1.0
4.013	8.0
4.027	13.0
4.042	3.0
4.057	5.0
4.072	3.0
4.087	7.0
4.102	3.0
4.117	5.0
4.132	6.0
4.147	7.0
4.162	6.0
4.176	7.0
4.191	8.0
4.206	2.0
4.221	2.0
4.236	7.0
4.251	11.0
4.266	8.0
4.281	8.0
4.296	6.0
4.311	8.0
4.326	8.0
4.341	8.0
4.356	10.0
4.37	5.0
4.385	6.0
4.4	3.0
4.415	6.0
4.43	10.0
4.445	10.0
4.46	10.0
4.475	8.0
4.49	6.0
4.505	6.0
4.52	5.0
4.535	8.0
4.55	5.0
4.565	9.0
4.58	9.0
4.595	10.0
4.61	4.0
4.625	9.0
4.639	9.0
4.654	9.0
4.669	5.0
4.684	9.0
4.699	7.0
4.714	7.0
4.729	6.0
4.744	7.0
4.759	11.0
4.774	10.0
4.789	6.0
4.804	6.0
4.819	3.0
4.834	10.0
4.849	8.0
4.864	7.0
4.879	7.0
4.894	12.0
4.909	6.0
4.924	13.0
4.939	9.0
4.954	5.0
4.969	5.0
4.984	7.0
4.999	5.0
5.014	8.0
5.029	5.0
5.044	4.0
5.059	6.0
5.074	12.0
5.089	7.0
5.104	7.0
5.119	8.0
5.134	8.0
5.149	8.0
5.164	9.0
5.179	9.0
5.194	11.0
5.209	10.0
5.224	7.0
5.239	17.0
5.254	10.0
5.269	14.0
5.284	10.0
5.299	8.0
5.314	4.0
5.329	12.0
5.344	5.0
5.359	10.0
5.374	5.0
5.389	16.0
5.404	13.0
5.419	11.0
5.434	11.0
5.449	12.0
5.464	11.0
5.479	8.0
5.494	10.0
5.509	9.0
5.524	10.0
5.539	2.0
5.554	7.0
5.569	5.0
5.584	5.0
5.599	5.0
5.614	6.0
5.629	5.0
5.644	8.0
5.659	10.0
5.674	8.0
5.689	13.0
5.704	12.0
5.719	10.0
5.734	7.0
5.749	3.0
5.764	10.0
5.779	7.0
5.794	10.0
5.809	12.0
5.824	12.0
5.839	10.0
5.854	7.0
5.869	8.0
5.884	9.0
5.899	13.0
5.914	9.0
5.929	9.0
5.944	5.0
5.959	7.0
5.974	4.0
5.989	10.0
6.004	15.0
6.019	7.0
6.034	8.0
6.049	11.0
6.064	2.0
6.079	7.0
6.094	7.0
6.109	6.0
6.124	4.0
6.139	15.0
6.154	6.0
6.169	10.0
6.184	12.0
6.199	8.0
6.214	6.0
6.229	7.0
6.244	4.0
6.259	5.0
6.274	9.0
6.289	13.0
6.304	14.0
6.319	8.0
6.334	14.0
6.349	8.0
6.364	14.0
6.379	12.0
6.394	7.0
6.409	3.0
6.424	11.0
6.439	4.0
6.454	11.0
6.469	10.0
6.484	5.0
6.499	4.0
6.514	7.0
6.529	10.0
6.544	12.0
6.559	7.0
6.574	8.0
6.589	8.0
6.604	12.0
6.619	11.0
6.634	11.0
6.649	5.0
6.664	9.0
6.679	3.0
6.694	7.0
6.709	13.0
6.724	6.0
6.739	11.0
6.754	11.0
6.769	12.0
6.784	9.0
6.799	8.0
6.814	6.0
6.829	8.0
6.844	11.0
6.859	4.0
6.873	10.0
6.888	7.0
6.903	9.0
6.918	9.0
6.933	14.0
6.948	6.0
6.963	4.0
6.978	12.0
6.993	13.0
7.008	4.0
7.023	9.0
7.038	10.0
7.053	5.0
7.068	6.0
7.083	15.0
7.098	9.0
7.113	6.0
7.128	10.0
7.143	12.0
7.157	6.0
7.172	12.0
7.187	10.0
7.202	8.0
7.217	4.0
7.232	5.0
7.247	10.0
7.262	6.0
7.277	8.0
7.292	12.0
7.307	13.0
7.322	15.0
7.336	6.0
7.351	8.0
7.366	5.0
7.381	4.0
7.396	8.0
7.411	7.0
7.426	9.0
7.441	13.0
7.456	6.0
7.471	6.0
7.485	6.0
7.5	2.0
7.515	5.0
7.53	4.0
7.545	12.0
7.56	9.0
7.575	12.0
7.59	10.0
7.604	14.0
7.619	6.0
7.634	8.0
7.649	10.0
7.664	9.0
7.679	16.0
7.693	8.0
7.708	6.0
7.723	7.0
7.738	10.0
7.753	11.0
7.768	7.0
7.783	10.0
7.797	8.0
7.812	7.0
7.827	13.0
7.842	12.0
7.857	8.0
7.871	13.0
7.886	14.0
7.901	8.0
7.916	7.0
7.931	13.0
7.945	7.0
7.96	5.0
7.975	12.0
7.99	13.0
8.005	14.0
8.019	10.0
8.034	9.0
8.049	15.0
8.064	8.0
8.078	19.0
8.093	10.0
8.108	8.0
8.123	13.0
8.137	9.0
8.152	4.0
8.167	8.0
8.182	9.0
8.196	8.0
8.211	11.0
8.226	13.0
8.241	4.0
8.255	8.0
8.27	7.0
8.285	6.0
8.3	4.0
8.314	5.0
8.329	9.0
8.344	5.0
8.358	8.0
8.373	4.0
8.388	6.0
8.403	8.0
8.417	9.0
8.432	5.0
8.447	8.0
8.461	11.0
8.476	7.0
8.491	7.0
8.505	12.0
8.52	11.0
8.535	9.0
8.55	9.0
8.564	6.0
8.579	14.0
8.594	11.0
8.608	6.0
8.623	8.0
8.638	9.0
8.652	6.0
8.667	11.0
8.682	8.0
8.696	7.0
8.711	9.0
8.726	7.0
8.74	10.0
8.755	9.0
8.77	4.0
8.784	9.0
8.799	11.0
8.814	22.0
8.828	3.0
8.843	9.0
8.858	7.0
8.872	14.0
8.887	8.0
8.902	11.0
8.916	8.0
8.931	8.0
8.946	11.0
8.96	11.0
8.975	7.0
8.99	6.0
9.004	8.0
9.019	7.0
9.034	9.0
9.048	5.0
9.063	9.0
9.077	9.0
9.092	5.0
9.107	7.0
9.121	4.0
9.136	12.0
9.151	7.0
9.165	8.0
9.18	8.0
9.195	9.0
9.209	6.0
9.224	11.0
9.239	4.0
9.253	6.0
9.268	9.0
9.283	16.0
9.297	7.0
9.312	12.0
9.327	11.0
9.341	9.0
9.356	5.0
9.371	8.0
9.385	10.0
9.4	10.0
9.415	7.0
9.429	6.0
9.444	14.0
9.458	10.0
9.473	6.0
9.488	7.0
9.502	7.0
9.517	15.0
9.532	9.0
9.546	10.0
9.561	8.0
9.576	4.0
9.59	10.0
9.605	6.0
9.62	13.0
9.635	3.0
9.649	8.0
9.664	6.0
9.679	4.0
9.693	12.0
9.708	10.0
9.723	9.0
9.737	4.0
9.752	14.0
9.767	9.0
9.781	10.0
9.796	5.0
9.811	9.0
9.825	8.0
9.84	3.0
9.855	4.0
9.87	9.0
9.884	7.0
9.899	3.0
9.914	9.0
9.928	9.0
9.943	9.0
9.958	7.0
9.973	5.0
9.987	8.0
10.002	7.0
10.017	5.0
10.031	6.0
10.046	5.0
10.061	7.0
10.076	12.0
10.09	8.0
10.105	8.0
10.12	11.0
10.135	8.0
10.149	7.0
10.164	7.0
10.179	7.0
10.194	8.0
10.208	7.0
10.223	10.0
10.238	9.0
10.253	6.0
10.267	5.0
10.282	7.0
10.297	9.0
10.312	4.0
10.326	11.0
10.341	10.0
10.356	8.0
10.371	8.0
10.386	4.0
10.4	8.0
10.415	13.0
10.43	13.0
10.445	3.0
10.46	11.0
10.474	7.0
10.489	10.0
10.504	6.0
10.519	9.0
10.533	8.0
10.548	4.0
10.563	8.0
10.578	13.0
10.593	13.0
10.608	5.0
10.622	8.0
10.637	11.0
10.652	8.0
10.667	6.0
10.682	6.0
10.696	9.0
10.711	3.0
10.726	6.0
10.741	11.0
10.756	6.0
10.771	7.0
10.785	6.0
10.8	6.0
10.815	9.0
10.83	4.0
10.845	11.0
10.86	8.0
10.874	7.0
10.889	9.0
10.904	6.0
10.919	10.0
10.934	7.0
10.949	8.0
10.963	8.0
10.978	5.0
10.993	8.0
11.008	8.0
11.023	7.0
11.038	5.0
11.053	9.0
11.067	3.0
11.082	7.0
11.097	9.0
11.112	3.0
11.127	3.0
11.142	9.0
11.157	8.0
11.172	6.0
11.186	15.0
11.201	10.0
11.216	8.0
11.231	3.0
11.246	6.0
11.261	9.0
11.276	6.0
11.291	11.0
11.305	6.0
11.32	7.0
11.335	7.0
11.35	7.0
11.365	11.0
11.38	8.0
11.395	7.0
11.41	8.0
11.424	6.0
11.439	12.0
11.454	6.0
11.469	8.0
11.484	6.0
11.499	11.0
11.514	11.0
11.529	2.0
11.544	8.0
11.558	6.0
11.573	6.0
11.588	10.0
11.603	7.0
11.618	6.0
11.633	8.0
11.648	7.0
11.663	3.0
11.678	10.0
11.693	7.0
11.707	9.0
11.722	9.0
11.737	13.0
11.752	6.0
11.767	8.0
11.782	10.0
11.797	8.0
11.812	8.0
11.827	7.0
11.842	10.0
11.856	15.0
11.871	10.0
11.886	9.0
11.901	11.0
11.916	17.0
11.931	12.0
11.946	8.0
11.961	4.0
11.976	6.0
11.991	8.0
12.006	10.0
12.02	9.0
12.035	8.0
12.05	17.0
12.065	4.0
12.08	10.0
12.095	7.0
12.11	11.0
12.125	12.0
12.14	8.0
12.155	4.0
12.17	9.0
12.184	9.0
12.199	10.0
12.214	8.0
12.229	14.0
12.244	13.0
12.259	13.0
12.274	6.0
12.289	9.0
12.304	12.0
12.319	10.0
12.334	11.0
12.348	10.0
12.363	12.0
12.378	16.0
12.393	12.0
12.408	13.0
12.423	11.0
12.438	9.0
12.453	11.0
12.468	15.0
12.483	17.0
12.498	12.0
12.513	12.0
12.527	10.0
12.542	14.0
12.557	11.0
12.572	19.0
12.587	14.0
12.602	14.0
12.617	15.0
12.632	15.0
12.647	9.0
12.662	10.0
12.677	8.0
12.692	14.0
12.707	15.0
12.721	20.0
12.736	17.0
12.751	10.0
12.766	12.0
12.781	20.0
12.796	16.0
12.811	14.0
12.826	21.0
12.841	14.0
12.856	11.0
12.871	12.0
12.886	10.0
12.9	6.0
12.915	12.0
12.93	16.0
12.945	13.0
12.96	18.0
12.975	15.0
12.99	19.0
13.005	19.0
13.02	25.0
13.035	17.0
13.05	21.0
13.065	22.0
13.08	15.0
13.094	19.0
13.109	19.0
13.124	13.0
13.139	24.0
13.154	14.0
13.169	14.0
13.184	11.0
13.199	18.0
13.214	24.0
13.229	20.0
13.244	17.0
13.259	19.0
13.274	16.0
13.288	15.0
13.303	18.0
13.318	19.0
13.333	20.0
13.348	25.0
13.363	26.0
13.378	26.0
13.393	35.0
13.408	23.0
13.423	23.0
13.438	18.0
13.453	25.0
13.468	34.0
13.482	30.0
13.497	42.0
13.512	39.0
13.527	49.0
13.542	52.0
13.557	46.0
13.572	55.0
13.587	57.0
13.602	64.0
13.617	71.0
13.632	73.0
13.647	54.0
13.662	93.0
13.677	80.0
13.691	78.0
13.706	101.0
13.721	93.0
13.736	115.0
13.751	97.0
13.766	109.0
13.781	107.0
13.796	140.0
13.811	133.0
13.826	137.0
13.841	140.0
13.856	102.0
13.871	131.0
13.885	99.0
13.9	93.0
13.915	67.0
13.93	65.0
13.945	70.0
13.96	59.0
13.975	51.0
13.99	46.0
14.005	40.0
14.02	32.0
14.035	33.0
14.05	23.0
14.065	20.0
14.08	24.0
14.094	14.0
14.109	26.0
14.124	31.0
14.139	28.0
14.154	24.0
14.169	22.0
14.184	31.0
14.199	17.0
14.214	24.0
14.229	31.0
14.244	20.0
14.259	26.0
14.274	13.0
14.288	20.0
14.303	15.0
14.318	21.0
14.333	20.0
14.348	20.0
14.363	14.0
14.378	25.0
14.393	23.0
14.408	9.0
14.423	21.0
14.438	14.0
14.453	21.0
14.468	20.0
14.482	20.0
14.497	11.0
14.512	21.0
14.527	18.0
14.542	15.0
14.557	13.0
14.572	17.0
14.587	18.0
14.602	15.0
14.617	13.0
14.632	18.0
14.647	16.0
14.661	13.0
14.676	18.0
14.691	22.0
14.706	19.0
14.721	13.0
14.736	15.0
14.751	15.0
14.766	18.0
14.781	16.0
14.796	11.0
14.811	25.0
14.826	12.0
14.84	26.0
14.855	12.0
14.87	21.0
14.885	10.0
14.9	21.0
14.915	17.0
14.93	15.0
14.945	25.0
14.96	13.0
14.975	18.0
14.989	18.0
15.004	11.0
15.019	14.0
15.034	11.0
15.049	7.0
15.064	12.0
15.079	18.0
15.094	17.0
15.109	19.0
15.124	16.0
15.138	17.0
15.153	11.0
15.168	19.0
15.183	12.0
15.198	14.0
15.213	11.0
15.228	11.0
15.243	19.0
15.258	27.0
15.272	15.0
15.287	21.0
15.302	15.0
15.317	14.0
15.332	12.0
15.347	22.0
15.362	9.0
15.377	16.0
15.391	16.0
15.406	9.0
15.421	21.0
15.436	11.0
15.451	9.0
15.466	21.0
15.481	20.0
15.496	18.0
15.51	15.0
15.525	5.0
15.54	17.0
15.555	7.0
15.57	9.0
15.585	15.0
15.6	9.0
15.614	12.0
15.629	13.0
15.644	14.0
15.659	14.0
15.674	12.0
15.689	14.0
15.704	16.0
15.718	20.0
15.733	19.0
15.748	12.0
15.763	17.0
15.778	13.0
15.793	15.0
15.808	9.0
15.822	11.0
15.837	10.0
15.852	11.0
15.867	16.0
15.882	12.0
15.897	11.0
15.911	18.0
15.926	19.0
15.941	8.0
15.956	10.0
15.971	13.0
15.986	18.0
16.0	12.0
16.015	9.0
16.03	18.0
16.045	8.0
16.06	7.0
16.074	15.0
16.089	16.0
16.104	8.0
16.119	19.0
16.134	15.0
16.149	11.0
16.163	17.0
16.178	18.0
16.193	16.0
16.208	12.0
16.223	15.0
16.237	14.0
16.252	10.0
16.267	12.0
16.282	16.0
16.297	10.0
16.311	10.0
16.326	10.0
16.341	14.0
16.356	18.0
16.37	15.0
16.385	14.0
16.4	19.0
16.415	11.0
16.43	15.0
16.444	17.0
16.459	11.0
16.474	7.0
16.489	11.0
16.504	12.0
16.518	25.0
16.533	14.0
16.548	12.0
16.563	14.0
16.577	15.0
16.592	13.0
16.607	9.0
16.622	23.0
16.637	20.0
16.651	32.0
16.666	14.0
16.681	22.0
16.696	35.0
16.71	22.0
16.725	28.0
16.74	32.0
16.755	24.0
16.77	43.0
16.784	26.0
16.799	39.0
16.814	47.0
16.829	38.0
16.843	52.0
16.858	58.0
16.873	48.0
16.888	57.0
16.902	46.0
16.917	67.0
16.932	66.0
16.947	67.0
16.961	88.0
16.976	74.0
16.991	69.0
17.006	55.0
17.021	69.0
17.035	48.0
17.05	52.0
17.065	37.0
17.08	40.0
17.094	38.0
17.109	33.0
17.124	36.0
17.139	16.0
17.153	18.0
17.168	15.0
17.183	14.0
17.198	12.0
17.212	27.0
17.227	12.0
17.242	19.0
17.257	17.0
17.271	17.0
17.286	18.0
17.301	13.0
17.316	10.0
17.33	10.0
17.345	12.0
17.36	15.0
17.375	13.0
17.39	13.0
17.404	22.0
17.419	17.0
17.434	12.0
17.449	8.0
17.463	21.0
17.478	14.0
17.493	17.0
17.508	19.0
17.522	9.0
17.537	11.0
17.552	7.0
17.567	10.0
17.581	14.0
17.596	13.0
17.611	15.0
17.626	12.0
17.641	10.0
17.655	13.0
17.67	14.0
17.685	16.0
17.7	17.0
17.714	6.0
17.729	16.0
17.744	13.0
17.759	16.0
17.773	12.0
17.788	10.0
17.803	7.0
17.818	9.0
17.833	9.0
17.847	16.0
17.862	10.0
17.877	12.0
17.892	10.0
17.906	12.0
17.921	11.0
17.936	15.0
17.951	15.0
17.966	16.0
17.98	13.0
17.995	6.0
18.01	9.0
18.025	9.0
18.04	9.0
18.054	11.0
18.069	5.0
18.084	9.0
18.099	6.0
18.114	8.0
18.128	15.0
18.143	10.0
18.158	9.0
18.173	10.0
18.188	16.0
18.202	9.0
18.217	11.0
18.232	9.0
18.247	15.0
18.262	11.0
18.276	5.0
18.291	11.0
18.306	10.0
18.321	10.0
18.336	15.0
18.35	14.0
18.365	12.0
18.38	13.0
18.395	4.0
18.41	13.0
18.424	10.0
18.439	9.0
18.454	11.0
18.469	4.0
18.484	17.0
18.498	16.0
18.513	10.0
18.528	20.0
18.543	14.0
18.558	7.0
18.573	12.0
18.587	6.0
18.602	11.0
18.617	13.0
18.632	10.0
18.647	4.0
18.661	11.0
18.676	11.0
18.691	8.0
18.706	6.0
18.721	12.0
18.736	10.0
18.75	14.0
18.765	9.0
18.78	8.0
18.795	15.0
18.81	12.0
18.825	6.0
18.839	11.0
18.854	15.0
18.869	12.0
18.884	8.0
18.899	10.0
18.913	5.0
18.928	11.0
18.943	14.0
18.958	9.0
18.973	10.0
18.988	12.0
19.002	15.0
19.017	13.0
19.032	13.0
19.047	17.0
19.062	11.0
19.077	13.0
19.091	11.0
19.106	13.0
19.121	11.0
19.136	10.0
19.151	16.0
19.165	7.0
19.18	14.0
19.195	5.0
19.21	12.0
19.225	17.0
19.24	5.0
19.254	12.0
19.269	19.0
19.284	16.0
19.299	13.0
19.314	15.0
19.329	14.0
19.343	20.0
19.358	14.0
19.373	15.0
19.388	18.0
19.403	18.0
19.417	27.0
19.432	29.0
19.447	18.0
19.462	28.0
19.477	31.0
19.492	23.0
19.506	28.0
19.521	31.0
19.536	42.0
19.551	46.0
19.566	43.0
19.58	53.0
19.595	32.0
19.61	45.0
19.625	39.0
19.64	39.0
19.655	49.0
19.669	21.0
19.684	36.0
19.699	31.0
19.714	24.0
19.729	26.0
19.743	19.0
19.758	27.0
19.773	17.0
19.788	22.0
19.803	26.0
19.817	14.0
19.832	14.0
19.847	12.0
19.862	8.0
19.877	9.0
19.891	14.0
19.906	15.0
19.921	16.0
19.936	11.0
19.951	11.0
19.965	15.0
19.98	11.0
19.995	18.0
20.01	12.0
20.025	14.0
20.039	12.0
20.054	18.0
20.069	9.0
20.084	8.0
20.099	11.0
20.113	10.0
20.128	8.0
20.143	9.0
20.158	13.0
20.173	7.0
20.187	11.0
20.202	11.0
20.217	10.0
20.232	13.0
20.246	10.0
20.261	7.0
20.276	15.0
20.291	14.0
20.306	16.0
20.32	12.0
20.335	8.0
20.35	8.0
20.365	7.0
20.38	9.0
20.394	9.0
20.409	20.0
20.424	13.0
20.439	10.0
20.453	11.0
20.468	10.0
20.483	6.0
20.498	18.0
20.513	8.0
20.527	14.0
20.542	14.0
20.557	12.0
20.572	14.0
20.586	15.0
20.601	12.0
20.616	8.0
20.631	13.0
20.646	10.0
20.66	13.0
20.675	9.0
20.69	15.0
20.705	9.0
20.719	17.0
20.734	10.0
20.749	8.0
20.764	6.0
20.779	7.0
20.793	12.0
20.808	13.0
20.823	10.0
20.838	3.0
20.853	12.0
20.867	12.0
20.882	6.0
20.897	6.0
20.912	8.0
20.926	6.0
20.941	8.0
20.956	5.0
20.971	11.0
20.986	9.0
21.0	5.0
21.015	10.0
21.03	14.0
21.045	15.0
21.06	9.0
21.074	15.0
21.089	10.0
21.104	10.0
21.119	10.0
21.134	9.0
21.148	20.0
21.163	10.0
21.178	13.0
21.193	11.0
21.208	15.0
21.222	8.0
21.237	18.0
21.252	9.0
21.267	10.0
21.282	16.0
21.296	10.0
21.311	12.0
21.326	10.0
21.341	15.0
21.356	16.0
21.37	20.0
21.385	17.0
21.4	14.0
21.415	11.0
21.43	11.0
21.444	21.0
21.459	12.0
21.474	11.0
21.489	15.0
21.504	13.0
21.519	12.0
21.533	8.0
21.548	10.0
21.563	10.0
21.578	11.0
21.593	14.0
21.608	20.0
21.622	13.0
21.637	21.0
21.652	14.0
21.667	18.0
21.682	25.0
21.697	15.0
21.712	26.0
21.726	25.0
21.741	14.0
21.756	30.0
21.771	37.0
21.786	28.0
21.801	33.0
21.816	44.0
21.83	49.0
21.845	41.0
21.86	53.0
21.875	60.0
21.89	70.0
21.905	86.0
21.92	76.0
21.935	69.0
21.949	81.0
21.964	71.0
21.979	73.0
21.994	66.0
22.009	68.0
22.024	76.0
22.039	67.0
22.054	55.0
22.069	52.0
22.083	43.0
22.098	42.0
22.113	42.0
22.128	25.0
22.143	23.0
22.158	24.0
22.173	29.0
22.188	19.0
22.203	21.0
22.218	10.0
22.233	11.0
22.248	11.0
22.262	10.0
22.277	13.0
22.292	19.0
22.307	12.0
22.322	15.0
22.337	12.0
22.352	16.0
22.367	11.0
22.382	14.0
22.397	21.0
22.412	10.0
22.427	10.0
22.442	8.0
22.457	12.0
22.472	15.0
22.487	17.0
22.502	14.0
22.516	11.0
22.531	8.0
22.546	11.0
22.561	12.0
22.576	13.0
22.591	13.0
22.606	11.0
22.621	16.0
22.636	12.0
22.651	14.0
22.666	10.0
22.681	17.0
22.696	14.0
22.711	8.0
22.726	9.0
22.741	8.0
22.756	8.0
22.771	13.0
22.786	13.0
22.801	10.0
22.816	11.0
22.831	9.0
22.846	9.0
22.861	14.0
22.876	7.0
22.891	9.0
22.906	15.0
22.92	16.0
22.935	10.0
22.95	14.0
22.965	11.0
22.98	8.0
22.995	16.0
23.01	10.0
23.025	11.0
23.04	6.0
23.055	12.0
23.07	13.0
23.085	8.0
23.1	8.0
23.115	10.0
23.13	4.0
23.145	12.0
23.16	12.0
23.175	10.0
23.19	10.0
23.205	9.0
23.22	12.0
23.235	11.0
23.25	7.0
23.265	8.0
23.28	12.0
23.295	10.0
23.31	14.0
23.325	12.0
23.34	11.0
23.355	11.0
23.37	10.0
23.384	13.0
23.399	6.0
23.414	9.0
23.429	15.0
23.444	7.0
23.459	2.0
23.474	14.0
23.489	12.0
23.504	7.0
23.519	9.0
23.534	12.0
23.549	17.0
23.564	7.0
23.579	8.0
23.594	7.0
23.609	12.0
23.624	8.0
23.639	11.0
23.654	9.0
23.668	10.0
23.683	11.0
23.698	13.0
23.713	8.0
23.728	9.0
23.743	10.0
23.758	8.0
23.773	15.0
23.788	12.0
23.803	11.0
23.818	14.0
23.833	18.0
23.848	11.0
23.862	12.0
23.877	14.0
23.892	19.0
23.907	26.0
23.922	24.0
23.937	21.0
23.952	26.0
23.967	33.0
23.982	39.0
23.997	35.0
24.011	28.0
24.026	46.0
24.041	36.0
24.056	57.0
24.071	50.0
24.086	62.0
24.101	38.0
24.116	54.0
24.131	39.0
24.145	51.0
24.16	44.0
24.175	35.0
24.19	37.0
24.205	27.0
24.22	30.0
24.235	28.0
24.249	33.0
24.264	21.0
24.279	21.0
24.294	18.0
24.309	21.0
24.324	20.0
24.338	11.0
24.353	19.0
24.368	13.0
24.383	13.0
24.398	14.0
24.413	12.0
24.428	8.0
24.442	14.0
24.457	9.0
24.472	5.0
24.487	14.0
24.502	14.0
24.516	12.0
24.531	9.0
24.546	7.0
24.561	16.0
24.576	16.0
24.591	12.0
24.605	16.0
24.62	11.0
24.635	13.0
24.65	15.0
24.665	4.0
24.679	6.0
24.694	4.0
24.709	11.0
24.724	8.0
24.739	14.0
24.753	7.0
24.768	19.0
24.783	17.0
24.798	6.0
24.813	9.0
24.827	11.0
24.842	12.0
24.857	8.0
24.872	11.0
24.886	7.0
24.901	12.0
24.916	10.0
24.931	6.0
24.946	10.0
24.96	8.0
24.975	9.0
24.99	12.0
25.005	6.0
25.019	8.0
25.034	13.0
25.049	6.0
25.064	8.0
25.078	10.0
25.093	13.0
25.108	11.0
25.123	13.0
25.138	9.0
25.152	13.0
25.167	8.0
25.182	7.0
25.197	11.0
25.211	7.0
25.226	7.0
25.241	13.0
25.256	12.0
25.27	11.0
25.285	10.0
25.3	8.0
25.315	10.0
25.329	10.0
25.344	5.0
25.359	5.0
25.374	6.0
25.388	10.0
25.403	11.0
25.418	16.0
25.433	12.0
25.447	10.0
25.462	12.0
25.477	6.0
25.492	6.0
25.506	12.0
25.521	15.0
25.536	7.0
25.55	14.0
25.565	9.0
25.58	7.0
25.595	11.0
25.609	12.0
25.624	4.0
25.639	7.0
25.654	10.0
25.668	5.0
25.683	11.0
25.698	8.0
25.713	5.0
25.727	10.0
25.742	8.0
25.757	12.0
25.772	13.0
25.786	6.0
25.801	11.0
25.816	4.0
25.83	7.0
25.845	10.0
25.86	5.0
25.875	11.0
25.889	7.0
25.904	12.0
25.919	9.0
25.934	17.0
25.948	5.0
25.963	12.0
25.978	9.0
25.992	11.0
26.007	12.0
26.022	10.0
26.037	8.0
26.051	11.0
26.066	15.0
26.081	14.0
26.096	8.0
26.11	4.0
26.125	14.0
26.14	8.0
26.155	8.0
26.169	9.0
26.184	13.0
26.199	9.0
26.213	7.0
26.228	10.0
26.243	11.0
26.258	10.0
26.272	14.0
26.287	14.0
26.302	8.0
26.317	8.0
26.331	4.0
26.346	3.0
26.361	18.0
26.376	11.0
26.39	14.0
26.405	10.0
26.42	6.0
26.434	7.0
26.449	10.0
26.464	11.0
26.479	5.0
26.493	4.0
26.508	15.0
26.523	10.0
26.538	11.0
26.552	10.0
26.567	2.0
26.582	5.0
26.597	11.0
26.611	10.0
26.626	14.0
26.641	16.0
26.656	14.0
26.67	14.0
26.685	6.0
26.7	12.0
26.715	12.0
26.729	9.0
26.744	13.0
26.759	10.0
26.773	6.0
26.788	12.0
26.803	11.0
26.818	8.0
26.832	10.0
26.847	8.0
26.862	10.0
26.877	6.0
26.891	10.0
26.906	10.0
26.921	11.0
26.936	10.0
26.95	17.0
26.965	7.0
26.98	12.0
26.995	5.0
27.01	8.0
27.024	8.0
27.039	9.0
27.054	8.0
27.069	11.0
27.083	9.0
27.098	9.0
27.113	6.0
27.128	7.0
27.142	5.0
27.157	7.0
27.172	10.0
27.187	5.0
27.201	6.0
27.216	9.0
27.231	8.0
27.246	6.0
27.261	7.0
27.275	9.0
27.29	10.0
27.305	16.0
27.32	10.0
27.334	9.0
27.349	14.0
27.364	14.0
27.379	14.0
27.394	3.0
27.408	11.0
27.423	9.0
27.438	11.0
27.453	6.0
27.467	7.0
27.482	6.0
27.497	14.0
27.512	11.0
27.527	10.0
27.541	9.0
27.556	7.0
27.571	7.0
27.586	6.0
27.601	9.0
27.615	12.0
27.63	16.0
27.645	12.0
27.66	17.0
27.675	9.0
27.689	15.0
27.704	13.0
27.719	15.0
27.734	11.0
27.749	19.0
27.763	16.0
27.778	20.0
27.793	26.0
27.808	29.0
27.823	14.0
27.838	21.0
27.852	22.0
27.867	28.0
27.882	17.0
27.897	19.0
27.912	15.0
27.926	18.0
27.941	19.0
27.956	16.0
27.971	20.0
27.986	22.0
28.001	22.0
28.015	16.0
28.03	11.0
28.045	17.0
28.06	19.0
28.075	21.0
28.09	17.0
28.105	18.0
28.119	19.0
28.134	11.0
28.149	15.0
28.164	6.0
28.179	13.0
28.194	9.0
28.208	12.0
28.223	9.0
28.238	5.0
28.253	7.0
28.268	13.0
28.283	7.0
28.298	10.0
28.312	4.0
28.327	8.0
28.342	14.0
28.357	8.0
28.372	18.0
28.387	12.0
28.402	10.0
28.417	9.0
28.431	8.0
28.446	8.0
28.461	15.0
28.476	5.0
28.491	15.0
28.506	13.0
28.521	5.0
28.536	10.0
28.55	8.0
28.565	6.0
28.58	16.0
28.595	12.0
28.61	17.0
28.625	14.0
28.64	12.0
28.655	13.0
28.669	10.0
28.684	12.0
28.699	9.0
28.714	11.0
28.729	10.0
28.744	12.0
28.759	9.0
28.774	9.0
28.788	6.0
28.803	9.0
28.818	15.0
28.833	12.0
28.848	7.0
28.863	10.0
28.878	6.0
28.893	5.0
28.908	10.0
28.922	10.0
28.937	11.0
28.952	10.0
28.967	11.0
28.982	11.0
28.997	9.0
29.012	14.0
29.027	5.0
29.041	5.0
29.056	16.0
29.071	5.0
29.086	11.0
29.101	8.0
29.116	9.0
29.131	8.0
29.146	10.0
29.16	12.0
29.175	16.0
29.19	16.0
29.205	16.0
29.22	18.0
29.235	15.0
29.25	12.0
29.265	12.0
29.279	10.0
29.294	15.0
29.309	13.0
29.324	14.0
29.339	12.0
29.354	14.0
29.369	12.0
29.384	12.0
29.398	13.0
29.413	16.0
29.428	24.0
29.443	17.0
29.458	13.0
29.473	17.0
29.488	34.0
29.502	33.0
29.517	41.0
29.532	29.0
29.547	28.0
29.562	44.0
29.577	52.0
29.592	53.0
29.606	48.0
29.621	52.0
29.636	40.0
29.651	39.0
29.666	45.0
29.681	39.0
29.695	34.0
29.71	30.0
29.725	28.0
29.74	24.0
29.755	42.0
29.77	30.0
29.784	43.0
29.799	35.0
29.814	30.0
29.829	22.0
29.844	30.0
29.859	19.0
29.873	30.0
29.888	22.0
29.903	17.0
29.918	22.0
29.933	14.0
29.947	13.0
29.962	15.0
29.977	15.0
29.992	14.0
30.007	21.0
30.021	15.0
30.036	14.0
30.051	12.0
30.066	12.0
30.081	10.0
30.095	13.0
30.11	17.0
30.125	8.0
30.14	13.0
30.155	11.0
30.169	8.0
30.184	9.0
30.199	9.0
30.214	6.0
30.228	10.0
30.243	10.0
30.258	13.0
30.273	14.0
30.288	11.0
30.302	11.0
30.317	10.0
30.332	9.0
30.347	14.0
30.361	13.0
30.376	7.0
30.391	10.0
30.406	7.0
30.42	14.0
30.435	12.0
30.45	9.0
30.465	10.0
30.479	14.0
30.494	12.0
30.509	11.0
30.524	11.0
30.538	10.0
30.553	10.0
30.568	6.0
30.583	9.0
30.597	7.0
30.612	15.0
30.627	10.0
30.641	10.0
30.656	7.0
30.671	9.0
30.686	6.0
30.7	12.0
30.715	10.0
30.73	9.0
30.745	7.0
30.759	9.0
30.774	14.0
30.789	11.0
30.803	9.0
30.818	8.0
30.833	13.0
30.848	10.0
30.862	12.0
30.877	11.0
30.892	11.0
30.906	13.0
30.921	15.0
30.936	9.0
30.951	7.0
30.965	11.0
30.98	6.0
30.995	10.0
31.009	13.0
31.024	14.0
31.039	12.0
31.053	15.0
31.068	15.0
31.083	5.0
31.098	13.0
31.112	17.0
31.127	17.0
31.142	17.0
31.156	30.0
31.171	21.0
31.186	31.0
31.2	20.0
31.215	35.0
31.23	36.0
31.245	35.0
31.259	49.0
31.274	44.0
31.289	30.0
31.303	42.0
31.318	26.0
31.333	33.0
31.347	32.0
31.362	21.0
31.377	31.0
31.392	37.0
31.406	28.0
31.421	31.0
31.436	17.0
31.45	33.0
31.465	19.0
31.48	11.0
31.494	20.0
31.509	17.0
31.524	23.0
31.538	12.0
31.553	23.0
31.568	15.0
31.583	11.0
31.597	12.0
31.612	10.0
31.627	7.0
31.641	11.0
31.656	11.0
31.671	12.0
31.685	12.0
31.7	9.0
31.715	13.0
31.729	12.0
31.744	9.0
31.759	13.0
31.774	13.0
31.788	14.0
31.803	10.0
31.818	12.0
31.832	5.0
31.847	11.0
31.862	10.0
31.876	9.0
31.891	6.0
31.906	14.0
31.92	11.0
31.935	16.0
31.95	9.0
31.965	11.0
31.979	13.0
31.994	13.0
32.009	8.0
32.023	11.0
32.038	5.0
32.053	7.0
32.067	11.0
32.082	7.0
32.097	4.0
32.112	11.0
32.126	10.0
32.141	8.0
32.156	10.0
32.17	7.0
32.185	10.0
32.2	9.0
32.214	7.0
32.229	11.0
32.244	15.0
32.259	9.0
32.273	12.0
32.288	15.0
32.303	8.0
32.317	8.0
32.332	10.0
32.347	5.0
32.362	11.0
32.376	8.0
32.391	12.0
32.406	16.0
32.42	11.0
32.435	9.0
32.45	8.0
32.465	6.0
32.479	11.0
32.494	9.0
32.509	10.0
32.523	15.0
32.538	9.0
32.553	14.0
32.568	15.0
32.582	8.0
32.597	13.0
32.612	7.0
32.627	16.0
32.641	13.0
32.656	16.0
32.671	19.0
32.685	16.0
32.7	14.0
32.715	17.0
32.73	24.0
32.744	24.0
32.759	22.0
32.774	27.0
32.788	31.0
32.803	24.0
32.818	24.0
32.833	27.0
32.847	29.0
32.862	35.0
32.877	25.0
32.892	23.0
32.906	18.0
32.921	20.0
32.936	16.0
32.951	17.0
32.965	25.0
32.98	19.0
32.995	18.0
33.009	25.0
33.024	18.0
33.039	16.0
33.054	18.0
33.068	13.0
33.083	16.0
33.098	15.0
33.113	14.0
33.127	12.0
33.142	13.0
33.157	11.0
33.172	14.0
33.186	11.0
33.201	15.0
33.216	4.0
33.231	11.0
33.245	7.0
33.26	10.0
33.275	9.0
33.29	5.0
33.304	15.0
33.319	14.0
33.334	5.0
33.349	11.0
33.363	11.0
33.378	6.0
33.393	7.0
33.408	11.0
33.422	9.0
33.437	10.0
33.452	13.0
33.467	9.0
33.481	5.0
33.496	5.0
33.511	17.0
33.526	6.0
33.54	8.0
33.555	8.0
33.57	5.0
33.585	7.0
33.599	9.0
33.614	11.0
33.629	6.0
33.644	7.0
33.658	12.0
33.673	9.0
33.688	9.0
33.703	13.0
33.718	8.0
33.732	11.0
33.747	8.0
33.762	7.0
33.777	11.0
33.791	12.0
33.806	7.0
33.821	6.0
33.836	9.0
33.85	11.0
33.865	7.0
33.88	6.0
33.895	6.0
33.91	11.0
33.924	11.0
33.939	6.0
33.954	12.0
33.969	13.0
33.983	12.0
33.998	11.0
34.013	8.0
34.028	13.0
34.042	10.0
34.057	11.0
34.072	7.0
34.087	15.0
34.102	7.0
34.116	10.0
34.131	12.0
34.146	11.0
34.161	19.0
34.175	7.0
34.19	12.0
34.205	17.0
34.22	16.0
34.235	7.0
34.249	11.0
34.264	7.0
34.279	16.0
34.294	16.0
34.309	15.0
34.323	11.0
34.338	16.0
34.353	15.0
34.368	11.0
34.382	14.0
34.397	13.0
34.412	8.0
34.427	9.0
34.442	13.0
34.456	13.0
34.471	10.0
34.486	8.0
34.501	13.0
34.516	14.0
34.53	10.0
34.545	15.0
34.56	6.0
34.575	6.0
34.59	13.0
34.604	8.0
34.619	6.0
34.634	8.0
34.649	11.0
34.664	7.0
34.678	8.0
34.693	12.0
34.708	9.0
34.723	6.0
34.738	7.0
34.752	3.0
34.767	10.0
34.782	8.0
34.797	7.0
34.812	5.0
34.826	4.0
34.841	14.0
34.856	8.0
34.871	8.0
34.886	10.0
34.9	10.0
34.915	8.0
34.93	7.0
34.945	12.0
34.96	9.0
34.974	7.0
34.989	6.0
35.004	7.0
35.019	11.0
35.034	13.0
35.048	10.0
35.063	8.0
35.078	9.0
35.093	4.0
35.108	3.0
35.122	15.0
35.137	7.0
35.152	10.0
35.167	10.0
35.182	10.0
35.196	11.0
35.211	6.0
35.226	8.0
35.241	4.0
35.256	6.0
35.27	9.0
35.285	8.0
35.3	10.0
35.315	7.0
35.33	8.0
35.344	10.0
35.359	9.0
35.374	11.0
35.389	9.0
35.404	14.0
35.418	8.0
35.433	12.0
35.448	5.0
35.463	4.0
35.478	9.0
35.493	6.0
35.507	14.0
35.522	11.0
35.537	9.0
35.552	10.0
35.567	7.0
35.581	6.0
35.596	9.0
35.611	7.0
35.626	14.0
35.641	15.0
35.655	9.0
35.67	12.0
35.685	9.0
35.7	14.0
35.715	20.0
35.729	24.0
35.744	13.0
35.759	12.0
35.774	10.0
35.789	17.0
35.804	18.0
35.818	16.0
35.833	15.0
35.848	13.0
35.863	9.0
35.878	14.0
35.892	9.0
35.907	11.0
35.922	10.0
35.937	10.0
35.952	6.0
35.966	18.0
35.981	9.0
35.996	11.0
36.011	7.0
36.026	10.0
36.04	8.0
36.055	10.0
36.07	12.0
36.085	6.0
36.1	14.0
36.114	9.0
36.129	10.0
36.144	12.0
36.159	9.0
36.174	7.0
36.189	6.0
36.203	11.0
36.218	10.0
36.233	5.0
36.248	6.0
36.263	11.0
36.277	14.0
36.292	19.0
36.307	9.0
36.322	7.0
36.337	5.0
36.351	11.0
36.366	9.0
36.381	9.0
36.396	8.0
36.411	7.0
36.426	1.0
36.44	7.0
36.455	8.0
36.47	8.0
36.485	6.0
36.5	13.0
36.514	6.0
36.529	5.0
36.544	7.0
36.559	7.0
36.574	12.0
36.589	6.0
36.603	9.0
36.618	8.0
36.633	9.0
36.648	9.0
36.663	8.0
36.677	10.0
36.692	8.0
36.707	8.0
36.722	8.0
36.737	9.0
36.752	10.0
36.766	7.0
36.781	6.0
36.796	4.0
36.811	9.0
36.826	6.0
36.841	4.0
36.855	7.0
36.87	13.0
36.885	6.0
36.9	11.0
36.915	9.0
36.93	4.0
36.944	9.0
36.959	10.0
36.974	8.0
36.989	13.0
37.004	6.0
37.019	12.0
37.033	11.0
37.048	7.0
37.063	12.0
37.078	24.0
37.093	16.0
37.108	26.0
37.123	28.0
37.137	22.0
37.152	32.0
37.167	33.0
37.182	26.0
37.197	25.0
37.212	22.0
37.226	34.0
37.241	18.0
37.256	17.0
37.271	28.0
37.286	15.0
37.301	22.0
37.316	17.0
37.331	20.0
37.345	20.0
37.36	20.0
37.375	22.0
37.39	16.0
37.405	10.0
37.42	9.0
37.435	18.0
37.45	20.0
37.464	15.0
37.479	14.0
37.494	11.0
37.509	14.0
37.524	4.0
37.539	5.0
37.554	9.0
37.569	7.0
37.583	8.0
37.598	10.0
37.613	5.0
37.628	8.0
37.643	6.0
37.658	9.0
37.673	4.0
37.688	5.0
37.703	9.0
37.718	6.0
37.733	10.0
37.747	13.0
37.762	5.0
37.777	9.0
37.792	8.0
37.807	6.0
37.822	3.0
37.837	6.0
37.852	10.0
37.867	10.0
37.882	7.0
37.897	7.0
37.912	5.0
37.927	7.0
37.941	6.0
37.956	11.0
37.971	8.0
37.986	7.0
38.001	7.0
38.016	6.0
38.031	5.0
38.046	6.0
38.061	2.0
38.076	9.0
38.091	5.0
38.106	7.0
38.121	8.0
38.136	7.0
38.151	10.0
38.166	5.0
38.181	3.0
38.196	6.0
38.211	8.0
38.226	4.0
38.241	8.0
38.256	6.0
38.271	7.0
38.285	6.0
38.3	8.0
38.315	7.0
38.33	4.0
38.345	9.0
38.36	8.0
38.375	6.0
38.39	7.0
38.405	3.0
38.42	3.0
38.435	5.0
38.45	6.0
38.465	9.0
38.48	5.0
38.495	4.0
38.51	7.0
38.525	7.0
38.54	6.0
38.555	6.0
38.57	4.0
38.585	8.0
38.6	8.0
38.615	5.0
38.63	8.0
38.645	8.0
38.66	3.0
38.675	5.0
38.69	3.0
38.705	7.0
38.72	3.0
38.735	7.0
38.75	7.0
38.765	2.0
38.78	3.0
38.795	7.0
38.81	11.0
38.825	8.0
38.84	11.0
38.855	7.0
38.87	6.0
38.885	5.0
38.9	5.0
38.915	5.0
38.93	4.0
38.945	7.0
38.96	5.0
38.975	4.0
38.99	4.0
39.005	4.0
39.02	6.0
39.035	6.0
39.05	5.0
39.065	4.0
39.08	6.0
39.095	5.0
39.11	5.0
39.125	4.0
39.14	6.0
39.155	5.0
39.17	1.0
39.185	5.0
39.2	6.0
39.215	3.0
39.23	4.0
39.245	4.0
39.26	3.0
39.275	6.0
39.29	4.0
39.305	5.0
39.32	5.0
39.335	2.0
39.35	8.0
39.365	6.0
39.38	6.0
39.395	12.0
39.409	6.0
39.424	5.0
39.439	10.0
39.454	5.0
39.469	5.0
39.484	7.0
39.499	14.0
39.514	1.0
39.529	4.0
39.544	8.0
39.559	3.0
39.574	4.0
39.589	6.0
39.604	3.0
39.619	5.0
39.634	7.0
39.649	7.0
39.664	3.0
39.678	5.0
39.693	3.0
39.708	3.0
39.723	7.0
39.738	4.0
39.753	5.0
39.768	4.0
39.783	5.0
39.798	12.0
39.813	5.0
39.827	17.0
39.842	5.0
39.857	11.0
39.872	8.0
39.887	10.0
39.902	11.0
39.917	6.0
39.932	10.0
39.947	13.0
39.961	9.0
39.976	9.0
39.991	8.0
40.006	9.0
40.021	2.0
40.036	1.0
40.051	10.0
40.065	8.0
40.08	3.0
40.095	10.0
40.11	11.0
40.125	4.0
40.14	4.0
40.154	4.0
40.169	8.0
40.184	7.0
40.199	5.0
40.214	5.0
40.228	6.0
40.243	8.0
40.258	8.0
40.273	3.0
40.288	6.0
40.302	3.0
40.317	3.0
40.332	5.0
40.347	7.0
40.362	5.0
40.376	10.0
40.391	4.0
40.406	4.0
40.421	7.0
40.436	5.0
40.45	5.0
40.465	3.0
40.48	6.0
40.495	8.0
40.509	8.0
40.524	5.0
40.539	5.0
40.554	5.0
40.568	7.0
40.583	3.0
40.598	8.0
40.613	7.0
40.627	12.0
40.642	2.0
40.657	5.0
40.672	7.0
40.686	7.0
40.701	7.0
40.716	3.0
40.731	6.0
40.745	5.0
40.76	6.0
40.775	5.0
40.79	8.0
40.804	10.0
40.819	6.0
40.834	5.0
40.849	8.0
40.863	6.0
40.878	8.0
40.893	12.0
40.907	2.0
40.922	4.0
40.937	10.0
40.952	7.0
40.966	10.0
40.981	5.0
40.996	5.0
41.011	11.0
41.025	10.0
41.04	9.0
41.055	13.0
41.069	20.0
41.084	18.0
41.099	7.0
41.114	11.0
41.128	16.0
41.143	26.0
41.158	25.0
41.173	13.0
41.187	16.0
41.202	17.0
41.217	18.0
41.231	18.0
41.246	11.0
41.261	7.0
41.276	8.0
41.29	8.0
41.305	13.0
41.32	9.0
41.335	18.0
41.349	18.0
41.364	10.0
41.379	13.0
41.393	13.0
41.408	16.0
41.423	13.0
41.438	11.0
41.452	6.0
41.467	11.0
41.482	6.0
41.497	4.0
41.511	4.0
41.526	7.0
41.541	6.0
41.556	8.0
41.57	3.0
41.585	10.0
41.6	6.0
41.615	4.0
41.629	6.0
41.644	10.0
41.659	5.0
41.674	2.0
41.688	3.0
41.703	5.0
41.718	3.0
41.733	5.0
41.747	6.0
41.762	3.0
41.777	8.0
41.792	11.0
41.806	9.0
41.821	7.0
41.836	6.0
41.851	5.0
41.866	6.0
41.88	7.0
41.895	4.0
41.91	4.0
41.925	9.0
41.939	3.0
41.954	7.0
41.969	3.0
41.984	7.0
41.999	4.0
42.013	7.0
42.028	7.0
42.043	4.0
42.058	7.0
42.073	3.0
42.088	9.0
42.102	5.0
42.117	11.0
42.132	8.0
42.147	11.0
42.162	6.0
42.176	3.0
42.191	4.0
42.206	6.0
42.221	5.0
42.236	7.0
42.251	12.0
42.266	6.0
42.28	18.0
42.295	13.0
42.31	17.0
42.325	16.0
42.34	17.0
42.355	10.0
42.369	19.0
42.384	19.0
42.399	18.0
42.414	22.0
42.429	11.0
42.444	24.0
42.459	11.0
42.474	9.0
42.488	16.0
42.503	9.0
42.518	10.0
42.533	8.0
42.548	8.0
42.563	17.0
42.578	12.0
42.593	13.0
42.608	10.0
42.622	13.0
42.637	9.0
42.652	13.0
42.667	13.0
42.682	8.0
42.697	13.0
42.712	13.0
42.727	9.0
42.742	9.0
42.757	12.0
42.772	10.0
42.786	4.0
42.801	6.0
42.816	3.0
42.831	7.0
42.846	5.0
42.861	4.0
42.876	4.0
42.891	6.0
42.906	2.0
42.921	6.0
42.936	6.0
42.951	3.0
42.966	7.0
42.981	8.0
42.996	2.0
43.011	4.0
43.025	3.0
43.04	6.0
43.055	5.0
43.07	3.0
43.085	5.0
43.1	5.0
43.115	8.0
43.13	5.0
43.145	5.0
43.16	6.0
43.175	4.0
43.19	3.0
43.205	4.0
43.22	7.0
43.235	5.0
43.25	2.0
43.265	3.0
43.28	5.0
43.295	3.0
43.31	9.0
43.325	1.0
43.34	10.0
43.355	6.0
43.37	6.0
43.385	6.0
43.4	6.0
43.415	8.0
43.43	3.0
43.445	6.0
43.46	1.0
43.475	7.0
43.49	6.0
43.505	8.0
43.52	7.0
43.535	7.0
43.55	6.0
43.565	6.0
43.58	10.0
43.595	5.0
43.61	5.0
43.625	11.0
43.64	8.0
43.655	16.0
43.67	7.0
43.685	12.0
43.7	9.0
43.715	8.0
43.73	6.0
43.745	9.0
43.76	9.0
43.775	10.0
43.79	5.0
43.805	5.0
43.82	5.0
43.835	4.0
43.85	7.0
43.865	4.0
43.88	6.0
43.895	4.0
43.91	2.0
43.925	12.0
43.94	6.0
43.955	4.0
43.97	9.0
43.985	1.0
44.0	4.0
44.015	5.0
44.03	8.0
44.045	4.0
44.061	11.0
44.076	7.0
44.091	6.0
44.106	10.0
44.121	11.0
44.136	6.0
44.151	2.0
44.166	4.0
44.181	5.0
44.196	2.0
44.211	5.0
44.226	3.0
44.241	8.0
44.256	9.0
44.271	6.0
44.286	6.0
44.301	6.0
44.316	3.0
44.331	3.0
44.346	8.0
44.361	5.0
44.377	5.0
44.392	6.0
44.407	2.0
44.422	6.0
44.437	4.0
44.452	6.0
44.467	2.0
44.482	3.0
44.497	2.0
44.512	7.0
44.527	3.0
44.542	9.0
44.557	5.0
44.572	6.0
44.587	5.0
44.602	8.0
44.617	3.0
44.632	6.0
44.647	4.0
44.663	5.0
44.678	5.0
44.693	5.0
44.708	12.0
44.723	7.0
44.738	6.0
44.753	6.0
44.768	9.0
44.783	11.0
44.798	8.0
44.813	9.0
44.828	12.0
44.843	13.0
44.858	13.0
44.873	11.0
44.888	9.0
44.903	11.0
44.918	10.0
44.933	12.0
44.948	2.0
44.964	6.0
44.979	8.0
44.994	4.0
45.009	9.0
45.024	7.0
45.039	7.0
45.054	6.0
45.069	2.0
45.084	9.0
45.099	10.0
45.114	9.0
45.129	8.0
45.144	5.0
45.159	8.0
45.174	9.0
45.189	6.0
45.204	11.0
45.219	10.0
45.234	7.0
45.249	3.0
45.264	7.0
45.279	5.0
45.294	4.0
45.309	8.0
45.324	6.0
45.339	4.0
45.354	4.0
45.369	3.0
45.384	3.0
45.399	7.0
45.414	3.0
45.429	4.0
45.444	5.0
45.459	7.0
45.474	5.0
45.489	4.0
45.504	2.0
45.519	6.0
45.534	6.0
45.549	3.0
45.564	8.0
45.579	2.0
45.594	3.0
45.609	3.0
45.624	4.0
45.639	3.0
45.654	12.0
45.669	2.0
45.684	2.0
45.699	3.0
45.714	5.0
45.729	4.0
45.744	6.0
45.759	5.0
45.774	6.0
45.789	5.0
45.804	1.0
45.819	10.0
45.834	5.0
45.849	8.0
45.864	6.0
45.879	11.0
45.894	15.0
45.909	10.0
45.924	11.0
45.939	18.0
45.954	13.0
45.969	22.0
45.984	25.0
45.998	18.0
46.013	17.0
46.028	15.0
46.043	10.0
46.058	14.0
46.073	11.0
46.088	10.0
46.103	7.0
46.118	7.0
46.133	7.0
46.148	7.0
46.163	8.0
46.178	6.0
46.192	10.0
46.207	10.0
46.222	12.0
46.237	6.0
46.252	13.0
46.267	13.0
46.282	11.0
46.297	10.0
46.312	11.0
46.327	9.0
46.341	13.0
46.356	5.0
46.371	6.0
46.386	4.0
46.401	4.0
46.416	13.0
46.431	6.0
46.446	5.0
46.46	4.0
46.475	2.0
46.49	7.0
46.505	6.0
46.52	8.0
46.535	3.0
46.55	3.0
46.564	5.0
46.579	8.0
46.594	6.0
46.609	2.0
46.624	4.0
46.639	4.0
46.654	5.0
46.668	7.0
46.683	7.0
46.698	8.0
46.713	5.0
46.728	3.0
46.743	8.0
46.758	4.0
46.772	3.0
46.787	2.0
46.802	7.0
46.817	5.0
46.832	5.0
46.847	5.0
46.861	5.0
46.876	5.0
46.891	6.0
46.906	2.0
46.921	3.0
46.936	3.0
46.95	4.0
46.965	5.0
46.98	6.0
46.995	5.0
47.01	5.0
47.025	7.0
47.039	5.0
47.054	7.0
47.069	7.0
47.084	14.0
47.099	10.0
47.113	14.0
47.128	14.0
47.143	10.0
47.158	9.0
47.173	10.0
47.188	6.0
47.202	4.0
47.217	5.0
47.232	6.0
47.247	13.0
47.262	4.0
47.277	11.0
47.291	12.0
47.306	8.0
47.321	5.0
47.336	9.0
47.351	2.0
47.365	8.0
47.38	2.0
47.395	10.0
47.41	6.0
47.425	5.0
47.44	11.0
47.454	5.0
47.469	9.0
47.484	12.0
47.499	9.0
47.514	7.0
47.528	3.0
47.543	5.0
47.558	2.0
47.573	10.0
47.588	5.0
47.603	8.0
47.617	1.0
47.632	3.0
47.647	2.0
47.662	5.0
47.677	2.0
47.691	2.0
47.706	8.0
47.721	3.0
47.736	6.0
47.751	1.0
47.766	5.0
47.78	2.0
47.795	3.0
47.81	7.0
47.825	4.0
47.84	6.0
47.855	2.0
47.869	6.0
47.884	3.0
47.899	11.0
47.914	4.0
47.929	6.0
47.944	7.0
47.958	6.0
47.973	3.0
47.988	7.0
48.003	0.0
48.018	2.0
48.033	5.0
48.047	7.0
48.062	2.0
48.077	5.0
48.092	5.0
48.107	4.0
48.122	3.0
48.137	6.0
48.151	5.0
48.166	5.0
48.181	3.0
48.196	1.0
48.211	2.0
48.226	7.0
48.241	5.0
48.255	4.0
48.27	6.0
48.285	3.0
48.3	7.0
48.315	4.0
48.33	7.0
48.345	3.0
48.359	5.0
48.374	4.0
48.389	4.0
48.404	5.0
48.419	2.0
48.434	1.0
48.449	1.0
48.464	2.0
48.478	1.0
48.493	4.0
48.508	3.0
48.523	2.0
48.538	5.0
48.553	3.0
48.568	4.0
48.583	6.0
48.597	5.0
48.612	4.0
48.627	5.0
48.642	5.0
48.657	5.0
48.672	4.0
48.687	2.0
48.702	4.0
48.717	8.0
48.731	4.0
48.746	3.0
48.761	9.0
48.776	8.0
48.791	2.0
48.806	5.0
48.821	7.0
48.836	4.0
48.851	3.0
48.866	3.0
48.88	5.0
48.895	2.0
48.91	2.0
48.925	3.0
48.94	2.0
48.955	1.0
48.97	5.0
48.985	2.0
49.0	6.0
49.015	9.0
49.03	6.0
49.044	5.0
49.059	3.0
49.074	2.0
49.089	4.0
49.104	4.0
49.119	2.0
49.134	4.0
49.149	3.0
49.164	3.0
49.179	6.0
49.194	2.0
49.209	4.0
49.224	4.0
49.238	3.0
49.253	2.0
49.268	2.0
49.283	6.0
49.298	9.0
49.313	5.0
49.328	7.0
49.343	9.0
49.358	6.0
49.373	7.0
49.388	7.0
49.403	4.0
49.418	7.0
49.433	6.0
49.448	7.0
49.463	5.0
49.478	10.0
49.492	3.0
49.507	5.0
49.522	10.0
49.537	8.0
49.552	4.0
49.567	5.0
49.582	2.0
49.597	5.0
49.612	3.0
49.627	4.0
49.642	5.0
49.657	5.0
49.672	8.0
49.687	4.0
49.702	10.0
49.717	9.0
49.732	6.0
49.747	11.0
49.762	8.0
49.777	6.0
49.792	7.0
49.807	3.0
49.822	3.0
49.837	2.0
49.852	2.0
49.867	1.0
49.882	4.0
49.897	5.0
49.912	5.0
49.927	5.0
49.942	7.0
49.957	3.0
49.971	8.0
49.986	2.0
50.001	7.0
50.016	1.0
50.031	4.0
50.046	3.0
50.061	5.0
50.076	3.0
50.091	6.0
50.106	4.0
50.121	10.0
50.136	5.0
50.151	3.0
50.166	4.0
50.181	2.0
50.196	4.0
50.211	5.0
50.226	6.0
50.241	5.0
50.256	4.0
50.271	4.0
50.286	2.0
50.302	5.0
50.317	4.0
50.332	6.0
50.347	8.0
50.362	5.0
50.377	6.0
50.392	6.0
50.407	6.0
50.422	10.0
50.437	6.0
50.452	6.0
50.467	3.0
50.482	6.0
50.497	8.0
50.512	5.0
50.527	7.0
50.542	2.0
50.557	9.0
50.572	3.0
50.587	5.0
50.602	4.0
50.617	1.0
50.632	9.0
50.647	1.0
50.662	2.0
50.677	3.0
50.692	8.0
50.707	5.0
50.722	6.0
50.737	6.0
50.752	6.0
50.767	3.0
50.782	8.0
50.797	6.0
50.812	8.0
50.828	9.0
50.843	7.0
50.858	7.0
50.873	4.0
50.888	4.0
50.903	3.0
50.918	6.0
50.933	7.0
50.948	5.0
50.963	5.0
50.978	6.0
50.993	5.0
51.008	5.0
51.023	7.0
51.038	8.0
51.053	6.0
51.068	7.0
51.083	10.0
51.098	5.0
51.114	2.0
51.129	5.0
51.144	3.0
51.159	8.0
51.174	1.0
51.189	5.0
51.204	4.0
51.219	8.0
51.234	6.0
51.249	1.0
51.264	9.0
51.279	4.0
51.294	6.0
51.309	4.0
51.324	0.0
51.34	7.0
51.355	3.0
51.37	6.0
51.385	5.0
51.4	6.0
51.415	7.0
51.43	7.0
51.445	11.0
51.46	8.0
51.475	11.0
51.49	15.0
51.505	14.0
51.52	14.0
51.535	22.0
51.551	25.0
51.566	16.0
51.581	16.0
51.596	14.0
51.611	7.0
51.626	12.0
51.641	4.0
51.656	4.0
51.671	5.0
51.686	7.0
51.701	5.0
51.716	10.0
51.732	5.0
51.747	8.0
51.762	5.0
51.777	14.0
51.792	6.0
51.807	8.0
51.822	13.0
51.837	11.0
51.852	7.0
51.867	8.0
51.882	15.0
51.898	12.0
51.913	8.0
51.928	6.0
51.943	6.0
51.958	7.0
51.973	7.0
51.988	4.0
52.003	4.0
52.018	6.0
52.033	7.0
52.048	5.0
52.064	7.0
52.079	6.0
52.094	4.0
52.109	3.0
52.124	4.0
52.139	4.0
52.154	2.0
52.169	3.0
52.184	7.0
52.199	3.0
52.215	7.0
52.23	4.0
52.245	3.0
52.26	3.0
52.275	2.0
52.29	4.0
52.305	5.0
52.32	2.0
52.335	3.0
52.35	4.0
52.366	5.0
52.381	3.0
52.396	2.0
52.411	2.0
52.426	6.0
52.441	3.0
52.456	6.0
52.471	4.0
52.486	6.0
52.502	8.0
52.517	9.0
52.532	10.0
52.547	8.0
52.562	7.0
52.577	7.0
52.592	6.0
52.607	10.0
52.622	7.0
52.637	7.0
52.653	9.0
52.668	11.0
52.683	5.0
52.698	11.0
52.713	6.0
52.728	2.0
52.743	5.0
52.758	6.0
52.774	4.0
52.789	6.0
52.804	10.0
52.819	5.0
52.834	8.0
52.849	5.0
52.864	8.0
52.879	4.0
52.894	2.0
52.91	8.0
52.925	7.0
52.94	9.0
52.955	8.0
52.97	5.0
52.985	3.0
53.0	7.0
53.015	5.0
53.031	4.0
53.046	4.0
53.061	5.0
53.076	4.0
53.091	4.0
53.106	5.0
53.121	5.0
53.136	3.0
53.152	1.0
53.167	3.0
53.182	3.0
53.197	5.0
53.212	5.0
53.227	7.0
53.242	3.0
53.257	4.0
53.273	3.0
53.288	5.0
53.303	6.0
53.318	5.0
53.333	6.0
53.348	4.0
53.363	6.0
53.379	7.0
53.394	9.0
53.409	8.0
53.424	6.0
53.439	4.0
53.454	7.0
53.469	4.0
53.484	8.0
53.5	5.0
53.515	3.0
53.53	8.0
53.545	3.0
53.56	5.0
53.575	7.0
53.59	3.0
53.606	2.0
53.621	6.0
53.636	1.0
53.651	3.0
53.666	3.0
53.681	2.0
53.696	0.0
53.712	7.0
53.727	4.0
53.742	5.0
53.757	7.0
53.772	5.0
53.787	3.0
53.802	6.0
53.818	3.0
53.833	1.0
53.848	6.0
53.863	4.0
53.878	6.0
53.893	4.0
53.909	5.0
53.924	10.0
53.939	2.0
53.954	4.0
53.969	2.0
53.984	4.0
53.999	5.0
54.015	4.0
54.03	5.0
54.045	2.0
54.06	4.0
54.075	5.0
54.09	4.0
54.106	9.0
54.121	3.0
54.136	5.0
54.151	3.0
54.166	3.0
54.181	7.0
54.197	6.0
54.212	8.0
54.227	4.0
54.242	9.0
54.257	2.0
54.272	7.0
54.288	3.0
54.303	3.0
54.318	3.0
54.333	5.0
54.348	4.0
54.363	3.0
54.379	5.0
54.394	5.0
54.409	6.0
54.424	4.0
54.439	6.0
54.454	7.0
54.47	4.0
54.485	5.0
54.5	7.0
54.515	3.0
54.53	4.0
54.545	6.0
54.561	8.0
54.576	6.0
54.591	5.0
54.606	11.0
54.621	8.0
54.636	9.0
54.652	16.0
54.667	16.0
54.682	16.0
54.697	12.0
54.712	10.0
54.727	8.0
54.743	6.0
54.758	7.0
54.773	8.0
54.788	7.0
54.803	8.0
54.819	3.0
54.834	5.0
54.849	7.0
54.864	7.0
54.879	5.0
54.894	6.0
54.91	8.0
54.925	8.0
54.94	9.0
54.955	9.0
54.97	8.0
54.985	9.0
55.001	11.0
55.016	7.0
55.031	12.0
55.046	2.0
55.061	10.0
55.077	10.0
55.092	9.0
55.107	8.0
55.122	5.0
55.137	3.0
55.152	7.0
55.168	5.0
55.183	4.0
55.198	4.0
55.213	3.0
55.228	4.0
55.243	5.0
55.259	0.0
55.274	1.0
55.289	5.0
55.304	3.0
55.319	4.0
55.335	4.0
55.35	10.0
55.365	4.0
55.38	5.0
55.395	3.0
55.41	3.0
55.426	5.0
55.441	5.0
55.456	4.0
55.471	7.0
55.486	3.0
55.501	1.0
55.517	10.0
55.532	4.0
55.547	6.0
55.562	8.0
55.577	3.0
55.592	9.0
55.608	3.0
55.623	11.0
55.638	3.0
55.653	2.0
55.668	5.0
55.683	6.0
55.699	9.0
55.714	5.0
55.729	7.0
55.744	11.0
55.759	3.0
55.774	4.0
55.79	7.0
55.805	6.0
55.82	7.0
55.835	2.0
55.85	4.0
55.865	4.0
55.881	1.0
55.896	8.0
55.911	3.0
55.926	3.0
55.941	4.0
55.956	8.0
55.972	6.0
55.987	1.0
56.002	6.0
56.017	8.0
56.032	12.0
56.047	4.0
56.063	4.0
56.078	8.0
56.093	6.0
56.108	6.0
56.123	8.0
56.138	5.0
56.154	5.0
56.169	6.0
56.184	3.0
56.199	5.0
56.214	4.0
56.229	3.0
56.244	7.0
56.26	5.0
56.275	7.0
56.29	7.0
56.305	2.0
56.32	1.0
56.335	8.0
56.351	6.0
56.366	11.0
56.381	3.0
56.396	6.0
56.411	5.0
56.426	5.0
56.441	3.0
56.457	4.0
56.472	4.0
56.487	7.0
56.502	3.0
56.517	5.0
56.532	2.0
56.547	2.0
56.563	5.0
56.578	4.0
56.593	2.0
56.608	5.0
56.623	3.0
56.638	9.0
56.653	1.0
56.668	4.0
56.684	5.0
56.699	5.0
56.714	2.0
56.729	2.0
56.744	3.0
56.759	7.0
56.774	4.0
56.79	3.0
56.805	4.0
56.82	2.0
56.835	3.0
56.85	2.0
56.865	7.0
56.88	6.0
56.895	4.0
56.911	4.0
56.926	3.0
56.941	3.0
56.956	2.0
56.971	5.0
56.986	3.0
57.001	6.0
57.016	4.0
57.031	3.0
57.047	6.0
57.062	2.0
57.077	2.0
57.092	1.0
57.107	4.0
57.122	6.0
57.137	1.0
57.152	5.0
57.167	2.0
57.183	7.0
57.198	3.0
57.213	2.0
57.228	6.0
57.243	8.0
57.258	5.0
57.273	6.0
57.288	2.0
57.303	4.0
57.318	4.0
57.334	8.0
57.349	3.0
57.364	3.0
57.379	2.0
57.394	7.0
57.409	6.0
57.424	5.0
57.439	3.0
57.454	1.0
57.469	6.0
57.484	3.0
57.5	4.0
57.515	5.0
57.53	6.0
57.545	4.0
57.56	8.0
57.575	6.0
57.59	7.0
57.605	4.0
57.62	5.0
57.635	5.0
57.65	3.0
57.665	8.0
57.68	4.0
57.696	7.0
57.711	7.0
57.726	6.0
57.741	4.0
57.756	3.0
57.771	2.0
57.786	4.0
57.801	7.0
57.816	3.0
57.831	3.0
57.846	4.0
57.861	3.0
57.876	10.0
57.891	2.0
57.906	2.0
57.921	4.0
57.937	4.0
57.952	7.0
57.967	3.0
57.982	6.0
57.997	6.0
58.012	10.0
58.027	5.0
58.042	4.0
58.057	4.0
58.072	4.0
58.087	8.0
58.102	3.0
58.117	8.0
58.132	3.0
58.147	5.0
58.162	6.0
58.177	4.0
58.192	4.0
58.207	4.0
58.222	7.0
58.237	4.0
58.252	3.0
58.267	6.0
58.282	3.0
58.297	3.0
58.312	4.0
58.327	7.0
58.342	4.0
58.357	6.0
58.372	2.0
58.387	1.0
58.402	5.0
58.418	3.0
58.433	6.0
58.448	4.0
58.463	2.0
58.478	6.0
58.493	5.0
58.508	4.0
58.523	1.0
58.538	9.0
58.553	3.0
58.568	12.0
58.583	10.0
58.598	3.0
58.613	6.0
58.628	10.0
58.643	8.0
58.658	4.0
58.673	10.0
58.688	10.0
58.703	4.0
58.718	6.0
58.733	9.0
58.748	4.0
58.763	5.0
58.778	4.0
58.793	2.0
58.808	2.0
58.823	3.0
58.838	5.0
58.853	1.0
58.868	3.0
58.883	5.0
58.898	6.0
58.913	6.0
58.928	4.0
58.942	7.0
58.957	6.0
58.972	6.0
58.987	9.0
59.002	6.0
59.017	4.0
59.032	7.0
59.047	8.0
59.062	8.0
59.077	1.0
59.092	6.0
59.107	7.0
59.122	4.0
59.137	4.0
59.152	4.0
59.167	4.0
59.182	5.0
59.197	5.0
59.212	4.0
59.227	6.0
59.242	3.0
59.257	8.0
59.272	6.0
59.287	1.0
59.302	5.0
59.317	7.0
59.332	5.0
59.347	4.0
59.362	4.0
59.377	3.0
59.392	6.0
59.407	2.0
59.422	3.0
59.437	8.0
59.452	8.0
59.467	5.0
59.482	4.0
59.497	7.0
59.512	10.0
59.527	3.0
59.542	4.0
59.557	8.0
59.572	7.0
59.587	6.0
59.602	16.0
59.617	11.0
59.632	12.0
59.647	17.0
59.661	13.0
59.676	6.0
59.691	12.0
59.706	8.0
59.721	8.0
59.736	6.0
59.751	4.0
59.766	5.0
59.781	2.0
59.796	7.0
59.811	6.0
59.826	5.0
59.841	4.0
59.856	5.0
59.871	5.0
59.886	4.0
59.901	2.0
59.916	7.0
59.931	7.0
59.946	8.0
59.961	2.0
59.976	7.0
59.991	7.0
60.006	4.0
60.021	5.0
60.036	5.0
60.051	10.0
60.066	7.0
60.081	8.0
60.096	7.0
60.111	5.0
60.126	6.0
60.141	9.0
60.156	4.0
60.171	3.0
60.186	2.0
60.201	4.0
60.216	2.0
60.231	4.0
60.246	6.0
60.261	4.0
60.276	5.0
60.291	3.0
60.306	3.0
60.321	5.0
60.336	8.0
60.35	6.0
60.365	5.0
60.38	3.0
60.395	3.0
60.41	3.0
60.425	5.0
60.44	4.0
60.455	7.0
60.47	8.0
60.485	8.0
60.5	7.0
60.515	7.0
60.53	6.0
60.545	6.0
60.56	12.0
60.575	7.0
60.59	7.0
60.605	8.0
60.62	7.0
60.635	14.0
60.65	6.0
60.665	6.0
60.68	12.0
60.695	9.0
60.71	5.0
60.725	2.0
60.74	4.0
60.755	7.0
60.77	3.0
60.785	1.0
60.8	5.0
60.815	4.0
60.83	3.0
60.845	6.0
60.86	6.0
60.875	4.0
60.89	2.0
60.905	6.0
60.92	3.0
60.935	6.0
60.95	9.0
60.965	7.0
60.98	5.0
60.995	4.0
61.01	9.0
61.025	3.0
61.04	4.0
61.055	10.0
61.07	8.0
61.085	8.0
61.1	7.0
61.115	4.0
61.13	5.0
61.145	2.0
61.16	3.0
61.175	4.0
61.191	2.0
61.206	3.0
61.221	5.0
61.236	4.0
61.251	5.0
61.266	4.0
61.281	7.0
61.296	4.0
61.311	10.0
61.326	6.0
61.341	4.0
61.356	2.0
61.371	4.0
61.386	2.0
61.401	0.0
61.416	1.0
61.431	2.0
61.446	8.0
61.461	5.0
61.476	4.0
61.491	4.0
61.506	8.0
61.521	5.0
61.536	3.0
61.551	7.0
61.566	4.0
61.581	8.0
61.596	6.0
61.611	4.0
61.626	5.0
61.641	5.0
61.656	2.0
61.672	3.0
61.687	1.0
61.702	0.0
61.717	2.0
61.732	4.0
61.747	5.0
61.762	8.0
61.777	4.0
61.792	2.0
61.807	3.0
61.822	1.0
61.837	3.0
61.852	4.0
61.867	8.0
61.882	1.0
61.897	3.0
61.912	3.0
61.927	6.0
61.943	6.0
61.958	7.0
61.973	3.0
61.988	7.0
62.003	1.0
62.018	4.0
62.033	7.0
62.048	5.0
62.063	5.0
62.078	2.0
62.093	7.0
62.108	4.0
62.123	5.0
62.138	4.0
62.153	5.0
62.169	7.0
62.184	3.0
62.199	6.0
62.214	1.0
62.229	1.0
62.244	3.0
62.259	3.0
62.274	4.0
62.289	6.0
62.304	4.0
62.319	5.0
62.335	4.0
62.35	5.0
62.365	3.0
62.38	3.0
62.395	4.0
62.41	7.0
62.425	4.0
62.44	7.0
62.455	7.0
62.47	6.0
62.485	4.0
62.501	9.0
62.516	4.0
62.531	7.0
62.546	4.0
62.561	2.0
62.576	5.0
62.591	4.0
62.606	5.0
62.621	0.0
62.636	5.0
62.652	5.0
62.667	6.0
62.682	5.0
62.697	5.0
62.712	2.0
62.727	2.0
62.742	5.0
62.757	2.0
62.772	8.0
62.787	5.0
62.803	1.0
62.818	6.0
62.833	8.0
62.848	6.0
62.863	3.0
62.878	1.0
62.893	5.0
62.908	6.0
62.923	4.0
62.939	1.0
62.954	1.0
62.969	4.0
62.984	3.0
62.999	4.0
63.014	3.0
63.029	3.0
63.044	2.0
63.059	2.0
63.074	3.0
63.09	7.0
63.105	2.0
63.12	1.0
63.135	2.0
63.15	2.0
63.165	3.0
63.18	3.0
63.195	3.0
63.21	5.0
63.226	2.0
63.241	2.0
63.256	7.0
63.271	5.0
63.286	4.0
63.301	7.0
63.316	6.0
63.331	3.0
63.346	8.0
63.362	8.0
63.377	6.0
63.392	5.0
63.407	7.0
63.422	11.0
63.437	5.0
63.452	8.0
63.467	5.0
63.482	5.0
63.497	4.0
63.513	5.0
63.528	3.0
63.543	2.0
63.558	6.0
63.573	6.0
63.588	3.0
63.603	7.0
63.618	6.0
63.633	1.0
63.648	4.0
63.664	5.0
63.679	4.0
63.694	1.0
63.709	5.0
63.724	6.0
63.739	4.0
63.754	5.0
63.769	6.0
63.784	3.0
63.799	12.0
63.814	7.0
63.83	9.0
63.845	5.0
63.86	5.0
63.875	6.0
63.89	5.0
63.905	4.0
63.92	2.0
63.935	4.0
63.95	4.0
63.965	5.0
63.98	5.0
63.996	0.0
64.011	3.0
64.026	5.0
64.041	3.0
64.056	6.0
64.071	6.0
64.086	3.0
64.101	2.0
64.116	2.0
64.131	2.0
64.146	2.0
64.161	4.0
64.176	2.0
64.191	8.0
64.207	7.0
64.222	1.0
64.237	2.0
64.252	5.0
64.267	3.0
64.282	3.0
64.297	4.0
64.312	3.0
64.327	3.0
64.342	2.0
64.357	4.0
64.372	7.0
64.387	4.0
64.402	4.0
64.417	4.0
64.433	7.0
64.448	3.0
64.463	5.0
64.478	1.0
64.493	7.0
64.508	5.0
64.523	4.0
64.538	4.0
64.553	5.0
64.568	6.0
64.583	2.0
64.598	4.0
64.613	5.0
64.628	2.0
64.643	5.0
64.658	3.0
64.673	5.0
64.688	5.0
64.703	2.0
64.718	3.0
64.734	7.0
64.749	7.0
64.764	3.0
64.779	1.0
64.794	2.0
64.809	5.0
64.824	3.0
64.839	6.0
64.854	3.0
64.869	6.0
64.884	3.0
64.899	6.0
64.914	2.0
64.929	1.0
64.944	2.0
64.959	2.0
64.974	2.0
64.989	6.0
65.004	3.0
65.019	6.0
65.034	6.0
65.049	2.0
65.064	2.0
65.079	4.0
65.094	3.0
65.109	4.0
65.125	6.0
65.14	8.0
65.155	8.0
65.17	4.0
65.185	2.0
65.2	6.0
65.215	6.0
65.23	3.0
65.245	4.0
65.26	5.0
65.275	6.0
65.29	2.0
65.305	5.0
65.32	5.0
65.335	4.0
65.35	7.0
65.365	6.0
65.38	0.0
65.395	4.0
65.41	6.0
65.425	4.0
65.44	3.0
65.455	6.0
65.47	3.0
65.485	5.0
65.5	5.0
65.515	3.0
65.53	8.0
65.545	2.0
65.56	5.0
65.575	4.0
65.59	4.0
65.605	6.0
65.62	2.0
65.635	7.0
65.65	4.0
65.666	2.0
65.681	0.0
65.696	3.0
65.711	3.0
65.726	2.0
65.741	5.0
65.756	0.0
65.771	4.0
65.786	9.0
65.801	2.0
65.816	2.0
65.831	5.0
65.846	4.0
65.861	4.0
65.876	6.0
65.891	3.0
65.906	3.0
65.921	4.0
65.936	4.0
65.951	5.0
65.966	2.0
65.981	4.0
65.996	3.0
66.011	8.0
66.026	7.0
66.041	7.0
66.056	5.0
66.071	2.0
66.086	1.0
66.101	2.0
66.116	8.0
66.131	6.0
66.146	5.0
66.161	6.0
66.176	8.0
66.191	6.0
66.206	9.0
66.221	10.0
66.236	5.0
66.251	5.0
66.266	5.0
66.281	4.0
66.296	5.0
66.311	3.0
66.327	7.0
66.342	4.0
66.357	4.0
66.372	2.0
66.387	2.0
66.402	3.0
66.417	1.0
66.432	4.0
66.447	1.0
66.462	3.0
66.477	4.0
66.492	0.0
66.507	2.0
66.522	3.0
66.537	14.0
66.552	7.0
66.567	3.0
66.582	5.0
66.597	12.0
66.612	3.0
66.627	11.0
66.642	7.0
66.657	10.0
66.672	11.0
66.687	3.0
66.702	6.0
66.717	4.0
66.732	4.0
66.747	4.0
66.762	3.0
66.777	3.0
66.792	5.0
66.807	2.0
66.822	7.0
66.837	6.0
66.853	4.0
66.868	0.0
66.883	4.0
66.898	4.0
66.913	3.0
66.928	3.0
66.943	3.0
66.958	2.0
66.973	8.0
66.988	3.0
67.003	4.0
67.018	2.0
67.033	3.0
67.048	3.0
67.063	8.0
67.078	7.0
67.093	3.0
67.108	7.0
67.123	8.0
67.138	4.0
67.153	6.0
67.168	6.0
67.183	2.0
67.198	3.0
67.214	3.0
67.229	3.0
67.244	7.0
67.259	3.0
67.274	7.0
67.289	3.0
67.304	4.0
67.319	5.0
67.334	1.0
67.349	3.0
67.364	3.0
67.379	2.0
67.394	2.0
67.409	2.0
67.424	6.0
67.439	4.0
67.454	7.0
67.469	6.0
67.484	0.0
67.5	6.0
67.515	3.0
67.53	6.0
67.545	7.0
67.56	5.0
67.575	5.0
67.59	4.0
67.605	3.0
67.62	7.0
67.635	5.0
67.65	4.0
67.665	3.0
67.68	4.0
67.695	5.0
67.71	6.0
67.726	2.0
67.741	4.0
67.756	4.0
67.771	5.0
67.786	2.0
67.801	2.0
67.816	5.0
67.831	4.0
67.846	4.0
67.861	3.0
67.876	2.0
67.891	4.0
67.906	3.0
67.922	4.0
67.937	6.0
67.952	4.0
67.967	3.0
67.982	6.0
67.997	1.0
68.012	5.0
68.027	7.0
68.042	7.0
68.057	1.0
68.072	2.0
68.087	2.0
68.103	7.0
68.118	1.0
68.133	2.0
68.148	3.0
68.163	3.0
68.178	3.0
68.193	2.0
68.208	7.0
68.223	3.0
68.238	6.0
68.254	6.0
68.269	2.0
68.284	3.0
68.299	6.0
68.314	4.0
68.329	4.0
68.344	4.0
68.359	2.0
68.374	4.0
68.389	7.0
68.405	7.0
68.42	3.0
68.435	4.0
68.45	8.0
68.465	1.0
68.48	1.0
68.495	4.0
68.51	7.0
68.525	1.0
68.54	4.0
68.556	2.0
68.571	5.0
68.586	2.0
68.601	4.0
68.616	3.0
68.631	2.0
68.646	5.0
68.661	1.0
68.676	0.0
68.691	2.0
68.707	1.0
68.722	2.0
68.737	2.0
68.752	3.0
68.767	4.0
68.782	2.0
68.797	3.0
68.812	4.0
68.827	4.0
68.842	3.0
68.857	6.0
68.873	6.0
68.888	3.0
68.903	1.0
68.918	3.0
68.933	3.0
68.948	5.0
68.963	4.0
68.978	4.0
68.993	4.0
69.008	5.0
69.023	2.0
69.038	6.0
69.054	3.0
69.069	5.0
69.084	2.0
69.099	4.0
69.114	2.0
69.129	2.0
69.144	5.0
69.159	2.0
69.174	2.0
69.189	2.0
69.204	5.0
69.219	3.0
69.234	4.0
69.249	3.0
69.264	2.0
69.279	3.0
69.295	4.0
69.31	2.0
69.325	1.0
69.34	2.0
69.355	2.0
69.37	3.0
69.385	3.0
69.4	2.0
69.415	2.0
69.43	6.0
69.445	3.0
69.46	7.0
69.475	0.0
69.49	8.0
69.505	2.0
69.52	3.0
69.535	2.0
69.55	3.0
69.565	5.0
69.58	2.0
69.595	2.0
69.61	3.0
69.625	3.0
69.64	2.0
69.655	6.0
69.67	4.0
69.685	5.0
69.7	3.0
69.715	2.0
69.73	4.0
69.745	6.0
69.76	2.0
69.775	4.0
69.79	10.0
69.805	10.0
69.82	5.0
69.835	6.0
69.85	5.0
69.865	6.0
69.88	6.0
69.895	3.0
69.909	5.0
69.924	3.0
69.939	5.0
69.954	2.0
69.969	9.0
69.984	5.0
69.999	6.0
70.014	2.0
70.029	2.0
70.044	5.0
70.059	3.0
70.074	5.0
70.088	5.0
70.103	2.0
70.118	4.0
70.133	5.0
70.148	2.0
70.163	3.0
70.178	5.0
70.193	4.0
70.208	5.0
70.222	5.0
70.237	5.0
70.252	5.0
70.267	5.0
70.282	6.0
70.297	6.0
70.312	3.0
70.327	3.0
70.341	2.0
70.356	3.0
70.371	3.0
70.386	5.0
70.401	4.0
70.416	4.0
70.43	3.0
70.445	6.0
70.46	6.0
70.475	2.0
70.49	8.0
70.505	3.0
70.519	6.0
70.534	7.0
70.549	7.0
70.564	0.0
70.579	2.0
70.594	1.0
70.608	2.0
70.623	9.0
70.638	7.0
70.653	6.0
70.668	2.0
70.683	6.0
70.697	1.0
70.712	10.0
70.727	11.0
70.742	4.0
70.757	4.0
70.771	5.0
70.786	5.0
70.801	1.0
70.816	12.0
70.831	2.0
70.845	5.0
70.86	3.0
70.875	4.0
70.89	2.0
70.905	6.0
70.92	6.0
70.934	4.0
70.949	4.0
70.964	1.0
70.979	5.0
70.994	2.0
71.008	1.0
71.023	3.0
71.038	1.0
71.053	4.0
71.068	1.0
71.082	2.0
71.097	5.0
71.112	5.0
71.127	4.0
71.142	5.0
71.156	6.0
71.171	2.0
71.186	2.0
71.201	4.0
71.216	7.0
71.231	4.0
71.245	5.0
71.26	2.0
71.275	5.0
71.29	2.0
71.305	3.0
71.319	3.0
71.334	2.0
71.349	5.0
71.364	4.0
71.379	1.0
71.394	6.0
71.408	5.0
71.423	5.0
71.438	4.0
71.453	5.0
71.468	3.0
71.483	3.0
71.497	6.0
71.512	2.0
71.527	6.0
71.542	4.0
71.557	2.0
71.572	7.0
71.586	5.0
71.601	3.0
71.616	4.0
71.631	0.0
71.646	4.0
71.661	3.0
71.676	2.0
71.69	2.0
71.705	2.0
71.72	1.0
71.735	3.0
71.75	1.0
71.765	1.0
71.78	4.0
71.795	2.0
71.81	3.0
71.824	2.0
71.839	1.0
71.854	5.0
71.869	0.0
71.884	1.0
71.899	3.0
71.914	3.0
71.929	3.0
71.944	5.0
71.959	1.0
71.974	6.0
71.988	3.0
72.003	2.0
72.018	3.0
72.033	0.0
72.048	5.0
72.063	6.0
72.078	3.0
72.093	4.0
72.108	4.0
72.123	2.0
72.138	2.0
72.153	5.0
72.168	2.0
72.183	8.0
72.198	2.0
72.213	2.0
72.228	5.0
72.243	3.0
72.258	3.0
72.273	7.0
72.288	4.0
72.303	2.0
72.318	3.0
72.333	3.0
72.348	3.0
72.363	3.0
72.378	2.0
72.393	7.0
72.408	0.0
72.423	2.0
72.438	2.0
72.453	0.0
72.468	6.0
72.483	8.0
72.498	4.0
72.513	3.0
72.528	2.0
72.543	6.0
72.558	4.0
72.573	4.0
72.588	5.0
72.603	3.0
72.618	6.0
72.633	1.0
72.649	2.0
72.664	2.0
72.679	6.0
72.694	5.0
72.709	5.0
72.724	4.0
72.739	2.0
72.754	5.0
72.769	2.0
72.784	7.0
72.799	5.0
72.814	3.0
72.829	1.0
72.845	4.0
72.86	3.0
72.875	2.0
72.89	3.0
72.905	5.0
72.92	1.0
72.935	0.0
72.95	1.0
72.965	5.0
72.98	4.0
72.996	5.0
73.011	1.0
73.026	2.0
73.041	0.0
73.056	2.0
73.071	2.0
73.086	3.0
73.101	3.0
73.117	3.0
73.132	1.0
73.147	8.0
73.162	4.0
73.177	4.0
73.192	4.0
73.207	3.0
73.222	4.0
73.238	2.0
73.253	2.0
73.268	3.0
73.283	2.0
73.298	1.0
73.313	1.0
73.328	6.0
73.343	6.0
73.359	5.0
73.374	5.0
73.389	3.0
73.404	5.0
73.419	4.0
73.434	1.0
73.449	6.0
73.465	3.0
73.48	1.0
73.495	2.0
73.51	3.0
73.525	3.0
73.54	5.0
73.556	4.0
73.571	5.0
73.586	4.0
73.601	2.0
73.616	5.0
73.631	5.0
73.646	4.0
73.662	2.0
73.677	5.0
73.692	3.0
73.707	4.0
73.722	2.0
73.737	3.0
73.752	2.0
73.768	5.0
73.783	2.0
73.798	4.0
73.813	2.0
73.828	6.0
73.843	6.0
73.859	7.0
73.874	7.0
73.889	4.0
73.904	1.0
73.919	1.0
73.934	2.0
73.949	4.0
73.965	4.0
73.98	6.0
73.995	2.0
74.01	3.0
74.025	3.0
74.04	6.0
74.056	4.0
74.071	5.0
74.086	4.0
74.101	3.0
74.116	5.0
74.131	2.0
74.146	9.0
74.162	5.0
74.177	3.0
74.192	10.0
74.207	5.0
74.222	7.0
74.237	6.0
74.252	5.0
74.268	6.0
74.283	1.0
74.298	2.0
74.313	1.0
74.328	4.0
74.343	3.0
74.358	0.0
74.374	2.0
74.389	3.0
74.404	5.0
74.419	2.0
74.434	5.0
74.449	1.0
74.464	2.0
74.48	4.0
74.495	2.0
74.51	5.0
74.525	1.0
74.54	3.0
74.555	1.0
74.57	3.0
74.586	2.0
74.601	5.0
74.616	6.0
74.631	2.0
74.646	4.0
74.661	6.0
74.676	3.0
74.691	6.0
74.707	3.0
74.722	1.0
74.737	6.0
74.752	5.0
74.767	4.0
74.782	7.0
74.797	5.0
74.813	5.0
74.828	5.0
74.843	3.0
74.858	3.0
74.873	3.0
74.888	2.0
74.903	2.0
74.918	4.0
74.934	1.0
74.949	5.0
74.964	5.0
74.979	5.0
74.994	3.0
75.009	6.0
75.024	5.0
75.04	2.0
75.055	5.0
75.07	6.0
75.085	5.0
75.1	3.0
75.115	1.0
75.13	0.0
75.145	5.0
75.161	3.0
75.176	8.0
75.191	4.0
75.206	1.0
75.221	1.0
75.236	5.0
75.251	2.0
75.266	1.0
75.282	0.0
75.297	4.0
75.312	4.0
75.327	0.0
75.342	4.0
75.357	3.0
75.372	4.0
75.387	4.0
75.403	0.0
75.418	2.0
75.433	5.0
75.448	4.0
75.463	8.0
75.478	2.0
75.493	4.0
75.509	2.0
75.524	1.0
75.539	6.0
75.554	5.0
75.569	3.0
75.584	2.0
75.599	1.0
75.614	2.0
75.63	3.0
75.645	5.0
75.66	3.0
75.675	1.0
75.69	4.0
75.705	0.0
75.72	3.0
75.735	1.0
75.751	5.0
75.766	1.0
75.781	5.0
75.796	2.0
75.811	4.0
75.826	2.0
75.841	3.0
75.856	1.0
75.872	2.0
75.887	3.0
75.902	3.0
75.917	4.0
75.932	2.0
75.947	5.0
75.962	3.0
75.977	8.0
75.993	3.0
76.008	1.0
76.023	4.0
76.038	1.0
76.053	8.0
76.068	1.0
76.083	2.0
76.098	5.0
76.114	5.0
76.129	3.0
76.144	2.0
76.159	3.0
76.174	2.0
76.189	4.0
76.204	4.0
76.22	4.0
76.235	6.0
76.25	2.0
76.265	5.0
76.28	6.0
76.295	6.0
76.31	3.0
76.325	1.0
76.341	7.0
76.356	2.0
76.371	6.0
76.386	5.0
76.401	2.0
76.416	2.0
76.431	5.0
76.446	2.0
76.462	2.0
76.477	6.0
76.492	5.0
76.507	3.0
76.522	3.0
76.537	6.0
76.552	1.0
76.567	4.0
76.583	1.0
76.598	3.0
76.613	1.0
76.628	1.0
76.643	4.0
76.658	2.0
76.673	4.0
76.688	0.0
76.704	1.0
76.719	6.0
76.734	1.0
76.749	2.0
76.764	4.0
76.779	2.0
76.794	2.0
76.809	2.0
76.824	4.0
76.84	3.0
76.855	2.0
76.87	2.0
76.885	6.0
76.9	3.0
76.915	2.0
76.93	3.0
76.945	1.0
76.96	4.0
76.976	2.0
76.991	2.0
77.006	3.0
77.021	4.0
77.036	5.0
77.051	2.0
77.066	7.0
77.081	3.0
77.096	4.0
77.112	1.0
77.127	3.0
77.142	5.0
77.157	4.0
77.172	2.0
77.187	0.0
77.202	4.0
77.217	1.0
77.232	3.0
77.247	4.0
77.263	5.0
77.278	2.0
77.293	5.0
77.308	3.0
77.323	7.0
77.338	5.0
77.353	4.0
77.368	2.0
77.383	6.0
77.398	2.0
77.413	5.0
77.428	2.0
77.444	2.0
77.459	3.0
77.474	3.0
77.489	4.0
77.504	4.0
77.519	4.0
77.534	3.0
77.549	6.0
77.564	5.0
77.579	4.0
77.594	8.0
77.609	11.0
77.624	2.0
77.64	4.0
77.655	7.0
77.67	6.0
77.685	3.0
77.7	6.0
77.715	1.0
77.73	4.0
77.745	1.0
77.76	6.0
77.775	2.0
77.79	3.0
77.805	6.0
77.82	3.0
77.835	3.0
77.85	10.0
77.865	4.0
77.88	2.0
77.895	1.0
77.91	2.0
77.926	1.0
77.941	5.0
77.956	4.0
77.971	1.0
77.986	2.0
78.001	1.0
78.016	4.0
78.031	0.0
78.046	5.0
78.061	2.0
78.076	3.0
78.091	4.0
78.106	4.0
78.121	4.0
78.136	7.0
78.151	4.0
78.166	2.0
78.181	7.0
78.196	6.0
78.211	2.0
78.226	6.0
78.241	4.0
78.256	2.0
78.271	4.0
78.286	3.0
78.301	2.0
78.316	0.0
78.331	4.0
78.346	5.0
78.361	0.0
78.376	2.0
78.391	1.0
78.406	5.0
78.421	2.0
78.436	3.0
78.451	0.0
78.466	4.0
78.481	4.0
78.496	2.0
78.511	6.0
78.526	2.0
78.541	3.0
78.556	2.0
78.571	4.0
78.586	3.0
78.601	1.0
78.616	3.0
78.631	3.0
78.646	2.0
78.661	1.0
78.676	3.0
78.691	5.0
78.706	2.0
78.721	1.0
78.736	1.0
78.751	0.0
78.766	5.0
78.781	2.0
78.796	4.0
78.811	3.0
78.826	2.0
78.841	5.0
78.856	4.0
78.871	2.0
78.885	4.0
78.9	1.0
78.915	1.0
78.93	1.0
78.945	2.0
78.96	6.0
78.975	2.0
78.99	0.0
79.005	3.0
79.02	4.0
79.035	3.0
79.05	5.0
79.065	0.0
79.08	4.0
79.095	3.0
79.11	3.0
79.125	5.0
79.14	3.0
79.155	7.0
79.17	5.0
79.185	0.0
79.2	2.0
79.215	1.0
79.23	2.0
79.245	3.0
79.26	2.0
79.275	5.0
79.29	6.0
79.304	4.0
79.319	6.0
79.334	1.0
79.349	5.0
79.364	4.0
79.379	4.0
79.394	3.0
79.409	1.0
79.424	5.0
79.439	3.0
79.454	5.0
79.469	5.0
79.484	1.0
79.499	1.0
79.514	4.0
79.529	3.0
79.544	2.0
79.559	3.0
79.574	2.0
79.589	8.0
79.604	2.0
79.619	0.0
79.634	4.0
79.649	2.0
79.664	2.0
79.679	2.0
79.693	2.0
79.708	3.0
79.723	3.0
79.738	4.0
79.753	3.0
79.768	4.0
79.783	3.0
79.798	3.0
79.813	5.0
79.828	2.0
79.843	5.0
79.858	8.0
79.873	6.0
79.888	7.0
79.903	1.0
79.918	3.0
79.933	0.0
79.948	3.0
79.963	3.0
79.978	3.0
79.993	3.0
80.008	5.0
80.023	1.0
80.038	6.0
80.053	3.0
80.068	3.0
80.083	0.0
80.098	5.0
80.113	1.0
80.128	4.0
80.143	2.0
80.158	3.0
80.173	3.0
80.188	3.0
80.202	3.0
80.217	8.0
80.232	5.0
80.247	1.0
80.262	3.0
80.277	4.0
80.292	5.0
80.307	1.0
80.322	3.0
80.337	2.0
80.352	3.0
80.367	6.0
80.382	1.0
80.397	2.0
80.412	0.0
80.427	1.0
80.442	3.0
80.457	6.0
80.472	7.0
80.487	4.0
80.502	4.0
80.517	1.0
80.532	3.0
80.547	3.0
80.562	4.0
80.577	4.0
80.592	3.0
80.607	3.0
80.622	2.0
80.637	6.0
80.652	4.0
80.667	3.0
80.682	1.0
80.697	2.0
80.712	3.0
80.727	7.0
80.742	2.0
80.757	3.0
80.772	4.0
80.787	3.0
80.802	4.0
80.817	3.0
80.832	0.0
80.847	2.0
80.862	4.0
80.877	3.0
80.892	3.0
80.907	6.0
80.922	6.0
80.937	3.0
80.952	5.0
80.967	2.0
80.982	3.0
80.997	1.0
81.012	3.0
81.027	3.0
81.042	2.0
81.057	4.0
81.072	2.0
81.087	5.0
81.101	3.0
81.116	5.0
81.131	1.0
81.146	3.0
81.161	2.0
81.176	5.0
81.191	5.0
81.206	0.0
81.221	3.0
81.236	2.0
81.251	1.0
81.266	3.0
81.281	4.0
81.296	4.0
81.311	3.0
81.326	1.0
81.341	1.0
81.356	1.0
81.371	8.0
81.386	3.0
81.401	0.0
81.416	2.0
81.431	2.0
81.446	2.0
81.461	2.0
81.476	4.0
81.491	2.0
81.506	6.0
81.521	2.0
81.536	5.0
81.55	2.0
81.565	3.0
81.58	2.0
81.595	1.0
81.61	2.0
81.625	6.0
81.64	3.0
81.655	1.0
81.67	2.0
81.685	8.0
81.7	4.0
81.715	2.0
81.73	2.0
81.745	4.0
81.76	6.0
81.775	2.0
81.79	2.0
81.805	4.0
81.819	4.0
81.834	2.0
81.849	3.0
81.864	2.0
81.879	4.0
81.894	7.0
81.909	2.0
81.924	3.0
81.939	5.0
81.954	2.0
81.969	5.0
81.984	5.0
81.999	2.0
82.013	2.0
82.028	2.0
82.043	3.0
82.058	2.0
82.073	3.0
82.088	2.0
82.103	2.0
82.118	2.0
82.133	3.0
82.148	4.0
82.163	1.0
82.177	1.0
82.192	3.0
82.207	4.0
82.222	3.0
82.237	1.0
82.252	0.0
82.267	4.0
82.282	1.0
82.297	0.0
82.312	1.0
82.326	3.0
82.341	1.0
82.356	3.0
82.371	7.0
82.386	0.0
82.401	3.0
82.416	3.0
82.431	3.0
82.445	1.0
82.46	5.0
82.475	4.0
82.49	3.0
82.505	2.0
82.52	2.0
82.535	6.0
82.55	2.0
82.565	2.0
82.579	4.0
82.594	4.0
82.609	1.0
82.624	3.0
82.639	3.0
82.654	1.0
82.669	0.0
82.684	3.0
82.698	2.0
82.713	2.0
82.728	3.0
82.743	6.0
82.758	0.0
82.773	6.0
82.788	2.0
82.803	2.0
82.817	2.0
82.832	3.0
82.847	3.0
82.862	4.0
82.877	3.0
82.892	4.0
82.907	6.0
82.922	3.0
82.937	0.0
82.951	1.0
82.966	2.0
82.981	3.0
82.996	3.0
83.011	4.0
83.026	4.0
83.041	1.0
83.056	2.0
83.07	2.0
83.085	1.0
83.1	2.0
83.115	5.0
83.13	4.0
83.145	3.0
83.16	3.0
83.175	4.0
83.19	0.0
83.204	4.0
83.219	1.0
83.234	4.0
83.249	1.0
83.264	3.0
83.279	4.0
83.294	3.0
83.309	0.0
83.324	1.0
83.339	4.0
83.353	4.0
83.368	0.0
83.383	2.0
83.398	3.0
83.413	2.0
83.428	4.0
83.443	4.0
83.458	5.0
83.473	4.0
83.488	3.0
83.503	5.0
83.517	2.0
83.532	5.0
83.547	2.0
83.562	2.0
83.577	2.0
83.592	4.0
83.607	4.0
83.622	4.0
83.637	6.0
83.652	3.0
83.667	1.0
83.682	5.0
83.697	7.0
83.712	1.0
83.727	2.0
83.741	2.0
83.756	4.0
83.771	2.0
83.786	2.0
83.801	1.0
83.816	3.0
83.831	4.0
83.846	1.0
83.861	0.0
83.876	4.0
83.891	4.0
83.906	2.0
83.921	6.0
83.936	2.0
83.951	6.0
83.966	5.0
83.981	2.0
83.996	3.0
84.011	5.0
84.026	4.0
84.041	0.0
84.056	4.0
84.071	3.0
84.086	4.0
84.101	5.0
84.116	2.0
84.131	3.0
84.146	6.0
84.161	2.0
84.176	0.0
84.191	4.0
84.206	3.0
84.221	1.0
84.236	8.0
84.251	6.0
84.266	2.0
84.281	4.0
84.296	3.0
84.311	1.0
84.326	6.0
84.341	7.0
84.356	3.0
84.371	2.0
84.386	4.0
84.401	5.0
84.416	6.0
84.431	4.0
84.446	3.0
84.461	3.0
84.476	0.0
84.492	3.0
84.507	1.0
84.522	3.0
84.537	3.0
84.552	5.0
84.567	4.0
84.582	0.0
84.597	2.0
84.612	5.0
84.627	3.0
84.642	3.0
84.657	2.0
84.672	1.0
84.687	2.0
84.702	2.0
84.717	3.0
84.733	5.0
84.748	0.0
84.763	2.0
84.778	3.0
84.793	2.0
84.808	3.0
84.823	4.0
84.838	2.0
84.853	3.0
84.868	2.0
84.883	4.0
84.898	3.0
84.913	6.0
84.929	4.0
84.944	4.0
84.959	2.0
84.974	2.0
84.989	5.0
85.004	5.0
85.019	5.0
85.034	4.0
85.049	5.0
85.064	3.0
85.079	4.0
85.094	2.0
85.11	1.0
85.125	2.0
85.14	5.0
85.155	1.0
85.17	2.0
85.185	2.0
85.2	3.0
85.215	1.0
85.23	0.0
85.245	1.0
85.26	3.0
85.276	4.0
85.291	5.0
85.306	4.0
85.321	2.0
85.336	2.0
85.351	1.0
85.366	1.0
85.381	2.0
85.396	5.0
85.411	3.0
85.426	1.0
85.441	3.0
85.457	4.0
85.472	2.0
85.487	2.0
85.502	1.0
85.517	6.0
85.532	3.0
85.547	6.0
85.562	3.0
85.577	3.0
85.592	0.0
85.607	1.0
85.622	3.0
85.637	2.0
85.653	2.0
85.668	1.0
85.683	2.0
85.698	1.0
85.713	5.0
85.728	5.0
85.743	4.0
85.758	3.0
85.773	4.0
85.788	2.0
85.803	3.0
85.818	4.0
85.833	3.0
85.848	5.0
85.863	1.0
85.879	1.0
85.894	5.0
85.909	0.0
85.924	2.0
85.939	1.0
85.954	2.0
85.969	1.0
85.984	4.0
85.999	0.0
86.014	5.0
86.029	4.0
86.044	1.0
86.059	1.0
86.074	1.0
86.089	3.0
86.104	3.0
86.119	3.0
86.134	5.0
86.149	6.0
86.164	3.0
86.179	3.0
86.194	4.0
86.209	1.0
86.224	2.0
86.239	2.0
86.254	4.0
86.269	1.0
86.284	1.0
86.299	3.0
86.314	1.0
86.33	1.0
86.345	7.0
86.36	1.0
86.375	1.0
86.39	1.0
86.405	2.0
86.42	3.0
86.435	4.0
86.45	3.0
86.465	4.0
86.48	4.0
86.495	2.0
86.51	3.0
86.525	0.0
86.54	3.0
86.555	3.0
86.57	3.0
86.585	5.0
86.6	4.0
86.615	2.0
86.63	5.0
86.645	6.0
86.659	1.0
86.674	3.0
86.689	3.0
86.704	5.0
86.719	2.0
86.734	1.0
86.749	2.0
86.764	4.0
86.779	1.0
86.794	3.0
86.809	2.0
86.824	0.0
86.839	6.0
86.854	4.0
86.869	4.0
86.884	4.0
86.899	4.0
86.914	3.0
86.929	1.0
86.944	2.0
86.959	4.0
86.974	0.0
86.989	7.0
87.004	4.0
87.019	5.0
87.034	3.0
87.049	0.0
87.064	6.0
87.079	3.0
87.094	4.0
87.109	3.0
87.124	4.0
87.139	2.0
87.154	4.0
87.169	0.0
87.184	7.0
87.199	2.0
87.214	1.0
87.229	1.0
87.244	6.0
87.259	3.0
87.274	3.0
87.289	4.0
87.304	1.0
87.319	3.0
87.334	2.0
87.349	3.0
87.364	2.0
87.379	1.0
87.394	2.0
87.409	3.0
87.424	0.0
87.438	5.0
87.453	1.0
87.468	3.0
87.483	1.0
87.498	3.0
87.513	6.0
87.528	4.0
87.543	4.0
87.558	5.0
87.573	3.0
87.588	6.0
87.603	8.0
87.618	5.0
87.633	5.0
87.648	3.0
87.663	2.0
87.678	3.0
87.693	8.0
87.708	2.0
87.723	7.0
87.738	6.0
87.753	8.0
87.768	8.0
87.783	3.0
87.798	5.0
87.813	5.0
87.828	4.0
87.843	6.0
87.858	6.0
87.873	3.0
87.888	4.0
87.903	3.0
87.918	4.0
87.933	6.0
87.948	1.0
87.963	3.0
87.978	1.0
87.993	1.0
88.008	3.0
88.023	2.0
88.038	0.0
88.053	2.0
88.068	1.0
88.083	3.0
88.098	2.0
88.113	3.0
88.128	3.0
88.143	4.0
88.158	6.0
88.174	1.0
88.189	3.0
88.204	3.0
88.219	3.0
88.234	2.0
88.249	2.0
88.264	1.0
88.279	2.0
88.294	4.0
88.309	4.0
88.324	0.0
88.339	7.0
88.354	4.0
88.369	5.0
88.384	1.0
88.399	5.0
88.414	0.0
88.429	1.0
88.444	5.0
88.459	2.0
88.474	3.0
88.489	6.0
88.504	6.0
88.519	2.0
88.534	5.0
88.549	1.0
88.564	2.0
88.58	1.0
88.595	2.0
88.61	5.0
88.625	1.0
88.64	4.0
88.655	3.0
88.67	2.0
88.685	5.0
88.7	5.0
88.715	4.0
88.73	2.0
88.745	3.0
88.76	4.0
88.775	3.0
88.79	3.0
88.805	4.0
88.82	0.0
88.835	0.0
88.85	2.0
88.865	1.0
88.88	4.0
88.895	2.0
88.911	0.0
88.926	1.0
88.941	4.0
88.956	2.0
88.971	1.0
88.986	3.0
89.001	0.0
89.016	3.0
89.031	3.0
89.046	5.0
89.061	4.0
89.076	4.0
89.091	2.0
89.106	2.0
89.121	3.0
89.136	1.0
89.151	2.0
89.166	2.0
89.181	1.0
89.196	2.0
89.211	3.0
89.227	2.0
89.242	2.0
89.257	4.0
89.272	1.0
89.287	2.0
89.302	4.0
89.317	5.0
89.332	3.0
89.347	2.0
89.362	6.0
89.377	2.0
89.392	6.0
89.407	3.0
89.422	3.0
89.437	1.0
89.452	3.0
89.467	3.0
89.482	4.0
89.497	1.0
89.512	2.0
89.527	2.0
89.542	5.0
89.557	6.0
89.572	7.0
89.587	3.0
89.602	3.0
89.617	4.0
89.632	3.0
89.647	2.0
89.662	2.0
89.677	3.0
89.693	0.0
89.708	3.0
89.723	1.0
89.738	4.0
89.753	3.0
89.768	4.0
89.783	5.0
89.798	4.0
89.813	4.0
89.828	4.0
89.843	1.0
89.858	4.0
89.873	6.0
89.888	3.0
89.903	1.0
89.918	4.0
89.933	3.0
89.948	3.0
89.963	4.0
89.978	4.0
89.993	3.0
90.008	3.0
90.023	2.0
90.038	2.0
90.053	1.0
90.068	4.0
90.083	2.0
90.097	5.0
90.112	4.0
90.127	4.0
90.142	2.0
90.157	4.0
90.172	5.0
90.187	1.0
90.202	4.0
90.217	1.0
90.232	0.0
90.247	6.0
90.262	4.0
90.277	4.0
90.292	2.0
90.307	2.0
90.322	5.0
90.337	4.0
90.352	2.0
90.367	2.0
90.382	6.0
90.397	5.0
90.412	3.0
90.427	1.0
90.442	3.0
90.457	4.0
90.472	3.0
90.487	6.0
90.501	0.0
90.516	0.0
90.531	4.0
90.546	1.0
90.561	7.0
90.576	5.0
90.591	3.0
90.606	5.0
90.621	4.0
90.636	5.0
90.651	1.0
90.666	1.0
90.681	4.0
90.696	2.0
90.711	5.0
90.726	2.0
90.741	3.0
90.755	4.0
90.77	2.0
90.785	6.0
90.8	1.0
90.815	3.0
90.83	5.0
90.845	3.0
90.86	3.0
90.875	2.0
90.89	2.0
90.905	7.0
90.92	3.0
90.935	5.0
90.95	0.0
90.965	3.0
90.979	4.0
90.994	8.0
91.009	2.0
91.024	3.0
91.039	3.0
91.054	3.0
91.069	2.0
91.084	1.0
91.099	3.0
91.114	4.0
91.129	4.0
91.144	4.0
91.159	5.0
91.174	3.0
91.188	1.0
91.203	6.0
91.218	1.0
91.233	3.0
91.248	1.0
91.263	2.0
91.278	2.0
91.293	2.0
91.308	2.0
91.323	5.0
91.338	1.0
91.353	1.0
91.368	1.0
91.383	2.0
91.398	1.0
91.412	1.0
91.427	2.0
91.442	3.0
91.457	3.0
91.472	1.0
91.487	1.0
91.502	3.0
91.517	1.0
91.532	6.0
91.547	1.0
91.562	2.0
91.577	1.0
91.592	1.0
91.607	2.0
91.622	3.0
91.637	3.0
91.652	3.0
91.666	3.0
91.681	1.0
91.696	2.0
91.711	4.0
91.726	0.0
91.741	7.0
91.756	8.0
91.771	2.0
91.786	5.0
91.801	2.0
91.816	2.0
91.831	6.0
91.846	2.0
91.861	2.0
91.876	2.0
91.891	1.0
91.906	5.0
91.921	4.0
91.936	4.0
91.951	2.0
91.966	4.0
91.981	3.0
91.995	1.0
92.01	4.0
92.025	1.0
92.04	0.0
92.055	5.0
92.07	3.0
92.085	4.0
92.1	5.0
92.115	2.0
92.13	4.0
92.145	2.0
92.16	5.0
92.175	3.0
92.19	0.0
92.205	3.0
92.22	0.0
92.235	3.0
92.25	2.0
92.265	1.0
92.28	3.0
92.295	2.0
92.31	2.0
92.325	1.0
92.34	0.0
92.355	3.0
92.37	2.0
92.385	4.0
92.4	1.0
92.415	2.0
92.43	1.0
92.445	3.0
92.46	3.0
92.475	0.0
92.49	3.0
92.505	3.0
92.52	3.0
92.535	5.0
92.55	3.0
92.565	6.0
92.58	3.0
92.595	6.0
92.61	2.0
92.625	3.0
92.64	2.0
92.655	2.0
92.67	0.0
92.685	2.0
92.7	3.0
92.715	2.0
92.73	4.0
92.745	6.0
92.76	1.0
92.775	3.0
92.79	0.0
92.805	2.0
92.82	2.0
92.835	4.0
92.85	4.0
92.865	3.0
92.88	3.0
92.895	4.0
92.91	4.0
92.925	3.0
92.94	4.0
92.955	5.0
92.97	3.0
92.985	4.0
93.0	3.0
93.015	2.0
93.03	2.0
93.045	1.0
93.06	3.0
93.075	4.0
93.09	6.0
93.105	2.0
93.12	5.0
93.135	2.0
93.15	3.0
93.165	3.0
93.18	1.0
93.195	1.0
93.21	2.0
93.225	4.0
93.24	2.0
93.255	1.0
93.27	1.0
93.285	1.0
93.3	2.0
93.315	2.0
93.33	2.0
93.345	6.0
93.36	5.0
93.375	6.0
93.39	1.0
93.405	2.0
93.42	2.0
93.435	2.0
93.45	4.0
93.465	5.0
93.48	3.0
93.495	4.0
93.51	7.0
93.525	0.0
93.54	1.0
93.555	1.0
93.57	6.0
93.585	2.0
93.6	3.0
93.615	1.0
93.63	2.0
93.645	2.0
93.66	5.0
93.675	6.0
93.69	2.0
93.705	2.0
93.72	5.0
93.735	3.0
93.75	3.0
93.765	0.0
93.78	5.0
93.795	3.0
93.81	5.0
93.824	2.0
93.839	11.0
93.854	4.0
93.869	3.0
93.884	5.0
93.899	3.0
93.914	1.0
93.929	3.0
93.944	5.0
93.959	1.0
93.974	2.0
93.989	3.0
94.004	2.0
94.019	5.0
94.034	3.0
94.049	4.0
94.064	3.0
94.079	2.0
94.094	7.0
94.108	2.0
94.123	3.0
94.138	1.0
94.153	4.0
94.168	5.0
94.183	2.0
94.198	2.0
94.213	4.0
94.228	1.0
94.243	3.0
94.258	4.0
94.273	1.0
94.288	6.0
94.302	2.0
94.317	5.0
94.332	3.0
94.347	4.0
94.362	5.0
94.377	3.0
94.392	4.0
94.407	1.0
94.422	3.0
94.437	2.0
94.452	7.0
94.466	4.0
94.481	6.0
94.496	4.0
94.511	4.0
94.526	6.0
94.541	6.0
94.556	6.0
94.571	1.0
94.586	2.0
94.601	3.0
94.615	6.0
94.63	3.0
94.645	5.0
94.66	4.0
94.675	2.0
94.69	3.0
94.705	4.0
94.72	4.0
94.735	4.0
94.749	5.0
94.764	2.0
94.779	1.0
94.794	3.0
94.809	4.0
94.824	3.0
94.839	1.0
94.854	3.0
94.868	3.0
94.883	2.0
94.898	3.0
94.913	1.0
94.928	1.0
94.943	2.0
94.958	2.0
94.973	3.0
94.987	0.0
95.002	4.0
95.017	3.0
95.032	3.0
95.047	4.0
95.062	0.0
95.077	4.0
95.092	5.0
95.106	5.0
95.121	5.0
95.136	0.0
95.151	1.0
95.166	5.0
95.181	4.0
95.196	5.0
95.211	2.0
95.226	3.0
95.24	2.0
95.255	3.0
95.27	1.0
95.285	5.0
95.3	2.0
95.315	1.0
95.33	3.0
95.345	1.0
95.359	3.0
95.374	3.0
95.389	5.0
95.404	2.0
95.419	1.0
95.434	6.0
95.449	2.0
95.464	2.0
95.478	0.0
95.493	5.0
95.508	1.0
95.523	1.0
95.538	1.0
95.553	2.0
95.568	3.0
95.583	1.0
95.597	2.0
95.612	2.0
95.627	4.0
95.642	2.0
95.657	2.0
95.672	1.0
95.687	1.0
95.702	1.0
95.717	3.0
95.731	7.0
95.746	3.0
95.761	2.0
95.776	4.0
95.791	5.0
95.806	6.0
95.821	7.0
95.836	8.0
95.851	5.0
95.866	2.0
95.88	4.0
95.895	7.0
95.91	4.0
95.925	5.0
95.94	4.0
95.955	4.0
95.97	4.0
95.985	2.0
96.0	3.0
96.015	2.0
96.029	2.0
96.044	2.0
96.059	1.0
96.074	2.0
96.089	3.0
96.104	3.0
96.119	2.0
96.134	5.0
96.149	5.0
96.164	3.0
96.179	2.0
96.194	1.0
96.208	4.0
96.223	5.0
96.238	1.0
96.253	5.0
96.268	7.0
96.283	6.0
96.298	3.0
96.313	3.0
96.328	2.0
96.343	4.0
96.358	3.0
96.373	2.0
96.388	1.0
96.403	2.0
96.417	1.0
96.432	0.0
96.447	2.0
96.462	2.0
96.477	3.0
96.492	1.0
96.507	1.0
96.522	3.0
96.537	3.0
96.552	2.0
96.567	1.0
96.582	2.0
96.597	3.0
96.612	1.0
96.627	4.0
96.642	4.0
96.656	3.0
96.671	5.0
96.686	3.0
96.701	9.0
96.716	5.0
96.731	1.0
96.746	6.0
96.761	3.0
96.776	0.0
96.791	7.0
96.806	1.0
96.821	0.0
96.836	3.0
96.851	8.0
96.866	1.0
96.881	5.0
96.896	5.0
96.911	4.0
96.926	2.0
96.94	6.0
96.955	4.0
96.97	3.0
96.985	1.0
97.0	3.0
97.015	3.0
97.03	3.0
97.045	4.0
97.06	2.0
97.075	0.0
97.09	2.0
97.105	6.0
97.12	3.0
97.135	5.0
97.15	0.0
97.165	4.0
97.18	4.0
97.195	3.0
97.21	2.0
97.225	4.0
97.239	3.0
97.254	2.0
97.269	2.0
97.284	2.0
97.299	1.0
97.314	2.0
97.329	5.0
97.344	1.0
97.359	4.0
97.374	2.0
97.389	2.0
97.404	4.0
97.419	3.0
97.434	4.0
97.449	4.0
97.464	6.0
97.479	2.0
97.494	4.0
97.509	4.0
97.524	2.0
97.538	6.0
97.553	3.0
97.568	4.0
97.583	2.0
97.598	3.0
97.613	4.0
97.628	3.0
97.643	5.0
97.658	2.0
97.673	2.0
97.688	4.0
97.703	0.0
97.718	3.0
97.733	1.0
97.748	6.0
97.763	4.0
97.778	0.0
97.792	2.0
97.807	4.0
97.822	8.0
97.837	4.0
97.852	3.0
97.867	5.0
97.882	2.0
97.897	1.0
97.912	4.0
97.927	2.0
97.942	3.0
97.957	1.0
97.972	4.0
97.987	2.0
98.001	0.0
98.016	2.0
98.031	3.0
98.046	5.0
98.061	0.0
98.076	2.0
98.091	2.0
98.106	5.0
98.121	9.0
98.136	2.0
98.151	4.0
98.166	5.0
98.181	2.0
98.195	2.0
98.21	3.0
98.225	6.0
98.24	2.0
98.255	3.0
98.27	2.0
98.285	4.0
98.3	2.0
98.315	5.0
98.33	0.0
98.345	3.0
98.359	4.0
98.374	4.0
98.389	6.0
98.404	5.0
98.419	5.0
98.434	5.0
98.449	0.0
98.464	5.0
98.479	4.0
98.494	3.0
98.508	4.0
98.523	0.0
98.538	3.0
98.553	4.0
98.568	1.0
98.583	1.0
98.598	3.0
98.613	1.0
98.628	6.0
98.642	1.0
98.657	3.0
98.672	3.0
98.687	3.0
98.702	0.0
98.717	2.0
98.732	2.0
98.747	2.0
98.762	3.0
98.776	2.0
98.791	2.0
98.806	1.0
98.821	6.0
98.836	5.0
98.851	3.0
98.866	3.0
98.881	4.0
98.896	2.0
98.91	1.0
98.925	3.0
98.94	5.0
98.955	4.0
98.97	5.0
98.985	2.0
99.0	1.0
99.015	6.0
99.029	3.0
99.044	1.0
99.059	0.0
99.074	4.0
99.089	0.0
99.104	3.0
99.119	1.0
99.133	1.0
99.148	4.0
99.163	2.0
99.178	1.0
99.193	2.0
99.208	3.0
99.223	1.0
99.238	3.0
99.252	5.0
99.267	2.0
99.282	2.0
99.297	1.0
99.312	2.0
99.327	8.0
99.342	3.0
99.356	3.0
99.371	1.0
99.386	4.0
99.401	5.0
99.416	5.0
99.431	6.0
99.446	1.0
99.461	5.0
99.475	6.0
99.49	2.0
99.505	1.0
99.52	2.0
99.535	3.0
99.55	3.0
99.565	1.0
99.579	4.0
99.594	5.0
99.609	3.0
99.624	1.0
99.639	4.0
99.654	2.0
99.669	1.0
99.683	4.0
99.698	4.0
99.713	4.0
99.728	3.0
99.743	5.0
99.758	3.0
99.772	2.0
99.787	2.0
99.802	0.0
99.817	4.0
99.832	1.0
99.847	1.0
99.862	1.0
99.876	0.0
99.891	8.0
99.906	2.0
99.921	0.0
99.936	2.0
99.951	3.0
99.966	0.0
99.98	2.0
99.995	4.0
100.01	2.0
100.025	1.0
100.04	4.0
100.055	1.0
100.069	6.0
100.084	1.0
100.099	2.0
100.114	2.0
100.129	1.0
100.144	2.0
100.159	3.0
100.173	3.0
100.188	4.0
100.203	3.0
100.218	2.0
100.233	2.0
100.248	3.0
100.262	4.0
100.277	1.0
100.292	3.0
100.307	5.0
100.322	7.0
100.337	2.0
100.351	3.0
100.366	5.0
100.381	2.0
100.396	5.0
100.411	1.0
100.426	4.0
100.441	4.0
100.455	5.0
100.47	1.0
100.485	2.0
100.5	3.0
100.515	2.0
100.53	1.0
100.544	2.0
100.559	7.0
100.574	5.0
100.589	3.0
100.604	3.0
100.619	1.0
100.633	1.0
100.648	4.0
100.663	4.0
100.678	5.0
100.693	4.0
100.708	5.0
100.722	2.0
100.737	3.0
100.752	3.0
100.767	1.0
100.782	8.0
100.796	3.0
100.811	3.0
100.826	5.0
100.841	3.0
100.856	2.0
100.871	5.0
100.885	3.0
100.9	3.0
100.915	3.0
100.93	4.0
100.945	2.0
100.96	5.0
100.974	2.0
100.989	3.0
101.004	1.0
101.019	5.0
101.034	10.0
101.048	2.0
101.063	1.0
101.078	1.0
101.093	2.0
101.108	4.0
101.123	3.0
101.137	4.0
101.152	4.0
101.167	2.0
101.182	9.0
101.197	5.0
101.211	4.0
101.226	3.0
101.241	4.0
101.256	8.0
101.271	3.0
101.285	4.0
101.3	2.0
101.315	6.0
101.33	3.0
101.345	6.0
101.359	1.0
101.374	1.0
101.389	4.0
101.404	2.0
101.419	4.0
101.433	0.0
101.448	5.0
101.463	0.0
101.478	3.0
101.493	6.0
101.507	1.0
101.522	3.0
101.537	2.0
101.552	3.0
101.567	3.0
101.581	4.0
101.596	2.0
101.611	3.0
101.626	3.0
101.64	3.0
101.655	2.0
101.67	3.0
101.685	3.0
101.7	1.0
101.714	4.0
101.729	2.0
101.744	2.0
101.759	8.0
101.773	5.0
101.788	2.0
101.803	3.0
101.818	6.0
101.833	2.0
101.847	0.0
101.862	5.0
101.877	4.0
101.892	5.0
101.906	4.0
101.921	3.0
101.936	5.0
101.951	1.0
101.965	1.0
101.98	7.0
101.995	2.0
102.01	9.0
102.025	4.0
102.039	5.0
102.054	5.0
102.069	6.0
102.084	1.0
102.098	6.0
102.113	2.0
102.128	3.0
102.143	2.0
102.157	2.0
102.172	6.0
102.187	5.0
102.202	5.0
102.216	3.0
102.231	0.0
102.246	2.0
102.261	6.0
102.275	0.0
102.29	6.0
102.305	4.0
102.32	6.0
102.334	2.0
102.349	5.0
102.364	3.0
102.378	5.0
102.393	5.0
102.408	0.0
102.423	3.0
102.437	2.0
102.452	8.0
102.467	3.0
102.482	3.0
102.496	4.0
102.511	2.0
102.526	1.0
102.541	7.0
102.555	1.0
102.57	2.0
102.585	4.0
102.6	0.0
102.614	0.0
102.629	2.0
102.644	2.0
102.659	3.0
102.673	4.0
102.688	2.0
102.703	6.0
102.717	6.0
102.732	2.0
102.747	3.0
102.762	0.0
102.776	2.0
102.791	5.0
102.806	3.0
102.821	3.0
102.835	1.0
102.85	4.0
102.865	4.0
102.88	2.0
102.894	3.0
102.909	2.0
102.924	3.0
102.938	5.0
102.953	2.0
102.968	7.0
102.983	0.0
102.997	1.0
103.012	3.0
103.027	1.0
103.042	2.0
103.056	1.0
103.071	2.0
103.086	6.0
103.101	5.0
103.115	7.0
103.13	1.0
103.145	2.0
103.16	1.0
103.174	2.0
103.189	3.0
103.204	3.0
103.219	4.0
103.233	1.0
103.248	5.0
103.263	5.0
103.278	4.0
103.292	2.0
103.307	2.0
103.322	3.0
103.337	3.0
103.351	2.0
103.366	2.0
103.381	1.0
103.396	4.0
103.41	4.0
103.425	2.0
103.44	4.0
103.455	3.0
103.469	1.0
103.484	6.0
103.499	2.0
103.514	2.0
103.529	5.0
103.543	8.0
103.558	3.0
103.573	2.0
103.588	2.0
103.602	3.0
103.617	1.0
103.632	4.0
103.647	4.0
103.661	4.0
103.676	3.0
103.691	7.0
103.706	3.0
103.721	6.0
103.735	7.0
103.75	4.0
103.765	4.0
103.78	4.0
103.795	5.0
103.809	5.0
103.824	3.0
103.839	3.0
103.854	2.0
103.869	3.0
103.883	4.0
103.898	3.0
103.913	3.0
103.928	2.0
103.943	4.0
103.957	3.0
103.972	3.0
103.987	3.0
104.002	3.0
104.017	3.0
104.031	2.0
104.046	2.0
104.061	4.0
104.076	3.0
104.091	9.0
104.106	3.0
104.12	3.0
104.135	3.0
104.15	3.0
104.165	2.0
104.18	1.0
104.195	1.0
104.209	4.0
104.224	5.0
104.239	0.0
104.254	5.0
104.269	3.0
104.284	2.0
104.299	1.0
104.313	7.0
104.328	4.0
104.343	3.0
104.358	1.0
104.373	1.0
104.388	6.0
104.403	1.0
104.417	4.0
104.432	4.0
104.447	7.0
104.462	6.0
104.477	6.0
104.492	6.0
104.507	2.0
104.522	7.0
104.536	2.0
104.551	2.0
104.566	3.0
104.581	0.0
104.596	3.0
104.611	2.0
104.626	6.0
104.641	8.0
104.656	1.0
104.67	5.0
104.685	4.0
104.7	5.0
104.715	2.0
104.73	2.0
104.745	3.0
104.76	4.0
104.775	3.0
104.79	2.0
104.804	8.0
104.819	4.0
104.834	4.0
104.849	3.0
104.864	4.0
104.879	4.0
104.894	1.0
104.909	3.0
104.924	1.0
104.939	4.0
104.954	3.0
104.968	2.0
104.983	3.0
104.998	4.0
105.013	1.0
105.028	2.0
105.043	1.0
105.058	5.0
105.073	2.0
105.088	5.0
105.103	3.0
105.118	3.0
105.133	0.0
105.147	0.0
105.162	2.0
105.177	4.0
105.192	2.0
105.207	4.0
105.222	2.0
105.237	1.0
105.252	5.0
105.267	4.0
105.282	3.0
105.297	3.0
105.312	3.0
105.327	2.0
105.342	2.0
105.356	5.0
105.371	2.0
105.386	0.0
105.401	1.0
105.416	2.0
105.431	2.0
105.446	2.0
105.461	2.0
105.476	4.0
105.491	3.0
105.506	3.0
105.521	8.0
105.536	2.0
105.551	3.0
105.566	4.0
105.581	3.0
105.595	2.0
105.61	3.0
105.625	9.0
105.64	1.0
105.655	4.0
105.67	2.0
105.685	0.0
105.7	6.0
105.715	2.0
105.73	2.0
105.745	2.0
105.76	3.0
105.775	6.0
105.79	3.0
105.805	3.0
105.82	4.0
105.835	4.0
105.85	3.0
105.864	3.0
105.879	6.0
105.894	5.0
105.909	4.0
105.924	6.0
105.939	4.0
105.954	1.0
105.969	6.0
105.984	8.0
105.999	1.0
106.014	3.0
106.029	1.0
106.044	3.0
106.059	2.0
106.074	2.0
106.089	4.0
106.104	3.0
106.119	5.0
106.134	3.0
106.148	4.0
106.163	2.0
106.178	3.0
106.193	2.0
106.208	3.0
106.223	2.0
106.238	3.0
106.253	1.0
106.268	2.0
106.283	6.0
106.298	4.0
106.313	3.0
106.328	4.0
106.343	3.0
106.358	7.0
106.373	4.0
106.388	0.0
106.403	3.0
106.418	2.0
106.432	2.0
106.447	1.0
106.462	5.0
106.477	3.0
106.492	3.0
106.507	1.0
106.522	3.0
106.537	1.0
106.552	4.0
106.567	3.0
106.582	3.0
106.597	2.0
106.612	2.0
106.627	4.0
106.642	1.0
106.657	0.0
106.672	4.0
106.687	6.0
106.701	3.0
106.716	2.0
106.731	5.0
106.746	2.0
106.761	4.0
106.776	2.0
106.791	1.0
106.806	2.0
106.821	6.0
106.836	1.0
106.851	1.0
106.866	4.0
106.881	7.0
106.896	2.0
106.911	2.0
106.926	5.0
106.941	3.0
106.955	4.0
106.97	4.0
106.985	5.0
107.0	2.0
107.015	4.0
107.03	5.0
107.045	2.0
107.06	7.0
107.075	2.0
107.09	2.0
107.105	1.0
107.12	5.0
107.135	3.0
107.15	5.0
107.165	8.0
107.18	11.0
107.194	2.0
107.209	5.0
107.224	3.0
107.239	1.0
107.254	4.0
107.269	3.0
107.284	3.0
107.299	6.0
107.314	2.0
107.329	2.0
107.344	6.0
107.359	3.0
107.374	4.0
107.389	2.0
107.404	1.0
107.418	3.0
107.433	4.0
107.448	2.0
107.463	7.0
107.478	0.0
107.493	3.0
107.508	7.0
107.523	6.0
107.538	6.0
107.553	1.0
107.568	3.0
107.583	2.0
107.598	5.0
107.613	3.0
107.627	4.0
107.642	3.0
107.657	1.0
107.672	3.0
107.687	4.0
107.702	4.0
107.717	11.0
107.732	3.0
107.747	2.0
107.762	3.0
107.777	4.0
107.792	3.0
107.807	3.0
107.821	1.0
107.836	3.0
107.851	4.0
107.866	6.0
107.881	1.0
107.896	6.0
107.911	1.0
107.926	8.0
107.941	4.0
107.956	5.0
107.971	1.0
107.986	4.0
108.0	2.0
108.015	5.0
108.03	3.0
108.045	4.0
108.06	0.0
108.075	2.0
108.09	5.0
108.105	4.0
108.12	3.0
108.135	2.0
108.15	7.0
108.164	4.0
108.179	5.0
108.194	4.0
108.209	3.0
108.224	3.0
108.239	8.0
108.254	1.0
108.269	6.0
108.284	2.0
108.299	4.0
108.313	1.0
108.328	4.0
108.343	6.0
108.358	3.0
108.373	2.0
108.388	4.0
108.403	4.0
108.418	2.0
108.433	1.0
108.448	2.0
108.462	2.0
108.477	1.0
108.492	1.0
108.507	5.0
108.522	2.0
108.537	5.0
108.552	3.0
108.567	3.0
108.582	4.0
108.597	5.0
108.611	3.0
108.626	2.0
108.641	2.0
108.656	2.0
108.671	6.0
108.686	2.0
108.701	4.0
108.716	3.0
108.731	5.0
108.745	2.0
108.76	4.0
108.775	4.0
108.79	0.0
108.805	3.0
108.82	2.0
108.835	1.0
108.85	3.0
108.865	1.0
108.879	2.0
108.894	4.0
108.909	3.0
108.924	4.0
108.939	6.0
108.954	3.0
108.969	2.0
108.984	6.0
108.999	3.0
109.013	6.0
109.028	4.0
109.043	4.0
109.058	4.0
109.073	4.0
109.088	5.0
109.103	3.0
109.118	2.0
109.133	0.0
109.147	4.0
109.162	0.0
109.177	4.0
109.192	1.0
109.207	2.0
109.222	2.0
109.237	2.0
109.252	7.0
109.267	2.0
109.281	3.0
109.296	6.0
109.311	3.0
109.326	5.0
109.341	4.0
109.356	3.0
109.371	2.0
109.386	2.0
109.4	1.0
109.415	4.0
109.43	5.0
109.445	4.0
109.46	2.0
109.475	1.0
109.49	3.0
109.505	3.0
109.52	3.0
109.534	2.0
109.549	2.0
109.564	4.0
109.579	3.0
109.594	2.0
109.609	2.0
109.624	2.0
109.639	5.0
109.653	0.0
109.668	1.0
109.683	4.0
109.698	7.0
109.713	4.0
109.728	3.0
109.743	6.0
109.758	4.0
109.773	3.0
109.787	2.0
109.802	5.0
109.817	2.0
109.832	5.0
109.847	4.0
109.862	5.0
109.877	2.0
109.892	4.0
109.907	4.0
109.921	2.0
109.936	1.0
109.951	6.0
109.966	5.0
109.981	3.0
109.996	5.0
110.011	5.0
110.026	7.0
110.04	4.0
110.055	1.0
110.07	3.0
110.085	1.0
110.1	1.0
110.115	1.0
110.13	1.0
110.145	5.0
110.16	2.0
110.174	4.0
110.189	6.0
110.204	1.0
110.219	3.0
110.234	4.0
110.249	4.0
110.264	3.0
110.279	5.0
110.294	1.0
110.308	3.0
110.323	1.0
110.338	3.0
110.353	9.0
110.368	0.0
110.383	1.0
110.398	4.0
110.413	5.0
110.428	1.0
110.442	6.0
110.457	5.0
110.472	2.0
110.487	2.0
110.502	1.0
110.517	4.0
110.532	6.0
110.547	1.0
110.561	3.0
110.576	3.0
110.591	3.0
110.606	1.0
110.621	1.0
110.636	2.0
110.651	5.0
110.666	2.0
110.681	3.0
110.695	2.0
110.71	4.0
110.725	4.0
110.74	5.0
110.755	0.0
110.77	2.0
110.785	5.0
110.8	3.0
110.815	2.0
110.829	2.0
110.844	5.0
110.859	5.0
110.874	4.0
110.889	8.0
110.904	0.0
110.919	1.0
110.934	1.0
110.948	4.0
110.963	3.0
110.978	3.0
110.993	1.0
111.008	5.0
111.023	1.0
111.038	2.0
111.053	5.0
111.067	2.0
111.082	1.0
111.097	4.0
111.112	1.0
111.127	5.0
111.142	3.0
111.157	6.0
111.172	1.0
111.186	3.0
111.201	3.0
111.216	5.0
111.231	3.0
111.246	3.0
111.261	3.0
111.276	3.0
111.291	7.0
111.305	2.0
111.32	2.0
111.335	8.0
111.35	5.0
111.365	3.0
111.38	1.0
111.395	2.0
111.41	4.0
111.424	5.0
111.439	3.0
111.454	0.0
111.469	3.0
111.484	5.0
111.499	1.0
111.514	4.0
111.528	3.0
111.543	2.0
111.558	3.0
111.573	3.0
111.588	6.0
111.603	6.0
111.618	5.0
111.633	6.0
111.647	3.0
111.662	3.0
111.677	6.0
111.692	4.0
111.707	5.0
111.722	2.0
111.737	6.0
111.751	5.0
111.766	2.0
111.781	6.0
111.796	5.0
111.811	6.0
111.826	2.0
111.84	3.0
111.855	2.0
111.87	3.0
111.885	4.0
111.9	4.0
111.915	1.0
111.93	3.0
111.944	5.0
111.959	6.0
111.974	0.0
111.989	4.0
112.004	3.0
112.019	4.0
112.033	3.0
112.048	6.0
112.063	5.0
112.078	4.0
112.093	4.0
112.108	5.0
112.123	3.0
112.137	3.0
112.152	3.0
112.167	6.0
112.182	1.0
112.197	2.0
112.212	1.0
112.226	5.0
112.241	5.0
112.256	3.0
112.271	3.0
112.286	4.0
112.301	3.0
112.315	4.0
112.33	1.0
112.345	5.0
112.36	5.0
112.375	4.0
112.389	2.0
112.404	3.0
112.419	5.0
112.434	3.0
112.449	4.0
112.464	5.0
112.478	5.0
112.493	0.0
112.508	2.0
112.523	4.0
112.538	2.0
112.553	4.0
112.567	5.0
112.582	4.0
112.597	2.0
112.612	2.0
112.627	3.0
112.642	6.0
112.656	4.0
112.671	4.0
112.686	3.0
112.701	5.0
112.716	3.0
112.73	6.0
112.745	0.0
112.76	4.0
112.775	0.0
112.79	3.0
112.805	6.0
112.819	3.0
112.834	3.0
112.849	3.0
112.864	4.0
112.879	7.0
112.894	6.0
112.908	4.0
112.923	1.0
112.938	5.0
112.953	3.0
112.968	1.0
112.983	5.0
112.997	2.0
113.012	2.0
113.027	2.0
113.042	4.0
113.057	0.0
113.072	8.0
113.086	6.0
113.101	1.0
113.116	2.0
113.131	2.0
113.146	1.0
113.161	4.0
113.175	2.0
113.19	2.0
113.205	2.0
113.22	5.0
113.235	4.0
113.25	8.0
113.265	5.0
113.279	5.0
113.294	0.0
113.309	6.0
113.324	3.0
113.339	3.0
113.354	3.0
113.368	4.0
113.383	3.0
113.398	2.0
113.413	6.0
113.428	4.0
113.443	3.0
113.458	5.0
113.472	4.0
113.487	5.0
113.502	2.0
113.517	1.0
113.532	0.0
113.547	4.0
113.562	5.0
113.576	1.0
113.591	2.0
113.606	4.0
113.621	2.0
113.636	4.0
113.651	1.0
113.666	6.0
113.681	7.0
113.695	6.0
113.71	1.0
113.725	3.0
113.74	1.0
113.755	4.0
113.77	2.0
113.785	3.0
113.8	3.0
113.814	1.0
113.829	3.0
113.844	0.0
113.859	2.0
113.874	7.0
113.889	4.0
113.904	3.0
113.919	8.0
113.934	5.0
113.949	0.0
113.963	1.0
113.978	1.0
113.993	4.0
114.008	5.0
114.023	4.0
114.038	2.0
114.053	1.0
114.068	0.0
114.083	2.0
114.098	5.0
114.113	4.0
114.127	2.0
114.142	2.0
114.157	2.0
114.172	7.0
114.187	2.0
114.202	6.0
114.217	3.0
114.232	1.0
114.247	2.0
114.262	4.0
114.277	2.0
114.292	6.0
114.307	6.0
114.322	6.0
114.337	5.0
114.351	2.0
114.366	6.0
114.381	2.0
114.396	1.0
114.411	4.0
114.426	4.0
114.441	3.0
114.456	5.0
114.471	7.0
114.486	6.0
114.501	4.0
114.516	5.0
114.531	7.0
114.546	6.0
114.561	1.0
114.576	3.0
114.591	4.0
114.606	2.0
114.621	4.0
114.636	1.0
114.65	2.0
114.665	6.0
114.68	3.0
114.695	5.0
114.71	4.0
114.725	2.0
114.74	5.0
114.755	4.0
114.77	3.0
114.785	5.0
114.8	4.0
114.815	3.0
114.83	2.0
114.845	4.0
114.86	2.0
114.875	2.0
114.89	8.0
114.905	4.0
114.92	5.0
114.935	4.0
114.95	2.0
114.965	4.0
114.98	3.0
114.995	3.0
115.009	3.0
115.024	3.0
115.039	3.0
115.054	3.0
115.069	4.0
115.084	3.0
115.099	2.0
115.114	3.0
115.129	3.0
115.144	6.0
115.159	4.0
115.174	2.0
115.189	2.0
115.204	6.0
115.219	4.0
115.234	1.0
115.249	3.0
115.264	6.0
115.279	4.0
115.294	5.0
115.309	3.0
115.323	4.0
115.338	1.0
115.353	5.0
115.368	0.0
115.383	2.0
115.398	6.0
115.413	5.0
115.428	5.0
115.443	5.0
115.458	7.0
115.473	4.0
115.488	1.0
115.503	2.0
115.518	3.0
115.533	1.0
115.548	3.0
115.562	4.0
115.577	2.0
115.592	4.0
115.607	3.0
115.622	3.0
115.637	2.0
115.652	6.0
115.667	1.0
115.682	3.0
115.697	5.0
115.712	2.0
115.727	1.0
115.741	5.0
115.756	4.0
115.771	3.0
115.786	4.0
115.801	4.0
115.816	1.0
115.831	2.0
115.846	5.0
115.861	8.0
115.875	5.0
115.89	1.0
115.905	3.0
115.92	3.0
115.935	1.0
115.95	5.0
115.965	2.0
115.98	3.0
115.995	1.0
116.009	6.0
116.024	6.0
116.039	3.0
116.054	4.0
116.069	1.0
116.084	3.0
116.099	3.0
116.113	1.0
116.128	4.0
116.143	2.0
116.158	3.0
116.173	4.0
116.188	1.0
116.202	7.0
116.217	3.0
116.232	2.0
116.247	2.0
116.262	0.0
116.277	6.0
116.291	4.0
116.306	7.0
116.321	3.0
116.336	3.0
116.351	3.0
116.366	5.0
116.38	9.0
116.395	7.0
116.41	3.0
116.425	4.0
116.44	6.0
116.454	4.0
116.469	1.0
116.484	2.0
116.499	4.0
116.514	4.0
116.528	4.0
116.543	3.0
116.558	3.0
116.573	3.0
116.588	1.0
116.602	1.0
116.617	4.0
116.632	2.0
116.647	5.0
116.662	3.0
116.676	3.0
116.691	5.0
116.706	4.0
116.721	4.0
116.735	5.0
116.75	5.0
116.765	2.0
116.78	3.0
116.795	7.0
116.809	3.0
116.824	6.0
116.839	6.0
116.854	2.0
116.868	0.0
116.883	6.0
116.898	8.0
116.913	1.0
116.927	2.0
116.942	0.0
116.957	3.0
116.972	3.0
116.986	2.0
117.001	5.0
117.016	1.0
117.031	4.0
117.045	3.0
117.06	4.0
117.075	1.0
117.09	4.0
117.104	1.0
117.119	3.0
117.134	3.0
117.149	2.0
117.163	3.0
117.178	2.0
117.193	1.0
117.208	3.0
117.222	7.0
117.237	3.0
117.252	4.0
117.267	5.0
117.281	2.0
117.296	2.0
117.311	4.0
117.325	1.0
117.34	4.0
117.355	4.0
117.37	2.0
117.384	1.0
117.399	3.0
117.414	4.0
117.429	4.0
117.443	2.0
117.458	3.0
117.473	5.0
117.487	3.0
117.502	1.0
117.517	3.0
117.532	3.0
117.546	8.0
117.561	2.0
117.576	3.0
117.59	2.0
117.605	3.0
117.62	8.0
117.635	1.0
117.649	2.0
117.664	3.0
117.679	2.0
117.693	1.0
117.708	4.0
117.723	4.0
117.738	5.0
117.752	2.0
117.767	4.0
117.782	5.0
117.796	1.0
117.811	3.0
117.826	4.0
117.841	0.0
117.855	4.0
117.87	5.0
117.885	3.0
117.899	4.0
117.914	4.0
117.929	2.0
117.944	2.0
117.958	2.0
117.973	5.0
117.988	3.0
118.002	6.0
118.017	8.0
118.032	1.0
118.047	4.0
118.062	3.0
118.077	3.0
118.092	5.0
118.107	6.0
118.121	6.0
118.136	3.0
118.151	4.0
118.166	4.0
118.181	4.0
118.196	4.0
118.211	6.0
118.225	6.0
118.24	6.0
118.255	5.0
118.27	8.0
118.285	4.0
118.3	8.0
118.315	8.0
118.33	6.0
118.344	3.0
118.359	3.0
118.374	5.0
118.389	3.0
118.404	4.0
118.419	3.0
118.434	6.0
118.449	5.0
118.463	1.0
118.478	2.0
118.493	7.0
118.508	5.0
118.523	3.0
118.538	3.0
118.553	4.0
118.567	5.0
118.582	6.0
118.597	1.0
118.612	3.0
118.627	0.0
118.642	3.0
118.657	6.0
118.672	2.0
118.686	5.0
118.701	6.0
118.716	1.0
118.731	4.0
118.746	5.0
118.761	1.0
118.776	4.0
118.791	6.0
118.805	2.0
118.82	6.0
118.835	2.0
118.85	3.0
118.865	5.0
118.88	4.0
118.895	4.0
118.909	3.0
118.924	2.0
118.939	5.0
118.954	6.0
118.969	6.0
118.984	2.0
118.999	5.0
119.014	1.0
119.028	3.0
119.043	1.0
119.058	2.0
119.073	3.0
119.088	6.0
119.103	4.0
119.118	1.0
119.133	0.0
119.147	2.0
119.162	5.0
119.177	7.0
119.192	6.0
119.207	4.0
119.222	4.0
119.237	5.0
119.251	1.0
119.266	5.0
119.281	5.0
119.296	2.0
119.311	4.0
119.326	5.0
119.341	4.0
119.356	2.0
119.37	5.0
119.385	3.0
119.4	9.0
119.415	7.0
119.43	4.0
119.445	2.0
119.46	6.0
119.475	7.0
119.489	2.0
119.504	7.0
119.519	2.0
119.534	3.0
119.549	1.0
119.564	2.0
119.579	3.0
119.593	7.0
119.608	4.0
119.623	4.0
119.638	2.0
119.653	6.0
119.668	3.0
119.683	5.0
119.698	4.0
119.712	4.0
119.727	6.0
119.742	3.0
119.757	3.0
119.772	6.0
119.787	5.0
119.802	3.0
119.817	1.0
119.831	3.0
119.846	2.0
119.861	4.0
119.876	3.0
119.891	4.0
119.906	1.0
119.921	6.0
119.935	5.0
119.95	3.0
119.965	2.0
119.98	3.0
119.995	3.0
120.01	3.0
120.025	1.0
120.04	1.0
120.054	4.0
120.069	1.0
120.084	1.0
120.099	1.0
120.114	4.0
120.129	1.0
120.144	1.0
120.159	3.0
120.173	2.0
120.188	2.0
120.203	0.0
120.218	0.0
120.233	0.0
120.248	0.0
120.263	0.0
120.277	1.0
120.292	1.0
120.307	1.0
120.322	0.0
120.337	2.0
120.352	1.0
120.367	0.0
120.382	1.0
120.396	1.0
120.411	0.0
120.426	1.0
120.441	0.0
120.456	1.0
120.471	0.0
120.486	0.0
120.501	0.0
120.515	0.0
120.53	0.0
120.545	0.0
120.56	0.0
120.575	0.0
120.59	0.0
120.605	0.0
120.619	0.0
120.634	0.0
120.649	1.0
120.664	0.0
120.679	0.0
120.694	0.0
120.709	0.0
120.724	0.0
120.738	0.0
120.753	0.0
120.768	0.0
120.783	0.0
120.798	0.0
120.813	0.0
120.828	0.0
120.843	0.0
120.857	0.0
120.872	0.0
120.887	0.0
120.902	0.0
120.917	0.0
120.932	0.0
120.947	0.0
120.961	0.0
120.976	0.0
