-1.217	0.0
-1.202	0.0
-1.187	0.0
-1.172	0.0
-1.157	0.0
-1.142	0.0
-1.128	0.0
-1.113	0.0
-1.098	0.0
-1.083	0.0
-1.068	0.0
-1.054	0.0
-1.039	0.0
-1.024	0.0
-1.009	0.0
-0.994	0.0
-0.979	0.0
-0.965	0.0
-0.95	0.0
-0.935	0.0
-0.92	0.0
-0.905	0.0
-0.891	0.0
-0.876	0.0
-0.861	0.0
-0.846	0.0
-0.831	0.0
-0.816	0.0
-0.802	0.0
-0.787	0.0
-0.772	0.0
-0.757	0.0
-0.742	1.0
-0.728	0.0
-0.713	0.0
-0.698	0.0
-0.683	0.0
-0.668	0.0
-0.653	0.0
-0.639	0.0
-0.624	0.0
-0.609	0.0
-0.594	0.0
-0.579	0.0
-0.565	0.0
-0.55	0.0
-0.535	0.0
-0.52	0.0
-0.505	0.0
-0.49	0.0
-0.476	0.0
-0.461	0.0
-0.446	0.0
-0.431	0.0
-0.416	0.0
-0.401	0.0
-0.387	0.0
-0.372	0.0
-0.357	0.0
-0.342	0.0
-0.327	0.0
-0.313	0.0
-0.298	0.0
-0.283	0.0
-0.268	0.0
-0.253	0.0
-0.238	0.0
-0.224	0.0
-0.209	0.0
-0.194	0.0
-0.179	0.0
-0.164	0.0
-0.15	0.0
-0.135	0.0
-0.12	0.0
-0.105	0.0
-0.09	0.0
-0.075	0.0
-0.061	0.0
-0.046	0.0
-0.031	0.0
-0.016	0.0
-0.001	0.0
0.013	0.0
0.028	0.0
0.043	0.0
0.058	0.0
0.073	0.0
0.088	0.0
0.102	0.0
0.117	0.0
0.132	0.0
0.147	0.0
0.162	0.0
0.176	0.0
0.191	0.0
0.206	0.0
0.221	0.0
0.236	0.0
0.251	1.0
0.265	0.0
0.28	0.0
0.295	0.0
0.31	0.0
0.325	0.0
0.339	0.0
0.354	0.0
0.369	0.0
0.384	0.0
0.399	0.0
0.414	0.0
0.428	0.0
0.443	0.0
0.458	0.0
0.473	0.0
0.488	0.0
0.502	0.0
0.517	0.0
0.532	0.0
0.547	0.0
0.562	0.0
0.577	0.0
0.591	0.0
0.606	0.0
0.621	0.0
0.636	0.0
0.651	0.0
0.665	0.0
0.68	0.0
0.695	1.0
0.71	0.0
0.725	0.0
0.74	0.0
0.754	0.0
0.769	0.0
0.784	0.0
0.799	0.0
0.814	0.0
0.828	0.0
0.843	0.0
0.858	0.0
0.873	0.0
0.888	0.0
0.903	0.0
0.917	0.0
0.932	0.0
0.947	0.0
0.962	0.0
0.977	0.0
0.991	0.0
1.006	0.0
1.021	0.0
1.036	0.0
1.051	0.0
1.065	0.0
1.08	0.0
1.095	0.0
1.11	0.0
1.125	0.0
1.14	0.0
1.154	1.0
1.169	0.0
1.184	0.0
1.199	0.0
1.214	0.0
1.228	0.0
1.243	0.0
1.258	0.0
1.273	0.0
1.288	0.0
1.302	0.0
1.317	0.0
1.332	0.0
1.347	0.0
1.362	0.0
1.376	0.0
1.391	0.0
1.406	0.0
1.421	0.0
1.436	0.0
1.45	0.0
1.465	0.0
1.48	0.0
1.495	0.0
1.51	0.0
1.524	0.0
1.539	0.0
1.554	0.0
1.569	0.0
1.584	0.0
1.598	0.0
1.613	0.0
1.628	0.0
1.643	0.0
1.658	0.0
1.672	0.0
1.687	0.0
1.702	0.0
1.717	0.0
1.732	0.0
1.746	0.0
1.761	0.0
1.776	0.0
1.791	0.0
1.806	0.0
1.82	0.0
1.835	0.0
1.85	0.0
1.865	0.0
1.88	0.0
1.894	0.0
1.909	0.0
1.924	0.0
1.939	0.0
1.954	0.0
1.968	0.0
1.983	0.0
1.998	0.0
2.013	0.0
2.028	0.0
2.042	0.0
2.057	0.0
2.072	0.0
2.087	0.0
2.101	1.0
2.116	0.0
2.131	0.0
2.146	0.0
2.161	0.0
2.175	0.0
2.19	1.0
2.205	0.0
2.22	1.0
2.235	0.0
2.249	0.0
2.264	1.0
2.279	1.0
2.294	0.0
2.308	1.0
2.323	1.0
2.338	0.0
2.353	0.0
2.368	0.0
2.382	0.0
2.397	1.0
2.412	2.0
2.427	5.0
2.442	1.0
2.456	0.0
2.471	2.0
2.486	2.0
2.501	4.0
2.515	1.0
2.53	1.0
2.545	1.0
2.56	2.0
2.575	4.0
2.589	6.0
2.604	2.0
2.619	1.0
2.634	1.0
2.649	6.0
2.663	4.0
2.678	6.0
2.693	1.0
2.708	1.0
2.722	1.0
2.737	2.0
2.752	1.0
2.767	1.0
2.782	3.0
2.796	3.0
2.811	4.0
2.826	2.0
2.841	3.0
2.856	3.0
2.87	3.0
2.885	7.0
2.9	2.0
2.915	3.0
2.93	3.0
2.944	4.0
2.959	4.0
2.974	1.0
2.989	3.0
3.004	0.0
3.018	0.0
3.033	6.0
3.048	4.0
3.063	3.0
3.078	3.0
3.092	5.0
3.107	2.0
3.122	5.0
3.137	3.0
3.152	5.0
3.166	5.0
3.181	7.0
3.196	5.0
3.211	2.0
3.226	5.0
3.24	2.0
3.255	4.0
3.27	7.0
3.285	5.0
3.3	3.0
3.315	6.0
3.329	4.0
3.344	7.0
3.359	4.0
3.374	4.0
3.389	4.0
3.403	0.0
3.418	3.0
3.433	2.0
3.448	4.0
3.463	7.0
3.478	5.0
3.492	4.0
3.507	7.0
3.522	1.0
3.537	3.0
3.552	7.0
3.567	7.0
3.581	7.0
3.596	7.0
3.611	3.0
3.626	4.0
3.641	7.0
3.656	5.0
3.671	7.0
3.685	0.0
3.7	4.0
3.715	6.0
3.73	8.0
3.745	9.0
3.76	8.0
3.775	8.0
3.789	3.0
3.804	7.0
3.819	9.0
3.834	5.0
3.849	7.0
3.864	7.0
3.879	8.0
3.894	1.0
3.908	6.0
3.923	9.0
3.938	2.0
3.953	2.0
3.968	10.0
3.983	6.0
3.998	5.0
4.013	4.0
4.027	5.0
4.042	4.0
4.057	6.0
4.072	1.0
4.087	5.0
4.102	4.0
4.117	9.0
4.132	7.0
4.147	4.0
4.162	3.0
4.176	6.0
4.191	6.0
4.206	4.0
4.221	14.0
4.236	6.0
4.251	8.0
4.266	5.0
4.281	2.0
4.296	8.0
4.311	11.0
4.326	3.0
4.341	12.0
4.356	4.0
4.37	2.0
4.385	4.0
4.4	6.0
4.415	8.0
4.43	5.0
4.445	11.0
4.46	8.0
4.475	5.0
4.49	6.0
4.505	9.0
4.52	6.0
4.535	6.0
4.55	5.0
4.565	11.0
4.58	3.0
4.595	7.0
4.61	12.0
4.625	6.0
4.639	6.0
4.654	7.0
4.669	9.0
4.684	9.0
4.699	2.0
4.714	6.0
4.729	11.0
4.744	8.0
4.759	10.0
4.774	6.0
4.789	9.0
4.804	14.0
4.819	11.0
4.834	10.0
4.849	4.0
4.864	7.0
4.879	10.0
4.894	9.0
4.909	2.0
4.924	4.0
4.939	14.0
4.954	5.0
4.969	5.0
4.984	7.0
4.999	4.0
5.014	8.0
5.029	6.0
5.044	8.0
5.059	6.0
5.074	10.0
5.089	9.0
5.104	5.0
5.119	5.0
5.134	11.0
5.149	8.0
5.164	7.0
5.179	8.0
5.194	10.0
5.209	5.0
5.224	7.0
5.239	4.0
5.254	11.0
5.269	4.0
5.284	4.0
5.299	11.0
5.314	7.0
5.329	12.0
5.344	10.0
5.359	6.0
5.374	6.0
5.389	12.0
5.404	7.0
5.419	11.0
5.434	9.0
5.449	6.0
5.464	10.0
5.479	5.0
5.494	5.0
5.509	9.0
5.524	7.0
5.539	10.0
5.554	8.0
5.569	3.0
5.584	7.0
5.599	10.0
5.614	11.0
5.629	7.0
5.644	11.0
5.659	10.0
5.674	5.0
5.689	7.0
5.704	14.0
5.719	10.0
5.734	10.0
5.749	12.0
5.764	6.0
5.779	12.0
5.794	12.0
5.809	9.0
5.824	8.0
5.839	3.0
5.854	13.0
5.869	5.0
5.884	4.0
5.899	13.0
5.914	6.0
5.929	8.0
5.944	10.0
5.959	8.0
5.974	13.0
5.989	10.0
6.004	14.0
6.019	7.0
6.034	7.0
6.049	11.0
6.064	7.0
6.079	15.0
6.094	8.0
6.109	7.0
6.124	7.0
6.139	13.0
6.154	6.0
6.169	9.0
6.184	10.0
6.199	4.0
6.214	10.0
6.229	12.0
6.244	7.0
6.259	11.0
6.274	9.0
6.289	10.0
6.304	11.0
6.319	7.0
6.334	10.0
6.349	8.0
6.364	5.0
6.379	10.0
6.394	9.0
6.409	8.0
6.424	13.0
6.439	4.0
6.454	11.0
6.469	7.0
6.484	11.0
6.499	8.0
6.514	8.0
6.529	7.0
6.544	9.0
6.559	9.0
6.574	11.0
6.589	8.0
6.604	9.0
6.619	3.0
6.634	7.0
6.649	7.0
6.664	7.0
6.679	14.0
6.694	8.0
6.709	8.0
6.724	14.0
6.739	12.0
6.754	11.0
6.769	8.0
6.784	5.0
6.799	10.0
6.814	6.0
6.829	5.0
6.844	13.0
6.859	4.0
6.873	9.0
6.888	8.0
6.903	7.0
6.918	11.0
6.933	9.0
6.948	5.0
6.963	12.0
6.978	14.0
6.993	9.0
7.008	12.0
7.023	9.0
7.038	8.0
7.053	7.0
7.068	9.0
7.083	5.0
7.098	7.0
7.113	16.0
7.128	6.0
7.143	6.0
7.157	6.0
7.172	10.0
7.187	8.0
7.202	9.0
7.217	7.0
7.232	8.0
7.247	7.0
7.262	12.0
7.277	10.0
7.292	8.0
7.307	9.0
7.322	6.0
7.336	9.0
7.351	12.0
7.366	9.0
7.381	13.0
7.396	8.0
7.411	7.0
7.426	5.0
7.441	12.0
7.456	7.0
7.471	11.0
7.485	4.0
7.5	8.0
7.515	9.0
7.53	9.0
7.545	6.0
7.56	6.0
7.575	3.0
7.59	4.0
7.604	7.0
7.619	14.0
7.634	7.0
7.649	4.0
7.664	10.0
7.679	8.0
7.693	12.0
7.708	11.0
7.723	13.0
7.738	10.0
7.753	9.0
7.768	3.0
7.783	13.0
7.797	12.0
7.812	8.0
7.827	11.0
7.842	11.0
7.857	7.0
7.871	10.0
7.886	7.0
7.901	10.0
7.916	12.0
7.931	7.0
7.945	5.0
7.96	10.0
7.975	7.0
7.99	7.0
8.005	8.0
8.019	13.0
8.034	4.0
8.049	4.0
8.064	3.0
8.078	7.0
8.093	7.0
8.108	4.0
8.123	10.0
8.137	8.0
8.152	5.0
8.167	8.0
8.182	10.0
8.196	7.0
8.211	9.0
8.226	10.0
8.241	11.0
8.255	11.0
8.27	10.0
8.285	8.0
8.3	8.0
8.314	7.0
8.329	5.0
8.344	8.0
8.358	7.0
8.373	8.0
8.388	13.0
8.403	12.0
8.417	11.0
8.432	10.0
8.447	6.0
8.461	11.0
8.476	6.0
8.491	13.0
8.505	9.0
8.52	13.0
8.535	4.0
8.55	6.0
8.564	7.0
8.579	14.0
8.594	9.0
8.608	5.0
8.623	6.0
8.638	10.0
8.652	6.0
8.667	11.0
8.682	8.0
8.696	9.0
8.711	10.0
8.726	9.0
8.74	3.0
8.755	5.0
8.77	10.0
8.784	10.0
8.799	9.0
8.814	9.0
8.828	8.0
8.843	10.0
8.858	11.0
8.872	8.0
8.887	6.0
8.902	7.0
8.916	8.0
8.931	5.0
8.946	9.0
8.96	5.0
8.975	7.0
8.99	9.0
9.004	7.0
9.019	13.0
9.034	5.0
9.048	11.0
9.063	14.0
9.077	8.0
9.092	10.0
9.107	9.0
9.121	10.0
9.136	3.0
9.151	4.0
9.165	9.0
9.18	12.0
9.195	10.0
9.209	7.0
9.224	8.0
9.239	10.0
9.253	11.0
9.268	8.0
9.283	12.0
9.297	8.0
9.312	3.0
9.327	9.0
9.341	9.0
9.356	6.0
9.371	5.0
9.385	13.0
9.4	6.0
9.415	10.0
9.429	6.0
9.444	10.0
9.458	11.0
9.473	9.0
9.488	9.0
9.502	10.0
9.517	4.0
9.532	9.0
9.546	14.0
9.561	12.0
9.576	3.0
9.59	5.0
9.605	9.0
9.62	5.0
9.635	8.0
9.649	6.0
9.664	10.0
9.679	7.0
9.693	3.0
9.708	8.0
9.723	11.0
9.737	7.0
9.752	9.0
9.767	6.0
9.781	9.0
9.796	8.0
9.811	9.0
9.825	7.0
9.84	4.0
9.855	10.0
9.87	8.0
9.884	9.0
9.899	6.0
9.914	9.0
9.928	11.0
9.943	4.0
9.958	6.0
9.973	3.0
9.987	5.0
10.002	13.0
10.017	6.0
10.031	8.0
10.046	12.0
10.061	6.0
10.076	9.0
10.09	10.0
10.105	8.0
10.12	1.0
10.135	6.0
10.149	6.0
10.164	12.0
10.179	5.0
10.194	9.0
10.208	10.0
10.223	4.0
10.238	14.0
10.253	1.0
10.267	9.0
10.282	5.0
10.297	4.0
10.312	13.0
10.326	6.0
10.341	4.0
10.356	7.0
10.371	8.0
10.386	8.0
10.4	6.0
10.415	12.0
10.43	8.0
10.445	7.0
10.46	9.0
10.474	9.0
10.489	10.0
10.504	10.0
10.519	12.0
10.533	12.0
10.548	15.0
10.563	9.0
10.578	8.0
10.593	11.0
10.608	5.0
10.622	7.0
10.637	6.0
10.652	6.0
10.667	9.0
10.682	5.0
10.696	5.0
10.711	6.0
10.726	9.0
10.741	6.0
10.756	13.0
10.771	7.0
10.785	8.0
10.8	5.0
10.815	9.0
10.83	16.0
10.845	3.0
10.86	6.0
10.874	10.0
10.889	5.0
10.904	6.0
10.919	8.0
10.934	3.0
10.949	6.0
10.963	7.0
10.978	11.0
10.993	7.0
11.008	13.0
11.023	7.0
11.038	12.0
11.053	12.0
11.067	6.0
11.082	3.0
11.097	6.0
11.112	7.0
11.127	7.0
11.142	14.0
11.157	5.0
11.172	12.0
11.186	5.0
11.201	6.0
11.216	7.0
11.231	4.0
11.246	5.0
11.261	13.0
11.276	9.0
11.291	7.0
11.305	7.0
11.32	9.0
11.335	6.0
11.35	9.0
11.365	16.0
11.38	7.0
11.395	8.0
11.41	7.0
11.424	11.0
11.439	5.0
11.454	9.0
11.469	6.0
11.484	6.0
11.499	6.0
11.514	8.0
11.529	8.0
11.544	6.0
11.558	10.0
11.573	8.0
11.588	6.0
11.603	6.0
11.618	11.0
11.633	7.0
11.648	7.0
11.663	11.0
11.678	7.0
11.693	7.0
11.707	4.0
11.722	7.0
11.737	4.0
11.752	6.0
11.767	5.0
11.782	8.0
11.797	13.0
11.812	14.0
11.827	4.0
11.842	10.0
11.856	11.0
11.871	15.0
11.886	5.0
11.901	9.0
11.916	7.0
11.931	10.0
11.946	12.0
11.961	11.0
11.976	10.0
11.991	13.0
12.006	10.0
12.02	2.0
12.035	12.0
12.05	12.0
12.065	5.0
12.08	17.0
12.095	13.0
12.11	9.0
12.125	10.0
12.14	10.0
12.155	12.0
12.17	9.0
12.184	10.0
12.199	17.0
12.214	11.0
12.229	8.0
12.244	12.0
12.259	11.0
12.274	12.0
12.289	7.0
12.304	10.0
12.319	11.0
12.334	8.0
12.348	12.0
12.363	15.0
12.378	10.0
12.393	7.0
12.408	9.0
12.423	3.0
12.438	7.0
12.453	9.0
12.468	14.0
12.483	11.0
12.498	11.0
12.513	9.0
12.527	11.0
12.542	14.0
12.557	8.0
12.572	7.0
12.587	15.0
12.602	10.0
12.617	14.0
12.632	11.0
12.647	13.0
12.662	9.0
12.677	15.0
12.692	11.0
12.707	11.0
12.721	18.0
12.736	13.0
12.751	11.0
12.766	16.0
12.781	11.0
12.796	16.0
12.811	6.0
12.826	11.0
12.841	16.0
12.856	16.0
12.871	25.0
12.886	11.0
12.9	13.0
12.915	14.0
12.93	10.0
12.945	12.0
12.96	17.0
12.975	14.0
12.99	14.0
13.005	13.0
13.02	16.0
13.035	13.0
13.05	13.0
13.065	24.0
13.08	16.0
13.094	11.0
13.109	20.0
13.124	13.0
13.139	22.0
13.154	20.0
13.169	18.0
13.184	18.0
13.199	14.0
13.214	13.0
13.229	23.0
13.244	13.0
13.259	12.0
13.274	22.0
13.288	24.0
13.303	23.0
13.318	20.0
13.333	17.0
13.348	18.0
13.363	25.0
13.378	18.0
13.393	21.0
13.408	20.0
13.423	22.0
13.438	29.0
13.453	25.0
13.468	26.0
13.482	27.0
13.497	39.0
13.512	44.0
13.527	27.0
13.542	55.0
13.557	54.0
13.572	40.0
13.587	57.0
13.602	67.0
13.617	54.0
13.632	72.0
13.647	72.0
13.662	68.0
13.677	65.0
13.691	84.0
13.706	86.0
13.721	96.0
13.736	113.0
13.751	108.0
13.766	121.0
13.781	123.0
13.796	116.0
13.811	129.0
13.826	123.0
13.841	105.0
13.856	107.0
13.871	114.0
13.885	85.0
13.9	110.0
13.915	77.0
13.93	52.0
13.945	55.0
13.96	51.0
13.975	32.0
13.99	36.0
14.005	32.0
14.02	24.0
14.035	19.0
14.05	30.0
14.065	25.0
14.08	16.0
14.094	26.0
14.109	24.0
14.124	21.0
14.139	24.0
14.154	24.0
14.169	23.0
14.184	25.0
14.199	17.0
14.214	12.0
14.229	17.0
14.244	18.0
14.259	20.0
14.274	28.0
14.288	15.0
14.303	26.0
14.318	26.0
14.333	19.0
14.348	17.0
14.363	16.0
14.378	14.0
14.393	20.0
14.408	24.0
14.423	14.0
14.438	9.0
14.453	19.0
14.468	15.0
14.482	11.0
14.497	15.0
14.512	24.0
14.527	18.0
14.542	20.0
14.557	17.0
14.572	17.0
14.587	10.0
14.602	19.0
14.617	11.0
14.632	14.0
14.647	19.0
14.661	11.0
14.676	10.0
14.691	11.0
14.706	26.0
14.721	20.0
14.736	16.0
14.751	13.0
14.766	15.0
14.781	14.0
14.796	14.0
14.811	19.0
14.826	17.0
14.84	17.0
14.855	10.0
14.87	13.0
14.885	13.0
14.9	17.0
14.915	14.0
14.93	12.0
14.945	13.0
14.96	15.0
14.975	14.0
14.989	17.0
15.004	11.0
15.019	15.0
15.034	19.0
15.049	14.0
15.064	10.0
15.079	19.0
15.094	9.0
15.109	17.0
15.124	12.0
15.138	10.0
15.153	18.0
15.168	13.0
15.183	17.0
15.198	16.0
15.213	23.0
15.228	11.0
15.243	11.0
15.258	12.0
15.272	20.0
15.287	14.0
15.302	10.0
15.317	17.0
15.332	13.0
15.347	8.0
15.362	23.0
15.377	20.0
15.391	9.0
15.406	8.0
15.421	16.0
15.436	15.0
15.451	12.0
15.466	16.0
15.481	17.0
15.496	10.0
15.51	17.0
15.525	14.0
15.54	21.0
15.555	20.0
15.57	21.0
15.585	21.0
15.6	13.0
15.614	20.0
15.629	8.0
15.644	14.0
15.659	6.0
15.674	12.0
15.689	8.0
15.704	11.0
15.718	17.0
15.733	14.0
15.748	14.0
15.763	13.0
15.778	13.0
15.793	18.0
15.808	13.0
15.822	17.0
15.837	10.0
15.852	12.0
15.867	15.0
15.882	13.0
15.897	9.0
15.911	12.0
15.926	12.0
15.941	13.0
15.956	16.0
15.971	10.0
15.986	17.0
16.0	14.0
16.015	12.0
16.03	13.0
16.045	14.0
16.06	11.0
16.074	14.0
16.089	13.0
16.104	9.0
16.119	20.0
16.134	19.0
16.149	11.0
16.163	21.0
16.178	12.0
16.193	17.0
16.208	11.0
16.223	16.0
16.237	12.0
16.252	12.0
16.267	14.0
16.282	10.0
16.297	6.0
16.311	8.0
16.326	11.0
16.341	14.0
16.356	17.0
16.37	16.0
16.385	14.0
16.4	17.0
16.415	13.0
16.43	16.0
16.444	19.0
16.459	8.0
16.474	9.0
16.489	14.0
16.504	13.0
16.518	12.0
16.533	24.0
16.548	12.0
16.563	25.0
16.577	11.0
16.592	14.0
16.607	13.0
16.622	15.0
16.637	20.0
16.651	12.0
16.666	18.0
16.681	19.0
16.696	27.0
16.71	19.0
16.725	19.0
16.74	18.0
16.755	39.0
16.77	36.0
16.784	37.0
16.799	39.0
16.814	55.0
16.829	42.0
16.843	45.0
16.858	64.0
16.873	64.0
16.888	62.0
16.902	66.0
16.917	72.0
16.932	62.0
16.947	75.0
16.961	74.0
16.976	67.0
16.991	71.0
17.006	65.0
17.021	49.0
17.035	49.0
17.05	60.0
17.065	34.0
17.08	44.0
17.094	36.0
17.109	25.0
17.124	18.0
17.139	24.0
17.153	23.0
17.168	22.0
17.183	16.0
17.198	20.0
17.212	13.0
17.227	9.0
17.242	16.0
17.257	13.0
17.271	16.0
17.286	15.0
17.301	19.0
17.316	11.0
17.33	18.0
17.345	10.0
17.36	13.0
17.375	16.0
17.39	14.0
17.404	11.0
17.419	16.0
17.434	14.0
17.449	18.0
17.463	12.0
17.478	14.0
17.493	20.0
17.508	10.0
17.522	10.0
17.537	12.0
17.552	12.0
17.567	13.0
17.581	7.0
17.596	12.0
17.611	14.0
17.626	18.0
17.641	8.0
17.655	14.0
17.67	15.0
17.685	9.0
17.7	11.0
17.714	14.0
17.729	11.0
17.744	18.0
17.759	10.0
17.773	14.0
17.788	12.0
17.803	17.0
17.818	15.0
17.833	9.0
17.847	10.0
17.862	16.0
17.877	13.0
17.892	13.0
17.906	10.0
17.921	13.0
17.936	10.0
17.951	14.0
17.966	15.0
17.98	8.0
17.995	14.0
18.01	14.0
18.025	10.0
18.04	11.0
18.054	19.0
18.069	12.0
18.084	9.0
18.099	8.0
18.114	8.0
18.128	8.0
18.143	8.0
18.158	7.0
18.173	13.0
18.188	10.0
18.202	6.0
18.217	8.0
18.232	11.0
18.247	12.0
18.262	15.0
18.276	11.0
18.291	15.0
18.306	10.0
18.321	9.0
18.336	10.0
18.35	9.0
18.365	12.0
18.38	13.0
18.395	13.0
18.41	11.0
18.424	18.0
18.439	4.0
18.454	17.0
18.469	8.0
18.484	12.0
18.498	13.0
18.513	11.0
18.528	10.0
18.543	12.0
18.558	9.0
18.573	11.0
18.587	14.0
18.602	12.0
18.617	9.0
18.632	12.0
18.647	20.0
18.661	17.0
18.676	14.0
18.691	10.0
18.706	15.0
18.721	12.0
18.736	9.0
18.75	10.0
18.765	7.0
18.78	15.0
18.795	8.0
18.81	6.0
18.825	15.0
18.839	8.0
18.854	11.0
18.869	15.0
18.884	12.0
18.899	11.0
18.913	9.0
18.928	16.0
18.943	10.0
18.958	11.0
18.973	8.0
18.988	10.0
19.002	13.0
19.017	13.0
19.032	17.0
19.047	17.0
19.062	9.0
19.077	12.0
19.091	11.0
19.106	12.0
19.121	15.0
19.136	12.0
19.151	11.0
19.165	10.0
19.18	15.0
19.195	15.0
19.21	8.0
19.225	11.0
19.24	9.0
19.254	14.0
19.269	12.0
19.284	13.0
19.299	12.0
19.314	12.0
19.329	10.0
19.343	18.0
19.358	17.0
19.373	15.0
19.388	12.0
19.403	26.0
19.417	22.0
19.432	17.0
19.447	23.0
19.462	21.0
19.477	27.0
19.492	33.0
19.506	35.0
19.521	23.0
19.536	32.0
19.551	47.0
19.566	37.0
19.58	46.0
19.595	37.0
19.61	38.0
19.625	36.0
19.64	42.0
19.655	43.0
19.669	42.0
19.684	46.0
19.699	47.0
19.714	28.0
19.729	20.0
19.743	21.0
19.758	28.0
19.773	17.0
19.788	17.0
19.803	11.0
19.817	25.0
19.832	18.0
19.847	20.0
19.862	12.0
19.877	7.0
19.891	17.0
19.906	12.0
19.921	15.0
19.936	13.0
19.951	13.0
19.965	7.0
19.98	13.0
19.995	9.0
20.01	17.0
20.025	11.0
20.039	11.0
20.054	16.0
20.069	11.0
20.084	10.0
20.099	10.0
20.113	16.0
20.128	9.0
20.143	10.0
20.158	7.0
20.173	8.0
20.187	18.0
20.202	15.0
20.217	7.0
20.232	12.0
20.246	12.0
20.261	13.0
20.276	6.0
20.291	13.0
20.306	12.0
20.32	10.0
20.335	10.0
20.35	10.0
20.365	16.0
20.38	19.0
20.394	8.0
20.409	11.0
20.424	9.0
20.439	11.0
20.453	6.0
20.468	13.0
20.483	19.0
20.498	13.0
20.513	11.0
20.527	14.0
20.542	11.0
20.557	10.0
20.572	7.0
20.586	13.0
20.601	11.0
20.616	13.0
20.631	11.0
20.646	12.0
20.66	4.0
20.675	9.0
20.69	8.0
20.705	12.0
20.719	13.0
20.734	5.0
20.749	19.0
20.764	12.0
20.779	5.0
20.793	17.0
20.808	10.0
20.823	11.0
20.838	16.0
20.853	6.0
20.867	12.0
20.882	13.0
20.897	19.0
20.912	7.0
20.926	11.0
20.941	10.0
20.956	11.0
20.971	16.0
20.986	14.0
21.0	10.0
21.015	11.0
21.03	17.0
21.045	12.0
21.06	13.0
21.074	10.0
21.089	9.0
21.104	7.0
21.119	11.0
21.134	10.0
21.148	11.0
21.163	7.0
21.178	9.0
21.193	8.0
21.208	13.0
21.222	10.0
21.237	14.0
21.252	9.0
21.267	6.0
21.282	6.0
21.296	18.0
21.311	12.0
21.326	7.0
21.341	11.0
21.356	17.0
21.37	13.0
21.385	12.0
21.4	14.0
21.415	13.0
21.43	9.0
21.444	8.0
21.459	13.0
21.474	19.0
21.489	7.0
21.504	9.0
21.519	18.0
21.533	10.0
21.548	17.0
21.563	15.0
21.578	12.0
21.593	14.0
21.608	8.0
21.622	14.0
21.637	16.0
21.652	14.0
21.667	20.0
21.682	16.0
21.697	25.0
21.712	20.0
21.726	23.0
21.741	29.0
21.756	37.0
21.771	16.0
21.786	37.0
21.801	40.0
21.816	35.0
21.83	49.0
21.845	49.0
21.86	51.0
21.875	57.0
21.89	59.0
21.905	68.0
21.92	82.0
21.935	92.0
21.949	71.0
21.964	58.0
21.979	81.0
21.994	86.0
22.009	63.0
22.024	78.0
22.039	52.0
22.054	54.0
22.069	49.0
22.083	48.0
22.098	35.0
22.113	40.0
22.128	36.0
22.143	26.0
22.158	25.0
22.173	24.0
22.188	20.0
22.203	12.0
22.218	14.0
22.233	15.0
22.248	12.0
22.262	14.0
22.277	7.0
22.292	21.0
22.307	10.0
22.322	11.0
22.337	14.0
22.352	12.0
22.367	15.0
22.382	10.0
22.397	13.0
22.412	5.0
22.427	13.0
22.442	20.0
22.457	9.0
22.472	18.0
22.487	17.0
22.502	10.0
22.516	13.0
22.531	13.0
22.546	18.0
22.561	14.0
22.576	10.0
22.591	9.0
22.606	10.0
22.621	8.0
22.636	7.0
22.651	9.0
22.666	18.0
22.681	10.0
22.696	6.0
22.711	7.0
22.726	14.0
22.741	5.0
22.756	13.0
22.771	13.0
22.786	10.0
22.801	12.0
22.816	10.0
22.831	17.0
22.846	6.0
22.861	11.0
22.876	15.0
22.891	6.0
22.906	6.0
22.92	7.0
22.935	12.0
22.95	16.0
22.965	13.0
22.98	13.0
22.995	15.0
23.01	13.0
23.025	7.0
23.04	7.0
23.055	8.0
23.07	12.0
23.085	16.0
23.1	8.0
23.115	7.0
23.13	6.0
23.145	6.0
23.16	9.0
23.175	5.0
23.19	8.0
23.205	14.0
23.22	9.0
23.235	11.0
23.25	9.0
23.265	10.0
23.28	7.0
23.295	13.0
23.31	6.0
23.325	11.0
23.34	4.0
23.355	7.0
23.37	8.0
23.384	14.0
23.399	9.0
23.414	4.0
23.429	6.0
23.444	10.0
23.459	10.0
23.474	10.0
23.489	14.0
23.504	19.0
23.519	8.0
23.534	7.0
23.549	5.0
23.564	9.0
23.579	10.0
23.594	15.0
23.609	9.0
23.624	9.0
23.639	6.0
23.654	12.0
23.668	12.0
23.683	12.0
23.698	12.0
23.713	12.0
23.728	8.0
23.743	7.0
23.758	6.0
23.773	11.0
23.788	8.0
23.803	12.0
23.818	12.0
23.833	13.0
23.848	10.0
23.862	23.0
23.877	20.0
23.892	19.0
23.907	24.0
23.922	16.0
23.937	34.0
23.952	32.0
23.967	25.0
23.982	37.0
23.997	53.0
24.011	36.0
24.026	45.0
24.041	52.0
24.056	46.0
24.071	46.0
24.086	35.0
24.101	45.0
24.116	50.0
24.131	65.0
24.145	39.0
24.16	49.0
24.175	27.0
24.19	43.0
24.205	33.0
24.22	19.0
24.235	34.0
24.249	24.0
24.264	26.0
24.279	27.0
24.294	15.0
24.309	22.0
24.324	14.0
24.338	16.0
24.353	18.0
24.368	13.0
24.383	14.0
24.398	12.0
24.413	7.0
24.428	15.0
24.442	13.0
24.457	12.0
24.472	14.0
24.487	11.0
24.502	9.0
24.516	15.0
24.531	15.0
24.546	14.0
24.561	13.0
24.576	12.0
24.591	6.0
24.605	7.0
24.62	11.0
24.635	10.0
24.65	14.0
24.665	12.0
24.679	11.0
24.694	11.0
24.709	11.0
24.724	11.0
24.739	8.0
24.753	11.0
24.768	7.0
24.783	12.0
24.798	9.0
24.813	12.0
24.827	16.0
24.842	14.0
24.857	17.0
24.872	6.0
24.886	7.0
24.901	12.0
24.916	8.0
24.931	14.0
24.946	11.0
24.96	11.0
24.975	10.0
24.99	7.0
25.005	5.0
25.019	11.0
25.034	12.0
25.049	13.0
25.064	12.0
25.078	14.0
25.093	7.0
25.108	6.0
25.123	11.0
25.138	9.0
25.152	11.0
25.167	8.0
25.182	12.0
25.197	13.0
25.211	14.0
25.226	9.0
25.241	9.0
25.256	6.0
25.27	4.0
25.285	12.0
25.3	10.0
25.315	10.0
25.329	6.0
25.344	12.0
25.359	11.0
25.374	8.0
25.388	8.0
25.403	11.0
25.418	11.0
25.433	9.0
25.447	6.0
25.462	15.0
25.477	13.0
25.492	7.0
25.506	12.0
25.521	7.0
25.536	11.0
25.55	10.0
25.565	8.0
25.58	5.0
25.595	7.0
25.609	9.0
25.624	8.0
25.639	14.0
25.654	7.0
25.668	10.0
25.683	13.0
25.698	6.0
25.713	10.0
25.727	8.0
25.742	7.0
25.757	15.0
25.772	11.0
25.786	8.0
25.801	8.0
25.816	9.0
25.83	11.0
25.845	4.0
25.86	7.0
25.875	16.0
25.889	7.0
25.904	11.0
25.919	13.0
25.934	4.0
25.948	15.0
25.963	10.0
25.978	5.0
25.992	15.0
26.007	8.0
26.022	8.0
26.037	4.0
26.051	6.0
26.066	10.0
26.081	10.0
26.096	12.0
26.11	9.0
26.125	9.0
26.14	4.0
26.155	9.0
26.169	10.0
26.184	13.0
26.199	7.0
26.213	12.0
26.228	10.0
26.243	9.0
26.258	10.0
26.272	14.0
26.287	7.0
26.302	6.0
26.317	9.0
26.331	8.0
26.346	12.0
26.361	9.0
26.376	9.0
26.39	10.0
26.405	12.0
26.42	8.0
26.434	13.0
26.449	17.0
26.464	11.0
26.479	13.0
26.493	14.0
26.508	8.0
26.523	19.0
26.538	10.0
26.552	8.0
26.567	7.0
26.582	7.0
26.597	12.0
26.611	6.0
26.626	9.0
26.641	8.0
26.656	11.0
26.67	8.0
26.685	11.0
26.7	8.0
26.715	12.0
26.729	13.0
26.744	11.0
26.759	7.0
26.773	10.0
26.788	16.0
26.803	10.0
26.818	10.0
26.832	9.0
26.847	10.0
26.862	10.0
26.877	10.0
26.891	7.0
26.906	6.0
26.921	8.0
26.936	11.0
26.95	5.0
26.965	11.0
26.98	11.0
26.995	8.0
27.01	9.0
27.024	13.0
27.039	5.0
27.054	9.0
27.069	12.0
27.083	9.0
27.098	11.0
27.113	11.0
27.128	3.0
27.142	13.0
27.157	5.0
27.172	4.0
27.187	12.0
27.201	11.0
27.216	5.0
27.231	8.0
27.246	6.0
27.261	11.0
27.275	10.0
27.29	11.0
27.305	4.0
27.32	14.0
27.334	11.0
27.349	8.0
27.364	7.0
27.379	7.0
27.394	16.0
27.408	8.0
27.423	9.0
27.438	5.0
27.453	5.0
27.467	15.0
27.482	12.0
27.497	3.0
27.512	6.0
27.527	2.0
27.541	10.0
27.556	10.0
27.571	6.0
27.586	13.0
27.601	10.0
27.615	14.0
27.63	11.0
27.645	13.0
27.66	11.0
27.675	9.0
27.689	12.0
27.704	12.0
27.719	17.0
27.734	21.0
27.749	14.0
27.763	24.0
27.778	16.0
27.793	20.0
27.808	27.0
27.823	30.0
27.838	20.0
27.852	12.0
27.867	23.0
27.882	33.0
27.897	25.0
27.912	17.0
27.926	25.0
27.941	27.0
27.956	19.0
27.971	17.0
27.986	17.0
28.001	22.0
28.015	21.0
28.03	20.0
28.045	18.0
28.06	24.0
28.075	10.0
28.09	14.0
28.105	16.0
28.119	15.0
28.134	10.0
28.149	16.0
28.164	7.0
28.179	12.0
28.194	8.0
28.208	8.0
28.223	16.0
28.238	11.0
28.253	8.0
28.268	8.0
28.283	14.0
28.298	11.0
28.312	12.0
28.327	11.0
28.342	9.0
28.357	11.0
28.372	10.0
28.387	11.0
28.402	14.0
28.417	10.0
28.431	6.0
28.446	9.0
28.461	15.0
28.476	16.0
28.491	12.0
28.506	11.0
28.521	14.0
28.536	4.0
28.55	12.0
28.565	9.0
28.58	15.0
28.595	14.0
28.61	7.0
28.625	13.0
28.64	9.0
28.655	12.0
28.669	10.0
28.684	11.0
28.699	8.0
28.714	9.0
28.729	8.0
28.744	8.0
28.759	8.0
28.774	7.0
28.788	7.0
28.803	8.0
28.818	6.0
28.833	4.0
28.848	8.0
28.863	12.0
28.878	14.0
28.893	8.0
28.908	14.0
28.922	16.0
28.937	11.0
28.952	14.0
28.967	9.0
28.982	9.0
28.997	10.0
29.012	9.0
29.027	11.0
29.041	8.0
29.056	8.0
29.071	10.0
29.086	12.0
29.101	13.0
29.116	15.0
29.131	11.0
29.146	15.0
29.16	11.0
29.175	14.0
29.19	10.0
29.205	8.0
29.22	11.0
29.235	13.0
29.25	9.0
29.265	8.0
29.279	8.0
29.294	10.0
29.309	15.0
29.324	11.0
29.339	11.0
29.354	11.0
29.369	21.0
29.384	11.0
29.398	9.0
29.413	7.0
29.428	10.0
29.443	19.0
29.458	19.0
29.473	28.0
29.488	29.0
29.502	38.0
29.517	24.0
29.532	31.0
29.547	33.0
29.562	48.0
29.577	39.0
29.592	51.0
29.606	46.0
29.621	51.0
29.636	59.0
29.651	50.0
29.666	54.0
29.681	38.0
29.695	33.0
29.71	34.0
29.725	29.0
29.74	33.0
29.755	32.0
29.77	35.0
29.784	30.0
29.799	25.0
29.814	32.0
29.829	25.0
29.844	33.0
29.859	14.0
29.873	22.0
29.888	18.0
29.903	12.0
29.918	9.0
29.933	12.0
29.947	15.0
29.962	16.0
29.977	13.0
29.992	11.0
30.007	7.0
30.021	14.0
30.036	7.0
30.051	8.0
30.066	11.0
30.081	8.0
30.095	13.0
30.11	9.0
30.125	9.0
30.14	9.0
30.155	14.0
30.169	19.0
30.184	13.0
30.199	11.0
30.214	16.0
30.228	10.0
30.243	11.0
30.258	12.0
30.273	6.0
30.288	12.0
30.302	11.0
30.317	13.0
30.332	9.0
30.347	8.0
30.361	6.0
30.376	16.0
30.391	19.0
30.406	8.0
30.42	11.0
30.435	10.0
30.45	10.0
30.465	12.0
30.479	3.0
30.494	12.0
30.509	10.0
30.524	6.0
30.538	9.0
30.553	5.0
30.568	5.0
30.583	10.0
30.597	12.0
30.612	12.0
30.627	9.0
30.641	11.0
30.656	10.0
30.671	11.0
30.686	9.0
30.7	16.0
30.715	9.0
30.73	10.0
30.745	13.0
30.759	8.0
30.774	6.0
30.789	8.0
30.803	10.0
30.818	15.0
30.833	7.0
30.848	11.0
30.862	8.0
30.877	11.0
30.892	10.0
30.906	9.0
30.921	11.0
30.936	4.0
30.951	10.0
30.965	13.0
30.98	11.0
30.995	15.0
31.009	14.0
31.024	9.0
31.039	10.0
31.053	12.0
31.068	11.0
31.083	13.0
31.098	14.0
31.112	15.0
31.127	14.0
31.142	16.0
31.156	27.0
31.171	22.0
31.186	29.0
31.2	21.0
31.215	27.0
31.23	32.0
31.245	40.0
31.259	35.0
31.274	31.0
31.289	32.0
31.303	31.0
31.318	34.0
31.333	26.0
31.347	31.0
31.362	31.0
31.377	31.0
31.392	27.0
31.406	27.0
31.421	23.0
31.436	26.0
31.45	18.0
31.465	33.0
31.48	23.0
31.494	18.0
31.509	21.0
31.524	13.0
31.538	9.0
31.553	17.0
31.568	10.0
31.583	18.0
31.597	10.0
31.612	10.0
31.627	13.0
31.641	6.0
31.656	8.0
31.671	11.0
31.685	12.0
31.7	7.0
31.715	11.0
31.729	14.0
31.744	6.0
31.759	14.0
31.774	7.0
31.788	10.0
31.803	6.0
31.818	14.0
31.832	11.0
31.847	8.0
31.862	13.0
31.876	9.0
31.891	11.0
31.906	16.0
31.92	12.0
31.935	9.0
31.95	9.0
31.965	14.0
31.979	16.0
31.994	11.0
32.009	8.0
32.023	15.0
32.038	7.0
32.053	7.0
32.067	9.0
32.082	9.0
32.097	9.0
32.112	10.0
32.126	9.0
32.141	9.0
32.156	7.0
32.17	9.0
32.185	12.0
32.2	16.0
32.214	8.0
32.229	9.0
32.244	8.0
32.259	13.0
32.273	15.0
32.288	15.0
32.303	12.0
32.317	8.0
32.332	9.0
32.347	12.0
32.362	12.0
32.376	7.0
32.391	12.0
32.406	11.0
32.42	11.0
32.435	9.0
32.45	12.0
32.465	9.0
32.479	8.0
32.494	11.0
32.509	9.0
32.523	3.0
32.538	7.0
32.553	13.0
32.568	8.0
32.582	13.0
32.597	6.0
32.612	10.0
32.627	18.0
32.641	6.0
32.656	13.0
32.671	14.0
32.685	17.0
32.7	17.0
32.715	25.0
32.73	19.0
32.744	21.0
32.759	18.0
32.774	24.0
32.788	24.0
32.803	29.0
32.818	31.0
32.833	22.0
32.847	25.0
32.862	27.0
32.877	22.0
32.892	27.0
32.906	13.0
32.921	20.0
32.936	26.0
32.951	23.0
32.965	14.0
32.98	22.0
32.995	12.0
33.009	23.0
33.024	22.0
33.039	16.0
33.054	16.0
33.068	18.0
33.083	16.0
33.098	11.0
33.113	19.0
33.127	9.0
33.142	9.0
33.157	18.0
33.172	17.0
33.186	13.0
33.201	19.0
33.216	15.0
33.231	11.0
33.245	13.0
33.26	10.0
33.275	5.0
33.29	8.0
33.304	7.0
33.319	6.0
33.334	4.0
33.349	9.0
33.363	7.0
33.378	9.0
33.393	10.0
33.408	7.0
33.422	11.0
33.437	5.0
33.452	10.0
33.467	11.0
33.481	8.0
33.496	11.0
33.511	7.0
33.526	6.0
33.54	8.0
33.555	11.0
33.57	9.0
33.585	8.0
33.599	7.0
33.614	8.0
33.629	6.0
33.644	10.0
33.658	9.0
33.673	6.0
33.688	8.0
33.703	9.0
33.718	5.0
33.732	8.0
33.747	5.0
33.762	12.0
33.777	11.0
33.791	6.0
33.806	5.0
33.821	9.0
33.836	6.0
33.85	10.0
33.865	9.0
33.88	13.0
33.895	9.0
33.91	10.0
33.924	5.0
33.939	10.0
33.954	8.0
33.969	6.0
33.983	11.0
33.998	13.0
34.013	16.0
34.028	8.0
34.042	10.0
34.057	13.0
34.072	15.0
34.087	10.0
34.102	13.0
34.116	10.0
34.131	16.0
34.146	11.0
34.161	10.0
34.175	9.0
34.19	12.0
34.205	4.0
34.22	14.0
34.235	15.0
34.249	10.0
34.264	9.0
34.279	5.0
34.294	11.0
34.309	15.0
34.323	13.0
34.338	17.0
34.353	6.0
34.368	11.0
34.382	9.0
34.397	9.0
34.412	15.0
34.427	11.0
34.442	9.0
34.456	7.0
34.471	12.0
34.486	11.0
34.501	11.0
34.516	10.0
34.53	9.0
34.545	11.0
34.56	9.0
34.575	11.0
34.59	8.0
34.604	11.0
34.619	10.0
34.634	10.0
34.649	5.0
34.664	13.0
34.678	4.0
34.693	4.0
34.708	12.0
34.723	6.0
34.738	10.0
34.752	9.0
34.767	12.0
34.782	8.0
34.797	6.0
34.812	10.0
34.826	7.0
34.841	5.0
34.856	8.0
34.871	8.0
34.886	8.0
34.9	10.0
34.915	11.0
34.93	8.0
34.945	7.0
34.96	9.0
34.974	17.0
34.989	5.0
35.004	15.0
35.019	14.0
35.034	9.0
35.048	6.0
35.063	5.0
35.078	7.0
35.093	10.0
35.108	6.0
35.122	9.0
35.137	5.0
35.152	10.0
35.167	7.0
35.182	7.0
35.196	12.0
35.211	9.0
35.226	13.0
35.241	8.0
35.256	14.0
35.27	8.0
35.285	8.0
35.3	13.0
35.315	9.0
35.33	12.0
35.344	8.0
35.359	4.0
35.374	6.0
35.389	12.0
35.404	6.0
35.418	5.0
35.433	9.0
35.448	10.0
35.463	6.0
35.478	5.0
35.493	9.0
35.507	17.0
35.522	7.0
35.537	12.0
35.552	5.0
35.567	11.0
35.581	10.0
35.596	8.0
35.611	3.0
35.626	10.0
35.641	16.0
35.655	11.0
35.67	11.0
35.685	13.0
35.7	11.0
35.715	13.0
35.729	19.0
35.744	12.0
35.759	19.0
35.774	7.0
35.789	19.0
35.804	21.0
35.818	16.0
35.833	10.0
35.848	15.0
35.863	7.0
35.878	9.0
35.892	18.0
35.907	9.0
35.922	12.0
35.937	10.0
35.952	14.0
35.966	15.0
35.981	16.0
35.996	15.0
36.011	13.0
36.026	14.0
36.04	12.0
36.055	7.0
36.07	17.0
36.085	6.0
36.1	4.0
36.114	12.0
36.129	11.0
36.144	12.0
36.159	12.0
36.174	6.0
36.189	6.0
36.203	5.0
36.218	7.0
36.233	8.0
36.248	6.0
36.263	10.0
36.277	4.0
36.292	9.0
36.307	9.0
36.322	7.0
36.337	13.0
36.351	8.0
36.366	6.0
36.381	11.0
36.396	6.0
36.411	8.0
36.426	8.0
36.44	7.0
36.455	10.0
36.47	14.0
36.485	3.0
36.5	4.0
36.514	9.0
36.529	5.0
36.544	9.0
36.559	6.0
36.574	3.0
36.589	5.0
36.603	10.0
36.618	10.0
36.633	9.0
36.648	6.0
36.663	10.0
36.677	11.0
36.692	8.0
36.707	6.0
36.722	13.0
36.737	10.0
36.752	9.0
36.766	12.0
36.781	7.0
36.796	10.0
36.811	8.0
36.826	7.0
36.841	6.0
36.855	10.0
36.87	10.0
36.885	6.0
36.9	8.0
36.915	9.0
36.93	9.0
36.944	9.0
36.959	11.0
36.974	8.0
36.989	12.0
37.004	9.0
37.019	13.0
37.033	10.0
37.048	14.0
37.063	18.0
37.078	19.0
37.093	22.0
37.108	22.0
37.123	28.0
37.137	20.0
37.152	38.0
37.167	29.0
37.182	27.0
37.197	29.0
37.212	32.0
37.226	40.0
37.241	24.0
37.256	20.0
37.271	17.0
37.286	7.0
37.301	19.0
37.316	17.0
37.331	20.0
37.345	20.0
37.36	20.0
37.375	18.0
37.39	17.0
37.405	15.0
37.42	10.0
37.435	6.0
37.45	12.0
37.464	24.0
37.479	12.0
37.494	7.0
37.509	13.0
37.524	11.0
37.539	11.0
37.554	6.0
37.569	7.0
37.583	14.0
37.598	8.0
37.613	6.0
37.628	7.0
37.643	11.0
37.658	6.0
37.673	9.0
37.688	9.0
37.703	9.0
37.718	10.0
37.733	7.0
37.747	7.0
37.762	4.0
37.777	5.0
37.792	7.0
37.807	5.0
37.822	5.0
37.837	5.0
37.852	2.0
37.867	9.0
37.882	6.0
37.897	8.0
37.912	5.0
37.927	6.0
37.941	7.0
37.956	2.0
37.971	5.0
37.986	13.0
38.001	7.0
38.016	7.0
38.031	5.0
38.046	7.0
38.061	5.0
38.076	2.0
38.091	7.0
38.106	5.0
38.121	10.0
38.136	3.0
38.151	7.0
38.166	4.0
38.181	5.0
38.196	6.0
38.211	7.0
38.226	3.0
38.241	12.0
38.256	7.0
38.271	9.0
38.285	7.0
38.3	8.0
38.315	3.0
38.33	7.0
38.345	4.0
38.36	5.0
38.375	2.0
38.39	7.0
38.405	5.0
38.42	9.0
38.435	4.0
38.45	4.0
38.465	6.0
38.48	3.0
38.495	4.0
38.51	4.0
38.525	2.0
38.54	8.0
38.555	7.0
38.57	7.0
38.585	5.0
38.6	5.0
38.615	8.0
38.63	11.0
38.645	8.0
38.66	4.0
38.675	7.0
38.69	3.0
38.705	7.0
38.72	4.0
38.735	4.0
38.75	9.0
38.765	3.0
38.78	3.0
38.795	8.0
38.81	4.0
38.825	5.0
38.84	4.0
38.855	11.0
38.87	4.0
38.885	6.0
38.9	10.0
38.915	7.0
38.93	6.0
38.945	6.0
38.96	7.0
38.975	3.0
38.99	4.0
39.005	3.0
39.02	3.0
39.035	4.0
39.05	5.0
39.065	4.0
39.08	5.0
39.095	6.0
39.11	5.0
39.125	9.0
39.14	3.0
39.155	2.0
39.17	6.0
39.185	5.0
39.2	3.0
39.215	6.0
39.23	5.0
39.245	5.0
39.26	4.0
39.275	5.0
39.29	7.0
39.305	3.0
39.32	4.0
39.335	5.0
39.35	10.0
39.365	2.0
39.38	6.0
39.395	6.0
39.409	5.0
39.424	6.0
39.439	4.0
39.454	13.0
39.469	8.0
39.484	6.0
39.499	2.0
39.514	3.0
39.529	4.0
39.544	9.0
39.559	11.0
39.574	6.0
39.589	4.0
39.604	7.0
39.619	8.0
39.634	6.0
39.649	5.0
39.664	5.0
39.678	4.0
39.693	5.0
39.708	9.0
39.723	6.0
39.738	7.0
39.753	1.0
39.768	7.0
39.783	10.0
39.798	11.0
39.813	13.0
39.827	10.0
39.842	10.0
39.857	10.0
39.872	11.0
39.887	9.0
39.902	12.0
39.917	12.0
39.932	15.0
39.947	5.0
39.961	6.0
39.976	6.0
39.991	6.0
40.006	8.0
40.021	6.0
40.036	7.0
40.051	12.0
40.065	7.0
40.08	5.0
40.095	7.0
40.11	5.0
40.125	7.0
40.14	5.0
40.154	4.0
40.169	8.0
40.184	17.0
40.199	9.0
40.214	2.0
40.228	9.0
40.243	8.0
40.258	8.0
40.273	9.0
40.288	5.0
40.302	4.0
40.317	6.0
40.332	8.0
40.347	9.0
40.362	3.0
40.376	6.0
40.391	3.0
40.406	7.0
40.421	6.0
40.436	5.0
40.45	9.0
40.465	9.0
40.48	6.0
40.495	6.0
40.509	5.0
40.524	6.0
40.539	6.0
40.554	3.0
40.568	5.0
40.583	8.0
40.598	5.0
40.613	9.0
40.627	8.0
40.642	8.0
40.657	4.0
40.672	6.0
40.686	8.0
40.701	6.0
40.716	10.0
40.731	10.0
40.745	0.0
40.76	6.0
40.775	9.0
40.79	3.0
40.804	5.0
40.819	9.0
40.834	4.0
40.849	13.0
40.863	7.0
40.878	12.0
40.893	9.0
40.907	5.0
40.922	12.0
40.937	4.0
40.952	10.0
40.966	2.0
40.981	8.0
40.996	15.0
41.011	7.0
41.025	9.0
41.04	8.0
41.055	11.0
41.069	15.0
41.084	22.0
41.099	15.0
41.114	20.0
41.128	19.0
41.143	21.0
41.158	19.0
41.173	21.0
41.187	15.0
41.202	27.0
41.217	11.0
41.231	9.0
41.246	12.0
41.261	13.0
41.276	13.0
41.29	10.0
41.305	6.0
41.32	14.0
41.335	12.0
41.349	15.0
41.364	22.0
41.379	8.0
41.393	9.0
41.408	22.0
41.423	16.0
41.438	11.0
41.452	11.0
41.467	5.0
41.482	11.0
41.497	9.0
41.511	10.0
41.526	8.0
41.541	11.0
41.556	11.0
41.57	6.0
41.585	6.0
41.6	6.0
41.615	4.0
41.629	3.0
41.644	9.0
41.659	6.0
41.674	6.0
41.688	1.0
41.703	8.0
41.718	6.0
41.733	3.0
41.747	4.0
41.762	2.0
41.777	7.0
41.792	12.0
41.806	4.0
41.821	3.0
41.836	5.0
41.851	5.0
41.866	8.0
41.88	4.0
41.895	5.0
41.91	4.0
41.925	7.0
41.939	5.0
41.954	6.0
41.969	7.0
41.984	5.0
41.999	4.0
42.013	6.0
42.028	6.0
42.043	8.0
42.058	4.0
42.073	8.0
42.088	8.0
42.102	5.0
42.117	8.0
42.132	4.0
42.147	7.0
42.162	3.0
42.176	6.0
42.191	6.0
42.206	7.0
42.221	12.0
42.236	6.0
42.251	7.0
42.266	8.0
42.28	6.0
42.295	11.0
42.31	7.0
42.325	14.0
42.34	11.0
42.355	17.0
42.369	23.0
42.384	10.0
42.399	14.0
42.414	17.0
42.429	17.0
42.444	18.0
42.459	14.0
42.474	15.0
42.488	9.0
42.503	9.0
42.518	12.0
42.533	14.0
42.548	6.0
42.563	11.0
42.578	5.0
42.593	8.0
42.608	16.0
42.622	8.0
42.637	11.0
42.652	13.0
42.667	11.0
42.682	15.0
42.697	10.0
42.712	11.0
42.727	7.0
42.742	6.0
42.757	13.0
42.772	8.0
42.786	4.0
42.801	7.0
42.816	4.0
42.831	7.0
42.846	3.0
42.861	2.0
42.876	5.0
42.891	10.0
42.906	3.0
42.921	6.0
42.936	5.0
42.951	4.0
42.966	7.0
42.981	7.0
42.996	6.0
43.011	4.0
43.025	6.0
43.04	7.0
43.055	5.0
43.07	4.0
43.085	6.0
43.1	5.0
43.115	9.0
43.13	11.0
43.145	2.0
43.16	2.0
43.175	5.0
43.19	7.0
43.205	5.0
43.22	5.0
43.235	3.0
43.25	6.0
43.265	3.0
43.28	8.0
43.295	8.0
43.31	9.0
43.325	0.0
43.34	5.0
43.355	4.0
43.37	6.0
43.385	5.0
43.4	2.0
43.415	8.0
43.43	9.0
43.445	4.0
43.46	7.0
43.475	5.0
43.49	8.0
43.505	7.0
43.52	4.0
43.535	7.0
43.55	9.0
43.565	8.0
43.58	11.0
43.595	14.0
43.61	15.0
43.625	6.0
43.64	10.0
43.655	10.0
43.67	6.0
43.685	10.0
43.7	13.0
43.715	6.0
43.73	6.0
43.745	6.0
43.76	10.0
43.775	6.0
43.79	6.0
43.805	4.0
43.82	2.0
43.835	2.0
43.85	6.0
43.865	12.0
43.88	10.0
43.895	5.0
43.91	10.0
43.925	8.0
43.94	7.0
43.955	7.0
43.97	5.0
43.985	9.0
44.0	4.0
44.015	6.0
44.03	4.0
44.045	2.0
44.061	5.0
44.076	5.0
44.091	7.0
44.106	8.0
44.121	5.0
44.136	3.0
44.151	3.0
44.166	7.0
44.181	5.0
44.196	6.0
44.211	6.0
44.226	7.0
44.241	7.0
44.256	10.0
44.271	10.0
44.286	7.0
44.301	7.0
44.316	1.0
44.331	8.0
44.346	3.0
44.361	6.0
44.377	3.0
44.392	4.0
44.407	4.0
44.422	3.0
44.437	3.0
44.452	5.0
44.467	7.0
44.482	5.0
44.497	8.0
44.512	6.0
44.527	4.0
44.542	8.0
44.557	4.0
44.572	10.0
44.587	5.0
44.602	6.0
44.617	5.0
44.632	3.0
44.647	9.0
44.663	2.0
44.678	7.0
44.693	4.0
44.708	8.0
44.723	11.0
44.738	7.0
44.753	12.0
44.768	10.0
44.783	17.0
44.798	10.0
44.813	14.0
44.828	16.0
44.843	4.0
44.858	8.0
44.873	8.0
44.888	8.0
44.903	7.0
44.918	2.0
44.933	5.0
44.948	7.0
44.964	7.0
44.979	4.0
44.994	7.0
45.009	6.0
45.024	9.0
45.039	8.0
45.054	12.0
45.069	9.0
45.084	6.0
45.099	7.0
45.114	13.0
45.129	6.0
45.144	7.0
45.159	9.0
45.174	7.0
45.189	8.0
45.204	6.0
45.219	4.0
45.234	7.0
45.249	6.0
45.264	4.0
45.279	11.0
45.294	7.0
45.309	2.0
45.324	5.0
45.339	4.0
45.354	4.0
45.369	6.0
45.384	8.0
45.399	2.0
45.414	4.0
45.429	5.0
45.444	6.0
45.459	4.0
45.474	7.0
45.489	4.0
45.504	4.0
45.519	3.0
45.534	11.0
45.549	4.0
45.564	5.0
45.579	8.0
45.594	6.0
45.609	11.0
45.624	6.0
45.639	8.0
45.654	7.0
45.669	5.0
45.684	7.0
45.699	4.0
45.714	9.0
45.729	3.0
45.744	7.0
45.759	7.0
45.774	8.0
45.789	6.0
45.804	5.0
45.819	4.0
45.834	4.0
45.849	6.0
45.864	9.0
45.879	11.0
45.894	9.0
45.909	10.0
45.924	12.0
45.939	11.0
45.954	16.0
45.969	17.0
45.984	15.0
45.998	21.0
46.013	12.0
46.028	14.0
46.043	18.0
46.058	12.0
46.073	16.0
46.088	4.0
46.103	13.0
46.118	6.0
46.133	2.0
46.148	7.0
46.163	6.0
46.178	9.0
46.192	9.0
46.207	12.0
46.222	9.0
46.237	8.0
46.252	12.0
46.267	6.0
46.282	16.0
46.297	9.0
46.312	13.0
46.327	5.0
46.341	7.0
46.356	7.0
46.371	6.0
46.386	7.0
46.401	9.0
46.416	1.0
46.431	6.0
46.446	7.0
46.46	5.0
46.475	6.0
46.49	9.0
46.505	5.0
46.52	3.0
46.535	6.0
46.55	3.0
46.564	10.0
46.579	3.0
46.594	6.0
46.609	6.0
46.624	3.0
46.639	4.0
46.654	4.0
46.668	4.0
46.683	4.0
46.698	4.0
46.713	5.0
46.728	5.0
46.743	7.0
46.758	9.0
46.772	5.0
46.787	7.0
46.802	8.0
46.817	3.0
46.832	3.0
46.847	6.0
46.861	4.0
46.876	6.0
46.891	4.0
46.906	6.0
46.921	10.0
46.936	8.0
46.95	7.0
46.965	10.0
46.98	6.0
46.995	3.0
47.01	2.0
47.025	5.0
47.039	11.0
47.054	8.0
47.069	5.0
47.084	5.0
47.099	6.0
47.113	9.0
47.128	6.0
47.143	11.0
47.158	13.0
47.173	6.0
47.188	4.0
47.202	13.0
47.217	11.0
47.232	5.0
47.247	8.0
47.262	2.0
47.277	1.0
47.291	4.0
47.306	11.0
47.321	5.0
47.336	8.0
47.351	6.0
47.365	10.0
47.38	10.0
47.395	9.0
47.41	11.0
47.425	8.0
47.44	9.0
47.454	8.0
47.469	4.0
47.484	9.0
47.499	6.0
47.514	5.0
47.528	7.0
47.543	5.0
47.558	5.0
47.573	6.0
47.588	5.0
47.603	2.0
47.617	3.0
47.632	3.0
47.647	6.0
47.662	6.0
47.677	1.0
47.691	3.0
47.706	2.0
47.721	2.0
47.736	5.0
47.751	3.0
47.766	6.0
47.78	4.0
47.795	2.0
47.81	2.0
47.825	4.0
47.84	3.0
47.855	4.0
47.869	4.0
47.884	6.0
47.899	4.0
47.914	5.0
47.929	5.0
47.944	3.0
47.958	6.0
47.973	7.0
47.988	8.0
48.003	4.0
48.018	6.0
48.033	4.0
48.047	6.0
48.062	5.0
48.077	6.0
48.092	8.0
48.107	6.0
48.122	6.0
48.137	6.0
48.151	3.0
48.166	6.0
48.181	3.0
48.196	7.0
48.211	3.0
48.226	7.0
48.241	3.0
48.255	7.0
48.27	4.0
48.285	5.0
48.3	4.0
48.315	0.0
48.33	6.0
48.345	7.0
48.359	3.0
48.374	8.0
48.389	3.0
48.404	8.0
48.419	6.0
48.434	3.0
48.449	4.0
48.464	5.0
48.478	4.0
48.493	5.0
48.508	7.0
48.523	3.0
48.538	2.0
48.553	6.0
48.568	9.0
48.583	6.0
48.597	1.0
48.612	5.0
48.627	8.0
48.642	5.0
48.657	6.0
48.672	4.0
48.687	10.0
48.702	6.0
48.717	4.0
48.731	7.0
48.746	0.0
48.761	4.0
48.776	7.0
48.791	5.0
48.806	3.0
48.821	5.0
48.836	3.0
48.851	8.0
48.866	4.0
48.88	4.0
48.895	6.0
48.91	6.0
48.925	8.0
48.94	7.0
48.955	4.0
48.97	7.0
48.985	4.0
49.0	8.0
49.015	4.0
49.03	3.0
49.044	8.0
49.059	9.0
49.074	3.0
49.089	7.0
49.104	5.0
49.119	2.0
49.134	8.0
49.149	6.0
49.164	7.0
49.179	5.0
49.194	1.0
49.209	8.0
49.224	4.0
49.238	6.0
49.253	3.0
49.268	4.0
49.283	7.0
49.298	5.0
49.313	13.0
49.328	7.0
49.343	6.0
49.358	12.0
49.373	4.0
49.388	5.0
49.403	11.0
49.418	5.0
49.433	3.0
49.448	9.0
49.463	7.0
49.478	6.0
49.492	10.0
49.507	4.0
49.522	7.0
49.537	4.0
49.552	4.0
49.567	6.0
49.582	5.0
49.597	4.0
49.612	5.0
49.627	5.0
49.642	4.0
49.657	6.0
49.672	7.0
49.687	5.0
49.702	3.0
49.717	10.0
49.732	7.0
49.747	12.0
49.762	2.0
49.777	6.0
49.792	5.0
49.807	4.0
49.822	1.0
49.837	5.0
49.852	2.0
49.867	8.0
49.882	7.0
49.897	1.0
49.912	6.0
49.927	5.0
49.942	6.0
49.957	5.0
49.971	1.0
49.986	3.0
50.001	4.0
50.016	7.0
50.031	4.0
50.046	2.0
50.061	4.0
50.076	7.0
50.091	3.0
50.106	6.0
50.121	3.0
50.136	4.0
50.151	6.0
50.166	3.0
50.181	4.0
50.196	6.0
50.211	5.0
50.226	5.0
50.241	4.0
50.256	6.0
50.271	3.0
50.286	5.0
50.302	2.0
50.317	5.0
50.332	7.0
50.347	2.0
50.362	4.0
50.377	5.0
50.392	6.0
50.407	8.0
50.422	10.0
50.437	7.0
50.452	5.0
50.467	3.0
50.482	6.0
50.497	7.0
50.512	4.0
50.527	7.0
50.542	9.0
50.557	5.0
50.572	8.0
50.587	6.0
50.602	7.0
50.617	7.0
50.632	7.0
50.647	10.0
50.662	4.0
50.677	6.0
50.692	7.0
50.707	4.0
50.722	7.0
50.737	4.0
50.752	4.0
50.767	6.0
50.782	5.0
50.797	4.0
50.812	12.0
50.828	2.0
50.843	6.0
50.858	5.0
50.873	1.0
50.888	6.0
50.903	5.0
50.918	4.0
50.933	6.0
50.948	1.0
50.963	1.0
50.978	9.0
50.993	2.0
51.008	3.0
51.023	6.0
51.038	2.0
51.053	2.0
51.068	2.0
51.083	7.0
51.098	4.0
51.114	3.0
51.129	5.0
51.144	5.0
51.159	5.0
51.174	4.0
51.189	4.0
51.204	6.0
51.219	4.0
51.234	4.0
51.249	5.0
51.264	5.0
51.279	4.0
51.294	7.0
51.309	2.0
51.324	7.0
51.34	6.0
51.355	8.0
51.37	8.0
51.385	9.0
51.4	6.0
51.415	8.0
51.43	8.0
51.445	11.0
51.46	11.0
51.475	18.0
51.49	20.0
51.505	11.0
51.52	18.0
51.535	11.0
51.551	14.0
51.566	14.0
51.581	15.0
51.596	15.0
51.611	19.0
51.626	14.0
51.641	12.0
51.656	6.0
51.671	6.0
51.686	5.0
51.701	8.0
51.716	4.0
51.732	5.0
51.747	8.0
51.762	6.0
51.777	5.0
51.792	10.0
51.807	7.0
51.822	10.0
51.837	10.0
51.852	9.0
51.867	9.0
51.882	15.0
51.898	8.0
51.913	5.0
51.928	6.0
51.943	11.0
51.958	8.0
51.973	2.0
51.988	3.0
52.003	4.0
52.018	9.0
52.033	5.0
52.048	8.0
52.064	3.0
52.079	5.0
52.094	4.0
52.109	3.0
52.124	2.0
52.139	5.0
52.154	6.0
52.169	6.0
52.184	1.0
52.199	6.0
52.215	8.0
52.23	5.0
52.245	6.0
52.26	3.0
52.275	6.0
52.29	4.0
52.305	3.0
52.32	7.0
52.335	4.0
52.35	9.0
52.366	13.0
52.381	2.0
52.396	6.0
52.411	5.0
52.426	8.0
52.441	7.0
52.456	5.0
52.471	7.0
52.486	4.0
52.502	4.0
52.517	9.0
52.532	8.0
52.547	6.0
52.562	8.0
52.577	12.0
52.592	9.0
52.607	2.0
52.622	12.0
52.637	5.0
52.653	7.0
52.668	2.0
52.683	4.0
52.698	3.0
52.713	8.0
52.728	4.0
52.743	5.0
52.758	5.0
52.774	6.0
52.789	4.0
52.804	4.0
52.819	5.0
52.834	10.0
52.849	11.0
52.864	5.0
52.879	6.0
52.894	7.0
52.91	7.0
52.925	3.0
52.94	6.0
52.955	9.0
52.97	8.0
52.985	9.0
53.0	6.0
53.015	3.0
53.031	5.0
53.046	3.0
53.061	0.0
53.076	6.0
53.091	3.0
53.106	4.0
53.121	3.0
53.136	7.0
53.152	1.0
53.167	3.0
53.182	2.0
53.197	3.0
53.212	7.0
53.227	8.0
53.242	6.0
53.257	5.0
53.273	1.0
53.288	4.0
53.303	3.0
53.318	3.0
53.333	5.0
53.348	3.0
53.363	1.0
53.379	4.0
53.394	4.0
53.409	6.0
53.424	5.0
53.439	3.0
53.454	5.0
53.469	4.0
53.484	8.0
53.5	3.0
53.515	3.0
53.53	8.0
53.545	2.0
53.56	4.0
53.575	2.0
53.59	7.0
53.606	7.0
53.621	4.0
53.636	4.0
53.651	2.0
53.666	4.0
53.681	7.0
53.696	5.0
53.712	2.0
53.727	2.0
53.742	3.0
53.757	3.0
53.772	4.0
53.787	2.0
53.802	3.0
53.818	4.0
53.833	2.0
53.848	5.0
53.863	5.0
53.878	4.0
53.893	2.0
53.909	2.0
53.924	4.0
53.939	5.0
53.954	5.0
53.969	5.0
53.984	4.0
53.999	7.0
54.015	5.0
54.03	4.0
54.045	5.0
54.06	4.0
54.075	5.0
54.09	7.0
54.106	4.0
54.121	6.0
54.136	2.0
54.151	6.0
54.166	5.0
54.181	3.0
54.197	8.0
54.212	9.0
54.227	5.0
54.242	4.0
54.257	10.0
54.272	1.0
54.288	5.0
54.303	4.0
54.318	4.0
54.333	7.0
54.348	6.0
54.363	3.0
54.379	5.0
54.394	2.0
54.409	5.0
54.424	4.0
54.439	6.0
54.454	5.0
54.47	11.0
54.485	5.0
54.5	4.0
54.515	9.0
54.53	3.0
54.545	5.0
54.561	9.0
54.576	13.0
54.591	13.0
54.606	11.0
54.621	9.0
54.636	9.0
54.652	11.0
54.667	14.0
54.682	15.0
54.697	9.0
54.712	8.0
54.727	8.0
54.743	7.0
54.758	6.0
54.773	4.0
54.788	7.0
54.803	8.0
54.819	6.0
54.834	5.0
54.849	5.0
54.864	2.0
54.879	4.0
54.894	3.0
54.91	8.0
54.925	12.0
54.94	6.0
54.955	8.0
54.97	6.0
54.985	9.0
55.001	14.0
55.016	5.0
55.031	9.0
55.046	6.0
55.061	11.0
55.077	3.0
55.092	7.0
55.107	4.0
55.122	3.0
55.137	6.0
55.152	4.0
55.168	5.0
55.183	3.0
55.198	1.0
55.213	5.0
55.228	9.0
55.243	1.0
55.259	2.0
55.274	4.0
55.289	3.0
55.304	6.0
55.319	6.0
55.335	4.0
55.35	3.0
55.365	3.0
55.38	5.0
55.395	3.0
55.41	2.0
55.426	1.0
55.441	5.0
55.456	3.0
55.471	4.0
55.486	3.0
55.501	4.0
55.517	6.0
55.532	3.0
55.547	8.0
55.562	6.0
55.577	8.0
55.592	4.0
55.608	11.0
55.623	7.0
55.638	4.0
55.653	2.0
55.668	6.0
55.683	6.0
55.699	5.0
55.714	8.0
55.729	6.0
55.744	3.0
55.759	3.0
55.774	1.0
55.79	7.0
55.805	9.0
55.82	6.0
55.835	8.0
55.85	3.0
55.865	1.0
55.881	7.0
55.896	3.0
55.911	7.0
55.926	5.0
55.941	3.0
55.956	4.0
55.972	6.0
55.987	3.0
56.002	6.0
56.017	9.0
56.032	8.0
56.047	9.0
56.063	4.0
56.078	10.0
56.093	1.0
56.108	4.0
56.123	3.0
56.138	1.0
56.154	4.0
56.169	4.0
56.184	4.0
56.199	2.0
56.214	6.0
56.229	8.0
56.244	10.0
56.26	4.0
56.275	6.0
56.29	5.0
56.305	6.0
56.32	4.0
56.335	5.0
56.351	5.0
56.366	1.0
56.381	5.0
56.396	7.0
56.411	2.0
56.426	3.0
56.441	4.0
56.457	8.0
56.472	6.0
56.487	1.0
56.502	4.0
56.517	3.0
56.532	3.0
56.547	4.0
56.563	4.0
56.578	4.0
56.593	2.0
56.608	4.0
56.623	9.0
56.638	8.0
56.653	5.0
56.668	1.0
56.684	4.0
56.699	6.0
56.714	7.0
56.729	1.0
56.744	3.0
56.759	5.0
56.774	6.0
56.79	6.0
56.805	2.0
56.82	6.0
56.835	4.0
56.85	1.0
56.865	3.0
56.88	5.0
56.895	12.0
56.911	2.0
56.926	5.0
56.941	6.0
56.956	4.0
56.971	5.0
56.986	6.0
57.001	4.0
57.016	3.0
57.031	3.0
57.047	1.0
57.062	3.0
57.077	3.0
57.092	7.0
57.107	2.0
57.122	4.0
57.137	2.0
57.152	4.0
57.167	8.0
57.183	3.0
57.198	2.0
57.213	5.0
57.228	2.0
57.243	2.0
57.258	7.0
57.273	5.0
57.288	2.0
57.303	3.0
57.318	4.0
57.334	2.0
57.349	3.0
57.364	7.0
57.379	5.0
57.394	2.0
57.409	8.0
57.424	5.0
57.439	3.0
57.454	3.0
57.469	1.0
57.484	5.0
57.5	4.0
57.515	3.0
57.53	4.0
57.545	4.0
57.56	9.0
57.575	5.0
57.59	6.0
57.605	3.0
57.62	5.0
57.635	3.0
57.65	2.0
57.665	9.0
57.68	6.0
57.696	1.0
57.711	3.0
57.726	7.0
57.741	8.0
57.756	8.0
57.771	3.0
57.786	3.0
57.801	6.0
57.816	9.0
57.831	4.0
57.846	7.0
57.861	3.0
57.876	4.0
57.891	3.0
57.906	5.0
57.921	5.0
57.937	1.0
57.952	7.0
57.967	4.0
57.982	8.0
57.997	5.0
58.012	4.0
58.027	5.0
58.042	6.0
58.057	5.0
58.072	4.0
58.087	6.0
58.102	9.0
58.117	6.0
58.132	3.0
58.147	4.0
58.162	5.0
58.177	2.0
58.192	6.0
58.207	7.0
58.222	0.0
58.237	5.0
58.252	2.0
58.267	1.0
58.282	1.0
58.297	2.0
58.312	6.0
58.327	2.0
58.342	5.0
58.357	3.0
58.372	0.0
58.387	4.0
58.402	6.0
58.418	4.0
58.433	3.0
58.448	3.0
58.463	3.0
58.478	3.0
58.493	8.0
58.508	6.0
58.523	6.0
58.538	6.0
58.553	6.0
58.568	5.0
58.583	2.0
58.598	8.0
58.613	14.0
58.628	10.0
58.643	5.0
58.658	6.0
58.673	9.0
58.688	10.0
58.703	2.0
58.718	10.0
58.733	5.0
58.748	4.0
58.763	5.0
58.778	3.0
58.793	5.0
58.808	8.0
58.823	5.0
58.838	5.0
58.853	6.0
58.868	7.0
58.883	2.0
58.898	2.0
58.913	1.0
58.928	6.0
58.942	6.0
58.957	3.0
58.972	5.0
58.987	10.0
59.002	5.0
59.017	5.0
59.032	7.0
59.047	6.0
59.062	8.0
59.077	9.0
59.092	4.0
59.107	4.0
59.122	4.0
59.137	5.0
59.152	5.0
59.167	5.0
59.182	4.0
59.197	4.0
59.212	4.0
59.227	3.0
59.242	5.0
59.257	3.0
59.272	4.0
59.287	5.0
59.302	6.0
59.317	3.0
59.332	1.0
59.347	5.0
59.362	1.0
59.377	5.0
59.392	2.0
59.407	3.0
59.422	5.0
59.437	3.0
59.452	2.0
59.467	4.0
59.482	3.0
59.497	5.0
59.512	4.0
59.527	4.0
59.542	10.0
59.557	8.0
59.572	8.0
59.587	5.0
59.602	6.0
59.617	7.0
59.632	14.0
59.647	11.0
59.661	4.0
59.676	7.0
59.691	9.0
59.706	9.0
59.721	3.0
59.736	6.0
59.751	3.0
59.766	4.0
59.781	2.0
59.796	6.0
59.811	4.0
59.826	3.0
59.841	7.0
59.856	7.0
59.871	8.0
59.886	2.0
59.901	9.0
59.916	4.0
59.931	8.0
59.946	4.0
59.961	6.0
59.976	6.0
59.991	6.0
60.006	7.0
60.021	3.0
60.036	9.0
60.051	4.0
60.066	7.0
60.081	1.0
60.096	4.0
60.111	5.0
60.126	3.0
60.141	5.0
60.156	5.0
60.171	6.0
60.186	2.0
60.201	3.0
60.216	1.0
60.231	6.0
60.246	5.0
60.261	6.0
60.276	6.0
60.291	5.0
60.306	4.0
60.321	8.0
60.336	7.0
60.35	1.0
60.365	4.0
60.38	3.0
60.395	2.0
60.41	2.0
60.425	4.0
60.44	4.0
60.455	10.0
60.47	4.0
60.485	5.0
60.5	1.0
60.515	9.0
60.53	8.0
60.545	6.0
60.56	8.0
60.575	3.0
60.59	8.0
60.605	11.0
60.62	7.0
60.635	5.0
60.65	7.0
60.665	4.0
60.68	9.0
60.695	3.0
60.71	4.0
60.725	3.0
60.74	4.0
60.755	5.0
60.77	4.0
60.785	3.0
60.8	2.0
60.815	7.0
60.83	5.0
60.845	3.0
60.86	6.0
60.875	4.0
60.89	6.0
60.905	3.0
60.92	6.0
60.935	5.0
60.95	5.0
60.965	4.0
60.98	7.0
60.995	4.0
61.01	4.0
61.025	6.0
61.04	12.0
61.055	3.0
61.07	2.0
61.085	5.0
61.1	5.0
61.115	8.0
61.13	5.0
61.145	3.0
61.16	6.0
61.175	2.0
61.191	1.0
61.206	8.0
61.221	5.0
61.236	7.0
61.251	3.0
61.266	3.0
61.281	2.0
61.296	4.0
61.311	7.0
61.326	2.0
61.341	3.0
61.356	2.0
61.371	3.0
61.386	5.0
61.401	2.0
61.416	9.0
61.431	5.0
61.446	5.0
61.461	5.0
61.476	5.0
61.491	5.0
61.506	3.0
61.521	6.0
61.536	5.0
61.551	4.0
61.566	8.0
61.581	5.0
61.596	7.0
61.611	4.0
61.626	3.0
61.641	4.0
61.656	5.0
61.672	2.0
61.687	1.0
61.702	2.0
61.717	5.0
61.732	2.0
61.747	4.0
61.762	3.0
61.777	4.0
61.792	4.0
61.807	3.0
61.822	3.0
61.837	4.0
61.852	4.0
61.867	6.0
61.882	5.0
61.897	4.0
61.912	3.0
61.927	5.0
61.943	4.0
61.958	5.0
61.973	5.0
61.988	7.0
62.003	6.0
62.018	3.0
62.033	5.0
62.048	5.0
62.063	3.0
62.078	5.0
62.093	4.0
62.108	4.0
62.123	3.0
62.138	6.0
62.153	6.0
62.169	4.0
62.184	6.0
62.199	7.0
62.214	3.0
62.229	8.0
62.244	6.0
62.259	5.0
62.274	4.0
62.289	1.0
62.304	0.0
62.319	4.0
62.335	1.0
62.35	3.0
62.365	1.0
62.38	4.0
62.395	6.0
62.41	3.0
62.425	5.0
62.44	7.0
62.455	0.0
62.47	3.0
62.485	5.0
62.501	7.0
62.516	4.0
62.531	3.0
62.546	4.0
62.561	2.0
62.576	3.0
62.591	5.0
62.606	6.0
62.621	6.0
62.636	4.0
62.652	4.0
62.667	3.0
62.682	3.0
62.697	5.0
62.712	5.0
62.727	1.0
62.742	4.0
62.757	2.0
62.772	6.0
62.787	2.0
62.803	4.0
62.818	4.0
62.833	3.0
62.848	6.0
62.863	6.0
62.878	5.0
62.893	1.0
62.908	2.0
62.923	3.0
62.939	4.0
62.954	8.0
62.969	4.0
62.984	3.0
62.999	2.0
63.014	3.0
63.029	4.0
63.044	4.0
63.059	7.0
63.074	2.0
63.09	3.0
63.105	2.0
63.12	8.0
63.135	4.0
63.15	2.0
63.165	6.0
63.18	3.0
63.195	4.0
63.21	4.0
63.226	4.0
63.241	6.0
63.256	4.0
63.271	4.0
63.286	3.0
63.301	12.0
63.316	5.0
63.331	6.0
63.346	5.0
63.362	6.0
63.377	7.0
63.392	10.0
63.407	5.0
63.422	4.0
63.437	6.0
63.452	3.0
63.467	9.0
63.482	4.0
63.497	5.0
63.513	5.0
63.528	3.0
63.543	7.0
63.558	2.0
63.573	3.0
63.588	0.0
63.603	5.0
63.618	4.0
63.633	3.0
63.648	3.0
63.664	3.0
63.679	5.0
63.694	5.0
63.709	7.0
63.724	7.0
63.739	6.0
63.754	5.0
63.769	8.0
63.784	9.0
63.799	3.0
63.814	3.0
63.83	9.0
63.845	2.0
63.86	3.0
63.875	6.0
63.89	3.0
63.905	1.0
63.92	9.0
63.935	2.0
63.95	3.0
63.965	3.0
63.98	4.0
63.996	3.0
64.011	1.0
64.026	4.0
64.041	4.0
64.056	3.0
64.071	7.0
64.086	1.0
64.101	4.0
64.116	2.0
64.131	3.0
64.146	5.0
64.161	3.0
64.176	1.0
64.191	2.0
64.207	2.0
64.222	4.0
64.237	7.0
64.252	3.0
64.267	4.0
64.282	7.0
64.297	4.0
64.312	6.0
64.327	3.0
64.342	3.0
64.357	4.0
64.372	5.0
64.387	4.0
64.402	5.0
64.417	5.0
64.433	6.0
64.448	7.0
64.463	6.0
64.478	5.0
64.493	3.0
64.508	5.0
64.523	1.0
64.538	3.0
64.553	5.0
64.568	3.0
64.583	6.0
64.598	1.0
64.613	5.0
64.628	2.0
64.643	3.0
64.658	5.0
64.673	3.0
64.688	4.0
64.703	4.0
64.718	5.0
64.734	3.0
64.749	1.0
64.764	1.0
64.779	4.0
64.794	2.0
64.809	4.0
64.824	4.0
64.839	2.0
64.854	7.0
64.869	3.0
64.884	3.0
64.899	2.0
64.914	3.0
64.929	4.0
64.944	3.0
64.959	1.0
64.974	4.0
64.989	3.0
65.004	4.0
65.019	4.0
65.034	6.0
65.049	5.0
65.064	1.0
65.079	4.0
65.094	4.0
65.109	3.0
65.125	6.0
65.14	2.0
65.155	3.0
65.17	5.0
65.185	9.0
65.2	1.0
65.215	2.0
65.23	3.0
65.245	2.0
65.26	4.0
65.275	8.0
65.29	3.0
65.305	4.0
65.32	5.0
65.335	2.0
65.35	6.0
65.365	4.0
65.38	2.0
65.395	8.0
65.41	1.0
65.425	4.0
65.44	1.0
65.455	2.0
65.47	2.0
65.485	4.0
65.5	1.0
65.515	3.0
65.53	7.0
65.545	4.0
65.56	2.0
65.575	3.0
65.59	3.0
65.605	4.0
65.62	7.0
65.635	5.0
65.65	7.0
65.666	4.0
65.681	4.0
65.696	5.0
65.711	3.0
65.726	1.0
65.741	4.0
65.756	4.0
65.771	3.0
65.786	2.0
65.801	4.0
65.816	1.0
65.831	4.0
65.846	4.0
65.861	2.0
65.876	1.0
65.891	3.0
65.906	9.0
65.921	4.0
65.936	5.0
65.951	4.0
65.966	5.0
65.981	5.0
65.996	6.0
66.011	4.0
66.026	2.0
66.041	6.0
66.056	2.0
66.071	6.0
66.086	4.0
66.101	5.0
66.116	6.0
66.131	8.0
66.146	7.0
66.161	2.0
66.176	7.0
66.191	3.0
66.206	11.0
66.221	7.0
66.236	10.0
66.251	8.0
66.266	6.0
66.281	4.0
66.296	2.0
66.311	6.0
66.327	3.0
66.342	3.0
66.357	4.0
66.372	1.0
66.387	2.0
66.402	4.0
66.417	1.0
66.432	6.0
66.447	3.0
66.462	3.0
66.477	4.0
66.492	8.0
66.507	3.0
66.522	5.0
66.537	5.0
66.552	3.0
66.567	6.0
66.582	5.0
66.597	2.0
66.612	3.0
66.627	2.0
66.642	3.0
66.657	10.0
66.672	3.0
66.687	6.0
66.702	10.0
66.717	7.0
66.732	7.0
66.747	3.0
66.762	7.0
66.777	1.0
66.792	1.0
66.807	2.0
66.822	9.0
66.837	3.0
66.853	10.0
66.868	5.0
66.883	1.0
66.898	6.0
66.913	4.0
66.928	5.0
66.943	1.0
66.958	3.0
66.973	4.0
66.988	6.0
67.003	3.0
67.018	4.0
67.033	4.0
67.048	3.0
67.063	3.0
67.078	4.0
67.093	5.0
67.108	4.0
67.123	11.0
67.138	3.0
67.153	2.0
67.168	4.0
67.183	5.0
67.198	5.0
67.214	3.0
67.229	7.0
67.244	5.0
67.259	0.0
67.274	4.0
67.289	4.0
67.304	4.0
67.319	3.0
67.334	3.0
67.349	3.0
67.364	2.0
67.379	5.0
67.394	3.0
67.409	3.0
67.424	5.0
67.439	6.0
67.454	4.0
67.469	3.0
67.484	6.0
67.5	0.0
67.515	8.0
67.53	5.0
67.545	5.0
67.56	3.0
67.575	3.0
67.59	4.0
67.605	3.0
67.62	2.0
67.635	7.0
67.65	4.0
67.665	2.0
67.68	4.0
67.695	3.0
67.71	2.0
67.726	7.0
67.741	2.0
67.756	2.0
67.771	6.0
67.786	1.0
67.801	5.0
67.816	3.0
67.831	6.0
67.846	5.0
67.861	4.0
67.876	5.0
67.891	5.0
67.906	4.0
67.922	5.0
67.937	3.0
67.952	4.0
67.967	4.0
67.982	3.0
67.997	3.0
68.012	3.0
68.027	3.0
68.042	3.0
68.057	6.0
68.072	5.0
68.087	2.0
68.103	2.0
68.118	4.0
68.133	2.0
68.148	4.0
68.163	5.0
68.178	4.0
68.193	4.0
68.208	2.0
68.223	6.0
68.238	4.0
68.254	4.0
68.269	4.0
68.284	1.0
68.299	4.0
68.314	5.0
68.329	7.0
68.344	6.0
68.359	4.0
68.374	2.0
68.389	5.0
68.405	6.0
68.42	0.0
68.435	5.0
68.45	3.0
68.465	5.0
68.48	4.0
68.495	5.0
68.51	4.0
68.525	0.0
68.54	5.0
68.556	3.0
68.571	5.0
68.586	3.0
68.601	3.0
68.616	1.0
68.631	2.0
68.646	4.0
68.661	1.0
68.676	1.0
68.691	5.0
68.707	3.0
68.722	2.0
68.737	4.0
68.752	4.0
68.767	8.0
68.782	5.0
68.797	2.0
68.812	4.0
68.827	4.0
68.842	4.0
68.857	3.0
68.873	5.0
68.888	6.0
68.903	4.0
68.918	5.0
68.933	3.0
68.948	3.0
68.963	3.0
68.978	4.0
68.993	4.0
69.008	6.0
69.023	1.0
69.038	2.0
69.054	5.0
69.069	7.0
69.084	7.0
69.099	4.0
69.114	3.0
69.129	6.0
69.144	2.0
69.159	3.0
69.174	0.0
69.189	2.0
69.204	4.0
69.219	5.0
69.234	5.0
69.249	1.0
69.264	2.0
69.279	5.0
69.295	5.0
69.31	2.0
69.325	4.0
69.34	4.0
69.355	3.0
69.37	3.0
69.385	2.0
69.4	5.0
69.415	6.0
69.43	4.0
69.445	4.0
69.46	4.0
69.475	4.0
69.49	0.0
69.505	1.0
69.52	4.0
69.535	7.0
69.55	4.0
69.565	3.0
69.58	2.0
69.595	4.0
69.61	4.0
69.625	0.0
69.64	2.0
69.655	3.0
69.67	7.0
69.685	5.0
69.7	6.0
69.715	6.0
69.73	5.0
69.745	5.0
69.76	5.0
69.775	4.0
69.79	6.0
69.805	8.0
69.82	6.0
69.835	6.0
69.85	6.0
69.865	6.0
69.88	4.0
69.895	5.0
69.909	4.0
69.924	5.0
69.939	4.0
69.954	2.0
69.969	5.0
69.984	3.0
69.999	2.0
70.014	8.0
70.029	2.0
70.044	3.0
70.059	1.0
70.074	6.0
70.088	3.0
70.103	4.0
70.118	5.0
70.133	4.0
70.148	5.0
70.163	2.0
70.178	1.0
70.193	3.0
70.208	4.0
70.222	3.0
70.237	3.0
70.252	1.0
70.267	2.0
70.282	1.0
70.297	6.0
70.312	6.0
70.327	7.0
70.341	5.0
70.356	2.0
70.371	5.0
70.386	3.0
70.401	4.0
70.416	5.0
70.43	4.0
70.445	4.0
70.46	4.0
70.475	4.0
70.49	0.0
70.505	5.0
70.519	1.0
70.534	2.0
70.549	1.0
70.564	3.0
70.579	6.0
70.594	1.0
70.608	4.0
70.623	6.0
70.638	4.0
70.653	3.0
70.668	5.0
70.683	5.0
70.697	4.0
70.712	5.0
70.727	7.0
70.742	3.0
70.757	5.0
70.771	6.0
70.786	4.0
70.801	3.0
70.816	7.0
70.831	4.0
70.845	0.0
70.86	2.0
70.875	4.0
70.89	2.0
70.905	1.0
70.92	4.0
70.934	4.0
70.949	0.0
70.964	3.0
70.979	5.0
70.994	4.0
71.008	5.0
71.023	3.0
71.038	9.0
71.053	8.0
71.068	2.0
71.082	7.0
71.097	3.0
71.112	2.0
71.127	6.0
71.142	5.0
71.156	5.0
71.171	9.0
71.186	4.0
71.201	3.0
71.216	4.0
71.231	5.0
71.245	1.0
71.26	4.0
71.275	5.0
71.29	2.0
71.305	4.0
71.319	3.0
71.334	0.0
71.349	1.0
71.364	5.0
71.379	2.0
71.394	3.0
71.408	6.0
71.423	5.0
71.438	3.0
71.453	1.0
71.468	8.0
71.483	3.0
71.497	3.0
71.512	3.0
71.527	1.0
71.542	6.0
71.557	4.0
71.572	2.0
71.586	4.0
71.601	4.0
71.616	7.0
71.631	4.0
71.646	2.0
71.661	3.0
71.676	3.0
71.69	4.0
71.705	5.0
71.72	4.0
71.735	3.0
71.75	4.0
71.765	3.0
71.78	3.0
71.795	5.0
71.81	7.0
71.824	6.0
71.839	1.0
71.854	2.0
71.869	5.0
71.884	6.0
71.899	7.0
71.914	2.0
71.929	2.0
71.944	0.0
71.959	4.0
71.974	4.0
71.988	4.0
72.003	3.0
72.018	1.0
72.033	3.0
72.048	6.0
72.063	2.0
72.078	2.0
72.093	3.0
72.108	1.0
72.123	4.0
72.138	2.0
72.153	4.0
72.168	2.0
72.183	3.0
72.198	2.0
72.213	2.0
72.228	2.0
72.243	0.0
72.258	3.0
72.273	2.0
72.288	1.0
72.303	1.0
72.318	5.0
72.333	3.0
72.348	3.0
72.363	4.0
72.378	2.0
72.393	4.0
72.408	3.0
72.423	7.0
72.438	4.0
72.453	4.0
72.468	3.0
72.483	2.0
72.498	3.0
72.513	3.0
72.528	5.0
72.543	2.0
72.558	8.0
72.573	2.0
72.588	4.0
72.603	4.0
72.618	2.0
72.633	5.0
72.649	1.0
72.664	1.0
72.679	3.0
72.694	1.0
72.709	2.0
72.724	2.0
72.739	4.0
72.754	2.0
72.769	3.0
72.784	4.0
72.799	1.0
72.814	3.0
72.829	4.0
72.845	2.0
72.86	2.0
72.875	6.0
72.89	0.0
72.905	6.0
72.92	4.0
72.935	3.0
72.95	1.0
72.965	2.0
72.98	6.0
72.996	1.0
73.011	2.0
73.026	6.0
73.041	2.0
73.056	2.0
73.071	4.0
73.086	2.0
73.101	4.0
73.117	3.0
73.132	1.0
73.147	4.0
73.162	4.0
73.177	0.0
73.192	4.0
73.207	3.0
73.222	6.0
73.238	5.0
73.253	6.0
73.268	2.0
73.283	7.0
73.298	2.0
73.313	3.0
73.328	8.0
73.343	5.0
73.359	7.0
73.374	2.0
73.389	4.0
73.404	1.0
73.419	2.0
73.434	4.0
73.449	7.0
73.465	2.0
73.48	4.0
73.495	7.0
73.51	2.0
73.525	3.0
73.54	9.0
73.556	4.0
73.571	5.0
73.586	1.0
73.601	4.0
73.616	2.0
73.631	4.0
73.646	3.0
73.662	0.0
73.677	6.0
73.692	2.0
73.707	2.0
73.722	4.0
73.737	7.0
73.752	4.0
73.768	7.0
73.783	3.0
73.798	2.0
73.813	5.0
73.828	6.0
73.843	5.0
73.859	3.0
73.874	2.0
73.889	2.0
73.904	1.0
73.919	2.0
73.934	5.0
73.949	7.0
73.965	4.0
73.98	3.0
73.995	4.0
74.01	3.0
74.025	5.0
74.04	2.0
74.056	3.0
74.071	2.0
74.086	9.0
74.101	5.0
74.116	6.0
74.131	6.0
74.146	4.0
74.162	4.0
74.177	6.0
74.192	6.0
74.207	4.0
74.222	7.0
74.237	6.0
74.252	6.0
74.268	3.0
74.283	0.0
74.298	4.0
74.313	4.0
74.328	5.0
74.343	2.0
74.358	6.0
74.374	2.0
74.389	1.0
74.404	3.0
74.419	2.0
74.434	1.0
74.449	8.0
74.464	4.0
74.48	2.0
74.495	3.0
74.51	5.0
74.525	2.0
74.54	0.0
74.555	3.0
74.57	5.0
74.586	3.0
74.601	4.0
74.616	5.0
74.631	4.0
74.646	6.0
74.661	3.0
74.676	4.0
74.691	5.0
74.707	4.0
74.722	6.0
74.737	4.0
74.752	5.0
74.767	3.0
74.782	3.0
74.797	5.0
74.813	3.0
74.828	1.0
74.843	2.0
74.858	2.0
74.873	2.0
74.888	4.0
74.903	6.0
74.918	6.0
74.934	3.0
74.949	1.0
74.964	1.0
74.979	4.0
74.994	6.0
75.009	3.0
75.024	8.0
75.04	3.0
75.055	4.0
75.07	6.0
75.085	4.0
75.1	7.0
75.115	3.0
75.13	4.0
75.145	4.0
75.161	4.0
75.176	3.0
75.191	2.0
75.206	3.0
75.221	2.0
75.236	3.0
75.251	1.0
75.266	5.0
75.282	1.0
75.297	3.0
75.312	4.0
75.327	2.0
75.342	2.0
75.357	1.0
75.372	8.0
75.387	1.0
75.403	2.0
75.418	4.0
75.433	1.0
75.448	3.0
75.463	3.0
75.478	1.0
75.493	2.0
75.509	4.0
75.524	1.0
75.539	3.0
75.554	3.0
75.569	3.0
75.584	3.0
75.599	5.0
75.614	6.0
75.63	2.0
75.645	5.0
75.66	3.0
75.675	3.0
75.69	4.0
75.705	5.0
75.72	4.0
75.735	2.0
75.751	1.0
75.766	3.0
75.781	2.0
75.796	3.0
75.811	5.0
75.826	5.0
75.841	5.0
75.856	4.0
75.872	5.0
75.887	4.0
75.902	6.0
75.917	5.0
75.932	4.0
75.947	7.0
75.962	4.0
75.977	7.0
75.993	1.0
76.008	4.0
76.023	2.0
76.038	3.0
76.053	7.0
76.068	3.0
76.083	0.0
76.098	2.0
76.114	3.0
76.129	2.0
76.144	4.0
76.159	5.0
76.174	0.0
76.189	6.0
76.204	4.0
76.22	2.0
76.235	2.0
76.25	1.0
76.265	8.0
76.28	4.0
76.295	8.0
76.31	0.0
76.325	3.0
76.341	0.0
76.356	4.0
76.371	3.0
76.386	7.0
76.401	1.0
76.416	4.0
76.431	3.0
76.446	4.0
76.462	4.0
76.477	1.0
76.492	1.0
76.507	6.0
76.522	5.0
76.537	4.0
76.552	1.0
76.567	4.0
76.583	2.0
76.598	3.0
76.613	2.0
76.628	5.0
76.643	1.0
76.658	7.0
76.673	6.0
76.688	5.0
76.704	4.0
76.719	2.0
76.734	3.0
76.749	3.0
76.764	3.0
76.779	8.0
76.794	4.0
76.809	3.0
76.824	3.0
76.84	3.0
76.855	4.0
76.87	5.0
76.885	6.0
76.9	3.0
76.915	1.0
76.93	4.0
76.945	1.0
76.96	5.0
76.976	4.0
76.991	9.0
77.006	2.0
77.021	3.0
77.036	5.0
77.051	1.0
77.066	3.0
77.081	5.0
77.096	4.0
77.112	0.0
77.127	5.0
77.142	3.0
77.157	4.0
77.172	4.0
77.187	5.0
77.202	5.0
77.217	4.0
77.232	5.0
77.247	6.0
77.263	6.0
77.278	2.0
77.293	4.0
77.308	1.0
77.323	5.0
77.338	2.0
77.353	8.0
77.368	1.0
77.383	1.0
77.398	5.0
77.413	1.0
77.428	4.0
77.444	4.0
77.459	3.0
77.474	10.0
77.489	2.0
77.504	3.0
77.519	5.0
77.534	6.0
77.549	1.0
77.564	2.0
77.579	8.0
77.594	3.0
77.609	9.0
77.624	2.0
77.64	2.0
77.655	8.0
77.67	7.0
77.685	1.0
77.7	3.0
77.715	0.0
77.73	5.0
77.745	2.0
77.76	3.0
77.775	0.0
77.79	5.0
77.805	3.0
77.82	1.0
77.835	0.0
77.85	3.0
77.865	3.0
77.88	4.0
77.895	1.0
77.91	6.0
77.926	0.0
77.941	3.0
77.956	3.0
77.971	0.0
77.986	2.0
78.001	2.0
78.016	0.0
78.031	3.0
78.046	1.0
78.061	5.0
78.076	2.0
78.091	5.0
78.106	2.0
78.121	7.0
78.136	3.0
78.151	1.0
78.166	5.0
78.181	8.0
78.196	4.0
78.211	3.0
78.226	2.0
78.241	4.0
78.256	2.0
78.271	4.0
78.286	9.0
78.301	4.0
78.316	1.0
78.331	2.0
78.346	4.0
78.361	3.0
78.376	2.0
78.391	3.0
78.406	4.0
78.421	2.0
78.436	2.0
78.451	2.0
78.466	3.0
78.481	3.0
78.496	0.0
78.511	5.0
78.526	2.0
78.541	2.0
78.556	3.0
78.571	2.0
78.586	3.0
78.601	1.0
78.616	3.0
78.631	7.0
78.646	3.0
78.661	2.0
78.676	2.0
78.691	2.0
78.706	1.0
78.721	1.0
78.736	0.0
78.751	2.0
78.766	2.0
78.781	1.0
78.796	2.0
78.811	3.0
78.826	3.0
78.841	3.0
78.856	2.0
78.871	2.0
78.885	4.0
78.9	3.0
78.915	0.0
78.93	0.0
78.945	4.0
78.96	1.0
78.975	4.0
78.99	4.0
79.005	1.0
79.02	4.0
79.035	1.0
79.05	3.0
79.065	2.0
79.08	2.0
79.095	3.0
79.11	6.0
79.125	2.0
79.14	3.0
79.155	2.0
79.17	2.0
79.185	1.0
79.2	6.0
79.215	2.0
79.23	3.0
79.245	6.0
79.26	4.0
79.275	1.0
79.29	4.0
79.304	3.0
79.319	3.0
79.334	0.0
79.349	3.0
79.364	5.0
79.379	5.0
79.394	4.0
79.409	2.0
79.424	6.0
79.439	4.0
79.454	7.0
79.469	4.0
79.484	2.0
79.499	5.0
79.514	5.0
79.529	4.0
79.544	4.0
79.559	1.0
79.574	2.0
79.589	3.0
79.604	3.0
79.619	3.0
79.634	3.0
79.649	3.0
79.664	5.0
79.679	2.0
79.693	5.0
79.708	4.0
79.723	3.0
79.738	3.0
79.753	6.0
79.768	5.0
79.783	3.0
79.798	6.0
79.813	6.0
79.828	3.0
79.843	7.0
79.858	1.0
79.873	4.0
79.888	1.0
79.903	2.0
79.918	6.0
79.933	1.0
79.948	2.0
79.963	0.0
79.978	2.0
79.993	3.0
80.008	5.0
80.023	5.0
80.038	2.0
80.053	1.0
80.068	2.0
80.083	0.0
80.098	4.0
80.113	1.0
80.128	3.0
80.143	3.0
80.158	1.0
80.173	5.0
80.188	1.0
80.202	5.0
80.217	2.0
80.232	5.0
80.247	3.0
80.262	5.0
80.277	4.0
80.292	3.0
80.307	4.0
80.322	2.0
80.337	3.0
80.352	2.0
80.367	4.0
80.382	3.0
80.397	3.0
80.412	1.0
80.427	1.0
80.442	3.0
80.457	0.0
80.472	3.0
80.487	3.0
80.502	3.0
80.517	1.0
80.532	3.0
80.547	2.0
80.562	2.0
80.577	6.0
80.592	3.0
80.607	2.0
80.622	3.0
80.637	1.0
80.652	4.0
80.667	4.0
80.682	8.0
80.697	3.0
80.712	1.0
80.727	0.0
80.742	3.0
80.757	3.0
80.772	4.0
80.787	4.0
80.802	2.0
80.817	3.0
80.832	3.0
80.847	2.0
80.862	1.0
80.877	2.0
80.892	0.0
80.907	3.0
80.922	4.0
80.937	2.0
80.952	5.0
80.967	2.0
80.982	4.0
80.997	2.0
81.012	5.0
81.027	5.0
81.042	4.0
81.057	2.0
81.072	5.0
81.087	4.0
81.101	4.0
81.116	2.0
81.131	4.0
81.146	2.0
81.161	3.0
81.176	5.0
81.191	2.0
81.206	2.0
81.221	2.0
81.236	2.0
81.251	3.0
81.266	2.0
81.281	2.0
81.296	1.0
81.311	2.0
81.326	7.0
81.341	4.0
81.356	0.0
81.371	4.0
81.386	2.0
81.401	5.0
81.416	2.0
81.431	4.0
81.446	4.0
81.461	1.0
81.476	3.0
81.491	1.0
81.506	5.0
81.521	2.0
81.536	1.0
81.55	3.0
81.565	4.0
81.58	2.0
81.595	0.0
81.61	3.0
81.625	3.0
81.64	4.0
81.655	4.0
81.67	1.0
81.685	2.0
81.7	4.0
81.715	3.0
81.73	2.0
81.745	2.0
81.76	6.0
81.775	4.0
81.79	3.0
81.805	3.0
81.819	4.0
81.834	1.0
81.849	4.0
81.864	3.0
81.879	8.0
81.894	4.0
81.909	10.0
81.924	2.0
81.939	5.0
81.954	3.0
81.969	2.0
81.984	3.0
81.999	1.0
82.013	2.0
82.028	4.0
82.043	4.0
82.058	3.0
82.073	5.0
82.088	6.0
82.103	3.0
82.118	1.0
82.133	4.0
82.148	2.0
82.163	3.0
82.177	3.0
82.192	0.0
82.207	1.0
82.222	3.0
82.237	1.0
82.252	6.0
82.267	2.0
82.282	6.0
82.297	5.0
82.312	2.0
82.326	2.0
82.341	4.0
82.356	5.0
82.371	2.0
82.386	3.0
82.401	4.0
82.416	2.0
82.431	1.0
82.445	2.0
82.46	6.0
82.475	1.0
82.49	4.0
82.505	3.0
82.52	3.0
82.535	5.0
82.55	3.0
82.565	4.0
82.579	2.0
82.594	5.0
82.609	2.0
82.624	3.0
82.639	9.0
82.654	5.0
82.669	1.0
82.684	4.0
82.698	1.0
82.713	4.0
82.728	3.0
82.743	1.0
82.758	5.0
82.773	4.0
82.788	1.0
82.803	3.0
82.817	4.0
82.832	4.0
82.847	3.0
82.862	5.0
82.877	2.0
82.892	3.0
82.907	1.0
82.922	3.0
82.937	3.0
82.951	4.0
82.966	1.0
82.981	1.0
82.996	3.0
83.011	6.0
83.026	2.0
83.041	4.0
83.056	4.0
83.07	1.0
83.085	3.0
83.1	6.0
83.115	5.0
83.13	3.0
83.145	2.0
83.16	1.0
83.175	3.0
83.19	4.0
83.204	3.0
83.219	4.0
83.234	6.0
83.249	8.0
83.264	2.0
83.279	3.0
83.294	2.0
83.309	5.0
83.324	1.0
83.339	4.0
83.353	4.0
83.368	3.0
83.383	1.0
83.398	6.0
83.413	1.0
83.428	5.0
83.443	4.0
83.458	2.0
83.473	0.0
83.488	1.0
83.503	3.0
83.517	3.0
83.532	6.0
83.547	9.0
83.562	3.0
83.577	1.0
83.592	1.0
83.607	5.0
83.622	7.0
83.637	4.0
83.652	0.0
83.667	0.0
83.682	1.0
83.697	2.0
83.712	5.0
83.727	4.0
83.741	2.0
83.756	5.0
83.771	2.0
83.786	2.0
83.801	2.0
83.816	1.0
83.831	2.0
83.846	3.0
83.861	2.0
83.876	6.0
83.891	0.0
83.906	5.0
83.921	3.0
83.936	5.0
83.951	3.0
83.966	1.0
83.981	2.0
83.996	5.0
84.011	2.0
84.026	1.0
84.041	4.0
84.056	3.0
84.071	4.0
84.086	1.0
84.101	2.0
84.116	4.0
84.131	2.0
84.146	4.0
84.161	3.0
84.176	4.0
84.191	9.0
84.206	5.0
84.221	3.0
84.236	2.0
84.251	2.0
84.266	2.0
84.281	3.0
84.296	3.0
84.311	2.0
84.326	3.0
84.341	5.0
84.356	2.0
84.371	4.0
84.386	3.0
84.401	2.0
84.416	4.0
84.431	4.0
84.446	2.0
84.461	5.0
84.476	4.0
84.492	1.0
84.507	3.0
84.522	4.0
84.537	1.0
84.552	3.0
84.567	5.0
84.582	5.0
84.597	7.0
84.612	3.0
84.627	5.0
84.642	1.0
84.657	4.0
84.672	4.0
84.687	1.0
84.702	5.0
84.717	5.0
84.733	0.0
84.748	3.0
84.763	3.0
84.778	1.0
84.793	5.0
84.808	2.0
84.823	4.0
84.838	1.0
84.853	2.0
84.868	3.0
84.883	3.0
84.898	2.0
84.913	3.0
84.929	4.0
84.944	2.0
84.959	4.0
84.974	2.0
84.989	4.0
85.004	1.0
85.019	4.0
85.034	3.0
85.049	5.0
85.064	5.0
85.079	0.0
85.094	7.0
85.11	4.0
85.125	2.0
85.14	4.0
85.155	0.0
85.17	4.0
85.185	3.0
85.2	3.0
85.215	6.0
85.23	3.0
85.245	5.0
85.26	3.0
85.276	3.0
85.291	1.0
85.306	4.0
85.321	5.0
85.336	3.0
85.351	8.0
85.366	3.0
85.381	5.0
85.396	3.0
85.411	5.0
85.426	5.0
85.441	2.0
85.457	2.0
85.472	2.0
85.487	2.0
85.502	2.0
85.517	4.0
85.532	4.0
85.547	0.0
85.562	2.0
85.577	4.0
85.592	3.0
85.607	2.0
85.622	1.0
85.637	1.0
85.653	2.0
85.668	1.0
85.683	2.0
85.698	5.0
85.713	3.0
85.728	2.0
85.743	5.0
85.758	3.0
85.773	2.0
85.788	3.0
85.803	0.0
85.818	0.0
85.833	3.0
85.848	2.0
85.863	1.0
85.879	3.0
85.894	5.0
85.909	2.0
85.924	6.0
85.939	1.0
85.954	3.0
85.969	1.0
85.984	7.0
85.999	3.0
86.014	3.0
86.029	1.0
86.044	3.0
86.059	5.0
86.074	3.0
86.089	6.0
86.104	3.0
86.119	1.0
86.134	4.0
86.149	4.0
86.164	2.0
86.179	1.0
86.194	5.0
86.209	6.0
86.224	5.0
86.239	3.0
86.254	6.0
86.269	2.0
86.284	0.0
86.299	2.0
86.314	1.0
86.33	1.0
86.345	4.0
86.36	5.0
86.375	5.0
86.39	5.0
86.405	2.0
86.42	2.0
86.435	2.0
86.45	4.0
86.465	4.0
86.48	7.0
86.495	2.0
86.51	4.0
86.525	5.0
86.54	7.0
86.555	4.0
86.57	2.0
86.585	3.0
86.6	3.0
86.615	1.0
86.63	3.0
86.645	3.0
86.659	1.0
86.674	5.0
86.689	2.0
86.704	1.0
86.719	3.0
86.734	9.0
86.749	4.0
86.764	3.0
86.779	4.0
86.794	3.0
86.809	5.0
86.824	3.0
86.839	3.0
86.854	9.0
86.869	1.0
86.884	3.0
86.899	4.0
86.914	2.0
86.929	3.0
86.944	2.0
86.959	2.0
86.974	5.0
86.989	7.0
87.004	3.0
87.019	3.0
87.034	3.0
87.049	3.0
87.064	5.0
87.079	3.0
87.094	7.0
87.109	4.0
87.124	3.0
87.139	2.0
87.154	2.0
87.169	5.0
87.184	4.0
87.199	1.0
87.214	2.0
87.229	2.0
87.244	4.0
87.259	3.0
87.274	0.0
87.289	0.0
87.304	1.0
87.319	4.0
87.334	1.0
87.349	6.0
87.364	4.0
87.379	1.0
87.394	2.0
87.409	1.0
87.424	6.0
87.438	5.0
87.453	1.0
87.468	1.0
87.483	4.0
87.498	5.0
87.513	4.0
87.528	4.0
87.543	0.0
87.558	4.0
87.573	5.0
87.588	7.0
87.603	5.0
87.618	4.0
87.633	2.0
87.648	6.0
87.663	7.0
87.678	2.0
87.693	7.0
87.708	5.0
87.723	5.0
87.738	2.0
87.753	6.0
87.768	4.0
87.783	5.0
87.798	7.0
87.813	3.0
87.828	4.0
87.843	5.0
87.858	3.0
87.873	6.0
87.888	4.0
87.903	2.0
87.918	1.0
87.933	5.0
87.948	5.0
87.963	0.0
87.978	1.0
87.993	2.0
88.008	0.0
88.023	1.0
88.038	2.0
88.053	3.0
88.068	4.0
88.083	4.0
88.098	2.0
88.113	3.0
88.128	4.0
88.143	0.0
88.158	4.0
88.174	1.0
88.189	5.0
88.204	4.0
88.219	5.0
88.234	4.0
88.249	5.0
88.264	2.0
88.279	4.0
88.294	3.0
88.309	3.0
88.324	1.0
88.339	3.0
88.354	5.0
88.369	8.0
88.384	6.0
88.399	5.0
88.414	5.0
88.429	2.0
88.444	6.0
88.459	3.0
88.474	2.0
88.489	3.0
88.504	3.0
88.519	5.0
88.534	3.0
88.549	4.0
88.564	3.0
88.58	3.0
88.595	6.0
88.61	3.0
88.625	1.0
88.64	5.0
88.655	2.0
88.67	1.0
88.685	0.0
88.7	3.0
88.715	3.0
88.73	2.0
88.745	3.0
88.76	4.0
88.775	1.0
88.79	1.0
88.805	0.0
88.82	2.0
88.835	4.0
88.85	2.0
88.865	4.0
88.88	1.0
88.895	1.0
88.911	3.0
88.926	2.0
88.941	7.0
88.956	3.0
88.971	1.0
88.986	3.0
89.001	1.0
89.016	0.0
89.031	8.0
89.046	2.0
89.061	5.0
89.076	0.0
89.091	5.0
89.106	2.0
89.121	1.0
89.136	1.0
89.151	5.0
89.166	1.0
89.181	3.0
89.196	2.0
89.211	4.0
89.227	1.0
89.242	5.0
89.257	3.0
89.272	7.0
89.287	3.0
89.302	3.0
89.317	2.0
89.332	2.0
89.347	3.0
89.362	5.0
89.377	4.0
89.392	2.0
89.407	3.0
89.422	4.0
89.437	1.0
89.452	1.0
89.467	5.0
89.482	5.0
89.497	5.0
89.512	1.0
89.527	3.0
89.542	2.0
89.557	2.0
89.572	3.0
89.587	3.0
89.602	2.0
89.617	2.0
89.632	3.0
89.647	2.0
89.662	3.0
89.677	4.0
89.693	6.0
89.708	2.0
89.723	3.0
89.738	6.0
89.753	3.0
89.768	3.0
89.783	5.0
89.798	6.0
89.813	4.0
89.828	3.0
89.843	5.0
89.858	4.0
89.873	3.0
89.888	5.0
89.903	1.0
89.918	1.0
89.933	1.0
89.948	2.0
89.963	5.0
89.978	5.0
89.993	3.0
90.008	0.0
90.023	3.0
90.038	3.0
90.053	5.0
90.068	6.0
90.083	2.0
90.097	3.0
90.112	3.0
90.127	3.0
90.142	3.0
90.157	0.0
90.172	2.0
90.187	4.0
90.202	2.0
90.217	3.0
90.232	3.0
90.247	1.0
90.262	4.0
90.277	2.0
90.292	4.0
90.307	4.0
90.322	5.0
90.337	1.0
90.352	3.0
90.367	3.0
90.382	5.0
90.397	4.0
90.412	0.0
90.427	1.0
90.442	2.0
90.457	1.0
90.472	5.0
90.487	5.0
90.501	3.0
90.516	5.0
90.531	3.0
90.546	3.0
90.561	2.0
90.576	3.0
90.591	2.0
90.606	2.0
90.621	3.0
90.636	2.0
90.651	2.0
90.666	4.0
90.681	1.0
90.696	4.0
90.711	2.0
90.726	1.0
90.741	1.0
90.755	2.0
90.77	2.0
90.785	2.0
90.8	3.0
90.815	6.0
90.83	4.0
90.845	0.0
90.86	5.0
90.875	2.0
90.89	2.0
90.905	2.0
90.92	3.0
90.935	6.0
90.95	5.0
90.965	3.0
90.979	6.0
90.994	2.0
91.009	10.0
91.024	3.0
91.039	3.0
91.054	1.0
91.069	2.0
91.084	1.0
91.099	6.0
91.114	0.0
91.129	3.0
91.144	3.0
91.159	1.0
91.174	4.0
91.188	2.0
91.203	4.0
91.218	3.0
91.233	4.0
91.248	3.0
91.263	3.0
91.278	4.0
91.293	2.0
91.308	5.0
91.323	1.0
91.338	4.0
91.353	4.0
91.368	3.0
91.383	3.0
91.398	3.0
91.412	4.0
91.427	1.0
91.442	4.0
91.457	3.0
91.472	3.0
91.487	1.0
91.502	4.0
91.517	4.0
91.532	5.0
91.547	1.0
91.562	1.0
91.577	2.0
91.592	1.0
91.607	3.0
91.622	5.0
91.637	2.0
91.652	2.0
91.666	4.0
91.681	2.0
91.696	4.0
91.711	5.0
91.726	4.0
91.741	1.0
91.756	3.0
91.771	3.0
91.786	3.0
91.801	5.0
91.816	3.0
91.831	3.0
91.846	2.0
91.861	3.0
91.876	1.0
91.891	3.0
91.906	2.0
91.921	3.0
91.936	4.0
91.951	2.0
91.966	6.0
91.981	5.0
91.995	4.0
92.01	5.0
92.025	2.0
92.04	3.0
92.055	6.0
92.07	0.0
92.085	0.0
92.1	4.0
92.115	5.0
92.13	2.0
92.145	4.0
92.16	2.0
92.175	2.0
92.19	3.0
92.205	5.0
92.22	2.0
92.235	1.0
92.25	4.0
92.265	1.0
92.28	3.0
92.295	2.0
92.31	2.0
92.325	1.0
92.34	5.0
92.355	2.0
92.37	0.0
92.385	4.0
92.4	3.0
92.415	0.0
92.43	4.0
92.445	5.0
92.46	5.0
92.475	5.0
92.49	2.0
92.505	1.0
92.52	3.0
92.535	2.0
92.55	5.0
92.565	4.0
92.58	6.0
92.595	8.0
92.61	1.0
92.625	5.0
92.64	5.0
92.655	4.0
92.67	2.0
92.685	1.0
92.7	2.0
92.715	2.0
92.73	1.0
92.745	2.0
92.76	2.0
92.775	2.0
92.79	2.0
92.805	3.0
92.82	4.0
92.835	1.0
92.85	2.0
92.865	3.0
92.88	5.0
92.895	1.0
92.91	2.0
92.925	4.0
92.94	0.0
92.955	3.0
92.97	5.0
92.985	2.0
93.0	1.0
93.015	3.0
93.03	3.0
93.045	2.0
93.06	2.0
93.075	2.0
93.09	3.0
93.105	1.0
93.12	5.0
93.135	2.0
93.15	4.0
93.165	3.0
93.18	3.0
93.195	2.0
93.21	3.0
93.225	5.0
93.24	1.0
93.255	2.0
93.27	3.0
93.285	4.0
93.3	3.0
93.315	0.0
93.33	4.0
93.345	5.0
93.36	4.0
93.375	2.0
93.39	4.0
93.405	3.0
93.42	3.0
93.435	1.0
93.45	2.0
93.465	7.0
93.48	8.0
93.495	2.0
93.51	6.0
93.525	6.0
93.54	2.0
93.555	5.0
93.57	5.0
93.585	7.0
93.6	2.0
93.615	4.0
93.63	3.0
93.645	0.0
93.66	1.0
93.675	0.0
93.69	0.0
93.705	1.0
93.72	6.0
93.735	2.0
93.75	2.0
93.765	3.0
93.78	5.0
93.795	3.0
93.81	4.0
93.824	3.0
93.839	1.0
93.854	3.0
93.869	1.0
93.884	3.0
93.899	2.0
93.914	1.0
93.929	2.0
93.944	1.0
93.959	1.0
93.974	3.0
93.989	2.0
94.004	6.0
94.019	1.0
94.034	4.0
94.049	3.0
94.064	1.0
94.079	2.0
94.094	3.0
94.108	6.0
94.123	3.0
94.138	1.0
94.153	6.0
94.168	1.0
94.183	1.0
94.198	3.0
94.213	3.0
94.228	1.0
94.243	3.0
94.258	6.0
94.273	1.0
94.288	3.0
94.302	5.0
94.317	4.0
94.332	3.0
94.347	4.0
94.362	5.0
94.377	3.0
94.392	7.0
94.407	4.0
94.422	6.0
94.437	3.0
94.452	5.0
94.466	6.0
94.481	4.0
94.496	7.0
94.511	2.0
94.526	1.0
94.541	4.0
94.556	4.0
94.571	2.0
94.586	3.0
94.601	4.0
94.615	4.0
94.63	10.0
94.645	2.0
94.66	5.0
94.675	1.0
94.69	4.0
94.705	5.0
94.72	6.0
94.735	1.0
94.749	5.0
94.764	2.0
94.779	2.0
94.794	3.0
94.809	3.0
94.824	1.0
94.839	6.0
94.854	2.0
94.868	2.0
94.883	2.0
94.898	3.0
94.913	1.0
94.928	6.0
94.943	5.0
94.958	3.0
94.973	2.0
94.987	3.0
95.002	4.0
95.017	6.0
95.032	1.0
95.047	5.0
95.062	3.0
95.077	4.0
95.092	3.0
95.106	3.0
95.121	3.0
95.136	5.0
95.151	4.0
95.166	8.0
95.181	7.0
95.196	5.0
95.211	5.0
95.226	4.0
95.24	7.0
95.255	5.0
95.27	1.0
95.285	4.0
95.3	1.0
95.315	4.0
95.33	5.0
95.345	6.0
95.359	2.0
95.374	5.0
95.389	4.0
95.404	3.0
95.419	3.0
95.434	3.0
95.449	3.0
95.464	2.0
95.478	7.0
95.493	3.0
95.508	3.0
95.523	3.0
95.538	3.0
95.553	1.0
95.568	5.0
95.583	4.0
95.597	3.0
95.612	5.0
95.627	5.0
95.642	2.0
95.657	3.0
95.672	3.0
95.687	2.0
95.702	6.0
95.717	6.0
95.731	5.0
95.746	3.0
95.761	5.0
95.776	4.0
95.791	3.0
95.806	3.0
95.821	0.0
95.836	1.0
95.851	2.0
95.866	3.0
95.88	1.0
95.895	4.0
95.91	3.0
95.925	0.0
95.94	1.0
95.955	6.0
95.97	2.0
95.985	4.0
96.0	3.0
96.015	3.0
96.029	4.0
96.044	5.0
96.059	8.0
96.074	4.0
96.089	3.0
96.104	1.0
96.119	5.0
96.134	2.0
96.149	6.0
96.164	4.0
96.179	5.0
96.194	2.0
96.208	8.0
96.223	1.0
96.238	1.0
96.253	4.0
96.268	3.0
96.283	3.0
96.298	2.0
96.313	3.0
96.328	1.0
96.343	1.0
96.358	2.0
96.373	1.0
96.388	1.0
96.403	5.0
96.417	2.0
96.432	1.0
96.447	3.0
96.462	2.0
96.477	2.0
96.492	2.0
96.507	4.0
96.522	2.0
96.537	2.0
96.552	10.0
96.567	3.0
96.582	3.0
96.597	5.0
96.612	5.0
96.627	1.0
96.642	3.0
96.656	3.0
96.671	4.0
96.686	0.0
96.701	2.0
96.716	2.0
96.731	4.0
96.746	4.0
96.761	2.0
96.776	5.0
96.791	2.0
96.806	4.0
96.821	3.0
96.836	3.0
96.851	5.0
96.866	6.0
96.881	2.0
96.896	1.0
96.911	1.0
96.926	2.0
96.94	7.0
96.955	8.0
96.97	2.0
96.985	5.0
97.0	1.0
97.015	2.0
97.03	2.0
97.045	3.0
97.06	4.0
97.075	5.0
97.09	3.0
97.105	1.0
97.12	3.0
97.135	4.0
97.15	4.0
97.165	0.0
97.18	0.0
97.195	4.0
97.21	5.0
97.225	2.0
97.239	3.0
97.254	4.0
97.269	0.0
97.284	9.0
97.299	4.0
97.314	3.0
97.329	6.0
97.344	2.0
97.359	2.0
97.374	1.0
97.389	4.0
97.404	3.0
97.419	4.0
97.434	1.0
97.449	4.0
97.464	6.0
97.479	3.0
97.494	2.0
97.509	7.0
97.524	2.0
97.538	5.0
97.553	3.0
97.568	2.0
97.583	4.0
97.598	6.0
97.613	0.0
97.628	6.0
97.643	3.0
97.658	0.0
97.673	1.0
97.688	4.0
97.703	5.0
97.718	4.0
97.733	5.0
97.748	6.0
97.763	3.0
97.778	3.0
97.792	5.0
97.807	5.0
97.822	1.0
97.837	4.0
97.852	1.0
97.867	1.0
97.882	2.0
97.897	1.0
97.912	2.0
97.927	2.0
97.942	7.0
97.957	3.0
97.972	7.0
97.987	1.0
98.001	0.0
98.016	3.0
98.031	4.0
98.046	5.0
98.061	1.0
98.076	4.0
98.091	3.0
98.106	3.0
98.121	0.0
98.136	3.0
98.151	2.0
98.166	2.0
98.181	2.0
98.195	3.0
98.21	7.0
98.225	3.0
98.24	4.0
98.255	4.0
98.27	0.0
98.285	3.0
98.3	2.0
98.315	2.0
98.33	2.0
98.345	2.0
98.359	2.0
98.374	5.0
98.389	1.0
98.404	3.0
98.419	2.0
98.434	2.0
98.449	4.0
98.464	3.0
98.479	5.0
98.494	4.0
98.508	2.0
98.523	1.0
98.538	5.0
98.553	3.0
98.568	2.0
98.583	2.0
98.598	4.0
98.613	4.0
98.628	2.0
98.642	2.0
98.657	2.0
98.672	2.0
98.687	4.0
98.702	4.0
98.717	1.0
98.732	5.0
98.747	2.0
98.762	3.0
98.776	0.0
98.791	3.0
98.806	2.0
98.821	2.0
98.836	3.0
98.851	5.0
98.866	2.0
98.881	6.0
98.896	3.0
98.91	4.0
98.925	5.0
98.94	4.0
98.955	4.0
98.97	2.0
98.985	2.0
99.0	5.0
99.015	3.0
99.029	2.0
99.044	4.0
99.059	1.0
99.074	0.0
99.089	3.0
99.104	3.0
99.119	2.0
99.133	6.0
99.148	5.0
99.163	1.0
99.178	2.0
99.193	3.0
99.208	2.0
99.223	1.0
99.238	1.0
99.252	4.0
99.267	2.0
99.282	3.0
99.297	6.0
99.312	8.0
99.327	3.0
99.342	2.0
99.356	5.0
99.371	6.0
99.386	5.0
99.401	2.0
99.416	3.0
99.431	1.0
99.446	6.0
99.461	6.0
99.475	3.0
99.49	2.0
99.505	2.0
99.52	7.0
99.535	2.0
99.55	2.0
99.565	3.0
99.579	4.0
99.594	5.0
99.609	3.0
99.624	1.0
99.639	1.0
99.654	0.0
99.669	5.0
99.683	1.0
99.698	3.0
99.713	3.0
99.728	3.0
99.743	3.0
99.758	0.0
99.772	4.0
99.787	3.0
99.802	0.0
99.817	5.0
99.832	4.0
99.847	4.0
99.862	5.0
99.876	2.0
99.891	2.0
99.906	3.0
99.921	4.0
99.936	3.0
99.951	2.0
99.966	0.0
99.98	3.0
99.995	1.0
100.01	2.0
100.025	1.0
100.04	2.0
100.055	4.0
100.069	2.0
100.084	3.0
100.099	3.0
100.114	1.0
100.129	1.0
100.144	6.0
100.159	5.0
100.173	2.0
100.188	2.0
100.203	2.0
100.218	4.0
100.233	2.0
100.248	0.0
100.262	8.0
100.277	5.0
100.292	6.0
100.307	5.0
100.322	7.0
100.337	7.0
100.351	2.0
100.366	0.0
100.381	4.0
100.396	2.0
100.411	3.0
100.426	1.0
100.441	4.0
100.455	2.0
100.47	1.0
100.485	5.0
100.5	1.0
100.515	5.0
100.53	3.0
100.544	3.0
100.559	2.0
100.574	5.0
100.589	5.0
100.604	3.0
100.619	2.0
100.633	2.0
100.648	2.0
100.663	3.0
100.678	4.0
100.693	1.0
100.708	2.0
100.722	3.0
100.737	3.0
100.752	3.0
100.767	2.0
100.782	3.0
100.796	1.0
100.811	7.0
100.826	3.0
100.841	3.0
100.856	3.0
100.871	2.0
100.885	4.0
100.9	3.0
100.915	2.0
100.93	2.0
100.945	6.0
100.96	2.0
100.974	3.0
100.989	6.0
101.004	4.0
101.019	7.0
101.034	1.0
101.048	2.0
101.063	5.0
101.078	6.0
101.093	3.0
101.108	4.0
101.123	5.0
101.137	2.0
101.152	4.0
101.167	9.0
101.182	2.0
101.197	4.0
101.211	3.0
101.226	1.0
101.241	3.0
101.256	2.0
101.271	5.0
101.285	3.0
101.3	5.0
101.315	1.0
101.33	3.0
101.345	1.0
101.359	5.0
101.374	1.0
101.389	2.0
101.404	0.0
101.419	2.0
101.433	2.0
101.448	3.0
101.463	4.0
101.478	3.0
101.493	5.0
101.507	2.0
101.522	4.0
101.537	1.0
101.552	5.0
101.567	2.0
101.581	1.0
101.596	0.0
101.611	3.0
101.626	3.0
101.64	7.0
101.655	4.0
101.67	2.0
101.685	6.0
101.7	5.0
101.714	5.0
101.729	3.0
101.744	5.0
101.759	5.0
101.773	2.0
101.788	5.0
101.803	1.0
101.818	0.0
101.833	4.0
101.847	6.0
101.862	2.0
101.877	4.0
101.892	1.0
101.906	2.0
101.921	3.0
101.936	4.0
101.951	2.0
101.965	4.0
101.98	0.0
101.995	3.0
102.01	3.0
102.025	4.0
102.039	3.0
102.054	7.0
102.069	1.0
102.084	8.0
102.098	5.0
102.113	4.0
102.128	1.0
102.143	1.0
102.157	4.0
102.172	4.0
102.187	4.0
102.202	2.0
102.216	2.0
102.231	5.0
102.246	3.0
102.261	3.0
102.275	4.0
102.29	3.0
102.305	5.0
102.32	4.0
102.334	4.0
102.349	4.0
102.364	2.0
102.378	4.0
102.393	6.0
102.408	2.0
102.423	5.0
102.437	4.0
102.452	3.0
102.467	2.0
102.482	2.0
102.496	3.0
102.511	7.0
102.526	5.0
102.541	5.0
102.555	5.0
102.57	2.0
102.585	1.0
102.6	1.0
102.614	4.0
102.629	4.0
102.644	4.0
102.659	5.0
102.673	2.0
102.688	0.0
102.703	2.0
102.717	3.0
102.732	4.0
102.747	2.0
102.762	5.0
102.776	5.0
102.791	2.0
102.806	6.0
102.821	2.0
102.835	3.0
102.85	5.0
102.865	3.0
102.88	7.0
102.894	3.0
102.909	3.0
102.924	3.0
102.938	4.0
102.953	3.0
102.968	4.0
102.983	2.0
102.997	3.0
103.012	4.0
103.027	5.0
103.042	4.0
103.056	2.0
103.071	4.0
103.086	3.0
103.101	0.0
103.115	2.0
103.13	1.0
103.145	1.0
103.16	5.0
103.174	1.0
103.189	0.0
103.204	3.0
103.219	2.0
103.233	3.0
103.248	1.0
103.263	5.0
103.278	3.0
103.292	3.0
103.307	4.0
103.322	4.0
103.337	2.0
103.351	2.0
103.366	6.0
103.381	2.0
103.396	4.0
103.41	5.0
103.425	2.0
103.44	2.0
103.455	2.0
103.469	5.0
103.484	1.0
103.499	5.0
103.514	2.0
103.529	2.0
103.543	3.0
103.558	1.0
103.573	3.0
103.588	4.0
103.602	1.0
103.617	5.0
103.632	6.0
103.647	1.0
103.661	0.0
103.676	2.0
103.691	4.0
103.706	5.0
103.721	5.0
103.735	3.0
103.75	3.0
103.765	2.0
103.78	2.0
103.795	1.0
103.809	3.0
103.824	2.0
103.839	2.0
103.854	2.0
103.869	3.0
103.883	5.0
103.898	2.0
103.913	8.0
103.928	5.0
103.943	3.0
103.957	4.0
103.972	1.0
103.987	3.0
104.002	5.0
104.017	3.0
104.031	3.0
104.046	2.0
104.061	2.0
104.076	1.0
104.091	0.0
104.106	2.0
104.12	3.0
104.135	4.0
104.15	4.0
104.165	0.0
104.18	2.0
104.195	1.0
104.209	2.0
104.224	2.0
104.239	4.0
104.254	3.0
104.269	4.0
104.284	2.0
104.299	2.0
104.313	1.0
104.328	3.0
104.343	3.0
104.358	3.0
104.373	4.0
104.388	5.0
104.403	0.0
104.417	2.0
104.432	0.0
104.447	1.0
104.462	3.0
104.477	2.0
104.492	4.0
104.507	9.0
104.522	4.0
104.536	3.0
104.551	2.0
104.566	5.0
104.581	7.0
104.596	3.0
104.611	3.0
104.626	7.0
104.641	4.0
104.656	2.0
104.67	1.0
104.685	6.0
104.7	6.0
104.715	3.0
104.73	4.0
104.745	4.0
104.76	4.0
104.775	4.0
104.79	6.0
104.804	4.0
104.819	3.0
104.834	5.0
104.849	3.0
104.864	6.0
104.879	3.0
104.894	2.0
104.909	2.0
104.924	6.0
104.939	3.0
104.954	2.0
104.968	1.0
104.983	2.0
104.998	2.0
105.013	2.0
105.028	1.0
105.043	3.0
105.058	2.0
105.073	6.0
105.088	4.0
105.103	2.0
105.118	4.0
105.133	5.0
105.147	2.0
105.162	3.0
105.177	4.0
105.192	4.0
105.207	2.0
105.222	3.0
105.237	4.0
105.252	2.0
105.267	3.0
105.282	3.0
105.297	1.0
105.312	4.0
105.327	5.0
105.342	3.0
105.356	0.0
105.371	7.0
105.386	5.0
105.401	2.0
105.416	2.0
105.431	4.0
105.446	5.0
105.461	4.0
105.476	2.0
105.491	1.0
105.506	3.0
105.521	0.0
105.536	3.0
105.551	4.0
105.566	5.0
105.581	6.0
105.595	1.0
105.61	4.0
105.625	3.0
105.64	4.0
105.655	5.0
105.67	2.0
105.685	4.0
105.7	2.0
105.715	5.0
105.73	5.0
105.745	1.0
105.76	1.0
105.775	2.0
105.79	0.0
105.805	3.0
105.82	2.0
105.835	3.0
105.85	2.0
105.864	1.0
105.879	4.0
105.894	4.0
105.909	2.0
105.924	3.0
105.939	2.0
105.954	2.0
105.969	1.0
105.984	1.0
105.999	3.0
106.014	5.0
106.029	5.0
106.044	3.0
106.059	4.0
106.074	4.0
106.089	2.0
106.104	2.0
106.119	1.0
106.134	2.0
106.148	1.0
106.163	4.0
106.178	6.0
106.193	3.0
106.208	1.0
106.223	3.0
106.238	5.0
106.253	1.0
106.268	1.0
106.283	2.0
106.298	4.0
106.313	6.0
106.328	2.0
106.343	11.0
106.358	4.0
106.373	6.0
106.388	5.0
106.403	4.0
106.418	4.0
106.432	5.0
106.447	3.0
106.462	1.0
106.477	2.0
106.492	1.0
106.507	1.0
106.522	1.0
106.537	2.0
106.552	1.0
106.567	4.0
106.582	2.0
106.597	4.0
106.612	3.0
106.627	2.0
106.642	2.0
106.657	7.0
106.672	3.0
106.687	2.0
106.701	2.0
106.716	7.0
106.731	6.0
106.746	3.0
106.761	5.0
106.776	1.0
106.791	3.0
106.806	2.0
106.821	4.0
106.836	2.0
106.851	2.0
106.866	3.0
106.881	3.0
106.896	1.0
106.911	2.0
106.926	1.0
106.941	1.0
106.955	2.0
106.97	2.0
106.985	4.0
107.0	4.0
107.015	0.0
107.03	3.0
107.045	2.0
107.06	2.0
107.075	2.0
107.09	4.0
107.105	4.0
107.12	2.0
107.135	7.0
107.15	3.0
107.165	7.0
107.18	1.0
107.194	2.0
107.209	5.0
107.224	4.0
107.239	5.0
107.254	2.0
107.269	8.0
107.284	8.0
107.299	5.0
107.314	4.0
107.329	4.0
107.344	3.0
107.359	3.0
107.374	2.0
107.389	1.0
107.404	4.0
107.418	3.0
107.433	2.0
107.448	2.0
107.463	6.0
107.478	5.0
107.493	4.0
107.508	4.0
107.523	3.0
107.538	2.0
107.553	2.0
107.568	1.0
107.583	4.0
107.598	5.0
107.613	2.0
107.627	4.0
107.642	4.0
107.657	2.0
107.672	1.0
107.687	4.0
107.702	1.0
107.717	5.0
107.732	2.0
107.747	3.0
107.762	4.0
107.777	1.0
107.792	2.0
107.807	2.0
107.821	3.0
107.836	3.0
107.851	3.0
107.866	4.0
107.881	4.0
107.896	1.0
107.911	2.0
107.926	1.0
107.941	1.0
107.956	2.0
107.971	3.0
107.986	4.0
108.0	2.0
108.015	3.0
108.03	2.0
108.045	3.0
108.06	4.0
108.075	2.0
108.09	6.0
108.105	4.0
108.12	8.0
108.135	6.0
108.15	2.0
108.164	5.0
108.179	6.0
108.194	2.0
108.209	4.0
108.224	1.0
108.239	5.0
108.254	2.0
108.269	0.0
108.284	6.0
108.299	3.0
108.313	1.0
108.328	3.0
108.343	3.0
108.358	4.0
108.373	3.0
108.388	1.0
108.403	3.0
108.418	3.0
108.433	4.0
108.448	2.0
108.462	1.0
108.477	2.0
108.492	4.0
108.507	2.0
108.522	4.0
108.537	4.0
108.552	4.0
108.567	3.0
108.582	3.0
108.597	4.0
108.611	3.0
108.626	5.0
108.641	4.0
108.656	3.0
108.671	3.0
108.686	3.0
108.701	4.0
108.716	4.0
108.731	7.0
108.745	5.0
108.76	5.0
108.775	2.0
108.79	3.0
108.805	5.0
108.82	5.0
108.835	1.0
108.85	3.0
108.865	1.0
108.879	2.0
108.894	4.0
108.909	1.0
108.924	5.0
108.939	6.0
108.954	6.0
108.969	3.0
108.984	3.0
108.999	6.0
109.013	5.0
109.028	5.0
109.043	3.0
109.058	5.0
109.073	4.0
109.088	6.0
109.103	3.0
109.118	6.0
109.133	0.0
109.147	4.0
109.162	2.0
109.177	4.0
109.192	1.0
109.207	5.0
109.222	1.0
109.237	2.0
109.252	4.0
109.267	4.0
109.281	5.0
109.296	5.0
109.311	5.0
109.326	6.0
109.341	3.0
109.356	2.0
109.371	0.0
109.386	1.0
109.4	4.0
109.415	4.0
109.43	4.0
109.445	1.0
109.46	5.0
109.475	4.0
109.49	2.0
109.505	5.0
109.52	5.0
109.534	1.0
109.549	5.0
109.564	2.0
109.579	4.0
109.594	5.0
109.609	2.0
109.624	4.0
109.639	3.0
109.653	1.0
109.668	7.0
109.683	3.0
109.698	5.0
109.713	3.0
109.728	3.0
109.743	1.0
109.758	4.0
109.773	3.0
109.787	6.0
109.802	1.0
109.817	2.0
109.832	1.0
109.847	7.0
109.862	4.0
109.877	3.0
109.892	3.0
109.907	4.0
109.921	5.0
109.936	3.0
109.951	3.0
109.966	3.0
109.981	7.0
109.996	1.0
110.011	2.0
110.026	4.0
110.04	1.0
110.055	2.0
110.07	4.0
110.085	4.0
110.1	1.0
110.115	2.0
110.13	2.0
110.145	1.0
110.16	1.0
110.174	1.0
110.189	5.0
110.204	1.0
110.219	1.0
110.234	4.0
110.249	3.0
110.264	4.0
110.279	4.0
110.294	4.0
110.308	3.0
110.323	2.0
110.338	1.0
110.353	4.0
110.368	2.0
110.383	2.0
110.398	1.0
110.413	5.0
110.428	2.0
110.442	5.0
110.457	0.0
110.472	2.0
110.487	5.0
110.502	1.0
110.517	5.0
110.532	2.0
110.547	3.0
110.561	2.0
110.576	3.0
110.591	7.0
110.606	4.0
110.621	3.0
110.636	3.0
110.651	0.0
110.666	5.0
110.681	9.0
110.695	0.0
110.71	3.0
110.725	3.0
110.74	2.0
110.755	4.0
110.77	1.0
110.785	7.0
110.8	4.0
110.815	2.0
110.829	2.0
110.844	5.0
110.859	2.0
110.874	2.0
110.889	2.0
110.904	2.0
110.919	2.0
110.934	2.0
110.948	4.0
110.963	3.0
110.978	7.0
110.993	3.0
111.008	2.0
111.023	3.0
111.038	3.0
111.053	4.0
111.067	5.0
111.082	6.0
111.097	2.0
111.112	2.0
111.127	3.0
111.142	6.0
111.157	3.0
111.172	2.0
111.186	6.0
111.201	1.0
111.216	2.0
111.231	4.0
111.246	5.0
111.261	1.0
111.276	1.0
111.291	8.0
111.305	6.0
111.32	2.0
111.335	3.0
111.35	2.0
111.365	2.0
111.38	3.0
111.395	5.0
111.41	3.0
111.424	3.0
111.439	4.0
111.454	2.0
111.469	8.0
111.484	6.0
111.499	5.0
111.514	3.0
111.528	3.0
111.543	0.0
111.558	4.0
111.573	4.0
111.588	5.0
111.603	1.0
111.618	2.0
111.633	5.0
111.647	7.0
111.662	5.0
111.677	5.0
111.692	2.0
111.707	4.0
111.722	8.0
111.737	4.0
111.751	4.0
111.766	3.0
111.781	4.0
111.796	2.0
111.811	2.0
111.826	2.0
111.84	4.0
111.855	2.0
111.87	8.0
111.885	3.0
111.9	2.0
111.915	4.0
111.93	1.0
111.944	3.0
111.959	4.0
111.974	3.0
111.989	6.0
112.004	2.0
112.019	2.0
112.033	6.0
112.048	2.0
112.063	5.0
112.078	3.0
112.093	2.0
112.108	5.0
112.123	2.0
112.137	4.0
112.152	2.0
112.167	3.0
112.182	5.0
112.197	3.0
112.212	1.0
112.226	1.0
112.241	4.0
112.256	4.0
112.271	6.0
112.286	4.0
112.301	3.0
112.315	9.0
112.33	2.0
112.345	1.0
112.36	2.0
112.375	2.0
112.389	2.0
112.404	4.0
112.419	6.0
112.434	1.0
112.449	5.0
112.464	0.0
112.478	4.0
112.493	9.0
112.508	2.0
112.523	2.0
112.538	5.0
112.553	3.0
112.567	5.0
112.582	10.0
112.597	4.0
112.612	2.0
112.627	4.0
112.642	4.0
112.656	2.0
112.671	1.0
112.686	5.0
112.701	3.0
112.716	2.0
112.73	5.0
112.745	3.0
112.76	5.0
112.775	8.0
112.79	4.0
112.805	3.0
112.819	2.0
112.834	5.0
112.849	4.0
112.864	12.0
112.879	4.0
112.894	4.0
112.908	6.0
112.923	3.0
112.938	1.0
112.953	6.0
112.968	2.0
112.983	4.0
112.997	1.0
113.012	2.0
113.027	1.0
113.042	5.0
113.057	4.0
113.072	5.0
113.086	3.0
113.101	2.0
113.116	2.0
113.131	6.0
113.146	2.0
113.161	2.0
113.175	3.0
113.19	6.0
113.205	4.0
113.22	3.0
113.235	3.0
113.25	0.0
113.265	6.0
113.279	5.0
113.294	2.0
113.309	1.0
113.324	1.0
113.339	3.0
113.354	1.0
113.368	4.0
113.383	6.0
113.398	3.0
113.413	7.0
113.428	8.0
113.443	3.0
113.458	4.0
113.472	4.0
113.487	4.0
113.502	5.0
113.517	1.0
113.532	5.0
113.547	2.0
113.562	3.0
113.576	1.0
113.591	8.0
113.606	4.0
113.621	1.0
113.636	3.0
113.651	4.0
113.666	3.0
113.681	4.0
113.695	3.0
113.71	1.0
113.725	6.0
113.74	2.0
113.755	0.0
113.77	2.0
113.785	4.0
113.8	6.0
113.814	2.0
113.829	6.0
113.844	7.0
113.859	5.0
113.874	4.0
113.889	4.0
113.904	2.0
113.919	5.0
113.934	3.0
113.949	5.0
113.963	2.0
113.978	2.0
113.993	2.0
114.008	1.0
114.023	3.0
114.038	2.0
114.053	3.0
114.068	3.0
114.083	0.0
114.098	3.0
114.113	2.0
114.127	1.0
114.142	1.0
114.157	6.0
114.172	1.0
114.187	4.0
114.202	5.0
114.217	4.0
114.232	2.0
114.247	7.0
114.262	1.0
114.277	6.0
114.292	6.0
114.307	6.0
114.322	2.0
114.337	3.0
114.351	6.0
114.366	3.0
114.381	1.0
114.396	3.0
114.411	5.0
114.426	7.0
114.441	2.0
114.456	2.0
114.471	4.0
114.486	6.0
114.501	3.0
114.516	4.0
114.531	2.0
114.546	8.0
114.561	4.0
114.576	2.0
114.591	2.0
114.606	3.0
114.621	4.0
114.636	2.0
114.65	3.0
114.665	2.0
114.68	2.0
114.695	4.0
114.71	5.0
114.725	5.0
114.74	1.0
114.755	1.0
114.77	4.0
114.785	3.0
114.8	1.0
114.815	6.0
114.83	5.0
114.845	5.0
114.86	3.0
114.875	7.0
114.89	1.0
114.905	7.0
114.92	6.0
114.935	6.0
114.95	4.0
114.965	7.0
114.98	5.0
114.995	4.0
115.009	3.0
115.024	2.0
115.039	3.0
115.054	3.0
115.069	2.0
115.084	3.0
115.099	4.0
115.114	3.0
115.129	3.0
115.144	7.0
115.159	7.0
115.174	5.0
115.189	3.0
115.204	4.0
115.219	2.0
115.234	1.0
115.249	2.0
115.264	1.0
115.279	3.0
115.294	3.0
115.309	5.0
115.323	4.0
115.338	2.0
115.353	1.0
115.368	5.0
115.383	2.0
115.398	4.0
115.413	3.0
115.428	2.0
115.443	2.0
115.458	0.0
115.473	5.0
115.488	4.0
115.503	4.0
115.518	2.0
115.533	0.0
115.548	5.0
115.562	5.0
115.577	7.0
115.592	4.0
115.607	3.0
115.622	3.0
115.637	5.0
115.652	5.0
115.667	0.0
115.682	3.0
115.697	0.0
115.712	3.0
115.727	3.0
115.741	4.0
115.756	1.0
115.771	2.0
115.786	5.0
115.801	4.0
115.816	2.0
115.831	3.0
115.846	2.0
115.861	1.0
115.875	2.0
115.89	1.0
115.905	4.0
115.92	4.0
115.935	3.0
115.95	2.0
115.965	6.0
115.98	2.0
115.995	1.0
116.009	2.0
116.024	4.0
116.039	2.0
116.054	2.0
116.069	5.0
116.084	3.0
116.099	6.0
116.113	4.0
116.128	6.0
116.143	2.0
116.158	3.0
116.173	4.0
116.188	4.0
116.202	2.0
116.217	5.0
116.232	4.0
116.247	6.0
116.262	6.0
116.277	3.0
116.291	4.0
116.306	6.0
116.321	1.0
116.336	4.0
116.351	4.0
116.366	9.0
116.38	4.0
116.395	7.0
116.41	2.0
116.425	5.0
116.44	5.0
116.454	7.0
116.469	5.0
116.484	4.0
116.499	5.0
116.514	3.0
116.528	3.0
116.543	1.0
116.558	4.0
116.573	6.0
116.588	6.0
116.602	2.0
116.617	2.0
116.632	6.0
116.647	2.0
116.662	3.0
116.676	4.0
116.691	8.0
116.706	2.0
116.721	4.0
116.735	5.0
116.75	6.0
116.765	4.0
116.78	4.0
116.795	5.0
116.809	3.0
116.824	1.0
116.839	4.0
116.854	3.0
116.868	4.0
116.883	1.0
116.898	1.0
116.913	4.0
116.927	7.0
116.942	4.0
116.957	8.0
116.972	4.0
116.986	1.0
117.001	3.0
117.016	2.0
117.031	4.0
117.045	4.0
117.06	2.0
117.075	3.0
117.09	1.0
117.104	3.0
117.119	2.0
117.134	1.0
117.149	3.0
117.163	3.0
117.178	3.0
117.193	5.0
117.208	2.0
117.222	5.0
117.237	5.0
117.252	5.0
117.267	4.0
117.281	3.0
117.296	1.0
117.311	3.0
117.325	4.0
117.34	2.0
117.355	2.0
117.37	4.0
117.384	6.0
117.399	3.0
117.414	6.0
117.429	6.0
117.443	4.0
117.458	0.0
117.473	3.0
117.487	4.0
117.502	1.0
117.517	3.0
117.532	1.0
117.546	1.0
117.561	0.0
117.576	2.0
117.59	2.0
117.605	3.0
117.62	1.0
117.635	1.0
117.649	2.0
117.664	3.0
117.679	0.0
117.693	2.0
117.708	6.0
117.723	3.0
117.738	6.0
117.752	1.0
117.767	3.0
117.782	3.0
117.796	4.0
117.811	2.0
117.826	3.0
117.841	2.0
117.855	2.0
117.87	4.0
117.885	5.0
117.899	2.0
117.914	4.0
117.929	7.0
117.944	4.0
117.958	1.0
117.973	5.0
117.988	2.0
118.002	3.0
118.017	4.0
118.032	2.0
118.047	10.0
118.062	4.0
118.077	4.0
118.092	3.0
118.107	3.0
118.121	5.0
118.136	5.0
118.151	1.0
118.166	4.0
118.181	2.0
118.196	1.0
118.211	5.0
118.225	5.0
118.24	7.0
118.255	5.0
118.27	2.0
118.285	1.0
118.3	7.0
118.315	3.0
118.33	5.0
118.344	2.0
118.359	3.0
118.374	5.0
118.389	3.0
118.404	1.0
118.419	3.0
118.434	2.0
118.449	4.0
118.463	2.0
118.478	0.0
118.493	6.0
118.508	2.0
118.523	6.0
118.538	4.0
118.553	1.0
118.567	3.0
118.582	5.0
118.597	3.0
118.612	3.0
118.627	0.0
118.642	1.0
118.657	4.0
118.672	1.0
118.686	1.0
118.701	4.0
118.716	3.0
118.731	5.0
118.746	2.0
118.761	4.0
118.776	2.0
118.791	2.0
118.805	4.0
118.82	2.0
118.835	3.0
118.85	3.0
118.865	1.0
118.88	4.0
118.895	3.0
118.909	3.0
118.924	2.0
118.939	4.0
118.954	0.0
118.969	7.0
118.984	4.0
118.999	2.0
119.014	1.0
119.028	1.0
119.043	4.0
119.058	4.0
119.073	3.0
119.088	6.0
119.103	4.0
119.118	3.0
119.133	3.0
119.147	4.0
119.162	3.0
119.177	5.0
119.192	2.0
119.207	4.0
119.222	5.0
119.237	6.0
119.251	4.0
119.266	1.0
119.281	4.0
119.296	2.0
119.311	5.0
119.326	2.0
119.341	4.0
119.356	7.0
119.37	6.0
119.385	1.0
119.4	7.0
119.415	4.0
119.43	7.0
119.445	6.0
119.46	6.0
119.475	2.0
119.489	4.0
119.504	4.0
119.519	8.0
119.534	6.0
119.549	1.0
119.564	2.0
119.579	1.0
119.593	5.0
119.608	2.0
119.623	1.0
119.638	1.0
119.653	4.0
119.668	4.0
119.683	3.0
119.698	3.0
119.712	1.0
119.727	1.0
119.742	2.0
119.757	2.0
119.772	3.0
119.787	0.0
119.802	2.0
119.817	0.0
119.831	2.0
119.846	1.0
119.861	4.0
119.876	3.0
119.891	5.0
119.906	5.0
119.921	1.0
119.935	2.0
119.95	4.0
119.965	3.0
119.98	5.0
119.995	1.0
120.01	3.0
120.025	2.0
120.04	4.0
120.054	0.0
120.069	2.0
120.084	2.0
120.099	2.0
120.114	2.0
120.129	4.0
120.144	0.0
120.159	3.0
120.173	1.0
120.188	0.0
120.203	0.0
120.218	0.0
120.233	0.0
120.248	1.0
120.263	0.0
120.277	1.0
120.292	1.0
120.307	0.0
120.322	0.0
120.337	0.0
120.352	0.0
120.367	1.0
120.382	2.0
120.396	0.0
120.411	0.0
120.426	0.0
120.441	0.0
120.456	0.0
120.471	0.0
120.486	0.0
120.501	0.0
120.515	0.0
120.53	1.0
120.545	0.0
120.56	0.0
120.575	0.0
120.59	0.0
120.605	0.0
120.619	0.0
120.634	0.0
120.649	0.0
120.664	0.0
120.679	0.0
120.694	0.0
120.709	0.0
120.724	0.0
120.738	0.0
120.753	0.0
120.768	0.0
120.783	0.0
120.798	0.0
120.813	1.0
120.828	0.0
120.843	0.0
120.857	0.0
120.872	1.0
120.887	0.0
120.902	0.0
120.917	0.0
120.932	0.0
120.947	0.0
120.961	0.0
120.976	0.0
