-1.217	0.0
-1.202	0.0
-1.187	0.0
-1.172	0.0
-1.157	0.0
-1.142	1.0
-1.128	0.0
-1.113	0.0
-1.098	0.0
-1.083	0.0
-1.068	1.0
-1.054	0.0
-1.039	0.0
-1.024	0.0
-1.009	0.0
-0.994	0.0
-0.979	0.0
-0.965	0.0
-0.95	0.0
-0.935	0.0
-0.92	0.0
-0.905	0.0
-0.891	0.0
-0.876	0.0
-0.861	0.0
-0.846	0.0
-0.831	0.0
-0.816	0.0
-0.802	0.0
-0.787	0.0
-0.772	0.0
-0.757	0.0
-0.742	0.0
-0.728	0.0
-0.713	0.0
-0.698	0.0
-0.683	0.0
-0.668	0.0
-0.653	0.0
-0.639	0.0
-0.624	0.0
-0.609	0.0
-0.594	0.0
-0.579	0.0
-0.565	0.0
-0.55	0.0
-0.535	0.0
-0.52	0.0
-0.505	0.0
-0.49	0.0
-0.476	0.0
-0.461	0.0
-0.446	0.0
-0.431	0.0
-0.416	0.0
-0.401	0.0
-0.387	0.0
-0.372	0.0
-0.357	0.0
-0.342	0.0
-0.327	0.0
-0.313	0.0
-0.298	0.0
-0.283	0.0
-0.268	0.0
-0.253	0.0
-0.238	0.0
-0.224	0.0
-0.209	0.0
-0.194	0.0
-0.179	0.0
-0.164	0.0
-0.15	0.0
-0.135	0.0
-0.12	0.0
-0.105	0.0
-0.09	0.0
-0.075	0.0
-0.061	0.0
-0.046	0.0
-0.031	0.0
-0.016	0.0
-0.001	0.0
0.013	0.0
0.028	0.0
0.043	0.0
0.058	0.0
0.073	0.0
0.088	0.0
0.102	0.0
0.117	0.0
0.132	0.0
0.147	0.0
0.162	0.0
0.176	0.0
0.191	0.0
0.206	0.0
0.221	0.0
0.236	0.0
0.251	0.0
0.265	0.0
0.28	0.0
0.295	0.0
0.31	0.0
0.325	0.0
0.339	1.0
0.354	0.0
0.369	0.0
0.384	0.0
0.399	0.0
0.414	0.0
0.428	0.0
0.443	0.0
0.458	0.0
0.473	0.0
0.488	0.0
0.502	0.0
0.517	0.0
0.532	0.0
0.547	0.0
0.562	0.0
0.577	0.0
0.591	0.0
0.606	0.0
0.621	0.0
0.636	0.0
0.651	0.0
0.665	0.0
0.68	0.0
0.695	0.0
0.71	0.0
0.725	0.0
0.74	0.0
0.754	0.0
0.769	0.0
0.784	0.0
0.799	0.0
0.814	0.0
0.828	0.0
0.843	0.0
0.858	0.0
0.873	0.0
0.888	0.0
0.903	0.0
0.917	0.0
0.932	0.0
0.947	0.0
0.962	0.0
0.977	0.0
0.991	0.0
1.006	0.0
1.021	0.0
1.036	0.0
1.051	0.0
1.065	0.0
1.08	0.0
1.095	0.0
1.11	0.0
1.125	0.0
1.14	0.0
1.154	0.0
1.169	0.0
1.184	0.0
1.199	0.0
1.214	0.0
1.228	0.0
1.243	0.0
1.258	0.0
1.273	0.0
1.288	0.0
1.302	1.0
1.317	0.0
1.332	0.0
1.347	0.0
1.362	0.0
1.376	0.0
1.391	0.0
1.406	0.0
1.421	0.0
1.436	0.0
1.45	0.0
1.465	0.0
1.48	0.0
1.495	0.0
1.51	0.0
1.524	0.0
1.539	0.0
1.554	0.0
1.569	1.0
1.584	0.0
1.598	0.0
1.613	0.0
1.628	0.0
1.643	0.0
1.658	0.0
1.672	0.0
1.687	0.0
1.702	0.0
1.717	1.0
1.732	0.0
1.746	0.0
1.761	0.0
1.776	0.0
1.791	0.0
1.806	0.0
1.82	0.0
1.835	0.0
1.85	0.0
1.865	0.0
1.88	0.0
1.894	0.0
1.909	0.0
1.924	0.0
1.939	0.0
1.954	0.0
1.968	0.0
1.983	0.0
1.998	0.0
2.013	1.0
2.028	0.0
2.042	0.0
2.057	1.0
2.072	0.0
2.087	0.0
2.101	1.0
2.116	0.0
2.131	0.0
2.146	0.0
2.161	0.0
2.175	2.0
2.19	0.0
2.205	0.0
2.22	1.0
2.235	0.0
2.249	0.0
2.264	1.0
2.279	0.0
2.294	0.0
2.308	0.0
2.323	1.0
2.338	0.0
2.353	1.0
2.368	1.0
2.382	0.0
2.397	0.0
2.412	2.0
2.427	3.0
2.442	0.0
2.456	1.0
2.471	3.0
2.486	0.0
2.501	1.0
2.515	0.0
2.53	1.0
2.545	3.0
2.56	2.0
2.575	4.0
2.589	0.0
2.604	5.0
2.619	2.0
2.634	4.0
2.649	2.0
2.663	1.0
2.678	2.0
2.693	1.0
2.708	0.0
2.722	3.0
2.737	1.0
2.752	4.0
2.767	1.0
2.782	4.0
2.796	3.0
2.811	6.0
2.826	4.0
2.841	5.0
2.856	4.0
2.87	5.0
2.885	1.0
2.9	3.0
2.915	1.0
2.93	1.0
2.944	1.0
2.959	4.0
2.974	0.0
2.989	4.0
3.004	2.0
3.018	2.0
3.033	4.0
3.048	3.0
3.063	5.0
3.078	2.0
3.092	3.0
3.107	3.0
3.122	5.0
3.137	5.0
3.152	3.0
3.166	1.0
3.181	3.0
3.196	4.0
3.211	8.0
3.226	5.0
3.24	4.0
3.255	4.0
3.27	3.0
3.285	9.0
3.3	7.0
3.315	2.0
3.329	6.0
3.344	4.0
3.359	6.0
3.374	4.0
3.389	5.0
3.403	0.0
3.418	5.0
3.433	6.0
3.448	3.0
3.463	4.0
3.478	2.0
3.492	4.0
3.507	3.0
3.522	3.0
3.537	6.0
3.552	4.0
3.567	3.0
3.581	6.0
3.596	6.0
3.611	4.0
3.626	7.0
3.641	6.0
3.656	9.0
3.671	7.0
3.685	8.0
3.7	3.0
3.715	6.0
3.73	7.0
3.745	5.0
3.76	3.0
3.775	5.0
3.789	3.0
3.804	9.0
3.819	3.0
3.834	5.0
3.849	4.0
3.864	5.0
3.879	5.0
3.894	10.0
3.908	11.0
3.923	4.0
3.938	6.0
3.953	5.0
3.968	6.0
3.983	9.0
3.998	8.0
4.013	8.0
4.027	7.0
4.042	8.0
4.057	9.0
4.072	11.0
4.087	9.0
4.102	2.0
4.117	3.0
4.132	8.0
4.147	9.0
4.162	7.0
4.176	7.0
4.191	8.0
4.206	7.0
4.221	2.0
4.236	10.0
4.251	8.0
4.266	5.0
4.281	5.0
4.296	8.0
4.311	8.0
4.326	4.0
4.341	5.0
4.356	6.0
4.37	3.0
4.385	7.0
4.4	6.0
4.415	6.0
4.43	9.0
4.445	6.0
4.46	4.0
4.475	11.0
4.49	8.0
4.505	8.0
4.52	7.0
4.535	11.0
4.55	3.0
4.565	5.0
4.58	4.0
4.595	9.0
4.61	7.0
4.625	10.0
4.639	7.0
4.654	8.0
4.669	9.0
4.684	4.0
4.699	10.0
4.714	8.0
4.729	0.0
4.744	8.0
4.759	4.0
4.774	8.0
4.789	6.0
4.804	3.0
4.819	12.0
4.834	12.0
4.849	9.0
4.864	5.0
4.879	11.0
4.894	7.0
4.909	4.0
4.924	6.0
4.939	8.0
4.954	5.0
4.969	4.0
4.984	3.0
4.999	9.0
5.014	6.0
5.029	11.0
5.044	9.0
5.059	4.0
5.074	9.0
5.089	7.0
5.104	6.0
5.119	6.0
5.134	7.0
5.149	9.0
5.164	8.0
5.179	5.0
5.194	6.0
5.209	5.0
5.224	9.0
5.239	5.0
5.254	6.0
5.269	10.0
5.284	10.0
5.299	8.0
5.314	6.0
5.329	8.0
5.344	12.0
5.359	7.0
5.374	6.0
5.389	8.0
5.404	7.0
5.419	11.0
5.434	7.0
5.449	6.0
5.464	8.0
5.479	7.0
5.494	8.0
5.509	6.0
5.524	5.0
5.539	9.0
5.554	11.0
5.569	9.0
5.584	15.0
5.599	7.0
5.614	11.0
5.629	7.0
5.644	10.0
5.659	4.0
5.674	9.0
5.689	8.0
5.704	8.0
5.719	12.0
5.734	9.0
5.749	7.0
5.764	10.0
5.779	8.0
5.794	13.0
5.809	7.0
5.824	7.0
5.839	9.0
5.854	16.0
5.869	9.0
5.884	7.0
5.899	6.0
5.914	10.0
5.929	8.0
5.944	11.0
5.959	6.0
5.974	10.0
5.989	5.0
6.004	6.0
6.019	9.0
6.034	7.0
6.049	11.0
6.064	6.0
6.079	6.0
6.094	10.0
6.109	5.0
6.124	10.0
6.139	8.0
6.154	7.0
6.169	10.0
6.184	7.0
6.199	11.0
6.214	15.0
6.229	13.0
6.244	10.0
6.259	10.0
6.274	9.0
6.289	6.0
6.304	5.0
6.319	6.0
6.334	8.0
6.349	6.0
6.364	17.0
6.379	9.0
6.394	8.0
6.409	9.0
6.424	6.0
6.439	6.0
6.454	9.0
6.469	9.0
6.484	8.0
6.499	6.0
6.514	6.0
6.529	8.0
6.544	11.0
6.559	10.0
6.574	7.0
6.589	12.0
6.604	3.0
6.619	6.0
6.634	4.0
6.649	6.0
6.664	13.0
6.679	7.0
6.694	11.0
6.709	9.0
6.724	5.0
6.739	3.0
6.754	2.0
6.769	3.0
6.784	9.0
6.799	12.0
6.814	5.0
6.829	10.0
6.844	4.0
6.859	16.0
6.873	10.0
6.888	4.0
6.903	12.0
6.918	7.0
6.933	10.0
6.948	8.0
6.963	7.0
6.978	8.0
6.993	6.0
7.008	3.0
7.023	7.0
7.038	9.0
7.053	5.0
7.068	8.0
7.083	9.0
7.098	6.0
7.113	11.0
7.128	10.0
7.143	9.0
7.157	8.0
7.172	5.0
7.187	8.0
7.202	9.0
7.217	14.0
7.232	12.0
7.247	9.0
7.262	6.0
7.277	10.0
7.292	11.0
7.307	10.0
7.322	10.0
7.336	3.0
7.351	9.0
7.366	10.0
7.381	6.0
7.396	16.0
7.411	3.0
7.426	8.0
7.441	7.0
7.456	13.0
7.471	12.0
7.485	16.0
7.5	8.0
7.515	5.0
7.53	4.0
7.545	12.0
7.56	9.0
7.575	5.0
7.59	7.0
7.604	7.0
7.619	7.0
7.634	11.0
7.649	9.0
7.664	7.0
7.679	4.0
7.693	13.0
7.708	7.0
7.723	5.0
7.738	10.0
7.753	7.0
7.768	5.0
7.783	10.0
7.797	8.0
7.812	7.0
7.827	9.0
7.842	9.0
7.857	11.0
7.871	7.0
7.886	11.0
7.901	6.0
7.916	4.0
7.931	10.0
7.945	4.0
7.96	8.0
7.975	9.0
7.99	6.0
8.005	4.0
8.019	8.0
8.034	10.0
8.049	9.0
8.064	5.0
8.078	5.0
8.093	9.0
8.108	4.0
8.123	6.0
8.137	4.0
8.152	8.0
8.167	4.0
8.182	10.0
8.196	15.0
8.211	9.0
8.226	9.0
8.241	9.0
8.255	7.0
8.27	8.0
8.285	12.0
8.3	4.0
8.314	6.0
8.329	8.0
8.344	11.0
8.358	11.0
8.373	6.0
8.388	6.0
8.403	10.0
8.417	7.0
8.432	11.0
8.447	6.0
8.461	10.0
8.476	6.0
8.491	11.0
8.505	6.0
8.52	9.0
8.535	11.0
8.55	7.0
8.564	6.0
8.579	7.0
8.594	11.0
8.608	2.0
8.623	9.0
8.638	9.0
8.652	10.0
8.667	4.0
8.682	12.0
8.696	12.0
8.711	15.0
8.726	11.0
8.74	5.0
8.755	11.0
8.77	9.0
8.784	7.0
8.799	8.0
8.814	10.0
8.828	4.0
8.843	11.0
8.858	8.0
8.872	4.0
8.887	8.0
8.902	7.0
8.916	7.0
8.931	11.0
8.946	5.0
8.96	8.0
8.975	17.0
8.99	12.0
9.004	10.0
9.019	17.0
9.034	12.0
9.048	10.0
9.063	8.0
9.077	7.0
9.092	11.0
9.107	4.0
9.121	5.0
9.136	8.0
9.151	13.0
9.165	6.0
9.18	9.0
9.195	3.0
9.209	5.0
9.224	13.0
9.239	9.0
9.253	3.0
9.268	11.0
9.283	8.0
9.297	9.0
9.312	4.0
9.327	7.0
9.341	9.0
9.356	10.0
9.371	6.0
9.385	8.0
9.4	5.0
9.415	10.0
9.429	11.0
9.444	8.0
9.458	5.0
9.473	7.0
9.488	7.0
9.502	7.0
9.517	14.0
9.532	9.0
9.546	9.0
9.561	6.0
9.576	7.0
9.59	3.0
9.605	3.0
9.62	10.0
9.635	3.0
9.649	9.0
9.664	15.0
9.679	10.0
9.693	11.0
9.708	6.0
9.723	5.0
9.737	5.0
9.752	9.0
9.767	2.0
9.781	10.0
9.796	8.0
9.811	10.0
9.825	9.0
9.84	8.0
9.855	7.0
9.87	5.0
9.884	8.0
9.899	9.0
9.914	10.0
9.928	9.0
9.943	8.0
9.958	5.0
9.973	11.0
9.987	7.0
10.002	11.0
10.017	8.0
10.031	7.0
10.046	3.0
10.061	4.0
10.076	4.0
10.09	8.0
10.105	8.0
10.12	5.0
10.135	3.0
10.149	10.0
10.164	7.0
10.179	8.0
10.194	5.0
10.208	8.0
10.223	7.0
10.238	9.0
10.253	9.0
10.267	8.0
10.282	4.0
10.297	11.0
10.312	12.0
10.326	5.0
10.341	11.0
10.356	3.0
10.371	9.0
10.386	2.0
10.4	9.0
10.415	6.0
10.43	10.0
10.445	3.0
10.46	8.0
10.474	16.0
10.489	14.0
10.504	10.0
10.519	8.0
10.533	6.0
10.548	5.0
10.563	8.0
10.578	9.0
10.593	5.0
10.608	7.0
10.622	11.0
10.637	8.0
10.652	5.0
10.667	10.0
10.682	4.0
10.696	4.0
10.711	5.0
10.726	3.0
10.741	8.0
10.756	11.0
10.771	9.0
10.785	9.0
10.8	7.0
10.815	8.0
10.83	3.0
10.845	8.0
10.86	7.0
10.874	11.0
10.889	4.0
10.904	10.0
10.919	5.0
10.934	5.0
10.949	5.0
10.963	5.0
10.978	7.0
10.993	9.0
11.008	8.0
11.023	9.0
11.038	10.0
11.053	5.0
11.067	7.0
11.082	4.0
11.097	10.0
11.112	9.0
11.127	5.0
11.142	7.0
11.157	6.0
11.172	11.0
11.186	7.0
11.201	10.0
11.216	10.0
11.231	6.0
11.246	8.0
11.261	8.0
11.276	7.0
11.291	8.0
11.305	10.0
11.32	8.0
11.335	11.0
11.35	7.0
11.365	7.0
11.38	9.0
11.395	5.0
11.41	14.0
11.424	6.0
11.439	9.0
11.454	4.0
11.469	9.0
11.484	8.0
11.499	2.0
11.514	9.0
11.529	6.0
11.544	9.0
11.558	3.0
11.573	8.0
11.588	10.0
11.603	6.0
11.618	5.0
11.633	8.0
11.648	7.0
11.663	6.0
11.678	9.0
11.693	13.0
11.707	6.0
11.722	5.0
11.737	13.0
11.752	5.0
11.767	6.0
11.782	7.0
11.797	8.0
11.812	7.0
11.827	9.0
11.842	8.0
11.856	10.0
11.871	7.0
11.886	11.0
11.901	6.0
11.916	4.0
11.931	9.0
11.946	6.0
11.961	10.0
11.976	8.0
11.991	6.0
12.006	9.0
12.02	8.0
12.035	8.0
12.05	8.0
12.065	8.0
12.08	10.0
12.095	6.0
12.11	4.0
12.125	10.0
12.14	8.0
12.155	4.0
12.17	14.0
12.184	10.0
12.199	10.0
12.214	9.0
12.229	10.0
12.244	11.0
12.259	17.0
12.274	9.0
12.289	10.0
12.304	10.0
12.319	6.0
12.334	9.0
12.348	12.0
12.363	11.0
12.378	10.0
12.393	9.0
12.408	12.0
12.423	13.0
12.438	11.0
12.453	6.0
12.468	10.0
12.483	15.0
12.498	12.0
12.513	7.0
12.527	3.0
12.542	8.0
12.557	13.0
12.572	13.0
12.587	17.0
12.602	8.0
12.617	13.0
12.632	14.0
12.647	19.0
12.662	9.0
12.677	12.0
12.692	16.0
12.707	14.0
12.721	10.0
12.736	17.0
12.751	18.0
12.766	16.0
12.781	11.0
12.796	17.0
12.811	15.0
12.826	20.0
12.841	17.0
12.856	11.0
12.871	12.0
12.886	20.0
12.9	12.0
12.915	17.0
12.93	16.0
12.945	17.0
12.96	13.0
12.975	20.0
12.99	14.0
13.005	7.0
13.02	21.0
13.035	14.0
13.05	14.0
13.065	21.0
13.08	11.0
13.094	19.0
13.109	15.0
13.124	17.0
13.139	12.0
13.154	12.0
13.169	14.0
13.184	16.0
13.199	10.0
13.214	18.0
13.229	16.0
13.244	14.0
13.259	15.0
13.274	22.0
13.288	21.0
13.303	16.0
13.318	14.0
13.333	17.0
13.348	17.0
13.363	13.0
13.378	18.0
13.393	28.0
13.408	28.0
13.423	26.0
13.438	32.0
13.453	31.0
13.468	31.0
13.482	29.0
13.497	35.0
13.512	46.0
13.527	35.0
13.542	49.0
13.557	48.0
13.572	50.0
13.587	47.0
13.602	62.0
13.617	58.0
13.632	56.0
13.647	61.0
13.662	67.0
13.677	63.0
13.691	86.0
13.706	88.0
13.721	89.0
13.736	94.0
13.751	105.0
13.766	106.0
13.781	111.0
13.796	122.0
13.811	126.0
13.826	116.0
13.841	114.0
13.856	128.0
13.871	106.0
13.885	93.0
13.9	79.0
13.915	75.0
13.93	78.0
13.945	49.0
13.96	51.0
13.975	42.0
13.99	37.0
14.005	41.0
14.02	20.0
14.035	25.0
14.05	37.0
14.065	29.0
14.08	26.0
14.094	13.0
14.109	31.0
14.124	29.0
14.139	25.0
14.154	17.0
14.169	20.0
14.184	18.0
14.199	22.0
14.214	17.0
14.229	21.0
14.244	15.0
14.259	18.0
14.274	21.0
14.288	15.0
14.303	21.0
14.318	19.0
14.333	17.0
14.348	15.0
14.363	17.0
14.378	25.0
14.393	15.0
14.408	27.0
14.423	18.0
14.438	17.0
14.453	16.0
14.468	23.0
14.482	15.0
14.497	25.0
14.512	18.0
14.527	17.0
14.542	21.0
14.557	14.0
14.572	13.0
14.587	16.0
14.602	8.0
14.617	15.0
14.632	19.0
14.647	23.0
14.661	25.0
14.676	10.0
14.691	18.0
14.706	10.0
14.721	12.0
14.736	11.0
14.751	13.0
14.766	13.0
14.781	18.0
14.796	18.0
14.811	12.0
14.826	17.0
14.84	16.0
14.855	16.0
14.87	11.0
14.885	15.0
14.9	17.0
14.915	15.0
14.93	13.0
14.945	22.0
14.96	10.0
14.975	16.0
14.989	17.0
15.004	11.0
15.019	21.0
15.034	17.0
15.049	21.0
15.064	11.0
15.079	18.0
15.094	13.0
15.109	16.0
15.124	10.0
15.138	19.0
15.153	19.0
15.168	15.0
15.183	18.0
15.198	13.0
15.213	14.0
15.228	12.0
15.243	12.0
15.258	14.0
15.272	10.0
15.287	18.0
15.302	11.0
15.317	9.0
15.332	9.0
15.347	15.0
15.362	16.0
15.377	18.0
15.391	13.0
15.406	18.0
15.421	12.0
15.436	17.0
15.451	10.0
15.466	11.0
15.481	19.0
15.496	5.0
15.51	15.0
15.525	13.0
15.54	8.0
15.555	20.0
15.57	7.0
15.585	8.0
15.6	11.0
15.614	13.0
15.629	13.0
15.644	13.0
15.659	16.0
15.674	13.0
15.689	8.0
15.704	10.0
15.718	18.0
15.733	11.0
15.748	15.0
15.763	19.0
15.778	4.0
15.793	11.0
15.808	10.0
15.822	19.0
15.837	6.0
15.852	14.0
15.867	21.0
15.882	17.0
15.897	15.0
15.911	13.0
15.926	9.0
15.941	9.0
15.956	21.0
15.971	9.0
15.986	19.0
16.0	22.0
16.015	13.0
16.03	12.0
16.045	12.0
16.06	13.0
16.074	10.0
16.089	14.0
16.104	15.0
16.119	15.0
16.134	18.0
16.149	13.0
16.163	15.0
16.178	22.0
16.193	14.0
16.208	13.0
16.223	9.0
16.237	19.0
16.252	12.0
16.267	18.0
16.282	9.0
16.297	10.0
16.311	17.0
16.326	18.0
16.341	14.0
16.356	16.0
16.37	13.0
16.385	9.0
16.4	11.0
16.415	17.0
16.43	14.0
16.444	16.0
16.459	6.0
16.474	5.0
16.489	15.0
16.504	11.0
16.518	14.0
16.533	18.0
16.548	11.0
16.563	22.0
16.577	15.0
16.592	15.0
16.607	17.0
16.622	24.0
16.637	23.0
16.651	25.0
16.666	17.0
16.681	22.0
16.696	20.0
16.71	27.0
16.725	30.0
16.74	26.0
16.755	44.0
16.77	35.0
16.784	30.0
16.799	44.0
16.814	46.0
16.829	49.0
16.843	42.0
16.858	48.0
16.873	55.0
16.888	61.0
16.902	60.0
16.917	61.0
16.932	68.0
16.947	72.0
16.961	74.0
16.976	77.0
16.991	69.0
17.006	65.0
17.021	63.0
17.035	37.0
17.05	46.0
17.065	37.0
17.08	33.0
17.094	30.0
17.109	31.0
17.124	25.0
17.139	30.0
17.153	21.0
17.168	16.0
17.183	17.0
17.198	20.0
17.212	14.0
17.227	9.0
17.242	17.0
17.257	15.0
17.271	14.0
17.286	14.0
17.301	15.0
17.316	8.0
17.33	13.0
17.345	13.0
17.36	13.0
17.375	17.0
17.39	13.0
17.404	16.0
17.419	6.0
17.434	7.0
17.449	15.0
17.463	5.0
17.478	13.0
17.493	15.0
17.508	20.0
17.522	9.0
17.537	9.0
17.552	10.0
17.567	9.0
17.581	12.0
17.596	14.0
17.611	10.0
17.626	11.0
17.641	9.0
17.655	8.0
17.67	11.0
17.685	20.0
17.7	11.0
17.714	9.0
17.729	9.0
17.744	6.0
17.759	13.0
17.773	9.0
17.788	8.0
17.803	8.0
17.818	13.0
17.833	13.0
17.847	9.0
17.862	16.0
17.877	10.0
17.892	9.0
17.906	8.0
17.921	10.0
17.936	16.0
17.951	9.0
17.966	8.0
17.98	12.0
17.995	9.0
18.01	5.0
18.025	13.0
18.04	19.0
18.054	11.0
18.069	9.0
18.084	8.0
18.099	10.0
18.114	10.0
18.128	7.0
18.143	14.0
18.158	10.0
18.173	6.0
18.188	12.0
18.202	9.0
18.217	11.0
18.232	5.0
18.247	20.0
18.262	13.0
18.276	8.0
18.291	13.0
18.306	13.0
18.321	14.0
18.336	15.0
18.35	10.0
18.365	10.0
18.38	10.0
18.395	13.0
18.41	15.0
18.424	7.0
18.439	12.0
18.454	22.0
18.469	13.0
18.484	9.0
18.498	7.0
18.513	13.0
18.528	13.0
18.543	14.0
18.558	11.0
18.573	18.0
18.587	11.0
18.602	11.0
18.617	14.0
18.632	10.0
18.647	9.0
18.661	10.0
18.676	9.0
18.691	12.0
18.706	8.0
18.721	10.0
18.736	15.0
18.75	9.0
18.765	9.0
18.78	14.0
18.795	9.0
18.81	11.0
18.825	7.0
18.839	6.0
18.854	16.0
18.869	8.0
18.884	9.0
18.899	9.0
18.913	18.0
18.928	16.0
18.943	8.0
18.958	19.0
18.973	15.0
18.988	11.0
19.002	6.0
19.017	15.0
19.032	15.0
19.047	7.0
19.062	17.0
19.077	16.0
19.091	9.0
19.106	12.0
19.121	14.0
19.136	13.0
19.151	16.0
19.165	18.0
19.18	13.0
19.195	13.0
19.21	14.0
19.225	11.0
19.24	17.0
19.254	8.0
19.269	11.0
19.284	19.0
19.299	16.0
19.314	11.0
19.329	13.0
19.343	15.0
19.358	15.0
19.373	14.0
19.388	18.0
19.403	17.0
19.417	23.0
19.432	22.0
19.447	25.0
19.462	30.0
19.477	33.0
19.492	32.0
19.506	27.0
19.521	30.0
19.536	32.0
19.551	41.0
19.566	42.0
19.58	38.0
19.595	37.0
19.61	34.0
19.625	47.0
19.64	48.0
19.655	33.0
19.669	28.0
19.684	22.0
19.699	25.0
19.714	34.0
19.729	25.0
19.743	25.0
19.758	22.0
19.773	17.0
19.788	21.0
19.803	17.0
19.817	22.0
19.832	12.0
19.847	18.0
19.862	15.0
19.877	13.0
19.891	10.0
19.906	13.0
19.921	12.0
19.936	17.0
19.951	8.0
19.965	13.0
19.98	15.0
19.995	15.0
20.01	11.0
20.025	8.0
20.039	10.0
20.054	8.0
20.069	10.0
20.084	19.0
20.099	11.0
20.113	12.0
20.128	13.0
20.143	12.0
20.158	6.0
20.173	7.0
20.187	11.0
20.202	12.0
20.217	8.0
20.232	7.0
20.246	11.0
20.261	6.0
20.276	10.0
20.291	9.0
20.306	15.0
20.32	11.0
20.335	11.0
20.35	8.0
20.365	14.0
20.38	16.0
20.394	11.0
20.409	9.0
20.424	11.0
20.439	15.0
20.453	10.0
20.468	10.0
20.483	23.0
20.498	10.0
20.513	10.0
20.527	3.0
20.542	10.0
20.557	8.0
20.572	10.0
20.586	13.0
20.601	7.0
20.616	9.0
20.631	8.0
20.646	10.0
20.66	8.0
20.675	11.0
20.69	9.0
20.705	9.0
20.719	9.0
20.734	9.0
20.749	13.0
20.764	7.0
20.779	7.0
20.793	8.0
20.808	9.0
20.823	10.0
20.838	8.0
20.853	10.0
20.867	16.0
20.882	9.0
20.897	11.0
20.912	24.0
20.926	5.0
20.941	17.0
20.956	6.0
20.971	9.0
20.986	10.0
21.0	5.0
21.015	9.0
21.03	16.0
21.045	11.0
21.06	8.0
21.074	15.0
21.089	12.0
21.104	12.0
21.119	9.0
21.134	10.0
21.148	8.0
21.163	5.0
21.178	10.0
21.193	6.0
21.208	10.0
21.222	7.0
21.237	12.0
21.252	12.0
21.267	10.0
21.282	11.0
21.296	7.0
21.311	15.0
21.326	9.0
21.341	14.0
21.356	11.0
21.37	15.0
21.385	10.0
21.4	8.0
21.415	10.0
21.43	12.0
21.444	11.0
21.459	15.0
21.474	16.0
21.489	8.0
21.504	13.0
21.519	15.0
21.533	8.0
21.548	9.0
21.563	13.0
21.578	11.0
21.593	13.0
21.608	12.0
21.622	14.0
21.637	13.0
21.652	25.0
21.667	18.0
21.682	17.0
21.697	21.0
21.712	20.0
21.726	21.0
21.741	28.0
21.756	32.0
21.771	33.0
21.786	41.0
21.801	33.0
21.816	35.0
21.83	49.0
21.845	54.0
21.86	60.0
21.875	61.0
21.89	65.0
21.905	65.0
21.92	69.0
21.935	86.0
21.949	73.0
21.964	77.0
21.979	82.0
21.994	83.0
22.009	73.0
22.024	62.0
22.039	52.0
22.054	42.0
22.069	56.0
22.083	45.0
22.098	35.0
22.113	32.0
22.128	28.0
22.143	37.0
22.158	33.0
22.173	14.0
22.188	16.0
22.203	18.0
22.218	24.0
22.233	16.0
22.248	14.0
22.262	13.0
22.277	12.0
22.292	12.0
22.307	10.0
22.322	14.0
22.337	17.0
22.352	14.0
22.367	12.0
22.382	9.0
22.397	5.0
22.412	10.0
22.427	12.0
22.442	11.0
22.457	16.0
22.472	7.0
22.487	14.0
22.502	12.0
22.516	15.0
22.531	13.0
22.546	9.0
22.561	12.0
22.576	12.0
22.591	18.0
22.606	9.0
22.621	16.0
22.636	16.0
22.651	11.0
22.666	12.0
22.681	7.0
22.696	8.0
22.711	10.0
22.726	9.0
22.741	8.0
22.756	8.0
22.771	9.0
22.786	8.0
22.801	11.0
22.816	12.0
22.831	9.0
22.846	13.0
22.861	9.0
22.876	11.0
22.891	10.0
22.906	13.0
22.92	12.0
22.935	9.0
22.95	14.0
22.965	14.0
22.98	10.0
22.995	8.0
23.01	10.0
23.025	9.0
23.04	5.0
23.055	5.0
23.07	13.0
23.085	7.0
23.1	9.0
23.115	9.0
23.13	8.0
23.145	9.0
23.16	17.0
23.175	8.0
23.19	9.0
23.205	13.0
23.22	9.0
23.235	11.0
23.25	11.0
23.265	7.0
23.28	7.0
23.295	8.0
23.31	16.0
23.325	9.0
23.34	8.0
23.355	13.0
23.37	9.0
23.384	7.0
23.399	9.0
23.414	6.0
23.429	8.0
23.444	8.0
23.459	12.0
23.474	8.0
23.489	7.0
23.504	13.0
23.519	13.0
23.534	10.0
23.549	15.0
23.564	5.0
23.579	6.0
23.594	11.0
23.609	12.0
23.624	16.0
23.639	12.0
23.654	9.0
23.668	11.0
23.683	13.0
23.698	7.0
23.713	9.0
23.728	17.0
23.743	9.0
23.758	10.0
23.773	13.0
23.788	11.0
23.803	13.0
23.818	16.0
23.833	13.0
23.848	14.0
23.862	23.0
23.877	13.0
23.892	20.0
23.907	17.0
23.922	18.0
23.937	19.0
23.952	24.0
23.967	37.0
23.982	25.0
23.997	36.0
24.011	43.0
24.026	39.0
24.041	47.0
24.056	44.0
24.071	51.0
24.086	48.0
24.101	61.0
24.116	61.0
24.131	40.0
24.145	47.0
24.16	48.0
24.175	38.0
24.19	44.0
24.205	30.0
24.22	25.0
24.235	29.0
24.249	19.0
24.264	18.0
24.279	22.0
24.294	24.0
24.309	30.0
24.324	22.0
24.338	11.0
24.353	13.0
24.368	15.0
24.383	7.0
24.398	10.0
24.413	7.0
24.428	14.0
24.442	12.0
24.457	12.0
24.472	13.0
24.487	8.0
24.502	12.0
24.516	14.0
24.531	9.0
24.546	6.0
24.561	11.0
24.576	9.0
24.591	13.0
24.605	11.0
24.62	13.0
24.635	7.0
24.65	7.0
24.665	6.0
24.679	8.0
24.694	6.0
24.709	9.0
24.724	8.0
24.739	12.0
24.753	12.0
24.768	8.0
24.783	4.0
24.798	13.0
24.813	10.0
24.827	7.0
24.842	10.0
24.857	11.0
24.872	8.0
24.886	9.0
24.901	4.0
24.916	10.0
24.931	11.0
24.946	14.0
24.96	12.0
24.975	9.0
24.99	11.0
25.005	10.0
25.019	7.0
25.034	10.0
25.049	19.0
25.064	6.0
25.078	11.0
25.093	14.0
25.108	1.0
25.123	8.0
25.138	9.0
25.152	10.0
25.167	9.0
25.182	8.0
25.197	9.0
25.211	11.0
25.226	5.0
25.241	14.0
25.256	2.0
25.27	6.0
25.285	10.0
25.3	14.0
25.315	10.0
25.329	10.0
25.344	10.0
25.359	4.0
25.374	9.0
25.388	8.0
25.403	7.0
25.418	8.0
25.433	17.0
25.447	9.0
25.462	6.0
25.477	9.0
25.492	9.0
25.506	6.0
25.521	7.0
25.536	9.0
25.55	12.0
25.565	7.0
25.58	5.0
25.595	10.0
25.609	11.0
25.624	11.0
25.639	9.0
25.654	9.0
25.668	8.0
25.683	11.0
25.698	6.0
25.713	9.0
25.727	11.0
25.742	11.0
25.757	10.0
25.772	9.0
25.786	11.0
25.801	6.0
25.816	6.0
25.83	11.0
25.845	4.0
25.86	8.0
25.875	9.0
25.889	10.0
25.904	10.0
25.919	13.0
25.934	13.0
25.948	8.0
25.963	14.0
25.978	14.0
25.992	13.0
26.007	6.0
26.022	10.0
26.037	15.0
26.051	9.0
26.066	10.0
26.081	12.0
26.096	7.0
26.11	9.0
26.125	5.0
26.14	8.0
26.155	5.0
26.169	13.0
26.184	9.0
26.199	9.0
26.213	13.0
26.228	7.0
26.243	9.0
26.258	11.0
26.272	6.0
26.287	5.0
26.302	11.0
26.317	7.0
26.331	10.0
26.346	11.0
26.361	5.0
26.376	6.0
26.39	9.0
26.405	17.0
26.42	13.0
26.434	10.0
26.449	8.0
26.464	11.0
26.479	12.0
26.493	13.0
26.508	14.0
26.523	12.0
26.538	6.0
26.552	7.0
26.567	8.0
26.582	6.0
26.597	9.0
26.611	8.0
26.626	9.0
26.641	11.0
26.656	9.0
26.67	13.0
26.685	11.0
26.7	13.0
26.715	7.0
26.729	7.0
26.744	11.0
26.759	8.0
26.773	6.0
26.788	8.0
26.803	9.0
26.818	8.0
26.832	9.0
26.847	9.0
26.862	9.0
26.877	11.0
26.891	3.0
26.906	5.0
26.921	8.0
26.936	2.0
26.95	11.0
26.965	5.0
26.98	16.0
26.995	8.0
27.01	8.0
27.024	8.0
27.039	9.0
27.054	6.0
27.069	9.0
27.083	18.0
27.098	14.0
27.113	14.0
27.128	13.0
27.142	5.0
27.157	7.0
27.172	9.0
27.187	8.0
27.201	7.0
27.216	8.0
27.231	11.0
27.246	13.0
27.261	11.0
27.275	9.0
27.29	14.0
27.305	7.0
27.32	8.0
27.334	11.0
27.349	8.0
27.364	10.0
27.379	12.0
27.394	12.0
27.408	8.0
27.423	8.0
27.438	6.0
27.453	15.0
27.467	10.0
27.482	15.0
27.497	8.0
27.512	12.0
27.527	14.0
27.541	11.0
27.556	7.0
27.571	12.0
27.586	12.0
27.601	7.0
27.615	11.0
27.63	11.0
27.645	11.0
27.66	9.0
27.675	15.0
27.689	9.0
27.704	12.0
27.719	9.0
27.734	14.0
27.749	18.0
27.763	26.0
27.778	17.0
27.793	16.0
27.808	21.0
27.823	14.0
27.838	25.0
27.852	24.0
27.867	28.0
27.882	27.0
27.897	19.0
27.912	20.0
27.926	18.0
27.941	18.0
27.956	16.0
27.971	24.0
27.986	20.0
28.001	15.0
28.015	29.0
28.03	14.0
28.045	17.0
28.06	20.0
28.075	16.0
28.09	18.0
28.105	11.0
28.119	12.0
28.134	12.0
28.149	10.0
28.164	12.0
28.179	17.0
28.194	11.0
28.208	8.0
28.223	8.0
28.238	11.0
28.253	15.0
28.268	12.0
28.283	12.0
28.298	8.0
28.312	12.0
28.327	17.0
28.342	7.0
28.357	8.0
28.372	16.0
28.387	7.0
28.402	19.0
28.417	16.0
28.431	8.0
28.446	12.0
28.461	11.0
28.476	14.0
28.491	9.0
28.506	17.0
28.521	10.0
28.536	7.0
28.55	13.0
28.565	6.0
28.58	18.0
28.595	5.0
28.61	4.0
28.625	10.0
28.64	15.0
28.655	9.0
28.669	11.0
28.684	15.0
28.699	10.0
28.714	15.0
28.729	8.0
28.744	6.0
28.759	12.0
28.774	12.0
28.788	10.0
28.803	10.0
28.818	12.0
28.833	8.0
28.848	12.0
28.863	9.0
28.878	14.0
28.893	8.0
28.908	10.0
28.922	12.0
28.937	16.0
28.952	8.0
28.967	7.0
28.982	12.0
28.997	5.0
29.012	11.0
29.027	9.0
29.041	7.0
29.056	10.0
29.071	6.0
29.086	4.0
29.101	10.0
29.116	9.0
29.131	8.0
29.146	11.0
29.16	13.0
29.175	15.0
29.19	8.0
29.205	13.0
29.22	11.0
29.235	15.0
29.25	14.0
29.265	8.0
29.279	5.0
29.294	11.0
29.309	16.0
29.324	19.0
29.339	11.0
29.354	4.0
29.369	13.0
29.384	19.0
29.398	22.0
29.413	25.0
29.428	13.0
29.443	19.0
29.458	23.0
29.473	33.0
29.488	22.0
29.502	32.0
29.517	23.0
29.532	38.0
29.547	34.0
29.562	40.0
29.577	54.0
29.592	46.0
29.606	55.0
29.621	44.0
29.636	45.0
29.651	37.0
29.666	48.0
29.681	45.0
29.695	39.0
29.71	41.0
29.725	30.0
29.74	37.0
29.755	36.0
29.77	26.0
29.784	27.0
29.799	39.0
29.814	31.0
29.829	25.0
29.844	33.0
29.859	19.0
29.873	20.0
29.888	16.0
29.903	17.0
29.918	17.0
29.933	10.0
29.947	15.0
29.962	15.0
29.977	14.0
29.992	10.0
30.007	5.0
30.021	10.0
30.036	15.0
30.051	8.0
30.066	11.0
30.081	13.0
30.095	3.0
30.11	11.0
30.125	13.0
30.14	10.0
30.155	8.0
30.169	4.0
30.184	9.0
30.199	7.0
30.214	10.0
30.228	10.0
30.243	5.0
30.258	9.0
30.273	8.0
30.288	11.0
30.302	11.0
30.317	12.0
30.332	9.0
30.347	13.0
30.361	14.0
30.376	12.0
30.391	11.0
30.406	17.0
30.42	11.0
30.435	14.0
30.45	14.0
30.465	6.0
30.479	9.0
30.494	8.0
30.509	11.0
30.524	11.0
30.538	13.0
30.553	10.0
30.568	11.0
30.583	6.0
30.597	7.0
30.612	9.0
30.627	7.0
30.641	7.0
30.656	6.0
30.671	12.0
30.686	6.0
30.7	14.0
30.715	7.0
30.73	13.0
30.745	10.0
30.759	13.0
30.774	15.0
30.789	6.0
30.803	7.0
30.818	13.0
30.833	9.0
30.848	15.0
30.862	9.0
30.877	10.0
30.892	11.0
30.906	10.0
30.921	12.0
30.936	11.0
30.951	16.0
30.965	14.0
30.98	7.0
30.995	10.0
31.009	8.0
31.024	11.0
31.039	11.0
31.053	12.0
31.068	16.0
31.083	15.0
31.098	17.0
31.112	21.0
31.127	16.0
31.142	17.0
31.156	16.0
31.171	16.0
31.186	22.0
31.2	27.0
31.215	39.0
31.23	30.0
31.245	33.0
31.259	39.0
31.274	33.0
31.289	42.0
31.303	47.0
31.318	33.0
31.333	29.0
31.347	34.0
31.362	39.0
31.377	19.0
31.392	29.0
31.406	24.0
31.421	25.0
31.436	32.0
31.45	24.0
31.465	22.0
31.48	25.0
31.494	15.0
31.509	17.0
31.524	17.0
31.538	14.0
31.553	10.0
31.568	13.0
31.583	18.0
31.597	11.0
31.612	12.0
31.627	15.0
31.641	9.0
31.656	9.0
31.671	14.0
31.685	13.0
31.7	9.0
31.715	13.0
31.729	13.0
31.744	13.0
31.759	11.0
31.774	12.0
31.788	13.0
31.803	9.0
31.818	10.0
31.832	14.0
31.847	11.0
31.862	16.0
31.876	14.0
31.891	12.0
31.906	11.0
31.92	15.0
31.935	5.0
31.95	4.0
31.965	10.0
31.979	5.0
31.994	10.0
32.009	7.0
32.023	12.0
32.038	11.0
32.053	12.0
32.067	15.0
32.082	11.0
32.097	8.0
32.112	11.0
32.126	12.0
32.141	8.0
32.156	13.0
32.17	5.0
32.185	11.0
32.2	15.0
32.214	16.0
32.229	3.0
32.244	10.0
32.259	7.0
32.273	9.0
32.288	9.0
32.303	16.0
32.317	13.0
32.332	8.0
32.347	11.0
32.362	11.0
32.376	10.0
32.391	12.0
32.406	8.0
32.42	7.0
32.435	10.0
32.45	14.0
32.465	11.0
32.479	14.0
32.494	16.0
32.509	12.0
32.523	12.0
32.538	12.0
32.553	9.0
32.568	12.0
32.582	10.0
32.597	11.0
32.612	8.0
32.627	15.0
32.641	13.0
32.656	18.0
32.671	13.0
32.685	12.0
32.7	14.0
32.715	15.0
32.73	28.0
32.744	16.0
32.759	25.0
32.774	24.0
32.788	29.0
32.803	27.0
32.818	21.0
32.833	29.0
32.847	22.0
32.862	29.0
32.877	17.0
32.892	19.0
32.906	25.0
32.921	15.0
32.936	22.0
32.951	15.0
32.965	11.0
32.98	20.0
32.995	20.0
33.009	21.0
33.024	21.0
33.039	16.0
33.054	14.0
33.068	12.0
33.083	17.0
33.098	12.0
33.113	17.0
33.127	16.0
33.142	12.0
33.157	7.0
33.172	15.0
33.186	19.0
33.201	11.0
33.216	3.0
33.231	8.0
33.245	12.0
33.26	16.0
33.275	8.0
33.29	8.0
33.304	7.0
33.319	12.0
33.334	8.0
33.349	13.0
33.363	8.0
33.378	13.0
33.393	13.0
33.408	10.0
33.422	5.0
33.437	8.0
33.452	8.0
33.467	7.0
33.481	9.0
33.496	5.0
33.511	7.0
33.526	14.0
33.54	4.0
33.555	8.0
33.57	6.0
33.585	6.0
33.599	11.0
33.614	8.0
33.629	9.0
33.644	9.0
33.658	8.0
33.673	5.0
33.688	6.0
33.703	9.0
33.718	10.0
33.732	13.0
33.747	4.0
33.762	3.0
33.777	11.0
33.791	6.0
33.806	11.0
33.821	9.0
33.836	7.0
33.85	12.0
33.865	12.0
33.88	6.0
33.895	10.0
33.91	10.0
33.924	8.0
33.939	10.0
33.954	11.0
33.969	9.0
33.983	13.0
33.998	7.0
34.013	10.0
34.028	13.0
34.042	8.0
34.057	11.0
34.072	7.0
34.087	8.0
34.102	7.0
34.116	7.0
34.131	11.0
34.146	21.0
34.161	7.0
34.175	16.0
34.19	14.0
34.205	7.0
34.22	7.0
34.235	6.0
34.249	10.0
34.264	13.0
34.279	17.0
34.294	13.0
34.309	16.0
34.323	14.0
34.338	18.0
34.353	7.0
34.368	12.0
34.382	10.0
34.397	13.0
34.412	4.0
34.427	12.0
34.442	12.0
34.456	12.0
34.471	5.0
34.486	11.0
34.501	19.0
34.516	7.0
34.53	9.0
34.545	17.0
34.56	9.0
34.575	6.0
34.59	15.0
34.604	11.0
34.619	9.0
34.634	7.0
34.649	6.0
34.664	11.0
34.678	14.0
34.693	10.0
34.708	10.0
34.723	10.0
34.738	6.0
34.752	7.0
34.767	8.0
34.782	9.0
34.797	4.0
34.812	10.0
34.826	10.0
34.841	7.0
34.856	10.0
34.871	4.0
34.886	11.0
34.9	12.0
34.915	10.0
34.93	8.0
34.945	7.0
34.96	13.0
34.974	9.0
34.989	6.0
35.004	8.0
35.019	6.0
35.034	9.0
35.048	15.0
35.063	7.0
35.078	8.0
35.093	4.0
35.108	13.0
35.122	14.0
35.137	5.0
35.152	8.0
35.167	4.0
35.182	8.0
35.196	6.0
35.211	11.0
35.226	9.0
35.241	5.0
35.256	14.0
35.27	6.0
35.285	10.0
35.3	6.0
35.315	10.0
35.33	9.0
35.344	9.0
35.359	4.0
35.374	9.0
35.389	6.0
35.404	6.0
35.418	4.0
35.433	13.0
35.448	12.0
35.463	7.0
35.478	7.0
35.493	9.0
35.507	9.0
35.522	9.0
35.537	16.0
35.552	8.0
35.567	7.0
35.581	9.0
35.596	12.0
35.611	17.0
35.626	11.0
35.641	11.0
35.655	6.0
35.67	12.0
35.685	15.0
35.7	13.0
35.715	14.0
35.729	21.0
35.744	22.0
35.759	17.0
35.774	19.0
35.789	12.0
35.804	13.0
35.818	18.0
35.833	13.0
35.848	20.0
35.863	17.0
35.878	17.0
35.892	12.0
35.907	12.0
35.922	16.0
35.937	13.0
35.952	13.0
35.966	17.0
35.981	10.0
35.996	6.0
36.011	8.0
36.026	15.0
36.04	10.0
36.055	12.0
36.07	8.0
36.085	16.0
36.1	9.0
36.114	13.0
36.129	4.0
36.144	6.0
36.159	14.0
36.174	10.0
36.189	9.0
36.203	15.0
36.218	9.0
36.233	4.0
36.248	5.0
36.263	6.0
36.277	9.0
36.292	4.0
36.307	9.0
36.322	6.0
36.337	7.0
36.351	5.0
36.366	7.0
36.381	8.0
36.396	5.0
36.411	9.0
36.426	5.0
36.44	11.0
36.455	5.0
36.47	9.0
36.485	7.0
36.5	13.0
36.514	11.0
36.529	10.0
36.544	6.0
36.559	10.0
36.574	5.0
36.589	14.0
36.603	5.0
36.618	11.0
36.633	12.0
36.648	6.0
36.663	7.0
36.677	11.0
36.692	7.0
36.707	7.0
36.722	7.0
36.737	7.0
36.752	8.0
36.766	10.0
36.781	6.0
36.796	6.0
36.811	6.0
36.826	7.0
36.841	9.0
36.855	6.0
36.87	11.0
36.885	7.0
36.9	10.0
36.915	6.0
36.93	10.0
36.944	7.0
36.959	6.0
36.974	5.0
36.989	8.0
37.004	8.0
37.019	10.0
37.033	5.0
37.048	13.0
37.063	10.0
37.078	23.0
37.093	23.0
37.108	25.0
37.123	24.0
37.137	21.0
37.152	18.0
37.167	21.0
37.182	33.0
37.197	26.0
37.212	26.0
37.226	18.0
37.241	23.0
37.256	21.0
37.271	13.0
37.286	18.0
37.301	14.0
37.316	22.0
37.331	14.0
37.345	14.0
37.36	20.0
37.375	21.0
37.39	17.0
37.405	20.0
37.42	23.0
37.435	14.0
37.45	21.0
37.464	12.0
37.479	14.0
37.494	12.0
37.509	13.0
37.524	17.0
37.539	10.0
37.554	9.0
37.569	9.0
37.583	7.0
37.598	9.0
37.613	11.0
37.628	10.0
37.643	3.0
37.658	5.0
37.673	9.0
37.688	13.0
37.703	6.0
37.718	2.0
37.733	8.0
37.747	6.0
37.762	9.0
37.777	13.0
37.792	7.0
37.807	5.0
37.822	10.0
37.837	7.0
37.852	11.0
37.867	7.0
37.882	6.0
37.897	9.0
37.912	7.0
37.927	5.0
37.941	4.0
37.956	10.0
37.971	6.0
37.986	2.0
38.001	8.0
38.016	6.0
38.031	6.0
38.046	9.0
38.061	9.0
38.076	5.0
38.091	8.0
38.106	4.0
38.121	7.0
38.136	9.0
38.151	12.0
38.166	2.0
38.181	5.0
38.196	4.0
38.211	8.0
38.226	4.0
38.241	2.0
38.256	7.0
38.271	7.0
38.285	4.0
38.3	12.0
38.315	4.0
38.33	6.0
38.345	9.0
38.36	3.0
38.375	3.0
38.39	3.0
38.405	8.0
38.42	10.0
38.435	4.0
38.45	7.0
38.465	6.0
38.48	7.0
38.495	9.0
38.51	9.0
38.525	7.0
38.54	5.0
38.555	10.0
38.57	4.0
38.585	6.0
38.6	5.0
38.615	11.0
38.63	6.0
38.645	6.0
38.66	8.0
38.675	5.0
38.69	3.0
38.705	6.0
38.72	10.0
38.735	4.0
38.75	7.0
38.765	7.0
38.78	4.0
38.795	11.0
38.81	8.0
38.825	11.0
38.84	9.0
38.855	4.0
38.87	6.0
38.885	3.0
38.9	14.0
38.915	7.0
38.93	11.0
38.945	4.0
38.96	8.0
38.975	2.0
38.99	7.0
39.005	8.0
39.02	4.0
39.035	4.0
39.05	8.0
39.065	6.0
39.08	6.0
39.095	6.0
39.11	7.0
39.125	5.0
39.14	8.0
39.155	8.0
39.17	10.0
39.185	8.0
39.2	5.0
39.215	7.0
39.23	5.0
39.245	4.0
39.26	9.0
39.275	5.0
39.29	2.0
39.305	12.0
39.32	5.0
39.335	5.0
39.35	5.0
39.365	4.0
39.38	4.0
39.395	7.0
39.409	5.0
39.424	5.0
39.439	5.0
39.454	8.0
39.469	6.0
39.484	4.0
39.499	6.0
39.514	6.0
39.529	9.0
39.544	5.0
39.559	5.0
39.574	6.0
39.589	6.0
39.604	5.0
39.619	3.0
39.634	3.0
39.649	5.0
39.664	6.0
39.678	7.0
39.693	5.0
39.708	6.0
39.723	9.0
39.738	8.0
39.753	4.0
39.768	9.0
39.783	7.0
39.798	8.0
39.813	4.0
39.827	14.0
39.842	11.0
39.857	9.0
39.872	9.0
39.887	10.0
39.902	8.0
39.917	2.0
39.932	7.0
39.947	7.0
39.961	6.0
39.976	6.0
39.991	3.0
40.006	6.0
40.021	8.0
40.036	3.0
40.051	6.0
40.065	9.0
40.08	4.0
40.095	10.0
40.11	6.0
40.125	8.0
40.14	8.0
40.154	5.0
40.169	7.0
40.184	6.0
40.199	4.0
40.214	4.0
40.228	6.0
40.243	5.0
40.258	8.0
40.273	5.0
40.288	7.0
40.302	3.0
40.317	7.0
40.332	4.0
40.347	7.0
40.362	6.0
40.376	9.0
40.391	6.0
40.406	3.0
40.421	7.0
40.436	8.0
40.45	5.0
40.465	4.0
40.48	9.0
40.495	12.0
40.509	9.0
40.524	5.0
40.539	4.0
40.554	3.0
40.568	9.0
40.583	6.0
40.598	5.0
40.613	4.0
40.627	5.0
40.642	1.0
40.657	7.0
40.672	6.0
40.686	7.0
40.701	7.0
40.716	5.0
40.731	7.0
40.745	4.0
40.76	3.0
40.775	3.0
40.79	3.0
40.804	8.0
40.819	5.0
40.834	9.0
40.849	4.0
40.863	4.0
40.878	4.0
40.893	5.0
40.907	7.0
40.922	2.0
40.937	7.0
40.952	5.0
40.966	9.0
40.981	7.0
40.996	13.0
41.011	12.0
41.025	9.0
41.04	14.0
41.055	12.0
41.069	13.0
41.084	13.0
41.099	24.0
41.114	19.0
41.128	17.0
41.143	21.0
41.158	20.0
41.173	16.0
41.187	21.0
41.202	18.0
41.217	13.0
41.231	9.0
41.246	8.0
41.261	10.0
41.276	14.0
41.29	9.0
41.305	16.0
41.32	11.0
41.335	6.0
41.349	12.0
41.364	10.0
41.379	6.0
41.393	10.0
41.408	10.0
41.423	13.0
41.438	12.0
41.452	7.0
41.467	11.0
41.482	11.0
41.497	9.0
41.511	7.0
41.526	8.0
41.541	8.0
41.556	11.0
41.57	7.0
41.585	7.0
41.6	5.0
41.615	6.0
41.629	4.0
41.644	9.0
41.659	8.0
41.674	6.0
41.688	6.0
41.703	9.0
41.718	7.0
41.733	3.0
41.747	5.0
41.762	6.0
41.777	14.0
41.792	4.0
41.806	6.0
41.821	4.0
41.836	8.0
41.851	5.0
41.866	8.0
41.88	4.0
41.895	5.0
41.91	4.0
41.925	2.0
41.939	4.0
41.954	6.0
41.969	6.0
41.984	6.0
41.999	1.0
42.013	8.0
42.028	4.0
42.043	3.0
42.058	7.0
42.073	5.0
42.088	5.0
42.102	5.0
42.117	7.0
42.132	9.0
42.147	3.0
42.162	5.0
42.176	8.0
42.191	5.0
42.206	4.0
42.221	5.0
42.236	4.0
42.251	7.0
42.266	9.0
42.28	8.0
42.295	14.0
42.31	6.0
42.325	13.0
42.34	11.0
42.355	13.0
42.369	12.0
42.384	9.0
42.399	14.0
42.414	24.0
42.429	10.0
42.444	15.0
42.459	18.0
42.474	12.0
42.488	8.0
42.503	10.0
42.518	5.0
42.533	3.0
42.548	5.0
42.563	6.0
42.578	10.0
42.593	20.0
42.608	3.0
42.622	12.0
42.637	9.0
42.652	14.0
42.667	12.0
42.682	10.0
42.697	12.0
42.712	8.0
42.727	13.0
42.742	7.0
42.757	9.0
42.772	4.0
42.786	10.0
42.801	7.0
42.816	5.0
42.831	3.0
42.846	9.0
42.861	8.0
42.876	5.0
42.891	2.0
42.906	4.0
42.921	3.0
42.936	4.0
42.951	7.0
42.966	3.0
42.981	3.0
42.996	2.0
43.011	7.0
43.025	3.0
43.04	4.0
43.055	6.0
43.07	6.0
43.085	6.0
43.1	5.0
43.115	5.0
43.13	4.0
43.145	7.0
43.16	8.0
43.175	5.0
43.19	7.0
43.205	7.0
43.22	4.0
43.235	4.0
43.25	3.0
43.265	5.0
43.28	3.0
43.295	7.0
43.31	3.0
43.325	7.0
43.34	5.0
43.355	1.0
43.37	4.0
43.385	8.0
43.4	10.0
43.415	0.0
43.43	4.0
43.445	6.0
43.46	6.0
43.475	4.0
43.49	8.0
43.505	2.0
43.52	8.0
43.535	5.0
43.55	4.0
43.565	8.0
43.58	10.0
43.595	10.0
43.61	11.0
43.625	16.0
43.64	7.0
43.655	10.0
43.67	9.0
43.685	7.0
43.7	8.0
43.715	5.0
43.73	10.0
43.745	5.0
43.76	3.0
43.775	14.0
43.79	6.0
43.805	7.0
43.82	11.0
43.835	9.0
43.85	4.0
43.865	5.0
43.88	11.0
43.895	7.0
43.91	3.0
43.925	6.0
43.94	2.0
43.955	5.0
43.97	4.0
43.985	9.0
44.0	5.0
44.015	7.0
44.03	1.0
44.045	3.0
44.061	8.0
44.076	3.0
44.091	2.0
44.106	3.0
44.121	4.0
44.136	4.0
44.151	4.0
44.166	7.0
44.181	4.0
44.196	6.0
44.211	3.0
44.226	2.0
44.241	4.0
44.256	7.0
44.271	5.0
44.286	3.0
44.301	6.0
44.316	6.0
44.331	4.0
44.346	5.0
44.361	6.0
44.377	2.0
44.392	7.0
44.407	6.0
44.422	3.0
44.437	5.0
44.452	3.0
44.467	8.0
44.482	6.0
44.497	6.0
44.512	4.0
44.527	1.0
44.542	8.0
44.557	3.0
44.572	7.0
44.587	8.0
44.602	3.0
44.617	5.0
44.632	5.0
44.647	2.0
44.663	5.0
44.678	8.0
44.693	8.0
44.708	5.0
44.723	13.0
44.738	6.0
44.753	9.0
44.768	12.0
44.783	17.0
44.798	9.0
44.813	10.0
44.828	6.0
44.843	13.0
44.858	17.0
44.873	7.0
44.888	6.0
44.903	13.0
44.918	9.0
44.933	5.0
44.948	4.0
44.964	3.0
44.979	10.0
44.994	8.0
45.009	4.0
45.024	8.0
45.039	10.0
45.054	9.0
45.069	3.0
45.084	4.0
45.099	9.0
45.114	5.0
45.129	7.0
45.144	4.0
45.159	11.0
45.174	8.0
45.189	7.0
45.204	5.0
45.219	5.0
45.234	6.0
45.249	7.0
45.264	9.0
45.279	3.0
45.294	4.0
45.309	2.0
45.324	3.0
45.339	8.0
45.354	9.0
45.369	3.0
45.384	3.0
45.399	2.0
45.414	5.0
45.429	2.0
45.444	0.0
45.459	4.0
45.474	5.0
45.489	4.0
45.504	3.0
45.519	7.0
45.534	1.0
45.549	5.0
45.564	5.0
45.579	11.0
45.594	2.0
45.609	5.0
45.624	5.0
45.639	5.0
45.654	4.0
45.669	6.0
45.684	7.0
45.699	6.0
45.714	6.0
45.729	5.0
45.744	6.0
45.759	3.0
45.774	2.0
45.789	3.0
45.804	4.0
45.819	3.0
45.834	7.0
45.849	9.0
45.864	9.0
45.879	4.0
45.894	11.0
45.909	12.0
45.924	14.0
45.939	9.0
45.954	15.0
45.969	13.0
45.984	9.0
45.998	14.0
46.013	12.0
46.028	14.0
46.043	14.0
46.058	11.0
46.073	7.0
46.088	19.0
46.103	8.0
46.118	10.0
46.133	8.0
46.148	4.0
46.163	10.0
46.178	4.0
46.192	8.0
46.207	4.0
46.222	13.0
46.237	15.0
46.252	7.0
46.267	11.0
46.282	16.0
46.297	12.0
46.312	8.0
46.327	10.0
46.341	10.0
46.356	9.0
46.371	4.0
46.386	5.0
46.401	8.0
46.416	7.0
46.431	5.0
46.446	5.0
46.46	7.0
46.475	9.0
46.49	4.0
46.505	7.0
46.52	3.0
46.535	7.0
46.55	8.0
46.564	4.0
46.579	3.0
46.594	4.0
46.609	2.0
46.624	2.0
46.639	5.0
46.654	2.0
46.668	4.0
46.683	6.0
46.698	5.0
46.713	4.0
46.728	5.0
46.743	4.0
46.758	6.0
46.772	2.0
46.787	5.0
46.802	6.0
46.817	9.0
46.832	2.0
46.847	8.0
46.861	3.0
46.876	5.0
46.891	4.0
46.906	5.0
46.921	8.0
46.936	3.0
46.95	6.0
46.965	7.0
46.98	2.0
46.995	6.0
47.01	7.0
47.025	6.0
47.039	6.0
47.054	13.0
47.069	12.0
47.084	10.0
47.099	6.0
47.113	12.0
47.128	7.0
47.143	15.0
47.158	9.0
47.173	6.0
47.188	7.0
47.202	15.0
47.217	11.0
47.232	2.0
47.247	6.0
47.262	6.0
47.277	5.0
47.291	7.0
47.306	3.0
47.321	9.0
47.336	5.0
47.351	7.0
47.365	8.0
47.38	6.0
47.395	7.0
47.41	5.0
47.425	8.0
47.44	4.0
47.454	7.0
47.469	7.0
47.484	8.0
47.499	8.0
47.514	4.0
47.528	4.0
47.543	6.0
47.558	8.0
47.573	1.0
47.588	5.0
47.603	8.0
47.617	7.0
47.632	2.0
47.647	4.0
47.662	7.0
47.677	2.0
47.691	2.0
47.706	8.0
47.721	7.0
47.736	8.0
47.751	4.0
47.766	5.0
47.78	4.0
47.795	3.0
47.81	1.0
47.825	9.0
47.84	4.0
47.855	7.0
47.869	1.0
47.884	3.0
47.899	3.0
47.914	1.0
47.929	2.0
47.944	3.0
47.958	6.0
47.973	3.0
47.988	3.0
48.003	5.0
48.018	6.0
48.033	3.0
48.047	2.0
48.062	1.0
48.077	3.0
48.092	3.0
48.107	4.0
48.122	7.0
48.137	4.0
48.151	3.0
48.166	7.0
48.181	4.0
48.196	5.0
48.211	3.0
48.226	4.0
48.241	5.0
48.255	0.0
48.27	3.0
48.285	3.0
48.3	2.0
48.315	2.0
48.33	4.0
48.345	3.0
48.359	5.0
48.374	3.0
48.389	5.0
48.404	3.0
48.419	1.0
48.434	2.0
48.449	3.0
48.464	5.0
48.478	3.0
48.493	6.0
48.508	7.0
48.523	3.0
48.538	4.0
48.553	5.0
48.568	11.0
48.583	5.0
48.597	8.0
48.612	9.0
48.627	9.0
48.642	2.0
48.657	2.0
48.672	4.0
48.687	4.0
48.702	3.0
48.717	6.0
48.731	8.0
48.746	3.0
48.761	3.0
48.776	7.0
48.791	4.0
48.806	3.0
48.821	3.0
48.836	7.0
48.851	7.0
48.866	4.0
48.88	5.0
48.895	2.0
48.91	5.0
48.925	6.0
48.94	7.0
48.955	5.0
48.97	8.0
48.985	6.0
49.0	9.0
49.015	3.0
49.03	4.0
49.044	4.0
49.059	3.0
49.074	1.0
49.089	10.0
49.104	6.0
49.119	6.0
49.134	5.0
49.149	2.0
49.164	3.0
49.179	6.0
49.194	5.0
49.209	2.0
49.224	4.0
49.238	8.0
49.253	3.0
49.268	6.0
49.283	10.0
49.298	6.0
49.313	8.0
49.328	6.0
49.343	7.0
49.358	11.0
49.373	10.0
49.388	4.0
49.403	8.0
49.418	7.0
49.433	8.0
49.448	3.0
49.463	2.0
49.478	6.0
49.492	3.0
49.507	4.0
49.522	3.0
49.537	7.0
49.552	5.0
49.567	2.0
49.582	2.0
49.597	6.0
49.612	7.0
49.627	4.0
49.642	5.0
49.657	8.0
49.672	8.0
49.687	5.0
49.702	3.0
49.717	7.0
49.732	8.0
49.747	7.0
49.762	6.0
49.777	4.0
49.792	9.0
49.807	5.0
49.822	4.0
49.837	8.0
49.852	3.0
49.867	2.0
49.882	3.0
49.897	5.0
49.912	8.0
49.927	5.0
49.942	4.0
49.957	6.0
49.971	4.0
49.986	6.0
50.001	5.0
50.016	4.0
50.031	6.0
50.046	3.0
50.061	5.0
50.076	6.0
50.091	2.0
50.106	5.0
50.121	4.0
50.136	4.0
50.151	6.0
50.166	10.0
50.181	7.0
50.196	5.0
50.211	3.0
50.226	4.0
50.241	4.0
50.256	6.0
50.271	5.0
50.286	8.0
50.302	3.0
50.317	6.0
50.332	5.0
50.347	9.0
50.362	4.0
50.377	7.0
50.392	9.0
50.407	5.0
50.422	11.0
50.437	10.0
50.452	6.0
50.467	3.0
50.482	3.0
50.497	9.0
50.512	4.0
50.527	10.0
50.542	9.0
50.557	5.0
50.572	4.0
50.587	3.0
50.602	6.0
50.617	8.0
50.632	7.0
50.647	8.0
50.662	3.0
50.677	7.0
50.692	2.0
50.707	3.0
50.722	5.0
50.737	7.0
50.752	8.0
50.767	7.0
50.782	5.0
50.797	6.0
50.812	10.0
50.828	3.0
50.843	10.0
50.858	7.0
50.873	7.0
50.888	9.0
50.903	3.0
50.918	4.0
50.933	3.0
50.948	2.0
50.963	5.0
50.978	5.0
50.993	2.0
51.008	6.0
51.023	8.0
51.038	5.0
51.053	6.0
51.068	3.0
51.083	6.0
51.098	7.0
51.114	1.0
51.129	4.0
51.144	5.0
51.159	4.0
51.174	8.0
51.189	5.0
51.204	7.0
51.219	3.0
51.234	5.0
51.249	1.0
51.264	3.0
51.279	4.0
51.294	3.0
51.309	4.0
51.324	5.0
51.34	2.0
51.355	4.0
51.37	6.0
51.385	5.0
51.4	11.0
51.415	11.0
51.43	5.0
51.445	13.0
51.46	11.0
51.475	13.0
51.49	13.0
51.505	17.0
51.52	14.0
51.535	19.0
51.551	20.0
51.566	13.0
51.581	11.0
51.596	7.0
51.611	13.0
51.626	14.0
51.641	9.0
51.656	13.0
51.671	9.0
51.686	7.0
51.701	4.0
51.716	7.0
51.732	8.0
51.747	3.0
51.762	7.0
51.777	7.0
51.792	5.0
51.807	7.0
51.822	17.0
51.837	8.0
51.852	10.0
51.867	11.0
51.882	13.0
51.898	8.0
51.913	6.0
51.928	13.0
51.943	6.0
51.958	7.0
51.973	9.0
51.988	5.0
52.003	3.0
52.018	7.0
52.033	3.0
52.048	3.0
52.064	4.0
52.079	3.0
52.094	0.0
52.109	7.0
52.124	4.0
52.139	5.0
52.154	2.0
52.169	7.0
52.184	6.0
52.199	5.0
52.215	1.0
52.23	4.0
52.245	4.0
52.26	5.0
52.275	4.0
52.29	4.0
52.305	6.0
52.32	3.0
52.335	3.0
52.35	6.0
52.366	4.0
52.381	7.0
52.396	5.0
52.411	6.0
52.426	4.0
52.441	5.0
52.456	6.0
52.471	5.0
52.486	10.0
52.502	9.0
52.517	7.0
52.532	12.0
52.547	10.0
52.562	7.0
52.577	14.0
52.592	6.0
52.607	11.0
52.622	6.0
52.637	10.0
52.653	9.0
52.668	10.0
52.683	7.0
52.698	3.0
52.713	3.0
52.728	6.0
52.743	5.0
52.758	3.0
52.774	8.0
52.789	7.0
52.804	5.0
52.819	7.0
52.834	4.0
52.849	4.0
52.864	5.0
52.879	9.0
52.894	7.0
52.91	13.0
52.925	4.0
52.94	12.0
52.955	12.0
52.97	7.0
52.985	6.0
53.0	12.0
53.015	9.0
53.031	4.0
53.046	9.0
53.061	5.0
53.076	3.0
53.091	4.0
53.106	4.0
53.121	3.0
53.136	4.0
53.152	7.0
53.167	5.0
53.182	5.0
53.197	2.0
53.212	4.0
53.227	6.0
53.242	1.0
53.257	5.0
53.273	2.0
53.288	7.0
53.303	7.0
53.318	1.0
53.333	2.0
53.348	2.0
53.363	0.0
53.379	3.0
53.394	4.0
53.409	3.0
53.424	11.0
53.439	2.0
53.454	6.0
53.469	4.0
53.484	4.0
53.5	2.0
53.515	3.0
53.53	2.0
53.545	8.0
53.56	5.0
53.575	2.0
53.59	4.0
53.606	4.0
53.621	5.0
53.636	5.0
53.651	6.0
53.666	1.0
53.681	5.0
53.696	3.0
53.712	3.0
53.727	1.0
53.742	4.0
53.757	6.0
53.772	3.0
53.787	7.0
53.802	4.0
53.818	2.0
53.833	5.0
53.848	1.0
53.863	5.0
53.878	6.0
53.893	5.0
53.909	6.0
53.924	5.0
53.939	5.0
53.954	6.0
53.969	5.0
53.984	3.0
53.999	2.0
54.015	2.0
54.03	5.0
54.045	4.0
54.06	2.0
54.075	3.0
54.09	2.0
54.106	3.0
54.121	4.0
54.136	3.0
54.151	11.0
54.166	5.0
54.181	3.0
54.197	3.0
54.212	4.0
54.227	10.0
54.242	2.0
54.257	3.0
54.272	6.0
54.288	9.0
54.303	4.0
54.318	7.0
54.333	5.0
54.348	3.0
54.363	5.0
54.379	4.0
54.394	5.0
54.409	2.0
54.424	3.0
54.439	5.0
54.454	6.0
54.47	7.0
54.485	2.0
54.5	7.0
54.515	3.0
54.53	7.0
54.545	10.0
54.561	9.0
54.576	8.0
54.591	11.0
54.606	11.0
54.621	16.0
54.636	17.0
54.652	16.0
54.667	16.0
54.682	11.0
54.697	5.0
54.712	15.0
54.727	10.0
54.743	15.0
54.758	7.0
54.773	5.0
54.788	10.0
54.803	7.0
54.819	6.0
54.834	7.0
54.849	2.0
54.864	4.0
54.879	6.0
54.894	7.0
54.91	6.0
54.925	8.0
54.94	11.0
54.955	14.0
54.97	7.0
54.985	6.0
55.001	9.0
55.016	10.0
55.031	10.0
55.046	6.0
55.061	7.0
55.077	14.0
55.092	3.0
55.107	7.0
55.122	6.0
55.137	4.0
55.152	7.0
55.168	4.0
55.183	2.0
55.198	7.0
55.213	5.0
55.228	1.0
55.243	5.0
55.259	3.0
55.274	3.0
55.289	7.0
55.304	5.0
55.319	2.0
55.335	7.0
55.35	3.0
55.365	5.0
55.38	2.0
55.395	3.0
55.41	4.0
55.426	4.0
55.441	9.0
55.456	3.0
55.471	10.0
55.486	5.0
55.501	2.0
55.517	1.0
55.532	8.0
55.547	4.0
55.562	7.0
55.577	6.0
55.592	5.0
55.608	9.0
55.623	7.0
55.638	9.0
55.653	7.0
55.668	10.0
55.683	10.0
55.699	6.0
55.714	6.0
55.729	3.0
55.744	6.0
55.759	8.0
55.774	3.0
55.79	9.0
55.805	6.0
55.82	2.0
55.835	4.0
55.85	6.0
55.865	7.0
55.881	3.0
55.896	5.0
55.911	8.0
55.926	4.0
55.941	5.0
55.956	6.0
55.972	6.0
55.987	9.0
56.002	6.0
56.017	9.0
56.032	2.0
56.047	5.0
56.063	4.0
56.078	10.0
56.093	2.0
56.108	3.0
56.123	6.0
56.138	2.0
56.154	5.0
56.169	2.0
56.184	6.0
56.199	3.0
56.214	6.0
56.229	2.0
56.244	4.0
56.26	4.0
56.275	6.0
56.29	3.0
56.305	3.0
56.32	6.0
56.335	7.0
56.351	7.0
56.366	6.0
56.381	4.0
56.396	5.0
56.411	3.0
56.426	1.0
56.441	3.0
56.457	6.0
56.472	6.0
56.487	3.0
56.502	7.0
56.517	6.0
56.532	3.0
56.547	5.0
56.563	5.0
56.578	2.0
56.593	5.0
56.608	4.0
56.623	7.0
56.638	2.0
56.653	5.0
56.668	2.0
56.684	4.0
56.699	5.0
56.714	3.0
56.729	6.0
56.744	1.0
56.759	2.0
56.774	0.0
56.79	3.0
56.805	5.0
56.82	4.0
56.835	3.0
56.85	6.0
56.865	6.0
56.88	3.0
56.895	2.0
56.911	5.0
56.926	7.0
56.941	5.0
56.956	5.0
56.971	5.0
56.986	3.0
57.001	2.0
57.016	3.0
57.031	2.0
57.047	3.0
57.062	2.0
57.077	2.0
57.092	1.0
57.107	4.0
57.122	3.0
57.137	4.0
57.152	2.0
57.167	3.0
57.183	5.0
57.198	3.0
57.213	6.0
57.228	2.0
57.243	6.0
57.258	3.0
57.273	5.0
57.288	2.0
57.303	1.0
57.318	0.0
57.334	5.0
57.349	2.0
57.364	2.0
57.379	1.0
57.394	3.0
57.409	5.0
57.424	4.0
57.439	2.0
57.454	4.0
57.469	1.0
57.484	5.0
57.5	2.0
57.515	3.0
57.53	2.0
57.545	6.0
57.56	8.0
57.575	6.0
57.59	4.0
57.605	4.0
57.62	3.0
57.635	4.0
57.65	9.0
57.665	5.0
57.68	5.0
57.696	4.0
57.711	5.0
57.726	4.0
57.741	4.0
57.756	9.0
57.771	4.0
57.786	1.0
57.801	3.0
57.816	4.0
57.831	7.0
57.846	6.0
57.861	2.0
57.876	6.0
57.891	4.0
57.906	1.0
57.921	6.0
57.937	3.0
57.952	7.0
57.967	3.0
57.982	5.0
57.997	9.0
58.012	3.0
58.027	9.0
58.042	6.0
58.057	4.0
58.072	1.0
58.087	10.0
58.102	6.0
58.117	2.0
58.132	4.0
58.147	1.0
58.162	9.0
58.177	10.0
58.192	2.0
58.207	6.0
58.222	2.0
58.237	3.0
58.252	6.0
58.267	6.0
58.282	3.0
58.297	6.0
58.312	3.0
58.327	9.0
58.342	3.0
58.357	8.0
58.372	7.0
58.387	1.0
58.402	4.0
58.418	4.0
58.433	3.0
58.448	4.0
58.463	5.0
58.478	3.0
58.493	1.0
58.508	1.0
58.523	7.0
58.538	5.0
58.553	7.0
58.568	5.0
58.583	8.0
58.598	6.0
58.613	11.0
58.628	12.0
58.643	6.0
58.658	5.0
58.673	15.0
58.688	10.0
58.703	5.0
58.718	4.0
58.733	5.0
58.748	8.0
58.763	4.0
58.778	2.0
58.793	3.0
58.808	2.0
58.823	3.0
58.838	1.0
58.853	7.0
58.868	6.0
58.883	7.0
58.898	5.0
58.913	6.0
58.928	7.0
58.942	6.0
58.957	4.0
58.972	6.0
58.987	7.0
59.002	6.0
59.017	6.0
59.032	2.0
59.047	6.0
59.062	0.0
59.077	3.0
59.092	5.0
59.107	6.0
59.122	7.0
59.137	5.0
59.152	3.0
59.167	1.0
59.182	4.0
59.197	5.0
59.212	6.0
59.227	6.0
59.242	7.0
59.257	9.0
59.272	2.0
59.287	3.0
59.302	4.0
59.317	6.0
59.332	2.0
59.347	4.0
59.362	2.0
59.377	1.0
59.392	3.0
59.407	1.0
59.422	4.0
59.437	4.0
59.452	4.0
59.467	5.0
59.482	3.0
59.497	4.0
59.512	5.0
59.527	10.0
59.542	3.0
59.557	11.0
59.572	2.0
59.587	9.0
59.602	4.0
59.617	9.0
59.632	5.0
59.647	8.0
59.661	8.0
59.676	7.0
59.691	1.0
59.706	2.0
59.721	5.0
59.736	8.0
59.751	7.0
59.766	9.0
59.781	5.0
59.796	8.0
59.811	1.0
59.826	5.0
59.841	5.0
59.856	7.0
59.871	2.0
59.886	5.0
59.901	2.0
59.916	5.0
59.931	6.0
59.946	4.0
59.961	6.0
59.976	7.0
59.991	10.0
60.006	9.0
60.021	4.0
60.036	5.0
60.051	1.0
60.066	6.0
60.081	5.0
60.096	4.0
60.111	7.0
60.126	4.0
60.141	9.0
60.156	7.0
60.171	4.0
60.186	7.0
60.201	4.0
60.216	5.0
60.231	4.0
60.246	5.0
60.261	2.0
60.276	3.0
60.291	6.0
60.306	2.0
60.321	3.0
60.336	2.0
60.35	2.0
60.365	5.0
60.38	1.0
60.395	9.0
60.41	3.0
60.425	4.0
60.44	4.0
60.455	8.0
60.47	6.0
60.485	7.0
60.5	4.0
60.515	6.0
60.53	7.0
60.545	8.0
60.56	3.0
60.575	3.0
60.59	7.0
60.605	7.0
60.62	6.0
60.635	9.0
60.65	5.0
60.665	2.0
60.68	7.0
60.695	6.0
60.71	6.0
60.725	1.0
60.74	4.0
60.755	8.0
60.77	5.0
60.785	0.0
60.8	4.0
60.815	4.0
60.83	4.0
60.845	3.0
60.86	2.0
60.875	2.0
60.89	6.0
60.905	5.0
60.92	3.0
60.935	0.0
60.95	5.0
60.965	8.0
60.98	7.0
60.995	4.0
61.01	14.0
61.025	8.0
61.04	6.0
61.055	4.0
61.07	5.0
61.085	2.0
61.1	4.0
61.115	4.0
61.13	4.0
61.145	1.0
61.16	4.0
61.175	3.0
61.191	2.0
61.206	5.0
61.221	8.0
61.236	2.0
61.251	5.0
61.266	4.0
61.281	4.0
61.296	5.0
61.311	3.0
61.326	3.0
61.341	6.0
61.356	4.0
61.371	5.0
61.386	6.0
61.401	5.0
61.416	5.0
61.431	4.0
61.446	3.0
61.461	8.0
61.476	8.0
61.491	5.0
61.506	6.0
61.521	11.0
61.536	5.0
61.551	7.0
61.566	5.0
61.581	5.0
61.596	2.0
61.611	5.0
61.626	4.0
61.641	5.0
61.656	4.0
61.672	3.0
61.687	1.0
61.702	5.0
61.717	5.0
61.732	9.0
61.747	3.0
61.762	4.0
61.777	4.0
61.792	3.0
61.807	4.0
61.822	5.0
61.837	2.0
61.852	4.0
61.867	3.0
61.882	6.0
61.897	5.0
61.912	9.0
61.927	6.0
61.943	0.0
61.958	2.0
61.973	5.0
61.988	6.0
62.003	2.0
62.018	4.0
62.033	1.0
62.048	2.0
62.063	2.0
62.078	4.0
62.093	2.0
62.108	4.0
62.123	3.0
62.138	6.0
62.153	2.0
62.169	5.0
62.184	4.0
62.199	4.0
62.214	3.0
62.229	3.0
62.244	5.0
62.259	6.0
62.274	4.0
62.289	3.0
62.304	3.0
62.319	5.0
62.335	1.0
62.35	5.0
62.365	5.0
62.38	4.0
62.395	5.0
62.41	7.0
62.425	3.0
62.44	5.0
62.455	3.0
62.47	5.0
62.485	9.0
62.501	6.0
62.516	2.0
62.531	3.0
62.546	9.0
62.561	4.0
62.576	3.0
62.591	2.0
62.606	1.0
62.621	3.0
62.636	2.0
62.652	3.0
62.667	1.0
62.682	7.0
62.697	1.0
62.712	4.0
62.727	6.0
62.742	1.0
62.757	4.0
62.772	4.0
62.787	4.0
62.803	4.0
62.818	4.0
62.833	5.0
62.848	4.0
62.863	5.0
62.878	5.0
62.893	4.0
62.908	3.0
62.923	2.0
62.939	8.0
62.954	6.0
62.969	3.0
62.984	4.0
62.999	3.0
63.014	3.0
63.029	5.0
63.044	3.0
63.059	2.0
63.074	4.0
63.09	3.0
63.105	4.0
63.12	1.0
63.135	2.0
63.15	3.0
63.165	3.0
63.18	7.0
63.195	3.0
63.21	3.0
63.226	7.0
63.241	2.0
63.256	7.0
63.271	7.0
63.286	1.0
63.301	3.0
63.316	5.0
63.331	4.0
63.346	4.0
63.362	6.0
63.377	7.0
63.392	4.0
63.407	11.0
63.422	6.0
63.437	8.0
63.452	7.0
63.467	7.0
63.482	10.0
63.497	7.0
63.513	4.0
63.528	7.0
63.543	6.0
63.558	5.0
63.573	7.0
63.588	7.0
63.603	3.0
63.618	4.0
63.633	5.0
63.648	5.0
63.664	8.0
63.679	4.0
63.694	1.0
63.709	3.0
63.724	5.0
63.739	4.0
63.754	2.0
63.769	9.0
63.784	4.0
63.799	6.0
63.814	10.0
63.83	5.0
63.845	1.0
63.86	4.0
63.875	8.0
63.89	6.0
63.905	5.0
63.92	2.0
63.935	2.0
63.95	6.0
63.965	4.0
63.98	2.0
63.996	4.0
64.011	2.0
64.026	6.0
64.041	7.0
64.056	3.0
64.071	2.0
64.086	6.0
64.101	4.0
64.116	4.0
64.131	1.0
64.146	4.0
64.161	2.0
64.176	5.0
64.191	2.0
64.207	7.0
64.222	4.0
64.237	4.0
64.252	2.0
64.267	8.0
64.282	2.0
64.297	8.0
64.312	3.0
64.327	3.0
64.342	5.0
64.357	2.0
64.372	3.0
64.387	3.0
64.402	5.0
64.417	6.0
64.433	1.0
64.448	5.0
64.463	5.0
64.478	2.0
64.493	1.0
64.508	5.0
64.523	2.0
64.538	2.0
64.553	3.0
64.568	1.0
64.583	4.0
64.598	3.0
64.613	3.0
64.628	5.0
64.643	5.0
64.658	4.0
64.673	0.0
64.688	5.0
64.703	4.0
64.718	3.0
64.734	5.0
64.749	3.0
64.764	5.0
64.779	7.0
64.794	4.0
64.809	5.0
64.824	5.0
64.839	3.0
64.854	3.0
64.869	4.0
64.884	4.0
64.899	3.0
64.914	6.0
64.929	5.0
64.944	5.0
64.959	4.0
64.974	7.0
64.989	2.0
65.004	4.0
65.019	5.0
65.034	6.0
65.049	3.0
65.064	3.0
65.079	5.0
65.094	7.0
65.109	4.0
65.125	2.0
65.14	5.0
65.155	0.0
65.17	3.0
65.185	3.0
65.2	2.0
65.215	3.0
65.23	6.0
65.245	1.0
65.26	7.0
65.275	3.0
65.29	5.0
65.305	2.0
65.32	4.0
65.335	5.0
65.35	6.0
65.365	4.0
65.38	5.0
65.395	4.0
65.41	3.0
65.425	5.0
65.44	5.0
65.455	2.0
65.47	1.0
65.485	2.0
65.5	3.0
65.515	3.0
65.53	5.0
65.545	1.0
65.56	4.0
65.575	0.0
65.59	2.0
65.605	4.0
65.62	6.0
65.635	3.0
65.65	5.0
65.666	7.0
65.681	5.0
65.696	5.0
65.711	3.0
65.726	3.0
65.741	2.0
65.756	5.0
65.771	4.0
65.786	3.0
65.801	5.0
65.816	5.0
65.831	4.0
65.846	2.0
65.861	5.0
65.876	3.0
65.891	4.0
65.906	3.0
65.921	6.0
65.936	2.0
65.951	6.0
65.966	2.0
65.981	0.0
65.996	5.0
66.011	2.0
66.026	5.0
66.041	2.0
66.056	2.0
66.071	3.0
66.086	3.0
66.101	2.0
66.116	5.0
66.131	6.0
66.146	5.0
66.161	10.0
66.176	11.0
66.191	9.0
66.206	2.0
66.221	9.0
66.236	3.0
66.251	9.0
66.266	7.0
66.281	4.0
66.296	2.0
66.311	8.0
66.327	3.0
66.342	3.0
66.357	3.0
66.372	9.0
66.387	3.0
66.402	3.0
66.417	5.0
66.432	3.0
66.447	1.0
66.462	3.0
66.477	3.0
66.492	3.0
66.507	5.0
66.522	2.0
66.537	5.0
66.552	4.0
66.567	6.0
66.582	5.0
66.597	6.0
66.612	5.0
66.627	4.0
66.642	4.0
66.657	6.0
66.672	3.0
66.687	5.0
66.702	5.0
66.717	4.0
66.732	8.0
66.747	1.0
66.762	3.0
66.777	8.0
66.792	4.0
66.807	7.0
66.822	1.0
66.837	3.0
66.853	7.0
66.868	4.0
66.883	2.0
66.898	5.0
66.913	4.0
66.928	3.0
66.943	3.0
66.958	2.0
66.973	2.0
66.988	2.0
67.003	6.0
67.018	2.0
67.033	4.0
67.048	3.0
67.063	6.0
67.078	8.0
67.093	5.0
67.108	5.0
67.123	6.0
67.138	4.0
67.153	4.0
67.168	5.0
67.183	6.0
67.198	3.0
67.214	3.0
67.229	7.0
67.244	3.0
67.259	5.0
67.274	4.0
67.289	2.0
67.304	5.0
67.319	2.0
67.334	5.0
67.349	1.0
67.364	3.0
67.379	2.0
67.394	4.0
67.409	3.0
67.424	1.0
67.439	5.0
67.454	6.0
67.469	2.0
67.484	3.0
67.5	5.0
67.515	1.0
67.53	2.0
67.545	6.0
67.56	2.0
67.575	5.0
67.59	1.0
67.605	1.0
67.62	3.0
67.635	5.0
67.65	2.0
67.665	3.0
67.68	2.0
67.695	4.0
67.71	3.0
67.726	3.0
67.741	2.0
67.756	3.0
67.771	5.0
67.786	4.0
67.801	3.0
67.816	6.0
67.831	2.0
67.846	1.0
67.861	1.0
67.876	4.0
67.891	1.0
67.906	4.0
67.922	2.0
67.937	5.0
67.952	1.0
67.967	6.0
67.982	2.0
67.997	4.0
68.012	7.0
68.027	3.0
68.042	2.0
68.057	3.0
68.072	2.0
68.087	8.0
68.103	1.0
68.118	3.0
68.133	2.0
68.148	3.0
68.163	2.0
68.178	3.0
68.193	3.0
68.208	4.0
68.223	1.0
68.238	6.0
68.254	2.0
68.269	6.0
68.284	0.0
68.299	2.0
68.314	3.0
68.329	1.0
68.344	2.0
68.359	3.0
68.374	5.0
68.389	3.0
68.405	3.0
68.42	3.0
68.435	4.0
68.45	2.0
68.465	5.0
68.48	2.0
68.495	2.0
68.51	4.0
68.525	8.0
68.54	3.0
68.556	2.0
68.571	7.0
68.586	2.0
68.601	2.0
68.616	1.0
68.631	3.0
68.646	5.0
68.661	2.0
68.676	4.0
68.691	4.0
68.707	0.0
68.722	2.0
68.737	5.0
68.752	2.0
68.767	6.0
68.782	6.0
68.797	8.0
68.812	5.0
68.827	3.0
68.842	6.0
68.857	2.0
68.873	4.0
68.888	5.0
68.903	2.0
68.918	2.0
68.933	4.0
68.948	2.0
68.963	3.0
68.978	3.0
68.993	7.0
69.008	4.0
69.023	4.0
69.038	4.0
69.054	2.0
69.069	1.0
69.084	5.0
69.099	5.0
69.114	5.0
69.129	4.0
69.144	4.0
69.159	5.0
69.174	3.0
69.189	4.0
69.204	3.0
69.219	3.0
69.234	4.0
69.249	5.0
69.264	7.0
69.279	3.0
69.295	1.0
69.31	4.0
69.325	3.0
69.34	6.0
69.355	2.0
69.37	3.0
69.385	1.0
69.4	0.0
69.415	5.0
69.43	3.0
69.445	5.0
69.46	1.0
69.475	4.0
69.49	5.0
69.505	4.0
69.52	2.0
69.535	2.0
69.55	4.0
69.565	4.0
69.58	3.0
69.595	6.0
69.61	4.0
69.625	4.0
69.64	3.0
69.655	6.0
69.67	2.0
69.685	2.0
69.7	3.0
69.715	7.0
69.73	6.0
69.745	8.0
69.76	11.0
69.775	5.0
69.79	3.0
69.805	5.0
69.82	10.0
69.835	4.0
69.85	4.0
69.865	2.0
69.88	3.0
69.895	2.0
69.909	9.0
69.924	5.0
69.939	1.0
69.954	4.0
69.969	2.0
69.984	2.0
69.999	3.0
70.014	3.0
70.029	6.0
70.044	2.0
70.059	3.0
70.074	9.0
70.088	4.0
70.103	3.0
70.118	2.0
70.133	2.0
70.148	2.0
70.163	4.0
70.178	1.0
70.193	4.0
70.208	6.0
70.222	4.0
70.237	1.0
70.252	4.0
70.267	9.0
70.282	8.0
70.297	5.0
70.312	5.0
70.327	2.0
70.341	1.0
70.356	4.0
70.371	2.0
70.386	4.0
70.401	2.0
70.416	2.0
70.43	2.0
70.445	1.0
70.46	5.0
70.475	4.0
70.49	4.0
70.505	1.0
70.519	4.0
70.534	6.0
70.549	2.0
70.564	3.0
70.579	6.0
70.594	7.0
70.608	6.0
70.623	5.0
70.638	4.0
70.653	6.0
70.668	3.0
70.683	6.0
70.697	6.0
70.712	4.0
70.727	4.0
70.742	3.0
70.757	3.0
70.771	5.0
70.786	4.0
70.801	5.0
70.816	4.0
70.831	0.0
70.845	9.0
70.86	1.0
70.875	3.0
70.89	3.0
70.905	5.0
70.92	2.0
70.934	6.0
70.949	2.0
70.964	3.0
70.979	1.0
70.994	5.0
71.008	4.0
71.023	3.0
71.038	6.0
71.053	2.0
71.068	2.0
71.082	1.0
71.097	1.0
71.112	2.0
71.127	5.0
71.142	5.0
71.156	10.0
71.171	2.0
71.186	4.0
71.201	5.0
71.216	6.0
71.231	3.0
71.245	3.0
71.26	5.0
71.275	4.0
71.29	1.0
71.305	5.0
71.319	3.0
71.334	4.0
71.349	5.0
71.364	4.0
71.379	3.0
71.394	2.0
71.408	3.0
71.423	3.0
71.438	1.0
71.453	6.0
71.468	6.0
71.483	4.0
71.497	2.0
71.512	2.0
71.527	2.0
71.542	5.0
71.557	3.0
71.572	1.0
71.586	4.0
71.601	5.0
71.616	5.0
71.631	5.0
71.646	0.0
71.661	2.0
71.676	5.0
71.69	1.0
71.705	3.0
71.72	2.0
71.735	2.0
71.75	4.0
71.765	2.0
71.78	1.0
71.795	1.0
71.81	2.0
71.824	1.0
71.839	3.0
71.854	10.0
71.869	4.0
71.884	3.0
71.899	8.0
71.914	5.0
71.929	1.0
71.944	3.0
71.959	1.0
71.974	4.0
71.988	1.0
72.003	2.0
72.018	1.0
72.033	3.0
72.048	4.0
72.063	5.0
72.078	3.0
72.093	3.0
72.108	2.0
72.123	2.0
72.138	3.0
72.153	2.0
72.168	5.0
72.183	3.0
72.198	4.0
72.213	5.0
72.228	3.0
72.243	6.0
72.258	0.0
72.273	1.0
72.288	1.0
72.303	2.0
72.318	3.0
72.333	1.0
72.348	4.0
72.363	1.0
72.378	1.0
72.393	3.0
72.408	3.0
72.423	0.0
72.438	5.0
72.453	3.0
72.468	2.0
72.483	2.0
72.498	1.0
72.513	2.0
72.528	4.0
72.543	3.0
72.558	5.0
72.573	3.0
72.588	4.0
72.603	3.0
72.618	6.0
72.633	1.0
72.649	1.0
72.664	8.0
72.679	5.0
72.694	5.0
72.709	5.0
72.724	3.0
72.739	2.0
72.754	2.0
72.769	6.0
72.784	4.0
72.799	1.0
72.814	1.0
72.829	2.0
72.845	0.0
72.86	4.0
72.875	4.0
72.89	4.0
72.905	2.0
72.92	5.0
72.935	2.0
72.95	2.0
72.965	4.0
72.98	8.0
72.996	1.0
73.011	4.0
73.026	0.0
73.041	6.0
73.056	3.0
73.071	3.0
73.086	1.0
73.101	5.0
73.117	3.0
73.132	2.0
73.147	7.0
73.162	5.0
73.177	4.0
73.192	1.0
73.207	4.0
73.222	2.0
73.238	2.0
73.253	1.0
73.268	2.0
73.283	2.0
73.298	6.0
73.313	5.0
73.328	7.0
73.343	4.0
73.359	3.0
73.374	4.0
73.389	9.0
73.404	3.0
73.419	5.0
73.434	3.0
73.449	1.0
73.465	5.0
73.48	5.0
73.495	2.0
73.51	1.0
73.525	3.0
73.54	1.0
73.556	3.0
73.571	5.0
73.586	2.0
73.601	1.0
73.616	2.0
73.631	5.0
73.646	3.0
73.662	5.0
73.677	3.0
73.692	1.0
73.707	0.0
73.722	5.0
73.737	4.0
73.752	5.0
73.768	5.0
73.783	6.0
73.798	7.0
73.813	6.0
73.828	6.0
73.843	2.0
73.859	8.0
73.874	7.0
73.889	2.0
73.904	2.0
73.919	3.0
73.934	2.0
73.949	1.0
73.965	3.0
73.98	6.0
73.995	2.0
74.01	7.0
74.025	1.0
74.04	2.0
74.056	5.0
74.071	0.0
74.086	4.0
74.101	5.0
74.116	3.0
74.131	4.0
74.146	3.0
74.162	5.0
74.177	8.0
74.192	4.0
74.207	6.0
74.222	8.0
74.237	5.0
74.252	5.0
74.268	2.0
74.283	2.0
74.298	3.0
74.313	5.0
74.328	3.0
74.343	0.0
74.358	6.0
74.374	2.0
74.389	6.0
74.404	5.0
74.419	6.0
74.434	4.0
74.449	3.0
74.464	3.0
74.48	4.0
74.495	2.0
74.51	1.0
74.525	1.0
74.54	5.0
74.555	4.0
74.57	4.0
74.586	4.0
74.601	3.0
74.616	3.0
74.631	6.0
74.646	6.0
74.661	4.0
74.676	7.0
74.691	10.0
74.707	3.0
74.722	4.0
74.737	4.0
74.752	7.0
74.767	4.0
74.782	4.0
74.797	3.0
74.813	3.0
74.828	3.0
74.843	1.0
74.858	4.0
74.873	1.0
74.888	3.0
74.903	0.0
74.918	4.0
74.934	6.0
74.949	4.0
74.964	3.0
74.979	3.0
74.994	3.0
75.009	2.0
75.024	6.0
75.04	4.0
75.055	2.0
75.07	7.0
75.085	8.0
75.1	1.0
75.115	2.0
75.13	3.0
75.145	8.0
75.161	1.0
75.176	7.0
75.191	2.0
75.206	4.0
75.221	3.0
75.236	2.0
75.251	5.0
75.266	3.0
75.282	4.0
75.297	3.0
75.312	4.0
75.327	0.0
75.342	0.0
75.357	4.0
75.372	2.0
75.387	2.0
75.403	1.0
75.418	4.0
75.433	3.0
75.448	6.0
75.463	5.0
75.478	5.0
75.493	4.0
75.509	3.0
75.524	6.0
75.539	3.0
75.554	2.0
75.569	5.0
75.584	4.0
75.599	4.0
75.614	3.0
75.63	0.0
75.645	2.0
75.66	1.0
75.675	2.0
75.69	3.0
75.705	2.0
75.72	5.0
75.735	2.0
75.751	3.0
75.766	1.0
75.781	4.0
75.796	0.0
75.811	4.0
75.826	2.0
75.841	7.0
75.856	4.0
75.872	7.0
75.887	1.0
75.902	5.0
75.917	0.0
75.932	1.0
75.947	4.0
75.962	2.0
75.977	0.0
75.993	4.0
76.008	5.0
76.023	3.0
76.038	2.0
76.053	3.0
76.068	2.0
76.083	4.0
76.098	0.0
76.114	4.0
76.129	4.0
76.144	1.0
76.159	3.0
76.174	9.0
76.189	1.0
76.204	4.0
76.22	3.0
76.235	4.0
76.25	0.0
76.265	6.0
76.28	3.0
76.295	0.0
76.31	1.0
76.325	3.0
76.341	5.0
76.356	4.0
76.371	5.0
76.386	2.0
76.401	6.0
76.416	2.0
76.431	5.0
76.446	3.0
76.462	7.0
76.477	2.0
76.492	3.0
76.507	3.0
76.522	1.0
76.537	6.0
76.552	5.0
76.567	3.0
76.583	2.0
76.598	0.0
76.613	3.0
76.628	2.0
76.643	0.0
76.658	3.0
76.673	3.0
76.688	8.0
76.704	5.0
76.719	7.0
76.734	2.0
76.749	4.0
76.764	9.0
76.779	3.0
76.794	8.0
76.809	9.0
76.824	0.0
76.84	2.0
76.855	5.0
76.87	1.0
76.885	4.0
76.9	7.0
76.915	1.0
76.93	2.0
76.945	3.0
76.96	5.0
76.976	5.0
76.991	6.0
77.006	6.0
77.021	4.0
77.036	3.0
77.051	4.0
77.066	1.0
77.081	2.0
77.096	5.0
77.112	3.0
77.127	2.0
77.142	2.0
77.157	2.0
77.172	5.0
77.187	5.0
77.202	2.0
77.217	1.0
77.232	3.0
77.247	1.0
77.263	6.0
77.278	3.0
77.293	3.0
77.308	6.0
77.323	3.0
77.338	2.0
77.353	4.0
77.368	2.0
77.383	3.0
77.398	1.0
77.413	4.0
77.428	6.0
77.444	5.0
77.459	2.0
77.474	2.0
77.489	3.0
77.504	5.0
77.519	3.0
77.534	3.0
77.549	3.0
77.564	6.0
77.579	7.0
77.594	5.0
77.609	6.0
77.624	4.0
77.64	10.0
77.655	2.0
77.67	7.0
77.685	3.0
77.7	2.0
77.715	7.0
77.73	3.0
77.745	5.0
77.76	4.0
77.775	3.0
77.79	0.0
77.805	3.0
77.82	4.0
77.835	5.0
77.85	3.0
77.865	0.0
77.88	2.0
77.895	2.0
77.91	4.0
77.926	3.0
77.941	5.0
77.956	4.0
77.971	4.0
77.986	1.0
78.001	2.0
78.016	2.0
78.031	4.0
78.046	3.0
78.061	5.0
78.076	2.0
78.091	0.0
78.106	4.0
78.121	2.0
78.136	7.0
78.151	4.0
78.166	2.0
78.181	4.0
78.196	4.0
78.211	5.0
78.226	3.0
78.241	8.0
78.256	2.0
78.271	2.0
78.286	3.0
78.301	3.0
78.316	2.0
78.331	3.0
78.346	5.0
78.361	2.0
78.376	4.0
78.391	2.0
78.406	8.0
78.421	0.0
78.436	1.0
78.451	3.0
78.466	2.0
78.481	1.0
78.496	1.0
78.511	3.0
78.526	2.0
78.541	6.0
78.556	0.0
78.571	4.0
78.586	1.0
78.601	2.0
78.616	7.0
78.631	1.0
78.646	4.0
78.661	2.0
78.676	0.0
78.691	5.0
78.706	0.0
78.721	2.0
78.736	4.0
78.751	3.0
78.766	2.0
78.781	3.0
78.796	0.0
78.811	2.0
78.826	4.0
78.841	1.0
78.856	3.0
78.871	5.0
78.885	6.0
78.9	1.0
78.915	2.0
78.93	4.0
78.945	1.0
78.96	4.0
78.975	2.0
78.99	1.0
79.005	3.0
79.02	3.0
79.035	6.0
79.05	3.0
79.065	3.0
79.08	3.0
79.095	3.0
79.11	1.0
79.125	4.0
79.14	3.0
79.155	3.0
79.17	2.0
79.185	8.0
79.2	3.0
79.215	0.0
79.23	2.0
79.245	3.0
79.26	2.0
79.275	3.0
79.29	1.0
79.304	0.0
79.319	2.0
79.334	5.0
79.349	3.0
79.364	3.0
79.379	2.0
79.394	4.0
79.409	6.0
79.424	6.0
79.439	2.0
79.454	1.0
79.469	6.0
79.484	1.0
79.499	3.0
79.514	4.0
79.529	2.0
79.544	8.0
79.559	1.0
79.574	3.0
79.589	7.0
79.604	3.0
79.619	6.0
79.634	5.0
79.649	4.0
79.664	1.0
79.679	2.0
79.693	6.0
79.708	5.0
79.723	2.0
79.738	3.0
79.753	5.0
79.768	4.0
79.783	2.0
79.798	1.0
79.813	1.0
79.828	1.0
79.843	4.0
79.858	3.0
79.873	4.0
79.888	5.0
79.903	4.0
79.918	6.0
79.933	1.0
79.948	3.0
79.963	2.0
79.978	0.0
79.993	5.0
80.008	2.0
80.023	1.0
80.038	3.0
80.053	4.0
80.068	2.0
80.083	2.0
80.098	4.0
80.113	5.0
80.128	3.0
80.143	4.0
80.158	2.0
80.173	4.0
80.188	2.0
80.202	3.0
80.217	2.0
80.232	3.0
80.247	1.0
80.262	5.0
80.277	2.0
80.292	7.0
80.307	4.0
80.322	4.0
80.337	4.0
80.352	3.0
80.367	2.0
80.382	2.0
80.397	3.0
80.412	0.0
80.427	2.0
80.442	2.0
80.457	3.0
80.472	2.0
80.487	5.0
80.502	3.0
80.517	0.0
80.532	2.0
80.547	2.0
80.562	4.0
80.577	1.0
80.592	3.0
80.607	2.0
80.622	2.0
80.637	1.0
80.652	3.0
80.667	2.0
80.682	4.0
80.697	2.0
80.712	2.0
80.727	7.0
80.742	3.0
80.757	3.0
80.772	5.0
80.787	5.0
80.802	5.0
80.817	6.0
80.832	1.0
80.847	3.0
80.862	5.0
80.877	3.0
80.892	1.0
80.907	2.0
80.922	5.0
80.937	4.0
80.952	1.0
80.967	1.0
80.982	2.0
80.997	8.0
81.012	5.0
81.027	2.0
81.042	3.0
81.057	2.0
81.072	8.0
81.087	8.0
81.101	2.0
81.116	7.0
81.131	6.0
81.146	0.0
81.161	2.0
81.176	5.0
81.191	4.0
81.206	2.0
81.221	4.0
81.236	2.0
81.251	5.0
81.266	2.0
81.281	4.0
81.296	1.0
81.311	3.0
81.326	2.0
81.341	7.0
81.356	2.0
81.371	1.0
81.386	0.0
81.401	4.0
81.416	4.0
81.431	3.0
81.446	2.0
81.461	4.0
81.476	1.0
81.491	4.0
81.506	6.0
81.521	6.0
81.536	3.0
81.55	3.0
81.565	4.0
81.58	1.0
81.595	3.0
81.61	3.0
81.625	3.0
81.64	2.0
81.655	0.0
81.67	2.0
81.685	1.0
81.7	2.0
81.715	1.0
81.73	4.0
81.745	1.0
81.76	1.0
81.775	5.0
81.79	4.0
81.805	6.0
81.819	4.0
81.834	1.0
81.849	5.0
81.864	1.0
81.879	3.0
81.894	5.0
81.909	4.0
81.924	6.0
81.939	3.0
81.954	3.0
81.969	3.0
81.984	2.0
81.999	1.0
82.013	4.0
82.028	1.0
82.043	3.0
82.058	5.0
82.073	2.0
82.088	2.0
82.103	3.0
82.118	4.0
82.133	8.0
82.148	1.0
82.163	2.0
82.177	4.0
82.192	5.0
82.207	3.0
82.222	4.0
82.237	4.0
82.252	4.0
82.267	2.0
82.282	6.0
82.297	2.0
82.312	7.0
82.326	3.0
82.341	3.0
82.356	4.0
82.371	2.0
82.386	6.0
82.401	2.0
82.416	6.0
82.431	1.0
82.445	1.0
82.46	7.0
82.475	5.0
82.49	2.0
82.505	1.0
82.52	5.0
82.535	5.0
82.55	2.0
82.565	3.0
82.579	4.0
82.594	3.0
82.609	3.0
82.624	4.0
82.639	4.0
82.654	3.0
82.669	0.0
82.684	2.0
82.698	1.0
82.713	6.0
82.728	3.0
82.743	2.0
82.758	5.0
82.773	0.0
82.788	1.0
82.803	4.0
82.817	2.0
82.832	2.0
82.847	2.0
82.862	1.0
82.877	2.0
82.892	2.0
82.907	3.0
82.922	1.0
82.937	1.0
82.951	0.0
82.966	2.0
82.981	1.0
82.996	3.0
83.011	3.0
83.026	7.0
83.041	2.0
83.056	2.0
83.07	4.0
83.085	2.0
83.1	0.0
83.115	7.0
83.13	1.0
83.145	2.0
83.16	3.0
83.175	3.0
83.19	0.0
83.204	2.0
83.219	3.0
83.234	3.0
83.249	4.0
83.264	6.0
83.279	4.0
83.294	5.0
83.309	3.0
83.324	2.0
83.339	4.0
83.353	3.0
83.368	2.0
83.383	3.0
83.398	5.0
83.413	3.0
83.428	0.0
83.443	1.0
83.458	0.0
83.473	1.0
83.488	3.0
83.503	3.0
83.517	2.0
83.532	4.0
83.547	8.0
83.562	2.0
83.577	3.0
83.592	7.0
83.607	4.0
83.622	3.0
83.637	3.0
83.652	3.0
83.667	1.0
83.682	7.0
83.697	3.0
83.712	3.0
83.727	1.0
83.741	2.0
83.756	3.0
83.771	1.0
83.786	3.0
83.801	3.0
83.816	3.0
83.831	2.0
83.846	4.0
83.861	3.0
83.876	0.0
83.891	1.0
83.906	4.0
83.921	1.0
83.936	1.0
83.951	3.0
83.966	2.0
83.981	1.0
83.996	2.0
84.011	4.0
84.026	0.0
84.041	2.0
84.056	3.0
84.071	6.0
84.086	2.0
84.101	3.0
84.116	4.0
84.131	2.0
84.146	4.0
84.161	2.0
84.176	1.0
84.191	3.0
84.206	1.0
84.221	2.0
84.236	2.0
84.251	3.0
84.266	2.0
84.281	3.0
84.296	2.0
84.311	4.0
84.326	2.0
84.341	1.0
84.356	6.0
84.371	5.0
84.386	2.0
84.401	5.0
84.416	5.0
84.431	8.0
84.446	4.0
84.461	3.0
84.476	1.0
84.492	3.0
84.507	2.0
84.522	3.0
84.537	0.0
84.552	4.0
84.567	4.0
84.582	3.0
84.597	3.0
84.612	3.0
84.627	3.0
84.642	3.0
84.657	4.0
84.672	1.0
84.687	3.0
84.702	4.0
84.717	3.0
84.733	1.0
84.748	2.0
84.763	4.0
84.778	1.0
84.793	0.0
84.808	4.0
84.823	2.0
84.838	2.0
84.853	1.0
84.868	3.0
84.883	6.0
84.898	2.0
84.913	3.0
84.929	4.0
84.944	4.0
84.959	7.0
84.974	0.0
84.989	2.0
85.004	6.0
85.019	2.0
85.034	6.0
85.049	1.0
85.064	2.0
85.079	5.0
85.094	3.0
85.11	1.0
85.125	1.0
85.14	3.0
85.155	0.0
85.17	1.0
85.185	3.0
85.2	1.0
85.215	2.0
85.23	3.0
85.245	3.0
85.26	3.0
85.276	4.0
85.291	3.0
85.306	2.0
85.321	1.0
85.336	1.0
85.351	4.0
85.366	4.0
85.381	2.0
85.396	0.0
85.411	2.0
85.426	1.0
85.441	3.0
85.457	4.0
85.472	4.0
85.487	1.0
85.502	2.0
85.517	1.0
85.532	4.0
85.547	0.0
85.562	0.0
85.577	0.0
85.592	1.0
85.607	4.0
85.622	4.0
85.637	6.0
85.653	2.0
85.668	5.0
85.683	5.0
85.698	3.0
85.713	1.0
85.728	1.0
85.743	2.0
85.758	4.0
85.773	4.0
85.788	2.0
85.803	4.0
85.818	3.0
85.833	2.0
85.848	5.0
85.863	3.0
85.879	3.0
85.894	3.0
85.909	6.0
85.924	5.0
85.939	1.0
85.954	3.0
85.969	0.0
85.984	3.0
85.999	5.0
86.014	5.0
86.029	1.0
86.044	2.0
86.059	5.0
86.074	2.0
86.089	4.0
86.104	2.0
86.119	3.0
86.134	0.0
86.149	2.0
86.164	4.0
86.179	2.0
86.194	3.0
86.209	2.0
86.224	0.0
86.239	2.0
86.254	1.0
86.269	1.0
86.284	2.0
86.299	2.0
86.314	1.0
86.33	1.0
86.345	0.0
86.36	1.0
86.375	3.0
86.39	3.0
86.405	0.0
86.42	2.0
86.435	1.0
86.45	3.0
86.465	4.0
86.48	1.0
86.495	3.0
86.51	6.0
86.525	1.0
86.54	2.0
86.555	1.0
86.57	2.0
86.585	2.0
86.6	3.0
86.615	2.0
86.63	2.0
86.645	3.0
86.659	0.0
86.674	2.0
86.689	4.0
86.704	2.0
86.719	3.0
86.734	6.0
86.749	1.0
86.764	2.0
86.779	1.0
86.794	2.0
86.809	3.0
86.824	3.0
86.839	5.0
86.854	3.0
86.869	0.0
86.884	2.0
86.899	5.0
86.914	2.0
86.929	8.0
86.944	8.0
86.959	3.0
86.974	7.0
86.989	4.0
87.004	3.0
87.019	3.0
87.034	1.0
87.049	2.0
87.064	3.0
87.079	2.0
87.094	5.0
87.109	2.0
87.124	3.0
87.139	1.0
87.154	2.0
87.169	2.0
87.184	0.0
87.199	0.0
87.214	2.0
87.229	3.0
87.244	3.0
87.259	3.0
87.274	4.0
87.289	4.0
87.304	1.0
87.319	4.0
87.334	4.0
87.349	2.0
87.364	1.0
87.379	4.0
87.394	3.0
87.409	7.0
87.424	2.0
87.438	4.0
87.453	4.0
87.468	2.0
87.483	5.0
87.498	2.0
87.513	5.0
87.528	3.0
87.543	0.0
87.558	2.0
87.573	6.0
87.588	5.0
87.603	5.0
87.618	3.0
87.633	3.0
87.648	2.0
87.663	2.0
87.678	5.0
87.693	4.0
87.708	3.0
87.723	5.0
87.738	3.0
87.753	4.0
87.768	4.0
87.783	3.0
87.798	5.0
87.813	5.0
87.828	5.0
87.843	3.0
87.858	2.0
87.873	2.0
87.888	5.0
87.903	8.0
87.918	3.0
87.933	3.0
87.948	1.0
87.963	4.0
87.978	2.0
87.993	2.0
88.008	5.0
88.023	3.0
88.038	3.0
88.053	2.0
88.068	1.0
88.083	1.0
88.098	2.0
88.113	5.0
88.128	0.0
88.143	1.0
88.158	0.0
88.174	5.0
88.189	5.0
88.204	2.0
88.219	1.0
88.234	3.0
88.249	0.0
88.264	4.0
88.279	1.0
88.294	4.0
88.309	5.0
88.324	6.0
88.339	4.0
88.354	7.0
88.369	3.0
88.384	2.0
88.399	3.0
88.414	5.0
88.429	6.0
88.444	4.0
88.459	5.0
88.474	2.0
88.489	1.0
88.504	0.0
88.519	0.0
88.534	4.0
88.549	3.0
88.564	1.0
88.58	2.0
88.595	4.0
88.61	1.0
88.625	3.0
88.64	3.0
88.655	2.0
88.67	4.0
88.685	5.0
88.7	4.0
88.715	3.0
88.73	3.0
88.745	3.0
88.76	2.0
88.775	4.0
88.79	4.0
88.805	6.0
88.82	4.0
88.835	1.0
88.85	2.0
88.865	1.0
88.88	4.0
88.895	3.0
88.911	6.0
88.926	2.0
88.941	4.0
88.956	7.0
88.971	4.0
88.986	2.0
89.001	3.0
89.016	5.0
89.031	3.0
89.046	1.0
89.061	3.0
89.076	2.0
89.091	1.0
89.106	1.0
89.121	2.0
89.136	3.0
89.151	5.0
89.166	6.0
89.181	3.0
89.196	7.0
89.211	3.0
89.227	1.0
89.242	1.0
89.257	2.0
89.272	3.0
89.287	3.0
89.302	2.0
89.317	3.0
89.332	1.0
89.347	1.0
89.362	4.0
89.377	2.0
89.392	3.0
89.407	3.0
89.422	2.0
89.437	0.0
89.452	3.0
89.467	4.0
89.482	5.0
89.497	5.0
89.512	1.0
89.527	2.0
89.542	2.0
89.557	3.0
89.572	1.0
89.587	4.0
89.602	3.0
89.617	1.0
89.632	4.0
89.647	2.0
89.662	1.0
89.677	4.0
89.693	3.0
89.708	1.0
89.723	4.0
89.738	2.0
89.753	2.0
89.768	0.0
89.783	5.0
89.798	2.0
89.813	4.0
89.828	2.0
89.843	4.0
89.858	1.0
89.873	2.0
89.888	5.0
89.903	1.0
89.918	4.0
89.933	0.0
89.948	0.0
89.963	3.0
89.978	3.0
89.993	3.0
90.008	3.0
90.023	3.0
90.038	3.0
90.053	4.0
90.068	7.0
90.083	1.0
90.097	1.0
90.112	2.0
90.127	5.0
90.142	2.0
90.157	3.0
90.172	2.0
90.187	1.0
90.202	7.0
90.217	4.0
90.232	3.0
90.247	7.0
90.262	2.0
90.277	1.0
90.292	5.0
90.307	6.0
90.322	1.0
90.337	4.0
90.352	3.0
90.367	0.0
90.382	6.0
90.397	1.0
90.412	1.0
90.427	5.0
90.442	3.0
90.457	3.0
90.472	2.0
90.487	0.0
90.501	4.0
90.516	3.0
90.531	2.0
90.546	4.0
90.561	3.0
90.576	0.0
90.591	3.0
90.606	2.0
90.621	4.0
90.636	2.0
90.651	6.0
90.666	2.0
90.681	1.0
90.696	2.0
90.711	4.0
90.726	5.0
90.741	0.0
90.755	2.0
90.77	3.0
90.785	2.0
90.8	4.0
90.815	2.0
90.83	5.0
90.845	3.0
90.86	1.0
90.875	9.0
90.89	1.0
90.905	2.0
90.92	3.0
90.935	5.0
90.95	5.0
90.965	0.0
90.979	7.0
90.994	1.0
91.009	2.0
91.024	1.0
91.039	3.0
91.054	2.0
91.069	2.0
91.084	4.0
91.099	4.0
91.114	2.0
91.129	5.0
91.144	3.0
91.159	6.0
91.174	1.0
91.188	3.0
91.203	5.0
91.218	1.0
91.233	4.0
91.248	5.0
91.263	3.0
91.278	5.0
91.293	5.0
91.308	3.0
91.323	3.0
91.338	1.0
91.353	3.0
91.368	2.0
91.383	2.0
91.398	2.0
91.412	3.0
91.427	3.0
91.442	4.0
91.457	3.0
91.472	1.0
91.487	4.0
91.502	5.0
91.517	4.0
91.532	3.0
91.547	0.0
91.562	1.0
91.577	2.0
91.592	8.0
91.607	2.0
91.622	3.0
91.637	2.0
91.652	4.0
91.666	4.0
91.681	1.0
91.696	1.0
91.711	1.0
91.726	4.0
91.741	1.0
91.756	7.0
91.771	1.0
91.786	6.0
91.801	1.0
91.816	4.0
91.831	1.0
91.846	1.0
91.861	2.0
91.876	3.0
91.891	2.0
91.906	5.0
91.921	0.0
91.936	3.0
91.951	0.0
91.966	1.0
91.981	3.0
91.995	1.0
92.01	3.0
92.025	3.0
92.04	3.0
92.055	6.0
92.07	3.0
92.085	2.0
92.1	1.0
92.115	2.0
92.13	1.0
92.145	3.0
92.16	1.0
92.175	5.0
92.19	1.0
92.205	2.0
92.22	1.0
92.235	3.0
92.25	3.0
92.265	5.0
92.28	1.0
92.295	4.0
92.31	2.0
92.325	0.0
92.34	6.0
92.355	2.0
92.37	2.0
92.385	3.0
92.4	7.0
92.415	5.0
92.43	5.0
92.445	1.0
92.46	5.0
92.475	1.0
92.49	2.0
92.505	7.0
92.52	6.0
92.535	3.0
92.55	4.0
92.565	5.0
92.58	0.0
92.595	1.0
92.61	4.0
92.625	3.0
92.64	3.0
92.655	1.0
92.67	2.0
92.685	3.0
92.7	1.0
92.715	2.0
92.73	2.0
92.745	1.0
92.76	3.0
92.775	0.0
92.79	5.0
92.805	4.0
92.82	2.0
92.835	1.0
92.85	1.0
92.865	1.0
92.88	3.0
92.895	2.0
92.91	0.0
92.925	6.0
92.94	5.0
92.955	2.0
92.97	4.0
92.985	0.0
93.0	3.0
93.015	6.0
93.03	4.0
93.045	5.0
93.06	2.0
93.075	4.0
93.09	0.0
93.105	2.0
93.12	2.0
93.135	6.0
93.15	2.0
93.165	4.0
93.18	3.0
93.195	5.0
93.21	2.0
93.225	2.0
93.24	1.0
93.255	1.0
93.27	5.0
93.285	2.0
93.3	3.0
93.315	0.0
93.33	4.0
93.345	3.0
93.36	4.0
93.375	2.0
93.39	0.0
93.405	3.0
93.42	2.0
93.435	4.0
93.45	2.0
93.465	0.0
93.48	4.0
93.495	4.0
93.51	2.0
93.525	2.0
93.54	1.0
93.555	3.0
93.57	6.0
93.585	3.0
93.6	1.0
93.615	4.0
93.63	4.0
93.645	0.0
93.66	1.0
93.675	6.0
93.69	3.0
93.705	4.0
93.72	3.0
93.735	3.0
93.75	3.0
93.765	3.0
93.78	1.0
93.795	3.0
93.81	2.0
93.824	4.0
93.839	5.0
93.854	4.0
93.869	4.0
93.884	3.0
93.899	3.0
93.914	3.0
93.929	3.0
93.944	2.0
93.959	0.0
93.974	0.0
93.989	3.0
94.004	1.0
94.019	6.0
94.034	4.0
94.049	2.0
94.064	4.0
94.079	4.0
94.094	3.0
94.108	2.0
94.123	3.0
94.138	0.0
94.153	2.0
94.168	5.0
94.183	1.0
94.198	2.0
94.213	7.0
94.228	5.0
94.243	2.0
94.258	1.0
94.273	3.0
94.288	0.0
94.302	5.0
94.317	6.0
94.332	5.0
94.347	5.0
94.362	3.0
94.377	5.0
94.392	4.0
94.407	3.0
94.422	5.0
94.437	2.0
94.452	6.0
94.466	6.0
94.481	7.0
94.496	1.0
94.511	8.0
94.526	5.0
94.541	6.0
94.556	4.0
94.571	6.0
94.586	4.0
94.601	1.0
94.615	1.0
94.63	1.0
94.645	2.0
94.66	2.0
94.675	3.0
94.69	4.0
94.705	3.0
94.72	5.0
94.735	4.0
94.749	1.0
94.764	1.0
94.779	2.0
94.794	3.0
94.809	4.0
94.824	3.0
94.839	4.0
94.854	2.0
94.868	3.0
94.883	4.0
94.898	4.0
94.913	3.0
94.928	1.0
94.943	6.0
94.958	0.0
94.973	7.0
94.987	2.0
95.002	1.0
95.017	4.0
95.032	2.0
95.047	2.0
95.062	1.0
95.077	6.0
95.092	1.0
95.106	2.0
95.121	3.0
95.136	5.0
95.151	2.0
95.166	3.0
95.181	4.0
95.196	7.0
95.211	2.0
95.226	5.0
95.24	7.0
95.255	6.0
95.27	7.0
95.285	9.0
95.3	5.0
95.315	2.0
95.33	2.0
95.345	1.0
95.359	1.0
95.374	0.0
95.389	2.0
95.404	2.0
95.419	4.0
95.434	2.0
95.449	4.0
95.464	1.0
95.478	0.0
95.493	2.0
95.508	5.0
95.523	3.0
95.538	2.0
95.553	2.0
95.568	4.0
95.583	4.0
95.597	5.0
95.612	5.0
95.627	0.0
95.642	2.0
95.657	6.0
95.672	4.0
95.687	4.0
95.702	3.0
95.717	4.0
95.731	4.0
95.746	1.0
95.761	2.0
95.776	5.0
95.791	4.0
95.806	0.0
95.821	4.0
95.836	1.0
95.851	0.0
95.866	2.0
95.88	4.0
95.895	3.0
95.91	4.0
95.925	0.0
95.94	6.0
95.955	6.0
95.97	0.0
95.985	4.0
96.0	0.0
96.015	2.0
96.029	1.0
96.044	5.0
96.059	1.0
96.074	4.0
96.089	4.0
96.104	5.0
96.119	2.0
96.134	5.0
96.149	2.0
96.164	3.0
96.179	3.0
96.194	3.0
96.208	2.0
96.223	3.0
96.238	1.0
96.253	2.0
96.268	4.0
96.283	4.0
96.298	1.0
96.313	2.0
96.328	4.0
96.343	5.0
96.358	3.0
96.373	4.0
96.388	3.0
96.403	2.0
96.417	0.0
96.432	4.0
96.447	3.0
96.462	4.0
96.477	1.0
96.492	3.0
96.507	2.0
96.522	4.0
96.537	4.0
96.552	4.0
96.567	1.0
96.582	1.0
96.597	2.0
96.612	5.0
96.627	3.0
96.642	3.0
96.656	1.0
96.671	4.0
96.686	2.0
96.701	2.0
96.716	2.0
96.731	5.0
96.746	1.0
96.761	5.0
96.776	3.0
96.791	3.0
96.806	3.0
96.821	2.0
96.836	4.0
96.851	3.0
96.866	2.0
96.881	5.0
96.896	5.0
96.911	6.0
96.926	4.0
96.94	6.0
96.955	2.0
96.97	2.0
96.985	7.0
97.0	5.0
97.015	4.0
97.03	0.0
97.045	5.0
97.06	3.0
97.075	4.0
97.09	4.0
97.105	2.0
97.12	3.0
97.135	5.0
97.15	5.0
97.165	2.0
97.18	3.0
97.195	3.0
97.21	2.0
97.225	6.0
97.239	5.0
97.254	5.0
97.269	3.0
97.284	3.0
97.299	5.0
97.314	1.0
97.329	3.0
97.344	5.0
97.359	4.0
97.374	2.0
97.389	3.0
97.404	3.0
97.419	3.0
97.434	4.0
97.449	3.0
97.464	3.0
97.479	2.0
97.494	8.0
97.509	3.0
97.524	2.0
97.538	3.0
97.553	0.0
97.568	2.0
97.583	2.0
97.598	3.0
97.613	3.0
97.628	1.0
97.643	2.0
97.658	6.0
97.673	1.0
97.688	5.0
97.703	5.0
97.718	6.0
97.733	4.0
97.748	2.0
97.763	5.0
97.778	6.0
97.792	4.0
97.807	7.0
97.822	2.0
97.837	2.0
97.852	2.0
97.867	3.0
97.882	1.0
97.897	2.0
97.912	5.0
97.927	3.0
97.942	1.0
97.957	3.0
97.972	1.0
97.987	1.0
98.001	4.0
98.016	2.0
98.031	4.0
98.046	2.0
98.061	2.0
98.076	1.0
98.091	5.0
98.106	4.0
98.121	4.0
98.136	3.0
98.151	2.0
98.166	1.0
98.181	4.0
98.195	4.0
98.21	7.0
98.225	0.0
98.24	4.0
98.255	2.0
98.27	3.0
98.285	2.0
98.3	1.0
98.315	5.0
98.33	2.0
98.345	3.0
98.359	0.0
98.374	3.0
98.389	3.0
98.404	1.0
98.419	3.0
98.434	5.0
98.449	3.0
98.464	4.0
98.479	4.0
98.494	1.0
98.508	4.0
98.523	4.0
98.538	3.0
98.553	2.0
98.568	2.0
98.583	2.0
98.598	1.0
98.613	3.0
98.628	2.0
98.642	4.0
98.657	2.0
98.672	0.0
98.687	1.0
98.702	3.0
98.717	1.0
98.732	8.0
98.747	3.0
98.762	2.0
98.776	4.0
98.791	1.0
98.806	3.0
98.821	3.0
98.836	7.0
98.851	3.0
98.866	5.0
98.881	0.0
98.896	5.0
98.91	5.0
98.925	2.0
98.94	4.0
98.955	1.0
98.97	1.0
98.985	3.0
99.0	2.0
99.015	2.0
99.029	1.0
99.044	1.0
99.059	2.0
99.074	3.0
99.089	1.0
99.104	3.0
99.119	1.0
99.133	6.0
99.148	3.0
99.163	2.0
99.178	3.0
99.193	6.0
99.208	1.0
99.223	1.0
99.238	1.0
99.252	4.0
99.267	7.0
99.282	2.0
99.297	5.0
99.312	1.0
99.327	3.0
99.342	3.0
99.356	7.0
99.371	0.0
99.386	7.0
99.401	2.0
99.416	2.0
99.431	2.0
99.446	2.0
99.461	4.0
99.475	1.0
99.49	5.0
99.505	3.0
99.52	2.0
99.535	3.0
99.55	3.0
99.565	3.0
99.579	0.0
99.594	3.0
99.609	4.0
99.624	6.0
99.639	1.0
99.654	3.0
99.669	1.0
99.683	6.0
99.698	0.0
99.713	6.0
99.728	2.0
99.743	4.0
99.758	2.0
99.772	4.0
99.787	1.0
99.802	5.0
99.817	1.0
99.832	2.0
99.847	7.0
99.862	2.0
99.876	2.0
99.891	4.0
99.906	4.0
99.921	2.0
99.936	4.0
99.951	4.0
99.966	2.0
99.98	5.0
99.995	1.0
100.01	1.0
100.025	2.0
100.04	2.0
100.055	1.0
100.069	2.0
100.084	6.0
100.099	2.0
100.114	2.0
100.129	5.0
100.144	3.0
100.159	1.0
100.173	3.0
100.188	2.0
100.203	4.0
100.218	4.0
100.233	4.0
100.248	1.0
100.262	6.0
100.277	4.0
100.292	5.0
100.307	5.0
100.322	6.0
100.337	3.0
100.351	4.0
100.366	2.0
100.381	9.0
100.396	3.0
100.411	3.0
100.426	5.0
100.441	6.0
100.455	4.0
100.47	4.0
100.485	4.0
100.5	7.0
100.515	3.0
100.53	5.0
100.544	1.0
100.559	1.0
100.574	0.0
100.589	2.0
100.604	1.0
100.619	5.0
100.633	2.0
100.648	2.0
100.663	4.0
100.678	1.0
100.693	2.0
100.708	2.0
100.722	3.0
100.737	4.0
100.752	1.0
100.767	5.0
100.782	3.0
100.796	3.0
100.811	2.0
100.826	2.0
100.841	1.0
100.856	2.0
100.871	2.0
100.885	1.0
100.9	2.0
100.915	2.0
100.93	3.0
100.945	2.0
100.96	3.0
100.974	0.0
100.989	3.0
101.004	5.0
101.019	4.0
101.034	4.0
101.048	1.0
101.063	2.0
101.078	7.0
101.093	3.0
101.108	0.0
101.123	3.0
101.137	4.0
101.152	6.0
101.167	4.0
101.182	6.0
101.197	3.0
101.211	2.0
101.226	1.0
101.241	4.0
101.256	1.0
101.271	3.0
101.285	1.0
101.3	3.0
101.315	4.0
101.33	3.0
101.345	3.0
101.359	1.0
101.374	2.0
101.389	2.0
101.404	1.0
101.419	3.0
101.433	3.0
101.448	2.0
101.463	3.0
101.478	3.0
101.493	5.0
101.507	1.0
101.522	4.0
101.537	2.0
101.552	2.0
101.567	3.0
101.581	0.0
101.596	2.0
101.611	3.0
101.626	4.0
101.64	1.0
101.655	4.0
101.67	2.0
101.685	3.0
101.7	3.0
101.714	4.0
101.729	1.0
101.744	3.0
101.759	2.0
101.773	4.0
101.788	2.0
101.803	3.0
101.818	4.0
101.833	1.0
101.847	3.0
101.862	6.0
101.877	7.0
101.892	4.0
101.906	2.0
101.921	1.0
101.936	1.0
101.951	3.0
101.965	4.0
101.98	3.0
101.995	0.0
102.01	4.0
102.025	2.0
102.039	3.0
102.054	5.0
102.069	4.0
102.084	5.0
102.098	2.0
102.113	3.0
102.128	5.0
102.143	1.0
102.157	6.0
102.172	3.0
102.187	4.0
102.202	3.0
102.216	4.0
102.231	2.0
102.246	7.0
102.261	6.0
102.275	3.0
102.29	2.0
102.305	3.0
102.32	7.0
102.334	4.0
102.349	3.0
102.364	2.0
102.378	1.0
102.393	5.0
102.408	3.0
102.423	4.0
102.437	2.0
102.452	4.0
102.467	1.0
102.482	5.0
102.496	2.0
102.511	2.0
102.526	4.0
102.541	1.0
102.555	6.0
102.57	4.0
102.585	3.0
102.6	3.0
102.614	3.0
102.629	2.0
102.644	5.0
102.659	6.0
102.673	2.0
102.688	1.0
102.703	2.0
102.717	2.0
102.732	4.0
102.747	1.0
102.762	6.0
102.776	2.0
102.791	3.0
102.806	3.0
102.821	3.0
102.835	2.0
102.85	4.0
102.865	3.0
102.88	4.0
102.894	1.0
102.909	3.0
102.924	4.0
102.938	7.0
102.953	4.0
102.968	2.0
102.983	3.0
102.997	0.0
103.012	3.0
103.027	2.0
103.042	1.0
103.056	1.0
103.071	2.0
103.086	1.0
103.101	3.0
103.115	5.0
103.13	3.0
103.145	1.0
103.16	3.0
103.174	3.0
103.189	5.0
103.204	1.0
103.219	7.0
103.233	0.0
103.248	5.0
103.263	1.0
103.278	1.0
103.292	3.0
103.307	5.0
103.322	5.0
103.337	7.0
103.351	6.0
103.366	2.0
103.381	4.0
103.396	6.0
103.41	4.0
103.425	3.0
103.44	3.0
103.455	4.0
103.469	3.0
103.484	3.0
103.499	3.0
103.514	4.0
103.529	4.0
103.543	7.0
103.558	3.0
103.573	2.0
103.588	2.0
103.602	3.0
103.617	3.0
103.632	5.0
103.647	0.0
103.661	1.0
103.676	1.0
103.691	2.0
103.706	4.0
103.721	4.0
103.735	1.0
103.75	4.0
103.765	1.0
103.78	1.0
103.795	2.0
103.809	2.0
103.824	4.0
103.839	6.0
103.854	5.0
103.869	4.0
103.883	2.0
103.898	3.0
103.913	3.0
103.928	4.0
103.943	5.0
103.957	6.0
103.972	2.0
103.987	4.0
104.002	3.0
104.017	5.0
104.031	2.0
104.046	2.0
104.061	6.0
104.076	4.0
104.091	5.0
104.106	5.0
104.12	3.0
104.135	2.0
104.15	4.0
104.165	4.0
104.18	4.0
104.195	4.0
104.209	4.0
104.224	1.0
104.239	3.0
104.254	4.0
104.269	2.0
104.284	1.0
104.299	3.0
104.313	2.0
104.328	0.0
104.343	1.0
104.358	6.0
104.373	2.0
104.388	5.0
104.403	2.0
104.417	3.0
104.432	2.0
104.447	4.0
104.462	2.0
104.477	2.0
104.492	3.0
104.507	4.0
104.522	4.0
104.536	4.0
104.551	7.0
104.566	5.0
104.581	7.0
104.596	5.0
104.611	1.0
104.626	3.0
104.641	5.0
104.656	3.0
104.67	4.0
104.685	1.0
104.7	5.0
104.715	2.0
104.73	1.0
104.745	1.0
104.76	8.0
104.775	3.0
104.79	6.0
104.804	2.0
104.819	2.0
104.834	5.0
104.849	3.0
104.864	2.0
104.879	2.0
104.894	1.0
104.909	3.0
104.924	5.0
104.939	10.0
104.954	2.0
104.968	3.0
104.983	0.0
104.998	0.0
105.013	3.0
105.028	2.0
105.043	3.0
105.058	2.0
105.073	2.0
105.088	4.0
105.103	4.0
105.118	1.0
105.133	0.0
105.147	5.0
105.162	4.0
105.177	4.0
105.192	6.0
105.207	4.0
105.222	5.0
105.237	2.0
105.252	0.0
105.267	3.0
105.282	4.0
105.297	1.0
105.312	4.0
105.327	3.0
105.342	4.0
105.356	3.0
105.371	2.0
105.386	3.0
105.401	4.0
105.416	2.0
105.431	3.0
105.446	2.0
105.461	3.0
105.476	3.0
105.491	3.0
105.506	1.0
105.521	5.0
105.536	1.0
105.551	0.0
105.566	5.0
105.581	8.0
105.595	5.0
105.61	2.0
105.625	4.0
105.64	4.0
105.655	2.0
105.67	1.0
105.685	3.0
105.7	3.0
105.715	2.0
105.73	2.0
105.745	3.0
105.76	4.0
105.775	8.0
105.79	2.0
105.805	1.0
105.82	3.0
105.835	3.0
105.85	2.0
105.864	3.0
105.879	1.0
105.894	4.0
105.909	2.0
105.924	0.0
105.939	2.0
105.954	3.0
105.969	1.0
105.984	2.0
105.999	4.0
106.014	3.0
106.029	1.0
106.044	2.0
106.059	4.0
106.074	3.0
106.089	2.0
106.104	5.0
106.119	4.0
106.134	2.0
106.148	1.0
106.163	1.0
106.178	0.0
106.193	3.0
106.208	2.0
106.223	3.0
106.238	2.0
106.253	2.0
106.268	2.0
106.283	6.0
106.298	1.0
106.313	2.0
106.328	5.0
106.343	4.0
106.358	2.0
106.373	4.0
106.388	2.0
106.403	9.0
106.418	3.0
106.432	4.0
106.447	0.0
106.462	6.0
106.477	3.0
106.492	2.0
106.507	4.0
106.522	4.0
106.537	0.0
106.552	6.0
106.567	2.0
106.582	2.0
106.597	4.0
106.612	4.0
106.627	2.0
106.642	5.0
106.657	1.0
106.672	4.0
106.687	2.0
106.701	6.0
106.716	2.0
106.731	0.0
106.746	2.0
106.761	3.0
106.776	4.0
106.791	4.0
106.806	3.0
106.821	3.0
106.836	2.0
106.851	1.0
106.866	4.0
106.881	5.0
106.896	3.0
106.911	2.0
106.926	3.0
106.941	2.0
106.955	2.0
106.97	2.0
106.985	5.0
107.0	3.0
107.015	2.0
107.03	5.0
107.045	1.0
107.06	4.0
107.075	2.0
107.09	5.0
107.105	4.0
107.12	3.0
107.135	3.0
107.15	2.0
107.165	2.0
107.18	4.0
107.194	3.0
107.209	5.0
107.224	3.0
107.239	3.0
107.254	4.0
107.269	5.0
107.284	4.0
107.299	5.0
107.314	3.0
107.329	6.0
107.344	4.0
107.359	7.0
107.374	4.0
107.389	3.0
107.404	6.0
107.418	3.0
107.433	2.0
107.448	2.0
107.463	6.0
107.478	1.0
107.493	5.0
107.508	4.0
107.523	2.0
107.538	4.0
107.553	1.0
107.568	5.0
107.583	0.0
107.598	4.0
107.613	4.0
107.627	4.0
107.642	4.0
107.657	7.0
107.672	3.0
107.687	5.0
107.702	1.0
107.717	0.0
107.732	4.0
107.747	2.0
107.762	4.0
107.777	2.0
107.792	2.0
107.807	1.0
107.821	2.0
107.836	0.0
107.851	4.0
107.866	0.0
107.881	6.0
107.896	6.0
107.911	1.0
107.926	4.0
107.941	2.0
107.956	3.0
107.971	3.0
107.986	3.0
108.0	0.0
108.015	6.0
108.03	1.0
108.045	6.0
108.06	3.0
108.075	5.0
108.09	4.0
108.105	3.0
108.12	1.0
108.135	3.0
108.15	5.0
108.164	7.0
108.179	6.0
108.194	2.0
108.209	2.0
108.224	3.0
108.239	3.0
108.254	1.0
108.269	1.0
108.284	2.0
108.299	4.0
108.313	3.0
108.328	1.0
108.343	0.0
108.358	2.0
108.373	3.0
108.388	7.0
108.403	3.0
108.418	3.0
108.433	3.0
108.448	3.0
108.462	7.0
108.477	4.0
108.492	1.0
108.507	4.0
108.522	3.0
108.537	2.0
108.552	2.0
108.567	1.0
108.582	3.0
108.597	1.0
108.611	4.0
108.626	1.0
108.641	4.0
108.656	2.0
108.671	2.0
108.686	4.0
108.701	1.0
108.716	4.0
108.731	2.0
108.745	3.0
108.76	4.0
108.775	1.0
108.79	3.0
108.805	0.0
108.82	4.0
108.835	3.0
108.85	2.0
108.865	3.0
108.879	4.0
108.894	6.0
108.909	2.0
108.924	2.0
108.939	4.0
108.954	3.0
108.969	3.0
108.984	4.0
108.999	6.0
109.013	0.0
109.028	2.0
109.043	6.0
109.058	3.0
109.073	4.0
109.088	2.0
109.103	1.0
109.118	1.0
109.133	4.0
109.147	0.0
109.162	5.0
109.177	2.0
109.192	2.0
109.207	2.0
109.222	1.0
109.237	6.0
109.252	4.0
109.267	4.0
109.281	5.0
109.296	2.0
109.311	0.0
109.326	5.0
109.341	1.0
109.356	0.0
109.371	5.0
109.386	1.0
109.4	6.0
109.415	0.0
109.43	1.0
109.445	3.0
109.46	4.0
109.475	1.0
109.49	7.0
109.505	3.0
109.52	1.0
109.534	4.0
109.549	3.0
109.564	0.0
109.579	5.0
109.594	9.0
109.609	3.0
109.624	1.0
109.639	1.0
109.653	1.0
109.668	1.0
109.683	0.0
109.698	3.0
109.713	4.0
109.728	3.0
109.743	3.0
109.758	5.0
109.773	2.0
109.787	4.0
109.802	1.0
109.817	6.0
109.832	7.0
109.847	8.0
109.862	2.0
109.877	1.0
109.892	2.0
109.907	0.0
109.921	1.0
109.936	3.0
109.951	2.0
109.966	5.0
109.981	4.0
109.996	4.0
110.011	4.0
110.026	2.0
110.04	2.0
110.055	4.0
110.07	3.0
110.085	2.0
110.1	2.0
110.115	2.0
110.13	4.0
110.145	3.0
110.16	3.0
110.174	3.0
110.189	3.0
110.204	3.0
110.219	3.0
110.234	3.0
110.249	2.0
110.264	4.0
110.279	2.0
110.294	4.0
110.308	0.0
110.323	3.0
110.338	1.0
110.353	3.0
110.368	6.0
110.383	1.0
110.398	3.0
110.413	2.0
110.428	1.0
110.442	4.0
110.457	1.0
110.472	2.0
110.487	4.0
110.502	4.0
110.517	4.0
110.532	5.0
110.547	0.0
110.561	3.0
110.576	2.0
110.591	2.0
110.606	3.0
110.621	4.0
110.636	3.0
110.651	0.0
110.666	9.0
110.681	1.0
110.695	3.0
110.71	7.0
110.725	3.0
110.74	2.0
110.755	1.0
110.77	4.0
110.785	7.0
110.8	0.0
110.815	6.0
110.829	5.0
110.844	4.0
110.859	5.0
110.874	6.0
110.889	6.0
110.904	4.0
110.919	3.0
110.934	1.0
110.948	2.0
110.963	3.0
110.978	2.0
110.993	2.0
111.008	2.0
111.023	3.0
111.038	1.0
111.053	7.0
111.067	1.0
111.082	3.0
111.097	3.0
111.112	4.0
111.127	5.0
111.142	4.0
111.157	6.0
111.172	3.0
111.186	1.0
111.201	1.0
111.216	5.0
111.231	2.0
111.246	1.0
111.261	1.0
111.276	3.0
111.291	4.0
111.305	0.0
111.32	3.0
111.335	3.0
111.35	4.0
111.365	3.0
111.38	3.0
111.395	1.0
111.41	1.0
111.424	5.0
111.439	2.0
111.454	1.0
111.469	4.0
111.484	2.0
111.499	4.0
111.514	3.0
111.528	1.0
111.543	5.0
111.558	2.0
111.573	5.0
111.588	4.0
111.603	3.0
111.618	4.0
111.633	6.0
111.647	2.0
111.662	3.0
111.677	3.0
111.692	4.0
111.707	7.0
111.722	3.0
111.737	5.0
111.751	2.0
111.766	6.0
111.781	1.0
111.796	2.0
111.811	3.0
111.826	2.0
111.84	5.0
111.855	3.0
111.87	3.0
111.885	2.0
111.9	7.0
111.915	5.0
111.93	3.0
111.944	4.0
111.959	2.0
111.974	4.0
111.989	4.0
112.004	5.0
112.019	3.0
112.033	2.0
112.048	5.0
112.063	1.0
112.078	3.0
112.093	2.0
112.108	3.0
112.123	1.0
112.137	1.0
112.152	3.0
112.167	3.0
112.182	3.0
112.197	4.0
112.212	2.0
112.226	8.0
112.241	6.0
112.256	3.0
112.271	3.0
112.286	2.0
112.301	3.0
112.315	3.0
112.33	6.0
112.345	3.0
112.36	5.0
112.375	1.0
112.389	0.0
112.404	3.0
112.419	3.0
112.434	4.0
112.449	0.0
112.464	3.0
112.478	3.0
112.493	3.0
112.508	0.0
112.523	0.0
112.538	3.0
112.553	7.0
112.567	4.0
112.582	3.0
112.597	5.0
112.612	6.0
112.627	4.0
112.642	1.0
112.656	4.0
112.671	2.0
112.686	1.0
112.701	2.0
112.716	9.0
112.73	5.0
112.745	5.0
112.76	2.0
112.775	3.0
112.79	1.0
112.805	5.0
112.819	3.0
112.834	5.0
112.849	3.0
112.864	2.0
112.879	4.0
112.894	3.0
112.908	1.0
112.923	5.0
112.938	2.0
112.953	3.0
112.968	4.0
112.983	1.0
112.997	2.0
113.012	4.0
113.027	5.0
113.042	5.0
113.057	2.0
113.072	4.0
113.086	4.0
113.101	1.0
113.116	3.0
113.131	4.0
113.146	4.0
113.161	4.0
113.175	2.0
113.19	3.0
113.205	2.0
113.22	8.0
113.235	3.0
113.25	3.0
113.265	3.0
113.279	4.0
113.294	4.0
113.309	2.0
113.324	6.0
113.339	6.0
113.354	6.0
113.368	2.0
113.383	3.0
113.398	5.0
113.413	3.0
113.428	2.0
113.443	3.0
113.458	4.0
113.472	3.0
113.487	4.0
113.502	2.0
113.517	3.0
113.532	0.0
113.547	4.0
113.562	5.0
113.576	5.0
113.591	4.0
113.606	4.0
113.621	5.0
113.636	4.0
113.651	1.0
113.666	2.0
113.681	4.0
113.695	3.0
113.71	5.0
113.725	2.0
113.74	7.0
113.755	4.0
113.77	2.0
113.785	5.0
113.8	6.0
113.814	3.0
113.829	2.0
113.844	1.0
113.859	1.0
113.874	1.0
113.889	6.0
113.904	1.0
113.919	2.0
113.934	3.0
113.949	2.0
113.963	2.0
113.978	1.0
113.993	1.0
114.008	2.0
114.023	4.0
114.038	2.0
114.053	8.0
114.068	5.0
114.083	2.0
114.098	4.0
114.113	3.0
114.127	4.0
114.142	2.0
114.157	5.0
114.172	2.0
114.187	3.0
114.202	2.0
114.217	4.0
114.232	5.0
114.247	5.0
114.262	0.0
114.277	2.0
114.292	2.0
114.307	2.0
114.322	6.0
114.337	3.0
114.351	9.0
114.366	3.0
114.381	3.0
114.396	2.0
114.411	3.0
114.426	4.0
114.441	4.0
114.456	2.0
114.471	3.0
114.486	5.0
114.501	6.0
114.516	4.0
114.531	3.0
114.546	4.0
114.561	6.0
114.576	5.0
114.591	6.0
114.606	2.0
114.621	6.0
114.636	2.0
114.65	3.0
114.665	2.0
114.68	2.0
114.695	6.0
114.71	1.0
114.725	4.0
114.74	2.0
114.755	1.0
114.77	0.0
114.785	4.0
114.8	3.0
114.815	3.0
114.83	3.0
114.845	4.0
114.86	3.0
114.875	3.0
114.89	7.0
114.905	4.0
114.92	5.0
114.935	4.0
114.95	4.0
114.965	5.0
114.98	1.0
114.995	4.0
115.009	6.0
115.024	4.0
115.039	4.0
115.054	3.0
115.069	4.0
115.084	1.0
115.099	4.0
115.114	3.0
115.129	6.0
115.144	3.0
115.159	2.0
115.174	3.0
115.189	3.0
115.204	0.0
115.219	3.0
115.234	5.0
115.249	5.0
115.264	6.0
115.279	5.0
115.294	5.0
115.309	4.0
115.323	5.0
115.338	5.0
115.353	2.0
115.368	4.0
115.383	7.0
115.398	6.0
115.413	5.0
115.428	3.0
115.443	1.0
115.458	2.0
115.473	6.0
115.488	2.0
115.503	4.0
115.518	3.0
115.533	6.0
115.548	2.0
115.562	3.0
115.577	5.0
115.592	2.0
115.607	1.0
115.622	4.0
115.637	3.0
115.652	4.0
115.667	2.0
115.682	3.0
115.697	4.0
115.712	4.0
115.727	1.0
115.741	2.0
115.756	7.0
115.771	4.0
115.786	7.0
115.801	3.0
115.816	2.0
115.831	5.0
115.846	1.0
115.861	6.0
115.875	2.0
115.89	4.0
115.905	3.0
115.92	6.0
115.935	6.0
115.95	6.0
115.965	2.0
115.98	4.0
115.995	5.0
116.009	4.0
116.024	2.0
116.039	6.0
116.054	2.0
116.069	3.0
116.084	6.0
116.099	3.0
116.113	2.0
116.128	4.0
116.143	4.0
116.158	1.0
116.173	3.0
116.188	2.0
116.202	6.0
116.217	2.0
116.232	5.0
116.247	5.0
116.262	3.0
116.277	3.0
116.291	4.0
116.306	5.0
116.321	3.0
116.336	3.0
116.351	2.0
116.366	5.0
116.38	4.0
116.395	4.0
116.41	4.0
116.425	4.0
116.44	1.0
116.454	7.0
116.469	3.0
116.484	4.0
116.499	4.0
116.514	2.0
116.528	0.0
116.543	3.0
116.558	2.0
116.573	5.0
116.588	5.0
116.602	2.0
116.617	6.0
116.632	3.0
116.647	3.0
116.662	4.0
116.676	2.0
116.691	3.0
116.706	3.0
116.721	4.0
116.735	2.0
116.75	3.0
116.765	4.0
116.78	2.0
116.795	5.0
116.809	6.0
116.824	5.0
116.839	0.0
116.854	6.0
116.868	4.0
116.883	4.0
116.898	3.0
116.913	4.0
116.927	1.0
116.942	6.0
116.957	4.0
116.972	3.0
116.986	3.0
117.001	2.0
117.016	3.0
117.031	3.0
117.045	6.0
117.06	8.0
117.075	2.0
117.09	5.0
117.104	2.0
117.119	4.0
117.134	3.0
117.149	6.0
117.163	5.0
117.178	4.0
117.193	2.0
117.208	2.0
117.222	7.0
117.237	1.0
117.252	3.0
117.267	2.0
117.281	4.0
117.296	4.0
117.311	1.0
117.325	1.0
117.34	4.0
117.355	8.0
117.37	7.0
117.384	1.0
117.399	4.0
117.414	5.0
117.429	1.0
117.443	2.0
117.458	5.0
117.473	5.0
117.487	3.0
117.502	4.0
117.517	3.0
117.532	1.0
117.546	7.0
117.561	4.0
117.576	7.0
117.59	3.0
117.605	2.0
117.62	5.0
117.635	1.0
117.649	2.0
117.664	1.0
117.679	4.0
117.693	4.0
117.708	1.0
117.723	3.0
117.738	1.0
117.752	3.0
117.767	3.0
117.782	6.0
117.796	3.0
117.811	4.0
117.826	3.0
117.841	4.0
117.855	2.0
117.87	4.0
117.885	2.0
117.899	4.0
117.914	6.0
117.929	3.0
117.944	3.0
117.958	1.0
117.973	4.0
117.988	4.0
118.002	1.0
118.017	3.0
118.032	7.0
118.047	2.0
118.062	3.0
118.077	5.0
118.092	4.0
118.107	8.0
118.121	2.0
118.136	5.0
118.151	4.0
118.166	3.0
118.181	5.0
118.196	3.0
118.211	3.0
118.225	1.0
118.24	4.0
118.255	1.0
118.27	3.0
118.285	4.0
118.3	2.0
118.315	5.0
118.33	2.0
118.344	9.0
118.359	9.0
118.374	3.0
118.389	2.0
118.404	3.0
118.419	3.0
118.434	6.0
118.449	6.0
118.463	4.0
118.478	3.0
118.493	3.0
118.508	5.0
118.523	3.0
118.538	2.0
118.553	3.0
118.567	6.0
118.582	3.0
118.597	2.0
118.612	0.0
118.627	7.0
118.642	3.0
118.657	2.0
118.672	0.0
118.686	1.0
118.701	5.0
118.716	4.0
118.731	1.0
118.746	4.0
118.761	2.0
118.776	3.0
118.791	3.0
118.805	4.0
118.82	6.0
118.835	2.0
118.85	5.0
118.865	2.0
118.88	2.0
118.895	2.0
118.909	7.0
118.924	4.0
118.939	3.0
118.954	6.0
118.969	3.0
118.984	4.0
118.999	1.0
119.014	1.0
119.028	3.0
119.043	3.0
119.058	3.0
119.073	4.0
119.088	2.0
119.103	4.0
119.118	1.0
119.133	5.0
119.147	2.0
119.162	4.0
119.177	2.0
119.192	3.0
119.207	3.0
119.222	2.0
119.237	9.0
119.251	4.0
119.266	6.0
119.281	2.0
119.296	3.0
119.311	3.0
119.326	8.0
119.341	4.0
119.356	8.0
119.37	4.0
119.385	6.0
119.4	3.0
119.415	5.0
119.43	1.0
119.445	2.0
119.46	2.0
119.475	4.0
119.489	5.0
119.504	4.0
119.519	3.0
119.534	2.0
119.549	4.0
119.564	2.0
119.579	2.0
119.593	1.0
119.608	3.0
119.623	6.0
119.638	2.0
119.653	1.0
119.668	3.0
119.683	4.0
119.698	4.0
119.712	6.0
119.727	5.0
119.742	3.0
119.757	3.0
119.772	3.0
119.787	2.0
119.802	3.0
119.817	1.0
119.831	1.0
119.846	4.0
119.861	1.0
119.876	7.0
119.891	3.0
119.906	0.0
119.921	5.0
119.935	2.0
119.95	2.0
119.965	2.0
119.98	0.0
119.995	4.0
120.01	3.0
120.025	2.0
120.04	3.0
120.054	2.0
120.069	4.0
120.084	2.0
120.099	5.0
120.114	3.0
120.129	2.0
120.144	0.0
120.159	0.0
120.173	2.0
120.188	1.0
120.203	1.0
120.218	0.0
120.233	2.0
120.248	1.0
120.263	0.0
120.277	0.0
120.292	0.0
120.307	3.0
120.322	0.0
120.337	0.0
120.352	0.0
120.367	0.0
120.382	1.0
120.396	0.0
120.411	0.0
120.426	0.0
120.441	0.0
120.456	0.0
120.471	0.0
120.486	1.0
120.501	0.0
120.515	0.0
120.53	0.0
120.545	0.0
120.56	0.0
120.575	0.0
120.59	0.0
120.605	1.0
120.619	0.0
120.634	2.0
120.649	0.0
120.664	0.0
120.679	0.0
120.694	2.0
120.709	0.0
120.724	0.0
120.738	0.0
120.753	0.0
120.768	0.0
120.783	1.0
120.798	0.0
120.813	0.0
120.828	1.0
120.843	0.0
120.857	0.0
120.872	1.0
120.887	0.0
120.902	0.0
120.917	1.0
120.932	0.0
120.947	0.0
120.961	0.0
120.976	0.0
