-1.217	0.0
-1.202	0.0
-1.187	0.0
-1.172	0.0
-1.157	0.0
-1.142	0.0
-1.128	0.0
-1.113	0.0
-1.098	0.0
-1.083	0.0
-1.068	0.0
-1.054	0.0
-1.039	0.0
-1.024	0.0
-1.009	0.0
-0.994	0.0
-0.979	0.0
-0.965	1.0
-0.95	0.0
-0.935	0.0
-0.92	0.0
-0.905	0.0
-0.891	0.0
-0.876	0.0
-0.861	0.0
-0.846	0.0
-0.831	0.0
-0.816	0.0
-0.802	0.0
-0.787	0.0
-0.772	0.0
-0.757	0.0
-0.742	0.0
-0.728	0.0
-0.713	0.0
-0.698	0.0
-0.683	0.0
-0.668	0.0
-0.653	0.0
-0.639	0.0
-0.624	0.0
-0.609	0.0
-0.594	0.0
-0.579	0.0
-0.565	0.0
-0.55	0.0
-0.535	0.0
-0.52	0.0
-0.505	0.0
-0.49	0.0
-0.476	0.0
-0.461	0.0
-0.446	0.0
-0.431	0.0
-0.416	0.0
-0.401	0.0
-0.387	0.0
-0.372	0.0
-0.357	0.0
-0.342	0.0
-0.327	0.0
-0.313	1.0
-0.298	0.0
-0.283	0.0
-0.268	0.0
-0.253	0.0
-0.238	0.0
-0.224	0.0
-0.209	0.0
-0.194	0.0
-0.179	0.0
-0.164	0.0
-0.15	0.0
-0.135	0.0
-0.12	0.0
-0.105	0.0
-0.09	0.0
-0.075	0.0
-0.061	0.0
-0.046	0.0
-0.031	0.0
-0.016	0.0
-0.001	0.0
0.013	0.0
0.028	0.0
0.043	0.0
0.058	0.0
0.073	0.0
0.088	0.0
0.102	0.0
0.117	0.0
0.132	0.0
0.147	0.0
0.162	2.0
0.176	0.0
0.191	0.0
0.206	0.0
0.221	0.0
0.236	0.0
0.251	1.0
0.265	0.0
0.28	0.0
0.295	0.0
0.31	0.0
0.325	0.0
0.339	0.0
0.354	0.0
0.369	0.0
0.384	0.0
0.399	0.0
0.414	0.0
0.428	0.0
0.443	0.0
0.458	0.0
0.473	0.0
0.488	0.0
0.502	0.0
0.517	0.0
0.532	0.0
0.547	0.0
0.562	1.0
0.577	0.0
0.591	0.0
0.606	0.0
0.621	0.0
0.636	0.0
0.651	0.0
0.665	0.0
0.68	0.0
0.695	0.0
0.71	0.0
0.725	0.0
0.74	0.0
0.754	0.0
0.769	0.0
0.784	0.0
0.799	0.0
0.814	0.0
0.828	0.0
0.843	0.0
0.858	0.0
0.873	1.0
0.888	0.0
0.903	0.0
0.917	0.0
0.932	0.0
0.947	0.0
0.962	0.0
0.977	0.0
0.991	0.0
1.006	1.0
1.021	0.0
1.036	0.0
1.051	0.0
1.065	0.0
1.08	0.0
1.095	0.0
1.11	0.0
1.125	0.0
1.14	1.0
1.154	0.0
1.169	0.0
1.184	0.0
1.199	0.0
1.214	1.0
1.228	0.0
1.243	0.0
1.258	0.0
1.273	0.0
1.288	0.0
1.302	0.0
1.317	0.0
1.332	0.0
1.347	1.0
1.362	0.0
1.376	1.0
1.391	0.0
1.406	0.0
1.421	0.0
1.436	0.0
1.45	0.0
1.465	1.0
1.48	0.0
1.495	0.0
1.51	0.0
1.524	0.0
1.539	0.0
1.554	1.0
1.569	0.0
1.584	0.0
1.598	0.0
1.613	0.0
1.628	1.0
1.643	0.0
1.658	0.0
1.672	1.0
1.687	0.0
1.702	0.0
1.717	0.0
1.732	0.0
1.746	0.0
1.761	0.0
1.776	0.0
1.791	0.0
1.806	0.0
1.82	0.0
1.835	0.0
1.85	0.0
1.865	0.0
1.88	0.0
1.894	0.0
1.909	0.0
1.924	0.0
1.939	1.0
1.954	0.0
1.968	0.0
1.983	0.0
1.998	1.0
2.013	0.0
2.028	0.0
2.042	0.0
2.057	0.0
2.072	0.0
2.087	0.0
2.101	0.0
2.116	0.0
2.131	0.0
2.146	1.0
2.161	0.0
2.175	0.0
2.19	0.0
2.205	0.0
2.22	0.0
2.235	0.0
2.249	0.0
2.264	2.0
2.279	0.0
2.294	0.0
2.308	1.0
2.323	0.0
2.338	0.0
2.353	2.0
2.368	0.0
2.382	2.0
2.397	0.0
2.412	1.0
2.427	1.0
2.442	2.0
2.456	0.0
2.471	0.0
2.486	3.0
2.501	0.0
2.515	2.0
2.53	4.0
2.545	1.0
2.56	8.0
2.575	3.0
2.589	1.0
2.604	3.0
2.619	2.0
2.634	2.0
2.649	3.0
2.663	2.0
2.678	1.0
2.693	1.0
2.708	1.0
2.722	1.0
2.737	4.0
2.752	3.0
2.767	2.0
2.782	2.0
2.796	3.0
2.811	1.0
2.826	3.0
2.841	1.0
2.856	4.0
2.87	1.0
2.885	3.0
2.9	3.0
2.915	3.0
2.93	1.0
2.944	7.0
2.959	1.0
2.974	6.0
2.989	3.0
3.004	3.0
3.018	1.0
3.033	7.0
3.048	5.0
3.063	4.0
3.078	4.0
3.092	2.0
3.107	4.0
3.122	7.0
3.137	3.0
3.152	7.0
3.166	3.0
3.181	1.0
3.196	4.0
3.211	3.0
3.226	5.0
3.24	3.0
3.255	5.0
3.27	5.0
3.285	5.0
3.3	6.0
3.315	5.0
3.329	6.0
3.344	5.0
3.359	7.0
3.374	4.0
3.389	5.0
3.403	9.0
3.418	4.0
3.433	5.0
3.448	5.0
3.463	3.0
3.478	4.0
3.492	4.0
3.507	3.0
3.522	2.0
3.537	5.0
3.552	9.0
3.567	7.0
3.581	6.0
3.596	1.0
3.611	4.0
3.626	5.0
3.641	2.0
3.656	5.0
3.671	3.0
3.685	4.0
3.7	6.0
3.715	4.0
3.73	6.0
3.745	4.0
3.76	7.0
3.775	8.0
3.789	7.0
3.804	6.0
3.819	9.0
3.834	5.0
3.849	5.0
3.864	4.0
3.879	6.0
3.894	4.0
3.908	3.0
3.923	4.0
3.938	4.0
3.953	7.0
3.968	3.0
3.983	3.0
3.998	6.0
4.013	3.0
4.027	8.0
4.042	6.0
4.057	5.0
4.072	8.0
4.087	9.0
4.102	5.0
4.117	9.0
4.132	1.0
4.147	5.0
4.162	12.0
4.176	4.0
4.191	3.0
4.206	10.0
4.221	10.0
4.236	4.0
4.251	4.0
4.266	9.0
4.281	5.0
4.296	6.0
4.311	7.0
4.326	8.0
4.341	5.0
4.356	4.0
4.37	8.0
4.385	3.0
4.4	6.0
4.415	7.0
4.43	4.0
4.445	2.0
4.46	9.0
4.475	4.0
4.49	11.0
4.505	3.0
4.52	7.0
4.535	4.0
4.55	4.0
4.565	9.0
4.58	10.0
4.595	10.0
4.61	5.0
4.625	10.0
4.639	4.0
4.654	10.0
4.669	5.0
4.684	8.0
4.699	9.0
4.714	13.0
4.729	9.0
4.744	6.0
4.759	4.0
4.774	7.0
4.789	4.0
4.804	10.0
4.819	7.0
4.834	5.0
4.849	8.0
4.864	6.0
4.879	8.0
4.894	11.0
4.909	1.0
4.924	11.0
4.939	6.0
4.954	7.0
4.969	8.0
4.984	12.0
4.999	5.0
5.014	9.0
5.029	6.0
5.044	11.0
5.059	6.0
5.074	5.0
5.089	9.0
5.104	6.0
5.119	5.0
5.134	5.0
5.149	8.0
5.164	4.0
5.179	9.0
5.194	6.0
5.209	6.0
5.224	6.0
5.239	9.0
5.254	12.0
5.269	9.0
5.284	10.0
5.299	4.0
5.314	3.0
5.329	9.0
5.344	9.0
5.359	8.0
5.374	7.0
5.389	13.0
5.404	5.0
5.419	9.0
5.434	2.0
5.449	4.0
5.464	17.0
5.479	7.0
5.494	7.0
5.509	11.0
5.524	8.0
5.539	15.0
5.554	8.0
5.569	6.0
5.584	8.0
5.599	12.0
5.614	8.0
5.629	13.0
5.644	11.0
5.659	7.0
5.674	6.0
5.689	9.0
5.704	5.0
5.719	4.0
5.734	9.0
5.749	5.0
5.764	2.0
5.779	10.0
5.794	12.0
5.809	8.0
5.824	7.0
5.839	12.0
5.854	5.0
5.869	7.0
5.884	8.0
5.899	9.0
5.914	5.0
5.929	7.0
5.944	10.0
5.959	6.0
5.974	14.0
5.989	4.0
6.004	5.0
6.019	11.0
6.034	3.0
6.049	11.0
6.064	6.0
6.079	2.0
6.094	3.0
6.109	6.0
6.124	6.0
6.139	5.0
6.154	12.0
6.169	7.0
6.184	8.0
6.199	11.0
6.214	11.0
6.229	8.0
6.244	3.0
6.259	8.0
6.274	7.0
6.289	5.0
6.304	9.0
6.319	12.0
6.334	6.0
6.349	10.0
6.364	8.0
6.379	10.0
6.394	8.0
6.409	11.0
6.424	11.0
6.439	13.0
6.454	12.0
6.469	9.0
6.484	8.0
6.499	13.0
6.514	9.0
6.529	13.0
6.544	9.0
6.559	11.0
6.574	4.0
6.589	9.0
6.604	15.0
6.619	6.0
6.634	8.0
6.649	8.0
6.664	13.0
6.679	3.0
6.694	7.0
6.709	8.0
6.724	10.0
6.739	9.0
6.754	14.0
6.769	9.0
6.784	2.0
6.799	10.0
6.814	10.0
6.829	11.0
6.844	7.0
6.859	11.0
6.873	9.0
6.888	7.0
6.903	11.0
6.918	7.0
6.933	10.0
6.948	7.0
6.963	10.0
6.978	14.0
6.993	15.0
7.008	3.0
7.023	6.0
7.038	8.0
7.053	11.0
7.068	7.0
7.083	9.0
7.098	4.0
7.113	9.0
7.128	5.0
7.143	7.0
7.157	7.0
7.172	7.0
7.187	10.0
7.202	9.0
7.217	7.0
7.232	8.0
7.247	8.0
7.262	6.0
7.277	6.0
7.292	7.0
7.307	6.0
7.322	8.0
7.336	5.0
7.351	8.0
7.366	7.0
7.381	14.0
7.396	10.0
7.411	6.0
7.426	7.0
7.441	14.0
7.456	8.0
7.471	9.0
7.485	8.0
7.5	9.0
7.515	12.0
7.53	12.0
7.545	5.0
7.56	7.0
7.575	8.0
7.59	7.0
7.604	7.0
7.619	8.0
7.634	8.0
7.649	9.0
7.664	7.0
7.679	4.0
7.693	9.0
7.708	9.0
7.723	5.0
7.738	10.0
7.753	11.0
7.768	3.0
7.783	6.0
7.797	8.0
7.812	8.0
7.827	7.0
7.842	8.0
7.857	4.0
7.871	7.0
7.886	11.0
7.901	12.0
7.916	10.0
7.931	13.0
7.945	11.0
7.96	7.0
7.975	10.0
7.99	9.0
8.005	8.0
8.019	7.0
8.034	4.0
8.049	7.0
8.064	6.0
8.078	13.0
8.093	8.0
8.108	8.0
8.123	10.0
8.137	11.0
8.152	5.0
8.167	9.0
8.182	5.0
8.196	14.0
8.211	6.0
8.226	5.0
8.241	4.0
8.255	11.0
8.27	8.0
8.285	4.0
8.3	6.0
8.314	10.0
8.329	10.0
8.344	7.0
8.358	9.0
8.373	10.0
8.388	8.0
8.403	10.0
8.417	6.0
8.432	8.0
8.447	12.0
8.461	13.0
8.476	15.0
8.491	3.0
8.505	11.0
8.52	5.0
8.535	8.0
8.55	4.0
8.564	14.0
8.579	7.0
8.594	6.0
8.608	10.0
8.623	8.0
8.638	6.0
8.652	7.0
8.667	15.0
8.682	12.0
8.696	10.0
8.711	14.0
8.726	8.0
8.74	10.0
8.755	3.0
8.77	8.0
8.784	9.0
8.799	4.0
8.814	13.0
8.828	12.0
8.843	10.0
8.858	3.0
8.872	10.0
8.887	9.0
8.902	8.0
8.916	11.0
8.931	9.0
8.946	8.0
8.96	5.0
8.975	6.0
8.99	7.0
9.004	12.0
9.019	10.0
9.034	10.0
9.048	5.0
9.063	15.0
9.077	9.0
9.092	3.0
9.107	4.0
9.121	13.0
9.136	8.0
9.151	4.0
9.165	10.0
9.18	8.0
9.195	10.0
9.209	11.0
9.224	11.0
9.239	4.0
9.253	13.0
9.268	11.0
9.283	12.0
9.297	3.0
9.312	8.0
9.327	4.0
9.341	9.0
9.356	10.0
9.371	10.0
9.385	9.0
9.4	10.0
9.415	6.0
9.429	9.0
9.444	12.0
9.458	7.0
9.473	8.0
9.488	14.0
9.502	7.0
9.517	11.0
9.532	11.0
9.546	10.0
9.561	9.0
9.576	11.0
9.59	9.0
9.605	10.0
9.62	10.0
9.635	7.0
9.649	13.0
9.664	8.0
9.679	8.0
9.693	9.0
9.708	7.0
9.723	10.0
9.737	11.0
9.752	3.0
9.767	5.0
9.781	10.0
9.796	5.0
9.811	8.0
9.825	11.0
9.84	19.0
9.855	9.0
9.87	13.0
9.884	7.0
9.899	10.0
9.914	7.0
9.928	10.0
9.943	10.0
9.958	6.0
9.973	11.0
9.987	8.0
10.002	11.0
10.017	8.0
10.031	13.0
10.046	16.0
10.061	6.0
10.076	13.0
10.09	6.0
10.105	6.0
10.12	10.0
10.135	10.0
10.149	6.0
10.164	8.0
10.179	10.0
10.194	13.0
10.208	6.0
10.223	8.0
10.238	13.0
10.253	4.0
10.267	7.0
10.282	5.0
10.297	5.0
10.312	6.0
10.326	5.0
10.341	10.0
10.356	6.0
10.371	4.0
10.386	9.0
10.4	3.0
10.415	10.0
10.43	6.0
10.445	6.0
10.46	6.0
10.474	7.0
10.489	7.0
10.504	6.0
10.519	4.0
10.533	3.0
10.548	4.0
10.563	6.0
10.578	7.0
10.593	5.0
10.608	7.0
10.622	11.0
10.637	8.0
10.652	9.0
10.667	8.0
10.682	9.0
10.696	6.0
10.711	6.0
10.726	5.0
10.741	8.0
10.756	8.0
10.771	8.0
10.785	4.0
10.8	8.0
10.815	8.0
10.83	8.0
10.845	10.0
10.86	10.0
10.874	8.0
10.889	13.0
10.904	4.0
10.919	5.0
10.934	11.0
10.949	13.0
10.963	10.0
10.978	8.0
10.993	9.0
11.008	7.0
11.023	3.0
11.038	8.0
11.053	4.0
11.067	6.0
11.082	6.0
11.097	9.0
11.112	6.0
11.127	7.0
11.142	10.0
11.157	11.0
11.172	8.0
11.186	2.0
11.201	4.0
11.216	13.0
11.231	9.0
11.246	9.0
11.261	9.0
11.276	12.0
11.291	8.0
11.305	3.0
11.32	9.0
11.335	6.0
11.35	11.0
11.365	7.0
11.38	5.0
11.395	9.0
11.41	6.0
11.424	5.0
11.439	7.0
11.454	5.0
11.469	7.0
11.484	6.0
11.499	7.0
11.514	12.0
11.529	7.0
11.544	5.0
11.558	5.0
11.573	6.0
11.588	9.0
11.603	7.0
11.618	9.0
11.633	6.0
11.648	9.0
11.663	2.0
11.678	11.0
11.693	7.0
11.707	10.0
11.722	6.0
11.737	6.0
11.752	6.0
11.767	8.0
11.782	8.0
11.797	10.0
11.812	13.0
11.827	7.0
11.842	5.0
11.856	5.0
11.871	10.0
11.886	6.0
11.901	8.0
11.916	7.0
11.931	12.0
11.946	12.0
11.961	14.0
11.976	10.0
11.991	8.0
12.006	6.0
12.02	7.0
12.035	13.0
12.05	7.0
12.065	12.0
12.08	7.0
12.095	9.0
12.11	14.0
12.125	8.0
12.14	4.0
12.155	9.0
12.17	10.0
12.184	6.0
12.199	10.0
12.214	8.0
12.229	12.0
12.244	10.0
12.259	4.0
12.274	12.0
12.289	11.0
12.304	9.0
12.319	12.0
12.334	13.0
12.348	5.0
12.363	13.0
12.378	12.0
12.393	13.0
12.408	9.0
12.423	14.0
12.438	13.0
12.453	7.0
12.468	8.0
12.483	15.0
12.498	6.0
12.513	9.0
12.527	9.0
12.542	10.0
12.557	10.0
12.572	16.0
12.587	9.0
12.602	8.0
12.617	13.0
12.632	11.0
12.647	10.0
12.662	12.0
12.677	9.0
12.692	15.0
12.707	15.0
12.721	8.0
12.736	14.0
12.751	11.0
12.766	11.0
12.781	10.0
12.796	13.0
12.811	13.0
12.826	16.0
12.841	13.0
12.856	12.0
12.871	9.0
12.886	21.0
12.9	8.0
12.915	9.0
12.93	14.0
12.945	14.0
12.96	12.0
12.975	12.0
12.99	16.0
13.005	13.0
13.02	14.0
13.035	20.0
13.05	17.0
13.065	11.0
13.08	17.0
13.094	28.0
13.109	19.0
13.124	8.0
13.139	16.0
13.154	10.0
13.169	15.0
13.184	14.0
13.199	15.0
13.214	23.0
13.229	23.0
13.244	16.0
13.259	19.0
13.274	20.0
13.288	21.0
13.303	25.0
13.318	20.0
13.333	13.0
13.348	24.0
13.363	29.0
13.378	23.0
13.393	26.0
13.408	20.0
13.423	29.0
13.438	29.0
13.453	30.0
13.468	30.0
13.482	40.0
13.497	39.0
13.512	27.0
13.527	45.0
13.542	50.0
13.557	45.0
13.572	49.0
13.587	46.0
13.602	53.0
13.617	51.0
13.632	74.0
13.647	74.0
13.662	66.0
13.677	76.0
13.691	91.0
13.706	79.0
13.721	98.0
13.736	82.0
13.751	81.0
13.766	114.0
13.781	106.0
13.796	116.0
13.811	149.0
13.826	132.0
13.841	120.0
13.856	105.0
13.871	117.0
13.885	110.0
13.9	79.0
13.915	69.0
13.93	80.0
13.945	63.0
13.96	48.0
13.975	52.0
13.99	33.0
14.005	37.0
14.02	38.0
14.035	19.0
14.05	32.0
14.065	29.0
14.08	17.0
14.094	21.0
14.109	19.0
14.124	26.0
14.139	17.0
14.154	24.0
14.169	25.0
14.184	18.0
14.199	16.0
14.214	14.0
14.229	27.0
14.244	22.0
14.259	18.0
14.274	25.0
14.288	15.0
14.303	14.0
14.318	18.0
14.333	25.0
14.348	22.0
14.363	28.0
14.378	20.0
14.393	13.0
14.408	16.0
14.423	26.0
14.438	23.0
14.453	28.0
14.468	18.0
14.482	18.0
14.497	25.0
14.512	9.0
14.527	21.0
14.542	27.0
14.557	16.0
14.572	15.0
14.587	18.0
14.602	19.0
14.617	16.0
14.632	16.0
14.647	15.0
14.661	18.0
14.676	25.0
14.691	11.0
14.706	14.0
14.721	16.0
14.736	19.0
14.751	11.0
14.766	7.0
14.781	16.0
14.796	16.0
14.811	13.0
14.826	14.0
14.84	12.0
14.855	14.0
14.87	14.0
14.885	20.0
14.9	10.0
14.915	17.0
14.93	15.0
14.945	17.0
14.96	17.0
14.975	21.0
14.989	10.0
15.004	21.0
15.019	23.0
15.034	16.0
15.049	12.0
15.064	6.0
15.079	10.0
15.094	15.0
15.109	16.0
15.124	9.0
15.138	14.0
15.153	13.0
15.168	11.0
15.183	20.0
15.198	13.0
15.213	13.0
15.228	12.0
15.243	13.0
15.258	8.0
15.272	12.0
15.287	12.0
15.302	21.0
15.317	13.0
15.332	14.0
15.347	13.0
15.362	11.0
15.377	13.0
15.391	20.0
15.406	11.0
15.421	12.0
15.436	18.0
15.451	10.0
15.466	17.0
15.481	14.0
15.496	21.0
15.51	10.0
15.525	11.0
15.54	10.0
15.555	16.0
15.57	13.0
15.585	12.0
15.6	15.0
15.614	12.0
15.629	15.0
15.644	11.0
15.659	12.0
15.674	13.0
15.689	14.0
15.704	14.0
15.718	13.0
15.733	7.0
15.748	12.0
15.763	11.0
15.778	13.0
15.793	13.0
15.808	16.0
15.822	18.0
15.837	11.0
15.852	9.0
15.867	17.0
15.882	18.0
15.897	17.0
15.911	14.0
15.926	12.0
15.941	13.0
15.956	13.0
15.971	4.0
15.986	9.0
16.0	11.0
16.015	10.0
16.03	10.0
16.045	7.0
16.06	13.0
16.074	13.0
16.089	13.0
16.104	13.0
16.119	12.0
16.134	10.0
16.149	16.0
16.163	16.0
16.178	7.0
16.193	15.0
16.208	9.0
16.223	8.0
16.237	20.0
16.252	18.0
16.267	15.0
16.282	17.0
16.297	10.0
16.311	16.0
16.326	17.0
16.341	6.0
16.356	21.0
16.37	16.0
16.385	9.0
16.4	16.0
16.415	14.0
16.43	9.0
16.444	16.0
16.459	15.0
16.474	10.0
16.489	14.0
16.504	17.0
16.518	17.0
16.533	16.0
16.548	18.0
16.563	21.0
16.577	15.0
16.592	13.0
16.607	15.0
16.622	27.0
16.637	22.0
16.651	19.0
16.666	24.0
16.681	18.0
16.696	21.0
16.71	28.0
16.725	30.0
16.74	28.0
16.755	28.0
16.77	31.0
16.784	39.0
16.799	39.0
16.814	52.0
16.829	44.0
16.843	46.0
16.858	58.0
16.873	65.0
16.888	64.0
16.902	74.0
16.917	60.0
16.932	69.0
16.947	66.0
16.961	86.0
16.976	62.0
16.991	65.0
17.006	63.0
17.021	62.0
17.035	55.0
17.05	62.0
17.065	44.0
17.08	31.0
17.094	39.0
17.109	31.0
17.124	29.0
17.139	19.0
17.153	20.0
17.168	17.0
17.183	21.0
17.198	16.0
17.212	19.0
17.227	11.0
17.242	14.0
17.257	14.0
17.271	12.0
17.286	11.0
17.301	8.0
17.316	18.0
17.33	13.0
17.345	11.0
17.36	12.0
17.375	12.0
17.39	8.0
17.404	15.0
17.419	18.0
17.434	12.0
17.449	10.0
17.463	9.0
17.478	11.0
17.493	14.0
17.508	14.0
17.522	14.0
17.537	11.0
17.552	14.0
17.567	12.0
17.581	8.0
17.596	15.0
17.611	10.0
17.626	15.0
17.641	12.0
17.655	12.0
17.67	7.0
17.685	13.0
17.7	7.0
17.714	9.0
17.729	12.0
17.744	14.0
17.759	13.0
17.773	12.0
17.788	10.0
17.803	19.0
17.818	14.0
17.833	7.0
17.847	16.0
17.862	9.0
17.877	6.0
17.892	13.0
17.906	8.0
17.921	20.0
17.936	11.0
17.951	10.0
17.966	12.0
17.98	10.0
17.995	6.0
18.01	9.0
18.025	14.0
18.04	10.0
18.054	11.0
18.069	9.0
18.084	13.0
18.099	14.0
18.114	11.0
18.128	13.0
18.143	14.0
18.158	8.0
18.173	13.0
18.188	14.0
18.202	15.0
18.217	9.0
18.232	12.0
18.247	14.0
18.262	13.0
18.276	17.0
18.291	11.0
18.306	9.0
18.321	10.0
18.336	8.0
18.35	10.0
18.365	11.0
18.38	9.0
18.395	18.0
18.41	12.0
18.424	15.0
18.439	13.0
18.454	12.0
18.469	12.0
18.484	9.0
18.498	13.0
18.513	8.0
18.528	13.0
18.543	12.0
18.558	19.0
18.573	9.0
18.587	17.0
18.602	13.0
18.617	11.0
18.632	13.0
18.647	14.0
18.661	15.0
18.676	8.0
18.691	15.0
18.706	12.0
18.721	11.0
18.736	9.0
18.75	15.0
18.765	9.0
18.78	9.0
18.795	17.0
18.81	8.0
18.825	17.0
18.839	7.0
18.854	8.0
18.869	5.0
18.884	13.0
18.899	13.0
18.913	12.0
18.928	6.0
18.943	12.0
18.958	6.0
18.973	10.0
18.988	11.0
19.002	11.0
19.017	7.0
19.032	9.0
19.047	10.0
19.062	7.0
19.077	10.0
19.091	9.0
19.106	12.0
19.121	12.0
19.136	12.0
19.151	8.0
19.165	13.0
19.18	12.0
19.195	7.0
19.21	16.0
19.225	13.0
19.24	13.0
19.254	11.0
19.269	13.0
19.284	10.0
19.299	14.0
19.314	14.0
19.329	19.0
19.343	16.0
19.358	14.0
19.373	11.0
19.388	27.0
19.403	14.0
19.417	20.0
19.432	20.0
19.447	25.0
19.462	19.0
19.477	29.0
19.492	21.0
19.506	24.0
19.521	35.0
19.536	37.0
19.551	30.0
19.566	30.0
19.58	43.0
19.595	37.0
19.61	50.0
19.625	38.0
19.64	36.0
19.655	35.0
19.669	41.0
19.684	23.0
19.699	37.0
19.714	33.0
19.729	27.0
19.743	24.0
19.758	22.0
19.773	21.0
19.788	16.0
19.803	11.0
19.817	13.0
19.832	10.0
19.847	20.0
19.862	12.0
19.877	20.0
19.891	12.0
19.906	12.0
19.921	10.0
19.936	12.0
19.951	13.0
19.965	17.0
19.98	9.0
19.995	6.0
20.01	10.0
20.025	8.0
20.039	10.0
20.054	10.0
20.069	25.0
20.084	9.0
20.099	7.0
20.113	10.0
20.128	9.0
20.143	8.0
20.158	8.0
20.173	7.0
20.187	14.0
20.202	13.0
20.217	6.0
20.232	8.0
20.246	16.0
20.261	7.0
20.276	13.0
20.291	12.0
20.306	12.0
20.32	9.0
20.335	7.0
20.35	8.0
20.365	12.0
20.38	11.0
20.394	12.0
20.409	8.0
20.424	13.0
20.439	8.0
20.453	14.0
20.468	12.0
20.483	9.0
20.498	15.0
20.513	12.0
20.527	16.0
20.542	10.0
20.557	10.0
20.572	10.0
20.586	15.0
20.601	17.0
20.616	9.0
20.631	11.0
20.646	8.0
20.66	8.0
20.675	12.0
20.69	6.0
20.705	9.0
20.719	11.0
20.734	11.0
20.749	10.0
20.764	14.0
20.779	11.0
20.793	9.0
20.808	11.0
20.823	6.0
20.838	6.0
20.853	9.0
20.867	15.0
20.882	7.0
20.897	11.0
20.912	11.0
20.926	8.0
20.941	13.0
20.956	12.0
20.971	9.0
20.986	12.0
21.0	12.0
21.015	13.0
21.03	8.0
21.045	3.0
21.06	14.0
21.074	13.0
21.089	9.0
21.104	6.0
21.119	15.0
21.134	7.0
21.148	17.0
21.163	8.0
21.178	9.0
21.193	14.0
21.208	9.0
21.222	11.0
21.237	7.0
21.252	12.0
21.267	9.0
21.282	12.0
21.296	15.0
21.311	12.0
21.326	10.0
21.341	9.0
21.356	14.0
21.37	10.0
21.385	14.0
21.4	7.0
21.415	20.0
21.43	15.0
21.444	16.0
21.459	10.0
21.474	12.0
21.489	17.0
21.504	10.0
21.519	13.0
21.533	19.0
21.548	14.0
21.563	16.0
21.578	10.0
21.593	11.0
21.608	11.0
21.622	12.0
21.637	13.0
21.652	26.0
21.667	15.0
21.682	24.0
21.697	23.0
21.712	16.0
21.726	22.0
21.741	26.0
21.756	18.0
21.771	33.0
21.786	27.0
21.801	29.0
21.816	36.0
21.83	52.0
21.845	43.0
21.86	46.0
21.875	45.0
21.89	65.0
21.905	71.0
21.92	69.0
21.935	77.0
21.949	63.0
21.964	69.0
21.979	88.0
21.994	53.0
22.009	56.0
22.024	52.0
22.039	45.0
22.054	52.0
22.069	41.0
22.083	53.0
22.098	37.0
22.113	37.0
22.128	34.0
22.143	31.0
22.158	18.0
22.173	19.0
22.188	24.0
22.203	18.0
22.218	16.0
22.233	12.0
22.248	19.0
22.262	10.0
22.277	17.0
22.292	9.0
22.307	18.0
22.322	15.0
22.337	12.0
22.352	11.0
22.367	15.0
22.382	12.0
22.397	9.0
22.412	11.0
22.427	10.0
22.442	17.0
22.457	10.0
22.472	6.0
22.487	7.0
22.502	7.0
22.516	11.0
22.531	7.0
22.546	10.0
22.561	8.0
22.576	13.0
22.591	9.0
22.606	12.0
22.621	10.0
22.636	11.0
22.651	12.0
22.666	11.0
22.681	8.0
22.696	10.0
22.711	16.0
22.726	14.0
22.741	10.0
22.756	8.0
22.771	15.0
22.786	13.0
22.801	12.0
22.816	15.0
22.831	15.0
22.846	17.0
22.861	12.0
22.876	7.0
22.891	16.0
22.906	12.0
22.92	6.0
22.935	8.0
22.95	10.0
22.965	12.0
22.98	12.0
22.995	10.0
23.01	10.0
23.025	12.0
23.04	8.0
23.055	14.0
23.07	16.0
23.085	10.0
23.1	8.0
23.115	8.0
23.13	9.0
23.145	14.0
23.16	12.0
23.175	8.0
23.19	7.0
23.205	13.0
23.22	8.0
23.235	6.0
23.25	13.0
23.265	15.0
23.28	3.0
23.295	7.0
23.31	11.0
23.325	6.0
23.34	12.0
23.355	8.0
23.37	12.0
23.384	6.0
23.399	10.0
23.414	9.0
23.429	10.0
23.444	11.0
23.459	15.0
23.474	7.0
23.489	11.0
23.504	11.0
23.519	12.0
23.534	12.0
23.549	12.0
23.564	10.0
23.579	10.0
23.594	9.0
23.609	10.0
23.624	8.0
23.639	9.0
23.654	15.0
23.668	10.0
23.683	6.0
23.698	15.0
23.713	10.0
23.728	7.0
23.743	11.0
23.758	17.0
23.773	10.0
23.788	11.0
23.803	14.0
23.818	11.0
23.833	13.0
23.848	10.0
23.862	13.0
23.877	18.0
23.892	17.0
23.907	17.0
23.922	23.0
23.937	22.0
23.952	17.0
23.967	32.0
23.982	29.0
23.997	35.0
24.011	43.0
24.026	53.0
24.041	56.0
24.056	50.0
24.071	56.0
24.086	51.0
24.101	35.0
24.116	47.0
24.131	51.0
24.145	45.0
24.16	43.0
24.175	36.0
24.19	42.0
24.205	26.0
24.22	32.0
24.235	21.0
24.249	44.0
24.264	25.0
24.279	19.0
24.294	21.0
24.309	19.0
24.324	19.0
24.338	14.0
24.353	15.0
24.368	11.0
24.383	13.0
24.398	20.0
24.413	13.0
24.428	12.0
24.442	10.0
24.457	6.0
24.472	11.0
24.487	11.0
24.502	11.0
24.516	13.0
24.531	15.0
24.546	8.0
24.561	9.0
24.576	11.0
24.591	6.0
24.605	11.0
24.62	9.0
24.635	12.0
24.65	13.0
24.665	13.0
24.679	10.0
24.694	9.0
24.709	11.0
24.724	14.0
24.739	7.0
24.753	8.0
24.768	5.0
24.783	15.0
24.798	7.0
24.813	13.0
24.827	15.0
24.842	17.0
24.857	9.0
24.872	9.0
24.886	7.0
24.901	12.0
24.916	9.0
24.931	9.0
24.946	7.0
24.96	7.0
24.975	11.0
24.99	9.0
25.005	11.0
25.019	8.0
25.034	6.0
25.049	12.0
25.064	10.0
25.078	9.0
25.093	15.0
25.108	8.0
25.123	6.0
25.138	7.0
25.152	11.0
25.167	13.0
25.182	10.0
25.197	9.0
25.211	11.0
25.226	7.0
25.241	5.0
25.256	8.0
25.27	11.0
25.285	4.0
25.3	9.0
25.315	8.0
25.329	13.0
25.344	9.0
25.359	9.0
25.374	11.0
25.388	10.0
25.403	10.0
25.418	10.0
25.433	6.0
25.447	6.0
25.462	11.0
25.477	5.0
25.492	7.0
25.506	11.0
25.521	12.0
25.536	12.0
25.55	5.0
25.565	12.0
25.58	7.0
25.595	15.0
25.609	9.0
25.624	11.0
25.639	6.0
25.654	6.0
25.668	10.0
25.683	11.0
25.698	12.0
25.713	13.0
25.727	10.0
25.742	10.0
25.757	4.0
25.772	12.0
25.786	13.0
25.801	8.0
25.816	8.0
25.83	9.0
25.845	6.0
25.86	8.0
25.875	9.0
25.889	9.0
25.904	9.0
25.919	9.0
25.934	7.0
25.948	11.0
25.963	8.0
25.978	11.0
25.992	11.0
26.007	7.0
26.022	9.0
26.037	9.0
26.051	9.0
26.066	8.0
26.081	7.0
26.096	10.0
26.11	15.0
26.125	9.0
26.14	9.0
26.155	10.0
26.169	12.0
26.184	8.0
26.199	9.0
26.213	8.0
26.228	8.0
26.243	10.0
26.258	12.0
26.272	10.0
26.287	9.0
26.302	8.0
26.317	10.0
26.331	13.0
26.346	11.0
26.361	9.0
26.376	10.0
26.39	10.0
26.405	12.0
26.42	7.0
26.434	9.0
26.449	8.0
26.464	10.0
26.479	8.0
26.493	8.0
26.508	6.0
26.523	12.0
26.538	13.0
26.552	12.0
26.567	4.0
26.582	9.0
26.597	16.0
26.611	6.0
26.626	7.0
26.641	4.0
26.656	9.0
26.67	12.0
26.685	5.0
26.7	9.0
26.715	7.0
26.729	9.0
26.744	17.0
26.759	11.0
26.773	11.0
26.788	10.0
26.803	9.0
26.818	8.0
26.832	11.0
26.847	13.0
26.862	10.0
26.877	11.0
26.891	9.0
26.906	7.0
26.921	10.0
26.936	6.0
26.95	10.0
26.965	7.0
26.98	9.0
26.995	11.0
27.01	12.0
27.024	13.0
27.039	8.0
27.054	8.0
27.069	7.0
27.083	8.0
27.098	8.0
27.113	8.0
27.128	7.0
27.142	7.0
27.157	10.0
27.172	5.0
27.187	12.0
27.201	2.0
27.216	6.0
27.231	9.0
27.246	9.0
27.261	10.0
27.275	12.0
27.29	12.0
27.305	14.0
27.32	10.0
27.334	6.0
27.349	9.0
27.364	5.0
27.379	11.0
27.394	15.0
27.408	12.0
27.423	9.0
27.438	10.0
27.453	6.0
27.467	8.0
27.482	6.0
27.497	14.0
27.512	5.0
27.527	9.0
27.541	13.0
27.556	7.0
27.571	8.0
27.586	10.0
27.601	13.0
27.615	15.0
27.63	6.0
27.645	10.0
27.66	8.0
27.675	14.0
27.689	6.0
27.704	17.0
27.719	11.0
27.734	12.0
27.749	15.0
27.763	22.0
27.778	23.0
27.793	16.0
27.808	20.0
27.823	22.0
27.838	24.0
27.852	20.0
27.867	20.0
27.882	27.0
27.897	23.0
27.912	15.0
27.926	18.0
27.941	18.0
27.956	22.0
27.971	20.0
27.986	19.0
28.001	19.0
28.015	19.0
28.03	17.0
28.045	20.0
28.06	18.0
28.075	17.0
28.09	16.0
28.105	18.0
28.119	5.0
28.134	8.0
28.149	7.0
28.164	8.0
28.179	7.0
28.194	8.0
28.208	10.0
28.223	15.0
28.238	12.0
28.253	8.0
28.268	10.0
28.283	12.0
28.298	9.0
28.312	8.0
28.327	6.0
28.342	9.0
28.357	11.0
28.372	11.0
28.387	11.0
28.402	12.0
28.417	5.0
28.431	16.0
28.446	11.0
28.461	4.0
28.476	6.0
28.491	10.0
28.506	11.0
28.521	8.0
28.536	6.0
28.55	15.0
28.565	12.0
28.58	11.0
28.595	10.0
28.61	8.0
28.625	10.0
28.64	11.0
28.655	11.0
28.669	7.0
28.684	10.0
28.699	17.0
28.714	10.0
28.729	13.0
28.744	12.0
28.759	13.0
28.774	13.0
28.788	6.0
28.803	11.0
28.818	18.0
28.833	5.0
28.848	14.0
28.863	9.0
28.878	14.0
28.893	10.0
28.908	15.0
28.922	6.0
28.937	9.0
28.952	7.0
28.967	22.0
28.982	10.0
28.997	11.0
29.012	13.0
29.027	9.0
29.041	9.0
29.056	9.0
29.071	10.0
29.086	16.0
29.101	10.0
29.116	10.0
29.131	12.0
29.146	11.0
29.16	14.0
29.175	7.0
29.19	8.0
29.205	12.0
29.22	10.0
29.235	9.0
29.25	8.0
29.265	6.0
29.279	10.0
29.294	10.0
29.309	9.0
29.324	13.0
29.339	8.0
29.354	8.0
29.369	14.0
29.384	14.0
29.398	13.0
29.413	14.0
29.428	17.0
29.443	21.0
29.458	20.0
29.473	19.0
29.488	25.0
29.502	30.0
29.517	33.0
29.532	36.0
29.547	44.0
29.562	36.0
29.577	33.0
29.592	46.0
29.606	43.0
29.621	55.0
29.636	40.0
29.651	52.0
29.666	40.0
29.681	33.0
29.695	38.0
29.71	28.0
29.725	34.0
29.74	36.0
29.755	35.0
29.77	34.0
29.784	30.0
29.799	31.0
29.814	27.0
29.829	21.0
29.844	19.0
29.859	21.0
29.873	21.0
29.888	13.0
29.903	18.0
29.918	16.0
29.933	11.0
29.947	16.0
29.962	16.0
29.977	11.0
29.992	12.0
30.007	9.0
30.021	6.0
30.036	12.0
30.051	12.0
30.066	8.0
30.081	10.0
30.095	18.0
30.11	12.0
30.125	17.0
30.14	9.0
30.155	8.0
30.169	5.0
30.184	17.0
30.199	9.0
30.214	12.0
30.228	9.0
30.243	3.0
30.258	13.0
30.273	13.0
30.288	9.0
30.302	12.0
30.317	5.0
30.332	14.0
30.347	10.0
30.361	15.0
30.376	13.0
30.391	13.0
30.406	14.0
30.42	10.0
30.435	7.0
30.45	17.0
30.465	13.0
30.479	9.0
30.494	15.0
30.509	9.0
30.524	4.0
30.538	9.0
30.553	11.0
30.568	10.0
30.583	12.0
30.597	9.0
30.612	9.0
30.627	11.0
30.641	8.0
30.656	10.0
30.671	14.0
30.686	6.0
30.7	8.0
30.715	7.0
30.73	6.0
30.745	14.0
30.759	10.0
30.774	13.0
30.789	9.0
30.803	6.0
30.818	9.0
30.833	11.0
30.848	13.0
30.862	12.0
30.877	9.0
30.892	20.0
30.906	15.0
30.921	12.0
30.936	10.0
30.951	15.0
30.965	7.0
30.98	8.0
30.995	10.0
31.009	13.0
31.024	15.0
31.039	13.0
31.053	11.0
31.068	14.0
31.083	13.0
31.098	15.0
31.112	19.0
31.127	16.0
31.142	19.0
31.156	20.0
31.171	19.0
31.186	32.0
31.2	28.0
31.215	30.0
31.23	28.0
31.245	33.0
31.259	29.0
31.274	38.0
31.289	33.0
31.303	30.0
31.318	28.0
31.333	31.0
31.347	27.0
31.362	16.0
31.377	33.0
31.392	28.0
31.406	30.0
31.421	24.0
31.436	18.0
31.45	17.0
31.465	25.0
31.48	22.0
31.494	17.0
31.509	19.0
31.524	20.0
31.538	25.0
31.553	11.0
31.568	15.0
31.583	18.0
31.597	15.0
31.612	8.0
31.627	10.0
31.641	10.0
31.656	13.0
31.671	12.0
31.685	4.0
31.7	11.0
31.715	10.0
31.729	14.0
31.744	13.0
31.759	18.0
31.774	12.0
31.788	12.0
31.803	15.0
31.818	8.0
31.832	9.0
31.847	9.0
31.862	11.0
31.876	8.0
31.891	7.0
31.906	10.0
31.92	11.0
31.935	13.0
31.95	13.0
31.965	5.0
31.979	12.0
31.994	4.0
32.009	7.0
32.023	10.0
32.038	9.0
32.053	8.0
32.067	9.0
32.082	10.0
32.097	8.0
32.112	10.0
32.126	11.0
32.141	9.0
32.156	7.0
32.17	3.0
32.185	7.0
32.2	10.0
32.214	12.0
32.229	11.0
32.244	9.0
32.259	18.0
32.273	11.0
32.288	17.0
32.303	12.0
32.317	13.0
32.332	9.0
32.347	13.0
32.362	7.0
32.376	14.0
32.391	8.0
32.406	14.0
32.42	10.0
32.435	11.0
32.45	15.0
32.465	6.0
32.479	10.0
32.494	8.0
32.509	12.0
32.523	9.0
32.538	11.0
32.553	7.0
32.568	15.0
32.582	7.0
32.597	8.0
32.612	8.0
32.627	12.0
32.641	12.0
32.656	12.0
32.671	11.0
32.685	14.0
32.7	16.0
32.715	12.0
32.73	14.0
32.744	22.0
32.759	28.0
32.774	27.0
32.788	25.0
32.803	21.0
32.818	25.0
32.833	27.0
32.847	27.0
32.862	13.0
32.877	23.0
32.892	31.0
32.906	18.0
32.921	16.0
32.936	22.0
32.951	21.0
32.965	19.0
32.98	23.0
32.995	15.0
33.009	25.0
33.024	20.0
33.039	14.0
33.054	15.0
33.068	15.0
33.083	17.0
33.098	19.0
33.113	14.0
33.127	13.0
33.142	13.0
33.157	13.0
33.172	7.0
33.186	6.0
33.201	7.0
33.216	18.0
33.231	9.0
33.245	11.0
33.26	8.0
33.275	7.0
33.29	6.0
33.304	8.0
33.319	11.0
33.334	8.0
33.349	9.0
33.363	12.0
33.378	8.0
33.393	6.0
33.408	8.0
33.422	13.0
33.437	6.0
33.452	8.0
33.467	11.0
33.481	12.0
33.496	6.0
33.511	15.0
33.526	11.0
33.54	8.0
33.555	13.0
33.57	8.0
33.585	5.0
33.599	9.0
33.614	10.0
33.629	7.0
33.644	11.0
33.658	12.0
33.673	6.0
33.688	4.0
33.703	11.0
33.718	9.0
33.732	13.0
33.747	5.0
33.762	7.0
33.777	8.0
33.791	9.0
33.806	12.0
33.821	12.0
33.836	13.0
33.85	14.0
33.865	12.0
33.88	5.0
33.895	6.0
33.91	6.0
33.924	6.0
33.939	4.0
33.954	13.0
33.969	10.0
33.983	10.0
33.998	5.0
34.013	12.0
34.028	5.0
34.042	11.0
34.057	9.0
34.072	8.0
34.087	11.0
34.102	8.0
34.116	12.0
34.131	11.0
34.146	12.0
34.161	12.0
34.175	6.0
34.19	11.0
34.205	15.0
34.22	14.0
34.235	9.0
34.249	16.0
34.264	11.0
34.279	16.0
34.294	10.0
34.309	12.0
34.323	12.0
34.338	15.0
34.353	6.0
34.368	14.0
34.382	10.0
34.397	13.0
34.412	7.0
34.427	9.0
34.442	7.0
34.456	12.0
34.471	16.0
34.486	10.0
34.501	7.0
34.516	15.0
34.53	6.0
34.545	9.0
34.56	7.0
34.575	9.0
34.59	9.0
34.604	8.0
34.619	12.0
34.634	14.0
34.649	10.0
34.664	7.0
34.678	11.0
34.693	13.0
34.708	6.0
34.723	13.0
34.738	9.0
34.752	4.0
34.767	12.0
34.782	11.0
34.797	13.0
34.812	8.0
34.826	7.0
34.841	6.0
34.856	11.0
34.871	10.0
34.886	14.0
34.9	8.0
34.915	8.0
34.93	12.0
34.945	6.0
34.96	8.0
34.974	12.0
34.989	11.0
35.004	7.0
35.019	10.0
35.034	9.0
35.048	16.0
35.063	9.0
35.078	9.0
35.093	9.0
35.108	10.0
35.122	10.0
35.137	8.0
35.152	13.0
35.167	10.0
35.182	5.0
35.196	13.0
35.211	13.0
35.226	12.0
35.241	8.0
35.256	8.0
35.27	5.0
35.285	6.0
35.3	10.0
35.315	10.0
35.33	7.0
35.344	4.0
35.359	5.0
35.374	11.0
35.389	5.0
35.404	6.0
35.418	10.0
35.433	8.0
35.448	7.0
35.463	7.0
35.478	11.0
35.493	13.0
35.507	9.0
35.522	8.0
35.537	10.0
35.552	7.0
35.567	8.0
35.581	15.0
35.596	7.0
35.611	15.0
35.626	10.0
35.641	8.0
35.655	10.0
35.67	8.0
35.685	15.0
35.7	10.0
35.715	13.0
35.729	12.0
35.744	18.0
35.759	21.0
35.774	13.0
35.789	26.0
35.804	17.0
35.818	15.0
35.833	17.0
35.848	9.0
35.863	17.0
35.878	16.0
35.892	11.0
35.907	15.0
35.922	9.0
35.937	14.0
35.952	16.0
35.966	13.0
35.981	17.0
35.996	18.0
36.011	18.0
36.026	7.0
36.04	12.0
36.055	10.0
36.07	11.0
36.085	11.0
36.1	11.0
36.114	6.0
36.129	10.0
36.144	13.0
36.159	9.0
36.174	8.0
36.189	7.0
36.203	15.0
36.218	13.0
36.233	9.0
36.248	8.0
36.263	10.0
36.277	10.0
36.292	10.0
36.307	4.0
36.322	9.0
36.337	6.0
36.351	8.0
36.366	9.0
36.381	7.0
36.396	5.0
36.411	6.0
36.426	6.0
36.44	7.0
36.455	9.0
36.47	8.0
36.485	12.0
36.5	6.0
36.514	4.0
36.529	7.0
36.544	8.0
36.559	9.0
36.574	4.0
36.589	6.0
36.603	7.0
36.618	10.0
36.633	9.0
36.648	8.0
36.663	9.0
36.677	12.0
36.692	5.0
36.707	15.0
36.722	6.0
36.737	10.0
36.752	9.0
36.766	2.0
36.781	5.0
36.796	6.0
36.811	8.0
36.826	8.0
36.841	6.0
36.855	10.0
36.87	9.0
36.885	8.0
36.9	6.0
36.915	9.0
36.93	5.0
36.944	14.0
36.959	7.0
36.974	9.0
36.989	11.0
37.004	9.0
37.019	11.0
37.033	15.0
37.048	18.0
37.063	16.0
37.078	14.0
37.093	25.0
37.108	22.0
37.123	33.0
37.137	28.0
37.152	21.0
37.167	25.0
37.182	30.0
37.197	34.0
37.212	21.0
37.226	26.0
37.241	24.0
37.256	14.0
37.271	24.0
37.286	18.0
37.301	20.0
37.316	15.0
37.331	21.0
37.345	24.0
37.36	25.0
37.375	18.0
37.39	14.0
37.405	10.0
37.42	23.0
37.435	10.0
37.45	25.0
37.464	12.0
37.479	17.0
37.494	13.0
37.509	7.0
37.524	8.0
37.539	10.0
37.554	9.0
37.569	5.0
37.583	9.0
37.598	8.0
37.613	8.0
37.628	9.0
37.643	5.0
37.658	7.0
37.673	3.0
37.688	6.0
37.703	11.0
37.718	3.0
37.733	9.0
37.747	12.0
37.762	5.0
37.777	5.0
37.792	11.0
37.807	9.0
37.822	4.0
37.837	4.0
37.852	4.0
37.867	5.0
37.882	3.0
37.897	5.0
37.912	6.0
37.927	11.0
37.941	8.0
37.956	3.0
37.971	5.0
37.986	3.0
38.001	7.0
38.016	6.0
38.031	3.0
38.046	9.0
38.061	6.0
38.076	3.0
38.091	6.0
38.106	6.0
38.121	12.0
38.136	7.0
38.151	8.0
38.166	4.0
38.181	5.0
38.196	8.0
38.211	16.0
38.226	7.0
38.241	4.0
38.256	6.0
38.271	4.0
38.285	17.0
38.3	6.0
38.315	7.0
38.33	7.0
38.345	14.0
38.36	7.0
38.375	8.0
38.39	8.0
38.405	9.0
38.42	6.0
38.435	7.0
38.45	8.0
38.465	6.0
38.48	5.0
38.495	4.0
38.51	5.0
38.525	10.0
38.54	7.0
38.555	6.0
38.57	8.0
38.585	7.0
38.6	4.0
38.615	6.0
38.63	6.0
38.645	2.0
38.66	6.0
38.675	11.0
38.69	5.0
38.705	7.0
38.72	6.0
38.735	5.0
38.75	8.0
38.765	5.0
38.78	9.0
38.795	14.0
38.81	7.0
38.825	4.0
38.84	3.0
38.855	4.0
38.87	8.0
38.885	3.0
38.9	8.0
38.915	4.0
38.93	10.0
38.945	5.0
38.96	4.0
38.975	10.0
38.99	15.0
39.005	7.0
39.02	4.0
39.035	4.0
39.05	3.0
39.065	7.0
39.08	4.0
39.095	7.0
39.11	7.0
39.125	9.0
39.14	14.0
39.155	4.0
39.17	3.0
39.185	4.0
39.2	4.0
39.215	5.0
39.23	2.0
39.245	6.0
39.26	6.0
39.275	5.0
39.29	4.0
39.305	4.0
39.32	12.0
39.335	10.0
39.35	2.0
39.365	3.0
39.38	11.0
39.395	5.0
39.409	1.0
39.424	2.0
39.439	7.0
39.454	9.0
39.469	2.0
39.484	4.0
39.499	3.0
39.514	2.0
39.529	1.0
39.544	2.0
39.559	4.0
39.574	2.0
39.589	7.0
39.604	7.0
39.619	4.0
39.634	7.0
39.649	5.0
39.664	5.0
39.678	5.0
39.693	6.0
39.708	3.0
39.723	4.0
39.738	8.0
39.753	4.0
39.768	5.0
39.783	12.0
39.798	7.0
39.813	6.0
39.827	10.0
39.842	7.0
39.857	3.0
39.872	8.0
39.887	10.0
39.902	7.0
39.917	9.0
39.932	5.0
39.947	7.0
39.961	5.0
39.976	7.0
39.991	2.0
40.006	6.0
40.021	10.0
40.036	14.0
40.051	4.0
40.065	10.0
40.08	7.0
40.095	10.0
40.11	6.0
40.125	3.0
40.14	6.0
40.154	7.0
40.169	10.0
40.184	8.0
40.199	4.0
40.214	7.0
40.228	3.0
40.243	3.0
40.258	8.0
40.273	5.0
40.288	10.0
40.302	3.0
40.317	8.0
40.332	2.0
40.347	10.0
40.362	7.0
40.376	5.0
40.391	5.0
40.406	5.0
40.421	3.0
40.436	8.0
40.45	2.0
40.465	7.0
40.48	5.0
40.495	4.0
40.509	4.0
40.524	5.0
40.539	2.0
40.554	6.0
40.568	7.0
40.583	3.0
40.598	5.0
40.613	5.0
40.627	7.0
40.642	7.0
40.657	6.0
40.672	3.0
40.686	4.0
40.701	3.0
40.716	3.0
40.731	8.0
40.745	7.0
40.76	4.0
40.775	6.0
40.79	8.0
40.804	5.0
40.819	8.0
40.834	6.0
40.849	8.0
40.863	9.0
40.878	7.0
40.893	7.0
40.907	5.0
40.922	5.0
40.937	4.0
40.952	8.0
40.966	5.0
40.981	9.0
40.996	13.0
41.011	6.0
41.025	7.0
41.04	10.0
41.055	5.0
41.069	12.0
41.084	12.0
41.099	18.0
41.114	20.0
41.128	19.0
41.143	14.0
41.158	23.0
41.173	18.0
41.187	21.0
41.202	18.0
41.217	16.0
41.231	14.0
41.246	13.0
41.261	13.0
41.276	11.0
41.29	7.0
41.305	14.0
41.32	15.0
41.335	9.0
41.349	14.0
41.364	14.0
41.379	13.0
41.393	10.0
41.408	9.0
41.423	19.0
41.438	16.0
41.452	10.0
41.467	11.0
41.482	11.0
41.497	10.0
41.511	9.0
41.526	6.0
41.541	8.0
41.556	7.0
41.57	5.0
41.585	9.0
41.6	8.0
41.615	7.0
41.629	4.0
41.644	4.0
41.659	8.0
41.674	6.0
41.688	4.0
41.703	4.0
41.718	3.0
41.733	7.0
41.747	4.0
41.762	5.0
41.777	7.0
41.792	8.0
41.806	3.0
41.821	3.0
41.836	3.0
41.851	3.0
41.866	5.0
41.88	7.0
41.895	3.0
41.91	5.0
41.925	7.0
41.939	4.0
41.954	9.0
41.969	4.0
41.984	2.0
41.999	8.0
42.013	6.0
42.028	9.0
42.043	7.0
42.058	4.0
42.073	4.0
42.088	2.0
42.102	7.0
42.117	6.0
42.132	6.0
42.147	6.0
42.162	6.0
42.176	7.0
42.191	8.0
42.206	6.0
42.221	7.0
42.236	4.0
42.251	8.0
42.266	4.0
42.28	9.0
42.295	18.0
42.31	12.0
42.325	9.0
42.34	14.0
42.355	25.0
42.369	14.0
42.384	16.0
42.399	14.0
42.414	16.0
42.429	14.0
42.444	16.0
42.459	5.0
42.474	14.0
42.488	12.0
42.503	12.0
42.518	5.0
42.533	12.0
42.548	10.0
42.563	5.0
42.578	8.0
42.593	7.0
42.608	12.0
42.622	11.0
42.637	8.0
42.652	6.0
42.667	14.0
42.682	12.0
42.697	7.0
42.712	10.0
42.727	5.0
42.742	14.0
42.757	9.0
42.772	1.0
42.786	7.0
42.801	7.0
42.816	5.0
42.831	7.0
42.846	8.0
42.861	12.0
42.876	6.0
42.891	7.0
42.906	9.0
42.921	8.0
42.936	4.0
42.951	5.0
42.966	5.0
42.981	3.0
42.996	8.0
43.011	4.0
43.025	6.0
43.04	7.0
43.055	6.0
43.07	3.0
43.085	6.0
43.1	8.0
43.115	14.0
43.13	5.0
43.145	8.0
43.16	5.0
43.175	9.0
43.19	5.0
43.205	5.0
43.22	4.0
43.235	5.0
43.25	4.0
43.265	9.0
43.28	2.0
43.295	6.0
43.31	5.0
43.325	5.0
43.34	5.0
43.355	5.0
43.37	4.0
43.385	5.0
43.4	0.0
43.415	7.0
43.43	4.0
43.445	7.0
43.46	5.0
43.475	6.0
43.49	8.0
43.505	5.0
43.52	5.0
43.535	12.0
43.55	5.0
43.565	9.0
43.58	11.0
43.595	12.0
43.61	8.0
43.625	9.0
43.64	6.0
43.655	7.0
43.67	8.0
43.685	7.0
43.7	6.0
43.715	13.0
43.73	5.0
43.745	12.0
43.76	8.0
43.775	7.0
43.79	7.0
43.805	3.0
43.82	4.0
43.835	6.0
43.85	8.0
43.865	5.0
43.88	8.0
43.895	4.0
43.91	9.0
43.925	12.0
43.94	5.0
43.955	2.0
43.97	5.0
43.985	5.0
44.0	2.0
44.015	3.0
44.03	5.0
44.045	5.0
44.061	3.0
44.076	6.0
44.091	10.0
44.106	6.0
44.121	5.0
44.136	6.0
44.151	4.0
44.166	4.0
44.181	5.0
44.196	4.0
44.211	7.0
44.226	6.0
44.241	4.0
44.256	6.0
44.271	5.0
44.286	5.0
44.301	4.0
44.316	4.0
44.331	4.0
44.346	6.0
44.361	3.0
44.377	3.0
44.392	5.0
44.407	6.0
44.422	5.0
44.437	10.0
44.452	7.0
44.467	6.0
44.482	6.0
44.497	3.0
44.512	5.0
44.527	5.0
44.542	5.0
44.557	6.0
44.572	5.0
44.587	5.0
44.602	6.0
44.617	5.0
44.632	8.0
44.647	7.0
44.663	3.0
44.678	2.0
44.693	6.0
44.708	5.0
44.723	6.0
44.738	10.0
44.753	9.0
44.768	8.0
44.783	10.0
44.798	10.0
44.813	13.0
44.828	8.0
44.843	13.0
44.858	11.0
44.873	5.0
44.888	8.0
44.903	1.0
44.918	6.0
44.933	8.0
44.948	6.0
44.964	3.0
44.979	6.0
44.994	6.0
45.009	13.0
45.024	9.0
45.039	11.0
45.054	5.0
45.069	4.0
45.084	11.0
45.099	5.0
45.114	3.0
45.129	3.0
45.144	5.0
45.159	4.0
45.174	4.0
45.189	7.0
45.204	6.0
45.219	8.0
45.234	6.0
45.249	4.0
45.264	7.0
45.279	4.0
45.294	3.0
45.309	8.0
45.324	3.0
45.339	4.0
45.354	8.0
45.369	5.0
45.384	8.0
45.399	4.0
45.414	6.0
45.429	6.0
45.444	7.0
45.459	8.0
45.474	2.0
45.489	2.0
45.504	0.0
45.519	4.0
45.534	6.0
45.549	4.0
45.564	8.0
45.579	8.0
45.594	3.0
45.609	3.0
45.624	10.0
45.639	6.0
45.654	7.0
45.669	9.0
45.684	6.0
45.699	8.0
45.714	3.0
45.729	7.0
45.744	5.0
45.759	6.0
45.774	6.0
45.789	8.0
45.804	4.0
45.819	6.0
45.834	3.0
45.849	5.0
45.864	12.0
45.879	9.0
45.894	8.0
45.909	12.0
45.924	9.0
45.939	19.0
45.954	6.0
45.969	9.0
45.984	10.0
45.998	15.0
46.013	11.0
46.028	16.0
46.043	13.0
46.058	11.0
46.073	6.0
46.088	15.0
46.103	12.0
46.118	10.0
46.133	10.0
46.148	6.0
46.163	9.0
46.178	19.0
46.192	9.0
46.207	10.0
46.222	9.0
46.237	10.0
46.252	8.0
46.267	14.0
46.282	13.0
46.297	13.0
46.312	11.0
46.327	15.0
46.341	9.0
46.356	8.0
46.371	6.0
46.386	2.0
46.401	8.0
46.416	5.0
46.431	6.0
46.446	5.0
46.46	8.0
46.475	4.0
46.49	2.0
46.505	4.0
46.52	6.0
46.535	3.0
46.55	5.0
46.564	7.0
46.579	6.0
46.594	3.0
46.609	5.0
46.624	2.0
46.639	8.0
46.654	4.0
46.668	4.0
46.683	9.0
46.698	6.0
46.713	4.0
46.728	6.0
46.743	2.0
46.758	2.0
46.772	7.0
46.787	5.0
46.802	2.0
46.817	2.0
46.832	4.0
46.847	9.0
46.861	4.0
46.876	1.0
46.891	6.0
46.906	5.0
46.921	6.0
46.936	5.0
46.95	3.0
46.965	8.0
46.98	7.0
46.995	5.0
47.01	3.0
47.025	7.0
47.039	4.0
47.054	8.0
47.069	3.0
47.084	8.0
47.099	9.0
47.113	7.0
47.128	7.0
47.143	8.0
47.158	9.0
47.173	4.0
47.188	8.0
47.202	10.0
47.217	3.0
47.232	6.0
47.247	5.0
47.262	5.0
47.277	3.0
47.291	10.0
47.306	5.0
47.321	6.0
47.336	7.0
47.351	5.0
47.365	9.0
47.38	2.0
47.395	4.0
47.41	3.0
47.425	17.0
47.44	3.0
47.454	5.0
47.469	5.0
47.484	7.0
47.499	4.0
47.514	3.0
47.528	9.0
47.543	6.0
47.558	2.0
47.573	5.0
47.588	4.0
47.603	3.0
47.617	4.0
47.632	3.0
47.647	5.0
47.662	5.0
47.677	6.0
47.691	3.0
47.706	4.0
47.721	4.0
47.736	5.0
47.751	6.0
47.766	6.0
47.78	4.0
47.795	4.0
47.81	1.0
47.825	4.0
47.84	3.0
47.855	5.0
47.869	3.0
47.884	2.0
47.899	6.0
47.914	8.0
47.929	4.0
47.944	5.0
47.958	6.0
47.973	1.0
47.988	6.0
48.003	4.0
48.018	6.0
48.033	5.0
48.047	1.0
48.062	5.0
48.077	5.0
48.092	5.0
48.107	4.0
48.122	4.0
48.137	3.0
48.151	5.0
48.166	5.0
48.181	4.0
48.196	3.0
48.211	6.0
48.226	4.0
48.241	5.0
48.255	3.0
48.27	7.0
48.285	6.0
48.3	5.0
48.315	5.0
48.33	3.0
48.345	4.0
48.359	3.0
48.374	6.0
48.389	4.0
48.404	8.0
48.419	5.0
48.434	8.0
48.449	4.0
48.464	4.0
48.478	4.0
48.493	4.0
48.508	7.0
48.523	2.0
48.538	4.0
48.553	4.0
48.568	5.0
48.583	4.0
48.597	5.0
48.612	5.0
48.627	6.0
48.642	4.0
48.657	10.0
48.672	3.0
48.687	4.0
48.702	4.0
48.717	8.0
48.731	4.0
48.746	7.0
48.761	1.0
48.776	5.0
48.791	1.0
48.806	5.0
48.821	3.0
48.836	4.0
48.851	5.0
48.866	6.0
48.88	7.0
48.895	7.0
48.91	5.0
48.925	7.0
48.94	5.0
48.955	6.0
48.97	7.0
48.985	7.0
49.0	10.0
49.015	3.0
49.03	5.0
49.044	4.0
49.059	7.0
49.074	9.0
49.089	5.0
49.104	3.0
49.119	1.0
49.134	1.0
49.149	8.0
49.164	3.0
49.179	7.0
49.194	4.0
49.209	6.0
49.224	4.0
49.238	2.0
49.253	2.0
49.268	7.0
49.283	7.0
49.298	2.0
49.313	5.0
49.328	7.0
49.343	5.0
49.358	5.0
49.373	4.0
49.388	7.0
49.403	7.0
49.418	8.0
49.433	8.0
49.448	5.0
49.463	8.0
49.478	2.0
49.492	6.0
49.507	5.0
49.522	1.0
49.537	2.0
49.552	5.0
49.567	12.0
49.582	3.0
49.597	6.0
49.612	4.0
49.627	2.0
49.642	6.0
49.657	7.0
49.672	6.0
49.687	3.0
49.702	6.0
49.717	9.0
49.732	3.0
49.747	8.0
49.762	7.0
49.777	6.0
49.792	4.0
49.807	2.0
49.822	3.0
49.837	5.0
49.852	8.0
49.867	2.0
49.882	4.0
49.897	1.0
49.912	10.0
49.927	5.0
49.942	3.0
49.957	5.0
49.971	6.0
49.986	7.0
50.001	6.0
50.016	3.0
50.031	3.0
50.046	4.0
50.061	0.0
50.076	2.0
50.091	7.0
50.106	2.0
50.121	7.0
50.136	1.0
50.151	5.0
50.166	6.0
50.181	6.0
50.196	1.0
50.211	9.0
50.226	8.0
50.241	5.0
50.256	3.0
50.271	5.0
50.286	7.0
50.302	5.0
50.317	8.0
50.332	4.0
50.347	11.0
50.362	7.0
50.377	4.0
50.392	12.0
50.407	8.0
50.422	7.0
50.437	7.0
50.452	7.0
50.467	8.0
50.482	4.0
50.497	6.0
50.512	4.0
50.527	4.0
50.542	5.0
50.557	2.0
50.572	6.0
50.587	2.0
50.602	8.0
50.617	6.0
50.632	4.0
50.647	7.0
50.662	5.0
50.677	5.0
50.692	3.0
50.707	3.0
50.722	10.0
50.737	10.0
50.752	1.0
50.767	9.0
50.782	8.0
50.797	16.0
50.812	5.0
50.828	5.0
50.843	4.0
50.858	4.0
50.873	5.0
50.888	3.0
50.903	3.0
50.918	7.0
50.933	8.0
50.948	5.0
50.963	0.0
50.978	3.0
50.993	10.0
51.008	6.0
51.023	8.0
51.038	3.0
51.053	7.0
51.068	7.0
51.083	4.0
51.098	4.0
51.114	8.0
51.129	3.0
51.144	3.0
51.159	4.0
51.174	2.0
51.189	5.0
51.204	0.0
51.219	4.0
51.234	10.0
51.249	2.0
51.264	1.0
51.279	4.0
51.294	1.0
51.309	3.0
51.324	1.0
51.34	4.0
51.355	8.0
51.37	5.0
51.385	6.0
51.4	11.0
51.415	13.0
51.43	5.0
51.445	8.0
51.46	15.0
51.475	18.0
51.49	13.0
51.505	13.0
51.52	15.0
51.535	12.0
51.551	20.0
51.566	17.0
51.581	15.0
51.596	14.0
51.611	7.0
51.626	11.0
51.641	9.0
51.656	6.0
51.671	4.0
51.686	9.0
51.701	8.0
51.716	9.0
51.732	7.0
51.747	6.0
51.762	8.0
51.777	14.0
51.792	5.0
51.807	11.0
51.822	6.0
51.837	7.0
51.852	5.0
51.867	12.0
51.882	16.0
51.898	8.0
51.913	13.0
51.928	9.0
51.943	10.0
51.958	6.0
51.973	4.0
51.988	2.0
52.003	6.0
52.018	2.0
52.033	3.0
52.048	5.0
52.064	5.0
52.079	1.0
52.094	8.0
52.109	6.0
52.124	6.0
52.139	5.0
52.154	6.0
52.169	3.0
52.184	2.0
52.199	9.0
52.215	4.0
52.23	3.0
52.245	1.0
52.26	6.0
52.275	5.0
52.29	3.0
52.305	5.0
52.32	3.0
52.335	3.0
52.35	6.0
52.366	10.0
52.381	9.0
52.396	5.0
52.411	4.0
52.426	6.0
52.441	5.0
52.456	6.0
52.471	7.0
52.486	4.0
52.502	10.0
52.517	4.0
52.532	8.0
52.547	12.0
52.562	6.0
52.577	7.0
52.592	9.0
52.607	9.0
52.622	5.0
52.637	5.0
52.653	6.0
52.668	9.0
52.683	9.0
52.698	5.0
52.713	3.0
52.728	2.0
52.743	3.0
52.758	6.0
52.774	5.0
52.789	4.0
52.804	4.0
52.819	6.0
52.834	4.0
52.849	6.0
52.864	7.0
52.879	4.0
52.894	10.0
52.91	6.0
52.925	8.0
52.94	6.0
52.955	5.0
52.97	8.0
52.985	4.0
53.0	2.0
53.015	5.0
53.031	7.0
53.046	4.0
53.061	4.0
53.076	1.0
53.091	5.0
53.106	8.0
53.121	4.0
53.136	5.0
53.152	6.0
53.167	3.0
53.182	2.0
53.197	5.0
53.212	3.0
53.227	2.0
53.242	2.0
53.257	5.0
53.273	2.0
53.288	4.0
53.303	6.0
53.318	1.0
53.333	3.0
53.348	3.0
53.363	5.0
53.379	5.0
53.394	4.0
53.409	4.0
53.424	8.0
53.439	4.0
53.454	3.0
53.469	3.0
53.484	5.0
53.5	0.0
53.515	3.0
53.53	6.0
53.545	4.0
53.56	1.0
53.575	1.0
53.59	6.0
53.606	1.0
53.621	1.0
53.636	4.0
53.651	9.0
53.666	3.0
53.681	7.0
53.696	3.0
53.712	2.0
53.727	1.0
53.742	7.0
53.757	4.0
53.772	3.0
53.787	1.0
53.802	3.0
53.818	4.0
53.833	5.0
53.848	3.0
53.863	5.0
53.878	1.0
53.893	3.0
53.909	1.0
53.924	1.0
53.939	5.0
53.954	4.0
53.969	3.0
53.984	3.0
53.999	2.0
54.015	5.0
54.03	1.0
54.045	4.0
54.06	3.0
54.075	5.0
54.09	5.0
54.106	5.0
54.121	2.0
54.136	2.0
54.151	3.0
54.166	0.0
54.181	6.0
54.197	7.0
54.212	7.0
54.227	6.0
54.242	4.0
54.257	2.0
54.272	5.0
54.288	5.0
54.303	1.0
54.318	4.0
54.333	7.0
54.348	6.0
54.363	1.0
54.379	1.0
54.394	4.0
54.409	4.0
54.424	4.0
54.439	4.0
54.454	5.0
54.47	5.0
54.485	6.0
54.5	4.0
54.515	10.0
54.53	4.0
54.545	7.0
54.561	6.0
54.576	8.0
54.591	10.0
54.606	10.0
54.621	10.0
54.636	12.0
54.652	13.0
54.667	13.0
54.682	14.0
54.697	15.0
54.712	8.0
54.727	13.0
54.743	10.0
54.758	9.0
54.773	10.0
54.788	6.0
54.803	4.0
54.819	4.0
54.834	3.0
54.849	3.0
54.864	9.0
54.879	7.0
54.894	8.0
54.91	9.0
54.925	4.0
54.94	5.0
54.955	2.0
54.97	3.0
54.985	8.0
55.001	8.0
55.016	14.0
55.031	11.0
55.046	10.0
55.061	10.0
55.077	6.0
55.092	4.0
55.107	4.0
55.122	2.0
55.137	5.0
55.152	5.0
55.168	10.0
55.183	7.0
55.198	2.0
55.213	5.0
55.228	3.0
55.243	3.0
55.259	5.0
55.274	5.0
55.289	7.0
55.304	5.0
55.319	5.0
55.335	4.0
55.35	3.0
55.365	6.0
55.38	0.0
55.395	7.0
55.41	5.0
55.426	5.0
55.441	2.0
55.456	6.0
55.471	4.0
55.486	4.0
55.501	3.0
55.517	4.0
55.532	4.0
55.547	2.0
55.562	6.0
55.577	7.0
55.592	3.0
55.608	12.0
55.623	4.0
55.638	13.0
55.653	5.0
55.668	4.0
55.683	6.0
55.699	8.0
55.714	4.0
55.729	8.0
55.744	5.0
55.759	8.0
55.774	6.0
55.79	4.0
55.805	6.0
55.82	2.0
55.835	5.0
55.85	4.0
55.865	1.0
55.881	3.0
55.896	5.0
55.911	6.0
55.926	2.0
55.941	2.0
55.956	6.0
55.972	3.0
55.987	4.0
56.002	3.0
56.017	7.0
56.032	6.0
56.047	3.0
56.063	8.0
56.078	5.0
56.093	4.0
56.108	2.0
56.123	6.0
56.138	4.0
56.154	0.0
56.169	7.0
56.184	3.0
56.199	3.0
56.214	2.0
56.229	2.0
56.244	3.0
56.26	3.0
56.275	4.0
56.29	3.0
56.305	4.0
56.32	4.0
56.335	4.0
56.351	3.0
56.366	9.0
56.381	7.0
56.396	3.0
56.411	3.0
56.426	5.0
56.441	3.0
56.457	5.0
56.472	5.0
56.487	11.0
56.502	5.0
56.517	3.0
56.532	7.0
56.547	4.0
56.563	6.0
56.578	2.0
56.593	4.0
56.608	5.0
56.623	5.0
56.638	2.0
56.653	5.0
56.668	2.0
56.684	5.0
56.699	4.0
56.714	3.0
56.729	4.0
56.744	3.0
56.759	3.0
56.774	2.0
56.79	2.0
56.805	9.0
56.82	5.0
56.835	2.0
56.85	6.0
56.865	3.0
56.88	2.0
56.895	4.0
56.911	4.0
56.926	2.0
56.941	7.0
56.956	6.0
56.971	3.0
56.986	5.0
57.001	4.0
57.016	2.0
57.031	3.0
57.047	8.0
57.062	6.0
57.077	2.0
57.092	5.0
57.107	4.0
57.122	4.0
57.137	2.0
57.152	4.0
57.167	8.0
57.183	3.0
57.198	11.0
57.213	2.0
57.228	4.0
57.243	4.0
57.258	4.0
57.273	4.0
57.288	2.0
57.303	1.0
57.318	2.0
57.334	2.0
57.349	3.0
57.364	6.0
57.379	3.0
57.394	4.0
57.409	4.0
57.424	4.0
57.439	7.0
57.454	2.0
57.469	2.0
57.484	4.0
57.5	6.0
57.515	5.0
57.53	4.0
57.545	2.0
57.56	9.0
57.575	4.0
57.59	2.0
57.605	3.0
57.62	8.0
57.635	5.0
57.65	11.0
57.665	4.0
57.68	7.0
57.696	3.0
57.711	6.0
57.726	4.0
57.741	5.0
57.756	2.0
57.771	5.0
57.786	11.0
57.801	4.0
57.816	2.0
57.831	2.0
57.846	6.0
57.861	2.0
57.876	5.0
57.891	4.0
57.906	10.0
57.921	2.0
57.937	6.0
57.952	4.0
57.967	3.0
57.982	3.0
57.997	5.0
58.012	1.0
58.027	3.0
58.042	1.0
58.057	8.0
58.072	7.0
58.087	6.0
58.102	3.0
58.117	1.0
58.132	3.0
58.147	3.0
58.162	3.0
58.177	4.0
58.192	3.0
58.207	1.0
58.222	4.0
58.237	3.0
58.252	1.0
58.267	3.0
58.282	6.0
58.297	3.0
58.312	2.0
58.327	4.0
58.342	5.0
58.357	3.0
58.372	4.0
58.387	6.0
58.402	7.0
58.418	6.0
58.433	7.0
58.448	4.0
58.463	4.0
58.478	2.0
58.493	1.0
58.508	2.0
58.523	4.0
58.538	3.0
58.553	2.0
58.568	3.0
58.583	6.0
58.598	11.0
58.613	4.0
58.628	7.0
58.643	6.0
58.658	10.0
58.673	9.0
58.688	8.0
58.703	8.0
58.718	6.0
58.733	6.0
58.748	8.0
58.763	9.0
58.778	4.0
58.793	7.0
58.808	3.0
58.823	4.0
58.838	7.0
58.853	2.0
58.868	4.0
58.883	6.0
58.898	5.0
58.913	4.0
58.928	3.0
58.942	6.0
58.957	5.0
58.972	7.0
58.987	6.0
59.002	3.0
59.017	7.0
59.032	7.0
59.047	4.0
59.062	5.0
59.077	8.0
59.092	7.0
59.107	3.0
59.122	6.0
59.137	5.0
59.152	3.0
59.167	6.0
59.182	4.0
59.197	5.0
59.212	3.0
59.227	5.0
59.242	6.0
59.257	3.0
59.272	5.0
59.287	3.0
59.302	3.0
59.317	3.0
59.332	5.0
59.347	6.0
59.362	4.0
59.377	6.0
59.392	6.0
59.407	4.0
59.422	4.0
59.437	7.0
59.452	3.0
59.467	2.0
59.482	4.0
59.497	8.0
59.512	1.0
59.527	7.0
59.542	3.0
59.557	5.0
59.572	9.0
59.587	10.0
59.602	9.0
59.617	7.0
59.632	7.0
59.647	6.0
59.661	6.0
59.676	3.0
59.691	3.0
59.706	3.0
59.721	7.0
59.736	4.0
59.751	6.0
59.766	3.0
59.781	3.0
59.796	10.0
59.811	4.0
59.826	3.0
59.841	1.0
59.856	3.0
59.871	7.0
59.886	4.0
59.901	6.0
59.916	2.0
59.931	5.0
59.946	6.0
59.961	4.0
59.976	6.0
59.991	6.0
60.006	5.0
60.021	5.0
60.036	6.0
60.051	5.0
60.066	5.0
60.081	5.0
60.096	3.0
60.111	6.0
60.126	6.0
60.141	6.0
60.156	7.0
60.171	2.0
60.186	3.0
60.201	5.0
60.216	4.0
60.231	4.0
60.246	5.0
60.261	3.0
60.276	4.0
60.291	4.0
60.306	8.0
60.321	0.0
60.336	0.0
60.35	1.0
60.365	1.0
60.38	4.0
60.395	6.0
60.41	3.0
60.425	7.0
60.44	3.0
60.455	3.0
60.47	3.0
60.485	4.0
60.5	7.0
60.515	10.0
60.53	6.0
60.545	1.0
60.56	2.0
60.575	3.0
60.59	8.0
60.605	7.0
60.62	3.0
60.635	9.0
60.65	5.0
60.665	11.0
60.68	5.0
60.695	5.0
60.71	1.0
60.725	2.0
60.74	3.0
60.755	8.0
60.77	3.0
60.785	2.0
60.8	2.0
60.815	4.0
60.83	5.0
60.845	5.0
60.86	5.0
60.875	3.0
60.89	6.0
60.905	5.0
60.92	6.0
60.935	11.0
60.95	2.0
60.965	5.0
60.98	2.0
60.995	4.0
61.01	6.0
61.025	3.0
61.04	7.0
61.055	4.0
61.07	2.0
61.085	5.0
61.1	5.0
61.115	2.0
61.13	7.0
61.145	1.0
61.16	6.0
61.175	2.0
61.191	4.0
61.206	3.0
61.221	1.0
61.236	3.0
61.251	3.0
61.266	4.0
61.281	4.0
61.296	9.0
61.311	7.0
61.326	2.0
61.341	5.0
61.356	2.0
61.371	2.0
61.386	7.0
61.401	2.0
61.416	3.0
61.431	5.0
61.446	7.0
61.461	2.0
61.476	5.0
61.491	6.0
61.506	5.0
61.521	6.0
61.536	5.0
61.551	5.0
61.566	4.0
61.581	5.0
61.596	4.0
61.611	5.0
61.626	6.0
61.641	6.0
61.656	1.0
61.672	6.0
61.687	0.0
61.702	3.0
61.717	3.0
61.732	2.0
61.747	3.0
61.762	4.0
61.777	1.0
61.792	4.0
61.807	4.0
61.822	3.0
61.837	3.0
61.852	3.0
61.867	2.0
61.882	6.0
61.897	5.0
61.912	4.0
61.927	6.0
61.943	3.0
61.958	7.0
61.973	1.0
61.988	4.0
62.003	3.0
62.018	5.0
62.033	5.0
62.048	4.0
62.063	2.0
62.078	2.0
62.093	2.0
62.108	6.0
62.123	2.0
62.138	3.0
62.153	3.0
62.169	3.0
62.184	6.0
62.199	7.0
62.214	7.0
62.229	3.0
62.244	5.0
62.259	4.0
62.274	3.0
62.289	4.0
62.304	3.0
62.319	4.0
62.335	2.0
62.35	1.0
62.365	4.0
62.38	3.0
62.395	3.0
62.41	7.0
62.425	5.0
62.44	5.0
62.455	5.0
62.47	2.0
62.485	5.0
62.501	2.0
62.516	4.0
62.531	10.0
62.546	4.0
62.561	3.0
62.576	5.0
62.591	2.0
62.606	1.0
62.621	4.0
62.636	3.0
62.652	4.0
62.667	3.0
62.682	3.0
62.697	3.0
62.712	2.0
62.727	4.0
62.742	7.0
62.757	5.0
62.772	1.0
62.787	3.0
62.803	2.0
62.818	4.0
62.833	3.0
62.848	4.0
62.863	5.0
62.878	3.0
62.893	3.0
62.908	5.0
62.923	2.0
62.939	7.0
62.954	3.0
62.969	5.0
62.984	4.0
62.999	3.0
63.014	3.0
63.029	4.0
63.044	2.0
63.059	5.0
63.074	4.0
63.09	3.0
63.105	2.0
63.12	3.0
63.135	3.0
63.15	3.0
63.165	2.0
63.18	3.0
63.195	3.0
63.21	3.0
63.226	3.0
63.241	1.0
63.256	5.0
63.271	9.0
63.286	4.0
63.301	8.0
63.316	5.0
63.331	7.0
63.346	8.0
63.362	7.0
63.377	7.0
63.392	5.0
63.407	7.0
63.422	8.0
63.437	8.0
63.452	7.0
63.467	6.0
63.482	6.0
63.497	4.0
63.513	8.0
63.528	7.0
63.543	4.0
63.558	2.0
63.573	5.0
63.588	2.0
63.603	6.0
63.618	2.0
63.633	2.0
63.648	1.0
63.664	4.0
63.679	2.0
63.694	5.0
63.709	5.0
63.724	3.0
63.739	4.0
63.754	6.0
63.769	5.0
63.784	3.0
63.799	5.0
63.814	7.0
63.83	3.0
63.845	7.0
63.86	8.0
63.875	3.0
63.89	4.0
63.905	7.0
63.92	7.0
63.935	7.0
63.95	4.0
63.965	4.0
63.98	3.0
63.996	7.0
64.011	3.0
64.026	2.0
64.041	4.0
64.056	5.0
64.071	3.0
64.086	4.0
64.101	3.0
64.116	9.0
64.131	1.0
64.146	3.0
64.161	1.0
64.176	2.0
64.191	5.0
64.207	4.0
64.222	5.0
64.237	3.0
64.252	1.0
64.267	7.0
64.282	3.0
64.297	1.0
64.312	6.0
64.327	6.0
64.342	1.0
64.357	2.0
64.372	7.0
64.387	6.0
64.402	4.0
64.417	2.0
64.433	2.0
64.448	2.0
64.463	10.0
64.478	3.0
64.493	3.0
64.508	2.0
64.523	3.0
64.538	4.0
64.553	3.0
64.568	6.0
64.583	4.0
64.598	1.0
64.613	2.0
64.628	6.0
64.643	1.0
64.658	4.0
64.673	3.0
64.688	2.0
64.703	2.0
64.718	1.0
64.734	2.0
64.749	5.0
64.764	5.0
64.779	3.0
64.794	3.0
64.809	4.0
64.824	5.0
64.839	2.0
64.854	3.0
64.869	2.0
64.884	0.0
64.899	3.0
64.914	2.0
64.929	2.0
64.944	4.0
64.959	5.0
64.974	2.0
64.989	3.0
65.004	3.0
65.019	3.0
65.034	3.0
65.049	2.0
65.064	4.0
65.079	1.0
65.094	3.0
65.109	8.0
65.125	1.0
65.14	7.0
65.155	8.0
65.17	6.0
65.185	9.0
65.2	8.0
65.215	5.0
65.23	3.0
65.245	4.0
65.26	4.0
65.275	3.0
65.29	4.0
65.305	6.0
65.32	4.0
65.335	4.0
65.35	6.0
65.365	3.0
65.38	4.0
65.395	5.0
65.41	2.0
65.425	3.0
65.44	5.0
65.455	4.0
65.47	4.0
65.485	3.0
65.5	3.0
65.515	5.0
65.53	6.0
65.545	4.0
65.56	4.0
65.575	4.0
65.59	3.0
65.605	3.0
65.62	3.0
65.635	3.0
65.65	3.0
65.666	6.0
65.681	1.0
65.696	3.0
65.711	5.0
65.726	6.0
65.741	3.0
65.756	2.0
65.771	6.0
65.786	1.0
65.801	5.0
65.816	7.0
65.831	4.0
65.846	2.0
65.861	3.0
65.876	4.0
65.891	5.0
65.906	4.0
65.921	3.0
65.936	3.0
65.951	2.0
65.966	4.0
65.981	1.0
65.996	2.0
66.011	3.0
66.026	2.0
66.041	3.0
66.056	5.0
66.071	7.0
66.086	4.0
66.101	6.0
66.116	5.0
66.131	7.0
66.146	9.0
66.161	10.0
66.176	11.0
66.191	10.0
66.206	16.0
66.221	7.0
66.236	6.0
66.251	8.0
66.266	10.0
66.281	2.0
66.296	5.0
66.311	4.0
66.327	4.0
66.342	4.0
66.357	6.0
66.372	1.0
66.387	4.0
66.402	3.0
66.417	6.0
66.432	4.0
66.447	2.0
66.462	5.0
66.477	5.0
66.492	2.0
66.507	4.0
66.522	6.0
66.537	3.0
66.552	2.0
66.567	4.0
66.582	4.0
66.597	1.0
66.612	6.0
66.627	3.0
66.642	8.0
66.657	5.0
66.672	7.0
66.687	4.0
66.702	3.0
66.717	5.0
66.732	5.0
66.747	7.0
66.762	2.0
66.777	1.0
66.792	1.0
66.807	7.0
66.822	5.0
66.837	2.0
66.853	2.0
66.868	4.0
66.883	3.0
66.898	1.0
66.913	4.0
66.928	4.0
66.943	2.0
66.958	1.0
66.973	3.0
66.988	3.0
67.003	1.0
67.018	8.0
67.033	6.0
67.048	3.0
67.063	5.0
67.078	5.0
67.093	2.0
67.108	10.0
67.123	5.0
67.138	6.0
67.153	2.0
67.168	4.0
67.183	9.0
67.198	3.0
67.214	5.0
67.229	6.0
67.244	4.0
67.259	5.0
67.274	2.0
67.289	4.0
67.304	5.0
67.319	3.0
67.334	4.0
67.349	7.0
67.364	1.0
67.379	3.0
67.394	8.0
67.409	6.0
67.424	5.0
67.439	5.0
67.454	4.0
67.469	6.0
67.484	4.0
67.5	0.0
67.515	5.0
67.53	3.0
67.545	2.0
67.56	4.0
67.575	8.0
67.59	6.0
67.605	10.0
67.62	1.0
67.635	2.0
67.65	8.0
67.665	2.0
67.68	0.0
67.695	2.0
67.71	0.0
67.726	3.0
67.741	2.0
67.756	1.0
67.771	0.0
67.786	1.0
67.801	4.0
67.816	4.0
67.831	5.0
67.846	2.0
67.861	3.0
67.876	1.0
67.891	1.0
67.906	2.0
67.922	4.0
67.937	2.0
67.952	6.0
67.967	6.0
67.982	6.0
67.997	3.0
68.012	3.0
68.027	3.0
68.042	4.0
68.057	7.0
68.072	3.0
68.087	7.0
68.103	3.0
68.118	4.0
68.133	3.0
68.148	0.0
68.163	4.0
68.178	2.0
68.193	3.0
68.208	3.0
68.223	2.0
68.238	2.0
68.254	1.0
68.269	6.0
68.284	3.0
68.299	3.0
68.314	2.0
68.329	1.0
68.344	3.0
68.359	0.0
68.374	2.0
68.389	1.0
68.405	5.0
68.42	2.0
68.435	1.0
68.45	2.0
68.465	3.0
68.48	2.0
68.495	4.0
68.51	2.0
68.525	1.0
68.54	2.0
68.556	4.0
68.571	4.0
68.586	4.0
68.601	3.0
68.616	1.0
68.631	3.0
68.646	4.0
68.661	4.0
68.676	4.0
68.691	2.0
68.707	4.0
68.722	4.0
68.737	1.0
68.752	5.0
68.767	4.0
68.782	6.0
68.797	3.0
68.812	3.0
68.827	4.0
68.842	7.0
68.857	3.0
68.873	3.0
68.888	5.0
68.903	3.0
68.918	7.0
68.933	4.0
68.948	3.0
68.963	2.0
68.978	4.0
68.993	2.0
69.008	3.0
69.023	3.0
69.038	4.0
69.054	6.0
69.069	4.0
69.084	7.0
69.099	8.0
69.114	4.0
69.129	1.0
69.144	4.0
69.159	3.0
69.174	1.0
69.189	1.0
69.204	4.0
69.219	1.0
69.234	4.0
69.249	3.0
69.264	5.0
69.279	3.0
69.295	3.0
69.31	2.0
69.325	5.0
69.34	3.0
69.355	1.0
69.37	5.0
69.385	4.0
69.4	3.0
69.415	4.0
69.43	0.0
69.445	4.0
69.46	3.0
69.475	3.0
69.49	6.0
69.505	4.0
69.52	2.0
69.535	3.0
69.55	2.0
69.565	3.0
69.58	3.0
69.595	6.0
69.61	4.0
69.625	1.0
69.64	3.0
69.655	0.0
69.67	4.0
69.685	8.0
69.7	4.0
69.715	4.0
69.73	4.0
69.745	10.0
69.76	7.0
69.775	6.0
69.79	9.0
69.805	3.0
69.82	6.0
69.835	6.0
69.85	4.0
69.865	3.0
69.88	6.0
69.895	1.0
69.909	8.0
69.924	3.0
69.939	3.0
69.954	4.0
69.969	6.0
69.984	3.0
69.999	1.0
70.014	1.0
70.029	0.0
70.044	2.0
70.059	7.0
70.074	2.0
70.088	4.0
70.103	0.0
70.118	1.0
70.133	8.0
70.148	2.0
70.163	4.0
70.178	1.0
70.193	4.0
70.208	10.0
70.222	7.0
70.237	9.0
70.252	4.0
70.267	6.0
70.282	5.0
70.297	6.0
70.312	7.0
70.327	1.0
70.341	2.0
70.356	6.0
70.371	5.0
70.386	3.0
70.401	6.0
70.416	5.0
70.43	6.0
70.445	3.0
70.46	1.0
70.475	5.0
70.49	9.0
70.505	3.0
70.519	4.0
70.534	5.0
70.549	3.0
70.564	4.0
70.579	3.0
70.594	4.0
70.608	6.0
70.623	4.0
70.638	6.0
70.653	4.0
70.668	3.0
70.683	3.0
70.697	1.0
70.712	4.0
70.727	1.0
70.742	5.0
70.757	3.0
70.771	4.0
70.786	1.0
70.801	3.0
70.816	1.0
70.831	6.0
70.845	3.0
70.86	5.0
70.875	1.0
70.89	2.0
70.905	0.0
70.92	3.0
70.934	4.0
70.949	3.0
70.964	4.0
70.979	3.0
70.994	4.0
71.008	3.0
71.023	6.0
71.038	4.0
71.053	4.0
71.068	6.0
71.082	3.0
71.097	3.0
71.112	5.0
71.127	5.0
71.142	4.0
71.156	4.0
71.171	2.0
71.186	5.0
71.201	3.0
71.216	5.0
71.231	4.0
71.245	2.0
71.26	4.0
71.275	5.0
71.29	2.0
71.305	2.0
71.319	6.0
71.334	5.0
71.349	4.0
71.364	2.0
71.379	4.0
71.394	1.0
71.408	4.0
71.423	5.0
71.438	5.0
71.453	1.0
71.468	2.0
71.483	2.0
71.497	1.0
71.512	2.0
71.527	1.0
71.542	2.0
71.557	3.0
71.572	4.0
71.586	5.0
71.601	1.0
71.616	2.0
71.631	3.0
71.646	5.0
71.661	5.0
71.676	4.0
71.69	6.0
71.705	3.0
71.72	2.0
71.735	2.0
71.75	9.0
71.765	1.0
71.78	8.0
71.795	3.0
71.81	6.0
71.824	4.0
71.839	5.0
71.854	5.0
71.869	7.0
71.884	7.0
71.899	0.0
71.914	6.0
71.929	5.0
71.944	5.0
71.959	4.0
71.974	4.0
71.988	4.0
72.003	3.0
72.018	4.0
72.033	5.0
72.048	4.0
72.063	4.0
72.078	5.0
72.093	2.0
72.108	5.0
72.123	3.0
72.138	2.0
72.153	0.0
72.168	3.0
72.183	8.0
72.198	4.0
72.213	1.0
72.228	3.0
72.243	5.0
72.258	3.0
72.273	3.0
72.288	6.0
72.303	0.0
72.318	0.0
72.333	0.0
72.348	2.0
72.363	2.0
72.378	5.0
72.393	4.0
72.408	4.0
72.423	3.0
72.438	3.0
72.453	5.0
72.468	1.0
72.483	1.0
72.498	4.0
72.513	3.0
72.528	1.0
72.543	4.0
72.558	6.0
72.573	2.0
72.588	3.0
72.603	3.0
72.618	0.0
72.633	3.0
72.649	5.0
72.664	5.0
72.679	2.0
72.694	5.0
72.709	4.0
72.724	1.0
72.739	6.0
72.754	3.0
72.769	5.0
72.784	1.0
72.799	7.0
72.814	6.0
72.829	1.0
72.845	5.0
72.86	3.0
72.875	0.0
72.89	7.0
72.905	4.0
72.92	3.0
72.935	1.0
72.95	5.0
72.965	2.0
72.98	4.0
72.996	2.0
73.011	5.0
73.026	2.0
73.041	2.0
73.056	2.0
73.071	3.0
73.086	1.0
73.101	5.0
73.117	1.0
73.132	3.0
73.147	3.0
73.162	5.0
73.177	1.0
73.192	2.0
73.207	4.0
73.222	3.0
73.238	3.0
73.253	2.0
73.268	3.0
73.283	2.0
73.298	8.0
73.313	8.0
73.328	5.0
73.343	6.0
73.359	4.0
73.374	6.0
73.389	6.0
73.404	6.0
73.419	5.0
73.434	5.0
73.449	4.0
73.465	1.0
73.48	4.0
73.495	5.0
73.51	3.0
73.525	5.0
73.54	2.0
73.556	1.0
73.571	4.0
73.586	6.0
73.601	3.0
73.616	5.0
73.631	2.0
73.646	2.0
73.662	2.0
73.677	3.0
73.692	6.0
73.707	4.0
73.722	3.0
73.737	4.0
73.752	3.0
73.768	1.0
73.783	3.0
73.798	6.0
73.813	3.0
73.828	5.0
73.843	4.0
73.859	6.0
73.874	6.0
73.889	2.0
73.904	1.0
73.919	1.0
73.934	3.0
73.949	3.0
73.965	5.0
73.98	3.0
73.995	2.0
74.01	4.0
74.025	4.0
74.04	2.0
74.056	5.0
74.071	4.0
74.086	1.0
74.101	5.0
74.116	10.0
74.131	1.0
74.146	5.0
74.162	8.0
74.177	5.0
74.192	4.0
74.207	11.0
74.222	1.0
74.237	6.0
74.252	2.0
74.268	3.0
74.283	2.0
74.298	6.0
74.313	4.0
74.328	1.0
74.343	3.0
74.358	6.0
74.374	2.0
74.389	3.0
74.404	4.0
74.419	3.0
74.434	8.0
74.449	3.0
74.464	0.0
74.48	3.0
74.495	3.0
74.51	3.0
74.525	3.0
74.54	2.0
74.555	3.0
74.57	2.0
74.586	3.0
74.601	2.0
74.616	3.0
74.631	5.0
74.646	5.0
74.661	1.0
74.676	5.0
74.691	4.0
74.707	5.0
74.722	4.0
74.737	5.0
74.752	5.0
74.767	2.0
74.782	3.0
74.797	2.0
74.813	5.0
74.828	5.0
74.843	4.0
74.858	4.0
74.873	1.0
74.888	1.0
74.903	1.0
74.918	4.0
74.934	5.0
74.949	4.0
74.964	4.0
74.979	5.0
74.994	6.0
75.009	4.0
75.024	6.0
75.04	6.0
75.055	4.0
75.07	9.0
75.085	2.0
75.1	4.0
75.115	1.0
75.13	3.0
75.145	4.0
75.161	4.0
75.176	6.0
75.191	2.0
75.206	2.0
75.221	2.0
75.236	2.0
75.251	6.0
75.266	5.0
75.282	2.0
75.297	3.0
75.312	1.0
75.327	5.0
75.342	4.0
75.357	6.0
75.372	2.0
75.387	2.0
75.403	4.0
75.418	3.0
75.433	5.0
75.448	5.0
75.463	4.0
75.478	3.0
75.493	6.0
75.509	4.0
75.524	6.0
75.539	4.0
75.554	1.0
75.569	4.0
75.584	2.0
75.599	5.0
75.614	2.0
75.63	1.0
75.645	3.0
75.66	5.0
75.675	3.0
75.69	5.0
75.705	2.0
75.72	1.0
75.735	3.0
75.751	3.0
75.766	1.0
75.781	0.0
75.796	4.0
75.811	6.0
75.826	5.0
75.841	2.0
75.856	2.0
75.872	6.0
75.887	4.0
75.902	5.0
75.917	3.0
75.932	2.0
75.947	2.0
75.962	2.0
75.977	1.0
75.993	2.0
76.008	2.0
76.023	1.0
76.038	2.0
76.053	2.0
76.068	4.0
76.083	3.0
76.098	5.0
76.114	3.0
76.129	2.0
76.144	4.0
76.159	4.0
76.174	5.0
76.189	3.0
76.204	3.0
76.22	2.0
76.235	1.0
76.25	3.0
76.265	5.0
76.28	4.0
76.295	2.0
76.31	1.0
76.325	1.0
76.341	4.0
76.356	4.0
76.371	0.0
76.386	1.0
76.401	4.0
76.416	4.0
76.431	3.0
76.446	1.0
76.462	6.0
76.477	3.0
76.492	4.0
76.507	1.0
76.522	0.0
76.537	3.0
76.552	2.0
76.567	4.0
76.583	1.0
76.598	2.0
76.613	6.0
76.628	4.0
76.643	1.0
76.658	3.0
76.673	2.0
76.688	4.0
76.704	4.0
76.719	6.0
76.734	4.0
76.749	3.0
76.764	6.0
76.779	2.0
76.794	5.0
76.809	3.0
76.824	2.0
76.84	2.0
76.855	5.0
76.87	4.0
76.885	6.0
76.9	3.0
76.915	3.0
76.93	3.0
76.945	7.0
76.96	0.0
76.976	2.0
76.991	2.0
77.006	0.0
77.021	6.0
77.036	4.0
77.051	3.0
77.066	5.0
77.081	4.0
77.096	3.0
77.112	7.0
77.127	0.0
77.142	1.0
77.157	2.0
77.172	2.0
77.187	4.0
77.202	2.0
77.217	4.0
77.232	3.0
77.247	3.0
77.263	5.0
77.278	5.0
77.293	6.0
77.308	2.0
77.323	3.0
77.338	3.0
77.353	2.0
77.368	3.0
77.383	0.0
77.398	2.0
77.413	2.0
77.428	5.0
77.444	2.0
77.459	1.0
77.474	4.0
77.489	3.0
77.504	0.0
77.519	5.0
77.534	3.0
77.549	6.0
77.564	6.0
77.579	6.0
77.594	6.0
77.609	6.0
77.624	7.0
77.64	5.0
77.655	8.0
77.67	1.0
77.685	4.0
77.7	5.0
77.715	4.0
77.73	7.0
77.745	4.0
77.76	4.0
77.775	2.0
77.79	5.0
77.805	3.0
77.82	5.0
77.835	4.0
77.85	2.0
77.865	2.0
77.88	3.0
77.895	4.0
77.91	3.0
77.926	2.0
77.941	3.0
77.956	4.0
77.971	2.0
77.986	3.0
78.001	1.0
78.016	1.0
78.031	4.0
78.046	3.0
78.061	4.0
78.076	1.0
78.091	3.0
78.106	5.0
78.121	4.0
78.136	4.0
78.151	3.0
78.166	2.0
78.181	4.0
78.196	3.0
78.211	6.0
78.226	3.0
78.241	2.0
78.256	5.0
78.271	3.0
78.286	7.0
78.301	0.0
78.316	0.0
78.331	8.0
78.346	1.0
78.361	1.0
78.376	3.0
78.391	3.0
78.406	4.0
78.421	3.0
78.436	4.0
78.451	1.0
78.466	2.0
78.481	4.0
78.496	4.0
78.511	2.0
78.526	2.0
78.541	5.0
78.556	2.0
78.571	1.0
78.586	1.0
78.601	3.0
78.616	2.0
78.631	3.0
78.646	3.0
78.661	2.0
78.676	2.0
78.691	3.0
78.706	6.0
78.721	2.0
78.736	0.0
78.751	2.0
78.766	4.0
78.781	5.0
78.796	3.0
78.811	1.0
78.826	2.0
78.841	1.0
78.856	3.0
78.871	4.0
78.885	0.0
78.9	2.0
78.915	3.0
78.93	8.0
78.945	2.0
78.96	6.0
78.975	4.0
78.99	5.0
79.005	0.0
79.02	2.0
79.035	1.0
79.05	2.0
79.065	5.0
79.08	2.0
79.095	3.0
79.11	3.0
79.125	6.0
79.14	0.0
79.155	3.0
79.17	2.0
79.185	2.0
79.2	3.0
79.215	9.0
79.23	1.0
79.245	1.0
79.26	3.0
79.275	2.0
79.29	5.0
79.304	3.0
79.319	4.0
79.334	4.0
79.349	2.0
79.364	3.0
79.379	5.0
79.394	7.0
79.409	2.0
79.424	0.0
79.439	2.0
79.454	6.0
79.469	1.0
79.484	4.0
79.499	2.0
79.514	2.0
79.529	1.0
79.544	2.0
79.559	6.0
79.574	4.0
79.589	1.0
79.604	2.0
79.619	0.0
79.634	3.0
79.649	3.0
79.664	2.0
79.679	1.0
79.693	4.0
79.708	4.0
79.723	3.0
79.738	1.0
79.753	3.0
79.768	3.0
79.783	3.0
79.798	2.0
79.813	2.0
79.828	7.0
79.843	3.0
79.858	3.0
79.873	1.0
79.888	2.0
79.903	2.0
79.918	4.0
79.933	4.0
79.948	5.0
79.963	2.0
79.978	2.0
79.993	3.0
80.008	1.0
80.023	5.0
80.038	3.0
80.053	2.0
80.068	3.0
80.083	2.0
80.098	3.0
80.113	7.0
80.128	2.0
80.143	1.0
80.158	4.0
80.173	3.0
80.188	3.0
80.202	2.0
80.217	2.0
80.232	3.0
80.247	5.0
80.262	1.0
80.277	3.0
80.292	1.0
80.307	1.0
80.322	0.0
80.337	4.0
80.352	3.0
80.367	1.0
80.382	2.0
80.397	5.0
80.412	1.0
80.427	6.0
80.442	4.0
80.457	3.0
80.472	2.0
80.487	1.0
80.502	5.0
80.517	5.0
80.532	3.0
80.547	3.0
80.562	2.0
80.577	0.0
80.592	3.0
80.607	3.0
80.622	1.0
80.637	7.0
80.652	6.0
80.667	4.0
80.682	3.0
80.697	2.0
80.712	3.0
80.727	2.0
80.742	2.0
80.757	3.0
80.772	2.0
80.787	4.0
80.802	3.0
80.817	4.0
80.832	1.0
80.847	1.0
80.862	2.0
80.877	4.0
80.892	2.0
80.907	1.0
80.922	2.0
80.937	5.0
80.952	3.0
80.967	3.0
80.982	2.0
80.997	9.0
81.012	4.0
81.027	1.0
81.042	3.0
81.057	4.0
81.072	4.0
81.087	3.0
81.101	6.0
81.116	4.0
81.131	1.0
81.146	4.0
81.161	5.0
81.176	3.0
81.191	1.0
81.206	4.0
81.221	2.0
81.236	3.0
81.251	5.0
81.266	2.0
81.281	1.0
81.296	3.0
81.311	0.0
81.326	1.0
81.341	4.0
81.356	0.0
81.371	4.0
81.386	4.0
81.401	4.0
81.416	3.0
81.431	4.0
81.446	3.0
81.461	3.0
81.476	3.0
81.491	2.0
81.506	1.0
81.521	2.0
81.536	1.0
81.55	3.0
81.565	5.0
81.58	3.0
81.595	2.0
81.61	3.0
81.625	4.0
81.64	7.0
81.655	5.0
81.67	1.0
81.685	2.0
81.7	0.0
81.715	5.0
81.73	2.0
81.745	4.0
81.76	5.0
81.775	6.0
81.79	3.0
81.805	3.0
81.819	3.0
81.834	1.0
81.849	4.0
81.864	3.0
81.879	4.0
81.894	6.0
81.909	1.0
81.924	3.0
81.939	4.0
81.954	6.0
81.969	5.0
81.984	4.0
81.999	3.0
82.013	2.0
82.028	3.0
82.043	2.0
82.058	2.0
82.073	1.0
82.088	6.0
82.103	2.0
82.118	0.0
82.133	3.0
82.148	2.0
82.163	4.0
82.177	2.0
82.192	1.0
82.207	4.0
82.222	6.0
82.237	1.0
82.252	3.0
82.267	3.0
82.282	2.0
82.297	1.0
82.312	9.0
82.326	4.0
82.341	4.0
82.356	3.0
82.371	3.0
82.386	4.0
82.401	4.0
82.416	2.0
82.431	3.0
82.445	4.0
82.46	3.0
82.475	4.0
82.49	4.0
82.505	2.0
82.52	4.0
82.535	1.0
82.55	2.0
82.565	3.0
82.579	2.0
82.594	4.0
82.609	3.0
82.624	2.0
82.639	3.0
82.654	3.0
82.669	1.0
82.684	1.0
82.698	3.0
82.713	2.0
82.728	0.0
82.743	2.0
82.758	4.0
82.773	3.0
82.788	1.0
82.803	3.0
82.817	1.0
82.832	0.0
82.847	3.0
82.862	0.0
82.877	5.0
82.892	1.0
82.907	3.0
82.922	1.0
82.937	4.0
82.951	1.0
82.966	4.0
82.981	4.0
82.996	1.0
83.011	1.0
83.026	2.0
83.041	3.0
83.056	6.0
83.07	4.0
83.085	1.0
83.1	1.0
83.115	2.0
83.13	1.0
83.145	1.0
83.16	4.0
83.175	0.0
83.19	5.0
83.204	4.0
83.219	2.0
83.234	4.0
83.249	1.0
83.264	2.0
83.279	2.0
83.294	1.0
83.309	4.0
83.324	2.0
83.339	2.0
83.353	3.0
83.368	1.0
83.383	5.0
83.398	1.0
83.413	1.0
83.428	1.0
83.443	4.0
83.458	5.0
83.473	5.0
83.488	3.0
83.503	5.0
83.517	5.0
83.532	2.0
83.547	1.0
83.562	6.0
83.577	2.0
83.592	6.0
83.607	1.0
83.622	3.0
83.637	9.0
83.652	5.0
83.667	0.0
83.682	2.0
83.697	2.0
83.712	6.0
83.727	0.0
83.741	2.0
83.756	1.0
83.771	1.0
83.786	2.0
83.801	1.0
83.816	1.0
83.831	4.0
83.846	0.0
83.861	1.0
83.876	5.0
83.891	3.0
83.906	3.0
83.921	6.0
83.936	2.0
83.951	4.0
83.966	1.0
83.981	1.0
83.996	3.0
84.011	4.0
84.026	2.0
84.041	1.0
84.056	1.0
84.071	1.0
84.086	2.0
84.101	2.0
84.116	1.0
84.131	5.0
84.146	4.0
84.161	2.0
84.176	4.0
84.191	3.0
84.206	2.0
84.221	3.0
84.236	2.0
84.251	6.0
84.266	1.0
84.281	2.0
84.296	2.0
84.311	5.0
84.326	2.0
84.341	3.0
84.356	0.0
84.371	4.0
84.386	2.0
84.401	5.0
84.416	4.0
84.431	4.0
84.446	2.0
84.461	1.0
84.476	1.0
84.492	1.0
84.507	2.0
84.522	1.0
84.537	5.0
84.552	3.0
84.567	2.0
84.582	1.0
84.597	3.0
84.612	3.0
84.627	1.0
84.642	4.0
84.657	1.0
84.672	5.0
84.687	2.0
84.702	4.0
84.717	2.0
84.733	2.0
84.748	6.0
84.763	3.0
84.778	3.0
84.793	3.0
84.808	4.0
84.823	2.0
84.838	4.0
84.853	4.0
84.868	2.0
84.883	6.0
84.898	4.0
84.913	1.0
84.929	6.0
84.944	6.0
84.959	4.0
84.974	1.0
84.989	2.0
85.004	4.0
85.019	1.0
85.034	7.0
85.049	5.0
85.064	0.0
85.079	3.0
85.094	5.0
85.11	2.0
85.125	2.0
85.14	3.0
85.155	2.0
85.17	3.0
85.185	3.0
85.2	2.0
85.215	2.0
85.23	3.0
85.245	3.0
85.26	7.0
85.276	2.0
85.291	2.0
85.306	6.0
85.321	4.0
85.336	4.0
85.351	3.0
85.366	1.0
85.381	3.0
85.396	1.0
85.411	2.0
85.426	0.0
85.441	1.0
85.457	2.0
85.472	2.0
85.487	4.0
85.502	5.0
85.517	1.0
85.532	1.0
85.547	4.0
85.562	2.0
85.577	1.0
85.592	0.0
85.607	2.0
85.622	0.0
85.637	0.0
85.653	3.0
85.668	0.0
85.683	4.0
85.698	6.0
85.713	3.0
85.728	4.0
85.743	2.0
85.758	4.0
85.773	2.0
85.788	2.0
85.803	2.0
85.818	5.0
85.833	1.0
85.848	8.0
85.863	1.0
85.879	2.0
85.894	1.0
85.909	3.0
85.924	3.0
85.939	1.0
85.954	2.0
85.969	2.0
85.984	4.0
85.999	4.0
86.014	5.0
86.029	3.0
86.044	1.0
86.059	4.0
86.074	2.0
86.089	0.0
86.104	5.0
86.119	2.0
86.134	2.0
86.149	3.0
86.164	5.0
86.179	5.0
86.194	9.0
86.209	5.0
86.224	0.0
86.239	2.0
86.254	3.0
86.269	0.0
86.284	3.0
86.299	5.0
86.314	0.0
86.33	0.0
86.345	3.0
86.36	4.0
86.375	1.0
86.39	4.0
86.405	3.0
86.42	2.0
86.435	4.0
86.45	3.0
86.465	2.0
86.48	4.0
86.495	2.0
86.51	6.0
86.525	3.0
86.54	1.0
86.555	5.0
86.57	4.0
86.585	4.0
86.6	2.0
86.615	6.0
86.63	2.0
86.645	3.0
86.659	5.0
86.674	4.0
86.689	6.0
86.704	5.0
86.719	5.0
86.734	0.0
86.749	2.0
86.764	3.0
86.779	1.0
86.794	8.0
86.809	4.0
86.824	2.0
86.839	2.0
86.854	7.0
86.869	4.0
86.884	5.0
86.899	11.0
86.914	7.0
86.929	3.0
86.944	2.0
86.959	5.0
86.974	7.0
86.989	4.0
87.004	2.0
87.019	1.0
87.034	3.0
87.049	3.0
87.064	6.0
87.079	4.0
87.094	1.0
87.109	4.0
87.124	3.0
87.139	1.0
87.154	3.0
87.169	1.0
87.184	2.0
87.199	3.0
87.214	4.0
87.229	1.0
87.244	2.0
87.259	3.0
87.274	2.0
87.289	4.0
87.304	3.0
87.319	3.0
87.334	4.0
87.349	2.0
87.364	2.0
87.379	1.0
87.394	3.0
87.409	4.0
87.424	0.0
87.438	5.0
87.453	2.0
87.468	1.0
87.483	3.0
87.498	3.0
87.513	4.0
87.528	2.0
87.543	3.0
87.558	2.0
87.573	4.0
87.588	3.0
87.603	3.0
87.618	6.0
87.633	3.0
87.648	8.0
87.663	2.0
87.678	3.0
87.693	5.0
87.708	5.0
87.723	3.0
87.738	3.0
87.753	3.0
87.768	4.0
87.783	1.0
87.798	4.0
87.813	6.0
87.828	3.0
87.843	1.0
87.858	8.0
87.873	6.0
87.888	2.0
87.903	4.0
87.918	3.0
87.933	1.0
87.948	8.0
87.963	2.0
87.978	2.0
87.993	2.0
88.008	4.0
88.023	5.0
88.038	3.0
88.053	3.0
88.068	2.0
88.083	2.0
88.098	5.0
88.113	2.0
88.128	1.0
88.143	1.0
88.158	2.0
88.174	3.0
88.189	4.0
88.204	1.0
88.219	7.0
88.234	4.0
88.249	1.0
88.264	2.0
88.279	2.0
88.294	2.0
88.309	3.0
88.324	2.0
88.339	5.0
88.354	1.0
88.369	0.0
88.384	2.0
88.399	9.0
88.414	10.0
88.429	4.0
88.444	3.0
88.459	7.0
88.474	4.0
88.489	3.0
88.504	4.0
88.519	4.0
88.534	3.0
88.549	0.0
88.564	5.0
88.58	2.0
88.595	4.0
88.61	4.0
88.625	5.0
88.64	2.0
88.655	6.0
88.67	4.0
88.685	7.0
88.7	6.0
88.715	2.0
88.73	1.0
88.745	0.0
88.76	5.0
88.775	4.0
88.79	0.0
88.805	3.0
88.82	1.0
88.835	4.0
88.85	2.0
88.865	5.0
88.88	0.0
88.895	3.0
88.911	10.0
88.926	4.0
88.941	3.0
88.956	2.0
88.971	1.0
88.986	3.0
89.001	2.0
89.016	1.0
89.031	2.0
89.046	1.0
89.061	2.0
89.076	2.0
89.091	4.0
89.106	3.0
89.121	3.0
89.136	1.0
89.151	1.0
89.166	3.0
89.181	0.0
89.196	0.0
89.211	1.0
89.227	4.0
89.242	3.0
89.257	2.0
89.272	6.0
89.287	3.0
89.302	3.0
89.317	2.0
89.332	2.0
89.347	2.0
89.362	0.0
89.377	1.0
89.392	3.0
89.407	2.0
89.422	4.0
89.437	5.0
89.452	5.0
89.467	2.0
89.482	2.0
89.497	5.0
89.512	2.0
89.527	6.0
89.542	3.0
89.557	2.0
89.572	3.0
89.587	1.0
89.602	5.0
89.617	3.0
89.632	4.0
89.647	6.0
89.662	5.0
89.677	2.0
89.693	2.0
89.708	6.0
89.723	0.0
89.738	1.0
89.753	3.0
89.768	4.0
89.783	3.0
89.798	3.0
89.813	6.0
89.828	3.0
89.843	1.0
89.858	5.0
89.873	2.0
89.888	5.0
89.903	3.0
89.918	3.0
89.933	2.0
89.948	4.0
89.963	5.0
89.978	1.0
89.993	0.0
90.008	3.0
90.023	2.0
90.038	0.0
90.053	2.0
90.068	1.0
90.083	5.0
90.097	4.0
90.112	4.0
90.127	4.0
90.142	4.0
90.157	3.0
90.172	3.0
90.187	2.0
90.202	3.0
90.217	3.0
90.232	7.0
90.247	8.0
90.262	4.0
90.277	3.0
90.292	7.0
90.307	3.0
90.322	2.0
90.337	5.0
90.352	4.0
90.367	4.0
90.382	3.0
90.397	2.0
90.412	2.0
90.427	2.0
90.442	3.0
90.457	2.0
90.472	5.0
90.487	2.0
90.501	1.0
90.516	4.0
90.531	5.0
90.546	2.0
90.561	2.0
90.576	1.0
90.591	4.0
90.606	0.0
90.621	8.0
90.636	6.0
90.651	3.0
90.666	4.0
90.681	3.0
90.696	0.0
90.711	3.0
90.726	2.0
90.741	3.0
90.755	1.0
90.77	3.0
90.785	6.0
90.8	3.0
90.815	2.0
90.83	3.0
90.845	1.0
90.86	4.0
90.875	2.0
90.89	5.0
90.905	2.0
90.92	4.0
90.935	3.0
90.95	3.0
90.965	9.0
90.979	5.0
90.994	5.0
91.009	1.0
91.024	3.0
91.039	4.0
91.054	6.0
91.069	3.0
91.084	7.0
91.099	4.0
91.114	4.0
91.129	4.0
91.144	3.0
91.159	1.0
91.174	1.0
91.188	3.0
91.203	3.0
91.218	2.0
91.233	5.0
91.248	3.0
91.263	3.0
91.278	5.0
91.293	5.0
91.308	1.0
91.323	4.0
91.338	3.0
91.353	1.0
91.368	3.0
91.383	2.0
91.398	6.0
91.412	1.0
91.427	4.0
91.442	0.0
91.457	1.0
91.472	4.0
91.487	4.0
91.502	4.0
91.517	5.0
91.532	3.0
91.547	2.0
91.562	4.0
91.577	3.0
91.592	3.0
91.607	2.0
91.622	0.0
91.637	5.0
91.652	5.0
91.666	3.0
91.681	4.0
91.696	3.0
91.711	1.0
91.726	4.0
91.741	4.0
91.756	3.0
91.771	2.0
91.786	3.0
91.801	4.0
91.816	4.0
91.831	5.0
91.846	2.0
91.861	5.0
91.876	0.0
91.891	2.0
91.906	1.0
91.921	4.0
91.936	3.0
91.951	3.0
91.966	3.0
91.981	2.0
91.995	3.0
92.01	5.0
92.025	4.0
92.04	2.0
92.055	2.0
92.07	3.0
92.085	1.0
92.1	2.0
92.115	2.0
92.13	2.0
92.145	2.0
92.16	5.0
92.175	2.0
92.19	1.0
92.205	2.0
92.22	3.0
92.235	3.0
92.25	4.0
92.265	5.0
92.28	2.0
92.295	3.0
92.31	2.0
92.325	5.0
92.34	2.0
92.355	2.0
92.37	1.0
92.385	5.0
92.4	3.0
92.415	2.0
92.43	4.0
92.445	3.0
92.46	2.0
92.475	1.0
92.49	3.0
92.505	2.0
92.52	4.0
92.535	3.0
92.55	4.0
92.565	3.0
92.58	1.0
92.595	4.0
92.61	1.0
92.625	4.0
92.64	4.0
92.655	4.0
92.67	4.0
92.685	4.0
92.7	2.0
92.715	3.0
92.73	2.0
92.745	0.0
92.76	2.0
92.775	3.0
92.79	4.0
92.805	3.0
92.82	3.0
92.835	8.0
92.85	1.0
92.865	5.0
92.88	1.0
92.895	3.0
92.91	3.0
92.925	1.0
92.94	2.0
92.955	1.0
92.97	1.0
92.985	0.0
93.0	5.0
93.015	6.0
93.03	0.0
93.045	3.0
93.06	2.0
93.075	2.0
93.09	1.0
93.105	2.0
93.12	3.0
93.135	3.0
93.15	6.0
93.165	0.0
93.18	4.0
93.195	6.0
93.21	4.0
93.225	6.0
93.24	5.0
93.255	2.0
93.27	3.0
93.285	2.0
93.3	1.0
93.315	5.0
93.33	2.0
93.345	5.0
93.36	7.0
93.375	2.0
93.39	4.0
93.405	3.0
93.42	2.0
93.435	3.0
93.45	4.0
93.465	4.0
93.48	8.0
93.495	5.0
93.51	2.0
93.525	5.0
93.54	5.0
93.555	4.0
93.57	1.0
93.585	1.0
93.6	6.0
93.615	7.0
93.63	5.0
93.645	2.0
93.66	5.0
93.675	5.0
93.69	3.0
93.705	3.0
93.72	3.0
93.735	2.0
93.75	3.0
93.765	2.0
93.78	0.0
93.795	2.0
93.81	5.0
93.824	0.0
93.839	3.0
93.854	2.0
93.869	2.0
93.884	3.0
93.899	2.0
93.914	3.0
93.929	8.0
93.944	1.0
93.959	4.0
93.974	1.0
93.989	2.0
94.004	1.0
94.019	0.0
94.034	3.0
94.049	4.0
94.064	3.0
94.079	1.0
94.094	6.0
94.108	6.0
94.123	5.0
94.138	2.0
94.153	1.0
94.168	4.0
94.183	3.0
94.198	3.0
94.213	4.0
94.228	1.0
94.243	3.0
94.258	3.0
94.273	1.0
94.288	3.0
94.302	3.0
94.317	9.0
94.332	0.0
94.347	3.0
94.362	7.0
94.377	4.0
94.392	3.0
94.407	6.0
94.422	5.0
94.437	1.0
94.452	3.0
94.466	4.0
94.481	3.0
94.496	6.0
94.511	1.0
94.526	5.0
94.541	5.0
94.556	4.0
94.571	4.0
94.586	2.0
94.601	2.0
94.615	1.0
94.63	1.0
94.645	3.0
94.66	3.0
94.675	1.0
94.69	1.0
94.705	2.0
94.72	3.0
94.735	3.0
94.749	3.0
94.764	7.0
94.779	2.0
94.794	4.0
94.809	5.0
94.824	6.0
94.839	5.0
94.854	7.0
94.868	5.0
94.883	5.0
94.898	4.0
94.913	3.0
94.928	5.0
94.943	4.0
94.958	3.0
94.973	2.0
94.987	3.0
95.002	5.0
95.017	3.0
95.032	3.0
95.047	6.0
95.062	7.0
95.077	4.0
95.092	11.0
95.106	2.0
95.121	4.0
95.136	3.0
95.151	5.0
95.166	2.0
95.181	3.0
95.196	3.0
95.211	3.0
95.226	2.0
95.24	3.0
95.255	4.0
95.27	3.0
95.285	4.0
95.3	7.0
95.315	6.0
95.33	2.0
95.345	5.0
95.359	3.0
95.374	4.0
95.389	2.0
95.404	1.0
95.419	0.0
95.434	5.0
95.449	1.0
95.464	4.0
95.478	3.0
95.493	6.0
95.508	4.0
95.523	1.0
95.538	3.0
95.553	4.0
95.568	2.0
95.583	5.0
95.597	3.0
95.612	2.0
95.627	3.0
95.642	3.0
95.657	1.0
95.672	4.0
95.687	3.0
95.702	1.0
95.717	0.0
95.731	4.0
95.746	5.0
95.761	1.0
95.776	6.0
95.791	1.0
95.806	3.0
95.821	2.0
95.836	4.0
95.851	2.0
95.866	3.0
95.88	5.0
95.895	11.0
95.91	2.0
95.925	5.0
95.94	3.0
95.955	3.0
95.97	3.0
95.985	3.0
96.0	1.0
96.015	5.0
96.029	4.0
96.044	3.0
96.059	3.0
96.074	4.0
96.089	1.0
96.104	4.0
96.119	3.0
96.134	5.0
96.149	1.0
96.164	1.0
96.179	3.0
96.194	5.0
96.208	1.0
96.223	5.0
96.238	3.0
96.253	5.0
96.268	6.0
96.283	0.0
96.298	1.0
96.313	3.0
96.328	1.0
96.343	2.0
96.358	2.0
96.373	5.0
96.388	6.0
96.403	3.0
96.417	1.0
96.432	4.0
96.447	3.0
96.462	3.0
96.477	7.0
96.492	3.0
96.507	2.0
96.522	3.0
96.537	3.0
96.552	4.0
96.567	3.0
96.582	1.0
96.597	2.0
96.612	1.0
96.627	6.0
96.642	1.0
96.656	2.0
96.671	5.0
96.686	1.0
96.701	1.0
96.716	2.0
96.731	0.0
96.746	5.0
96.761	2.0
96.776	2.0
96.791	3.0
96.806	3.0
96.821	5.0
96.836	3.0
96.851	1.0
96.866	2.0
96.881	4.0
96.896	1.0
96.911	1.0
96.926	5.0
96.94	5.0
96.955	1.0
96.97	1.0
96.985	4.0
97.0	3.0
97.015	5.0
97.03	4.0
97.045	3.0
97.06	8.0
97.075	1.0
97.09	2.0
97.105	2.0
97.12	2.0
97.135	1.0
97.15	0.0
97.165	5.0
97.18	3.0
97.195	3.0
97.21	5.0
97.225	2.0
97.239	4.0
97.254	1.0
97.269	1.0
97.284	4.0
97.299	5.0
97.314	1.0
97.329	2.0
97.344	2.0
97.359	1.0
97.374	1.0
97.389	2.0
97.404	4.0
97.419	2.0
97.434	2.0
97.449	1.0
97.464	4.0
97.479	4.0
97.494	2.0
97.509	2.0
97.524	3.0
97.538	3.0
97.553	2.0
97.568	4.0
97.583	4.0
97.598	4.0
97.613	3.0
97.628	1.0
97.643	3.0
97.658	4.0
97.673	6.0
97.688	0.0
97.703	1.0
97.718	0.0
97.733	5.0
97.748	1.0
97.763	5.0
97.778	6.0
97.792	5.0
97.807	0.0
97.822	4.0
97.837	3.0
97.852	3.0
97.867	1.0
97.882	5.0
97.897	5.0
97.912	0.0
97.927	6.0
97.942	1.0
97.957	3.0
97.972	6.0
97.987	4.0
98.001	4.0
98.016	3.0
98.031	4.0
98.046	4.0
98.061	3.0
98.076	0.0
98.091	4.0
98.106	2.0
98.121	1.0
98.136	1.0
98.151	0.0
98.166	6.0
98.181	2.0
98.195	11.0
98.21	2.0
98.225	3.0
98.24	4.0
98.255	3.0
98.27	4.0
98.285	2.0
98.3	4.0
98.315	2.0
98.33	1.0
98.345	2.0
98.359	1.0
98.374	4.0
98.389	1.0
98.404	2.0
98.419	2.0
98.434	5.0
98.449	1.0
98.464	2.0
98.479	0.0
98.494	2.0
98.508	2.0
98.523	2.0
98.538	4.0
98.553	2.0
98.568	3.0
98.583	1.0
98.598	2.0
98.613	7.0
98.628	4.0
98.642	2.0
98.657	3.0
98.672	2.0
98.687	1.0
98.702	4.0
98.717	3.0
98.732	1.0
98.747	1.0
98.762	2.0
98.776	1.0
98.791	1.0
98.806	3.0
98.821	4.0
98.836	6.0
98.851	1.0
98.866	7.0
98.881	8.0
98.896	4.0
98.91	3.0
98.925	6.0
98.94	1.0
98.955	2.0
98.97	0.0
98.985	3.0
99.0	4.0
99.015	1.0
99.029	6.0
99.044	4.0
99.059	4.0
99.074	3.0
99.089	4.0
99.104	3.0
99.119	2.0
99.133	0.0
99.148	2.0
99.163	2.0
99.178	4.0
99.193	7.0
99.208	9.0
99.223	3.0
99.238	0.0
99.252	2.0
99.267	4.0
99.282	3.0
99.297	4.0
99.312	1.0
99.327	1.0
99.342	2.0
99.356	5.0
99.371	3.0
99.386	2.0
99.401	2.0
99.416	1.0
99.431	2.0
99.446	4.0
99.461	5.0
99.475	2.0
99.49	3.0
99.505	2.0
99.52	6.0
99.535	0.0
99.55	1.0
99.565	1.0
99.579	4.0
99.594	6.0
99.609	3.0
99.624	4.0
99.639	5.0
99.654	2.0
99.669	1.0
99.683	4.0
99.698	3.0
99.713	2.0
99.728	2.0
99.743	4.0
99.758	1.0
99.772	1.0
99.787	3.0
99.802	2.0
99.817	4.0
99.832	2.0
99.847	3.0
99.862	2.0
99.876	1.0
99.891	3.0
99.906	1.0
99.921	2.0
99.936	2.0
99.951	2.0
99.966	1.0
99.98	1.0
99.995	2.0
100.01	4.0
100.025	6.0
100.04	5.0
100.055	2.0
100.069	2.0
100.084	2.0
100.099	2.0
100.114	2.0
100.129	5.0
100.144	6.0
100.159	2.0
100.173	4.0
100.188	3.0
100.203	5.0
100.218	4.0
100.233	4.0
100.248	5.0
100.262	3.0
100.277	2.0
100.292	3.0
100.307	5.0
100.322	1.0
100.337	5.0
100.351	3.0
100.366	2.0
100.381	2.0
100.396	5.0
100.411	3.0
100.426	4.0
100.441	3.0
100.455	2.0
100.47	3.0
100.485	5.0
100.5	6.0
100.515	3.0
100.53	1.0
100.544	2.0
100.559	1.0
100.574	2.0
100.589	4.0
100.604	3.0
100.619	6.0
100.633	2.0
100.648	3.0
100.663	3.0
100.678	0.0
100.693	2.0
100.708	0.0
100.722	4.0
100.737	5.0
100.752	3.0
100.767	1.0
100.782	1.0
100.796	5.0
100.811	3.0
100.826	4.0
100.841	5.0
100.856	4.0
100.871	3.0
100.885	4.0
100.9	1.0
100.915	5.0
100.93	2.0
100.945	3.0
100.96	3.0
100.974	5.0
100.989	2.0
101.004	3.0
101.019	2.0
101.034	2.0
101.048	2.0
101.063	3.0
101.078	0.0
101.093	3.0
101.108	5.0
101.123	1.0
101.137	3.0
101.152	3.0
101.167	4.0
101.182	6.0
101.197	4.0
101.211	2.0
101.226	4.0
101.241	2.0
101.256	3.0
101.271	2.0
101.285	2.0
101.3	5.0
101.315	3.0
101.33	2.0
101.345	6.0
101.359	2.0
101.374	0.0
101.389	0.0
101.404	3.0
101.419	2.0
101.433	2.0
101.448	4.0
101.463	4.0
101.478	1.0
101.493	3.0
101.507	1.0
101.522	4.0
101.537	1.0
101.552	5.0
101.567	3.0
101.581	4.0
101.596	0.0
101.611	0.0
101.626	7.0
101.64	1.0
101.655	2.0
101.67	3.0
101.685	2.0
101.7	0.0
101.714	2.0
101.729	2.0
101.744	2.0
101.759	3.0
101.773	1.0
101.788	2.0
101.803	2.0
101.818	4.0
101.833	2.0
101.847	3.0
101.862	4.0
101.877	3.0
101.892	2.0
101.906	0.0
101.921	3.0
101.936	4.0
101.951	7.0
101.965	1.0
101.98	4.0
101.995	5.0
102.01	3.0
102.025	2.0
102.039	5.0
102.054	3.0
102.069	7.0
102.084	3.0
102.098	4.0
102.113	3.0
102.128	7.0
102.143	3.0
102.157	2.0
102.172	0.0
102.187	5.0
102.202	4.0
102.216	0.0
102.231	1.0
102.246	0.0
102.261	4.0
102.275	0.0
102.29	1.0
102.305	5.0
102.32	4.0
102.334	6.0
102.349	4.0
102.364	7.0
102.378	4.0
102.393	7.0
102.408	2.0
102.423	2.0
102.437	2.0
102.452	3.0
102.467	1.0
102.482	3.0
102.496	2.0
102.511	1.0
102.526	2.0
102.541	4.0
102.555	2.0
102.57	0.0
102.585	5.0
102.6	1.0
102.614	5.0
102.629	2.0
102.644	5.0
102.659	5.0
102.673	1.0
102.688	4.0
102.703	0.0
102.717	2.0
102.732	4.0
102.747	1.0
102.762	5.0
102.776	2.0
102.791	4.0
102.806	4.0
102.821	7.0
102.835	3.0
102.85	4.0
102.865	5.0
102.88	1.0
102.894	3.0
102.909	2.0
102.924	5.0
102.938	2.0
102.953	4.0
102.968	0.0
102.983	4.0
102.997	3.0
103.012	0.0
103.027	2.0
103.042	3.0
103.056	4.0
103.071	0.0
103.086	2.0
103.101	1.0
103.115	3.0
103.13	3.0
103.145	4.0
103.16	1.0
103.174	1.0
103.189	2.0
103.204	5.0
103.219	5.0
103.233	4.0
103.248	4.0
103.263	2.0
103.278	2.0
103.292	2.0
103.307	7.0
103.322	1.0
103.337	3.0
103.351	2.0
103.366	2.0
103.381	5.0
103.396	0.0
103.41	3.0
103.425	3.0
103.44	0.0
103.455	3.0
103.469	1.0
103.484	1.0
103.499	2.0
103.514	1.0
103.529	7.0
103.543	8.0
103.558	4.0
103.573	5.0
103.588	1.0
103.602	3.0
103.617	4.0
103.632	3.0
103.647	5.0
103.661	0.0
103.676	5.0
103.691	1.0
103.706	3.0
103.721	9.0
103.735	3.0
103.75	1.0
103.765	1.0
103.78	2.0
103.795	0.0
103.809	4.0
103.824	1.0
103.839	2.0
103.854	3.0
103.869	3.0
103.883	3.0
103.898	4.0
103.913	4.0
103.928	4.0
103.943	4.0
103.957	3.0
103.972	2.0
103.987	3.0
104.002	2.0
104.017	5.0
104.031	3.0
104.046	1.0
104.061	2.0
104.076	2.0
104.091	3.0
104.106	3.0
104.12	4.0
104.135	3.0
104.15	4.0
104.165	2.0
104.18	4.0
104.195	2.0
104.209	1.0
104.224	1.0
104.239	2.0
104.254	5.0
104.269	4.0
104.284	2.0
104.299	1.0
104.313	3.0
104.328	2.0
104.343	6.0
104.358	2.0
104.373	0.0
104.388	3.0
104.403	5.0
104.417	2.0
104.432	3.0
104.447	2.0
104.462	5.0
104.477	4.0
104.492	4.0
104.507	3.0
104.522	2.0
104.536	2.0
104.551	4.0
104.566	3.0
104.581	3.0
104.596	4.0
104.611	3.0
104.626	7.0
104.641	2.0
104.656	3.0
104.67	4.0
104.685	6.0
104.7	4.0
104.715	1.0
104.73	2.0
104.745	3.0
104.76	5.0
104.775	6.0
104.79	3.0
104.804	1.0
104.819	6.0
104.834	4.0
104.849	2.0
104.864	4.0
104.879	6.0
104.894	2.0
104.909	2.0
104.924	3.0
104.939	4.0
104.954	2.0
104.968	1.0
104.983	3.0
104.998	1.0
105.013	1.0
105.028	1.0
105.043	2.0
105.058	2.0
105.073	1.0
105.088	5.0
105.103	4.0
105.118	2.0
105.133	2.0
105.147	1.0
105.162	4.0
105.177	1.0
105.192	5.0
105.207	2.0
105.222	4.0
105.237	5.0
105.252	2.0
105.267	1.0
105.282	2.0
105.297	2.0
105.312	1.0
105.327	3.0
105.342	3.0
105.356	0.0
105.371	2.0
105.386	3.0
105.401	1.0
105.416	7.0
105.431	3.0
105.446	1.0
105.461	4.0
105.476	3.0
105.491	3.0
105.506	3.0
105.521	5.0
105.536	4.0
105.551	4.0
105.566	1.0
105.581	7.0
105.595	2.0
105.61	2.0
105.625	3.0
105.64	7.0
105.655	3.0
105.67	3.0
105.685	3.0
105.7	7.0
105.715	3.0
105.73	3.0
105.745	1.0
105.76	2.0
105.775	2.0
105.79	7.0
105.805	5.0
105.82	6.0
105.835	0.0
105.85	3.0
105.864	5.0
105.879	1.0
105.894	1.0
105.909	3.0
105.924	3.0
105.939	0.0
105.954	2.0
105.969	0.0
105.984	2.0
105.999	2.0
106.014	0.0
106.029	2.0
106.044	1.0
106.059	2.0
106.074	3.0
106.089	3.0
106.104	0.0
106.119	2.0
106.134	2.0
106.148	4.0
106.163	4.0
106.178	3.0
106.193	5.0
106.208	4.0
106.223	1.0
106.238	3.0
106.253	2.0
106.268	3.0
106.283	5.0
106.298	4.0
106.313	1.0
106.328	2.0
106.343	3.0
106.358	2.0
106.373	2.0
106.388	3.0
106.403	0.0
106.418	3.0
106.432	1.0
106.447	7.0
106.462	5.0
106.477	1.0
106.492	2.0
106.507	1.0
106.522	5.0
106.537	1.0
106.552	4.0
106.567	6.0
106.582	5.0
106.597	2.0
106.612	5.0
106.627	3.0
106.642	2.0
106.657	3.0
106.672	5.0
106.687	5.0
106.701	5.0
106.716	6.0
106.731	5.0
106.746	2.0
106.761	6.0
106.776	5.0
106.791	3.0
106.806	3.0
106.821	1.0
106.836	2.0
106.851	2.0
106.866	2.0
106.881	0.0
106.896	4.0
106.911	2.0
106.926	1.0
106.941	3.0
106.955	4.0
106.97	2.0
106.985	4.0
107.0	2.0
107.015	3.0
107.03	4.0
107.045	3.0
107.06	9.0
107.075	2.0
107.09	1.0
107.105	2.0
107.12	1.0
107.135	5.0
107.15	6.0
107.165	9.0
107.18	3.0
107.194	3.0
107.209	3.0
107.224	8.0
107.239	6.0
107.254	3.0
107.269	6.0
107.284	1.0
107.299	5.0
107.314	5.0
107.329	7.0
107.344	4.0
107.359	5.0
107.374	5.0
107.389	9.0
107.404	5.0
107.418	3.0
107.433	6.0
107.448	5.0
107.463	3.0
107.478	1.0
107.493	3.0
107.508	4.0
107.523	5.0
107.538	2.0
107.553	5.0
107.568	2.0
107.583	11.0
107.598	4.0
107.613	3.0
107.627	3.0
107.642	3.0
107.657	1.0
107.672	2.0
107.687	4.0
107.702	2.0
107.717	5.0
107.732	1.0
107.747	4.0
107.762	2.0
107.777	4.0
107.792	7.0
107.807	2.0
107.821	4.0
107.836	2.0
107.851	3.0
107.866	4.0
107.881	2.0
107.896	4.0
107.911	3.0
107.926	4.0
107.941	1.0
107.956	2.0
107.971	3.0
107.986	2.0
108.0	6.0
108.015	0.0
108.03	2.0
108.045	5.0
108.06	6.0
108.075	1.0
108.09	4.0
108.105	7.0
108.12	4.0
108.135	4.0
108.15	4.0
108.164	3.0
108.179	5.0
108.194	5.0
108.209	8.0
108.224	4.0
108.239	3.0
108.254	4.0
108.269	3.0
108.284	2.0
108.299	2.0
108.313	3.0
108.328	5.0
108.343	5.0
108.358	2.0
108.373	3.0
108.388	5.0
108.403	3.0
108.418	2.0
108.433	2.0
108.448	4.0
108.462	4.0
108.477	4.0
108.492	2.0
108.507	4.0
108.522	5.0
108.537	1.0
108.552	5.0
108.567	2.0
108.582	2.0
108.597	2.0
108.611	6.0
108.626	2.0
108.641	4.0
108.656	4.0
108.671	0.0
108.686	2.0
108.701	3.0
108.716	2.0
108.731	2.0
108.745	4.0
108.76	6.0
108.775	2.0
108.79	4.0
108.805	5.0
108.82	5.0
108.835	0.0
108.85	4.0
108.865	3.0
108.879	2.0
108.894	1.0
108.909	5.0
108.924	1.0
108.939	3.0
108.954	5.0
108.969	2.0
108.984	3.0
108.999	1.0
109.013	3.0
109.028	1.0
109.043	4.0
109.058	6.0
109.073	1.0
109.088	2.0
109.103	5.0
109.118	4.0
109.133	3.0
109.147	3.0
109.162	3.0
109.177	3.0
109.192	3.0
109.207	0.0
109.222	2.0
109.237	5.0
109.252	1.0
109.267	0.0
109.281	4.0
109.296	4.0
109.311	0.0
109.326	2.0
109.341	2.0
109.356	3.0
109.371	6.0
109.386	3.0
109.4	1.0
109.415	1.0
109.43	5.0
109.445	3.0
109.46	1.0
109.475	5.0
109.49	4.0
109.505	3.0
109.52	2.0
109.534	2.0
109.549	3.0
109.564	5.0
109.579	4.0
109.594	1.0
109.609	1.0
109.624	1.0
109.639	4.0
109.653	6.0
109.668	3.0
109.683	4.0
109.698	2.0
109.713	3.0
109.728	6.0
109.743	1.0
109.758	3.0
109.773	1.0
109.787	1.0
109.802	2.0
109.817	4.0
109.832	2.0
109.847	5.0
109.862	0.0
109.877	0.0
109.892	3.0
109.907	1.0
109.921	5.0
109.936	3.0
109.951	3.0
109.966	2.0
109.981	1.0
109.996	1.0
110.011	7.0
110.026	8.0
110.04	7.0
110.055	5.0
110.07	0.0
110.085	4.0
110.1	0.0
110.115	4.0
110.13	5.0
110.145	3.0
110.16	3.0
110.174	2.0
110.189	5.0
110.204	4.0
110.219	4.0
110.234	5.0
110.249	3.0
110.264	4.0
110.279	2.0
110.294	6.0
110.308	2.0
110.323	3.0
110.338	6.0
110.353	1.0
110.368	2.0
110.383	2.0
110.398	4.0
110.413	2.0
110.428	3.0
110.442	3.0
110.457	5.0
110.472	4.0
110.487	5.0
110.502	0.0
110.517	3.0
110.532	7.0
110.547	4.0
110.561	4.0
110.576	3.0
110.591	1.0
110.606	2.0
110.621	3.0
110.636	1.0
110.651	3.0
110.666	5.0
110.681	2.0
110.695	3.0
110.71	6.0
110.725	1.0
110.74	6.0
110.755	3.0
110.77	4.0
110.785	2.0
110.8	4.0
110.815	3.0
110.829	3.0
110.844	2.0
110.859	1.0
110.874	5.0
110.889	4.0
110.904	3.0
110.919	3.0
110.934	2.0
110.948	3.0
110.963	3.0
110.978	3.0
110.993	9.0
111.008	5.0
111.023	6.0
111.038	4.0
111.053	4.0
111.067	1.0
111.082	2.0
111.097	6.0
111.112	2.0
111.127	2.0
111.142	3.0
111.157	1.0
111.172	4.0
111.186	3.0
111.201	1.0
111.216	2.0
111.231	1.0
111.246	3.0
111.261	0.0
111.276	2.0
111.291	0.0
111.305	3.0
111.32	6.0
111.335	8.0
111.35	2.0
111.365	5.0
111.38	5.0
111.395	4.0
111.41	2.0
111.424	3.0
111.439	0.0
111.454	3.0
111.469	1.0
111.484	5.0
111.499	5.0
111.514	3.0
111.528	2.0
111.543	3.0
111.558	2.0
111.573	1.0
111.588	4.0
111.603	4.0
111.618	2.0
111.633	1.0
111.647	1.0
111.662	3.0
111.677	4.0
111.692	5.0
111.707	4.0
111.722	9.0
111.737	2.0
111.751	3.0
111.766	4.0
111.781	1.0
111.796	1.0
111.811	2.0
111.826	3.0
111.84	3.0
111.855	1.0
111.87	2.0
111.885	4.0
111.9	2.0
111.915	3.0
111.93	3.0
111.944	4.0
111.959	8.0
111.974	2.0
111.989	4.0
112.004	5.0
112.019	2.0
112.033	0.0
112.048	2.0
112.063	2.0
112.078	2.0
112.093	7.0
112.108	4.0
112.123	4.0
112.137	5.0
112.152	4.0
112.167	4.0
112.182	2.0
112.197	7.0
112.212	8.0
112.226	2.0
112.241	2.0
112.256	3.0
112.271	5.0
112.286	3.0
112.301	2.0
112.315	3.0
112.33	2.0
112.345	4.0
112.36	6.0
112.375	4.0
112.389	2.0
112.404	4.0
112.419	4.0
112.434	2.0
112.449	2.0
112.464	1.0
112.478	2.0
112.493	3.0
112.508	3.0
112.523	3.0
112.538	2.0
112.553	3.0
112.567	4.0
112.582	1.0
112.597	5.0
112.612	2.0
112.627	5.0
112.642	0.0
112.656	0.0
112.671	3.0
112.686	8.0
112.701	3.0
112.716	4.0
112.73	4.0
112.745	5.0
112.76	3.0
112.775	4.0
112.79	5.0
112.805	2.0
112.819	3.0
112.834	2.0
112.849	4.0
112.864	2.0
112.879	0.0
112.894	5.0
112.908	3.0
112.923	2.0
112.938	3.0
112.953	1.0
112.968	5.0
112.983	4.0
112.997	4.0
113.012	4.0
113.027	2.0
113.042	4.0
113.057	6.0
113.072	4.0
113.086	2.0
113.101	1.0
113.116	4.0
113.131	7.0
113.146	4.0
113.161	6.0
113.175	2.0
113.19	5.0
113.205	2.0
113.22	8.0
113.235	4.0
113.25	3.0
113.265	4.0
113.279	1.0
113.294	1.0
113.309	2.0
113.324	2.0
113.339	5.0
113.354	2.0
113.368	4.0
113.383	6.0
113.398	0.0
113.413	4.0
113.428	3.0
113.443	6.0
113.458	2.0
113.472	4.0
113.487	4.0
113.502	1.0
113.517	1.0
113.532	5.0
113.547	6.0
113.562	3.0
113.576	2.0
113.591	2.0
113.606	6.0
113.621	3.0
113.636	0.0
113.651	2.0
113.666	3.0
113.681	4.0
113.695	1.0
113.71	4.0
113.725	1.0
113.74	2.0
113.755	0.0
113.77	2.0
113.785	5.0
113.8	3.0
113.814	6.0
113.829	2.0
113.844	2.0
113.859	7.0
113.874	5.0
113.889	3.0
113.904	2.0
113.919	3.0
113.934	3.0
113.949	6.0
113.963	3.0
113.978	3.0
113.993	2.0
114.008	3.0
114.023	8.0
114.038	1.0
114.053	2.0
114.068	2.0
114.083	4.0
114.098	3.0
114.113	6.0
114.127	6.0
114.142	3.0
114.157	5.0
114.172	6.0
114.187	2.0
114.202	1.0
114.217	1.0
114.232	2.0
114.247	5.0
114.262	6.0
114.277	3.0
114.292	5.0
114.307	4.0
114.322	6.0
114.337	2.0
114.351	5.0
114.366	1.0
114.381	5.0
114.396	7.0
114.411	1.0
114.426	6.0
114.441	3.0
114.456	4.0
114.471	6.0
114.486	5.0
114.501	1.0
114.516	5.0
114.531	4.0
114.546	6.0
114.561	1.0
114.576	2.0
114.591	7.0
114.606	3.0
114.621	5.0
114.636	2.0
114.65	4.0
114.665	5.0
114.68	4.0
114.695	5.0
114.71	5.0
114.725	6.0
114.74	2.0
114.755	3.0
114.77	0.0
114.785	4.0
114.8	1.0
114.815	6.0
114.83	3.0
114.845	3.0
114.86	4.0
114.875	2.0
114.89	3.0
114.905	6.0
114.92	3.0
114.935	6.0
114.95	1.0
114.965	3.0
114.98	4.0
114.995	3.0
115.009	4.0
115.024	3.0
115.039	2.0
115.054	1.0
115.069	6.0
115.084	4.0
115.099	2.0
115.114	4.0
115.129	2.0
115.144	1.0
115.159	3.0
115.174	2.0
115.189	4.0
115.204	2.0
115.219	4.0
115.234	6.0
115.249	3.0
115.264	4.0
115.279	8.0
115.294	3.0
115.309	4.0
115.323	4.0
115.338	6.0
115.353	2.0
115.368	7.0
115.383	0.0
115.398	8.0
115.413	5.0
115.428	6.0
115.443	1.0
115.458	4.0
115.473	2.0
115.488	5.0
115.503	3.0
115.518	2.0
115.533	4.0
115.548	2.0
115.562	3.0
115.577	2.0
115.592	2.0
115.607	4.0
115.622	1.0
115.637	8.0
115.652	2.0
115.667	5.0
115.682	4.0
115.697	2.0
115.712	6.0
115.727	2.0
115.741	6.0
115.756	1.0
115.771	5.0
115.786	1.0
115.801	1.0
115.816	2.0
115.831	2.0
115.846	2.0
115.861	5.0
115.875	3.0
115.89	1.0
115.905	3.0
115.92	1.0
115.935	4.0
115.95	2.0
115.965	2.0
115.98	1.0
115.995	1.0
116.009	4.0
116.024	3.0
116.039	3.0
116.054	2.0
116.069	4.0
116.084	3.0
116.099	2.0
116.113	2.0
116.128	4.0
116.143	3.0
116.158	6.0
116.173	5.0
116.188	5.0
116.202	5.0
116.217	3.0
116.232	1.0
116.247	4.0
116.262	5.0
116.277	7.0
116.291	5.0
116.306	6.0
116.321	6.0
116.336	2.0
116.351	1.0
116.366	0.0
116.38	3.0
116.395	6.0
116.41	5.0
116.425	1.0
116.44	6.0
116.454	4.0
116.469	3.0
116.484	4.0
116.499	2.0
116.514	4.0
116.528	7.0
116.543	2.0
116.558	0.0
116.573	4.0
116.588	3.0
116.602	3.0
116.617	3.0
116.632	1.0
116.647	3.0
116.662	10.0
116.676	5.0
116.691	4.0
116.706	1.0
116.721	1.0
116.735	4.0
116.75	2.0
116.765	6.0
116.78	2.0
116.795	2.0
116.809	5.0
116.824	5.0
116.839	2.0
116.854	4.0
116.868	2.0
116.883	3.0
116.898	4.0
116.913	2.0
116.927	2.0
116.942	8.0
116.957	2.0
116.972	6.0
116.986	0.0
117.001	2.0
117.016	4.0
117.031	4.0
117.045	2.0
117.06	1.0
117.075	3.0
117.09	4.0
117.104	4.0
117.119	3.0
117.134	5.0
117.149	1.0
117.163	1.0
117.178	4.0
117.193	4.0
117.208	6.0
117.222	3.0
117.237	1.0
117.252	3.0
117.267	4.0
117.281	5.0
117.296	3.0
117.311	4.0
117.325	3.0
117.34	4.0
117.355	5.0
117.37	4.0
117.384	2.0
117.399	5.0
117.414	3.0
117.429	7.0
117.443	5.0
117.458	4.0
117.473	3.0
117.487	1.0
117.502	2.0
117.517	6.0
117.532	6.0
117.546	4.0
117.561	3.0
117.576	1.0
117.59	3.0
117.605	3.0
117.62	2.0
117.635	2.0
117.649	3.0
117.664	3.0
117.679	7.0
117.693	2.0
117.708	3.0
117.723	6.0
117.738	3.0
117.752	6.0
117.767	3.0
117.782	2.0
117.796	4.0
117.811	0.0
117.826	3.0
117.841	4.0
117.855	2.0
117.87	3.0
117.885	2.0
117.899	2.0
117.914	3.0
117.929	2.0
117.944	5.0
117.958	2.0
117.973	4.0
117.988	2.0
118.002	3.0
118.017	7.0
118.032	4.0
118.047	2.0
118.062	6.0
118.077	3.0
118.092	5.0
118.107	3.0
118.121	3.0
118.136	2.0
118.151	4.0
118.166	4.0
118.181	4.0
118.196	2.0
118.211	6.0
118.225	4.0
118.24	4.0
118.255	4.0
118.27	1.0
118.285	8.0
118.3	0.0
118.315	4.0
118.33	8.0
118.344	0.0
118.359	2.0
118.374	1.0
118.389	2.0
118.404	1.0
118.419	5.0
118.434	5.0
118.449	2.0
118.463	3.0
118.478	7.0
118.493	5.0
118.508	3.0
118.523	3.0
118.538	2.0
118.553	5.0
118.567	3.0
118.582	3.0
118.597	2.0
118.612	2.0
118.627	6.0
118.642	2.0
118.657	1.0
118.672	3.0
118.686	3.0
118.701	2.0
118.716	2.0
118.731	4.0
118.746	2.0
118.761	4.0
118.776	4.0
118.791	3.0
118.805	4.0
118.82	2.0
118.835	1.0
118.85	7.0
118.865	6.0
118.88	7.0
118.895	5.0
118.909	6.0
118.924	3.0
118.939	1.0
118.954	3.0
118.969	1.0
118.984	3.0
118.999	2.0
119.014	5.0
119.028	2.0
119.043	1.0
119.058	3.0
119.073	7.0
119.088	3.0
119.103	6.0
119.118	5.0
119.133	1.0
119.147	10.0
119.162	2.0
119.177	10.0
119.192	5.0
119.207	6.0
119.222	7.0
119.237	3.0
119.251	3.0
119.266	3.0
119.281	4.0
119.296	6.0
119.311	2.0
119.326	1.0
119.341	5.0
119.356	3.0
119.37	5.0
119.385	4.0
119.4	2.0
119.415	4.0
119.43	1.0
119.445	3.0
119.46	7.0
119.475	3.0
119.489	3.0
119.504	4.0
119.519	5.0
119.534	4.0
119.549	2.0
119.564	1.0
119.579	5.0
119.593	2.0
119.608	5.0
119.623	3.0
119.638	4.0
119.653	4.0
119.668	4.0
119.683	2.0
119.698	1.0
119.712	3.0
119.727	2.0
119.742	3.0
119.757	3.0
119.772	3.0
119.787	4.0
119.802	6.0
119.817	3.0
119.831	4.0
119.846	0.0
119.861	3.0
119.876	2.0
119.891	3.0
119.906	3.0
119.921	2.0
119.935	3.0
119.95	3.0
119.965	4.0
119.98	3.0
119.995	2.0
120.01	3.0
120.025	2.0
120.04	4.0
120.054	3.0
120.069	3.0
120.084	2.0
120.099	1.0
120.114	1.0
120.129	4.0
120.144	1.0
120.159	5.0
120.173	3.0
120.188	1.0
120.203	0.0
120.218	0.0
120.233	1.0
120.248	0.0
120.263	0.0
120.277	0.0
120.292	0.0
120.307	0.0
120.322	0.0
120.337	1.0
120.352	0.0
120.367	0.0
120.382	0.0
120.396	0.0
120.411	0.0
120.426	0.0
120.441	0.0
120.456	0.0
120.471	0.0
120.486	0.0
120.501	0.0
120.515	0.0
120.53	0.0
120.545	0.0
120.56	1.0
120.575	0.0
120.59	1.0
120.605	0.0
120.619	0.0
120.634	0.0
120.649	0.0
120.664	0.0
120.679	0.0
120.694	0.0
120.709	0.0
120.724	0.0
120.738	0.0
120.753	0.0
120.768	0.0
120.783	0.0
120.798	0.0
120.813	0.0
120.828	0.0
120.843	0.0
120.857	0.0
120.872	0.0
120.887	0.0
120.902	0.0
120.917	0.0
120.932	0.0
120.947	0.0
120.961	0.0
120.976	0.0
