-1.217	0.0
-1.202	0.0
-1.187	0.0
-1.172	0.0
-1.157	0.0
-1.142	0.0
-1.128	0.0
-1.113	0.0
-1.098	0.0
-1.083	0.0
-1.068	0.0
-1.054	0.0
-1.039	0.0
-1.024	0.0
-1.009	0.0
-0.994	0.0
-0.979	0.0
-0.965	0.0
-0.95	0.0
-0.935	0.0
-0.92	0.0
-0.905	0.0
-0.891	0.0
-0.876	0.0
-0.861	0.0
-0.846	1.0
-0.831	0.0
-0.816	0.0
-0.802	0.0
-0.787	0.0
-0.772	0.0
-0.757	0.0
-0.742	0.0
-0.728	0.0
-0.713	0.0
-0.698	0.0
-0.683	0.0
-0.668	0.0
-0.653	0.0
-0.639	0.0
-0.624	0.0
-0.609	0.0
-0.594	0.0
-0.579	0.0
-0.565	0.0
-0.55	0.0
-0.535	0.0
-0.52	0.0
-0.505	0.0
-0.49	0.0
-0.476	0.0
-0.461	0.0
-0.446	0.0
-0.431	0.0
-0.416	0.0
-0.401	0.0
-0.387	0.0
-0.372	0.0
-0.357	0.0
-0.342	0.0
-0.327	0.0
-0.313	0.0
-0.298	0.0
-0.283	0.0
-0.268	0.0
-0.253	0.0
-0.238	0.0
-0.224	0.0
-0.209	0.0
-0.194	0.0
-0.179	0.0
-0.164	1.0
-0.15	0.0
-0.135	0.0
-0.12	0.0
-0.105	0.0
-0.09	0.0
-0.075	1.0
-0.061	0.0
-0.046	0.0
-0.031	0.0
-0.016	0.0
-0.001	0.0
0.013	0.0
0.028	0.0
0.043	0.0
0.058	0.0
0.073	0.0
0.088	0.0
0.102	0.0
0.117	0.0
0.132	0.0
0.147	0.0
0.162	0.0
0.176	0.0
0.191	0.0
0.206	0.0
0.221	0.0
0.236	1.0
0.251	0.0
0.265	0.0
0.28	0.0
0.295	0.0
0.31	0.0
0.325	0.0
0.339	1.0
0.354	0.0
0.369	0.0
0.384	0.0
0.399	0.0
0.414	0.0
0.428	0.0
0.443	0.0
0.458	0.0
0.473	0.0
0.488	0.0
0.502	0.0
0.517	1.0
0.532	0.0
0.547	0.0
0.562	0.0
0.577	0.0
0.591	0.0
0.606	0.0
0.621	0.0
0.636	0.0
0.651	0.0
0.665	0.0
0.68	0.0
0.695	0.0
0.71	0.0
0.725	0.0
0.74	0.0
0.754	1.0
0.769	0.0
0.784	0.0
0.799	0.0
0.814	0.0
0.828	0.0
0.843	0.0
0.858	0.0
0.873	0.0
0.888	0.0
0.903	0.0
0.917	0.0
0.932	0.0
0.947	0.0
0.962	0.0
0.977	0.0
0.991	0.0
1.006	0.0
1.021	1.0
1.036	0.0
1.051	0.0
1.065	0.0
1.08	0.0
1.095	0.0
1.11	0.0
1.125	0.0
1.14	0.0
1.154	0.0
1.169	0.0
1.184	0.0
1.199	0.0
1.214	0.0
1.228	0.0
1.243	0.0
1.258	0.0
1.273	0.0
1.288	0.0
1.302	0.0
1.317	0.0
1.332	0.0
1.347	0.0
1.362	1.0
1.376	0.0
1.391	0.0
1.406	0.0
1.421	0.0
1.436	0.0
1.45	1.0
1.465	0.0
1.48	0.0
1.495	0.0
1.51	0.0
1.524	0.0
1.539	0.0
1.554	0.0
1.569	1.0
1.584	1.0
1.598	0.0
1.613	0.0
1.628	0.0
1.643	0.0
1.658	0.0
1.672	0.0
1.687	0.0
1.702	0.0
1.717	0.0
1.732	1.0
1.746	0.0
1.761	0.0
1.776	0.0
1.791	0.0
1.806	0.0
1.82	0.0
1.835	0.0
1.85	0.0
1.865	0.0
1.88	0.0
1.894	0.0
1.909	1.0
1.924	0.0
1.939	0.0
1.954	0.0
1.968	0.0
1.983	1.0
1.998	0.0
2.013	1.0
2.028	0.0
2.042	0.0
2.057	0.0
2.072	0.0
2.087	0.0
2.101	2.0
2.116	0.0
2.131	0.0
2.146	0.0
2.161	0.0
2.175	0.0
2.19	0.0
2.205	1.0
2.22	0.0
2.235	0.0
2.249	2.0
2.264	0.0
2.279	0.0
2.294	0.0
2.308	1.0
2.323	0.0
2.338	0.0
2.353	1.0
2.368	1.0
2.382	1.0
2.397	2.0
2.412	2.0
2.427	2.0
2.442	2.0
2.456	1.0
2.471	0.0
2.486	0.0
2.501	1.0
2.515	1.0
2.53	1.0
2.545	4.0
2.56	1.0
2.575	2.0
2.589	1.0
2.604	2.0
2.619	2.0
2.634	1.0
2.649	2.0
2.663	3.0
2.678	2.0
2.693	1.0
2.708	4.0
2.722	3.0
2.737	1.0
2.752	4.0
2.767	5.0
2.782	6.0
2.796	7.0
2.811	6.0
2.826	3.0
2.841	5.0
2.856	3.0
2.87	2.0
2.885	3.0
2.9	4.0
2.915	5.0
2.93	1.0
2.944	6.0
2.959	1.0
2.974	4.0
2.989	4.0
3.004	2.0
3.018	3.0
3.033	4.0
3.048	3.0
3.063	3.0
3.078	2.0
3.092	2.0
3.107	2.0
3.122	3.0
3.137	2.0
3.152	6.0
3.166	6.0
3.181	4.0
3.196	6.0
3.211	2.0
3.226	5.0
3.24	5.0
3.255	6.0
3.27	6.0
3.285	8.0
3.3	2.0
3.315	5.0
3.329	10.0
3.344	6.0
3.359	3.0
3.374	6.0
3.389	3.0
3.403	7.0
3.418	6.0
3.433	2.0
3.448	2.0
3.463	2.0
3.478	5.0
3.492	6.0
3.507	3.0
3.522	4.0
3.537	3.0
3.552	4.0
3.567	5.0
3.581	7.0
3.596	5.0
3.611	2.0
3.626	5.0
3.641	3.0
3.656	4.0
3.671	5.0
3.685	11.0
3.7	4.0
3.715	5.0
3.73	8.0
3.745	7.0
3.76	11.0
3.775	11.0
3.789	7.0
3.804	3.0
3.819	7.0
3.834	7.0
3.849	5.0
3.864	7.0
3.879	11.0
3.894	4.0
3.908	5.0
3.923	3.0
3.938	5.0
3.953	6.0
3.968	10.0
3.983	9.0
3.998	7.0
4.013	4.0
4.027	9.0
4.042	6.0
4.057	11.0
4.072	7.0
4.087	4.0
4.102	7.0
4.117	6.0
4.132	8.0
4.147	2.0
4.162	3.0
4.176	4.0
4.191	8.0
4.206	6.0
4.221	10.0
4.236	7.0
4.251	6.0
4.266	8.0
4.281	10.0
4.296	6.0
4.311	5.0
4.326	4.0
4.341	3.0
4.356	9.0
4.37	10.0
4.385	10.0
4.4	6.0
4.415	12.0
4.43	8.0
4.445	5.0
4.46	7.0
4.475	6.0
4.49	8.0
4.505	7.0
4.52	7.0
4.535	13.0
4.55	6.0
4.565	6.0
4.58	6.0
4.595	7.0
4.61	14.0
4.625	5.0
4.639	12.0
4.654	5.0
4.669	6.0
4.684	6.0
4.699	9.0
4.714	2.0
4.729	9.0
4.744	5.0
4.759	9.0
4.774	5.0
4.789	3.0
4.804	7.0
4.819	10.0
4.834	3.0
4.849	6.0
4.864	6.0
4.879	4.0
4.894	6.0
4.909	9.0
4.924	6.0
4.939	11.0
4.954	10.0
4.969	9.0
4.984	5.0
4.999	9.0
5.014	15.0
5.029	11.0
5.044	4.0
5.059	12.0
5.074	3.0
5.089	8.0
5.104	12.0
5.119	5.0
5.134	5.0
5.149	11.0
5.164	8.0
5.179	8.0
5.194	10.0
5.209	5.0
5.224	6.0
5.239	5.0
5.254	9.0
5.269	7.0
5.284	11.0
5.299	7.0
5.314	10.0
5.329	4.0
5.344	4.0
5.359	5.0
5.374	6.0
5.389	4.0
5.404	7.0
5.419	8.0
5.434	9.0
5.449	7.0
5.464	3.0
5.479	9.0
5.494	13.0
5.509	7.0
5.524	5.0
5.539	10.0
5.554	10.0
5.569	11.0
5.584	8.0
5.599	10.0
5.614	11.0
5.629	11.0
5.644	9.0
5.659	10.0
5.674	7.0
5.689	13.0
5.704	7.0
5.719	2.0
5.734	8.0
5.749	9.0
5.764	7.0
5.779	8.0
5.794	7.0
5.809	9.0
5.824	13.0
5.839	9.0
5.854	8.0
5.869	9.0
5.884	9.0
5.899	14.0
5.914	7.0
5.929	3.0
5.944	11.0
5.959	6.0
5.974	9.0
5.989	12.0
6.004	11.0
6.019	8.0
6.034	10.0
6.049	13.0
6.064	7.0
6.079	12.0
6.094	10.0
6.109	6.0
6.124	6.0
6.139	4.0
6.154	9.0
6.169	4.0
6.184	13.0
6.199	8.0
6.214	10.0
6.229	7.0
6.244	11.0
6.259	11.0
6.274	8.0
6.289	9.0
6.304	7.0
6.319	11.0
6.334	8.0
6.349	10.0
6.364	7.0
6.379	8.0
6.394	6.0
6.409	9.0
6.424	7.0
6.439	5.0
6.454	8.0
6.469	7.0
6.484	6.0
6.499	10.0
6.514	5.0
6.529	11.0
6.544	3.0
6.559	7.0
6.574	6.0
6.589	5.0
6.604	7.0
6.619	12.0
6.634	15.0
6.649	6.0
6.664	4.0
6.679	7.0
6.694	6.0
6.709	10.0
6.724	9.0
6.739	14.0
6.754	15.0
6.769	7.0
6.784	5.0
6.799	10.0
6.814	12.0
6.829	6.0
6.844	10.0
6.859	7.0
6.873	7.0
6.888	7.0
6.903	16.0
6.918	12.0
6.933	12.0
6.948	11.0
6.963	9.0
6.978	6.0
6.993	8.0
7.008	11.0
7.023	12.0
7.038	5.0
7.053	6.0
7.068	7.0
7.083	8.0
7.098	9.0
7.113	7.0
7.128	11.0
7.143	12.0
7.157	17.0
7.172	9.0
7.187	7.0
7.202	8.0
7.217	11.0
7.232	8.0
7.247	13.0
7.262	7.0
7.277	7.0
7.292	7.0
7.307	8.0
7.322	3.0
7.336	11.0
7.351	11.0
7.366	9.0
7.381	8.0
7.396	8.0
7.411	9.0
7.426	6.0
7.441	14.0
7.456	6.0
7.471	11.0
7.485	8.0
7.5	5.0
7.515	5.0
7.53	5.0
7.545	6.0
7.56	8.0
7.575	8.0
7.59	9.0
7.604	13.0
7.619	9.0
7.634	9.0
7.649	5.0
7.664	7.0
7.679	7.0
7.693	11.0
7.708	9.0
7.723	16.0
7.738	11.0
7.753	8.0
7.768	14.0
7.783	12.0
7.797	11.0
7.812	6.0
7.827	5.0
7.842	7.0
7.857	6.0
7.871	11.0
7.886	16.0
7.901	6.0
7.916	9.0
7.931	7.0
7.945	10.0
7.96	14.0
7.975	8.0
7.99	14.0
8.005	8.0
8.019	10.0
8.034	9.0
8.049	6.0
8.064	8.0
8.078	6.0
8.093	8.0
8.108	5.0
8.123	13.0
8.137	8.0
8.152	10.0
8.167	7.0
8.182	9.0
8.196	6.0
8.211	6.0
8.226	13.0
8.241	5.0
8.255	6.0
8.27	8.0
8.285	17.0
8.3	6.0
8.314	9.0
8.329	14.0
8.344	7.0
8.358	9.0
8.373	7.0
8.388	9.0
8.403	8.0
8.417	12.0
8.432	9.0
8.447	10.0
8.461	9.0
8.476	10.0
8.491	9.0
8.505	8.0
8.52	6.0
8.535	10.0
8.55	4.0
8.564	10.0
8.579	11.0
8.594	11.0
8.608	10.0
8.623	11.0
8.638	9.0
8.652	8.0
8.667	8.0
8.682	11.0
8.696	10.0
8.711	7.0
8.726	7.0
8.74	6.0
8.755	6.0
8.77	11.0
8.784	7.0
8.799	12.0
8.814	14.0
8.828	11.0
8.843	13.0
8.858	4.0
8.872	12.0
8.887	15.0
8.902	2.0
8.916	9.0
8.931	6.0
8.946	10.0
8.96	5.0
8.975	11.0
8.99	15.0
9.004	7.0
9.019	8.0
9.034	5.0
9.048	6.0
9.063	8.0
9.077	11.0
9.092	11.0
9.107	6.0
9.121	9.0
9.136	5.0
9.151	8.0
9.165	7.0
9.18	3.0
9.195	10.0
9.209	4.0
9.224	6.0
9.239	7.0
9.253	10.0
9.268	10.0
9.283	1.0
9.297	18.0
9.312	8.0
9.327	9.0
9.341	8.0
9.356	7.0
9.371	10.0
9.385	9.0
9.4	10.0
9.415	13.0
9.429	7.0
9.444	5.0
9.458	10.0
9.473	10.0
9.488	5.0
9.502	8.0
9.517	8.0
9.532	10.0
9.546	9.0
9.561	3.0
9.576	7.0
9.59	10.0
9.605	8.0
9.62	4.0
9.635	10.0
9.649	11.0
9.664	10.0
9.679	11.0
9.693	5.0
9.708	10.0
9.723	8.0
9.737	9.0
9.752	9.0
9.767	13.0
9.781	10.0
9.796	6.0
9.811	13.0
9.825	5.0
9.84	12.0
9.855	10.0
9.87	7.0
9.884	9.0
9.899	6.0
9.914	11.0
9.928	6.0
9.943	13.0
9.958	9.0
9.973	5.0
9.987	11.0
10.002	7.0
10.017	4.0
10.031	9.0
10.046	7.0
10.061	6.0
10.076	9.0
10.09	7.0
10.105	4.0
10.12	9.0
10.135	8.0
10.149	7.0
10.164	9.0
10.179	5.0
10.194	6.0
10.208	7.0
10.223	8.0
10.238	6.0
10.253	6.0
10.267	4.0
10.282	7.0
10.297	8.0
10.312	11.0
10.326	5.0
10.341	9.0
10.356	5.0
10.371	9.0
10.386	11.0
10.4	9.0
10.415	12.0
10.43	7.0
10.445	15.0
10.46	8.0
10.474	8.0
10.489	12.0
10.504	6.0
10.519	8.0
10.533	5.0
10.548	6.0
10.563	9.0
10.578	9.0
10.593	9.0
10.608	10.0
10.622	7.0
10.637	13.0
10.652	13.0
10.667	6.0
10.682	7.0
10.696	10.0
10.711	7.0
10.726	9.0
10.741	6.0
10.756	5.0
10.771	11.0
10.785	7.0
10.8	5.0
10.815	9.0
10.83	5.0
10.845	13.0
10.86	8.0
10.874	9.0
10.889	12.0
10.904	6.0
10.919	7.0
10.934	3.0
10.949	10.0
10.963	6.0
10.978	9.0
10.993	5.0
11.008	7.0
11.023	7.0
11.038	12.0
11.053	3.0
11.067	7.0
11.082	9.0
11.097	6.0
11.112	10.0
11.127	7.0
11.142	13.0
11.157	12.0
11.172	7.0
11.186	9.0
11.201	2.0
11.216	10.0
11.231	7.0
11.246	4.0
11.261	7.0
11.276	7.0
11.291	5.0
11.305	5.0
11.32	9.0
11.335	8.0
11.35	9.0
11.365	5.0
11.38	9.0
11.395	7.0
11.41	8.0
11.424	8.0
11.439	12.0
11.454	7.0
11.469	8.0
11.484	4.0
11.499	9.0
11.514	8.0
11.529	7.0
11.544	10.0
11.558	12.0
11.573	4.0
11.588	5.0
11.603	10.0
11.618	6.0
11.633	11.0
11.648	11.0
11.663	5.0
11.678	4.0
11.693	12.0
11.707	8.0
11.722	13.0
11.737	13.0
11.752	10.0
11.767	8.0
11.782	12.0
11.797	10.0
11.812	3.0
11.827	7.0
11.842	2.0
11.856	8.0
11.871	8.0
11.886	8.0
11.901	11.0
11.916	11.0
11.931	8.0
11.946	6.0
11.961	8.0
11.976	7.0
11.991	8.0
12.006	6.0
12.02	7.0
12.035	7.0
12.05	11.0
12.065	9.0
12.08	7.0
12.095	7.0
12.11	9.0
12.125	6.0
12.14	11.0
12.155	10.0
12.17	9.0
12.184	11.0
12.199	12.0
12.214	8.0
12.229	8.0
12.244	8.0
12.259	6.0
12.274	13.0
12.289	8.0
12.304	5.0
12.319	11.0
12.334	11.0
12.348	11.0
12.363	11.0
12.378	10.0
12.393	8.0
12.408	7.0
12.423	13.0
12.438	12.0
12.453	8.0
12.468	10.0
12.483	7.0
12.498	11.0
12.513	13.0
12.527	8.0
12.542	12.0
12.557	12.0
12.572	8.0
12.587	15.0
12.602	7.0
12.617	13.0
12.632	11.0
12.647	7.0
12.662	12.0
12.677	11.0
12.692	16.0
12.707	9.0
12.721	10.0
12.736	23.0
12.751	10.0
12.766	6.0
12.781	13.0
12.796	11.0
12.811	8.0
12.826	11.0
12.841	13.0
12.856	11.0
12.871	15.0
12.886	11.0
12.9	18.0
12.915	15.0
12.93	13.0
12.945	13.0
12.96	14.0
12.975	11.0
12.99	14.0
13.005	13.0
13.02	9.0
13.035	18.0
13.05	15.0
13.065	15.0
13.08	12.0
13.094	24.0
13.109	15.0
13.124	15.0
13.139	24.0
13.154	12.0
13.169	17.0
13.184	20.0
13.199	10.0
13.214	24.0
13.229	17.0
13.244	22.0
13.259	17.0
13.274	20.0
13.288	18.0
13.303	21.0
13.318	17.0
13.333	15.0
13.348	14.0
13.363	28.0
13.378	25.0
13.393	28.0
13.408	19.0
13.423	19.0
13.438	41.0
13.453	34.0
13.468	27.0
13.482	30.0
13.497	42.0
13.512	37.0
13.527	39.0
13.542	35.0
13.557	28.0
13.572	46.0
13.587	47.0
13.602	77.0
13.617	62.0
13.632	78.0
13.647	80.0
13.662	86.0
13.677	77.0
13.691	76.0
13.706	80.0
13.721	80.0
13.736	98.0
13.751	113.0
13.766	128.0
13.781	138.0
13.796	117.0
13.811	105.0
13.826	146.0
13.841	116.0
13.856	100.0
13.871	102.0
13.885	92.0
13.9	100.0
13.915	77.0
13.93	62.0
13.945	67.0
13.96	60.0
13.975	51.0
13.99	30.0
14.005	37.0
14.02	26.0
14.035	27.0
14.05	21.0
14.065	28.0
14.08	19.0
14.094	23.0
14.109	22.0
14.124	22.0
14.139	26.0
14.154	34.0
14.169	28.0
14.184	19.0
14.199	28.0
14.214	26.0
14.229	18.0
14.244	25.0
14.259	20.0
14.274	20.0
14.288	21.0
14.303	23.0
14.318	17.0
14.333	24.0
14.348	25.0
14.363	19.0
14.378	15.0
14.393	15.0
14.408	19.0
14.423	15.0
14.438	18.0
14.453	18.0
14.468	13.0
14.482	21.0
14.497	15.0
14.512	17.0
14.527	14.0
14.542	24.0
14.557	14.0
14.572	17.0
14.587	14.0
14.602	13.0
14.617	13.0
14.632	12.0
14.647	16.0
14.661	13.0
14.676	13.0
14.691	11.0
14.706	17.0
14.721	15.0
14.736	20.0
14.751	17.0
14.766	16.0
14.781	16.0
14.796	15.0
14.811	8.0
14.826	18.0
14.84	13.0
14.855	17.0
14.87	20.0
14.885	16.0
14.9	19.0
14.915	15.0
14.93	17.0
14.945	9.0
14.96	18.0
14.975	11.0
14.989	10.0
15.004	9.0
15.019	29.0
15.034	17.0
15.049	13.0
15.064	16.0
15.079	12.0
15.094	17.0
15.109	17.0
15.124	14.0
15.138	20.0
15.153	15.0
15.168	18.0
15.183	22.0
15.198	18.0
15.213	18.0
15.228	12.0
15.243	12.0
15.258	14.0
15.272	7.0
15.287	17.0
15.302	17.0
15.317	18.0
15.332	18.0
15.347	12.0
15.362	13.0
15.377	16.0
15.391	17.0
15.406	15.0
15.421	18.0
15.436	13.0
15.451	12.0
15.466	19.0
15.481	18.0
15.496	16.0
15.51	12.0
15.525	13.0
15.54	12.0
15.555	20.0
15.57	12.0
15.585	12.0
15.6	19.0
15.614	8.0
15.629	8.0
15.644	7.0
15.659	17.0
15.674	12.0
15.689	14.0
15.704	16.0
15.718	10.0
15.733	11.0
15.748	13.0
15.763	12.0
15.778	8.0
15.793	16.0
15.808	12.0
15.822	10.0
15.837	16.0
15.852	17.0
15.867	13.0
15.882	11.0
15.897	15.0
15.911	13.0
15.926	9.0
15.941	12.0
15.956	18.0
15.971	12.0
15.986	14.0
16.0	11.0
16.015	14.0
16.03	22.0
16.045	14.0
16.06	18.0
16.074	15.0
16.089	10.0
16.104	12.0
16.119	13.0
16.134	13.0
16.149	18.0
16.163	10.0
16.178	12.0
16.193	12.0
16.208	17.0
16.223	13.0
16.237	16.0
16.252	18.0
16.267	10.0
16.282	12.0
16.297	9.0
16.311	17.0
16.326	10.0
16.341	23.0
16.356	13.0
16.37	25.0
16.385	22.0
16.4	15.0
16.415	15.0
16.43	19.0
16.444	10.0
16.459	11.0
16.474	12.0
16.489	24.0
16.504	22.0
16.518	15.0
16.533	15.0
16.548	22.0
16.563	15.0
16.577	16.0
16.592	17.0
16.607	12.0
16.622	13.0
16.637	24.0
16.651	19.0
16.666	23.0
16.681	21.0
16.696	19.0
16.71	23.0
16.725	34.0
16.74	27.0
16.755	31.0
16.77	34.0
16.784	34.0
16.799	38.0
16.814	29.0
16.829	47.0
16.843	38.0
16.858	44.0
16.873	56.0
16.888	69.0
16.902	56.0
16.917	69.0
16.932	75.0
16.947	74.0
16.961	75.0
16.976	76.0
16.991	66.0
17.006	62.0
17.021	65.0
17.035	57.0
17.05	43.0
17.065	43.0
17.08	36.0
17.094	37.0
17.109	24.0
17.124	22.0
17.139	27.0
17.153	20.0
17.168	22.0
17.183	18.0
17.198	21.0
17.212	17.0
17.227	11.0
17.242	18.0
17.257	16.0
17.271	22.0
17.286	9.0
17.301	19.0
17.316	18.0
17.33	16.0
17.345	13.0
17.36	11.0
17.375	19.0
17.39	10.0
17.404	11.0
17.419	11.0
17.434	16.0
17.449	11.0
17.463	17.0
17.478	15.0
17.493	13.0
17.508	17.0
17.522	12.0
17.537	23.0
17.552	15.0
17.567	12.0
17.581	16.0
17.596	18.0
17.611	12.0
17.626	18.0
17.641	13.0
17.655	12.0
17.67	9.0
17.685	9.0
17.7	13.0
17.714	9.0
17.729	13.0
17.744	9.0
17.759	17.0
17.773	11.0
17.788	14.0
17.803	9.0
17.818	11.0
17.833	16.0
17.847	16.0
17.862	21.0
17.877	9.0
17.892	10.0
17.906	9.0
17.921	14.0
17.936	6.0
17.951	14.0
17.966	9.0
17.98	6.0
17.995	18.0
18.01	13.0
18.025	15.0
18.04	9.0
18.054	10.0
18.069	12.0
18.084	19.0
18.099	14.0
18.114	9.0
18.128	7.0
18.143	15.0
18.158	9.0
18.173	7.0
18.188	10.0
18.202	13.0
18.217	14.0
18.232	7.0
18.247	10.0
18.262	13.0
18.276	10.0
18.291	8.0
18.306	18.0
18.321	14.0
18.336	12.0
18.35	8.0
18.365	10.0
18.38	13.0
18.395	10.0
18.41	11.0
18.424	10.0
18.439	13.0
18.454	11.0
18.469	7.0
18.484	9.0
18.498	10.0
18.513	10.0
18.528	9.0
18.543	11.0
18.558	10.0
18.573	8.0
18.587	8.0
18.602	14.0
18.617	15.0
18.632	12.0
18.647	9.0
18.661	7.0
18.676	8.0
18.691	15.0
18.706	8.0
18.721	6.0
18.736	10.0
18.75	11.0
18.765	11.0
18.78	13.0
18.795	15.0
18.81	16.0
18.825	8.0
18.839	10.0
18.854	10.0
18.869	8.0
18.884	11.0
18.899	13.0
18.913	14.0
18.928	15.0
18.943	12.0
18.958	18.0
18.973	7.0
18.988	13.0
19.002	7.0
19.017	14.0
19.032	16.0
19.047	14.0
19.062	12.0
19.077	13.0
19.091	13.0
19.106	14.0
19.121	10.0
19.136	12.0
19.151	11.0
19.165	17.0
19.18	11.0
19.195	14.0
19.21	10.0
19.225	15.0
19.24	7.0
19.254	11.0
19.269	11.0
19.284	15.0
19.299	17.0
19.314	10.0
19.329	18.0
19.343	12.0
19.358	13.0
19.373	15.0
19.388	18.0
19.403	20.0
19.417	25.0
19.432	22.0
19.447	40.0
19.462	28.0
19.477	17.0
19.492	35.0
19.506	22.0
19.521	30.0
19.536	36.0
19.551	25.0
19.566	37.0
19.58	39.0
19.595	31.0
19.61	33.0
19.625	45.0
19.64	43.0
19.655	31.0
19.669	30.0
19.684	26.0
19.699	26.0
19.714	23.0
19.729	28.0
19.743	20.0
19.758	20.0
19.773	19.0
19.788	18.0
19.803	17.0
19.817	16.0
19.832	19.0
19.847	12.0
19.862	19.0
19.877	12.0
19.891	16.0
19.906	11.0
19.921	13.0
19.936	9.0
19.951	15.0
19.965	12.0
19.98	12.0
19.995	15.0
20.01	7.0
20.025	13.0
20.039	16.0
20.054	16.0
20.069	9.0
20.084	15.0
20.099	11.0
20.113	10.0
20.128	12.0
20.143	11.0
20.158	11.0
20.173	18.0
20.187	18.0
20.202	13.0
20.217	13.0
20.232	10.0
20.246	10.0
20.261	6.0
20.276	8.0
20.291	15.0
20.306	10.0
20.32	11.0
20.335	19.0
20.35	9.0
20.365	9.0
20.38	4.0
20.394	12.0
20.409	8.0
20.424	5.0
20.439	11.0
20.453	10.0
20.468	14.0
20.483	13.0
20.498	8.0
20.513	8.0
20.527	8.0
20.542	10.0
20.557	8.0
20.572	15.0
20.586	11.0
20.601	11.0
20.616	11.0
20.631	6.0
20.646	8.0
20.66	12.0
20.675	9.0
20.69	8.0
20.705	10.0
20.719	9.0
20.734	8.0
20.749	15.0
20.764	9.0
20.779	13.0
20.793	7.0
20.808	13.0
20.823	14.0
20.838	11.0
20.853	12.0
20.867	9.0
20.882	12.0
20.897	8.0
20.912	12.0
20.926	16.0
20.941	14.0
20.956	9.0
20.971	4.0
20.986	9.0
21.0	7.0
21.015	9.0
21.03	12.0
21.045	8.0
21.06	18.0
21.074	20.0
21.089	15.0
21.104	11.0
21.119	12.0
21.134	7.0
21.148	11.0
21.163	20.0
21.178	13.0
21.193	16.0
21.208	6.0
21.222	13.0
21.237	7.0
21.252	13.0
21.267	11.0
21.282	10.0
21.296	11.0
21.311	18.0
21.326	13.0
21.341	10.0
21.356	14.0
21.37	12.0
21.385	10.0
21.4	15.0
21.415	10.0
21.43	12.0
21.444	11.0
21.459	16.0
21.474	13.0
21.489	13.0
21.504	12.0
21.519	8.0
21.533	15.0
21.548	11.0
21.563	24.0
21.578	13.0
21.593	13.0
21.608	21.0
21.622	23.0
21.637	12.0
21.652	15.0
21.667	15.0
21.682	11.0
21.697	15.0
21.712	25.0
21.726	20.0
21.741	27.0
21.756	19.0
21.771	37.0
21.786	30.0
21.801	40.0
21.816	42.0
21.83	39.0
21.845	55.0
21.86	66.0
21.875	70.0
21.89	68.0
21.905	75.0
21.92	66.0
21.935	58.0
21.949	82.0
21.964	64.0
21.979	65.0
21.994	95.0
22.009	65.0
22.024	53.0
22.039	57.0
22.054	60.0
22.069	58.0
22.083	67.0
22.098	49.0
22.113	41.0
22.128	33.0
22.143	26.0
22.158	33.0
22.173	23.0
22.188	16.0
22.203	19.0
22.218	20.0
22.233	6.0
22.248	21.0
22.262	16.0
22.277	19.0
22.292	15.0
22.307	12.0
22.322	24.0
22.337	12.0
22.352	13.0
22.367	11.0
22.382	18.0
22.397	13.0
22.412	11.0
22.427	15.0
22.442	10.0
22.457	11.0
22.472	9.0
22.487	9.0
22.502	12.0
22.516	13.0
22.531	12.0
22.546	10.0
22.561	12.0
22.576	8.0
22.591	15.0
22.606	9.0
22.621	10.0
22.636	23.0
22.651	16.0
22.666	12.0
22.681	13.0
22.696	10.0
22.711	11.0
22.726	12.0
22.741	11.0
22.756	9.0
22.771	11.0
22.786	8.0
22.801	12.0
22.816	13.0
22.831	10.0
22.846	11.0
22.861	6.0
22.876	16.0
22.891	6.0
22.906	12.0
22.92	14.0
22.935	9.0
22.95	6.0
22.965	7.0
22.98	9.0
22.995	5.0
23.01	8.0
23.025	6.0
23.04	12.0
23.055	9.0
23.07	11.0
23.085	12.0
23.1	9.0
23.115	11.0
23.13	10.0
23.145	7.0
23.16	8.0
23.175	8.0
23.19	13.0
23.205	14.0
23.22	8.0
23.235	14.0
23.25	12.0
23.265	14.0
23.28	9.0
23.295	3.0
23.31	15.0
23.325	9.0
23.34	16.0
23.355	11.0
23.37	9.0
23.384	13.0
23.399	8.0
23.414	12.0
23.429	9.0
23.444	10.0
23.459	9.0
23.474	9.0
23.489	7.0
23.504	9.0
23.519	9.0
23.534	11.0
23.549	7.0
23.564	7.0
23.579	15.0
23.594	15.0
23.609	12.0
23.624	9.0
23.639	14.0
23.654	13.0
23.668	15.0
23.683	11.0
23.698	7.0
23.713	15.0
23.728	13.0
23.743	5.0
23.758	8.0
23.773	12.0
23.788	12.0
23.803	12.0
23.818	8.0
23.833	17.0
23.848	15.0
23.862	14.0
23.877	21.0
23.892	17.0
23.907	10.0
23.922	27.0
23.937	26.0
23.952	30.0
23.967	25.0
23.982	48.0
23.997	40.0
24.011	47.0
24.026	44.0
24.041	44.0
24.056	42.0
24.071	54.0
24.086	54.0
24.101	45.0
24.116	70.0
24.131	47.0
24.145	44.0
24.16	38.0
24.175	38.0
24.19	29.0
24.205	38.0
24.22	32.0
24.235	34.0
24.249	31.0
24.264	25.0
24.279	25.0
24.294	14.0
24.309	28.0
24.324	14.0
24.338	24.0
24.353	12.0
24.368	14.0
24.383	8.0
24.398	10.0
24.413	12.0
24.428	10.0
24.442	8.0
24.457	8.0
24.472	8.0
24.487	7.0
24.502	10.0
24.516	13.0
24.531	11.0
24.546	8.0
24.561	10.0
24.576	4.0
24.591	9.0
24.605	11.0
24.62	12.0
24.635	9.0
24.65	10.0
24.665	9.0
24.679	14.0
24.694	7.0
24.709	4.0
24.724	7.0
24.739	7.0
24.753	19.0
24.768	7.0
24.783	9.0
24.798	14.0
24.813	9.0
24.827	12.0
24.842	10.0
24.857	9.0
24.872	11.0
24.886	12.0
24.901	10.0
24.916	10.0
24.931	8.0
24.946	15.0
24.96	5.0
24.975	16.0
24.99	13.0
25.005	12.0
25.019	10.0
25.034	13.0
25.049	12.0
25.064	11.0
25.078	13.0
25.093	14.0
25.108	9.0
25.123	9.0
25.138	14.0
25.152	9.0
25.167	13.0
25.182	11.0
25.197	6.0
25.211	13.0
25.226	8.0
25.241	8.0
25.256	13.0
25.27	6.0
25.285	8.0
25.3	11.0
25.315	5.0
25.329	12.0
25.344	6.0
25.359	9.0
25.374	8.0
25.388	9.0
25.403	14.0
25.418	9.0
25.433	15.0
25.447	7.0
25.462	9.0
25.477	9.0
25.492	10.0
25.506	8.0
25.521	17.0
25.536	6.0
25.55	10.0
25.565	9.0
25.58	11.0
25.595	8.0
25.609	5.0
25.624	7.0
25.639	13.0
25.654	8.0
25.668	10.0
25.683	8.0
25.698	7.0
25.713	8.0
25.727	6.0
25.742	13.0
25.757	9.0
25.772	10.0
25.786	5.0
25.801	12.0
25.816	10.0
25.83	7.0
25.845	11.0
25.86	9.0
25.875	6.0
25.889	4.0
25.904	7.0
25.919	9.0
25.934	11.0
25.948	8.0
25.963	14.0
25.978	11.0
25.992	6.0
26.007	9.0
26.022	11.0
26.037	9.0
26.051	10.0
26.066	10.0
26.081	9.0
26.096	9.0
26.11	9.0
26.125	10.0
26.14	10.0
26.155	10.0
26.169	9.0
26.184	12.0
26.199	17.0
26.213	7.0
26.228	9.0
26.243	8.0
26.258	10.0
26.272	10.0
26.287	6.0
26.302	6.0
26.317	11.0
26.331	11.0
26.346	13.0
26.361	14.0
26.376	10.0
26.39	14.0
26.405	8.0
26.42	19.0
26.434	6.0
26.449	12.0
26.464	12.0
26.479	13.0
26.493	6.0
26.508	10.0
26.523	7.0
26.538	10.0
26.552	18.0
26.567	6.0
26.582	9.0
26.597	10.0
26.611	6.0
26.626	12.0
26.641	8.0
26.656	11.0
26.67	5.0
26.685	16.0
26.7	11.0
26.715	10.0
26.729	16.0
26.744	10.0
26.759	11.0
26.773	8.0
26.788	10.0
26.803	6.0
26.818	7.0
26.832	10.0
26.847	6.0
26.862	13.0
26.877	14.0
26.891	2.0
26.906	12.0
26.921	12.0
26.936	11.0
26.95	16.0
26.965	8.0
26.98	5.0
26.995	9.0
27.01	8.0
27.024	3.0
27.039	5.0
27.054	5.0
27.069	8.0
27.083	11.0
27.098	13.0
27.113	9.0
27.128	3.0
27.142	8.0
27.157	11.0
27.172	10.0
27.187	10.0
27.201	13.0
27.216	5.0
27.231	8.0
27.246	8.0
27.261	6.0
27.275	14.0
27.29	17.0
27.305	8.0
27.32	16.0
27.334	5.0
27.349	13.0
27.364	10.0
27.379	8.0
27.394	7.0
27.408	5.0
27.423	14.0
27.438	11.0
27.453	9.0
27.467	13.0
27.482	9.0
27.497	15.0
27.512	7.0
27.527	5.0
27.541	10.0
27.556	10.0
27.571	10.0
27.586	8.0
27.601	14.0
27.615	10.0
27.63	8.0
27.645	10.0
27.66	15.0
27.675	13.0
27.689	12.0
27.704	17.0
27.719	20.0
27.734	12.0
27.749	18.0
27.763	17.0
27.778	14.0
27.793	27.0
27.808	11.0
27.823	19.0
27.838	18.0
27.852	22.0
27.867	31.0
27.882	23.0
27.897	27.0
27.912	14.0
27.926	24.0
27.941	16.0
27.956	19.0
27.971	28.0
27.986	20.0
28.001	18.0
28.015	21.0
28.03	20.0
28.045	21.0
28.06	15.0
28.075	18.0
28.09	21.0
28.105	15.0
28.119	18.0
28.134	5.0
28.149	14.0
28.164	16.0
28.179	13.0
28.194	13.0
28.208	12.0
28.223	10.0
28.238	10.0
28.253	16.0
28.268	10.0
28.283	10.0
28.298	7.0
28.312	12.0
28.327	13.0
28.342	9.0
28.357	9.0
28.372	7.0
28.387	8.0
28.402	12.0
28.417	7.0
28.431	19.0
28.446	10.0
28.461	8.0
28.476	14.0
28.491	11.0
28.506	10.0
28.521	10.0
28.536	9.0
28.55	6.0
28.565	11.0
28.58	7.0
28.595	9.0
28.61	11.0
28.625	9.0
28.64	17.0
28.655	9.0
28.669	5.0
28.684	12.0
28.699	11.0
28.714	13.0
28.729	12.0
28.744	10.0
28.759	11.0
28.774	12.0
28.788	13.0
28.803	11.0
28.818	12.0
28.833	9.0
28.848	18.0
28.863	13.0
28.878	11.0
28.893	14.0
28.908	14.0
28.922	10.0
28.937	7.0
28.952	7.0
28.967	6.0
28.982	9.0
28.997	10.0
29.012	7.0
29.027	12.0
29.041	16.0
29.056	5.0
29.071	13.0
29.086	10.0
29.101	11.0
29.116	18.0
29.131	13.0
29.146	9.0
29.16	13.0
29.175	10.0
29.19	12.0
29.205	16.0
29.22	10.0
29.235	13.0
29.25	15.0
29.265	12.0
29.279	11.0
29.294	11.0
29.309	15.0
29.324	11.0
29.339	11.0
29.354	8.0
29.369	15.0
29.384	16.0
29.398	13.0
29.413	19.0
29.428	17.0
29.443	18.0
29.458	22.0
29.473	19.0
29.488	32.0
29.502	32.0
29.517	33.0
29.532	37.0
29.547	37.0
29.562	34.0
29.577	47.0
29.592	42.0
29.606	42.0
29.621	50.0
29.636	54.0
29.651	48.0
29.666	54.0
29.681	46.0
29.695	42.0
29.71	38.0
29.725	40.0
29.74	31.0
29.755	34.0
29.77	33.0
29.784	37.0
29.799	30.0
29.814	17.0
29.829	33.0
29.844	30.0
29.859	29.0
29.873	19.0
29.888	13.0
29.903	20.0
29.918	15.0
29.933	13.0
29.947	13.0
29.962	18.0
29.977	20.0
29.992	15.0
30.007	15.0
30.021	6.0
30.036	7.0
30.051	14.0
30.066	12.0
30.081	16.0
30.095	17.0
30.11	18.0
30.125	9.0
30.14	10.0
30.155	18.0
30.169	11.0
30.184	10.0
30.199	4.0
30.214	9.0
30.228	10.0
30.243	10.0
30.258	10.0
30.273	11.0
30.288	6.0
30.302	14.0
30.317	16.0
30.332	9.0
30.347	8.0
30.361	17.0
30.376	13.0
30.391	13.0
30.406	10.0
30.42	11.0
30.435	11.0
30.45	7.0
30.465	10.0
30.479	11.0
30.494	12.0
30.509	10.0
30.524	6.0
30.538	10.0
30.553	14.0
30.568	11.0
30.583	6.0
30.597	10.0
30.612	6.0
30.627	7.0
30.641	7.0
30.656	5.0
30.671	9.0
30.686	6.0
30.7	14.0
30.715	12.0
30.73	9.0
30.745	7.0
30.759	11.0
30.774	5.0
30.789	14.0
30.803	8.0
30.818	11.0
30.833	12.0
30.848	13.0
30.862	4.0
30.877	4.0
30.892	8.0
30.906	12.0
30.921	10.0
30.936	5.0
30.951	13.0
30.965	12.0
30.98	12.0
30.995	10.0
31.009	12.0
31.024	11.0
31.039	15.0
31.053	15.0
31.068	15.0
31.083	18.0
31.098	15.0
31.112	14.0
31.127	23.0
31.142	24.0
31.156	29.0
31.171	28.0
31.186	35.0
31.2	30.0
31.215	35.0
31.23	26.0
31.245	32.0
31.259	41.0
31.274	32.0
31.289	39.0
31.303	46.0
31.318	27.0
31.333	35.0
31.347	26.0
31.362	26.0
31.377	25.0
31.392	22.0
31.406	28.0
31.421	36.0
31.436	21.0
31.45	23.0
31.465	15.0
31.48	20.0
31.494	24.0
31.509	24.0
31.524	18.0
31.538	9.0
31.553	27.0
31.568	12.0
31.583	11.0
31.597	10.0
31.612	11.0
31.627	7.0
31.641	9.0
31.656	8.0
31.671	13.0
31.685	6.0
31.7	12.0
31.715	12.0
31.729	7.0
31.744	18.0
31.759	15.0
31.774	13.0
31.788	16.0
31.803	8.0
31.818	8.0
31.832	8.0
31.847	9.0
31.862	7.0
31.876	8.0
31.891	7.0
31.906	9.0
31.92	16.0
31.935	9.0
31.95	11.0
31.965	6.0
31.979	11.0
31.994	7.0
32.009	16.0
32.023	10.0
32.038	8.0
32.053	12.0
32.067	13.0
32.082	11.0
32.097	14.0
32.112	6.0
32.126	9.0
32.141	7.0
32.156	10.0
32.17	6.0
32.185	12.0
32.2	7.0
32.214	11.0
32.229	10.0
32.244	14.0
32.259	9.0
32.273	10.0
32.288	12.0
32.303	4.0
32.317	10.0
32.332	10.0
32.347	8.0
32.362	13.0
32.376	12.0
32.391	10.0
32.406	11.0
32.42	12.0
32.435	11.0
32.45	12.0
32.465	9.0
32.479	7.0
32.494	5.0
32.509	14.0
32.523	12.0
32.538	14.0
32.553	17.0
32.568	9.0
32.582	11.0
32.597	11.0
32.612	10.0
32.627	16.0
32.641	16.0
32.656	13.0
32.671	24.0
32.685	13.0
32.7	15.0
32.715	15.0
32.73	12.0
32.744	25.0
32.759	21.0
32.774	35.0
32.788	24.0
32.803	26.0
32.818	29.0
32.833	23.0
32.847	41.0
32.862	24.0
32.877	26.0
32.892	21.0
32.906	20.0
32.921	22.0
32.936	15.0
32.951	21.0
32.965	28.0
32.98	20.0
32.995	21.0
33.009	16.0
33.024	15.0
33.039	24.0
33.054	19.0
33.068	15.0
33.083	15.0
33.098	20.0
33.113	16.0
33.127	4.0
33.142	7.0
33.157	15.0
33.172	9.0
33.186	13.0
33.201	13.0
33.216	10.0
33.231	11.0
33.245	10.0
33.26	8.0
33.275	10.0
33.29	6.0
33.304	17.0
33.319	7.0
33.334	8.0
33.349	10.0
33.363	12.0
33.378	9.0
33.393	8.0
33.408	9.0
33.422	12.0
33.437	7.0
33.452	11.0
33.467	12.0
33.481	10.0
33.496	8.0
33.511	2.0
33.526	6.0
33.54	6.0
33.555	6.0
33.57	13.0
33.585	12.0
33.599	12.0
33.614	7.0
33.629	9.0
33.644	3.0
33.658	7.0
33.673	6.0
33.688	7.0
33.703	8.0
33.718	7.0
33.732	9.0
33.747	3.0
33.762	16.0
33.777	8.0
33.791	9.0
33.806	7.0
33.821	5.0
33.836	8.0
33.85	9.0
33.865	7.0
33.88	8.0
33.895	9.0
33.91	10.0
33.924	9.0
33.939	11.0
33.954	7.0
33.969	14.0
33.983	9.0
33.998	12.0
34.013	10.0
34.028	16.0
34.042	8.0
34.057	10.0
34.072	10.0
34.087	9.0
34.102	9.0
34.116	13.0
34.131	10.0
34.146	13.0
34.161	10.0
34.175	11.0
34.19	14.0
34.205	13.0
34.22	7.0
34.235	12.0
34.249	7.0
34.264	10.0
34.279	14.0
34.294	9.0
34.309	12.0
34.323	12.0
34.338	14.0
34.353	16.0
34.368	12.0
34.382	16.0
34.397	14.0
34.412	12.0
34.427	12.0
34.442	12.0
34.456	13.0
34.471	9.0
34.486	10.0
34.501	12.0
34.516	12.0
34.53	8.0
34.545	11.0
34.56	8.0
34.575	9.0
34.59	8.0
34.604	13.0
34.619	11.0
34.634	12.0
34.649	11.0
34.664	10.0
34.678	9.0
34.693	8.0
34.708	12.0
34.723	8.0
34.738	6.0
34.752	11.0
34.767	7.0
34.782	7.0
34.797	6.0
34.812	8.0
34.826	15.0
34.841	6.0
34.856	8.0
34.871	10.0
34.886	10.0
34.9	5.0
34.915	8.0
34.93	8.0
34.945	11.0
34.96	6.0
34.974	5.0
34.989	15.0
35.004	9.0
35.019	5.0
35.034	10.0
35.048	9.0
35.063	5.0
35.078	8.0
35.093	8.0
35.108	6.0
35.122	10.0
35.137	5.0
35.152	10.0
35.167	10.0
35.182	10.0
35.196	9.0
35.211	11.0
35.226	16.0
35.241	7.0
35.256	12.0
35.27	9.0
35.285	5.0
35.3	8.0
35.315	9.0
35.33	6.0
35.344	5.0
35.359	10.0
35.374	10.0
35.389	7.0
35.404	10.0
35.418	6.0
35.433	7.0
35.448	8.0
35.463	4.0
35.478	8.0
35.493	9.0
35.507	6.0
35.522	5.0
35.537	6.0
35.552	11.0
35.567	7.0
35.581	10.0
35.596	8.0
35.611	11.0
35.626	11.0
35.641	15.0
35.655	11.0
35.67	12.0
35.685	11.0
35.7	16.0
35.715	20.0
35.729	12.0
35.744	20.0
35.759	18.0
35.774	20.0
35.789	21.0
35.804	19.0
35.818	16.0
35.833	12.0
35.848	13.0
35.863	22.0
35.878	12.0
35.892	14.0
35.907	16.0
35.922	16.0
35.937	13.0
35.952	17.0
35.966	14.0
35.981	15.0
35.996	8.0
36.011	14.0
36.026	10.0
36.04	15.0
36.055	8.0
36.07	13.0
36.085	11.0
36.1	9.0
36.114	10.0
36.129	6.0
36.144	14.0
36.159	6.0
36.174	7.0
36.189	11.0
36.203	9.0
36.218	8.0
36.233	13.0
36.248	3.0
36.263	7.0
36.277	7.0
36.292	10.0
36.307	9.0
36.322	9.0
36.337	12.0
36.351	5.0
36.366	7.0
36.381	6.0
36.396	14.0
36.411	8.0
36.426	9.0
36.44	7.0
36.455	11.0
36.47	7.0
36.485	9.0
36.5	8.0
36.514	5.0
36.529	7.0
36.544	12.0
36.559	8.0
36.574	14.0
36.589	12.0
36.603	12.0
36.618	8.0
36.633	4.0
36.648	4.0
36.663	9.0
36.677	6.0
36.692	10.0
36.707	10.0
36.722	8.0
36.737	5.0
36.752	7.0
36.766	12.0
36.781	5.0
36.796	4.0
36.811	4.0
36.826	19.0
36.841	6.0
36.855	7.0
36.87	9.0
36.885	10.0
36.9	6.0
36.915	8.0
36.93	8.0
36.944	9.0
36.959	7.0
36.974	4.0
36.989	11.0
37.004	11.0
37.019	12.0
37.033	10.0
37.048	15.0
37.063	18.0
37.078	20.0
37.093	19.0
37.108	24.0
37.123	14.0
37.137	21.0
37.152	23.0
37.167	18.0
37.182	31.0
37.197	32.0
37.212	33.0
37.226	18.0
37.241	21.0
37.256	27.0
37.271	19.0
37.286	15.0
37.301	13.0
37.316	19.0
37.331	15.0
37.345	18.0
37.36	20.0
37.375	20.0
37.39	19.0
37.405	16.0
37.42	17.0
37.435	14.0
37.45	22.0
37.464	22.0
37.479	20.0
37.494	9.0
37.509	9.0
37.524	13.0
37.539	3.0
37.554	10.0
37.569	4.0
37.583	10.0
37.598	3.0
37.613	4.0
37.628	5.0
37.643	8.0
37.658	6.0
37.673	6.0
37.688	6.0
37.703	10.0
37.718	5.0
37.733	7.0
37.747	10.0
37.762	8.0
37.777	4.0
37.792	3.0
37.807	4.0
37.822	3.0
37.837	7.0
37.852	7.0
37.867	3.0
37.882	7.0
37.897	8.0
37.912	7.0
37.927	4.0
37.941	5.0
37.956	6.0
37.971	2.0
37.986	5.0
38.001	14.0
38.016	6.0
38.031	3.0
38.046	3.0
38.061	12.0
38.076	7.0
38.091	5.0
38.106	13.0
38.121	6.0
38.136	13.0
38.151	3.0
38.166	5.0
38.181	10.0
38.196	4.0
38.211	4.0
38.226	5.0
38.241	9.0
38.256	8.0
38.271	5.0
38.285	8.0
38.3	12.0
38.315	6.0
38.33	8.0
38.345	9.0
38.36	6.0
38.375	5.0
38.39	3.0
38.405	7.0
38.42	6.0
38.435	7.0
38.45	4.0
38.465	8.0
38.48	10.0
38.495	7.0
38.51	5.0
38.525	5.0
38.54	6.0
38.555	5.0
38.57	5.0
38.585	13.0
38.6	5.0
38.615	9.0
38.63	3.0
38.645	3.0
38.66	4.0
38.675	3.0
38.69	5.0
38.705	9.0
38.72	10.0
38.735	8.0
38.75	6.0
38.765	8.0
38.78	3.0
38.795	7.0
38.81	9.0
38.825	5.0
38.84	3.0
38.855	8.0
38.87	4.0
38.885	5.0
38.9	8.0
38.915	8.0
38.93	10.0
38.945	9.0
38.96	4.0
38.975	10.0
38.99	2.0
39.005	3.0
39.02	4.0
39.035	6.0
39.05	7.0
39.065	10.0
39.08	7.0
39.095	8.0
39.11	7.0
39.125	8.0
39.14	5.0
39.155	7.0
39.17	5.0
39.185	4.0
39.2	5.0
39.215	6.0
39.23	2.0
39.245	12.0
39.26	4.0
39.275	8.0
39.29	10.0
39.305	5.0
39.32	8.0
39.335	6.0
39.35	4.0
39.365	3.0
39.38	8.0
39.395	9.0
39.409	4.0
39.424	10.0
39.439	8.0
39.454	3.0
39.469	6.0
39.484	12.0
39.499	8.0
39.514	11.0
39.529	9.0
39.544	6.0
39.559	7.0
39.574	5.0
39.589	4.0
39.604	9.0
39.619	7.0
39.634	11.0
39.649	4.0
39.664	10.0
39.678	8.0
39.693	8.0
39.708	8.0
39.723	8.0
39.738	4.0
39.753	6.0
39.768	9.0
39.783	6.0
39.798	12.0
39.813	5.0
39.827	8.0
39.842	12.0
39.857	8.0
39.872	7.0
39.887	8.0
39.902	8.0
39.917	6.0
39.932	8.0
39.947	6.0
39.961	6.0
39.976	12.0
39.991	3.0
40.006	6.0
40.021	10.0
40.036	4.0
40.051	9.0
40.065	5.0
40.08	7.0
40.095	10.0
40.11	6.0
40.125	7.0
40.14	9.0
40.154	7.0
40.169	8.0
40.184	7.0
40.199	8.0
40.214	4.0
40.228	3.0
40.243	4.0
40.258	6.0
40.273	5.0
40.288	2.0
40.302	8.0
40.317	7.0
40.332	8.0
40.347	4.0
40.362	8.0
40.376	6.0
40.391	2.0
40.406	6.0
40.421	3.0
40.436	5.0
40.45	4.0
40.465	6.0
40.48	10.0
40.495	5.0
40.509	9.0
40.524	7.0
40.539	5.0
40.554	4.0
40.568	8.0
40.583	3.0
40.598	11.0
40.613	6.0
40.627	8.0
40.642	5.0
40.657	4.0
40.672	7.0
40.686	6.0
40.701	6.0
40.716	8.0
40.731	3.0
40.745	6.0
40.76	3.0
40.775	5.0
40.79	7.0
40.804	7.0
40.819	7.0
40.834	6.0
40.849	8.0
40.863	4.0
40.878	3.0
40.893	4.0
40.907	6.0
40.922	12.0
40.937	7.0
40.952	8.0
40.966	5.0
40.981	6.0
40.996	15.0
41.011	10.0
41.025	7.0
41.04	14.0
41.055	20.0
41.069	15.0
41.084	17.0
41.099	20.0
41.114	17.0
41.128	19.0
41.143	16.0
41.158	20.0
41.173	20.0
41.187	16.0
41.202	18.0
41.217	13.0
41.231	11.0
41.246	15.0
41.261	9.0
41.276	8.0
41.29	8.0
41.305	11.0
41.32	15.0
41.335	8.0
41.349	9.0
41.364	16.0
41.379	17.0
41.393	15.0
41.408	19.0
41.423	11.0
41.438	11.0
41.452	12.0
41.467	11.0
41.482	7.0
41.497	7.0
41.511	4.0
41.526	5.0
41.541	6.0
41.556	6.0
41.57	8.0
41.585	6.0
41.6	2.0
41.615	8.0
41.629	9.0
41.644	8.0
41.659	8.0
41.674	2.0
41.688	12.0
41.703	3.0
41.718	6.0
41.733	6.0
41.747	8.0
41.762	7.0
41.777	5.0
41.792	4.0
41.806	4.0
41.821	5.0
41.836	7.0
41.851	8.0
41.866	8.0
41.88	6.0
41.895	3.0
41.91	6.0
41.925	7.0
41.939	7.0
41.954	8.0
41.969	8.0
41.984	4.0
41.999	6.0
42.013	8.0
42.028	4.0
42.043	6.0
42.058	5.0
42.073	5.0
42.088	6.0
42.102	12.0
42.117	7.0
42.132	11.0
42.147	6.0
42.162	3.0
42.176	10.0
42.191	9.0
42.206	4.0
42.221	7.0
42.236	8.0
42.251	8.0
42.266	8.0
42.28	8.0
42.295	15.0
42.31	5.0
42.325	14.0
42.34	16.0
42.355	11.0
42.369	11.0
42.384	17.0
42.399	15.0
42.414	14.0
42.429	12.0
42.444	12.0
42.459	4.0
42.474	13.0
42.488	12.0
42.503	12.0
42.518	10.0
42.533	8.0
42.548	8.0
42.563	5.0
42.578	6.0
42.593	6.0
42.608	5.0
42.622	13.0
42.637	12.0
42.652	13.0
42.667	16.0
42.682	17.0
42.697	12.0
42.712	15.0
42.727	11.0
42.742	9.0
42.757	9.0
42.772	11.0
42.786	4.0
42.801	10.0
42.816	9.0
42.831	5.0
42.846	8.0
42.861	5.0
42.876	4.0
42.891	4.0
42.906	4.0
42.921	2.0
42.936	2.0
42.951	10.0
42.966	6.0
42.981	3.0
42.996	1.0
43.011	2.0
43.025	4.0
43.04	5.0
43.055	6.0
43.07	6.0
43.085	12.0
43.1	4.0
43.115	3.0
43.13	6.0
43.145	2.0
43.16	8.0
43.175	3.0
43.19	4.0
43.205	5.0
43.22	6.0
43.235	4.0
43.25	4.0
43.265	1.0
43.28	5.0
43.295	4.0
43.31	6.0
43.325	3.0
43.34	9.0
43.355	8.0
43.37	7.0
43.385	5.0
43.4	4.0
43.415	9.0
43.43	4.0
43.445	6.0
43.46	6.0
43.475	3.0
43.49	8.0
43.505	4.0
43.52	3.0
43.535	9.0
43.55	5.0
43.565	18.0
43.58	9.0
43.595	6.0
43.61	9.0
43.625	7.0
43.64	10.0
43.655	12.0
43.67	7.0
43.685	10.0
43.7	11.0
43.715	7.0
43.73	7.0
43.745	9.0
43.76	5.0
43.775	4.0
43.79	9.0
43.805	5.0
43.82	5.0
43.835	8.0
43.85	5.0
43.865	8.0
43.88	7.0
43.895	5.0
43.91	5.0
43.925	6.0
43.94	8.0
43.955	10.0
43.97	7.0
43.985	9.0
44.0	7.0
44.015	6.0
44.03	6.0
44.045	2.0
44.061	3.0
44.076	3.0
44.091	7.0
44.106	7.0
44.121	5.0
44.136	4.0
44.151	7.0
44.166	2.0
44.181	6.0
44.196	4.0
44.211	4.0
44.226	7.0
44.241	6.0
44.256	9.0
44.271	5.0
44.286	4.0
44.301	6.0
44.316	10.0
44.331	6.0
44.346	8.0
44.361	5.0
44.377	6.0
44.392	3.0
44.407	5.0
44.422	6.0
44.437	5.0
44.452	6.0
44.467	3.0
44.482	7.0
44.497	7.0
44.512	3.0
44.527	5.0
44.542	4.0
44.557	6.0
44.572	4.0
44.587	6.0
44.602	7.0
44.617	5.0
44.632	4.0
44.647	4.0
44.663	8.0
44.678	4.0
44.693	6.0
44.708	4.0
44.723	9.0
44.738	5.0
44.753	8.0
44.768	9.0
44.783	6.0
44.798	1.0
44.813	13.0
44.828	4.0
44.843	13.0
44.858	15.0
44.873	8.0
44.888	13.0
44.903	11.0
44.918	6.0
44.933	6.0
44.948	10.0
44.964	5.0
44.979	8.0
44.994	5.0
45.009	7.0
45.024	4.0
45.039	5.0
45.054	5.0
45.069	6.0
45.084	6.0
45.099	10.0
45.114	7.0
45.129	8.0
45.144	11.0
45.159	4.0
45.174	9.0
45.189	10.0
45.204	1.0
45.219	7.0
45.234	4.0
45.249	5.0
45.264	2.0
45.279	5.0
45.294	5.0
45.309	6.0
45.324	2.0
45.339	5.0
45.354	3.0
45.369	4.0
45.384	4.0
45.399	6.0
45.414	6.0
45.429	1.0
45.444	5.0
45.459	4.0
45.474	4.0
45.489	6.0
45.504	6.0
45.519	6.0
45.534	7.0
45.549	3.0
45.564	5.0
45.579	3.0
45.594	7.0
45.609	2.0
45.624	6.0
45.639	5.0
45.654	9.0
45.669	4.0
45.684	3.0
45.699	5.0
45.714	4.0
45.729	2.0
45.744	3.0
45.759	13.0
45.774	6.0
45.789	0.0
45.804	5.0
45.819	7.0
45.834	9.0
45.849	6.0
45.864	8.0
45.879	11.0
45.894	8.0
45.909	14.0
45.924	8.0
45.939	14.0
45.954	14.0
45.969	17.0
45.984	17.0
45.998	20.0
46.013	12.0
46.028	19.0
46.043	13.0
46.058	13.0
46.073	17.0
46.088	7.0
46.103	6.0
46.118	5.0
46.133	7.0
46.148	4.0
46.163	12.0
46.178	15.0
46.192	11.0
46.207	9.0
46.222	16.0
46.237	10.0
46.252	15.0
46.267	9.0
46.282	13.0
46.297	14.0
46.312	10.0
46.327	12.0
46.341	10.0
46.356	9.0
46.371	8.0
46.386	4.0
46.401	9.0
46.416	5.0
46.431	1.0
46.446	10.0
46.46	9.0
46.475	4.0
46.49	9.0
46.505	3.0
46.52	5.0
46.535	5.0
46.55	7.0
46.564	4.0
46.579	5.0
46.594	3.0
46.609	5.0
46.624	8.0
46.639	8.0
46.654	3.0
46.668	4.0
46.683	4.0
46.698	6.0
46.713	8.0
46.728	9.0
46.743	6.0
46.758	4.0
46.772	3.0
46.787	1.0
46.802	6.0
46.817	2.0
46.832	5.0
46.847	4.0
46.861	8.0
46.876	3.0
46.891	5.0
46.906	8.0
46.921	6.0
46.936	12.0
46.95	3.0
46.965	4.0
46.98	2.0
46.995	11.0
47.01	9.0
47.025	4.0
47.039	11.0
47.054	7.0
47.069	10.0
47.084	9.0
47.099	7.0
47.113	9.0
47.128	11.0
47.143	11.0
47.158	16.0
47.173	6.0
47.188	10.0
47.202	7.0
47.217	14.0
47.232	7.0
47.247	9.0
47.262	6.0
47.277	5.0
47.291	2.0
47.306	7.0
47.321	6.0
47.336	5.0
47.351	5.0
47.365	5.0
47.38	13.0
47.395	5.0
47.41	3.0
47.425	5.0
47.44	9.0
47.454	5.0
47.469	9.0
47.484	6.0
47.499	10.0
47.514	12.0
47.528	5.0
47.543	11.0
47.558	8.0
47.573	8.0
47.588	10.0
47.603	5.0
47.617	4.0
47.632	4.0
47.647	4.0
47.662	3.0
47.677	4.0
47.691	5.0
47.706	7.0
47.721	4.0
47.736	4.0
47.751	7.0
47.766	6.0
47.78	6.0
47.795	6.0
47.81	5.0
47.825	7.0
47.84	7.0
47.855	2.0
47.869	2.0
47.884	2.0
47.899	2.0
47.914	3.0
47.929	3.0
47.944	4.0
47.958	8.0
47.973	2.0
47.988	3.0
48.003	4.0
48.018	6.0
48.033	5.0
48.047	6.0
48.062	6.0
48.077	9.0
48.092	2.0
48.107	7.0
48.122	6.0
48.137	3.0
48.151	3.0
48.166	5.0
48.181	3.0
48.196	7.0
48.211	6.0
48.226	1.0
48.241	5.0
48.255	7.0
48.27	5.0
48.285	2.0
48.3	7.0
48.315	2.0
48.33	7.0
48.345	5.0
48.359	5.0
48.374	4.0
48.389	1.0
48.404	5.0
48.419	2.0
48.434	3.0
48.449	4.0
48.464	7.0
48.478	5.0
48.493	2.0
48.508	4.0
48.523	7.0
48.538	3.0
48.553	4.0
48.568	2.0
48.583	5.0
48.597	8.0
48.612	2.0
48.627	7.0
48.642	0.0
48.657	5.0
48.672	3.0
48.687	1.0
48.702	3.0
48.717	3.0
48.731	6.0
48.746	6.0
48.761	6.0
48.776	7.0
48.791	2.0
48.806	8.0
48.821	4.0
48.836	4.0
48.851	3.0
48.866	6.0
48.88	3.0
48.895	5.0
48.91	5.0
48.925	8.0
48.94	3.0
48.955	7.0
48.97	7.0
48.985	5.0
49.0	6.0
49.015	7.0
49.03	7.0
49.044	3.0
49.059	1.0
49.074	5.0
49.089	6.0
49.104	4.0
49.119	4.0
49.134	3.0
49.149	5.0
49.164	4.0
49.179	7.0
49.194	4.0
49.209	5.0
49.224	7.0
49.238	5.0
49.253	8.0
49.268	7.0
49.283	7.0
49.298	6.0
49.313	6.0
49.328	7.0
49.343	5.0
49.358	9.0
49.373	11.0
49.388	11.0
49.403	7.0
49.418	9.0
49.433	6.0
49.448	7.0
49.463	11.0
49.478	6.0
49.492	4.0
49.507	5.0
49.522	7.0
49.537	5.0
49.552	3.0
49.567	6.0
49.582	5.0
49.597	5.0
49.612	6.0
49.627	5.0
49.642	4.0
49.657	5.0
49.672	6.0
49.687	6.0
49.702	6.0
49.717	7.0
49.732	7.0
49.747	5.0
49.762	3.0
49.777	3.0
49.792	3.0
49.807	4.0
49.822	7.0
49.837	8.0
49.852	2.0
49.867	0.0
49.882	9.0
49.897	6.0
49.912	5.0
49.927	4.0
49.942	2.0
49.957	3.0
49.971	6.0
49.986	8.0
50.001	2.0
50.016	3.0
50.031	6.0
50.046	6.0
50.061	3.0
50.076	3.0
50.091	4.0
50.106	9.0
50.121	3.0
50.136	5.0
50.151	5.0
50.166	8.0
50.181	8.0
50.196	3.0
50.211	2.0
50.226	4.0
50.241	4.0
50.256	5.0
50.271	5.0
50.286	2.0
50.302	8.0
50.317	5.0
50.332	5.0
50.347	5.0
50.362	9.0
50.377	8.0
50.392	7.0
50.407	5.0
50.422	7.0
50.437	4.0
50.452	11.0
50.467	8.0
50.482	7.0
50.497	7.0
50.512	7.0
50.527	9.0
50.542	9.0
50.557	6.0
50.572	5.0
50.587	4.0
50.602	3.0
50.617	7.0
50.632	7.0
50.647	6.0
50.662	6.0
50.677	3.0
50.692	2.0
50.707	4.0
50.722	6.0
50.737	11.0
50.752	7.0
50.767	7.0
50.782	3.0
50.797	9.0
50.812	8.0
50.828	3.0
50.843	7.0
50.858	7.0
50.873	6.0
50.888	5.0
50.903	5.0
50.918	3.0
50.933	5.0
50.948	2.0
50.963	5.0
50.978	4.0
50.993	10.0
51.008	6.0
51.023	6.0
51.038	3.0
51.053	4.0
51.068	7.0
51.083	7.0
51.098	2.0
51.114	7.0
51.129	3.0
51.144	3.0
51.159	7.0
51.174	5.0
51.189	5.0
51.204	8.0
51.219	6.0
51.234	3.0
51.249	8.0
51.264	4.0
51.279	4.0
51.294	4.0
51.309	0.0
51.324	7.0
51.34	5.0
51.355	10.0
51.37	5.0
51.385	6.0
51.4	10.0
51.415	10.0
51.43	8.0
51.445	11.0
51.46	7.0
51.475	16.0
51.49	14.0
51.505	18.0
51.52	17.0
51.535	18.0
51.551	8.0
51.566	15.0
51.581	10.0
51.596	12.0
51.611	13.0
51.626	8.0
51.641	10.0
51.656	11.0
51.671	8.0
51.686	8.0
51.701	8.0
51.716	6.0
51.732	13.0
51.747	6.0
51.762	7.0
51.777	11.0
51.792	9.0
51.807	7.0
51.822	12.0
51.837	9.0
51.852	11.0
51.867	13.0
51.882	12.0
51.898	13.0
51.913	1.0
51.928	10.0
51.943	6.0
51.958	6.0
51.973	9.0
51.988	4.0
52.003	2.0
52.018	3.0
52.033	1.0
52.048	5.0
52.064	3.0
52.079	3.0
52.094	4.0
52.109	6.0
52.124	4.0
52.139	1.0
52.154	2.0
52.169	2.0
52.184	5.0
52.199	4.0
52.215	5.0
52.23	4.0
52.245	1.0
52.26	4.0
52.275	3.0
52.29	4.0
52.305	4.0
52.32	0.0
52.335	5.0
52.35	4.0
52.366	4.0
52.381	4.0
52.396	6.0
52.411	2.0
52.426	5.0
52.441	5.0
52.456	9.0
52.471	7.0
52.486	7.0
52.502	5.0
52.517	5.0
52.532	8.0
52.547	11.0
52.562	17.0
52.577	11.0
52.592	7.0
52.607	3.0
52.622	14.0
52.637	9.0
52.653	11.0
52.668	5.0
52.683	6.0
52.698	9.0
52.713	5.0
52.728	8.0
52.743	8.0
52.758	9.0
52.774	6.0
52.789	5.0
52.804	4.0
52.819	8.0
52.834	5.0
52.849	3.0
52.864	6.0
52.879	9.0
52.894	10.0
52.91	4.0
52.925	8.0
52.94	3.0
52.955	11.0
52.97	9.0
52.985	12.0
53.0	9.0
53.015	7.0
53.031	3.0
53.046	6.0
53.061	1.0
53.076	1.0
53.091	2.0
53.106	2.0
53.121	5.0
53.136	2.0
53.152	8.0
53.167	4.0
53.182	6.0
53.197	8.0
53.212	2.0
53.227	3.0
53.242	4.0
53.257	3.0
53.273	4.0
53.288	5.0
53.303	7.0
53.318	7.0
53.333	4.0
53.348	6.0
53.363	5.0
53.379	9.0
53.394	2.0
53.409	1.0
53.424	7.0
53.439	8.0
53.454	3.0
53.469	5.0
53.484	5.0
53.5	8.0
53.515	5.0
53.53	6.0
53.545	4.0
53.56	7.0
53.575	4.0
53.59	3.0
53.606	7.0
53.621	7.0
53.636	5.0
53.651	4.0
53.666	4.0
53.681	8.0
53.696	3.0
53.712	4.0
53.727	2.0
53.742	8.0
53.757	2.0
53.772	9.0
53.787	6.0
53.802	7.0
53.818	1.0
53.833	6.0
53.848	7.0
53.863	4.0
53.878	4.0
53.893	3.0
53.909	9.0
53.924	4.0
53.939	5.0
53.954	2.0
53.969	4.0
53.984	4.0
53.999	4.0
54.015	1.0
54.03	6.0
54.045	1.0
54.06	4.0
54.075	4.0
54.09	4.0
54.106	4.0
54.121	6.0
54.136	6.0
54.151	5.0
54.166	5.0
54.181	6.0
54.197	7.0
54.212	4.0
54.227	5.0
54.242	2.0
54.257	5.0
54.272	9.0
54.288	4.0
54.303	4.0
54.318	3.0
54.333	8.0
54.348	2.0
54.363	2.0
54.379	2.0
54.394	3.0
54.409	3.0
54.424	4.0
54.439	6.0
54.454	4.0
54.47	4.0
54.485	4.0
54.5	9.0
54.515	7.0
54.53	6.0
54.545	5.0
54.561	7.0
54.576	4.0
54.591	8.0
54.606	13.0
54.621	8.0
54.636	9.0
54.652	14.0
54.667	14.0
54.682	19.0
54.697	13.0
54.712	17.0
54.727	10.0
54.743	3.0
54.758	5.0
54.773	9.0
54.788	3.0
54.803	5.0
54.819	5.0
54.834	8.0
54.849	6.0
54.864	8.0
54.879	3.0
54.894	9.0
54.91	3.0
54.925	9.0
54.94	5.0
54.955	6.0
54.97	8.0
54.985	12.0
55.001	7.0
55.016	14.0
55.031	14.0
55.046	7.0
55.061	7.0
55.077	4.0
55.092	12.0
55.107	11.0
55.122	5.0
55.137	1.0
55.152	4.0
55.168	6.0
55.183	8.0
55.198	2.0
55.213	10.0
55.228	5.0
55.243	5.0
55.259	5.0
55.274	6.0
55.289	3.0
55.304	4.0
55.319	4.0
55.335	11.0
55.35	6.0
55.365	6.0
55.38	7.0
55.395	2.0
55.41	5.0
55.426	5.0
55.441	6.0
55.456	4.0
55.471	1.0
55.486	5.0
55.501	5.0
55.517	6.0
55.532	6.0
55.547	5.0
55.562	8.0
55.577	8.0
55.592	5.0
55.608	9.0
55.623	10.0
55.638	4.0
55.653	9.0
55.668	4.0
55.683	9.0
55.699	7.0
55.714	4.0
55.729	3.0
55.744	5.0
55.759	2.0
55.774	3.0
55.79	3.0
55.805	9.0
55.82	4.0
55.835	3.0
55.85	5.0
55.865	6.0
55.881	5.0
55.896	6.0
55.911	4.0
55.926	8.0
55.941	9.0
55.956	2.0
55.972	5.0
55.987	2.0
56.002	6.0
56.017	4.0
56.032	3.0
56.047	3.0
56.063	4.0
56.078	5.0
56.093	1.0
56.108	5.0
56.123	6.0
56.138	3.0
56.154	4.0
56.169	6.0
56.184	1.0
56.199	6.0
56.214	2.0
56.229	1.0
56.244	1.0
56.26	0.0
56.275	5.0
56.29	4.0
56.305	6.0
56.32	9.0
56.335	0.0
56.351	5.0
56.366	6.0
56.381	7.0
56.396	1.0
56.411	5.0
56.426	3.0
56.441	4.0
56.457	5.0
56.472	5.0
56.487	10.0
56.502	7.0
56.517	4.0
56.532	7.0
56.547	2.0
56.563	2.0
56.578	5.0
56.593	5.0
56.608	3.0
56.623	3.0
56.638	4.0
56.653	3.0
56.668	5.0
56.684	3.0
56.699	3.0
56.714	3.0
56.729	6.0
56.744	3.0
56.759	6.0
56.774	9.0
56.79	2.0
56.805	1.0
56.82	6.0
56.835	1.0
56.85	4.0
56.865	4.0
56.88	4.0
56.895	5.0
56.911	3.0
56.926	6.0
56.941	5.0
56.956	8.0
56.971	2.0
56.986	3.0
57.001	5.0
57.016	4.0
57.031	1.0
57.047	3.0
57.062	4.0
57.077	6.0
57.092	5.0
57.107	2.0
57.122	6.0
57.137	2.0
57.152	5.0
57.167	5.0
57.183	0.0
57.198	2.0
57.213	1.0
57.228	2.0
57.243	4.0
57.258	3.0
57.273	6.0
57.288	2.0
57.303	2.0
57.318	5.0
57.334	5.0
57.349	2.0
57.364	1.0
57.379	8.0
57.394	5.0
57.409	3.0
57.424	8.0
57.439	8.0
57.454	5.0
57.469	8.0
57.484	5.0
57.5	5.0
57.515	3.0
57.53	4.0
57.545	8.0
57.56	3.0
57.575	6.0
57.59	4.0
57.605	7.0
57.62	4.0
57.635	7.0
57.65	15.0
57.665	6.0
57.68	6.0
57.696	8.0
57.711	7.0
57.726	8.0
57.741	2.0
57.756	3.0
57.771	5.0
57.786	2.0
57.801	6.0
57.816	3.0
57.831	3.0
57.846	9.0
57.861	4.0
57.876	3.0
57.891	6.0
57.906	1.0
57.921	5.0
57.937	3.0
57.952	4.0
57.967	3.0
57.982	8.0
57.997	3.0
58.012	2.0
58.027	4.0
58.042	5.0
58.057	5.0
58.072	11.0
58.087	7.0
58.102	8.0
58.117	3.0
58.132	4.0
58.147	3.0
58.162	3.0
58.177	3.0
58.192	6.0
58.207	4.0
58.222	2.0
58.237	3.0
58.252	4.0
58.267	2.0
58.282	1.0
58.297	4.0
58.312	3.0
58.327	4.0
58.342	4.0
58.357	8.0
58.372	5.0
58.387	2.0
58.402	5.0
58.418	3.0
58.433	3.0
58.448	5.0
58.463	4.0
58.478	7.0
58.493	4.0
58.508	8.0
58.523	2.0
58.538	5.0
58.553	7.0
58.568	6.0
58.583	2.0
58.598	11.0
58.613	12.0
58.628	9.0
58.643	15.0
58.658	7.0
58.673	12.0
58.688	7.0
58.703	12.0
58.718	8.0
58.733	3.0
58.748	4.0
58.763	4.0
58.778	2.0
58.793	4.0
58.808	6.0
58.823	2.0
58.838	6.0
58.853	4.0
58.868	2.0
58.883	5.0
58.898	4.0
58.913	7.0
58.928	3.0
58.942	2.0
58.957	6.0
58.972	8.0
58.987	8.0
59.002	9.0
59.017	13.0
59.032	5.0
59.047	7.0
59.062	6.0
59.077	7.0
59.092	3.0
59.107	5.0
59.122	6.0
59.137	6.0
59.152	5.0
59.167	4.0
59.182	5.0
59.197	4.0
59.212	3.0
59.227	6.0
59.242	3.0
59.257	4.0
59.272	8.0
59.287	2.0
59.302	9.0
59.317	5.0
59.332	4.0
59.347	0.0
59.362	3.0
59.377	4.0
59.392	7.0
59.407	3.0
59.422	4.0
59.437	3.0
59.452	3.0
59.467	4.0
59.482	6.0
59.497	4.0
59.512	7.0
59.527	6.0
59.542	10.0
59.557	3.0
59.572	7.0
59.587	8.0
59.602	10.0
59.617	9.0
59.632	7.0
59.647	10.0
59.661	5.0
59.676	13.0
59.691	6.0
59.706	5.0
59.721	3.0
59.736	12.0
59.751	4.0
59.766	3.0
59.781	11.0
59.796	4.0
59.811	5.0
59.826	6.0
59.841	4.0
59.856	4.0
59.871	5.0
59.886	7.0
59.901	3.0
59.916	4.0
59.931	4.0
59.946	4.0
59.961	3.0
59.976	8.0
59.991	1.0
60.006	3.0
60.021	12.0
60.036	7.0
60.051	4.0
60.066	5.0
60.081	4.0
60.096	6.0
60.111	5.0
60.126	3.0
60.141	5.0
60.156	3.0
60.171	1.0
60.186	3.0
60.201	1.0
60.216	3.0
60.231	5.0
60.246	5.0
60.261	1.0
60.276	8.0
60.291	5.0
60.306	4.0
60.321	2.0
60.336	1.0
60.35	1.0
60.365	5.0
60.38	7.0
60.395	3.0
60.41	5.0
60.425	7.0
60.44	9.0
60.455	9.0
60.47	1.0
60.485	8.0
60.5	5.0
60.515	3.0
60.53	6.0
60.545	6.0
60.56	8.0
60.575	4.0
60.59	8.0
60.605	5.0
60.62	7.0
60.635	5.0
60.65	8.0
60.665	4.0
60.68	5.0
60.695	4.0
60.71	7.0
60.725	3.0
60.74	5.0
60.755	3.0
60.77	2.0
60.785	2.0
60.8	5.0
60.815	4.0
60.83	5.0
60.845	3.0
60.86	6.0
60.875	5.0
60.89	3.0
60.905	2.0
60.92	4.0
60.935	8.0
60.95	3.0
60.965	4.0
60.98	5.0
60.995	9.0
61.01	10.0
61.025	5.0
61.04	5.0
61.055	5.0
61.07	10.0
61.085	8.0
61.1	7.0
61.115	3.0
61.13	6.0
61.145	9.0
61.16	3.0
61.175	4.0
61.191	1.0
61.206	4.0
61.221	2.0
61.236	2.0
61.251	0.0
61.266	5.0
61.281	3.0
61.296	4.0
61.311	2.0
61.326	2.0
61.341	6.0
61.356	4.0
61.371	4.0
61.386	5.0
61.401	5.0
61.416	5.0
61.431	6.0
61.446	6.0
61.461	2.0
61.476	5.0
61.491	3.0
61.506	2.0
61.521	8.0
61.536	12.0
61.551	9.0
61.566	8.0
61.581	7.0
61.596	7.0
61.611	9.0
61.626	5.0
61.641	6.0
61.656	4.0
61.672	1.0
61.687	5.0
61.702	3.0
61.717	5.0
61.732	2.0
61.747	5.0
61.762	2.0
61.777	4.0
61.792	8.0
61.807	6.0
61.822	4.0
61.837	7.0
61.852	6.0
61.867	3.0
61.882	5.0
61.897	7.0
61.912	5.0
61.927	4.0
61.943	2.0
61.958	6.0
61.973	9.0
61.988	10.0
62.003	5.0
62.018	3.0
62.033	5.0
62.048	5.0
62.063	2.0
62.078	6.0
62.093	3.0
62.108	7.0
62.123	5.0
62.138	5.0
62.153	4.0
62.169	3.0
62.184	5.0
62.199	4.0
62.214	3.0
62.229	2.0
62.244	1.0
62.259	1.0
62.274	4.0
62.289	1.0
62.304	5.0
62.319	4.0
62.335	10.0
62.35	4.0
62.365	2.0
62.38	0.0
62.395	5.0
62.41	5.0
62.425	3.0
62.44	8.0
62.455	4.0
62.47	6.0
62.485	3.0
62.501	6.0
62.516	10.0
62.531	1.0
62.546	2.0
62.561	3.0
62.576	4.0
62.591	2.0
62.606	4.0
62.621	3.0
62.636	6.0
62.652	3.0
62.667	6.0
62.682	6.0
62.697	0.0
62.712	2.0
62.727	5.0
62.742	4.0
62.757	1.0
62.772	5.0
62.787	0.0
62.803	6.0
62.818	2.0
62.833	3.0
62.848	2.0
62.863	5.0
62.878	5.0
62.893	6.0
62.908	7.0
62.923	6.0
62.939	5.0
62.954	5.0
62.969	5.0
62.984	2.0
62.999	4.0
63.014	1.0
63.029	1.0
63.044	3.0
63.059	3.0
63.074	5.0
63.09	3.0
63.105	4.0
63.12	8.0
63.135	2.0
63.15	8.0
63.165	3.0
63.18	6.0
63.195	4.0
63.21	3.0
63.226	8.0
63.241	3.0
63.256	2.0
63.271	6.0
63.286	1.0
63.301	4.0
63.316	5.0
63.331	5.0
63.346	5.0
63.362	6.0
63.377	9.0
63.392	5.0
63.407	6.0
63.422	5.0
63.437	6.0
63.452	7.0
63.467	3.0
63.482	5.0
63.497	8.0
63.513	3.0
63.528	5.0
63.543	4.0
63.558	7.0
63.573	5.0
63.588	2.0
63.603	4.0
63.618	3.0
63.633	4.0
63.648	6.0
63.664	1.0
63.679	2.0
63.694	2.0
63.709	5.0
63.724	4.0
63.739	4.0
63.754	10.0
63.769	10.0
63.784	2.0
63.799	2.0
63.814	6.0
63.83	4.0
63.845	4.0
63.86	5.0
63.875	3.0
63.89	6.0
63.905	4.0
63.92	5.0
63.935	6.0
63.95	9.0
63.965	3.0
63.98	2.0
63.996	3.0
64.011	4.0
64.026	1.0
64.041	6.0
64.056	3.0
64.071	5.0
64.086	3.0
64.101	5.0
64.116	1.0
64.131	4.0
64.146	1.0
64.161	4.0
64.176	2.0
64.191	5.0
64.207	3.0
64.222	3.0
64.237	3.0
64.252	3.0
64.267	4.0
64.282	4.0
64.297	3.0
64.312	9.0
64.327	4.0
64.342	4.0
64.357	4.0
64.372	3.0
64.387	4.0
64.402	4.0
64.417	4.0
64.433	3.0
64.448	2.0
64.463	7.0
64.478	0.0
64.493	3.0
64.508	3.0
64.523	3.0
64.538	3.0
64.553	6.0
64.568	3.0
64.583	4.0
64.598	1.0
64.613	9.0
64.628	3.0
64.643	7.0
64.658	5.0
64.673	3.0
64.688	4.0
64.703	0.0
64.718	1.0
64.734	2.0
64.749	4.0
64.764	4.0
64.779	7.0
64.794	2.0
64.809	1.0
64.824	2.0
64.839	6.0
64.854	4.0
64.869	3.0
64.884	4.0
64.899	1.0
64.914	7.0
64.929	6.0
64.944	1.0
64.959	4.0
64.974	3.0
64.989	5.0
65.004	6.0
65.019	4.0
65.034	8.0
65.049	3.0
65.064	4.0
65.079	4.0
65.094	3.0
65.109	5.0
65.125	5.0
65.14	1.0
65.155	4.0
65.17	6.0
65.185	4.0
65.2	3.0
65.215	6.0
65.23	1.0
65.245	3.0
65.26	2.0
65.275	7.0
65.29	9.0
65.305	6.0
65.32	2.0
65.335	6.0
65.35	5.0
65.365	9.0
65.38	4.0
65.395	1.0
65.41	5.0
65.425	2.0
65.44	0.0
65.455	3.0
65.47	5.0
65.485	3.0
65.5	4.0
65.515	5.0
65.53	5.0
65.545	3.0
65.56	2.0
65.575	7.0
65.59	3.0
65.605	6.0
65.62	3.0
65.635	5.0
65.65	11.0
65.666	4.0
65.681	3.0
65.696	1.0
65.711	6.0
65.726	4.0
65.741	5.0
65.756	3.0
65.771	4.0
65.786	2.0
65.801	3.0
65.816	1.0
65.831	6.0
65.846	5.0
65.861	3.0
65.876	5.0
65.891	5.0
65.906	4.0
65.921	2.0
65.936	3.0
65.951	3.0
65.966	6.0
65.981	2.0
65.996	4.0
66.011	4.0
66.026	3.0
66.041	2.0
66.056	4.0
66.071	2.0
66.086	6.0
66.101	5.0
66.116	4.0
66.131	4.0
66.146	4.0
66.161	4.0
66.176	8.0
66.191	11.0
66.206	3.0
66.221	6.0
66.236	10.0
66.251	4.0
66.266	4.0
66.281	6.0
66.296	6.0
66.311	2.0
66.327	2.0
66.342	5.0
66.357	4.0
66.372	4.0
66.387	4.0
66.402	2.0
66.417	2.0
66.432	4.0
66.447	4.0
66.462	2.0
66.477	2.0
66.492	4.0
66.507	5.0
66.522	2.0
66.537	2.0
66.552	8.0
66.567	3.0
66.582	6.0
66.597	2.0
66.612	8.0
66.627	9.0
66.642	7.0
66.657	12.0
66.672	9.0
66.687	5.0
66.702	5.0
66.717	4.0
66.732	2.0
66.747	1.0
66.762	1.0
66.777	3.0
66.792	2.0
66.807	2.0
66.822	5.0
66.837	1.0
66.853	5.0
66.868	9.0
66.883	6.0
66.898	6.0
66.913	5.0
66.928	3.0
66.943	7.0
66.958	3.0
66.973	3.0
66.988	4.0
67.003	4.0
67.018	4.0
67.033	7.0
67.048	5.0
67.063	5.0
67.078	6.0
67.093	6.0
67.108	12.0
67.123	6.0
67.138	10.0
67.153	4.0
67.168	2.0
67.183	3.0
67.198	7.0
67.214	3.0
67.229	7.0
67.244	1.0
67.259	3.0
67.274	3.0
67.289	3.0
67.304	2.0
67.319	2.0
67.334	4.0
67.349	2.0
67.364	3.0
67.379	6.0
67.394	6.0
67.409	6.0
67.424	2.0
67.439	3.0
67.454	7.0
67.469	2.0
67.484	4.0
67.5	4.0
67.515	5.0
67.53	3.0
67.545	8.0
67.56	2.0
67.575	4.0
67.59	5.0
67.605	6.0
67.62	5.0
67.635	1.0
67.65	3.0
67.665	4.0
67.68	5.0
67.695	2.0
67.71	2.0
67.726	4.0
67.741	2.0
67.756	3.0
67.771	7.0
67.786	2.0
67.801	3.0
67.816	3.0
67.831	1.0
67.846	4.0
67.861	4.0
67.876	7.0
67.891	2.0
67.906	4.0
67.922	3.0
67.937	8.0
67.952	4.0
67.967	1.0
67.982	5.0
67.997	3.0
68.012	2.0
68.027	5.0
68.042	2.0
68.057	7.0
68.072	7.0
68.087	3.0
68.103	6.0
68.118	3.0
68.133	4.0
68.148	1.0
68.163	5.0
68.178	3.0
68.193	3.0
68.208	3.0
68.223	6.0
68.238	4.0
68.254	3.0
68.269	3.0
68.284	4.0
68.299	5.0
68.314	6.0
68.329	6.0
68.344	2.0
68.359	5.0
68.374	2.0
68.389	1.0
68.405	4.0
68.42	3.0
68.435	4.0
68.45	7.0
68.465	2.0
68.48	3.0
68.495	0.0
68.51	2.0
68.525	2.0
68.54	5.0
68.556	8.0
68.571	3.0
68.586	4.0
68.601	3.0
68.616	4.0
68.631	1.0
68.646	5.0
68.661	4.0
68.676	7.0
68.691	7.0
68.707	3.0
68.722	3.0
68.737	5.0
68.752	4.0
68.767	3.0
68.782	2.0
68.797	3.0
68.812	6.0
68.827	3.0
68.842	3.0
68.857	3.0
68.873	1.0
68.888	0.0
68.903	1.0
68.918	3.0
68.933	4.0
68.948	2.0
68.963	4.0
68.978	1.0
68.993	3.0
69.008	6.0
69.023	2.0
69.038	6.0
69.054	2.0
69.069	2.0
69.084	4.0
69.099	4.0
69.114	2.0
69.129	3.0
69.144	1.0
69.159	6.0
69.174	2.0
69.189	5.0
69.204	2.0
69.219	3.0
69.234	5.0
69.249	4.0
69.264	6.0
69.279	4.0
69.295	7.0
69.31	3.0
69.325	2.0
69.34	5.0
69.355	3.0
69.37	2.0
69.385	6.0
69.4	3.0
69.415	3.0
69.43	2.0
69.445	5.0
69.46	0.0
69.475	3.0
69.49	3.0
69.505	1.0
69.52	3.0
69.535	5.0
69.55	1.0
69.565	4.0
69.58	3.0
69.595	3.0
69.61	4.0
69.625	3.0
69.64	2.0
69.655	6.0
69.67	4.0
69.685	5.0
69.7	7.0
69.715	2.0
69.73	7.0
69.745	3.0
69.76	4.0
69.775	9.0
69.79	7.0
69.805	6.0
69.82	5.0
69.835	8.0
69.85	5.0
69.865	3.0
69.88	1.0
69.895	3.0
69.909	6.0
69.924	1.0
69.939	4.0
69.954	2.0
69.969	0.0
69.984	4.0
69.999	7.0
70.014	4.0
70.029	2.0
70.044	3.0
70.059	3.0
70.074	2.0
70.088	5.0
70.103	1.0
70.118	3.0
70.133	0.0
70.148	3.0
70.163	2.0
70.178	6.0
70.193	4.0
70.208	5.0
70.222	3.0
70.237	9.0
70.252	5.0
70.267	9.0
70.282	7.0
70.297	7.0
70.312	6.0
70.327	3.0
70.341	4.0
70.356	3.0
70.371	4.0
70.386	4.0
70.401	4.0
70.416	3.0
70.43	2.0
70.445	2.0
70.46	4.0
70.475	1.0
70.49	3.0
70.505	7.0
70.519	4.0
70.534	4.0
70.549	3.0
70.564	5.0
70.579	1.0
70.594	8.0
70.608	4.0
70.623	3.0
70.638	6.0
70.653	5.0
70.668	4.0
70.683	3.0
70.697	7.0
70.712	5.0
70.727	3.0
70.742	9.0
70.757	2.0
70.771	5.0
70.786	4.0
70.801	4.0
70.816	3.0
70.831	5.0
70.845	6.0
70.86	2.0
70.875	3.0
70.89	2.0
70.905	0.0
70.92	2.0
70.934	1.0
70.949	3.0
70.964	5.0
70.979	4.0
70.994	2.0
71.008	4.0
71.023	0.0
71.038	3.0
71.053	3.0
71.068	4.0
71.082	6.0
71.097	2.0
71.112	9.0
71.127	4.0
71.142	6.0
71.156	4.0
71.171	4.0
71.186	2.0
71.201	4.0
71.216	2.0
71.231	3.0
71.245	8.0
71.26	4.0
71.275	2.0
71.29	4.0
71.305	3.0
71.319	6.0
71.334	8.0
71.349	2.0
71.364	5.0
71.379	5.0
71.394	4.0
71.408	4.0
71.423	3.0
71.438	1.0
71.453	8.0
71.468	2.0
71.483	3.0
71.497	3.0
71.512	6.0
71.527	1.0
71.542	6.0
71.557	7.0
71.572	2.0
71.586	6.0
71.601	2.0
71.616	3.0
71.631	1.0
71.646	2.0
71.661	5.0
71.676	1.0
71.69	3.0
71.705	2.0
71.72	5.0
71.735	2.0
71.75	3.0
71.765	2.0
71.78	3.0
71.795	4.0
71.81	4.0
71.824	3.0
71.839	3.0
71.854	4.0
71.869	1.0
71.884	0.0
71.899	3.0
71.914	3.0
71.929	3.0
71.944	5.0
71.959	6.0
71.974	1.0
71.988	4.0
72.003	4.0
72.018	9.0
72.033	3.0
72.048	3.0
72.063	5.0
72.078	3.0
72.093	1.0
72.108	2.0
72.123	3.0
72.138	5.0
72.153	4.0
72.168	1.0
72.183	7.0
72.198	5.0
72.213	3.0
72.228	5.0
72.243	2.0
72.258	2.0
72.273	1.0
72.288	5.0
72.303	1.0
72.318	6.0
72.333	3.0
72.348	3.0
72.363	3.0
72.378	7.0
72.393	4.0
72.408	6.0
72.423	3.0
72.438	6.0
72.453	4.0
72.468	5.0
72.483	4.0
72.498	3.0
72.513	6.0
72.528	3.0
72.543	2.0
72.558	4.0
72.573	3.0
72.588	4.0
72.603	2.0
72.618	7.0
72.633	7.0
72.649	6.0
72.664	1.0
72.679	2.0
72.694	4.0
72.709	2.0
72.724	4.0
72.739	3.0
72.754	1.0
72.769	2.0
72.784	2.0
72.799	7.0
72.814	5.0
72.829	1.0
72.845	2.0
72.86	5.0
72.875	4.0
72.89	2.0
72.905	2.0
72.92	3.0
72.935	3.0
72.95	4.0
72.965	3.0
72.98	6.0
72.996	2.0
73.011	5.0
73.026	2.0
73.041	4.0
73.056	3.0
73.071	2.0
73.086	4.0
73.101	1.0
73.117	2.0
73.132	3.0
73.147	4.0
73.162	3.0
73.177	1.0
73.192	4.0
73.207	4.0
73.222	4.0
73.238	3.0
73.253	3.0
73.268	7.0
73.283	4.0
73.298	1.0
73.313	5.0
73.328	2.0
73.343	4.0
73.359	5.0
73.374	2.0
73.389	5.0
73.404	1.0
73.419	1.0
73.434	2.0
73.449	1.0
73.465	5.0
73.48	1.0
73.495	4.0
73.51	4.0
73.525	2.0
73.54	3.0
73.556	4.0
73.571	2.0
73.586	4.0
73.601	1.0
73.616	2.0
73.631	0.0
73.646	0.0
73.662	3.0
73.677	4.0
73.692	5.0
73.707	4.0
73.722	0.0
73.737	5.0
73.752	3.0
73.768	5.0
73.783	4.0
73.798	7.0
73.813	1.0
73.828	5.0
73.843	2.0
73.859	1.0
73.874	5.0
73.889	3.0
73.904	2.0
73.919	4.0
73.934	3.0
73.949	7.0
73.965	5.0
73.98	3.0
73.995	2.0
74.01	2.0
74.025	2.0
74.04	4.0
74.056	4.0
74.071	3.0
74.086	8.0
74.101	4.0
74.116	7.0
74.131	5.0
74.146	5.0
74.162	7.0
74.177	2.0
74.192	5.0
74.207	7.0
74.222	6.0
74.237	5.0
74.252	1.0
74.268	3.0
74.283	3.0
74.298	2.0
74.313	4.0
74.328	2.0
74.343	6.0
74.358	6.0
74.374	7.0
74.389	4.0
74.404	1.0
74.419	2.0
74.434	4.0
74.449	6.0
74.464	5.0
74.48	4.0
74.495	3.0
74.51	2.0
74.525	6.0
74.54	1.0
74.555	3.0
74.57	6.0
74.586	5.0
74.601	3.0
74.616	4.0
74.631	6.0
74.646	1.0
74.661	4.0
74.676	6.0
74.691	5.0
74.707	2.0
74.722	5.0
74.737	5.0
74.752	2.0
74.767	6.0
74.782	6.0
74.797	2.0
74.813	5.0
74.828	5.0
74.843	4.0
74.858	8.0
74.873	3.0
74.888	6.0
74.903	3.0
74.918	5.0
74.934	4.0
74.949	5.0
74.964	4.0
74.979	3.0
74.994	2.0
75.009	0.0
75.024	8.0
75.04	3.0
75.055	1.0
75.07	4.0
75.085	4.0
75.1	2.0
75.115	4.0
75.13	3.0
75.145	4.0
75.161	2.0
75.176	4.0
75.191	3.0
75.206	7.0
75.221	4.0
75.236	5.0
75.251	4.0
75.266	2.0
75.282	6.0
75.297	1.0
75.312	6.0
75.327	3.0
75.342	3.0
75.357	3.0
75.372	0.0
75.387	1.0
75.403	0.0
75.418	1.0
75.433	2.0
75.448	2.0
75.463	1.0
75.478	3.0
75.493	4.0
75.509	5.0
75.524	3.0
75.539	4.0
75.554	2.0
75.569	0.0
75.584	2.0
75.599	5.0
75.614	5.0
75.63	3.0
75.645	3.0
75.66	4.0
75.675	3.0
75.69	1.0
75.705	5.0
75.72	3.0
75.735	6.0
75.751	0.0
75.766	2.0
75.781	2.0
75.796	1.0
75.811	4.0
75.826	2.0
75.841	4.0
75.856	4.0
75.872	4.0
75.887	6.0
75.902	3.0
75.917	4.0
75.932	1.0
75.947	2.0
75.962	0.0
75.977	3.0
75.993	3.0
76.008	3.0
76.023	5.0
76.038	4.0
76.053	0.0
76.068	4.0
76.083	3.0
76.098	4.0
76.114	5.0
76.129	2.0
76.144	0.0
76.159	3.0
76.174	3.0
76.189	3.0
76.204	1.0
76.22	1.0
76.235	3.0
76.25	1.0
76.265	5.0
76.28	4.0
76.295	5.0
76.31	5.0
76.325	5.0
76.341	3.0
76.356	4.0
76.371	4.0
76.386	7.0
76.401	6.0
76.416	4.0
76.431	5.0
76.446	5.0
76.462	3.0
76.477	7.0
76.492	1.0
76.507	3.0
76.522	3.0
76.537	3.0
76.552	1.0
76.567	1.0
76.583	3.0
76.598	2.0
76.613	1.0
76.628	0.0
76.643	5.0
76.658	4.0
76.673	3.0
76.688	6.0
76.704	7.0
76.719	4.0
76.734	5.0
76.749	7.0
76.764	4.0
76.779	2.0
76.794	0.0
76.809	5.0
76.824	2.0
76.84	5.0
76.855	3.0
76.87	4.0
76.885	6.0
76.9	4.0
76.915	2.0
76.93	2.0
76.945	3.0
76.96	2.0
76.976	1.0
76.991	1.0
77.006	3.0
77.021	0.0
77.036	2.0
77.051	2.0
77.066	1.0
77.081	7.0
77.096	4.0
77.112	2.0
77.127	2.0
77.142	0.0
77.157	1.0
77.172	3.0
77.187	5.0
77.202	2.0
77.217	4.0
77.232	5.0
77.247	4.0
77.263	4.0
77.278	2.0
77.293	6.0
77.308	4.0
77.323	2.0
77.338	4.0
77.353	4.0
77.368	5.0
77.383	4.0
77.398	6.0
77.413	3.0
77.428	2.0
77.444	7.0
77.459	3.0
77.474	1.0
77.489	4.0
77.504	5.0
77.519	4.0
77.534	3.0
77.549	0.0
77.564	5.0
77.579	3.0
77.594	5.0
77.609	9.0
77.624	7.0
77.64	3.0
77.655	6.0
77.67	8.0
77.685	8.0
77.7	5.0
77.715	4.0
77.73	3.0
77.745	3.0
77.76	4.0
77.775	6.0
77.79	6.0
77.805	4.0
77.82	3.0
77.835	1.0
77.85	4.0
77.865	2.0
77.88	4.0
77.895	2.0
77.91	4.0
77.926	3.0
77.941	6.0
77.956	5.0
77.971	3.0
77.986	3.0
78.001	2.0
78.016	2.0
78.031	2.0
78.046	3.0
78.061	4.0
78.076	4.0
78.091	4.0
78.106	1.0
78.121	2.0
78.136	4.0
78.151	3.0
78.166	6.0
78.181	6.0
78.196	2.0
78.211	5.0
78.226	3.0
78.241	2.0
78.256	3.0
78.271	2.0
78.286	9.0
78.301	3.0
78.316	1.0
78.331	2.0
78.346	1.0
78.361	7.0
78.376	5.0
78.391	2.0
78.406	3.0
78.421	3.0
78.436	3.0
78.451	1.0
78.466	5.0
78.481	1.0
78.496	9.0
78.511	1.0
78.526	1.0
78.541	2.0
78.556	6.0
78.571	3.0
78.586	2.0
78.601	1.0
78.616	4.0
78.631	2.0
78.646	3.0
78.661	3.0
78.676	1.0
78.691	2.0
78.706	7.0
78.721	5.0
78.736	2.0
78.751	0.0
78.766	4.0
78.781	3.0
78.796	3.0
78.811	1.0
78.826	3.0
78.841	1.0
78.856	1.0
78.871	3.0
78.885	3.0
78.9	6.0
78.915	4.0
78.93	1.0
78.945	5.0
78.96	4.0
78.975	2.0
78.99	4.0
79.005	3.0
79.02	4.0
79.035	2.0
79.05	2.0
79.065	1.0
79.08	1.0
79.095	2.0
79.11	2.0
79.125	1.0
79.14	1.0
79.155	5.0
79.17	3.0
79.185	4.0
79.2	2.0
79.215	3.0
79.23	2.0
79.245	5.0
79.26	6.0
79.275	1.0
79.29	7.0
79.304	4.0
79.319	3.0
79.334	5.0
79.349	3.0
79.364	3.0
79.379	3.0
79.394	5.0
79.409	0.0
79.424	3.0
79.439	3.0
79.454	5.0
79.469	6.0
79.484	1.0
79.499	2.0
79.514	2.0
79.529	7.0
79.544	1.0
79.559	5.0
79.574	3.0
79.589	4.0
79.604	2.0
79.619	2.0
79.634	2.0
79.649	3.0
79.664	6.0
79.679	4.0
79.693	2.0
79.708	1.0
79.723	4.0
79.738	3.0
79.753	2.0
79.768	2.0
79.783	1.0
79.798	4.0
79.813	3.0
79.828	3.0
79.843	3.0
79.858	5.0
79.873	1.0
79.888	4.0
79.903	2.0
79.918	3.0
79.933	1.0
79.948	2.0
79.963	1.0
79.978	5.0
79.993	5.0
80.008	3.0
80.023	2.0
80.038	5.0
80.053	2.0
80.068	4.0
80.083	6.0
80.098	3.0
80.113	1.0
80.128	3.0
80.143	3.0
80.158	2.0
80.173	4.0
80.188	5.0
80.202	5.0
80.217	5.0
80.232	1.0
80.247	2.0
80.262	3.0
80.277	2.0
80.292	0.0
80.307	3.0
80.322	2.0
80.337	3.0
80.352	5.0
80.367	3.0
80.382	2.0
80.397	2.0
80.412	3.0
80.427	4.0
80.442	1.0
80.457	3.0
80.472	5.0
80.487	3.0
80.502	2.0
80.517	4.0
80.532	2.0
80.547	1.0
80.562	4.0
80.577	2.0
80.592	1.0
80.607	5.0
80.622	3.0
80.637	4.0
80.652	3.0
80.667	5.0
80.682	5.0
80.697	1.0
80.712	1.0
80.727	1.0
80.742	5.0
80.757	5.0
80.772	5.0
80.787	3.0
80.802	3.0
80.817	4.0
80.832	3.0
80.847	3.0
80.862	4.0
80.877	3.0
80.892	5.0
80.907	2.0
80.922	2.0
80.937	0.0
80.952	4.0
80.967	10.0
80.982	3.0
80.997	1.0
81.012	5.0
81.027	1.0
81.042	4.0
81.057	3.0
81.072	4.0
81.087	6.0
81.101	7.0
81.116	5.0
81.131	1.0
81.146	0.0
81.161	2.0
81.176	2.0
81.191	3.0
81.206	4.0
81.221	3.0
81.236	5.0
81.251	5.0
81.266	0.0
81.281	3.0
81.296	3.0
81.311	6.0
81.326	1.0
81.341	3.0
81.356	2.0
81.371	1.0
81.386	0.0
81.401	3.0
81.416	4.0
81.431	4.0
81.446	4.0
81.461	4.0
81.476	1.0
81.491	4.0
81.506	4.0
81.521	0.0
81.536	1.0
81.55	1.0
81.565	4.0
81.58	2.0
81.595	5.0
81.61	2.0
81.625	3.0
81.64	2.0
81.655	3.0
81.67	2.0
81.685	3.0
81.7	5.0
81.715	4.0
81.73	2.0
81.745	9.0
81.76	6.0
81.775	5.0
81.79	3.0
81.805	2.0
81.819	1.0
81.834	4.0
81.849	1.0
81.864	2.0
81.879	2.0
81.894	6.0
81.909	8.0
81.924	6.0
81.939	2.0
81.954	1.0
81.969	2.0
81.984	9.0
81.999	4.0
82.013	3.0
82.028	4.0
82.043	4.0
82.058	5.0
82.073	3.0
82.088	0.0
82.103	1.0
82.118	5.0
82.133	5.0
82.148	3.0
82.163	2.0
82.177	4.0
82.192	4.0
82.207	1.0
82.222	4.0
82.237	1.0
82.252	6.0
82.267	0.0
82.282	4.0
82.297	4.0
82.312	4.0
82.326	3.0
82.341	3.0
82.356	3.0
82.371	4.0
82.386	0.0
82.401	2.0
82.416	5.0
82.431	5.0
82.445	4.0
82.46	4.0
82.475	0.0
82.49	1.0
82.505	2.0
82.52	3.0
82.535	6.0
82.55	3.0
82.565	3.0
82.579	3.0
82.594	4.0
82.609	0.0
82.624	4.0
82.639	3.0
82.654	2.0
82.669	6.0
82.684	1.0
82.698	4.0
82.713	1.0
82.728	1.0
82.743	0.0
82.758	2.0
82.773	2.0
82.788	2.0
82.803	2.0
82.817	3.0
82.832	1.0
82.847	1.0
82.862	4.0
82.877	2.0
82.892	1.0
82.907	1.0
82.922	4.0
82.937	2.0
82.951	4.0
82.966	7.0
82.981	1.0
82.996	3.0
83.011	1.0
83.026	2.0
83.041	5.0
83.056	1.0
83.07	1.0
83.085	3.0
83.1	0.0
83.115	4.0
83.13	3.0
83.145	2.0
83.16	1.0
83.175	3.0
83.19	0.0
83.204	2.0
83.219	2.0
83.234	2.0
83.249	4.0
83.264	2.0
83.279	1.0
83.294	1.0
83.309	3.0
83.324	1.0
83.339	0.0
83.353	3.0
83.368	6.0
83.383	4.0
83.398	1.0
83.413	4.0
83.428	0.0
83.443	0.0
83.458	4.0
83.473	2.0
83.488	0.0
83.503	3.0
83.517	4.0
83.532	3.0
83.547	1.0
83.562	7.0
83.577	4.0
83.592	1.0
83.607	3.0
83.622	2.0
83.637	2.0
83.652	4.0
83.667	5.0
83.682	3.0
83.697	4.0
83.712	1.0
83.727	5.0
83.741	5.0
83.756	3.0
83.771	4.0
83.786	5.0
83.801	2.0
83.816	3.0
83.831	1.0
83.846	2.0
83.861	5.0
83.876	1.0
83.891	3.0
83.906	5.0
83.921	3.0
83.936	6.0
83.951	1.0
83.966	1.0
83.981	4.0
83.996	1.0
84.011	5.0
84.026	1.0
84.041	1.0
84.056	0.0
84.071	3.0
84.086	5.0
84.101	2.0
84.116	7.0
84.131	4.0
84.146	2.0
84.161	4.0
84.176	1.0
84.191	5.0
84.206	7.0
84.221	5.0
84.236	4.0
84.251	3.0
84.266	5.0
84.281	2.0
84.296	4.0
84.311	4.0
84.326	2.0
84.341	6.0
84.356	4.0
84.371	6.0
84.386	4.0
84.401	3.0
84.416	3.0
84.431	3.0
84.446	5.0
84.461	0.0
84.476	2.0
84.492	4.0
84.507	5.0
84.522	7.0
84.537	6.0
84.552	2.0
84.567	2.0
84.582	5.0
84.597	3.0
84.612	6.0
84.627	1.0
84.642	3.0
84.657	2.0
84.672	2.0
84.687	4.0
84.702	1.0
84.717	3.0
84.733	3.0
84.748	5.0
84.763	2.0
84.778	1.0
84.793	1.0
84.808	3.0
84.823	4.0
84.838	4.0
84.853	4.0
84.868	5.0
84.883	1.0
84.898	6.0
84.913	3.0
84.929	6.0
84.944	1.0
84.959	4.0
84.974	6.0
84.989	3.0
85.004	3.0
85.019	3.0
85.034	1.0
85.049	5.0
85.064	3.0
85.079	2.0
85.094	2.0
85.11	2.0
85.125	4.0
85.14	4.0
85.155	1.0
85.17	1.0
85.185	4.0
85.2	1.0
85.215	0.0
85.23	3.0
85.245	3.0
85.26	9.0
85.276	2.0
85.291	5.0
85.306	1.0
85.321	2.0
85.336	4.0
85.351	2.0
85.366	2.0
85.381	3.0
85.396	5.0
85.411	2.0
85.426	2.0
85.441	4.0
85.457	2.0
85.472	2.0
85.487	1.0
85.502	2.0
85.517	2.0
85.532	3.0
85.547	2.0
85.562	2.0
85.577	1.0
85.592	9.0
85.607	2.0
85.622	1.0
85.637	3.0
85.653	6.0
85.668	3.0
85.683	2.0
85.698	4.0
85.713	1.0
85.728	4.0
85.743	3.0
85.758	0.0
85.773	6.0
85.788	3.0
85.803	5.0
85.818	4.0
85.833	3.0
85.848	3.0
85.863	2.0
85.879	3.0
85.894	2.0
85.909	2.0
85.924	1.0
85.939	3.0
85.954	5.0
85.969	6.0
85.984	3.0
85.999	4.0
86.014	2.0
86.029	7.0
86.044	4.0
86.059	6.0
86.074	1.0
86.089	5.0
86.104	2.0
86.119	1.0
86.134	5.0
86.149	2.0
86.164	3.0
86.179	3.0
86.194	6.0
86.209	4.0
86.224	3.0
86.239	4.0
86.254	5.0
86.269	2.0
86.284	3.0
86.299	4.0
86.314	3.0
86.33	3.0
86.345	2.0
86.36	4.0
86.375	7.0
86.39	5.0
86.405	3.0
86.42	1.0
86.435	3.0
86.45	5.0
86.465	2.0
86.48	0.0
86.495	4.0
86.51	3.0
86.525	2.0
86.54	2.0
86.555	2.0
86.57	0.0
86.585	2.0
86.6	4.0
86.615	4.0
86.63	2.0
86.645	4.0
86.659	1.0
86.674	3.0
86.689	3.0
86.704	5.0
86.719	3.0
86.734	6.0
86.749	5.0
86.764	3.0
86.779	6.0
86.794	3.0
86.809	2.0
86.824	3.0
86.839	1.0
86.854	4.0
86.869	3.0
86.884	0.0
86.899	1.0
86.914	6.0
86.929	7.0
86.944	4.0
86.959	6.0
86.974	5.0
86.989	3.0
87.004	3.0
87.019	3.0
87.034	5.0
87.049	2.0
87.064	2.0
87.079	3.0
87.094	5.0
87.109	0.0
87.124	3.0
87.139	6.0
87.154	6.0
87.169	1.0
87.184	5.0
87.199	1.0
87.214	3.0
87.229	3.0
87.244	5.0
87.259	5.0
87.274	1.0
87.289	4.0
87.304	0.0
87.319	2.0
87.334	6.0
87.349	2.0
87.364	3.0
87.379	3.0
87.394	2.0
87.409	3.0
87.424	2.0
87.438	0.0
87.453	2.0
87.468	2.0
87.483	4.0
87.498	4.0
87.513	3.0
87.528	5.0
87.543	6.0
87.558	2.0
87.573	4.0
87.588	6.0
87.603	1.0
87.618	1.0
87.633	4.0
87.648	4.0
87.663	7.0
87.678	2.0
87.693	4.0
87.708	4.0
87.723	5.0
87.738	7.0
87.753	3.0
87.768	6.0
87.783	3.0
87.798	7.0
87.813	2.0
87.828	5.0
87.843	3.0
87.858	2.0
87.873	3.0
87.888	1.0
87.903	1.0
87.918	5.0
87.933	2.0
87.948	3.0
87.963	3.0
87.978	2.0
87.993	2.0
88.008	2.0
88.023	5.0
88.038	8.0
88.053	1.0
88.068	2.0
88.083	1.0
88.098	3.0
88.113	1.0
88.128	1.0
88.143	4.0
88.158	7.0
88.174	2.0
88.189	1.0
88.204	3.0
88.219	1.0
88.234	7.0
88.249	1.0
88.264	1.0
88.279	2.0
88.294	4.0
88.309	4.0
88.324	4.0
88.339	5.0
88.354	2.0
88.369	4.0
88.384	2.0
88.399	4.0
88.414	5.0
88.429	6.0
88.444	4.0
88.459	10.0
88.474	2.0
88.489	5.0
88.504	2.0
88.519	1.0
88.534	4.0
88.549	1.0
88.564	3.0
88.58	2.0
88.595	3.0
88.61	3.0
88.625	4.0
88.64	2.0
88.655	3.0
88.67	4.0
88.685	1.0
88.7	2.0
88.715	3.0
88.73	2.0
88.745	1.0
88.76	7.0
88.775	4.0
88.79	6.0
88.805	0.0
88.82	3.0
88.835	2.0
88.85	2.0
88.865	5.0
88.88	2.0
88.895	2.0
88.911	1.0
88.926	5.0
88.941	5.0
88.956	3.0
88.971	1.0
88.986	3.0
89.001	2.0
89.016	1.0
89.031	1.0
89.046	5.0
89.061	2.0
89.076	2.0
89.091	2.0
89.106	3.0
89.121	2.0
89.136	3.0
89.151	0.0
89.166	1.0
89.181	3.0
89.196	0.0
89.211	0.0
89.227	3.0
89.242	1.0
89.257	2.0
89.272	2.0
89.287	6.0
89.302	1.0
89.317	3.0
89.332	5.0
89.347	2.0
89.362	3.0
89.377	4.0
89.392	2.0
89.407	4.0
89.422	2.0
89.437	2.0
89.452	4.0
89.467	2.0
89.482	2.0
89.497	6.0
89.512	4.0
89.527	3.0
89.542	2.0
89.557	2.0
89.572	4.0
89.587	1.0
89.602	1.0
89.617	3.0
89.632	2.0
89.647	4.0
89.662	6.0
89.677	2.0
89.693	5.0
89.708	5.0
89.723	3.0
89.738	0.0
89.753	2.0
89.768	2.0
89.783	5.0
89.798	4.0
89.813	2.0
89.828	1.0
89.843	6.0
89.858	1.0
89.873	3.0
89.888	5.0
89.903	4.0
89.918	1.0
89.933	7.0
89.948	3.0
89.963	2.0
89.978	1.0
89.993	6.0
90.008	4.0
90.023	2.0
90.038	3.0
90.053	4.0
90.068	2.0
90.083	4.0
90.097	3.0
90.112	3.0
90.127	7.0
90.142	5.0
90.157	5.0
90.172	6.0
90.187	4.0
90.202	2.0
90.217	5.0
90.232	8.0
90.247	6.0
90.262	0.0
90.277	6.0
90.292	2.0
90.307	2.0
90.322	2.0
90.337	2.0
90.352	2.0
90.367	6.0
90.382	2.0
90.397	1.0
90.412	2.0
90.427	3.0
90.442	2.0
90.457	2.0
90.472	3.0
90.487	4.0
90.501	3.0
90.516	2.0
90.531	4.0
90.546	7.0
90.561	5.0
90.576	4.0
90.591	2.0
90.606	5.0
90.621	2.0
90.636	1.0
90.651	4.0
90.666	3.0
90.681	2.0
90.696	2.0
90.711	1.0
90.726	4.0
90.741	1.0
90.755	1.0
90.77	5.0
90.785	1.0
90.8	5.0
90.815	4.0
90.83	5.0
90.845	4.0
90.86	1.0
90.875	4.0
90.89	2.0
90.905	3.0
90.92	5.0
90.935	5.0
90.95	7.0
90.965	7.0
90.979	1.0
90.994	6.0
91.009	4.0
91.024	0.0
91.039	5.0
91.054	3.0
91.069	1.0
91.084	4.0
91.099	3.0
91.114	1.0
91.129	3.0
91.144	3.0
91.159	3.0
91.174	1.0
91.188	6.0
91.203	0.0
91.218	2.0
91.233	2.0
91.248	5.0
91.263	3.0
91.278	1.0
91.293	0.0
91.308	3.0
91.323	3.0
91.338	1.0
91.353	2.0
91.368	3.0
91.383	5.0
91.398	3.0
91.412	0.0
91.427	4.0
91.442	3.0
91.457	3.0
91.472	3.0
91.487	4.0
91.502	2.0
91.517	5.0
91.532	4.0
91.547	4.0
91.562	4.0
91.577	3.0
91.592	3.0
91.607	4.0
91.622	1.0
91.637	1.0
91.652	0.0
91.666	7.0
91.681	5.0
91.696	0.0
91.711	1.0
91.726	6.0
91.741	4.0
91.756	2.0
91.771	1.0
91.786	4.0
91.801	2.0
91.816	6.0
91.831	4.0
91.846	3.0
91.861	2.0
91.876	6.0
91.891	3.0
91.906	4.0
91.921	1.0
91.936	4.0
91.951	2.0
91.966	2.0
91.981	0.0
91.995	2.0
92.01	2.0
92.025	6.0
92.04	1.0
92.055	2.0
92.07	1.0
92.085	3.0
92.1	2.0
92.115	4.0
92.13	3.0
92.145	1.0
92.16	0.0
92.175	5.0
92.19	3.0
92.205	1.0
92.22	3.0
92.235	6.0
92.25	2.0
92.265	2.0
92.28	2.0
92.295	3.0
92.31	3.0
92.325	4.0
92.34	4.0
92.355	2.0
92.37	3.0
92.385	4.0
92.4	5.0
92.415	5.0
92.43	1.0
92.445	1.0
92.46	9.0
92.475	4.0
92.49	2.0
92.505	2.0
92.52	7.0
92.535	2.0
92.55	4.0
92.565	3.0
92.58	3.0
92.595	2.0
92.61	1.0
92.625	4.0
92.64	4.0
92.655	1.0
92.67	1.0
92.685	4.0
92.7	2.0
92.715	1.0
92.73	3.0
92.745	3.0
92.76	2.0
92.775	5.0
92.79	6.0
92.805	3.0
92.82	4.0
92.835	4.0
92.85	5.0
92.865	3.0
92.88	3.0
92.895	2.0
92.91	1.0
92.925	4.0
92.94	4.0
92.955	3.0
92.97	2.0
92.985	4.0
93.0	6.0
93.015	2.0
93.03	7.0
93.045	1.0
93.06	1.0
93.075	1.0
93.09	2.0
93.105	2.0
93.12	4.0
93.135	0.0
93.15	2.0
93.165	1.0
93.18	0.0
93.195	6.0
93.21	2.0
93.225	2.0
93.24	3.0
93.255	3.0
93.27	2.0
93.285	4.0
93.3	1.0
93.315	5.0
93.33	2.0
93.345	0.0
93.36	4.0
93.375	7.0
93.39	0.0
93.405	2.0
93.42	3.0
93.435	2.0
93.45	3.0
93.465	5.0
93.48	2.0
93.495	4.0
93.51	5.0
93.525	3.0
93.54	3.0
93.555	2.0
93.57	1.0
93.585	6.0
93.6	1.0
93.615	3.0
93.63	4.0
93.645	1.0
93.66	4.0
93.675	1.0
93.69	3.0
93.705	0.0
93.72	3.0
93.735	6.0
93.75	6.0
93.765	6.0
93.78	3.0
93.795	5.0
93.81	8.0
93.824	5.0
93.839	3.0
93.854	3.0
93.869	4.0
93.884	4.0
93.899	5.0
93.914	5.0
93.929	3.0
93.944	5.0
93.959	2.0
93.974	1.0
93.989	5.0
94.004	6.0
94.019	1.0
94.034	4.0
94.049	1.0
94.064	3.0
94.079	2.0
94.094	3.0
94.108	3.0
94.123	1.0
94.138	4.0
94.153	3.0
94.168	5.0
94.183	1.0
94.198	6.0
94.213	4.0
94.228	5.0
94.243	2.0
94.258	3.0
94.273	1.0
94.288	2.0
94.302	1.0
94.317	3.0
94.332	8.0
94.347	3.0
94.362	3.0
94.377	3.0
94.392	1.0
94.407	7.0
94.422	5.0
94.437	3.0
94.452	2.0
94.466	4.0
94.481	3.0
94.496	6.0
94.511	1.0
94.526	6.0
94.541	4.0
94.556	3.0
94.571	1.0
94.586	6.0
94.601	3.0
94.615	3.0
94.63	2.0
94.645	0.0
94.66	2.0
94.675	3.0
94.69	3.0
94.705	4.0
94.72	3.0
94.735	1.0
94.749	3.0
94.764	2.0
94.779	2.0
94.794	7.0
94.809	1.0
94.824	5.0
94.839	1.0
94.854	3.0
94.868	4.0
94.883	4.0
94.898	3.0
94.913	4.0
94.928	6.0
94.943	4.0
94.958	3.0
94.973	5.0
94.987	5.0
95.002	5.0
95.017	4.0
95.032	2.0
95.047	4.0
95.062	1.0
95.077	6.0
95.092	4.0
95.106	2.0
95.121	0.0
95.136	10.0
95.151	2.0
95.166	6.0
95.181	5.0
95.196	2.0
95.211	4.0
95.226	7.0
95.24	5.0
95.255	3.0
95.27	3.0
95.285	4.0
95.3	4.0
95.315	2.0
95.33	3.0
95.345	1.0
95.359	4.0
95.374	2.0
95.389	2.0
95.404	4.0
95.419	2.0
95.434	1.0
95.449	3.0
95.464	6.0
95.478	3.0
95.493	1.0
95.508	3.0
95.523	3.0
95.538	3.0
95.553	0.0
95.568	4.0
95.583	4.0
95.597	0.0
95.612	4.0
95.627	4.0
95.642	5.0
95.657	5.0
95.672	3.0
95.687	1.0
95.702	2.0
95.717	4.0
95.731	5.0
95.746	3.0
95.761	5.0
95.776	3.0
95.791	3.0
95.806	4.0
95.821	4.0
95.836	7.0
95.851	3.0
95.866	4.0
95.88	3.0
95.895	3.0
95.91	2.0
95.925	2.0
95.94	3.0
95.955	6.0
95.97	2.0
95.985	1.0
96.0	1.0
96.015	2.0
96.029	6.0
96.044	1.0
96.059	2.0
96.074	2.0
96.089	5.0
96.104	1.0
96.119	6.0
96.134	2.0
96.149	1.0
96.164	2.0
96.179	2.0
96.194	2.0
96.208	2.0
96.223	1.0
96.238	4.0
96.253	3.0
96.268	1.0
96.283	3.0
96.298	2.0
96.313	2.0
96.328	0.0
96.343	3.0
96.358	3.0
96.373	7.0
96.388	4.0
96.403	4.0
96.417	3.0
96.432	4.0
96.447	2.0
96.462	5.0
96.477	2.0
96.492	3.0
96.507	4.0
96.522	0.0
96.537	1.0
96.552	4.0
96.567	3.0
96.582	5.0
96.597	1.0
96.612	4.0
96.627	3.0
96.642	3.0
96.656	1.0
96.671	2.0
96.686	4.0
96.701	3.0
96.716	2.0
96.731	4.0
96.746	4.0
96.761	6.0
96.776	6.0
96.791	0.0
96.806	5.0
96.821	4.0
96.836	5.0
96.851	3.0
96.866	3.0
96.881	7.0
96.896	5.0
96.911	2.0
96.926	4.0
96.94	6.0
96.955	7.0
96.97	4.0
96.985	3.0
97.0	3.0
97.015	4.0
97.03	6.0
97.045	4.0
97.06	3.0
97.075	3.0
97.09	3.0
97.105	3.0
97.12	2.0
97.135	3.0
97.15	3.0
97.165	3.0
97.18	1.0
97.195	4.0
97.21	7.0
97.225	2.0
97.239	4.0
97.254	3.0
97.269	2.0
97.284	2.0
97.299	4.0
97.314	2.0
97.329	1.0
97.344	4.0
97.359	7.0
97.374	1.0
97.389	3.0
97.404	4.0
97.419	4.0
97.434	2.0
97.449	5.0
97.464	0.0
97.479	3.0
97.494	4.0
97.509	6.0
97.524	3.0
97.538	3.0
97.553	4.0
97.568	0.0
97.583	5.0
97.598	2.0
97.613	6.0
97.628	7.0
97.643	5.0
97.658	2.0
97.673	5.0
97.688	5.0
97.703	2.0
97.718	2.0
97.733	5.0
97.748	2.0
97.763	5.0
97.778	2.0
97.792	5.0
97.807	3.0
97.822	2.0
97.837	1.0
97.852	3.0
97.867	5.0
97.882	1.0
97.897	2.0
97.912	6.0
97.927	3.0
97.942	6.0
97.957	2.0
97.972	6.0
97.987	2.0
98.001	5.0
98.016	8.0
98.031	7.0
98.046	3.0
98.061	5.0
98.076	2.0
98.091	5.0
98.106	2.0
98.121	2.0
98.136	1.0
98.151	5.0
98.166	1.0
98.181	1.0
98.195	2.0
98.21	1.0
98.225	2.0
98.24	1.0
98.255	6.0
98.27	1.0
98.285	2.0
98.3	8.0
98.315	2.0
98.33	4.0
98.345	2.0
98.359	2.0
98.374	5.0
98.389	4.0
98.404	5.0
98.419	2.0
98.434	2.0
98.449	2.0
98.464	3.0
98.479	3.0
98.494	1.0
98.508	3.0
98.523	3.0
98.538	3.0
98.553	2.0
98.568	3.0
98.583	3.0
98.598	2.0
98.613	2.0
98.628	4.0
98.642	2.0
98.657	0.0
98.672	0.0
98.687	4.0
98.702	3.0
98.717	3.0
98.732	6.0
98.747	5.0
98.762	8.0
98.776	2.0
98.791	2.0
98.806	5.0
98.821	4.0
98.836	4.0
98.851	2.0
98.866	4.0
98.881	4.0
98.896	2.0
98.91	6.0
98.925	2.0
98.94	2.0
98.955	7.0
98.97	3.0
98.985	3.0
99.0	3.0
99.015	2.0
99.029	5.0
99.044	2.0
99.059	2.0
99.074	5.0
99.089	4.0
99.104	5.0
99.119	3.0
99.133	3.0
99.148	0.0
99.163	1.0
99.178	6.0
99.193	0.0
99.208	2.0
99.223	6.0
99.238	2.0
99.252	5.0
99.267	5.0
99.282	3.0
99.297	4.0
99.312	5.0
99.327	6.0
99.342	6.0
99.356	1.0
99.371	4.0
99.386	3.0
99.401	7.0
99.416	2.0
99.431	2.0
99.446	4.0
99.461	6.0
99.475	5.0
99.49	3.0
99.505	4.0
99.52	6.0
99.535	4.0
99.55	2.0
99.565	4.0
99.579	3.0
99.594	5.0
99.609	9.0
99.624	4.0
99.639	2.0
99.654	6.0
99.669	3.0
99.683	1.0
99.698	3.0
99.713	3.0
99.728	3.0
99.743	3.0
99.758	3.0
99.772	0.0
99.787	0.0
99.802	0.0
99.817	2.0
99.832	3.0
99.847	3.0
99.862	4.0
99.876	5.0
99.891	4.0
99.906	4.0
99.921	3.0
99.936	2.0
99.951	3.0
99.966	2.0
99.98	1.0
99.995	1.0
100.01	2.0
100.025	11.0
100.04	1.0
100.055	1.0
100.069	3.0
100.084	6.0
100.099	4.0
100.114	2.0
100.129	3.0
100.144	3.0
100.159	1.0
100.173	4.0
100.188	2.0
100.203	3.0
100.218	4.0
100.233	6.0
100.248	3.0
100.262	3.0
100.277	4.0
100.292	6.0
100.307	8.0
100.322	2.0
100.337	5.0
100.351	6.0
100.366	3.0
100.381	6.0
100.396	2.0
100.411	1.0
100.426	6.0
100.441	4.0
100.455	1.0
100.47	1.0
100.485	0.0
100.5	3.0
100.515	1.0
100.53	1.0
100.544	4.0
100.559	4.0
100.574	3.0
100.589	2.0
100.604	4.0
100.619	1.0
100.633	2.0
100.648	4.0
100.663	3.0
100.678	3.0
100.693	1.0
100.708	2.0
100.722	1.0
100.737	2.0
100.752	3.0
100.767	5.0
100.782	1.0
100.796	4.0
100.811	5.0
100.826	2.0
100.841	2.0
100.856	5.0
100.871	5.0
100.885	4.0
100.9	2.0
100.915	4.0
100.93	2.0
100.945	3.0
100.96	1.0
100.974	2.0
100.989	6.0
101.004	3.0
101.019	7.0
101.034	2.0
101.048	3.0
101.063	5.0
101.078	2.0
101.093	2.0
101.108	3.0
101.123	2.0
101.137	0.0
101.152	8.0
101.167	3.0
101.182	3.0
101.197	3.0
101.211	2.0
101.226	2.0
101.241	1.0
101.256	5.0
101.271	3.0
101.285	1.0
101.3	5.0
101.315	5.0
101.33	5.0
101.345	4.0
101.359	2.0
101.374	2.0
101.389	1.0
101.404	2.0
101.419	3.0
101.433	1.0
101.448	6.0
101.463	6.0
101.478	3.0
101.493	5.0
101.507	3.0
101.522	5.0
101.537	3.0
101.552	1.0
101.567	1.0
101.581	7.0
101.596	5.0
101.611	1.0
101.626	4.0
101.64	4.0
101.655	1.0
101.67	3.0
101.685	2.0
101.7	3.0
101.714	1.0
101.729	4.0
101.744	2.0
101.759	1.0
101.773	1.0
101.788	1.0
101.803	3.0
101.818	2.0
101.833	5.0
101.847	1.0
101.862	2.0
101.877	2.0
101.892	6.0
101.906	5.0
101.921	2.0
101.936	2.0
101.951	2.0
101.965	4.0
101.98	5.0
101.995	2.0
102.01	2.0
102.025	3.0
102.039	5.0
102.054	2.0
102.069	0.0
102.084	2.0
102.098	3.0
102.113	2.0
102.128	3.0
102.143	2.0
102.157	4.0
102.172	1.0
102.187	1.0
102.202	5.0
102.216	4.0
102.231	6.0
102.246	2.0
102.261	2.0
102.275	3.0
102.29	2.0
102.305	1.0
102.32	1.0
102.334	1.0
102.349	2.0
102.364	3.0
102.378	3.0
102.393	3.0
102.408	1.0
102.423	3.0
102.437	1.0
102.452	5.0
102.467	1.0
102.482	3.0
102.496	5.0
102.511	3.0
102.526	4.0
102.541	3.0
102.555	3.0
102.57	6.0
102.585	2.0
102.6	4.0
102.614	0.0
102.629	4.0
102.644	3.0
102.659	6.0
102.673	3.0
102.688	2.0
102.703	5.0
102.717	3.0
102.732	2.0
102.747	4.0
102.762	1.0
102.776	2.0
102.791	4.0
102.806	4.0
102.821	2.0
102.835	4.0
102.85	2.0
102.865	5.0
102.88	4.0
102.894	4.0
102.909	2.0
102.924	3.0
102.938	3.0
102.953	4.0
102.968	1.0
102.983	4.0
102.997	3.0
103.012	3.0
103.027	3.0
103.042	0.0
103.056	0.0
103.071	2.0
103.086	3.0
103.101	4.0
103.115	4.0
103.13	6.0
103.145	1.0
103.16	1.0
103.174	3.0
103.189	3.0
103.204	1.0
103.219	3.0
103.233	4.0
103.248	1.0
103.263	4.0
103.278	4.0
103.292	4.0
103.307	4.0
103.322	2.0
103.337	6.0
103.351	1.0
103.366	2.0
103.381	2.0
103.396	3.0
103.41	3.0
103.425	5.0
103.44	1.0
103.455	0.0
103.469	6.0
103.484	5.0
103.499	2.0
103.514	4.0
103.529	2.0
103.543	3.0
103.558	4.0
103.573	3.0
103.588	4.0
103.602	1.0
103.617	4.0
103.632	2.0
103.647	0.0
103.661	2.0
103.676	2.0
103.691	5.0
103.706	1.0
103.721	0.0
103.735	4.0
103.75	5.0
103.765	3.0
103.78	5.0
103.795	3.0
103.809	4.0
103.824	8.0
103.839	2.0
103.854	1.0
103.869	1.0
103.883	4.0
103.898	2.0
103.913	2.0
103.928	2.0
103.943	3.0
103.957	1.0
103.972	4.0
103.987	2.0
104.002	4.0
104.017	4.0
104.031	1.0
104.046	3.0
104.061	5.0
104.076	4.0
104.091	7.0
104.106	2.0
104.12	1.0
104.135	4.0
104.15	6.0
104.165	1.0
104.18	1.0
104.195	0.0
104.209	3.0
104.224	0.0
104.239	4.0
104.254	2.0
104.269	1.0
104.284	3.0
104.299	2.0
104.313	3.0
104.328	4.0
104.343	0.0
104.358	2.0
104.373	2.0
104.388	3.0
104.403	2.0
104.417	4.0
104.432	6.0
104.447	2.0
104.462	3.0
104.477	0.0
104.492	5.0
104.507	3.0
104.522	2.0
104.536	5.0
104.551	4.0
104.566	6.0
104.581	3.0
104.596	4.0
104.611	2.0
104.626	5.0
104.641	5.0
104.656	5.0
104.67	4.0
104.685	5.0
104.7	3.0
104.715	2.0
104.73	4.0
104.745	3.0
104.76	4.0
104.775	1.0
104.79	3.0
104.804	2.0
104.819	3.0
104.834	3.0
104.849	3.0
104.864	4.0
104.879	2.0
104.894	1.0
104.909	1.0
104.924	4.0
104.939	4.0
104.954	8.0
104.968	3.0
104.983	4.0
104.998	2.0
105.013	1.0
105.028	3.0
105.043	4.0
105.058	4.0
105.073	2.0
105.088	3.0
105.103	3.0
105.118	3.0
105.133	4.0
105.147	1.0
105.162	1.0
105.177	3.0
105.192	5.0
105.207	1.0
105.222	7.0
105.237	5.0
105.252	7.0
105.267	3.0
105.282	3.0
105.297	3.0
105.312	6.0
105.327	3.0
105.342	3.0
105.356	2.0
105.371	2.0
105.386	2.0
105.401	5.0
105.416	1.0
105.431	4.0
105.446	4.0
105.461	3.0
105.476	1.0
105.491	5.0
105.506	2.0
105.521	3.0
105.536	0.0
105.551	5.0
105.566	2.0
105.581	4.0
105.595	4.0
105.61	2.0
105.625	4.0
105.64	3.0
105.655	3.0
105.67	5.0
105.685	5.0
105.7	4.0
105.715	1.0
105.73	2.0
105.745	3.0
105.76	3.0
105.775	6.0
105.79	5.0
105.805	5.0
105.82	5.0
105.835	2.0
105.85	3.0
105.864	0.0
105.879	2.0
105.894	4.0
105.909	5.0
105.924	5.0
105.939	1.0
105.954	5.0
105.969	1.0
105.984	6.0
105.999	0.0
106.014	1.0
106.029	7.0
106.044	2.0
106.059	1.0
106.074	2.0
106.089	2.0
106.104	5.0
106.119	2.0
106.134	1.0
106.148	4.0
106.163	6.0
106.178	1.0
106.193	3.0
106.208	6.0
106.223	1.0
106.238	3.0
106.253	5.0
106.268	4.0
106.283	3.0
106.298	1.0
106.313	4.0
106.328	0.0
106.343	4.0
106.358	3.0
106.373	5.0
106.388	2.0
106.403	3.0
106.418	4.0
106.432	4.0
106.447	7.0
106.462	4.0
106.477	2.0
106.492	3.0
106.507	3.0
106.522	2.0
106.537	3.0
106.552	3.0
106.567	3.0
106.582	5.0
106.597	3.0
106.612	4.0
106.627	2.0
106.642	4.0
106.657	0.0
106.672	2.0
106.687	2.0
106.701	2.0
106.716	3.0
106.731	3.0
106.746	3.0
106.761	2.0
106.776	3.0
106.791	1.0
106.806	3.0
106.821	6.0
106.836	3.0
106.851	2.0
106.866	2.0
106.881	3.0
106.896	4.0
106.911	3.0
106.926	4.0
106.941	5.0
106.955	1.0
106.97	1.0
106.985	2.0
107.0	3.0
107.015	1.0
107.03	5.0
107.045	1.0
107.06	4.0
107.075	1.0
107.09	3.0
107.105	5.0
107.12	3.0
107.135	6.0
107.15	4.0
107.165	6.0
107.18	8.0
107.194	4.0
107.209	3.0
107.224	5.0
107.239	3.0
107.254	4.0
107.269	5.0
107.284	6.0
107.299	2.0
107.314	3.0
107.329	3.0
107.344	4.0
107.359	5.0
107.374	2.0
107.389	0.0
107.404	4.0
107.418	1.0
107.433	2.0
107.448	5.0
107.463	4.0
107.478	2.0
107.493	3.0
107.508	3.0
107.523	2.0
107.538	3.0
107.553	1.0
107.568	3.0
107.583	4.0
107.598	1.0
107.613	4.0
107.627	2.0
107.642	2.0
107.657	4.0
107.672	6.0
107.687	1.0
107.702	1.0
107.717	0.0
107.732	3.0
107.747	4.0
107.762	3.0
107.777	5.0
107.792	1.0
107.807	1.0
107.821	2.0
107.836	2.0
107.851	2.0
107.866	1.0
107.881	5.0
107.896	2.0
107.911	1.0
107.926	4.0
107.941	6.0
107.956	3.0
107.971	2.0
107.986	3.0
108.0	1.0
108.015	3.0
108.03	5.0
108.045	3.0
108.06	2.0
108.075	6.0
108.09	4.0
108.105	6.0
108.12	8.0
108.135	7.0
108.15	6.0
108.164	3.0
108.179	4.0
108.194	4.0
108.209	5.0
108.224	3.0
108.239	5.0
108.254	3.0
108.269	1.0
108.284	2.0
108.299	3.0
108.313	4.0
108.328	11.0
108.343	5.0
108.358	1.0
108.373	3.0
108.388	5.0
108.403	2.0
108.418	4.0
108.433	3.0
108.448	2.0
108.462	3.0
108.477	4.0
108.492	4.0
108.507	3.0
108.522	2.0
108.537	4.0
108.552	3.0
108.567	4.0
108.582	1.0
108.597	3.0
108.611	4.0
108.626	3.0
108.641	6.0
108.656	4.0
108.671	6.0
108.686	3.0
108.701	2.0
108.716	5.0
108.731	4.0
108.745	5.0
108.76	6.0
108.775	2.0
108.79	4.0
108.805	4.0
108.82	0.0
108.835	6.0
108.85	3.0
108.865	7.0
108.879	5.0
108.894	4.0
108.909	3.0
108.924	6.0
108.939	3.0
108.954	8.0
108.969	4.0
108.984	4.0
108.999	2.0
109.013	4.0
109.028	2.0
109.043	2.0
109.058	2.0
109.073	2.0
109.088	8.0
109.103	6.0
109.118	5.0
109.133	1.0
109.147	3.0
109.162	5.0
109.177	1.0
109.192	4.0
109.207	5.0
109.222	3.0
109.237	2.0
109.252	2.0
109.267	2.0
109.281	1.0
109.296	5.0
109.311	2.0
109.326	6.0
109.341	6.0
109.356	1.0
109.371	1.0
109.386	1.0
109.4	3.0
109.415	2.0
109.43	7.0
109.445	5.0
109.46	4.0
109.475	3.0
109.49	5.0
109.505	3.0
109.52	1.0
109.534	3.0
109.549	0.0
109.564	4.0
109.579	3.0
109.594	3.0
109.609	0.0
109.624	2.0
109.639	5.0
109.653	4.0
109.668	4.0
109.683	2.0
109.698	5.0
109.713	4.0
109.728	1.0
109.743	1.0
109.758	4.0
109.773	5.0
109.787	2.0
109.802	1.0
109.817	2.0
109.832	4.0
109.847	5.0
109.862	4.0
109.877	3.0
109.892	2.0
109.907	3.0
109.921	5.0
109.936	5.0
109.951	7.0
109.966	3.0
109.981	5.0
109.996	2.0
110.011	6.0
110.026	2.0
110.04	8.0
110.055	4.0
110.07	1.0
110.085	3.0
110.1	2.0
110.115	5.0
110.13	1.0
110.145	2.0
110.16	3.0
110.174	1.0
110.189	2.0
110.204	4.0
110.219	2.0
110.234	3.0
110.249	4.0
110.264	1.0
110.279	1.0
110.294	5.0
110.308	4.0
110.323	4.0
110.338	6.0
110.353	4.0
110.368	2.0
110.383	5.0
110.398	3.0
110.413	3.0
110.428	3.0
110.442	1.0
110.457	1.0
110.472	5.0
110.487	4.0
110.502	4.0
110.517	5.0
110.532	3.0
110.547	1.0
110.561	2.0
110.576	7.0
110.591	4.0
110.606	3.0
110.621	4.0
110.636	1.0
110.651	4.0
110.666	4.0
110.681	3.0
110.695	0.0
110.71	1.0
110.725	1.0
110.74	3.0
110.755	4.0
110.77	3.0
110.785	6.0
110.8	3.0
110.815	3.0
110.829	5.0
110.844	3.0
110.859	0.0
110.874	4.0
110.889	2.0
110.904	2.0
110.919	0.0
110.934	2.0
110.948	2.0
110.963	1.0
110.978	4.0
110.993	7.0
111.008	1.0
111.023	2.0
111.038	5.0
111.053	3.0
111.067	3.0
111.082	3.0
111.097	4.0
111.112	3.0
111.127	4.0
111.142	1.0
111.157	5.0
111.172	5.0
111.186	2.0
111.201	10.0
111.216	2.0
111.231	1.0
111.246	3.0
111.261	5.0
111.276	3.0
111.291	5.0
111.305	3.0
111.32	1.0
111.335	3.0
111.35	1.0
111.365	4.0
111.38	4.0
111.395	4.0
111.41	3.0
111.424	3.0
111.439	8.0
111.454	4.0
111.469	3.0
111.484	5.0
111.499	2.0
111.514	8.0
111.528	4.0
111.543	5.0
111.558	4.0
111.573	4.0
111.588	5.0
111.603	7.0
111.618	2.0
111.633	7.0
111.647	7.0
111.662	5.0
111.677	3.0
111.692	3.0
111.707	7.0
111.722	5.0
111.737	3.0
111.751	2.0
111.766	1.0
111.781	1.0
111.796	3.0
111.811	6.0
111.826	4.0
111.84	3.0
111.855	4.0
111.87	1.0
111.885	3.0
111.9	3.0
111.915	2.0
111.93	4.0
111.944	4.0
111.959	2.0
111.974	3.0
111.989	3.0
112.004	2.0
112.019	0.0
112.033	8.0
112.048	3.0
112.063	0.0
112.078	4.0
112.093	6.0
112.108	1.0
112.123	4.0
112.137	5.0
112.152	3.0
112.167	4.0
112.182	0.0
112.197	5.0
112.212	2.0
112.226	6.0
112.241	4.0
112.256	5.0
112.271	2.0
112.286	1.0
112.301	3.0
112.315	3.0
112.33	0.0
112.345	2.0
112.36	4.0
112.375	3.0
112.389	6.0
112.404	5.0
112.419	4.0
112.434	5.0
112.449	2.0
112.464	3.0
112.478	7.0
112.493	3.0
112.508	5.0
112.523	5.0
112.538	4.0
112.553	3.0
112.567	5.0
112.582	2.0
112.597	6.0
112.612	3.0
112.627	4.0
112.642	3.0
112.656	0.0
112.671	1.0
112.686	4.0
112.701	1.0
112.716	5.0
112.73	6.0
112.745	4.0
112.76	4.0
112.775	2.0
112.79	5.0
112.805	3.0
112.819	6.0
112.834	2.0
112.849	5.0
112.864	2.0
112.879	2.0
112.894	5.0
112.908	2.0
112.923	5.0
112.938	6.0
112.953	5.0
112.968	5.0
112.983	1.0
112.997	7.0
113.012	3.0
113.027	2.0
113.042	6.0
113.057	4.0
113.072	4.0
113.086	3.0
113.101	4.0
113.116	0.0
113.131	5.0
113.146	1.0
113.161	3.0
113.175	2.0
113.19	3.0
113.205	1.0
113.22	3.0
113.235	3.0
113.25	2.0
113.265	4.0
113.279	5.0
113.294	5.0
113.309	3.0
113.324	2.0
113.339	7.0
113.354	5.0
113.368	3.0
113.383	5.0
113.398	2.0
113.413	2.0
113.428	3.0
113.443	2.0
113.458	1.0
113.472	1.0
113.487	3.0
113.502	5.0
113.517	6.0
113.532	1.0
113.547	2.0
113.562	0.0
113.576	5.0
113.591	1.0
113.606	3.0
113.621	4.0
113.636	1.0
113.651	3.0
113.666	2.0
113.681	4.0
113.695	0.0
113.71	4.0
113.725	2.0
113.74	3.0
113.755	4.0
113.77	3.0
113.785	4.0
113.8	3.0
113.814	1.0
113.829	4.0
113.844	4.0
113.859	5.0
113.874	6.0
113.889	3.0
113.904	5.0
113.919	2.0
113.934	5.0
113.949	1.0
113.963	3.0
113.978	4.0
113.993	5.0
114.008	1.0
114.023	2.0
114.038	4.0
114.053	6.0
114.068	3.0
114.083	3.0
114.098	3.0
114.113	5.0
114.127	4.0
114.142	4.0
114.157	4.0
114.172	1.0
114.187	4.0
114.202	4.0
114.217	4.0
114.232	2.0
114.247	1.0
114.262	2.0
114.277	4.0
114.292	4.0
114.307	1.0
114.322	8.0
114.337	4.0
114.351	6.0
114.366	2.0
114.381	2.0
114.396	4.0
114.411	5.0
114.426	3.0
114.441	4.0
114.456	3.0
114.471	7.0
114.486	3.0
114.501	1.0
114.516	3.0
114.531	7.0
114.546	4.0
114.561	3.0
114.576	3.0
114.591	2.0
114.606	3.0
114.621	5.0
114.636	2.0
114.65	3.0
114.665	1.0
114.68	3.0
114.695	4.0
114.71	2.0
114.725	3.0
114.74	2.0
114.755	2.0
114.77	2.0
114.785	1.0
114.8	3.0
114.815	2.0
114.83	4.0
114.845	1.0
114.86	1.0
114.875	4.0
114.89	1.0
114.905	3.0
114.92	7.0
114.935	4.0
114.95	4.0
114.965	1.0
114.98	9.0
114.995	4.0
115.009	6.0
115.024	0.0
115.039	2.0
115.054	1.0
115.069	2.0
115.084	3.0
115.099	2.0
115.114	3.0
115.129	4.0
115.144	2.0
115.159	4.0
115.174	3.0
115.189	1.0
115.204	3.0
115.219	4.0
115.234	2.0
115.249	5.0
115.264	4.0
115.279	3.0
115.294	4.0
115.309	1.0
115.323	8.0
115.338	4.0
115.353	6.0
115.368	0.0
115.383	1.0
115.398	1.0
115.413	2.0
115.428	5.0
115.443	3.0
115.458	2.0
115.473	6.0
115.488	4.0
115.503	5.0
115.518	3.0
115.533	2.0
115.548	3.0
115.562	5.0
115.577	2.0
115.592	4.0
115.607	3.0
115.622	4.0
115.637	3.0
115.652	10.0
115.667	5.0
115.682	2.0
115.697	4.0
115.712	3.0
115.727	4.0
115.741	4.0
115.756	6.0
115.771	3.0
115.786	4.0
115.801	4.0
115.816	7.0
115.831	5.0
115.846	4.0
115.861	1.0
115.875	6.0
115.89	2.0
115.905	4.0
115.92	5.0
115.935	2.0
115.95	5.0
115.965	3.0
115.98	4.0
115.995	2.0
116.009	2.0
116.024	3.0
116.039	1.0
116.054	3.0
116.069	4.0
116.084	7.0
116.099	6.0
116.113	3.0
116.128	4.0
116.143	2.0
116.158	2.0
116.173	5.0
116.188	3.0
116.202	7.0
116.217	1.0
116.232	4.0
116.247	2.0
116.262	4.0
116.277	3.0
116.291	2.0
116.306	2.0
116.321	3.0
116.336	3.0
116.351	5.0
116.366	6.0
116.38	5.0
116.395	2.0
116.41	4.0
116.425	6.0
116.44	2.0
116.454	5.0
116.469	4.0
116.484	6.0
116.499	8.0
116.514	0.0
116.528	3.0
116.543	6.0
116.558	3.0
116.573	3.0
116.588	3.0
116.602	4.0
116.617	3.0
116.632	2.0
116.647	6.0
116.662	1.0
116.676	0.0
116.691	2.0
116.706	4.0
116.721	0.0
116.735	3.0
116.75	5.0
116.765	5.0
116.78	5.0
116.795	1.0
116.809	0.0
116.824	4.0
116.839	3.0
116.854	1.0
116.868	3.0
116.883	6.0
116.898	1.0
116.913	1.0
116.927	4.0
116.942	1.0
116.957	5.0
116.972	3.0
116.986	3.0
117.001	3.0
117.016	2.0
117.031	5.0
117.045	6.0
117.06	3.0
117.075	3.0
117.09	2.0
117.104	2.0
117.119	5.0
117.134	2.0
117.149	2.0
117.163	3.0
117.178	1.0
117.193	4.0
117.208	4.0
117.222	3.0
117.237	5.0
117.252	1.0
117.267	2.0
117.281	2.0
117.296	7.0
117.311	4.0
117.325	8.0
117.34	5.0
117.355	7.0
117.37	7.0
117.384	2.0
117.399	2.0
117.414	6.0
117.429	2.0
117.443	5.0
117.458	5.0
117.473	3.0
117.487	4.0
117.502	1.0
117.517	4.0
117.532	2.0
117.546	2.0
117.561	2.0
117.576	0.0
117.59	3.0
117.605	6.0
117.62	3.0
117.635	3.0
117.649	4.0
117.664	3.0
117.679	5.0
117.693	4.0
117.708	8.0
117.723	6.0
117.738	2.0
117.752	5.0
117.767	1.0
117.782	3.0
117.796	2.0
117.811	4.0
117.826	2.0
117.841	2.0
117.855	5.0
117.87	7.0
117.885	5.0
117.899	2.0
117.914	3.0
117.929	2.0
117.944	4.0
117.958	3.0
117.973	3.0
117.988	3.0
118.002	5.0
118.017	6.0
118.032	3.0
118.047	6.0
118.062	2.0
118.077	3.0
118.092	2.0
118.107	5.0
118.121	6.0
118.136	7.0
118.151	2.0
118.166	3.0
118.181	1.0
118.196	8.0
118.211	6.0
118.225	3.0
118.24	6.0
118.255	0.0
118.27	3.0
118.285	2.0
118.3	2.0
118.315	4.0
118.33	1.0
118.344	3.0
118.359	1.0
118.374	3.0
118.389	2.0
118.404	3.0
118.419	2.0
118.434	1.0
118.449	2.0
118.463	4.0
118.478	4.0
118.493	2.0
118.508	5.0
118.523	4.0
118.538	8.0
118.553	4.0
118.567	3.0
118.582	1.0
118.597	1.0
118.612	2.0
118.627	2.0
118.642	5.0
118.657	2.0
118.672	3.0
118.686	2.0
118.701	2.0
118.716	3.0
118.731	6.0
118.746	4.0
118.761	7.0
118.776	2.0
118.791	2.0
118.805	4.0
118.82	1.0
118.835	6.0
118.85	3.0
118.865	2.0
118.88	8.0
118.895	1.0
118.909	4.0
118.924	2.0
118.939	3.0
118.954	3.0
118.969	4.0
118.984	4.0
118.999	2.0
119.014	4.0
119.028	0.0
119.043	4.0
119.058	1.0
119.073	2.0
119.088	5.0
119.103	6.0
119.118	4.0
119.133	5.0
119.147	4.0
119.162	5.0
119.177	4.0
119.192	2.0
119.207	1.0
119.222	2.0
119.237	5.0
119.251	7.0
119.266	4.0
119.281	7.0
119.296	2.0
119.311	2.0
119.326	3.0
119.341	3.0
119.356	3.0
119.37	5.0
119.385	1.0
119.4	7.0
119.415	1.0
119.43	2.0
119.445	6.0
119.46	6.0
119.475	2.0
119.489	4.0
119.504	2.0
119.519	2.0
119.534	6.0
119.549	2.0
119.564	2.0
119.579	0.0
119.593	5.0
119.608	6.0
119.623	3.0
119.638	1.0
119.653	3.0
119.668	1.0
119.683	6.0
119.698	5.0
119.712	3.0
119.727	5.0
119.742	4.0
119.757	3.0
119.772	3.0
119.787	4.0
119.802	5.0
119.817	3.0
119.831	1.0
119.846	1.0
119.861	1.0
119.876	6.0
119.891	4.0
119.906	5.0
119.921	3.0
119.935	5.0
119.95	2.0
119.965	3.0
119.98	3.0
119.995	5.0
120.01	4.0
120.025	2.0
120.04	1.0
120.054	2.0
120.069	2.0
120.084	1.0
120.099	1.0
120.114	2.0
120.129	2.0
120.144	0.0
120.159	3.0
120.173	1.0
120.188	0.0
120.203	2.0
120.218	3.0
120.233	0.0
120.248	2.0
120.263	0.0
120.277	1.0
120.292	1.0
120.307	0.0
120.322	1.0
120.337	1.0
120.352	0.0
120.367	0.0
120.382	0.0
120.396	0.0
120.411	0.0
120.426	1.0
120.441	0.0
120.456	1.0
120.471	0.0
120.486	0.0
120.501	0.0
120.515	0.0
120.53	1.0
120.545	0.0
120.56	0.0
120.575	0.0
120.59	0.0
120.605	0.0
120.619	0.0
120.634	0.0
120.649	0.0
120.664	0.0
120.679	0.0
120.694	0.0
120.709	0.0
120.724	0.0
120.738	0.0
120.753	0.0
120.768	0.0
120.783	0.0
120.798	0.0
120.813	0.0
120.828	0.0
120.843	0.0
120.857	0.0
120.872	0.0
120.887	0.0
120.902	0.0
120.917	0.0
120.932	0.0
120.947	0.0
120.961	0.0
120.976	0.0
