-1.217	0.0
-1.202	0.0
-1.187	0.0
-1.172	0.0
-1.157	0.0
-1.142	0.0
-1.128	0.0
-1.113	0.0
-1.098	0.0
-1.083	0.0
-1.068	0.0
-1.054	0.0
-1.039	0.0
-1.024	1.0
-1.009	0.0
-0.994	0.0
-0.979	0.0
-0.965	0.0
-0.95	0.0
-0.935	0.0
-0.92	0.0
-0.905	0.0
-0.891	0.0
-0.876	0.0
-0.861	0.0
-0.846	0.0
-0.831	0.0
-0.816	0.0
-0.802	0.0
-0.787	1.0
-0.772	0.0
-0.757	0.0
-0.742	0.0
-0.728	0.0
-0.713	0.0
-0.698	0.0
-0.683	0.0
-0.668	0.0
-0.653	0.0
-0.639	0.0
-0.624	0.0
-0.609	0.0
-0.594	0.0
-0.579	0.0
-0.565	0.0
-0.55	0.0
-0.535	0.0
-0.52	0.0
-0.505	0.0
-0.49	0.0
-0.476	0.0
-0.461	0.0
-0.446	0.0
-0.431	0.0
-0.416	0.0
-0.401	0.0
-0.387	0.0
-0.372	0.0
-0.357	0.0
-0.342	0.0
-0.327	0.0
-0.313	0.0
-0.298	0.0
-0.283	0.0
-0.268	0.0
-0.253	0.0
-0.238	0.0
-0.224	0.0
-0.209	0.0
-0.194	0.0
-0.179	0.0
-0.164	0.0
-0.15	0.0
-0.135	0.0
-0.12	0.0
-0.105	0.0
-0.09	0.0
-0.075	0.0
-0.061	0.0
-0.046	0.0
-0.031	0.0
-0.016	0.0
-0.001	0.0
0.013	0.0
0.028	0.0
0.043	0.0
0.058	0.0
0.073	0.0
0.088	0.0
0.102	0.0
0.117	0.0
0.132	0.0
0.147	0.0
0.162	0.0
0.176	1.0
0.191	0.0
0.206	0.0
0.221	0.0
0.236	0.0
0.251	0.0
0.265	0.0
0.28	0.0
0.295	0.0
0.31	0.0
0.325	0.0
0.339	0.0
0.354	0.0
0.369	0.0
0.384	0.0
0.399	0.0
0.414	0.0
0.428	0.0
0.443	0.0
0.458	0.0
0.473	0.0
0.488	0.0
0.502	0.0
0.517	0.0
0.532	0.0
0.547	0.0
0.562	0.0
0.577	0.0
0.591	0.0
0.606	0.0
0.621	0.0
0.636	0.0
0.651	0.0
0.665	0.0
0.68	0.0
0.695	0.0
0.71	0.0
0.725	0.0
0.74	0.0
0.754	0.0
0.769	0.0
0.784	0.0
0.799	0.0
0.814	0.0
0.828	0.0
0.843	0.0
0.858	0.0
0.873	0.0
0.888	0.0
0.903	0.0
0.917	0.0
0.932	0.0
0.947	0.0
0.962	0.0
0.977	0.0
0.991	0.0
1.006	0.0
1.021	1.0
1.036	0.0
1.051	0.0
1.065	0.0
1.08	0.0
1.095	0.0
1.11	0.0
1.125	0.0
1.14	0.0
1.154	0.0
1.169	0.0
1.184	0.0
1.199	0.0
1.214	1.0
1.228	0.0
1.243	0.0
1.258	0.0
1.273	0.0
1.288	0.0
1.302	1.0
1.317	0.0
1.332	0.0
1.347	0.0
1.362	0.0
1.376	0.0
1.391	0.0
1.406	0.0
1.421	0.0
1.436	0.0
1.45	0.0
1.465	0.0
1.48	0.0
1.495	0.0
1.51	0.0
1.524	0.0
1.539	0.0
1.554	0.0
1.569	0.0
1.584	0.0
1.598	0.0
1.613	0.0
1.628	0.0
1.643	0.0
1.658	1.0
1.672	0.0
1.687	0.0
1.702	0.0
1.717	0.0
1.732	0.0
1.746	0.0
1.761	0.0
1.776	0.0
1.791	0.0
1.806	0.0
1.82	0.0
1.835	0.0
1.85	0.0
1.865	0.0
1.88	0.0
1.894	0.0
1.909	0.0
1.924	0.0
1.939	0.0
1.954	0.0
1.968	0.0
1.983	0.0
1.998	0.0
2.013	0.0
2.028	0.0
2.042	0.0
2.057	1.0
2.072	0.0
2.087	0.0
2.101	0.0
2.116	0.0
2.131	0.0
2.146	3.0
2.161	0.0
2.175	0.0
2.19	1.0
2.205	0.0
2.22	0.0
2.235	0.0
2.249	0.0
2.264	0.0
2.279	0.0
2.294	0.0
2.308	2.0
2.323	0.0
2.338	0.0
2.353	0.0
2.368	2.0
2.382	0.0
2.397	1.0
2.412	0.0
2.427	0.0
2.442	0.0
2.456	0.0
2.471	1.0
2.486	2.0
2.501	1.0
2.515	1.0
2.53	3.0
2.545	5.0
2.56	1.0
2.575	2.0
2.589	3.0
2.604	3.0
2.619	2.0
2.634	2.0
2.649	3.0
2.663	2.0
2.678	3.0
2.693	1.0
2.708	3.0
2.722	1.0
2.737	4.0
2.752	1.0
2.767	3.0
2.782	3.0
2.796	6.0
2.811	7.0
2.826	3.0
2.841	4.0
2.856	2.0
2.87	4.0
2.885	3.0
2.9	0.0
2.915	3.0
2.93	0.0
2.944	5.0
2.959	3.0
2.974	5.0
2.989	3.0
3.004	1.0
3.018	3.0
3.033	4.0
3.048	5.0
3.063	6.0
3.078	7.0
3.092	2.0
3.107	7.0
3.122	5.0
3.137	7.0
3.152	3.0
3.166	9.0
3.181	6.0
3.196	4.0
3.211	6.0
3.226	4.0
3.24	8.0
3.255	5.0
3.27	7.0
3.285	1.0
3.3	3.0
3.315	5.0
3.329	4.0
3.344	3.0
3.359	2.0
3.374	3.0
3.389	7.0
3.403	1.0
3.418	5.0
3.433	4.0
3.448	5.0
3.463	2.0
3.478	1.0
3.492	7.0
3.507	9.0
3.522	4.0
3.537	5.0
3.552	3.0
3.567	8.0
3.581	7.0
3.596	7.0
3.611	3.0
3.626	5.0
3.641	2.0
3.656	6.0
3.671	6.0
3.685	0.0
3.7	6.0
3.715	4.0
3.73	3.0
3.745	5.0
3.76	4.0
3.775	5.0
3.789	10.0
3.804	4.0
3.819	4.0
3.834	3.0
3.849	1.0
3.864	6.0
3.879	3.0
3.894	10.0
3.908	3.0
3.923	4.0
3.938	4.0
3.953	7.0
3.968	6.0
3.983	4.0
3.998	10.0
4.013	4.0
4.027	4.0
4.042	4.0
4.057	4.0
4.072	8.0
4.087	4.0
4.102	7.0
4.117	4.0
4.132	8.0
4.147	9.0
4.162	7.0
4.176	7.0
4.191	5.0
4.206	7.0
4.221	9.0
4.236	1.0
4.251	4.0
4.266	5.0
4.281	8.0
4.296	7.0
4.311	8.0
4.326	3.0
4.341	8.0
4.356	9.0
4.37	6.0
4.385	10.0
4.4	4.0
4.415	5.0
4.43	8.0
4.445	4.0
4.46	2.0
4.475	11.0
4.49	7.0
4.505	3.0
4.52	9.0
4.535	4.0
4.55	7.0
4.565	9.0
4.58	9.0
4.595	7.0
4.61	8.0
4.625	7.0
4.639	9.0
4.654	6.0
4.669	7.0
4.684	8.0
4.699	10.0
4.714	8.0
4.729	4.0
4.744	6.0
4.759	8.0
4.774	6.0
4.789	12.0
4.804	5.0
4.819	8.0
4.834	4.0
4.849	9.0
4.864	5.0
4.879	7.0
4.894	7.0
4.909	4.0
4.924	11.0
4.939	9.0
4.954	5.0
4.969	6.0
4.984	6.0
4.999	10.0
5.014	6.0
5.029	8.0
5.044	6.0
5.059	3.0
5.074	7.0
5.089	5.0
5.104	5.0
5.119	8.0
5.134	5.0
5.149	9.0
5.164	9.0
5.179	10.0
5.194	7.0
5.209	6.0
5.224	11.0
5.239	8.0
5.254	6.0
5.269	9.0
5.284	3.0
5.299	12.0
5.314	8.0
5.329	9.0
5.344	15.0
5.359	10.0
5.374	7.0
5.389	8.0
5.404	9.0
5.419	10.0
5.434	7.0
5.449	1.0
5.464	11.0
5.479	8.0
5.494	10.0
5.509	4.0
5.524	9.0
5.539	11.0
5.554	10.0
5.569	7.0
5.584	7.0
5.599	13.0
5.614	10.0
5.629	8.0
5.644	8.0
5.659	17.0
5.674	7.0
5.689	5.0
5.704	9.0
5.719	7.0
5.734	7.0
5.749	14.0
5.764	7.0
5.779	6.0
5.794	11.0
5.809	8.0
5.824	6.0
5.839	8.0
5.854	11.0
5.869	8.0
5.884	10.0
5.899	3.0
5.914	2.0
5.929	11.0
5.944	12.0
5.959	12.0
5.974	12.0
5.989	4.0
6.004	7.0
6.019	8.0
6.034	9.0
6.049	8.0
6.064	8.0
6.079	17.0
6.094	10.0
6.109	13.0
6.124	1.0
6.139	7.0
6.154	7.0
6.169	7.0
6.184	13.0
6.199	10.0
6.214	7.0
6.229	8.0
6.244	12.0
6.259	5.0
6.274	5.0
6.289	5.0
6.304	7.0
6.319	4.0
6.334	4.0
6.349	9.0
6.364	10.0
6.379	11.0
6.394	7.0
6.409	9.0
6.424	8.0
6.439	11.0
6.454	9.0
6.469	4.0
6.484	7.0
6.499	6.0
6.514	10.0
6.529	14.0
6.544	5.0
6.559	8.0
6.574	5.0
6.589	8.0
6.604	8.0
6.619	14.0
6.634	12.0
6.649	11.0
6.664	9.0
6.679	9.0
6.694	4.0
6.709	13.0
6.724	4.0
6.739	13.0
6.754	13.0
6.769	4.0
6.784	9.0
6.799	12.0
6.814	4.0
6.829	10.0
6.844	11.0
6.859	8.0
6.873	9.0
6.888	6.0
6.903	8.0
6.918	5.0
6.933	14.0
6.948	8.0
6.963	8.0
6.978	10.0
6.993	14.0
7.008	11.0
7.023	9.0
7.038	8.0
7.053	7.0
7.068	8.0
7.083	10.0
7.098	8.0
7.113	8.0
7.128	8.0
7.143	6.0
7.157	9.0
7.172	8.0
7.187	7.0
7.202	10.0
7.217	6.0
7.232	11.0
7.247	9.0
7.262	5.0
7.277	4.0
7.292	5.0
7.307	9.0
7.322	8.0
7.336	10.0
7.351	5.0
7.366	11.0
7.381	7.0
7.396	5.0
7.411	7.0
7.426	10.0
7.441	10.0
7.456	8.0
7.471	9.0
7.485	10.0
7.5	8.0
7.515	10.0
7.53	4.0
7.545	8.0
7.56	11.0
7.575	10.0
7.59	7.0
7.604	10.0
7.619	8.0
7.634	13.0
7.649	13.0
7.664	5.0
7.679	14.0
7.693	4.0
7.708	7.0
7.723	7.0
7.738	14.0
7.753	7.0
7.768	9.0
7.783	12.0
7.797	8.0
7.812	7.0
7.827	8.0
7.842	8.0
7.857	5.0
7.871	4.0
7.886	5.0
7.901	14.0
7.916	8.0
7.931	8.0
7.945	7.0
7.96	8.0
7.975	12.0
7.99	6.0
8.005	10.0
8.019	7.0
8.034	2.0
8.049	7.0
8.064	9.0
8.078	6.0
8.093	12.0
8.108	13.0
8.123	7.0
8.137	6.0
8.152	8.0
8.167	9.0
8.182	9.0
8.196	13.0
8.211	6.0
8.226	6.0
8.241	8.0
8.255	12.0
8.27	11.0
8.285	9.0
8.3	8.0
8.314	19.0
8.329	13.0
8.344	4.0
8.358	6.0
8.373	13.0
8.388	8.0
8.403	6.0
8.417	7.0
8.432	13.0
8.447	7.0
8.461	8.0
8.476	12.0
8.491	14.0
8.505	6.0
8.52	7.0
8.535	8.0
8.55	9.0
8.564	12.0
8.579	11.0
8.594	5.0
8.608	7.0
8.623	10.0
8.638	4.0
8.652	5.0
8.667	9.0
8.682	12.0
8.696	12.0
8.711	8.0
8.726	14.0
8.74	9.0
8.755	10.0
8.77	7.0
8.784	9.0
8.799	11.0
8.814	12.0
8.828	13.0
8.843	9.0
8.858	9.0
8.872	7.0
8.887	9.0
8.902	6.0
8.916	12.0
8.931	2.0
8.946	3.0
8.96	7.0
8.975	4.0
8.99	6.0
9.004	6.0
9.019	5.0
9.034	11.0
9.048	6.0
9.063	10.0
9.077	10.0
9.092	7.0
9.107	14.0
9.121	11.0
9.136	10.0
9.151	15.0
9.165	7.0
9.18	7.0
9.195	8.0
9.209	8.0
9.224	16.0
9.239	6.0
9.253	6.0
9.268	4.0
9.283	6.0
9.297	10.0
9.312	6.0
9.327	7.0
9.341	10.0
9.356	14.0
9.371	7.0
9.385	9.0
9.4	9.0
9.415	12.0
9.429	5.0
9.444	8.0
9.458	4.0
9.473	10.0
9.488	13.0
9.502	7.0
9.517	8.0
9.532	5.0
9.546	9.0
9.561	8.0
9.576	10.0
9.59	4.0
9.605	15.0
9.62	5.0
9.635	3.0
9.649	14.0
9.664	6.0
9.679	8.0
9.693	7.0
9.708	7.0
9.723	11.0
9.737	5.0
9.752	13.0
9.767	5.0
9.781	5.0
9.796	11.0
9.811	8.0
9.825	13.0
9.84	9.0
9.855	8.0
9.87	6.0
9.884	10.0
9.899	9.0
9.914	5.0
9.928	13.0
9.943	8.0
9.958	6.0
9.973	11.0
9.987	6.0
10.002	4.0
10.017	13.0
10.031	7.0
10.046	10.0
10.061	4.0
10.076	9.0
10.09	14.0
10.105	8.0
10.12	4.0
10.135	8.0
10.149	8.0
10.164	3.0
10.179	12.0
10.194	7.0
10.208	9.0
10.223	8.0
10.238	9.0
10.253	11.0
10.267	6.0
10.282	5.0
10.297	12.0
10.312	4.0
10.326	8.0
10.341	4.0
10.356	14.0
10.371	15.0
10.386	8.0
10.4	12.0
10.415	5.0
10.43	4.0
10.445	5.0
10.46	6.0
10.474	3.0
10.489	6.0
10.504	7.0
10.519	7.0
10.533	8.0
10.548	6.0
10.563	8.0
10.578	6.0
10.593	11.0
10.608	9.0
10.622	7.0
10.637	6.0
10.652	8.0
10.667	7.0
10.682	5.0
10.696	4.0
10.711	6.0
10.726	13.0
10.741	10.0
10.756	7.0
10.771	4.0
10.785	8.0
10.8	8.0
10.815	7.0
10.83	4.0
10.845	14.0
10.86	3.0
10.874	5.0
10.889	8.0
10.904	9.0
10.919	4.0
10.934	8.0
10.949	7.0
10.963	1.0
10.978	8.0
10.993	5.0
11.008	5.0
11.023	10.0
11.038	10.0
11.053	9.0
11.067	6.0
11.082	9.0
11.097	10.0
11.112	7.0
11.127	11.0
11.142	5.0
11.157	7.0
11.172	5.0
11.186	9.0
11.201	12.0
11.216	6.0
11.231	5.0
11.246	2.0
11.261	5.0
11.276	12.0
11.291	6.0
11.305	9.0
11.32	8.0
11.335	11.0
11.35	8.0
11.365	10.0
11.38	7.0
11.395	5.0
11.41	4.0
11.424	8.0
11.439	10.0
11.454	8.0
11.469	4.0
11.484	7.0
11.499	8.0
11.514	6.0
11.529	2.0
11.544	11.0
11.558	7.0
11.573	6.0
11.588	4.0
11.603	10.0
11.618	11.0
11.633	4.0
11.648	10.0
11.663	11.0
11.678	8.0
11.693	6.0
11.707	5.0
11.722	9.0
11.737	6.0
11.752	10.0
11.767	8.0
11.782	6.0
11.797	5.0
11.812	8.0
11.827	12.0
11.842	9.0
11.856	12.0
11.871	9.0
11.886	10.0
11.901	10.0
11.916	8.0
11.931	9.0
11.946	12.0
11.961	11.0
11.976	7.0
11.991	11.0
12.006	9.0
12.02	9.0
12.035	9.0
12.05	9.0
12.065	8.0
12.08	8.0
12.095	10.0
12.11	15.0
12.125	11.0
12.14	7.0
12.155	9.0
12.17	12.0
12.184	7.0
12.199	8.0
12.214	6.0
12.229	10.0
12.244	10.0
12.259	12.0
12.274	9.0
12.289	16.0
12.304	15.0
12.319	13.0
12.334	13.0
12.348	6.0
12.363	19.0
12.378	7.0
12.393	12.0
12.408	17.0
12.423	11.0
12.438	10.0
12.453	11.0
12.468	7.0
12.483	9.0
12.498	8.0
12.513	12.0
12.527	17.0
12.542	9.0
12.557	19.0
12.572	9.0
12.587	9.0
12.602	11.0
12.617	13.0
12.632	8.0
12.647	9.0
12.662	10.0
12.677	12.0
12.692	12.0
12.707	15.0
12.721	17.0
12.736	19.0
12.751	18.0
12.766	19.0
12.781	17.0
12.796	22.0
12.811	16.0
12.826	15.0
12.841	17.0
12.856	15.0
12.871	10.0
12.886	20.0
12.9	15.0
12.915	14.0
12.93	17.0
12.945	14.0
12.96	16.0
12.975	17.0
12.99	15.0
13.005	16.0
13.02	7.0
13.035	16.0
13.05	19.0
13.065	18.0
13.08	19.0
13.094	14.0
13.109	10.0
13.124	21.0
13.139	22.0
13.154	22.0
13.169	18.0
13.184	12.0
13.199	22.0
13.214	17.0
13.229	16.0
13.244	20.0
13.259	15.0
13.274	19.0
13.288	16.0
13.303	20.0
13.318	18.0
13.333	16.0
13.348	15.0
13.363	25.0
13.378	32.0
13.393	18.0
13.408	21.0
13.423	30.0
13.438	28.0
13.453	31.0
13.468	18.0
13.482	30.0
13.497	35.0
13.512	31.0
13.527	36.0
13.542	36.0
13.557	45.0
13.572	49.0
13.587	49.0
13.602	57.0
13.617	53.0
13.632	62.0
13.647	84.0
13.662	82.0
13.677	87.0
13.691	95.0
13.706	78.0
13.721	109.0
13.736	106.0
13.751	105.0
13.766	127.0
13.781	109.0
13.796	115.0
13.811	132.0
13.826	119.0
13.841	109.0
13.856	133.0
13.871	108.0
13.885	111.0
13.9	80.0
13.915	81.0
13.93	79.0
13.945	51.0
13.96	54.0
13.975	47.0
13.99	32.0
14.005	33.0
14.02	27.0
14.035	22.0
14.05	27.0
14.065	21.0
14.08	19.0
14.094	25.0
14.109	23.0
14.124	21.0
14.139	25.0
14.154	27.0
14.169	21.0
14.184	22.0
14.199	13.0
14.214	18.0
14.229	24.0
14.244	20.0
14.259	17.0
14.274	17.0
14.288	13.0
14.303	24.0
14.318	17.0
14.333	28.0
14.348	17.0
14.363	12.0
14.378	12.0
14.393	15.0
14.408	22.0
14.423	19.0
14.438	22.0
14.453	14.0
14.468	21.0
14.482	10.0
14.497	23.0
14.512	18.0
14.527	18.0
14.542	18.0
14.557	24.0
14.572	14.0
14.587	17.0
14.602	17.0
14.617	17.0
14.632	11.0
14.647	12.0
14.661	20.0
14.676	25.0
14.691	19.0
14.706	17.0
14.721	22.0
14.736	18.0
14.751	16.0
14.766	14.0
14.781	9.0
14.796	11.0
14.811	14.0
14.826	17.0
14.84	20.0
14.855	17.0
14.87	15.0
14.885	19.0
14.9	10.0
14.915	11.0
14.93	12.0
14.945	10.0
14.96	14.0
14.975	10.0
14.989	8.0
15.004	10.0
15.019	11.0
15.034	18.0
15.049	20.0
15.064	13.0
15.079	16.0
15.094	11.0
15.109	16.0
15.124	15.0
15.138	12.0
15.153	17.0
15.168	15.0
15.183	17.0
15.198	18.0
15.213	23.0
15.228	15.0
15.243	8.0
15.258	11.0
15.272	15.0
15.287	17.0
15.302	21.0
15.317	14.0
15.332	10.0
15.347	10.0
15.362	10.0
15.377	8.0
15.391	14.0
15.406	17.0
15.421	12.0
15.436	13.0
15.451	17.0
15.466	18.0
15.481	12.0
15.496	17.0
15.51	15.0
15.525	11.0
15.54	17.0
15.555	14.0
15.57	16.0
15.585	15.0
15.6	17.0
15.614	16.0
15.629	16.0
15.644	12.0
15.659	10.0
15.674	16.0
15.689	13.0
15.704	9.0
15.718	9.0
15.733	13.0
15.748	17.0
15.763	17.0
15.778	19.0
15.793	14.0
15.808	21.0
15.822	13.0
15.837	17.0
15.852	10.0
15.867	9.0
15.882	9.0
15.897	11.0
15.911	18.0
15.926	17.0
15.941	16.0
15.956	16.0
15.971	27.0
15.986	8.0
16.0	11.0
16.015	11.0
16.03	15.0
16.045	12.0
16.06	17.0
16.074	10.0
16.089	10.0
16.104	16.0
16.119	11.0
16.134	13.0
16.149	18.0
16.163	19.0
16.178	10.0
16.193	13.0
16.208	13.0
16.223	10.0
16.237	12.0
16.252	16.0
16.267	16.0
16.282	11.0
16.297	17.0
16.311	16.0
16.326	14.0
16.341	9.0
16.356	13.0
16.37	14.0
16.385	22.0
16.4	8.0
16.415	13.0
16.43	15.0
16.444	17.0
16.459	24.0
16.474	12.0
16.489	17.0
16.504	12.0
16.518	11.0
16.533	12.0
16.548	18.0
16.563	18.0
16.577	18.0
16.592	18.0
16.607	23.0
16.622	10.0
16.637	18.0
16.651	21.0
16.666	21.0
16.681	33.0
16.696	25.0
16.71	16.0
16.725	25.0
16.74	22.0
16.755	36.0
16.77	36.0
16.784	30.0
16.799	38.0
16.814	33.0
16.829	45.0
16.843	54.0
16.858	48.0
16.873	61.0
16.888	55.0
16.902	65.0
16.917	63.0
16.932	75.0
16.947	68.0
16.961	67.0
16.976	59.0
16.991	56.0
17.006	64.0
17.021	44.0
17.035	54.0
17.05	41.0
17.065	48.0
17.08	33.0
17.094	34.0
17.109	32.0
17.124	26.0
17.139	20.0
17.153	18.0
17.168	18.0
17.183	12.0
17.198	18.0
17.212	16.0
17.227	13.0
17.242	13.0
17.257	18.0
17.271	15.0
17.286	16.0
17.301	11.0
17.316	15.0
17.33	12.0
17.345	11.0
17.36	12.0
17.375	14.0
17.39	18.0
17.404	14.0
17.419	21.0
17.434	8.0
17.449	9.0
17.463	9.0
17.478	12.0
17.493	13.0
17.508	9.0
17.522	11.0
17.537	15.0
17.552	14.0
17.567	15.0
17.581	7.0
17.596	9.0
17.611	10.0
17.626	13.0
17.641	18.0
17.655	17.0
17.67	15.0
17.685	7.0
17.7	15.0
17.714	9.0
17.729	14.0
17.744	11.0
17.759	8.0
17.773	11.0
17.788	10.0
17.803	12.0
17.818	17.0
17.833	13.0
17.847	23.0
17.862	13.0
17.877	9.0
17.892	13.0
17.906	20.0
17.921	4.0
17.936	12.0
17.951	15.0
17.966	14.0
17.98	9.0
17.995	10.0
18.01	14.0
18.025	13.0
18.04	14.0
18.054	12.0
18.069	8.0
18.084	7.0
18.099	16.0
18.114	15.0
18.128	10.0
18.143	17.0
18.158	10.0
18.173	11.0
18.188	9.0
18.202	13.0
18.217	14.0
18.232	9.0
18.247	10.0
18.262	10.0
18.276	12.0
18.291	12.0
18.306	14.0
18.321	13.0
18.336	16.0
18.35	10.0
18.365	12.0
18.38	11.0
18.395	8.0
18.41	10.0
18.424	9.0
18.439	12.0
18.454	14.0
18.469	12.0
18.484	11.0
18.498	6.0
18.513	10.0
18.528	9.0
18.543	7.0
18.558	9.0
18.573	13.0
18.587	17.0
18.602	13.0
18.617	10.0
18.632	7.0
18.647	10.0
18.661	14.0
18.676	13.0
18.691	17.0
18.706	15.0
18.721	13.0
18.736	13.0
18.75	12.0
18.765	10.0
18.78	15.0
18.795	12.0
18.81	12.0
18.825	9.0
18.839	10.0
18.854	13.0
18.869	11.0
18.884	10.0
18.899	14.0
18.913	13.0
18.928	9.0
18.943	10.0
18.958	13.0
18.973	8.0
18.988	7.0
19.002	11.0
19.017	13.0
19.032	15.0
19.047	5.0
19.062	6.0
19.077	15.0
19.091	14.0
19.106	10.0
19.121	13.0
19.136	11.0
19.151	8.0
19.165	7.0
19.18	14.0
19.195	19.0
19.21	20.0
19.225	13.0
19.24	7.0
19.254	18.0
19.269	9.0
19.284	12.0
19.299	12.0
19.314	12.0
19.329	11.0
19.343	12.0
19.358	21.0
19.373	15.0
19.388	16.0
19.403	20.0
19.417	18.0
19.432	17.0
19.447	21.0
19.462	18.0
19.477	23.0
19.492	28.0
19.506	26.0
19.521	37.0
19.536	34.0
19.551	41.0
19.566	41.0
19.58	36.0
19.595	44.0
19.61	28.0
19.625	45.0
19.64	34.0
19.655	30.0
19.669	37.0
19.684	35.0
19.699	26.0
19.714	31.0
19.729	35.0
19.743	23.0
19.758	23.0
19.773	18.0
19.788	23.0
19.803	12.0
19.817	23.0
19.832	16.0
19.847	18.0
19.862	17.0
19.877	18.0
19.891	11.0
19.906	14.0
19.921	12.0
19.936	13.0
19.951	16.0
19.965	10.0
19.98	5.0
19.995	17.0
20.01	16.0
20.025	5.0
20.039	10.0
20.054	13.0
20.069	14.0
20.084	21.0
20.099	15.0
20.113	9.0
20.128	20.0
20.143	9.0
20.158	8.0
20.173	10.0
20.187	13.0
20.202	13.0
20.217	7.0
20.232	10.0
20.246	12.0
20.261	11.0
20.276	3.0
20.291	10.0
20.306	11.0
20.32	15.0
20.335	10.0
20.35	13.0
20.365	10.0
20.38	9.0
20.394	9.0
20.409	12.0
20.424	10.0
20.439	10.0
20.453	15.0
20.468	19.0
20.483	13.0
20.498	11.0
20.513	13.0
20.527	8.0
20.542	11.0
20.557	9.0
20.572	8.0
20.586	9.0
20.601	9.0
20.616	11.0
20.631	12.0
20.646	16.0
20.66	8.0
20.675	12.0
20.69	4.0
20.705	12.0
20.719	10.0
20.734	10.0
20.749	9.0
20.764	10.0
20.779	20.0
20.793	12.0
20.808	13.0
20.823	13.0
20.838	7.0
20.853	9.0
20.867	16.0
20.882	10.0
20.897	10.0
20.912	11.0
20.926	9.0
20.941	8.0
20.956	10.0
20.971	10.0
20.986	10.0
21.0	16.0
21.015	10.0
21.03	8.0
21.045	11.0
21.06	12.0
21.074	12.0
21.089	4.0
21.104	10.0
21.119	7.0
21.134	11.0
21.148	11.0
21.163	14.0
21.178	12.0
21.193	8.0
21.208	11.0
21.222	14.0
21.237	13.0
21.252	15.0
21.267	11.0
21.282	13.0
21.296	11.0
21.311	8.0
21.326	8.0
21.341	8.0
21.356	14.0
21.37	15.0
21.385	15.0
21.4	15.0
21.415	13.0
21.43	9.0
21.444	16.0
21.459	5.0
21.474	13.0
21.489	13.0
21.504	12.0
21.519	11.0
21.533	17.0
21.548	12.0
21.563	17.0
21.578	6.0
21.593	17.0
21.608	15.0
21.622	17.0
21.637	16.0
21.652	12.0
21.667	22.0
21.682	14.0
21.697	23.0
21.712	21.0
21.726	30.0
21.741	18.0
21.756	36.0
21.771	17.0
21.786	33.0
21.801	30.0
21.816	46.0
21.83	43.0
21.845	50.0
21.86	55.0
21.875	64.0
21.89	68.0
21.905	78.0
21.92	76.0
21.935	75.0
21.949	78.0
21.964	67.0
21.979	69.0
21.994	75.0
22.009	83.0
22.024	63.0
22.039	48.0
22.054	45.0
22.069	52.0
22.083	41.0
22.098	43.0
22.113	27.0
22.128	32.0
22.143	23.0
22.158	29.0
22.173	30.0
22.188	17.0
22.203	18.0
22.218	11.0
22.233	13.0
22.248	11.0
22.262	18.0
22.277	15.0
22.292	13.0
22.307	11.0
22.322	15.0
22.337	15.0
22.352	9.0
22.367	7.0
22.382	17.0
22.397	7.0
22.412	12.0
22.427	18.0
22.442	17.0
22.457	10.0
22.472	7.0
22.487	14.0
22.502	13.0
22.516	11.0
22.531	11.0
22.546	15.0
22.561	11.0
22.576	14.0
22.591	12.0
22.606	14.0
22.621	8.0
22.636	15.0
22.651	12.0
22.666	10.0
22.681	15.0
22.696	14.0
22.711	12.0
22.726	11.0
22.741	17.0
22.756	14.0
22.771	8.0
22.786	7.0
22.801	8.0
22.816	11.0
22.831	14.0
22.846	10.0
22.861	12.0
22.876	11.0
22.891	12.0
22.906	4.0
22.92	11.0
22.935	12.0
22.95	9.0
22.965	13.0
22.98	14.0
22.995	8.0
23.01	10.0
23.025	7.0
23.04	12.0
23.055	8.0
23.07	13.0
23.085	10.0
23.1	6.0
23.115	7.0
23.13	12.0
23.145	10.0
23.16	12.0
23.175	4.0
23.19	9.0
23.205	2.0
23.22	11.0
23.235	10.0
23.25	7.0
23.265	11.0
23.28	11.0
23.295	13.0
23.31	8.0
23.325	11.0
23.34	9.0
23.355	10.0
23.37	2.0
23.384	6.0
23.399	7.0
23.414	11.0
23.429	13.0
23.444	5.0
23.459	12.0
23.474	10.0
23.489	7.0
23.504	6.0
23.519	14.0
23.534	12.0
23.549	11.0
23.564	8.0
23.579	10.0
23.594	6.0
23.609	10.0
23.624	8.0
23.639	11.0
23.654	9.0
23.668	12.0
23.683	10.0
23.698	9.0
23.713	12.0
23.728	13.0
23.743	8.0
23.758	13.0
23.773	11.0
23.788	8.0
23.803	11.0
23.818	10.0
23.833	13.0
23.848	15.0
23.862	16.0
23.877	14.0
23.892	13.0
23.907	28.0
23.922	22.0
23.937	25.0
23.952	23.0
23.967	33.0
23.982	33.0
23.997	36.0
24.011	30.0
24.026	37.0
24.041	43.0
24.056	46.0
24.071	53.0
24.086	42.0
24.101	58.0
24.116	47.0
24.131	47.0
24.145	41.0
24.16	37.0
24.175	44.0
24.19	37.0
24.205	38.0
24.22	37.0
24.235	24.0
24.249	31.0
24.264	25.0
24.279	19.0
24.294	10.0
24.309	23.0
24.324	15.0
24.338	15.0
24.353	12.0
24.368	12.0
24.383	13.0
24.398	13.0
24.413	11.0
24.428	11.0
24.442	5.0
24.457	12.0
24.472	14.0
24.487	10.0
24.502	8.0
24.516	11.0
24.531	15.0
24.546	12.0
24.561	4.0
24.576	11.0
24.591	5.0
24.605	6.0
24.62	11.0
24.635	15.0
24.65	6.0
24.665	10.0
24.679	11.0
24.694	10.0
24.709	10.0
24.724	14.0
24.739	11.0
24.753	12.0
24.768	15.0
24.783	14.0
24.798	12.0
24.813	10.0
24.827	12.0
24.842	17.0
24.857	11.0
24.872	7.0
24.886	13.0
24.901	13.0
24.916	3.0
24.931	17.0
24.946	7.0
24.96	7.0
24.975	14.0
24.99	14.0
25.005	10.0
25.019	11.0
25.034	7.0
25.049	7.0
25.064	7.0
25.078	7.0
25.093	6.0
25.108	9.0
25.123	15.0
25.138	9.0
25.152	9.0
25.167	6.0
25.182	11.0
25.197	11.0
25.211	9.0
25.226	7.0
25.241	5.0
25.256	6.0
25.27	9.0
25.285	14.0
25.3	12.0
25.315	7.0
25.329	5.0
25.344	9.0
25.359	12.0
25.374	7.0
25.388	9.0
25.403	7.0
25.418	14.0
25.433	11.0
25.447	14.0
25.462	7.0
25.477	10.0
25.492	13.0
25.506	8.0
25.521	9.0
25.536	5.0
25.55	8.0
25.565	12.0
25.58	8.0
25.595	7.0
25.609	7.0
25.624	9.0
25.639	11.0
25.654	4.0
25.668	6.0
25.683	9.0
25.698	8.0
25.713	9.0
25.727	6.0
25.742	10.0
25.757	7.0
25.772	8.0
25.786	11.0
25.801	8.0
25.816	5.0
25.83	10.0
25.845	9.0
25.86	13.0
25.875	9.0
25.889	14.0
25.904	5.0
25.919	16.0
25.934	12.0
25.948	12.0
25.963	3.0
25.978	9.0
25.992	7.0
26.007	10.0
26.022	13.0
26.037	8.0
26.051	6.0
26.066	6.0
26.081	12.0
26.096	8.0
26.11	5.0
26.125	11.0
26.14	9.0
26.155	8.0
26.169	7.0
26.184	13.0
26.199	7.0
26.213	9.0
26.228	12.0
26.243	7.0
26.258	10.0
26.272	12.0
26.287	11.0
26.302	8.0
26.317	9.0
26.331	10.0
26.346	13.0
26.361	7.0
26.376	7.0
26.39	13.0
26.405	12.0
26.42	8.0
26.434	7.0
26.449	9.0
26.464	10.0
26.479	6.0
26.493	11.0
26.508	11.0
26.523	6.0
26.538	8.0
26.552	7.0
26.567	9.0
26.582	11.0
26.597	7.0
26.611	7.0
26.626	9.0
26.641	7.0
26.656	10.0
26.67	12.0
26.685	13.0
26.7	6.0
26.715	8.0
26.729	9.0
26.744	9.0
26.759	8.0
26.773	7.0
26.788	10.0
26.803	5.0
26.818	8.0
26.832	7.0
26.847	10.0
26.862	11.0
26.877	12.0
26.891	8.0
26.906	13.0
26.921	13.0
26.936	6.0
26.95	7.0
26.965	9.0
26.98	8.0
26.995	8.0
27.01	7.0
27.024	12.0
27.039	11.0
27.054	12.0
27.069	5.0
27.083	8.0
27.098	11.0
27.113	13.0
27.128	6.0
27.142	10.0
27.157	5.0
27.172	3.0
27.187	9.0
27.201	7.0
27.216	6.0
27.231	13.0
27.246	8.0
27.261	8.0
27.275	6.0
27.29	13.0
27.305	10.0
27.32	6.0
27.334	9.0
27.349	3.0
27.364	9.0
27.379	8.0
27.394	5.0
27.408	11.0
27.423	10.0
27.438	16.0
27.453	9.0
27.467	7.0
27.482	15.0
27.497	12.0
27.512	9.0
27.527	3.0
27.541	16.0
27.556	11.0
27.571	7.0
27.586	9.0
27.601	10.0
27.615	8.0
27.63	9.0
27.645	16.0
27.66	7.0
27.675	14.0
27.689	9.0
27.704	17.0
27.719	14.0
27.734	25.0
27.749	16.0
27.763	24.0
27.778	7.0
27.793	21.0
27.808	26.0
27.823	26.0
27.838	23.0
27.852	23.0
27.867	15.0
27.882	29.0
27.897	15.0
27.912	34.0
27.926	24.0
27.941	20.0
27.956	22.0
27.971	23.0
27.986	17.0
28.001	17.0
28.015	16.0
28.03	17.0
28.045	9.0
28.06	22.0
28.075	14.0
28.09	14.0
28.105	25.0
28.119	13.0
28.134	7.0
28.149	15.0
28.164	8.0
28.179	9.0
28.194	12.0
28.208	13.0
28.223	17.0
28.238	14.0
28.253	9.0
28.268	13.0
28.283	8.0
28.298	9.0
28.312	7.0
28.327	15.0
28.342	5.0
28.357	12.0
28.372	7.0
28.387	5.0
28.402	8.0
28.417	6.0
28.431	4.0
28.446	8.0
28.461	12.0
28.476	11.0
28.491	8.0
28.506	13.0
28.521	10.0
28.536	10.0
28.55	10.0
28.565	10.0
28.58	11.0
28.595	7.0
28.61	6.0
28.625	13.0
28.64	7.0
28.655	13.0
28.669	8.0
28.684	9.0
28.699	5.0
28.714	20.0
28.729	14.0
28.744	12.0
28.759	4.0
28.774	7.0
28.788	17.0
28.803	13.0
28.818	20.0
28.833	6.0
28.848	10.0
28.863	14.0
28.878	11.0
28.893	6.0
28.908	10.0
28.922	8.0
28.937	10.0
28.952	9.0
28.967	12.0
28.982	10.0
28.997	8.0
29.012	15.0
29.027	12.0
29.041	11.0
29.056	11.0
29.071	6.0
29.086	5.0
29.101	6.0
29.116	11.0
29.131	9.0
29.146	14.0
29.16	14.0
29.175	9.0
29.19	9.0
29.205	7.0
29.22	9.0
29.235	5.0
29.25	6.0
29.265	6.0
29.279	9.0
29.294	10.0
29.309	11.0
29.324	3.0
29.339	15.0
29.354	16.0
29.369	23.0
29.384	19.0
29.398	16.0
29.413	22.0
29.428	17.0
29.443	22.0
29.458	12.0
29.473	27.0
29.488	21.0
29.502	27.0
29.517	26.0
29.532	29.0
29.547	32.0
29.562	55.0
29.577	51.0
29.592	51.0
29.606	45.0
29.621	41.0
29.636	50.0
29.651	50.0
29.666	46.0
29.681	31.0
29.695	30.0
29.71	18.0
29.725	36.0
29.74	38.0
29.755	30.0
29.77	25.0
29.784	23.0
29.799	14.0
29.814	37.0
29.829	23.0
29.844	34.0
29.859	20.0
29.873	29.0
29.888	19.0
29.903	19.0
29.918	8.0
29.933	15.0
29.947	12.0
29.962	15.0
29.977	9.0
29.992	7.0
30.007	16.0
30.021	8.0
30.036	11.0
30.051	10.0
30.066	11.0
30.081	10.0
30.095	13.0
30.11	15.0
30.125	13.0
30.14	11.0
30.155	6.0
30.169	10.0
30.184	13.0
30.199	14.0
30.214	15.0
30.228	15.0
30.243	9.0
30.258	8.0
30.273	15.0
30.288	11.0
30.302	10.0
30.317	12.0
30.332	6.0
30.347	11.0
30.361	9.0
30.376	7.0
30.391	5.0
30.406	16.0
30.42	10.0
30.435	10.0
30.45	8.0
30.465	6.0
30.479	13.0
30.494	14.0
30.509	13.0
30.524	8.0
30.538	9.0
30.553	10.0
30.568	11.0
30.583	6.0
30.597	12.0
30.612	7.0
30.627	10.0
30.641	6.0
30.656	9.0
30.671	11.0
30.686	15.0
30.7	12.0
30.715	11.0
30.73	9.0
30.745	14.0
30.759	18.0
30.774	10.0
30.789	13.0
30.803	5.0
30.818	9.0
30.833	13.0
30.848	7.0
30.862	8.0
30.877	17.0
30.892	11.0
30.906	9.0
30.921	12.0
30.936	7.0
30.951	13.0
30.965	13.0
30.98	9.0
30.995	17.0
31.009	21.0
31.024	17.0
31.039	15.0
31.053	12.0
31.068	9.0
31.083	22.0
31.098	21.0
31.112	11.0
31.127	20.0
31.142	20.0
31.156	23.0
31.171	27.0
31.186	29.0
31.2	26.0
31.215	36.0
31.23	37.0
31.245	27.0
31.259	23.0
31.274	32.0
31.289	38.0
31.303	38.0
31.318	34.0
31.333	34.0
31.347	21.0
31.362	36.0
31.377	14.0
31.392	23.0
31.406	27.0
31.421	32.0
31.436	23.0
31.45	26.0
31.465	24.0
31.48	22.0
31.494	18.0
31.509	13.0
31.524	23.0
31.538	22.0
31.553	10.0
31.568	16.0
31.583	8.0
31.597	8.0
31.612	11.0
31.627	12.0
31.641	15.0
31.656	8.0
31.671	13.0
31.685	15.0
31.7	8.0
31.715	11.0
31.729	4.0
31.744	11.0
31.759	8.0
31.774	6.0
31.788	11.0
31.803	10.0
31.818	9.0
31.832	9.0
31.847	5.0
31.862	15.0
31.876	7.0
31.891	11.0
31.906	14.0
31.92	12.0
31.935	4.0
31.95	8.0
31.965	11.0
31.979	6.0
31.994	8.0
32.009	9.0
32.023	5.0
32.038	7.0
32.053	11.0
32.067	3.0
32.082	16.0
32.097	10.0
32.112	15.0
32.126	14.0
32.141	9.0
32.156	13.0
32.17	6.0
32.185	15.0
32.2	13.0
32.214	7.0
32.229	9.0
32.244	6.0
32.259	13.0
32.273	12.0
32.288	11.0
32.303	5.0
32.317	15.0
32.332	8.0
32.347	7.0
32.362	12.0
32.376	10.0
32.391	15.0
32.406	9.0
32.42	3.0
32.435	12.0
32.45	6.0
32.465	10.0
32.479	7.0
32.494	13.0
32.509	10.0
32.523	13.0
32.538	4.0
32.553	9.0
32.568	12.0
32.582	10.0
32.597	14.0
32.612	11.0
32.627	12.0
32.641	14.0
32.656	8.0
32.671	9.0
32.685	23.0
32.7	22.0
32.715	17.0
32.73	20.0
32.744	14.0
32.759	19.0
32.774	22.0
32.788	23.0
32.803	31.0
32.818	35.0
32.833	31.0
32.847	21.0
32.862	32.0
32.877	27.0
32.892	30.0
32.906	22.0
32.921	14.0
32.936	25.0
32.951	17.0
32.965	16.0
32.98	24.0
32.995	13.0
33.009	18.0
33.024	15.0
33.039	20.0
33.054	21.0
33.068	17.0
33.083	14.0
33.098	13.0
33.113	17.0
33.127	15.0
33.142	11.0
33.157	10.0
33.172	8.0
33.186	17.0
33.201	8.0
33.216	9.0
33.231	8.0
33.245	10.0
33.26	4.0
33.275	9.0
33.29	7.0
33.304	8.0
33.319	7.0
33.334	6.0
33.349	8.0
33.363	13.0
33.378	13.0
33.393	8.0
33.408	8.0
33.422	9.0
33.437	8.0
33.452	14.0
33.467	15.0
33.481	11.0
33.496	3.0
33.511	10.0
33.526	10.0
33.54	9.0
33.555	10.0
33.57	10.0
33.585	8.0
33.599	5.0
33.614	10.0
33.629	10.0
33.644	7.0
33.658	15.0
33.673	6.0
33.688	9.0
33.703	12.0
33.718	7.0
33.732	11.0
33.747	7.0
33.762	5.0
33.777	7.0
33.791	9.0
33.806	8.0
33.821	11.0
33.836	4.0
33.85	10.0
33.865	10.0
33.88	13.0
33.895	9.0
33.91	12.0
33.924	10.0
33.939	6.0
33.954	8.0
33.969	14.0
33.983	5.0
33.998	14.0
34.013	12.0
34.028	8.0
34.042	12.0
34.057	7.0
34.072	8.0
34.087	6.0
34.102	11.0
34.116	10.0
34.131	9.0
34.146	10.0
34.161	10.0
34.175	11.0
34.19	3.0
34.205	15.0
34.22	12.0
34.235	14.0
34.249	18.0
34.264	21.0
34.279	15.0
34.294	13.0
34.309	10.0
34.323	11.0
34.338	10.0
34.353	12.0
34.368	9.0
34.382	10.0
34.397	11.0
34.412	12.0
34.427	9.0
34.442	18.0
34.456	13.0
34.471	6.0
34.486	12.0
34.501	19.0
34.516	13.0
34.53	10.0
34.545	9.0
34.56	8.0
34.575	9.0
34.59	10.0
34.604	10.0
34.619	15.0
34.634	6.0
34.649	6.0
34.664	13.0
34.678	7.0
34.693	12.0
34.708	11.0
34.723	10.0
34.738	3.0
34.752	6.0
34.767	7.0
34.782	10.0
34.797	10.0
34.812	10.0
34.826	5.0
34.841	10.0
34.856	12.0
34.871	8.0
34.886	11.0
34.9	9.0
34.915	8.0
34.93	3.0
34.945	10.0
34.96	12.0
34.974	5.0
34.989	9.0
35.004	5.0
35.019	3.0
35.034	6.0
35.048	9.0
35.063	9.0
35.078	9.0
35.093	5.0
35.108	7.0
35.122	7.0
35.137	9.0
35.152	7.0
35.167	8.0
35.182	8.0
35.196	7.0
35.211	7.0
35.226	12.0
35.241	7.0
35.256	6.0
35.27	7.0
35.285	14.0
35.3	6.0
35.315	2.0
35.33	8.0
35.344	15.0
35.359	6.0
35.374	11.0
35.389	14.0
35.404	9.0
35.418	10.0
35.433	6.0
35.448	4.0
35.463	2.0
35.478	12.0
35.493	8.0
35.507	12.0
35.522	12.0
35.537	9.0
35.552	14.0
35.567	10.0
35.581	17.0
35.596	9.0
35.611	8.0
35.626	7.0
35.641	19.0
35.655	16.0
35.67	10.0
35.685	15.0
35.7	13.0
35.715	13.0
35.729	15.0
35.744	16.0
35.759	17.0
35.774	21.0
35.789	17.0
35.804	15.0
35.818	21.0
35.833	17.0
35.848	8.0
35.863	12.0
35.878	16.0
35.892	18.0
35.907	10.0
35.922	16.0
35.937	15.0
35.952	16.0
35.966	14.0
35.981	16.0
35.996	11.0
36.011	5.0
36.026	19.0
36.04	7.0
36.055	8.0
36.07	13.0
36.085	8.0
36.1	7.0
36.114	5.0
36.129	15.0
36.144	13.0
36.159	7.0
36.174	4.0
36.189	6.0
36.203	9.0
36.218	9.0
36.233	8.0
36.248	11.0
36.263	19.0
36.277	6.0
36.292	12.0
36.307	9.0
36.322	9.0
36.337	8.0
36.351	6.0
36.366	9.0
36.381	6.0
36.396	5.0
36.411	7.0
36.426	3.0
36.44	14.0
36.455	5.0
36.47	7.0
36.485	9.0
36.5	9.0
36.514	7.0
36.529	7.0
36.544	13.0
36.559	7.0
36.574	16.0
36.589	5.0
36.603	10.0
36.618	8.0
36.633	7.0
36.648	10.0
36.663	5.0
36.677	9.0
36.692	4.0
36.707	7.0
36.722	6.0
36.737	7.0
36.752	8.0
36.766	13.0
36.781	8.0
36.796	11.0
36.811	4.0
36.826	4.0
36.841	10.0
36.855	11.0
36.87	10.0
36.885	6.0
36.9	9.0
36.915	7.0
36.93	12.0
36.944	2.0
36.959	7.0
36.974	9.0
36.989	6.0
37.004	6.0
37.019	16.0
37.033	15.0
37.048	10.0
37.063	24.0
37.078	13.0
37.093	22.0
37.108	23.0
37.123	20.0
37.137	15.0
37.152	26.0
37.167	23.0
37.182	29.0
37.197	22.0
37.212	23.0
37.226	31.0
37.241	22.0
37.256	18.0
37.271	21.0
37.286	24.0
37.301	21.0
37.316	14.0
37.331	16.0
37.345	16.0
37.36	13.0
37.375	11.0
37.39	17.0
37.405	19.0
37.42	15.0
37.435	21.0
37.45	14.0
37.464	16.0
37.479	11.0
37.494	10.0
37.509	7.0
37.524	8.0
37.539	8.0
37.554	9.0
37.569	8.0
37.583	10.0
37.598	8.0
37.613	5.0
37.628	4.0
37.643	6.0
37.658	6.0
37.673	7.0
37.688	13.0
37.703	11.0
37.718	10.0
37.733	9.0
37.747	12.0
37.762	5.0
37.777	2.0
37.792	2.0
37.807	5.0
37.822	9.0
37.837	10.0
37.852	7.0
37.867	3.0
37.882	4.0
37.897	7.0
37.912	5.0
37.927	9.0
37.941	5.0
37.956	4.0
37.971	6.0
37.986	9.0
38.001	7.0
38.016	2.0
38.031	4.0
38.046	5.0
38.061	4.0
38.076	6.0
38.091	3.0
38.106	3.0
38.121	4.0
38.136	8.0
38.151	6.0
38.166	4.0
38.181	11.0
38.196	6.0
38.211	3.0
38.226	5.0
38.241	10.0
38.256	3.0
38.271	1.0
38.285	7.0
38.3	7.0
38.315	6.0
38.33	3.0
38.345	11.0
38.36	7.0
38.375	6.0
38.39	5.0
38.405	8.0
38.42	5.0
38.435	6.0
38.45	7.0
38.465	3.0
38.48	5.0
38.495	4.0
38.51	8.0
38.525	4.0
38.54	3.0
38.555	10.0
38.57	6.0
38.585	8.0
38.6	9.0
38.615	4.0
38.63	10.0
38.645	7.0
38.66	9.0
38.675	4.0
38.69	12.0
38.705	7.0
38.72	9.0
38.735	8.0
38.75	5.0
38.765	9.0
38.78	5.0
38.795	7.0
38.81	5.0
38.825	8.0
38.84	9.0
38.855	5.0
38.87	6.0
38.885	7.0
38.9	7.0
38.915	3.0
38.93	6.0
38.945	9.0
38.96	5.0
38.975	2.0
38.99	3.0
39.005	3.0
39.02	4.0
39.035	7.0
39.05	10.0
39.065	4.0
39.08	5.0
39.095	4.0
39.11	7.0
39.125	7.0
39.14	5.0
39.155	2.0
39.17	8.0
39.185	2.0
39.2	5.0
39.215	5.0
39.23	8.0
39.245	9.0
39.26	6.0
39.275	7.0
39.29	4.0
39.305	6.0
39.32	5.0
39.335	5.0
39.35	3.0
39.365	7.0
39.38	7.0
39.395	8.0
39.409	5.0
39.424	7.0
39.439	6.0
39.454	9.0
39.469	5.0
39.484	4.0
39.499	4.0
39.514	11.0
39.529	7.0
39.544	6.0
39.559	3.0
39.574	8.0
39.589	8.0
39.604	7.0
39.619	12.0
39.634	2.0
39.649	12.0
39.664	6.0
39.678	5.0
39.693	6.0
39.708	9.0
39.723	7.0
39.738	6.0
39.753	6.0
39.768	5.0
39.783	4.0
39.798	7.0
39.813	6.0
39.827	5.0
39.842	11.0
39.857	7.0
39.872	12.0
39.887	5.0
39.902	7.0
39.917	5.0
39.932	7.0
39.947	7.0
39.961	9.0
39.976	8.0
39.991	3.0
40.006	4.0
40.021	7.0
40.036	8.0
40.051	7.0
40.065	3.0
40.08	12.0
40.095	2.0
40.11	11.0
40.125	6.0
40.14	3.0
40.154	4.0
40.169	7.0
40.184	8.0
40.199	7.0
40.214	6.0
40.228	6.0
40.243	4.0
40.258	4.0
40.273	3.0
40.288	5.0
40.302	6.0
40.317	10.0
40.332	4.0
40.347	4.0
40.362	7.0
40.376	7.0
40.391	6.0
40.406	6.0
40.421	3.0
40.436	7.0
40.45	7.0
40.465	4.0
40.48	7.0
40.495	6.0
40.509	4.0
40.524	1.0
40.539	6.0
40.554	3.0
40.568	7.0
40.583	9.0
40.598	2.0
40.613	7.0
40.627	5.0
40.642	5.0
40.657	6.0
40.672	8.0
40.686	8.0
40.701	7.0
40.716	3.0
40.731	8.0
40.745	9.0
40.76	6.0
40.775	4.0
40.79	5.0
40.804	4.0
40.819	4.0
40.834	4.0
40.849	8.0
40.863	1.0
40.878	4.0
40.893	8.0
40.907	7.0
40.922	7.0
40.937	7.0
40.952	9.0
40.966	9.0
40.981	13.0
40.996	12.0
41.011	8.0
41.025	13.0
41.04	10.0
41.055	10.0
41.069	15.0
41.084	14.0
41.099	14.0
41.114	25.0
41.128	23.0
41.143	20.0
41.158	14.0
41.173	13.0
41.187	11.0
41.202	17.0
41.217	11.0
41.231	14.0
41.246	11.0
41.261	13.0
41.276	7.0
41.29	11.0
41.305	16.0
41.32	13.0
41.335	10.0
41.349	15.0
41.364	10.0
41.379	13.0
41.393	8.0
41.408	9.0
41.423	12.0
41.438	16.0
41.452	9.0
41.467	7.0
41.482	6.0
41.497	7.0
41.511	7.0
41.526	5.0
41.541	9.0
41.556	4.0
41.57	4.0
41.585	5.0
41.6	10.0
41.615	11.0
41.629	9.0
41.644	4.0
41.659	9.0
41.674	6.0
41.688	6.0
41.703	11.0
41.718	6.0
41.733	3.0
41.747	5.0
41.762	8.0
41.777	5.0
41.792	2.0
41.806	8.0
41.821	8.0
41.836	2.0
41.851	7.0
41.866	5.0
41.88	8.0
41.895	3.0
41.91	8.0
41.925	4.0
41.939	8.0
41.954	9.0
41.969	6.0
41.984	5.0
41.999	8.0
42.013	8.0
42.028	4.0
42.043	5.0
42.058	6.0
42.073	5.0
42.088	8.0
42.102	2.0
42.117	5.0
42.132	5.0
42.147	4.0
42.162	8.0
42.176	7.0
42.191	6.0
42.206	7.0
42.221	4.0
42.236	11.0
42.251	10.0
42.266	11.0
42.28	6.0
42.295	10.0
42.31	9.0
42.325	9.0
42.34	16.0
42.355	18.0
42.369	10.0
42.384	18.0
42.399	16.0
42.414	17.0
42.429	19.0
42.444	14.0
42.459	13.0
42.474	15.0
42.488	11.0
42.503	10.0
42.518	12.0
42.533	11.0
42.548	7.0
42.563	8.0
42.578	4.0
42.593	10.0
42.608	7.0
42.622	9.0
42.637	11.0
42.652	12.0
42.667	8.0
42.682	9.0
42.697	7.0
42.712	11.0
42.727	8.0
42.742	9.0
42.757	5.0
42.772	7.0
42.786	9.0
42.801	8.0
42.816	6.0
42.831	6.0
42.846	5.0
42.861	7.0
42.876	6.0
42.891	5.0
42.906	2.0
42.921	7.0
42.936	8.0
42.951	1.0
42.966	6.0
42.981	5.0
42.996	4.0
43.011	4.0
43.025	4.0
43.04	4.0
43.055	1.0
43.07	4.0
43.085	5.0
43.1	5.0
43.115	5.0
43.13	6.0
43.145	3.0
43.16	7.0
43.175	8.0
43.19	5.0
43.205	4.0
43.22	6.0
43.235	2.0
43.25	7.0
43.265	10.0
43.28	4.0
43.295	7.0
43.31	2.0
43.325	6.0
43.34	7.0
43.355	4.0
43.37	6.0
43.385	5.0
43.4	2.0
43.415	3.0
43.43	4.0
43.445	2.0
43.46	1.0
43.475	8.0
43.49	7.0
43.505	7.0
43.52	10.0
43.535	4.0
43.55	6.0
43.565	9.0
43.58	5.0
43.595	3.0
43.61	10.0
43.625	13.0
43.64	12.0
43.655	5.0
43.67	13.0
43.685	12.0
43.7	6.0
43.715	12.0
43.73	4.0
43.745	6.0
43.76	9.0
43.775	8.0
43.79	8.0
43.805	4.0
43.82	6.0
43.835	6.0
43.85	6.0
43.865	7.0
43.88	7.0
43.895	10.0
43.91	10.0
43.925	2.0
43.94	6.0
43.955	13.0
43.97	7.0
43.985	4.0
44.0	4.0
44.015	6.0
44.03	5.0
44.045	5.0
44.061	0.0
44.076	4.0
44.091	8.0
44.106	1.0
44.121	1.0
44.136	8.0
44.151	2.0
44.166	3.0
44.181	3.0
44.196	5.0
44.211	6.0
44.226	6.0
44.241	3.0
44.256	7.0
44.271	8.0
44.286	5.0
44.301	3.0
44.316	3.0
44.331	3.0
44.346	6.0
44.361	6.0
44.377	7.0
44.392	5.0
44.407	4.0
44.422	8.0
44.437	1.0
44.452	7.0
44.467	3.0
44.482	1.0
44.497	11.0
44.512	7.0
44.527	5.0
44.542	4.0
44.557	5.0
44.572	4.0
44.587	11.0
44.602	1.0
44.617	6.0
44.632	9.0
44.647	5.0
44.663	7.0
44.678	2.0
44.693	4.0
44.708	2.0
44.723	7.0
44.738	10.0
44.753	8.0
44.768	6.0
44.783	15.0
44.798	4.0
44.813	13.0
44.828	12.0
44.843	10.0
44.858	9.0
44.873	10.0
44.888	8.0
44.903	7.0
44.918	8.0
44.933	3.0
44.948	10.0
44.964	3.0
44.979	5.0
44.994	8.0
45.009	8.0
45.024	6.0
45.039	5.0
45.054	10.0
45.069	11.0
45.084	8.0
45.099	14.0
45.114	8.0
45.129	10.0
45.144	4.0
45.159	6.0
45.174	4.0
45.189	9.0
45.204	7.0
45.219	6.0
45.234	4.0
45.249	7.0
45.264	4.0
45.279	5.0
45.294	6.0
45.309	7.0
45.324	4.0
45.339	7.0
45.354	7.0
45.369	4.0
45.384	8.0
45.399	7.0
45.414	2.0
45.429	3.0
45.444	2.0
45.459	6.0
45.474	5.0
45.489	9.0
45.504	9.0
45.519	9.0
45.534	7.0
45.549	6.0
45.564	7.0
45.579	3.0
45.594	5.0
45.609	7.0
45.624	6.0
45.639	4.0
45.654	9.0
45.669	7.0
45.684	9.0
45.699	10.0
45.714	2.0
45.729	4.0
45.744	9.0
45.759	8.0
45.774	6.0
45.789	10.0
45.804	10.0
45.819	7.0
45.834	5.0
45.849	7.0
45.864	10.0
45.879	14.0
45.894	8.0
45.909	14.0
45.924	16.0
45.939	15.0
45.954	13.0
45.969	12.0
45.984	12.0
45.998	22.0
46.013	18.0
46.028	20.0
46.043	15.0
46.058	13.0
46.073	7.0
46.088	13.0
46.103	9.0
46.118	7.0
46.133	7.0
46.148	12.0
46.163	4.0
46.178	8.0
46.192	8.0
46.207	11.0
46.222	16.0
46.237	6.0
46.252	9.0
46.267	8.0
46.282	7.0
46.297	10.0
46.312	10.0
46.327	6.0
46.341	5.0
46.356	4.0
46.371	9.0
46.386	3.0
46.401	5.0
46.416	6.0
46.431	1.0
46.446	10.0
46.46	6.0
46.475	6.0
46.49	7.0
46.505	0.0
46.52	6.0
46.535	6.0
46.55	5.0
46.564	6.0
46.579	1.0
46.594	3.0
46.609	6.0
46.624	11.0
46.639	2.0
46.654	8.0
46.668	4.0
46.683	1.0
46.698	4.0
46.713	3.0
46.728	7.0
46.743	7.0
46.758	4.0
46.772	2.0
46.787	4.0
46.802	8.0
46.817	1.0
46.832	6.0
46.847	6.0
46.861	8.0
46.876	5.0
46.891	4.0
46.906	3.0
46.921	2.0
46.936	4.0
46.95	5.0
46.965	3.0
46.98	6.0
46.995	4.0
47.01	12.0
47.025	8.0
47.039	8.0
47.054	3.0
47.069	11.0
47.084	17.0
47.099	10.0
47.113	5.0
47.128	10.0
47.143	5.0
47.158	13.0
47.173	13.0
47.188	8.0
47.202	4.0
47.217	9.0
47.232	7.0
47.247	8.0
47.262	5.0
47.277	5.0
47.291	5.0
47.306	7.0
47.321	8.0
47.336	5.0
47.351	5.0
47.365	4.0
47.38	7.0
47.395	5.0
47.41	7.0
47.425	7.0
47.44	9.0
47.454	5.0
47.469	10.0
47.484	7.0
47.499	6.0
47.514	3.0
47.528	8.0
47.543	9.0
47.558	2.0
47.573	6.0
47.588	2.0
47.603	5.0
47.617	4.0
47.632	6.0
47.647	5.0
47.662	1.0
47.677	6.0
47.691	2.0
47.706	4.0
47.721	6.0
47.736	4.0
47.751	8.0
47.766	3.0
47.78	3.0
47.795	2.0
47.81	3.0
47.825	4.0
47.84	0.0
47.855	6.0
47.869	4.0
47.884	3.0
47.899	3.0
47.914	6.0
47.929	7.0
47.944	6.0
47.958	8.0
47.973	0.0
47.988	1.0
48.003	9.0
48.018	1.0
48.033	6.0
48.047	3.0
48.062	3.0
48.077	7.0
48.092	4.0
48.107	8.0
48.122	2.0
48.137	5.0
48.151	2.0
48.166	5.0
48.181	2.0
48.196	5.0
48.211	2.0
48.226	7.0
48.241	0.0
48.255	4.0
48.27	6.0
48.285	3.0
48.3	6.0
48.315	7.0
48.33	5.0
48.345	4.0
48.359	3.0
48.374	5.0
48.389	2.0
48.404	5.0
48.419	4.0
48.434	3.0
48.449	3.0
48.464	7.0
48.478	1.0
48.493	4.0
48.508	4.0
48.523	8.0
48.538	1.0
48.553	5.0
48.568	7.0
48.583	6.0
48.597	1.0
48.612	4.0
48.627	5.0
48.642	1.0
48.657	6.0
48.672	4.0
48.687	4.0
48.702	5.0
48.717	8.0
48.731	5.0
48.746	5.0
48.761	1.0
48.776	4.0
48.791	4.0
48.806	6.0
48.821	5.0
48.836	8.0
48.851	2.0
48.866	6.0
48.88	5.0
48.895	2.0
48.91	4.0
48.925	2.0
48.94	5.0
48.955	9.0
48.97	6.0
48.985	2.0
49.0	5.0
49.015	6.0
49.03	8.0
49.044	5.0
49.059	6.0
49.074	5.0
49.089	4.0
49.104	4.0
49.119	8.0
49.134	8.0
49.149	4.0
49.164	3.0
49.179	2.0
49.194	4.0
49.209	7.0
49.224	5.0
49.238	6.0
49.253	6.0
49.268	9.0
49.283	2.0
49.298	9.0
49.313	5.0
49.328	8.0
49.343	5.0
49.358	2.0
49.373	3.0
49.388	6.0
49.403	5.0
49.418	10.0
49.433	7.0
49.448	1.0
49.463	12.0
49.478	0.0
49.492	6.0
49.507	5.0
49.522	5.0
49.537	3.0
49.552	10.0
49.567	5.0
49.582	0.0
49.597	0.0
49.612	4.0
49.627	6.0
49.642	6.0
49.657	6.0
49.672	8.0
49.687	8.0
49.702	4.0
49.717	5.0
49.732	7.0
49.747	7.0
49.762	2.0
49.777	1.0
49.792	7.0
49.807	7.0
49.822	7.0
49.837	1.0
49.852	7.0
49.867	5.0
49.882	5.0
49.897	8.0
49.912	2.0
49.927	8.0
49.942	8.0
49.957	6.0
49.971	2.0
49.986	6.0
50.001	7.0
50.016	7.0
50.031	4.0
50.046	8.0
50.061	5.0
50.076	3.0
50.091	8.0
50.106	6.0
50.121	8.0
50.136	3.0
50.151	6.0
50.166	7.0
50.181	1.0
50.196	2.0
50.211	4.0
50.226	2.0
50.241	7.0
50.256	4.0
50.271	8.0
50.286	4.0
50.302	4.0
50.317	6.0
50.332	4.0
50.347	0.0
50.362	7.0
50.377	4.0
50.392	9.0
50.407	10.0
50.422	6.0
50.437	7.0
50.452	8.0
50.467	7.0
50.482	7.0
50.497	4.0
50.512	12.0
50.527	10.0
50.542	3.0
50.557	4.0
50.572	2.0
50.587	4.0
50.602	6.0
50.617	6.0
50.632	8.0
50.647	5.0
50.662	9.0
50.677	6.0
50.692	5.0
50.707	7.0
50.722	5.0
50.737	2.0
50.752	8.0
50.767	9.0
50.782	6.0
50.797	5.0
50.812	2.0
50.828	9.0
50.843	3.0
50.858	8.0
50.873	3.0
50.888	4.0
50.903	7.0
50.918	5.0
50.933	4.0
50.948	5.0
50.963	4.0
50.978	4.0
50.993	4.0
51.008	9.0
51.023	6.0
51.038	5.0
51.053	6.0
51.068	3.0
51.083	2.0
51.098	4.0
51.114	4.0
51.129	2.0
51.144	5.0
51.159	2.0
51.174	4.0
51.189	5.0
51.204	9.0
51.219	4.0
51.234	4.0
51.249	6.0
51.264	5.0
51.279	7.0
51.294	10.0
51.309	5.0
51.324	2.0
51.34	7.0
51.355	7.0
51.37	6.0
51.385	10.0
51.4	8.0
51.415	7.0
51.43	12.0
51.445	3.0
51.46	10.0
51.475	14.0
51.49	13.0
51.505	13.0
51.52	21.0
51.535	10.0
51.551	13.0
51.566	12.0
51.581	14.0
51.596	10.0
51.611	7.0
51.626	10.0
51.641	9.0
51.656	7.0
51.671	6.0
51.686	5.0
51.701	4.0
51.716	7.0
51.732	4.0
51.747	9.0
51.762	11.0
51.777	5.0
51.792	6.0
51.807	10.0
51.822	11.0
51.837	12.0
51.852	6.0
51.867	10.0
51.882	11.0
51.898	8.0
51.913	8.0
51.928	5.0
51.943	6.0
51.958	9.0
51.973	10.0
51.988	10.0
52.003	3.0
52.018	3.0
52.033	3.0
52.048	7.0
52.064	7.0
52.079	6.0
52.094	6.0
52.109	9.0
52.124	5.0
52.139	2.0
52.154	5.0
52.169	5.0
52.184	6.0
52.199	6.0
52.215	6.0
52.23	3.0
52.245	5.0
52.26	3.0
52.275	4.0
52.29	3.0
52.305	6.0
52.32	8.0
52.335	6.0
52.35	4.0
52.366	6.0
52.381	9.0
52.396	6.0
52.411	6.0
52.426	6.0
52.441	6.0
52.456	4.0
52.471	8.0
52.486	6.0
52.502	5.0
52.517	6.0
52.532	9.0
52.547	10.0
52.562	4.0
52.577	3.0
52.592	12.0
52.607	6.0
52.622	8.0
52.637	11.0
52.653	6.0
52.668	7.0
52.683	8.0
52.698	6.0
52.713	6.0
52.728	4.0
52.743	8.0
52.758	5.0
52.774	1.0
52.789	2.0
52.804	4.0
52.819	9.0
52.834	3.0
52.849	6.0
52.864	6.0
52.879	4.0
52.894	3.0
52.91	9.0
52.925	6.0
52.94	6.0
52.955	5.0
52.97	17.0
52.985	5.0
53.0	8.0
53.015	11.0
53.031	2.0
53.046	6.0
53.061	4.0
53.076	8.0
53.091	1.0
53.106	5.0
53.121	5.0
53.136	6.0
53.152	6.0
53.167	6.0
53.182	7.0
53.197	0.0
53.212	3.0
53.227	2.0
53.242	5.0
53.257	1.0
53.273	7.0
53.288	5.0
53.303	5.0
53.318	9.0
53.333	3.0
53.348	9.0
53.363	9.0
53.379	4.0
53.394	6.0
53.409	6.0
53.424	2.0
53.439	3.0
53.454	7.0
53.469	7.0
53.484	5.0
53.5	5.0
53.515	7.0
53.53	6.0
53.545	5.0
53.56	7.0
53.575	3.0
53.59	9.0
53.606	2.0
53.621	1.0
53.636	2.0
53.651	3.0
53.666	3.0
53.681	3.0
53.696	5.0
53.712	5.0
53.727	0.0
53.742	5.0
53.757	2.0
53.772	5.0
53.787	6.0
53.802	4.0
53.818	4.0
53.833	5.0
53.848	6.0
53.863	7.0
53.878	10.0
53.893	2.0
53.909	3.0
53.924	6.0
53.939	1.0
53.954	4.0
53.969	4.0
53.984	6.0
53.999	5.0
54.015	7.0
54.03	2.0
54.045	2.0
54.06	5.0
54.075	7.0
54.09	3.0
54.106	4.0
54.121	2.0
54.136	6.0
54.151	5.0
54.166	8.0
54.181	3.0
54.197	4.0
54.212	2.0
54.227	11.0
54.242	7.0
54.257	2.0
54.272	3.0
54.288	4.0
54.303	4.0
54.318	5.0
54.333	3.0
54.348	6.0
54.363	4.0
54.379	4.0
54.394	4.0
54.409	6.0
54.424	3.0
54.439	4.0
54.454	3.0
54.47	6.0
54.485	6.0
54.5	4.0
54.515	8.0
54.53	4.0
54.545	5.0
54.561	4.0
54.576	12.0
54.591	7.0
54.606	9.0
54.621	7.0
54.636	11.0
54.652	19.0
54.667	22.0
54.682	8.0
54.697	10.0
54.712	5.0
54.727	8.0
54.743	8.0
54.758	6.0
54.773	7.0
54.788	8.0
54.803	2.0
54.819	3.0
54.834	7.0
54.849	5.0
54.864	4.0
54.879	5.0
54.894	7.0
54.91	4.0
54.925	7.0
54.94	5.0
54.955	11.0
54.97	9.0
54.985	8.0
55.001	11.0
55.016	11.0
55.031	8.0
55.046	1.0
55.061	5.0
55.077	5.0
55.092	1.0
55.107	4.0
55.122	7.0
55.137	3.0
55.152	8.0
55.168	6.0
55.183	5.0
55.198	2.0
55.213	2.0
55.228	6.0
55.243	9.0
55.259	3.0
55.274	7.0
55.289	5.0
55.304	5.0
55.319	4.0
55.335	7.0
55.35	1.0
55.365	7.0
55.38	9.0
55.395	2.0
55.41	3.0
55.426	4.0
55.441	2.0
55.456	3.0
55.471	4.0
55.486	10.0
55.501	3.0
55.517	5.0
55.532	7.0
55.547	1.0
55.562	6.0
55.577	4.0
55.592	3.0
55.608	9.0
55.623	7.0
55.638	11.0
55.653	8.0
55.668	3.0
55.683	7.0
55.699	7.0
55.714	8.0
55.729	4.0
55.744	7.0
55.759	4.0
55.774	8.0
55.79	4.0
55.805	3.0
55.82	7.0
55.835	3.0
55.85	4.0
55.865	6.0
55.881	3.0
55.896	5.0
55.911	4.0
55.926	2.0
55.941	3.0
55.956	3.0
55.972	5.0
55.987	6.0
56.002	6.0
56.017	3.0
56.032	5.0
56.047	6.0
56.063	4.0
56.078	2.0
56.093	6.0
56.108	5.0
56.123	9.0
56.138	7.0
56.154	4.0
56.169	5.0
56.184	2.0
56.199	4.0
56.214	6.0
56.229	6.0
56.244	2.0
56.26	6.0
56.275	4.0
56.29	4.0
56.305	7.0
56.32	7.0
56.335	4.0
56.351	3.0
56.366	4.0
56.381	6.0
56.396	6.0
56.411	3.0
56.426	7.0
56.441	3.0
56.457	6.0
56.472	5.0
56.487	4.0
56.502	9.0
56.517	8.0
56.532	4.0
56.547	4.0
56.563	4.0
56.578	5.0
56.593	5.0
56.608	2.0
56.623	8.0
56.638	3.0
56.653	3.0
56.668	3.0
56.684	4.0
56.699	3.0
56.714	4.0
56.729	6.0
56.744	3.0
56.759	3.0
56.774	4.0
56.79	4.0
56.805	4.0
56.82	4.0
56.835	3.0
56.85	5.0
56.865	2.0
56.88	6.0
56.895	7.0
56.911	9.0
56.926	4.0
56.941	2.0
56.956	3.0
56.971	2.0
56.986	2.0
57.001	3.0
57.016	7.0
57.031	1.0
57.047	7.0
57.062	5.0
57.077	3.0
57.092	5.0
57.107	4.0
57.122	1.0
57.137	6.0
57.152	7.0
57.167	3.0
57.183	0.0
57.198	4.0
57.213	3.0
57.228	3.0
57.243	2.0
57.258	8.0
57.273	2.0
57.288	5.0
57.303	1.0
57.318	7.0
57.334	9.0
57.349	2.0
57.364	6.0
57.379	5.0
57.394	3.0
57.409	4.0
57.424	5.0
57.439	4.0
57.454	1.0
57.469	7.0
57.484	9.0
57.5	6.0
57.515	6.0
57.53	4.0
57.545	2.0
57.56	3.0
57.575	6.0
57.59	4.0
57.605	6.0
57.62	4.0
57.635	3.0
57.65	6.0
57.665	6.0
57.68	3.0
57.696	7.0
57.711	4.0
57.726	3.0
57.741	1.0
57.756	4.0
57.771	3.0
57.786	3.0
57.801	1.0
57.816	3.0
57.831	4.0
57.846	2.0
57.861	3.0
57.876	2.0
57.891	6.0
57.906	3.0
57.921	4.0
57.937	7.0
57.952	4.0
57.967	3.0
57.982	2.0
57.997	3.0
58.012	3.0
58.027	4.0
58.042	8.0
58.057	2.0
58.072	4.0
58.087	3.0
58.102	4.0
58.117	3.0
58.132	4.0
58.147	3.0
58.162	5.0
58.177	3.0
58.192	2.0
58.207	5.0
58.222	5.0
58.237	4.0
58.252	0.0
58.267	3.0
58.282	8.0
58.297	2.0
58.312	2.0
58.327	6.0
58.342	6.0
58.357	3.0
58.372	5.0
58.387	6.0
58.402	4.0
58.418	3.0
58.433	4.0
58.448	7.0
58.463	9.0
58.478	4.0
58.493	1.0
58.508	6.0
58.523	3.0
58.538	6.0
58.553	4.0
58.568	9.0
58.583	11.0
58.598	6.0
58.613	7.0
58.628	6.0
58.643	10.0
58.658	7.0
58.673	8.0
58.688	8.0
58.703	6.0
58.718	10.0
58.733	7.0
58.748	6.0
58.763	9.0
58.778	1.0
58.793	2.0
58.808	6.0
58.823	5.0
58.838	1.0
58.853	0.0
58.868	9.0
58.883	9.0
58.898	5.0
58.913	4.0
58.928	10.0
58.942	4.0
58.957	8.0
58.972	6.0
58.987	4.0
59.002	2.0
59.017	4.0
59.032	8.0
59.047	11.0
59.062	15.0
59.077	2.0
59.092	6.0
59.107	5.0
59.122	4.0
59.137	6.0
59.152	8.0
59.167	2.0
59.182	6.0
59.197	6.0
59.212	2.0
59.227	0.0
59.242	8.0
59.257	2.0
59.272	11.0
59.287	4.0
59.302	3.0
59.317	4.0
59.332	3.0
59.347	8.0
59.362	5.0
59.377	0.0
59.392	3.0
59.407	3.0
59.422	4.0
59.437	0.0
59.452	8.0
59.467	5.0
59.482	3.0
59.497	4.0
59.512	7.0
59.527	7.0
59.542	8.0
59.557	12.0
59.572	6.0
59.587	6.0
59.602	9.0
59.617	7.0
59.632	13.0
59.647	7.0
59.661	8.0
59.676	7.0
59.691	3.0
59.706	5.0
59.721	6.0
59.736	3.0
59.751	2.0
59.766	10.0
59.781	1.0
59.796	3.0
59.811	3.0
59.826	1.0
59.841	2.0
59.856	4.0
59.871	3.0
59.886	7.0
59.901	2.0
59.916	7.0
59.931	5.0
59.946	5.0
59.961	4.0
59.976	4.0
59.991	7.0
60.006	9.0
60.021	6.0
60.036	4.0
60.051	3.0
60.066	7.0
60.081	5.0
60.096	7.0
60.111	6.0
60.126	9.0
60.141	5.0
60.156	6.0
60.171	2.0
60.186	4.0
60.201	6.0
60.216	5.0
60.231	2.0
60.246	2.0
60.261	5.0
60.276	5.0
60.291	3.0
60.306	1.0
60.321	4.0
60.336	2.0
60.35	2.0
60.365	3.0
60.38	5.0
60.395	1.0
60.41	4.0
60.425	3.0
60.44	2.0
60.455	5.0
60.47	4.0
60.485	7.0
60.5	6.0
60.515	1.0
60.53	6.0
60.545	11.0
60.56	5.0
60.575	6.0
60.59	6.0
60.605	5.0
60.62	8.0
60.635	9.0
60.65	6.0
60.665	4.0
60.68	2.0
60.695	4.0
60.71	3.0
60.725	3.0
60.74	4.0
60.755	4.0
60.77	1.0
60.785	6.0
60.8	4.0
60.815	3.0
60.83	2.0
60.845	3.0
60.86	7.0
60.875	3.0
60.89	1.0
60.905	4.0
60.92	4.0
60.935	11.0
60.95	6.0
60.965	5.0
60.98	9.0
60.995	6.0
61.01	8.0
61.025	1.0
61.04	9.0
61.055	9.0
61.07	1.0
61.085	1.0
61.1	9.0
61.115	4.0
61.13	3.0
61.145	3.0
61.16	6.0
61.175	6.0
61.191	4.0
61.206	8.0
61.221	7.0
61.236	5.0
61.251	2.0
61.266	3.0
61.281	4.0
61.296	1.0
61.311	4.0
61.326	2.0
61.341	4.0
61.356	3.0
61.371	2.0
61.386	2.0
61.401	3.0
61.416	9.0
61.431	2.0
61.446	8.0
61.461	5.0
61.476	3.0
61.491	5.0
61.506	5.0
61.521	7.0
61.536	6.0
61.551	6.0
61.566	3.0
61.581	6.0
61.596	3.0
61.611	3.0
61.626	4.0
61.641	8.0
61.656	2.0
61.672	5.0
61.687	2.0
61.702	2.0
61.717	5.0
61.732	4.0
61.747	2.0
61.762	3.0
61.777	5.0
61.792	4.0
61.807	3.0
61.822	2.0
61.837	3.0
61.852	8.0
61.867	2.0
61.882	4.0
61.897	6.0
61.912	5.0
61.927	5.0
61.943	7.0
61.958	6.0
61.973	2.0
61.988	2.0
62.003	4.0
62.018	6.0
62.033	0.0
62.048	4.0
62.063	4.0
62.078	3.0
62.093	4.0
62.108	4.0
62.123	3.0
62.138	3.0
62.153	3.0
62.169	5.0
62.184	1.0
62.199	4.0
62.214	2.0
62.229	3.0
62.244	2.0
62.259	8.0
62.274	1.0
62.289	7.0
62.304	4.0
62.319	4.0
62.335	3.0
62.35	4.0
62.365	9.0
62.38	5.0
62.395	6.0
62.41	3.0
62.425	9.0
62.44	7.0
62.455	6.0
62.47	5.0
62.485	7.0
62.501	8.0
62.516	6.0
62.531	6.0
62.546	7.0
62.561	3.0
62.576	2.0
62.591	6.0
62.606	8.0
62.621	6.0
62.636	4.0
62.652	6.0
62.667	2.0
62.682	4.0
62.697	2.0
62.712	4.0
62.727	2.0
62.742	0.0
62.757	7.0
62.772	5.0
62.787	2.0
62.803	1.0
62.818	1.0
62.833	6.0
62.848	5.0
62.863	3.0
62.878	1.0
62.893	4.0
62.908	8.0
62.923	5.0
62.939	3.0
62.954	2.0
62.969	6.0
62.984	4.0
62.999	3.0
63.014	4.0
63.029	2.0
63.044	5.0
63.059	4.0
63.074	5.0
63.09	4.0
63.105	6.0
63.12	5.0
63.135	2.0
63.15	4.0
63.165	6.0
63.18	1.0
63.195	4.0
63.21	3.0
63.226	2.0
63.241	7.0
63.256	4.0
63.271	4.0
63.286	6.0
63.301	8.0
63.316	4.0
63.331	6.0
63.346	4.0
63.362	8.0
63.377	3.0
63.392	5.0
63.407	10.0
63.422	5.0
63.437	9.0
63.452	7.0
63.467	4.0
63.482	4.0
63.497	5.0
63.513	5.0
63.528	5.0
63.543	1.0
63.558	2.0
63.573	3.0
63.588	2.0
63.603	6.0
63.618	3.0
63.633	4.0
63.648	5.0
63.664	2.0
63.679	4.0
63.694	4.0
63.709	4.0
63.724	9.0
63.739	5.0
63.754	2.0
63.769	2.0
63.784	5.0
63.799	2.0
63.814	8.0
63.83	8.0
63.845	4.0
63.86	4.0
63.875	4.0
63.89	1.0
63.905	3.0
63.92	5.0
63.935	4.0
63.95	5.0
63.965	4.0
63.98	4.0
63.996	1.0
64.011	2.0
64.026	2.0
64.041	3.0
64.056	5.0
64.071	1.0
64.086	2.0
64.101	7.0
64.116	5.0
64.131	2.0
64.146	4.0
64.161	2.0
64.176	6.0
64.191	1.0
64.207	5.0
64.222	5.0
64.237	3.0
64.252	9.0
64.267	2.0
64.282	2.0
64.297	6.0
64.312	6.0
64.327	2.0
64.342	5.0
64.357	4.0
64.372	5.0
64.387	5.0
64.402	3.0
64.417	3.0
64.433	1.0
64.448	3.0
64.463	6.0
64.478	6.0
64.493	1.0
64.508	6.0
64.523	1.0
64.538	7.0
64.553	3.0
64.568	9.0
64.583	3.0
64.598	3.0
64.613	3.0
64.628	7.0
64.643	3.0
64.658	11.0
64.673	7.0
64.688	4.0
64.703	6.0
64.718	5.0
64.734	2.0
64.749	2.0
64.764	3.0
64.779	5.0
64.794	1.0
64.809	3.0
64.824	2.0
64.839	3.0
64.854	4.0
64.869	4.0
64.884	2.0
64.899	4.0
64.914	2.0
64.929	2.0
64.944	3.0
64.959	6.0
64.974	3.0
64.989	5.0
65.004	3.0
65.019	2.0
65.034	6.0
65.049	4.0
65.064	3.0
65.079	3.0
65.094	5.0
65.109	4.0
65.125	4.0
65.14	3.0
65.155	6.0
65.17	4.0
65.185	8.0
65.2	3.0
65.215	4.0
65.23	4.0
65.245	4.0
65.26	5.0
65.275	6.0
65.29	1.0
65.305	2.0
65.32	4.0
65.335	7.0
65.35	8.0
65.365	1.0
65.38	8.0
65.395	5.0
65.41	5.0
65.425	5.0
65.44	4.0
65.455	6.0
65.47	4.0
65.485	6.0
65.5	5.0
65.515	4.0
65.53	5.0
65.545	2.0
65.56	4.0
65.575	5.0
65.59	2.0
65.605	2.0
65.62	4.0
65.635	4.0
65.65	1.0
65.666	2.0
65.681	5.0
65.696	4.0
65.711	5.0
65.726	8.0
65.741	5.0
65.756	2.0
65.771	2.0
65.786	4.0
65.801	3.0
65.816	3.0
65.831	5.0
65.846	1.0
65.861	4.0
65.876	4.0
65.891	5.0
65.906	1.0
65.921	1.0
65.936	1.0
65.951	5.0
65.966	1.0
65.981	5.0
65.996	2.0
66.011	3.0
66.026	2.0
66.041	3.0
66.056	4.0
66.071	4.0
66.086	3.0
66.101	5.0
66.116	5.0
66.131	6.0
66.146	8.0
66.161	3.0
66.176	8.0
66.191	4.0
66.206	7.0
66.221	11.0
66.236	5.0
66.251	1.0
66.266	2.0
66.281	4.0
66.296	4.0
66.311	7.0
66.327	3.0
66.342	4.0
66.357	2.0
66.372	3.0
66.387	4.0
66.402	5.0
66.417	6.0
66.432	6.0
66.447	7.0
66.462	2.0
66.477	5.0
66.492	4.0
66.507	3.0
66.522	7.0
66.537	3.0
66.552	8.0
66.567	2.0
66.582	6.0
66.597	4.0
66.612	7.0
66.627	4.0
66.642	7.0
66.657	6.0
66.672	6.0
66.687	4.0
66.702	8.0
66.717	5.0
66.732	3.0
66.747	5.0
66.762	4.0
66.777	3.0
66.792	4.0
66.807	4.0
66.822	2.0
66.837	3.0
66.853	3.0
66.868	2.0
66.883	4.0
66.898	3.0
66.913	4.0
66.928	5.0
66.943	1.0
66.958	2.0
66.973	1.0
66.988	6.0
67.003	5.0
67.018	3.0
67.033	1.0
67.048	2.0
67.063	8.0
67.078	8.0
67.093	3.0
67.108	5.0
67.123	6.0
67.138	3.0
67.153	5.0
67.168	5.0
67.183	4.0
67.198	7.0
67.214	9.0
67.229	5.0
67.244	6.0
67.259	4.0
67.274	4.0
67.289	1.0
67.304	2.0
67.319	4.0
67.334	1.0
67.349	3.0
67.364	2.0
67.379	1.0
67.394	3.0
67.409	6.0
67.424	2.0
67.439	1.0
67.454	2.0
67.469	2.0
67.484	5.0
67.5	3.0
67.515	4.0
67.53	5.0
67.545	5.0
67.56	4.0
67.575	3.0
67.59	2.0
67.605	4.0
67.62	3.0
67.635	5.0
67.65	2.0
67.665	4.0
67.68	5.0
67.695	5.0
67.71	4.0
67.726	5.0
67.741	4.0
67.756	3.0
67.771	6.0
67.786	3.0
67.801	2.0
67.816	0.0
67.831	2.0
67.846	5.0
67.861	5.0
67.876	1.0
67.891	4.0
67.906	2.0
67.922	5.0
67.937	2.0
67.952	6.0
67.967	6.0
67.982	5.0
67.997	2.0
68.012	4.0
68.027	5.0
68.042	3.0
68.057	2.0
68.072	2.0
68.087	4.0
68.103	2.0
68.118	1.0
68.133	3.0
68.148	4.0
68.163	5.0
68.178	5.0
68.193	2.0
68.208	5.0
68.223	2.0
68.238	4.0
68.254	7.0
68.269	3.0
68.284	4.0
68.299	5.0
68.314	3.0
68.329	4.0
68.344	1.0
68.359	4.0
68.374	2.0
68.389	2.0
68.405	4.0
68.42	1.0
68.435	0.0
68.45	8.0
68.465	4.0
68.48	5.0
68.495	4.0
68.51	7.0
68.525	2.0
68.54	1.0
68.556	6.0
68.571	7.0
68.586	7.0
68.601	4.0
68.616	2.0
68.631	3.0
68.646	4.0
68.661	3.0
68.676	2.0
68.691	5.0
68.707	4.0
68.722	6.0
68.737	2.0
68.752	3.0
68.767	5.0
68.782	5.0
68.797	2.0
68.812	2.0
68.827	6.0
68.842	6.0
68.857	6.0
68.873	3.0
68.888	2.0
68.903	3.0
68.918	2.0
68.933	3.0
68.948	1.0
68.963	5.0
68.978	5.0
68.993	5.0
69.008	2.0
69.023	4.0
69.038	2.0
69.054	2.0
69.069	2.0
69.084	2.0
69.099	1.0
69.114	4.0
69.129	3.0
69.144	1.0
69.159	3.0
69.174	6.0
69.189	5.0
69.204	3.0
69.219	1.0
69.234	5.0
69.249	2.0
69.264	1.0
69.279	2.0
69.295	4.0
69.31	3.0
69.325	3.0
69.34	3.0
69.355	6.0
69.37	5.0
69.385	7.0
69.4	4.0
69.415	3.0
69.43	4.0
69.445	4.0
69.46	6.0
69.475	7.0
69.49	4.0
69.505	2.0
69.52	2.0
69.535	3.0
69.55	3.0
69.565	2.0
69.58	2.0
69.595	2.0
69.61	3.0
69.625	2.0
69.64	5.0
69.655	1.0
69.67	5.0
69.685	3.0
69.7	5.0
69.715	4.0
69.73	2.0
69.745	10.0
69.76	12.0
69.775	3.0
69.79	4.0
69.805	3.0
69.82	3.0
69.835	4.0
69.85	4.0
69.865	8.0
69.88	8.0
69.895	4.0
69.909	3.0
69.924	3.0
69.939	3.0
69.954	3.0
69.969	5.0
69.984	6.0
69.999	2.0
70.014	5.0
70.029	5.0
70.044	3.0
70.059	2.0
70.074	4.0
70.088	6.0
70.103	4.0
70.118	6.0
70.133	6.0
70.148	7.0
70.163	3.0
70.178	4.0
70.193	1.0
70.208	5.0
70.222	5.0
70.237	5.0
70.252	3.0
70.267	6.0
70.282	5.0
70.297	7.0
70.312	7.0
70.327	2.0
70.341	3.0
70.356	2.0
70.371	2.0
70.386	3.0
70.401	2.0
70.416	3.0
70.43	2.0
70.445	4.0
70.46	2.0
70.475	2.0
70.49	5.0
70.505	1.0
70.519	5.0
70.534	3.0
70.549	2.0
70.564	5.0
70.579	4.0
70.594	4.0
70.608	4.0
70.623	4.0
70.638	4.0
70.653	1.0
70.668	6.0
70.683	4.0
70.697	4.0
70.712	4.0
70.727	1.0
70.742	4.0
70.757	2.0
70.771	4.0
70.786	6.0
70.801	4.0
70.816	7.0
70.831	1.0
70.845	7.0
70.86	2.0
70.875	9.0
70.89	4.0
70.905	4.0
70.92	5.0
70.934	5.0
70.949	3.0
70.964	3.0
70.979	1.0
70.994	5.0
71.008	3.0
71.023	5.0
71.038	6.0
71.053	5.0
71.068	2.0
71.082	4.0
71.097	2.0
71.112	3.0
71.127	5.0
71.142	7.0
71.156	6.0
71.171	5.0
71.186	3.0
71.201	4.0
71.216	4.0
71.231	2.0
71.245	5.0
71.26	4.0
71.275	3.0
71.29	2.0
71.305	0.0
71.319	4.0
71.334	2.0
71.349	6.0
71.364	4.0
71.379	1.0
71.394	6.0
71.408	5.0
71.423	5.0
71.438	1.0
71.453	3.0
71.468	6.0
71.483	5.0
71.497	5.0
71.512	5.0
71.527	5.0
71.542	1.0
71.557	4.0
71.572	1.0
71.586	8.0
71.601	3.0
71.616	3.0
71.631	4.0
71.646	2.0
71.661	6.0
71.676	1.0
71.69	4.0
71.705	3.0
71.72	2.0
71.735	4.0
71.75	2.0
71.765	5.0
71.78	2.0
71.795	2.0
71.81	2.0
71.824	0.0
71.839	5.0
71.854	3.0
71.869	4.0
71.884	0.0
71.899	5.0
71.914	2.0
71.929	0.0
71.944	1.0
71.959	3.0
71.974	2.0
71.988	2.0
72.003	3.0
72.018	2.0
72.033	2.0
72.048	3.0
72.063	1.0
72.078	3.0
72.093	2.0
72.108	3.0
72.123	5.0
72.138	4.0
72.153	1.0
72.168	5.0
72.183	2.0
72.198	3.0
72.213	10.0
72.228	1.0
72.243	3.0
72.258	5.0
72.273	1.0
72.288	5.0
72.303	2.0
72.318	2.0
72.333	4.0
72.348	4.0
72.363	3.0
72.378	1.0
72.393	4.0
72.408	5.0
72.423	5.0
72.438	1.0
72.453	7.0
72.468	4.0
72.483	1.0
72.498	4.0
72.513	4.0
72.528	2.0
72.543	1.0
72.558	2.0
72.573	6.0
72.588	4.0
72.603	3.0
72.618	5.0
72.633	2.0
72.649	2.0
72.664	2.0
72.679	3.0
72.694	2.0
72.709	4.0
72.724	5.0
72.739	2.0
72.754	7.0
72.769	2.0
72.784	3.0
72.799	3.0
72.814	0.0
72.829	4.0
72.845	3.0
72.86	1.0
72.875	2.0
72.89	3.0
72.905	2.0
72.92	2.0
72.935	4.0
72.95	1.0
72.965	4.0
72.98	2.0
72.996	1.0
73.011	1.0
73.026	1.0
73.041	3.0
73.056	1.0
73.071	0.0
73.086	4.0
73.101	9.0
73.117	4.0
73.132	4.0
73.147	2.0
73.162	4.0
73.177	1.0
73.192	4.0
73.207	2.0
73.222	7.0
73.238	2.0
73.253	4.0
73.268	5.0
73.283	2.0
73.298	3.0
73.313	2.0
73.328	4.0
73.343	5.0
73.359	0.0
73.374	1.0
73.389	4.0
73.404	3.0
73.419	5.0
73.434	2.0
73.449	4.0
73.465	3.0
73.48	6.0
73.495	2.0
73.51	2.0
73.525	3.0
73.54	5.0
73.556	1.0
73.571	1.0
73.586	3.0
73.601	4.0
73.616	3.0
73.631	5.0
73.646	4.0
73.662	0.0
73.677	2.0
73.692	2.0
73.707	2.0
73.722	5.0
73.737	8.0
73.752	4.0
73.768	2.0
73.783	5.0
73.798	3.0
73.813	5.0
73.828	4.0
73.843	5.0
73.859	5.0
73.874	6.0
73.889	1.0
73.904	3.0
73.919	2.0
73.934	3.0
73.949	3.0
73.965	2.0
73.98	0.0
73.995	4.0
74.01	4.0
74.025	1.0
74.04	5.0
74.056	4.0
74.071	1.0
74.086	3.0
74.101	5.0
74.116	6.0
74.131	4.0
74.146	4.0
74.162	4.0
74.177	9.0
74.192	4.0
74.207	6.0
74.222	7.0
74.237	6.0
74.252	6.0
74.268	4.0
74.283	4.0
74.298	5.0
74.313	4.0
74.328	4.0
74.343	2.0
74.358	5.0
74.374	2.0
74.389	3.0
74.404	2.0
74.419	4.0
74.434	2.0
74.449	0.0
74.464	5.0
74.48	2.0
74.495	3.0
74.51	2.0
74.525	3.0
74.54	3.0
74.555	5.0
74.57	2.0
74.586	2.0
74.601	5.0
74.616	4.0
74.631	3.0
74.646	4.0
74.661	5.0
74.676	3.0
74.691	7.0
74.707	2.0
74.722	5.0
74.737	7.0
74.752	3.0
74.767	7.0
74.782	1.0
74.797	2.0
74.813	2.0
74.828	6.0
74.843	3.0
74.858	2.0
74.873	5.0
74.888	1.0
74.903	6.0
74.918	2.0
74.934	4.0
74.949	6.0
74.964	5.0
74.979	2.0
74.994	6.0
75.009	4.0
75.024	6.0
75.04	7.0
75.055	5.0
75.07	2.0
75.085	5.0
75.1	3.0
75.115	6.0
75.13	5.0
75.145	5.0
75.161	4.0
75.176	3.0
75.191	3.0
75.206	4.0
75.221	6.0
75.236	1.0
75.251	3.0
75.266	6.0
75.282	5.0
75.297	4.0
75.312	3.0
75.327	6.0
75.342	3.0
75.357	7.0
75.372	3.0
75.387	1.0
75.403	5.0
75.418	1.0
75.433	2.0
75.448	4.0
75.463	5.0
75.478	1.0
75.493	1.0
75.509	2.0
75.524	8.0
75.539	7.0
75.554	1.0
75.569	2.0
75.584	4.0
75.599	7.0
75.614	2.0
75.63	5.0
75.645	1.0
75.66	5.0
75.675	2.0
75.69	5.0
75.705	5.0
75.72	6.0
75.735	4.0
75.751	4.0
75.766	3.0
75.781	3.0
75.796	2.0
75.811	5.0
75.826	4.0
75.841	1.0
75.856	3.0
75.872	4.0
75.887	5.0
75.902	5.0
75.917	1.0
75.932	6.0
75.947	1.0
75.962	7.0
75.977	3.0
75.993	1.0
76.008	2.0
76.023	3.0
76.038	4.0
76.053	2.0
76.068	0.0
76.083	4.0
76.098	5.0
76.114	2.0
76.129	2.0
76.144	3.0
76.159	2.0
76.174	3.0
76.189	3.0
76.204	5.0
76.22	5.0
76.235	6.0
76.25	1.0
76.265	3.0
76.28	3.0
76.295	2.0
76.31	0.0
76.325	3.0
76.341	0.0
76.356	5.0
76.371	6.0
76.386	1.0
76.401	4.0
76.416	5.0
76.431	3.0
76.446	3.0
76.462	6.0
76.477	2.0
76.492	5.0
76.507	3.0
76.522	4.0
76.537	2.0
76.552	5.0
76.567	1.0
76.583	2.0
76.598	3.0
76.613	2.0
76.628	2.0
76.643	1.0
76.658	4.0
76.673	2.0
76.688	1.0
76.704	3.0
76.719	4.0
76.734	4.0
76.749	7.0
76.764	2.0
76.779	4.0
76.794	4.0
76.809	9.0
76.824	1.0
76.84	5.0
76.855	1.0
76.87	8.0
76.885	1.0
76.9	2.0
76.915	2.0
76.93	4.0
76.945	2.0
76.96	2.0
76.976	2.0
76.991	1.0
77.006	0.0
77.021	2.0
77.036	4.0
77.051	4.0
77.066	5.0
77.081	4.0
77.096	7.0
77.112	3.0
77.127	2.0
77.142	3.0
77.157	2.0
77.172	5.0
77.187	2.0
77.202	4.0
77.217	3.0
77.232	3.0
77.247	5.0
77.263	2.0
77.278	5.0
77.293	3.0
77.308	2.0
77.323	4.0
77.338	4.0
77.353	6.0
77.368	8.0
77.383	8.0
77.398	2.0
77.413	3.0
77.428	5.0
77.444	6.0
77.459	4.0
77.474	0.0
77.489	1.0
77.504	1.0
77.519	3.0
77.534	2.0
77.549	2.0
77.564	4.0
77.579	2.0
77.594	2.0
77.609	2.0
77.624	3.0
77.64	6.0
77.655	4.0
77.67	8.0
77.685	5.0
77.7	4.0
77.715	4.0
77.73	3.0
77.745	6.0
77.76	3.0
77.775	4.0
77.79	3.0
77.805	2.0
77.82	4.0
77.835	2.0
77.85	6.0
77.865	2.0
77.88	3.0
77.895	5.0
77.91	3.0
77.926	5.0
77.941	4.0
77.956	3.0
77.971	1.0
77.986	4.0
78.001	5.0
78.016	3.0
78.031	4.0
78.046	5.0
78.061	6.0
78.076	3.0
78.091	1.0
78.106	5.0
78.121	3.0
78.136	1.0
78.151	4.0
78.166	4.0
78.181	5.0
78.196	4.0
78.211	5.0
78.226	2.0
78.241	3.0
78.256	4.0
78.271	3.0
78.286	4.0
78.301	3.0
78.316	1.0
78.331	4.0
78.346	5.0
78.361	1.0
78.376	3.0
78.391	3.0
78.406	1.0
78.421	1.0
78.436	3.0
78.451	2.0
78.466	6.0
78.481	3.0
78.496	4.0
78.511	0.0
78.526	3.0
78.541	3.0
78.556	2.0
78.571	1.0
78.586	2.0
78.601	1.0
78.616	2.0
78.631	0.0
78.646	1.0
78.661	2.0
78.676	3.0
78.691	2.0
78.706	4.0
78.721	4.0
78.736	3.0
78.751	3.0
78.766	0.0
78.781	3.0
78.796	2.0
78.811	0.0
78.826	3.0
78.841	2.0
78.856	3.0
78.871	3.0
78.885	3.0
78.9	5.0
78.915	3.0
78.93	0.0
78.945	3.0
78.96	2.0
78.975	0.0
78.99	3.0
79.005	3.0
79.02	5.0
79.035	6.0
79.05	2.0
79.065	2.0
79.08	0.0
79.095	5.0
79.11	2.0
79.125	6.0
79.14	5.0
79.155	0.0
79.17	3.0
79.185	2.0
79.2	4.0
79.215	2.0
79.23	3.0
79.245	4.0
79.26	2.0
79.275	3.0
79.29	1.0
79.304	5.0
79.319	4.0
79.334	2.0
79.349	2.0
79.364	1.0
79.379	5.0
79.394	1.0
79.409	2.0
79.424	2.0
79.439	4.0
79.454	1.0
79.469	3.0
79.484	5.0
79.499	4.0
79.514	1.0
79.529	4.0
79.544	4.0
79.559	3.0
79.574	4.0
79.589	5.0
79.604	7.0
79.619	1.0
79.634	5.0
79.649	0.0
79.664	1.0
79.679	2.0
79.693	2.0
79.708	1.0
79.723	3.0
79.738	1.0
79.753	2.0
79.768	2.0
79.783	2.0
79.798	3.0
79.813	1.0
79.828	3.0
79.843	5.0
79.858	4.0
79.873	2.0
79.888	4.0
79.903	4.0
79.918	5.0
79.933	1.0
79.948	1.0
79.963	8.0
79.978	2.0
79.993	2.0
80.008	2.0
80.023	4.0
80.038	4.0
80.053	3.0
80.068	4.0
80.083	2.0
80.098	2.0
80.113	4.0
80.128	6.0
80.143	6.0
80.158	3.0
80.173	3.0
80.188	3.0
80.202	2.0
80.217	4.0
80.232	1.0
80.247	3.0
80.262	2.0
80.277	5.0
80.292	5.0
80.307	1.0
80.322	3.0
80.337	3.0
80.352	3.0
80.367	2.0
80.382	1.0
80.397	4.0
80.412	2.0
80.427	3.0
80.442	1.0
80.457	4.0
80.472	4.0
80.487	6.0
80.502	3.0
80.517	5.0
80.532	2.0
80.547	4.0
80.562	4.0
80.577	3.0
80.592	3.0
80.607	5.0
80.622	3.0
80.637	4.0
80.652	3.0
80.667	5.0
80.682	4.0
80.697	5.0
80.712	2.0
80.727	2.0
80.742	6.0
80.757	6.0
80.772	2.0
80.787	6.0
80.802	5.0
80.817	2.0
80.832	7.0
80.847	1.0
80.862	3.0
80.877	2.0
80.892	3.0
80.907	2.0
80.922	5.0
80.937	3.0
80.952	5.0
80.967	3.0
80.982	3.0
80.997	3.0
81.012	2.0
81.027	2.0
81.042	7.0
81.057	1.0
81.072	0.0
81.087	3.0
81.101	7.0
81.116	2.0
81.131	3.0
81.146	2.0
81.161	7.0
81.176	5.0
81.191	1.0
81.206	3.0
81.221	1.0
81.236	2.0
81.251	0.0
81.266	3.0
81.281	3.0
81.296	7.0
81.311	1.0
81.326	5.0
81.341	1.0
81.356	5.0
81.371	4.0
81.386	2.0
81.401	3.0
81.416	2.0
81.431	3.0
81.446	3.0
81.461	2.0
81.476	3.0
81.491	3.0
81.506	1.0
81.521	5.0
81.536	2.0
81.55	3.0
81.565	4.0
81.58	2.0
81.595	4.0
81.61	1.0
81.625	1.0
81.64	2.0
81.655	2.0
81.67	4.0
81.685	2.0
81.7	3.0
81.715	4.0
81.73	2.0
81.745	2.0
81.76	4.0
81.775	5.0
81.79	4.0
81.805	2.0
81.819	3.0
81.834	3.0
81.849	3.0
81.864	5.0
81.879	2.0
81.894	1.0
81.909	4.0
81.924	1.0
81.939	9.0
81.954	4.0
81.969	5.0
81.984	3.0
81.999	1.0
82.013	5.0
82.028	3.0
82.043	0.0
82.058	6.0
82.073	3.0
82.088	4.0
82.103	2.0
82.118	4.0
82.133	6.0
82.148	5.0
82.163	5.0
82.177	1.0
82.192	5.0
82.207	0.0
82.222	3.0
82.237	1.0
82.252	5.0
82.267	2.0
82.282	2.0
82.297	4.0
82.312	2.0
82.326	3.0
82.341	5.0
82.356	1.0
82.371	5.0
82.386	2.0
82.401	3.0
82.416	3.0
82.431	3.0
82.445	4.0
82.46	6.0
82.475	1.0
82.49	2.0
82.505	4.0
82.52	6.0
82.535	1.0
82.55	4.0
82.565	2.0
82.579	1.0
82.594	2.0
82.609	3.0
82.624	2.0
82.639	2.0
82.654	2.0
82.669	3.0
82.684	1.0
82.698	4.0
82.713	4.0
82.728	3.0
82.743	5.0
82.758	1.0
82.773	3.0
82.788	2.0
82.803	1.0
82.817	5.0
82.832	2.0
82.847	3.0
82.862	4.0
82.877	0.0
82.892	3.0
82.907	2.0
82.922	4.0
82.937	3.0
82.951	1.0
82.966	1.0
82.981	2.0
82.996	1.0
83.011	3.0
83.026	2.0
83.041	2.0
83.056	2.0
83.07	3.0
83.085	2.0
83.1	2.0
83.115	2.0
83.13	2.0
83.145	6.0
83.16	2.0
83.175	2.0
83.19	2.0
83.204	0.0
83.219	2.0
83.234	3.0
83.249	5.0
83.264	5.0
83.279	3.0
83.294	4.0
83.309	3.0
83.324	0.0
83.339	4.0
83.353	4.0
83.368	4.0
83.383	3.0
83.398	3.0
83.413	6.0
83.428	4.0
83.443	2.0
83.458	5.0
83.473	4.0
83.488	3.0
83.503	4.0
83.517	1.0
83.532	6.0
83.547	0.0
83.562	5.0
83.577	4.0
83.592	4.0
83.607	2.0
83.622	0.0
83.637	2.0
83.652	0.0
83.667	1.0
83.682	2.0
83.697	2.0
83.712	5.0
83.727	6.0
83.741	1.0
83.756	1.0
83.771	1.0
83.786	1.0
83.801	3.0
83.816	1.0
83.831	7.0
83.846	3.0
83.861	0.0
83.876	3.0
83.891	1.0
83.906	2.0
83.921	2.0
83.936	2.0
83.951	2.0
83.966	0.0
83.981	1.0
83.996	1.0
84.011	4.0
84.026	3.0
84.041	7.0
84.056	3.0
84.071	2.0
84.086	1.0
84.101	2.0
84.116	2.0
84.131	5.0
84.146	2.0
84.161	4.0
84.176	2.0
84.191	2.0
84.206	3.0
84.221	4.0
84.236	1.0
84.251	6.0
84.266	3.0
84.281	2.0
84.296	1.0
84.311	1.0
84.326	3.0
84.341	5.0
84.356	2.0
84.371	3.0
84.386	3.0
84.401	3.0
84.416	3.0
84.431	6.0
84.446	5.0
84.461	5.0
84.476	2.0
84.492	5.0
84.507	2.0
84.522	1.0
84.537	4.0
84.552	3.0
84.567	3.0
84.582	6.0
84.597	3.0
84.612	2.0
84.627	1.0
84.642	6.0
84.657	3.0
84.672	4.0
84.687	5.0
84.702	5.0
84.717	1.0
84.733	4.0
84.748	2.0
84.763	2.0
84.778	1.0
84.793	2.0
84.808	2.0
84.823	1.0
84.838	3.0
84.853	2.0
84.868	4.0
84.883	2.0
84.898	1.0
84.913	3.0
84.929	5.0
84.944	3.0
84.959	3.0
84.974	2.0
84.989	6.0
85.004	1.0
85.019	2.0
85.034	0.0
85.049	7.0
85.064	5.0
85.079	1.0
85.094	3.0
85.11	2.0
85.125	2.0
85.14	2.0
85.155	2.0
85.17	6.0
85.185	1.0
85.2	1.0
85.215	3.0
85.23	5.0
85.245	3.0
85.26	2.0
85.276	4.0
85.291	5.0
85.306	7.0
85.321	5.0
85.336	0.0
85.351	3.0
85.366	3.0
85.381	2.0
85.396	2.0
85.411	1.0
85.426	1.0
85.441	2.0
85.457	4.0
85.472	2.0
85.487	5.0
85.502	2.0
85.517	3.0
85.532	3.0
85.547	3.0
85.562	3.0
85.577	4.0
85.592	5.0
85.607	1.0
85.622	1.0
85.637	3.0
85.653	2.0
85.668	2.0
85.683	2.0
85.698	2.0
85.713	3.0
85.728	0.0
85.743	4.0
85.758	1.0
85.773	4.0
85.788	3.0
85.803	5.0
85.818	3.0
85.833	1.0
85.848	1.0
85.863	6.0
85.879	3.0
85.894	1.0
85.909	3.0
85.924	3.0
85.939	4.0
85.954	2.0
85.969	1.0
85.984	1.0
85.999	5.0
86.014	2.0
86.029	5.0
86.044	6.0
86.059	1.0
86.074	2.0
86.089	5.0
86.104	4.0
86.119	2.0
86.134	0.0
86.149	6.0
86.164	4.0
86.179	4.0
86.194	2.0
86.209	8.0
86.224	6.0
86.239	3.0
86.254	2.0
86.269	8.0
86.284	1.0
86.299	4.0
86.314	3.0
86.33	5.0
86.345	2.0
86.36	5.0
86.375	3.0
86.39	6.0
86.405	1.0
86.42	3.0
86.435	5.0
86.45	1.0
86.465	3.0
86.48	2.0
86.495	3.0
86.51	3.0
86.525	3.0
86.54	3.0
86.555	0.0
86.57	2.0
86.585	2.0
86.6	3.0
86.615	2.0
86.63	3.0
86.645	4.0
86.659	2.0
86.674	2.0
86.689	4.0
86.704	1.0
86.719	4.0
86.734	2.0
86.749	5.0
86.764	3.0
86.779	1.0
86.794	5.0
86.809	3.0
86.824	2.0
86.839	2.0
86.854	5.0
86.869	6.0
86.884	1.0
86.899	3.0
86.914	5.0
86.929	3.0
86.944	4.0
86.959	3.0
86.974	2.0
86.989	6.0
87.004	5.0
87.019	1.0
87.034	2.0
87.049	5.0
87.064	3.0
87.079	2.0
87.094	2.0
87.109	3.0
87.124	4.0
87.139	1.0
87.154	4.0
87.169	2.0
87.184	3.0
87.199	2.0
87.214	2.0
87.229	3.0
87.244	4.0
87.259	1.0
87.274	2.0
87.289	3.0
87.304	2.0
87.319	6.0
87.334	2.0
87.349	5.0
87.364	2.0
87.379	4.0
87.394	1.0
87.409	3.0
87.424	1.0
87.438	1.0
87.453	9.0
87.468	4.0
87.483	6.0
87.498	2.0
87.513	0.0
87.528	3.0
87.543	5.0
87.558	0.0
87.573	1.0
87.588	2.0
87.603	1.0
87.618	2.0
87.633	5.0
87.648	3.0
87.663	2.0
87.678	1.0
87.693	3.0
87.708	5.0
87.723	1.0
87.738	6.0
87.753	4.0
87.768	4.0
87.783	5.0
87.798	4.0
87.813	4.0
87.828	5.0
87.843	1.0
87.858	1.0
87.873	6.0
87.888	5.0
87.903	3.0
87.918	3.0
87.933	0.0
87.948	1.0
87.963	3.0
87.978	2.0
87.993	4.0
88.008	2.0
88.023	1.0
88.038	5.0
88.053	2.0
88.068	1.0
88.083	3.0
88.098	3.0
88.113	5.0
88.128	1.0
88.143	4.0
88.158	3.0
88.174	7.0
88.189	3.0
88.204	2.0
88.219	3.0
88.234	4.0
88.249	2.0
88.264	5.0
88.279	7.0
88.294	5.0
88.309	2.0
88.324	3.0
88.339	4.0
88.354	2.0
88.369	2.0
88.384	5.0
88.399	10.0
88.414	7.0
88.429	4.0
88.444	2.0
88.459	6.0
88.474	3.0
88.489	3.0
88.504	1.0
88.519	5.0
88.534	6.0
88.549	4.0
88.564	3.0
88.58	4.0
88.595	3.0
88.61	2.0
88.625	2.0
88.64	4.0
88.655	3.0
88.67	3.0
88.685	5.0
88.7	5.0
88.715	2.0
88.73	4.0
88.745	2.0
88.76	1.0
88.775	4.0
88.79	2.0
88.805	3.0
88.82	5.0
88.835	4.0
88.85	5.0
88.865	6.0
88.88	2.0
88.895	3.0
88.911	3.0
88.926	2.0
88.941	6.0
88.956	3.0
88.971	5.0
88.986	7.0
89.001	4.0
89.016	3.0
89.031	4.0
89.046	1.0
89.061	1.0
89.076	5.0
89.091	2.0
89.106	2.0
89.121	1.0
89.136	1.0
89.151	2.0
89.166	2.0
89.181	4.0
89.196	2.0
89.211	2.0
89.227	2.0
89.242	0.0
89.257	2.0
89.272	5.0
89.287	4.0
89.302	2.0
89.317	5.0
89.332	5.0
89.347	4.0
89.362	1.0
89.377	2.0
89.392	2.0
89.407	4.0
89.422	1.0
89.437	4.0
89.452	3.0
89.467	2.0
89.482	1.0
89.497	3.0
89.512	3.0
89.527	1.0
89.542	3.0
89.557	3.0
89.572	3.0
89.587	4.0
89.602	5.0
89.617	2.0
89.632	2.0
89.647	1.0
89.662	1.0
89.677	0.0
89.693	1.0
89.708	1.0
89.723	2.0
89.738	4.0
89.753	4.0
89.768	3.0
89.783	4.0
89.798	8.0
89.813	4.0
89.828	1.0
89.843	2.0
89.858	3.0
89.873	0.0
89.888	5.0
89.903	4.0
89.918	1.0
89.933	2.0
89.948	5.0
89.963	4.0
89.978	2.0
89.993	1.0
90.008	2.0
90.023	6.0
90.038	2.0
90.053	3.0
90.068	2.0
90.083	2.0
90.097	3.0
90.112	2.0
90.127	1.0
90.142	3.0
90.157	6.0
90.172	10.0
90.187	6.0
90.202	4.0
90.217	2.0
90.232	2.0
90.247	6.0
90.262	2.0
90.277	4.0
90.292	6.0
90.307	4.0
90.322	2.0
90.337	8.0
90.352	4.0
90.367	3.0
90.382	3.0
90.397	2.0
90.412	1.0
90.427	5.0
90.442	4.0
90.457	2.0
90.472	3.0
90.487	2.0
90.501	1.0
90.516	3.0
90.531	4.0
90.546	0.0
90.561	2.0
90.576	2.0
90.591	1.0
90.606	3.0
90.621	2.0
90.636	2.0
90.651	5.0
90.666	6.0
90.681	2.0
90.696	1.0
90.711	2.0
90.726	0.0
90.741	3.0
90.755	0.0
90.77	2.0
90.785	2.0
90.8	2.0
90.815	4.0
90.83	3.0
90.845	3.0
90.86	3.0
90.875	0.0
90.89	3.0
90.905	4.0
90.92	3.0
90.935	5.0
90.95	4.0
90.965	0.0
90.979	2.0
90.994	5.0
91.009	3.0
91.024	2.0
91.039	1.0
91.054	6.0
91.069	5.0
91.084	8.0
91.099	3.0
91.114	2.0
91.129	4.0
91.144	2.0
91.159	5.0
91.174	5.0
91.188	2.0
91.203	4.0
91.218	0.0
91.233	3.0
91.248	3.0
91.263	3.0
91.278	2.0
91.293	4.0
91.308	2.0
91.323	3.0
91.338	1.0
91.353	2.0
91.368	5.0
91.383	1.0
91.398	4.0
91.412	3.0
91.427	3.0
91.442	4.0
91.457	3.0
91.472	8.0
91.487	1.0
91.502	2.0
91.517	2.0
91.532	2.0
91.547	3.0
91.562	2.0
91.577	4.0
91.592	5.0
91.607	2.0
91.622	2.0
91.637	0.0
91.652	5.0
91.666	0.0
91.681	2.0
91.696	2.0
91.711	3.0
91.726	2.0
91.741	4.0
91.756	4.0
91.771	2.0
91.786	8.0
91.801	4.0
91.816	3.0
91.831	1.0
91.846	1.0
91.861	3.0
91.876	2.0
91.891	2.0
91.906	3.0
91.921	2.0
91.936	1.0
91.951	2.0
91.966	3.0
91.981	4.0
91.995	4.0
92.01	4.0
92.025	1.0
92.04	2.0
92.055	4.0
92.07	2.0
92.085	1.0
92.1	3.0
92.115	4.0
92.13	2.0
92.145	5.0
92.16	4.0
92.175	3.0
92.19	1.0
92.205	3.0
92.22	3.0
92.235	3.0
92.25	1.0
92.265	4.0
92.28	1.0
92.295	1.0
92.31	1.0
92.325	2.0
92.34	2.0
92.355	5.0
92.37	3.0
92.385	2.0
92.4	2.0
92.415	2.0
92.43	4.0
92.445	1.0
92.46	5.0
92.475	1.0
92.49	7.0
92.505	3.0
92.52	3.0
92.535	0.0
92.55	1.0
92.565	3.0
92.58	5.0
92.595	4.0
92.61	1.0
92.625	2.0
92.64	1.0
92.655	0.0
92.67	1.0
92.685	1.0
92.7	1.0
92.715	3.0
92.73	5.0
92.745	3.0
92.76	4.0
92.775	3.0
92.79	8.0
92.805	2.0
92.82	4.0
92.835	1.0
92.85	3.0
92.865	1.0
92.88	3.0
92.895	4.0
92.91	3.0
92.925	0.0
92.94	1.0
92.955	4.0
92.97	2.0
92.985	0.0
93.0	2.0
93.015	0.0
93.03	2.0
93.045	4.0
93.06	1.0
93.075	2.0
93.09	2.0
93.105	7.0
93.12	4.0
93.135	3.0
93.15	4.0
93.165	2.0
93.18	4.0
93.195	3.0
93.21	5.0
93.225	3.0
93.24	4.0
93.255	4.0
93.27	1.0
93.285	1.0
93.3	3.0
93.315	3.0
93.33	0.0
93.345	2.0
93.36	3.0
93.375	0.0
93.39	2.0
93.405	3.0
93.42	3.0
93.435	2.0
93.45	2.0
93.465	1.0
93.48	2.0
93.495	4.0
93.51	5.0
93.525	3.0
93.54	5.0
93.555	3.0
93.57	10.0
93.585	3.0
93.6	6.0
93.615	2.0
93.63	2.0
93.645	5.0
93.66	4.0
93.675	1.0
93.69	3.0
93.705	1.0
93.72	2.0
93.735	3.0
93.75	3.0
93.765	2.0
93.78	0.0
93.795	2.0
93.81	3.0
93.824	2.0
93.839	3.0
93.854	2.0
93.869	5.0
93.884	2.0
93.899	1.0
93.914	5.0
93.929	5.0
93.944	7.0
93.959	3.0
93.974	3.0
93.989	2.0
94.004	0.0
94.019	3.0
94.034	1.0
94.049	7.0
94.064	2.0
94.079	3.0
94.094	4.0
94.108	4.0
94.123	2.0
94.138	6.0
94.153	4.0
94.168	7.0
94.183	4.0
94.198	1.0
94.213	4.0
94.228	5.0
94.243	2.0
94.258	6.0
94.273	5.0
94.288	3.0
94.302	7.0
94.317	10.0
94.332	2.0
94.347	1.0
94.362	2.0
94.377	4.0
94.392	5.0
94.407	6.0
94.422	1.0
94.437	5.0
94.452	7.0
94.466	5.0
94.481	3.0
94.496	9.0
94.511	1.0
94.526	3.0
94.541	4.0
94.556	1.0
94.571	5.0
94.586	4.0
94.601	4.0
94.615	3.0
94.63	5.0
94.645	3.0
94.66	3.0
94.675	2.0
94.69	1.0
94.705	1.0
94.72	4.0
94.735	4.0
94.749	5.0
94.764	2.0
94.779	4.0
94.794	2.0
94.809	1.0
94.824	3.0
94.839	4.0
94.854	5.0
94.868	2.0
94.883	6.0
94.898	3.0
94.913	5.0
94.928	7.0
94.943	2.0
94.958	4.0
94.973	2.0
94.987	4.0
95.002	2.0
95.017	2.0
95.032	3.0
95.047	7.0
95.062	2.0
95.077	6.0
95.092	5.0
95.106	4.0
95.121	4.0
95.136	2.0
95.151	5.0
95.166	4.0
95.181	6.0
95.196	3.0
95.211	5.0
95.226	4.0
95.24	3.0
95.255	6.0
95.27	5.0
95.285	5.0
95.3	6.0
95.315	3.0
95.33	3.0
95.345	1.0
95.359	6.0
95.374	4.0
95.389	3.0
95.404	1.0
95.419	6.0
95.434	4.0
95.449	1.0
95.464	2.0
95.478	2.0
95.493	2.0
95.508	4.0
95.523	1.0
95.538	4.0
95.553	4.0
95.568	2.0
95.583	4.0
95.597	3.0
95.612	3.0
95.627	1.0
95.642	0.0
95.657	4.0
95.672	5.0
95.687	3.0
95.702	4.0
95.717	4.0
95.731	2.0
95.746	1.0
95.761	1.0
95.776	3.0
95.791	2.0
95.806	3.0
95.821	4.0
95.836	4.0
95.851	0.0
95.866	3.0
95.88	5.0
95.895	2.0
95.91	5.0
95.925	4.0
95.94	6.0
95.955	4.0
95.97	2.0
95.985	4.0
96.0	1.0
96.015	3.0
96.029	4.0
96.044	3.0
96.059	2.0
96.074	5.0
96.089	4.0
96.104	6.0
96.119	5.0
96.134	1.0
96.149	6.0
96.164	1.0
96.179	4.0
96.194	5.0
96.208	2.0
96.223	3.0
96.238	2.0
96.253	2.0
96.268	2.0
96.283	7.0
96.298	5.0
96.313	3.0
96.328	1.0
96.343	5.0
96.358	1.0
96.373	1.0
96.388	4.0
96.403	7.0
96.417	1.0
96.432	3.0
96.447	0.0
96.462	0.0
96.477	3.0
96.492	4.0
96.507	1.0
96.522	5.0
96.537	1.0
96.552	3.0
96.567	5.0
96.582	5.0
96.597	2.0
96.612	4.0
96.627	4.0
96.642	1.0
96.656	5.0
96.671	1.0
96.686	3.0
96.701	2.0
96.716	1.0
96.731	4.0
96.746	4.0
96.761	3.0
96.776	3.0
96.791	2.0
96.806	1.0
96.821	1.0
96.836	5.0
96.851	3.0
96.866	6.0
96.881	2.0
96.896	2.0
96.911	5.0
96.926	1.0
96.94	8.0
96.955	7.0
96.97	1.0
96.985	4.0
97.0	7.0
97.015	4.0
97.03	0.0
97.045	6.0
97.06	3.0
97.075	4.0
97.09	3.0
97.105	4.0
97.12	7.0
97.135	0.0
97.15	1.0
97.165	4.0
97.18	3.0
97.195	3.0
97.21	6.0
97.225	6.0
97.239	2.0
97.254	0.0
97.269	2.0
97.284	4.0
97.299	4.0
97.314	1.0
97.329	2.0
97.344	4.0
97.359	3.0
97.374	1.0
97.389	3.0
97.404	3.0
97.419	0.0
97.434	4.0
97.449	1.0
97.464	2.0
97.479	2.0
97.494	3.0
97.509	6.0
97.524	5.0
97.538	0.0
97.553	2.0
97.568	3.0
97.583	1.0
97.598	6.0
97.613	6.0
97.628	2.0
97.643	2.0
97.658	4.0
97.673	6.0
97.688	2.0
97.703	4.0
97.718	3.0
97.733	3.0
97.748	2.0
97.763	5.0
97.778	6.0
97.792	2.0
97.807	2.0
97.822	2.0
97.837	1.0
97.852	5.0
97.867	3.0
97.882	5.0
97.897	3.0
97.912	4.0
97.927	3.0
97.942	4.0
97.957	3.0
97.972	4.0
97.987	5.0
98.001	4.0
98.016	5.0
98.031	5.0
98.046	1.0
98.061	0.0
98.076	2.0
98.091	2.0
98.106	2.0
98.121	3.0
98.136	4.0
98.151	7.0
98.166	2.0
98.181	0.0
98.195	2.0
98.21	5.0
98.225	6.0
98.24	6.0
98.255	1.0
98.27	3.0
98.285	3.0
98.3	3.0
98.315	3.0
98.33	3.0
98.345	0.0
98.359	4.0
98.374	2.0
98.389	5.0
98.404	4.0
98.419	5.0
98.434	4.0
98.449	1.0
98.464	3.0
98.479	2.0
98.494	0.0
98.508	4.0
98.523	3.0
98.538	1.0
98.553	1.0
98.568	2.0
98.583	9.0
98.598	1.0
98.613	4.0
98.628	4.0
98.642	2.0
98.657	5.0
98.672	2.0
98.687	0.0
98.702	4.0
98.717	0.0
98.732	3.0
98.747	7.0
98.762	6.0
98.776	2.0
98.791	1.0
98.806	4.0
98.821	3.0
98.836	2.0
98.851	1.0
98.866	0.0
98.881	2.0
98.896	0.0
98.91	2.0
98.925	4.0
98.94	7.0
98.955	3.0
98.97	4.0
98.985	4.0
99.0	2.0
99.015	2.0
99.029	1.0
99.044	2.0
99.059	5.0
99.074	4.0
99.089	3.0
99.104	4.0
99.119	3.0
99.133	4.0
99.148	2.0
99.163	6.0
99.178	0.0
99.193	2.0
99.208	2.0
99.223	5.0
99.238	5.0
99.252	4.0
99.267	1.0
99.282	2.0
99.297	3.0
99.312	5.0
99.327	1.0
99.342	1.0
99.356	8.0
99.371	4.0
99.386	3.0
99.401	2.0
99.416	1.0
99.431	4.0
99.446	4.0
99.461	0.0
99.475	1.0
99.49	3.0
99.505	2.0
99.52	3.0
99.535	2.0
99.55	4.0
99.565	1.0
99.579	4.0
99.594	7.0
99.609	3.0
99.624	7.0
99.639	1.0
99.654	3.0
99.669	1.0
99.683	2.0
99.698	1.0
99.713	4.0
99.728	2.0
99.743	2.0
99.758	6.0
99.772	0.0
99.787	6.0
99.802	4.0
99.817	6.0
99.832	3.0
99.847	7.0
99.862	1.0
99.876	0.0
99.891	3.0
99.906	2.0
99.921	2.0
99.936	3.0
99.951	1.0
99.966	0.0
99.98	0.0
99.995	4.0
100.01	4.0
100.025	5.0
100.04	0.0
100.055	1.0
100.069	3.0
100.084	3.0
100.099	2.0
100.114	1.0
100.129	3.0
100.144	2.0
100.159	4.0
100.173	4.0
100.188	3.0
100.203	2.0
100.218	1.0
100.233	1.0
100.248	3.0
100.262	5.0
100.277	5.0
100.292	4.0
100.307	5.0
100.322	5.0
100.337	7.0
100.351	5.0
100.366	3.0
100.381	5.0
100.396	2.0
100.411	1.0
100.426	4.0
100.441	7.0
100.455	6.0
100.47	0.0
100.485	2.0
100.5	2.0
100.515	4.0
100.53	4.0
100.544	7.0
100.559	2.0
100.574	2.0
100.589	2.0
100.604	3.0
100.619	4.0
100.633	5.0
100.648	3.0
100.663	4.0
100.678	6.0
100.693	4.0
100.708	7.0
100.722	8.0
100.737	1.0
100.752	6.0
100.767	5.0
100.782	4.0
100.796	3.0
100.811	1.0
100.826	4.0
100.841	0.0
100.856	2.0
100.871	5.0
100.885	1.0
100.9	3.0
100.915	0.0
100.93	2.0
100.945	1.0
100.96	3.0
100.974	1.0
100.989	3.0
101.004	3.0
101.019	1.0
101.034	5.0
101.048	6.0
101.063	0.0
101.078	4.0
101.093	4.0
101.108	3.0
101.123	3.0
101.137	4.0
101.152	3.0
101.167	0.0
101.182	2.0
101.197	3.0
101.211	3.0
101.226	2.0
101.241	6.0
101.256	4.0
101.271	3.0
101.285	1.0
101.3	2.0
101.315	2.0
101.33	3.0
101.345	3.0
101.359	0.0
101.374	5.0
101.389	2.0
101.404	2.0
101.419	2.0
101.433	3.0
101.448	3.0
101.463	2.0
101.478	4.0
101.493	3.0
101.507	4.0
101.522	0.0
101.537	5.0
101.552	2.0
101.567	4.0
101.581	4.0
101.596	3.0
101.611	3.0
101.626	2.0
101.64	7.0
101.655	2.0
101.67	3.0
101.685	2.0
101.7	4.0
101.714	4.0
101.729	3.0
101.744	4.0
101.759	0.0
101.773	3.0
101.788	8.0
101.803	1.0
101.818	1.0
101.833	2.0
101.847	4.0
101.862	0.0
101.877	6.0
101.892	4.0
101.906	3.0
101.921	1.0
101.936	4.0
101.951	8.0
101.965	2.0
101.98	3.0
101.995	4.0
102.01	4.0
102.025	2.0
102.039	1.0
102.054	2.0
102.069	2.0
102.084	4.0
102.098	5.0
102.113	5.0
102.128	5.0
102.143	4.0
102.157	0.0
102.172	3.0
102.187	1.0
102.202	1.0
102.216	3.0
102.231	1.0
102.246	2.0
102.261	3.0
102.275	9.0
102.29	5.0
102.305	4.0
102.32	3.0
102.334	2.0
102.349	2.0
102.364	0.0
102.378	0.0
102.393	4.0
102.408	5.0
102.423	2.0
102.437	3.0
102.452	3.0
102.467	2.0
102.482	3.0
102.496	5.0
102.511	2.0
102.526	2.0
102.541	1.0
102.555	3.0
102.57	4.0
102.585	1.0
102.6	4.0
102.614	6.0
102.629	1.0
102.644	0.0
102.659	1.0
102.673	2.0
102.688	7.0
102.703	3.0
102.717	2.0
102.732	2.0
102.747	3.0
102.762	2.0
102.776	1.0
102.791	8.0
102.806	4.0
102.821	3.0
102.835	1.0
102.85	4.0
102.865	4.0
102.88	2.0
102.894	2.0
102.909	3.0
102.924	6.0
102.938	2.0
102.953	2.0
102.968	1.0
102.983	1.0
102.997	3.0
103.012	9.0
103.027	1.0
103.042	1.0
103.056	2.0
103.071	4.0
103.086	1.0
103.101	2.0
103.115	4.0
103.13	3.0
103.145	0.0
103.16	3.0
103.174	4.0
103.189	2.0
103.204	2.0
103.219	2.0
103.233	4.0
103.248	1.0
103.263	2.0
103.278	3.0
103.292	5.0
103.307	4.0
103.322	2.0
103.337	1.0
103.351	3.0
103.366	8.0
103.381	2.0
103.396	4.0
103.41	3.0
103.425	1.0
103.44	1.0
103.455	2.0
103.469	3.0
103.484	2.0
103.499	1.0
103.514	4.0
103.529	2.0
103.543	2.0
103.558	2.0
103.573	6.0
103.588	1.0
103.602	2.0
103.617	1.0
103.632	0.0
103.647	2.0
103.661	3.0
103.676	5.0
103.691	6.0
103.706	5.0
103.721	4.0
103.735	6.0
103.75	4.0
103.765	4.0
103.78	2.0
103.795	3.0
103.809	5.0
103.824	2.0
103.839	4.0
103.854	1.0
103.869	4.0
103.883	3.0
103.898	3.0
103.913	1.0
103.928	2.0
103.943	5.0
103.957	3.0
103.972	4.0
103.987	1.0
104.002	5.0
104.017	1.0
104.031	1.0
104.046	3.0
104.061	2.0
104.076	1.0
104.091	1.0
104.106	2.0
104.12	4.0
104.135	1.0
104.15	4.0
104.165	5.0
104.18	2.0
104.195	1.0
104.209	2.0
104.224	5.0
104.239	1.0
104.254	6.0
104.269	1.0
104.284	0.0
104.299	4.0
104.313	2.0
104.328	2.0
104.343	0.0
104.358	2.0
104.373	1.0
104.388	2.0
104.403	4.0
104.417	2.0
104.432	2.0
104.447	3.0
104.462	1.0
104.477	4.0
104.492	2.0
104.507	2.0
104.522	6.0
104.536	2.0
104.551	1.0
104.566	7.0
104.581	0.0
104.596	5.0
104.611	5.0
104.626	5.0
104.641	2.0
104.656	6.0
104.67	1.0
104.685	3.0
104.7	3.0
104.715	1.0
104.73	2.0
104.745	4.0
104.76	1.0
104.775	2.0
104.79	3.0
104.804	2.0
104.819	5.0
104.834	2.0
104.849	3.0
104.864	3.0
104.879	1.0
104.894	2.0
104.909	2.0
104.924	1.0
104.939	2.0
104.954	4.0
104.968	1.0
104.983	2.0
104.998	2.0
105.013	2.0
105.028	3.0
105.043	1.0
105.058	2.0
105.073	1.0
105.088	1.0
105.103	4.0
105.118	5.0
105.133	0.0
105.147	1.0
105.162	5.0
105.177	1.0
105.192	4.0
105.207	3.0
105.222	5.0
105.237	5.0
105.252	1.0
105.267	3.0
105.282	2.0
105.297	2.0
105.312	0.0
105.327	6.0
105.342	6.0
105.356	3.0
105.371	6.0
105.386	6.0
105.401	2.0
105.416	0.0
105.431	4.0
105.446	4.0
105.461	5.0
105.476	3.0
105.491	5.0
105.506	7.0
105.521	4.0
105.536	2.0
105.551	6.0
105.566	3.0
105.581	2.0
105.595	3.0
105.61	3.0
105.625	2.0
105.64	5.0
105.655	2.0
105.67	4.0
105.685	1.0
105.7	4.0
105.715	4.0
105.73	1.0
105.745	0.0
105.76	5.0
105.775	2.0
105.79	4.0
105.805	3.0
105.82	4.0
105.835	2.0
105.85	2.0
105.864	5.0
105.879	2.0
105.894	4.0
105.909	1.0
105.924	2.0
105.939	6.0
105.954	5.0
105.969	4.0
105.984	4.0
105.999	4.0
106.014	0.0
106.029	1.0
106.044	2.0
106.059	4.0
106.074	6.0
106.089	4.0
106.104	3.0
106.119	4.0
106.134	4.0
106.148	7.0
106.163	0.0
106.178	5.0
106.193	0.0
106.208	1.0
106.223	3.0
106.238	3.0
106.253	5.0
106.268	3.0
106.283	2.0
106.298	8.0
106.313	2.0
106.328	1.0
106.343	4.0
106.358	5.0
106.373	1.0
106.388	2.0
106.403	1.0
106.418	4.0
106.432	3.0
106.447	2.0
106.462	2.0
106.477	2.0
106.492	4.0
106.507	3.0
106.522	3.0
106.537	4.0
106.552	4.0
106.567	4.0
106.582	3.0
106.597	3.0
106.612	5.0
106.627	5.0
106.642	2.0
106.657	1.0
106.672	2.0
106.687	2.0
106.701	4.0
106.716	8.0
106.731	2.0
106.746	5.0
106.761	4.0
106.776	3.0
106.791	4.0
106.806	3.0
106.821	3.0
106.836	4.0
106.851	1.0
106.866	2.0
106.881	3.0
106.896	0.0
106.911	4.0
106.926	0.0
106.941	4.0
106.955	2.0
106.97	1.0
106.985	2.0
107.0	4.0
107.015	3.0
107.03	1.0
107.045	4.0
107.06	1.0
107.075	4.0
107.09	4.0
107.105	5.0
107.12	2.0
107.135	4.0
107.15	5.0
107.165	2.0
107.18	2.0
107.194	4.0
107.209	1.0
107.224	4.0
107.239	3.0
107.254	4.0
107.269	5.0
107.284	4.0
107.299	1.0
107.314	4.0
107.329	2.0
107.344	3.0
107.359	2.0
107.374	7.0
107.389	4.0
107.404	2.0
107.418	4.0
107.433	1.0
107.448	0.0
107.463	1.0
107.478	2.0
107.493	2.0
107.508	3.0
107.523	2.0
107.538	2.0
107.553	1.0
107.568	1.0
107.583	2.0
107.598	5.0
107.613	4.0
107.627	5.0
107.642	5.0
107.657	4.0
107.672	2.0
107.687	4.0
107.702	4.0
107.717	3.0
107.732	4.0
107.747	6.0
107.762	5.0
107.777	2.0
107.792	2.0
107.807	3.0
107.821	3.0
107.836	4.0
107.851	1.0
107.866	1.0
107.881	4.0
107.896	2.0
107.911	4.0
107.926	5.0
107.941	6.0
107.956	0.0
107.971	5.0
107.986	2.0
108.0	3.0
108.015	5.0
108.03	5.0
108.045	5.0
108.06	2.0
108.075	2.0
108.09	4.0
108.105	7.0
108.12	7.0
108.135	9.0
108.15	4.0
108.164	3.0
108.179	4.0
108.194	2.0
108.209	5.0
108.224	1.0
108.239	0.0
108.254	0.0
108.269	2.0
108.284	4.0
108.299	4.0
108.313	2.0
108.328	6.0
108.343	3.0
108.358	0.0
108.373	0.0
108.388	6.0
108.403	0.0
108.418	0.0
108.433	4.0
108.448	0.0
108.462	1.0
108.477	4.0
108.492	3.0
108.507	3.0
108.522	2.0
108.537	3.0
108.552	0.0
108.567	3.0
108.582	3.0
108.597	4.0
108.611	1.0
108.626	2.0
108.641	6.0
108.656	4.0
108.671	1.0
108.686	6.0
108.701	0.0
108.716	3.0
108.731	2.0
108.745	2.0
108.76	5.0
108.775	4.0
108.79	4.0
108.805	6.0
108.82	9.0
108.835	3.0
108.85	1.0
108.865	3.0
108.879	6.0
108.894	3.0
108.909	1.0
108.924	3.0
108.939	0.0
108.954	1.0
108.969	5.0
108.984	5.0
108.999	2.0
109.013	3.0
109.028	3.0
109.043	2.0
109.058	5.0
109.073	1.0
109.088	5.0
109.103	1.0
109.118	5.0
109.133	8.0
109.147	5.0
109.162	3.0
109.177	2.0
109.192	3.0
109.207	2.0
109.222	4.0
109.237	2.0
109.252	3.0
109.267	1.0
109.281	4.0
109.296	3.0
109.311	7.0
109.326	4.0
109.341	2.0
109.356	0.0
109.371	0.0
109.386	3.0
109.4	2.0
109.415	2.0
109.43	1.0
109.445	6.0
109.46	3.0
109.475	3.0
109.49	4.0
109.505	3.0
109.52	1.0
109.534	3.0
109.549	4.0
109.564	2.0
109.579	2.0
109.594	5.0
109.609	2.0
109.624	2.0
109.639	6.0
109.653	1.0
109.668	2.0
109.683	2.0
109.698	4.0
109.713	1.0
109.728	5.0
109.743	2.0
109.758	2.0
109.773	3.0
109.787	4.0
109.802	3.0
109.817	4.0
109.832	5.0
109.847	1.0
109.862	5.0
109.877	4.0
109.892	4.0
109.907	4.0
109.921	0.0
109.936	3.0
109.951	1.0
109.966	1.0
109.981	2.0
109.996	5.0
110.011	0.0
110.026	3.0
110.04	3.0
110.055	5.0
110.07	4.0
110.085	0.0
110.1	3.0
110.115	5.0
110.13	2.0
110.145	1.0
110.16	1.0
110.174	2.0
110.189	3.0
110.204	3.0
110.219	1.0
110.234	6.0
110.249	4.0
110.264	0.0
110.279	3.0
110.294	0.0
110.308	4.0
110.323	7.0
110.338	6.0
110.353	5.0
110.368	4.0
110.383	3.0
110.398	1.0
110.413	1.0
110.428	1.0
110.442	3.0
110.457	0.0
110.472	4.0
110.487	3.0
110.502	2.0
110.517	0.0
110.532	3.0
110.547	3.0
110.561	2.0
110.576	1.0
110.591	2.0
110.606	4.0
110.621	2.0
110.636	3.0
110.651	4.0
110.666	3.0
110.681	3.0
110.695	2.0
110.71	1.0
110.725	1.0
110.74	5.0
110.755	4.0
110.77	5.0
110.785	4.0
110.8	3.0
110.815	4.0
110.829	4.0
110.844	7.0
110.859	4.0
110.874	6.0
110.889	1.0
110.904	3.0
110.919	2.0
110.934	4.0
110.948	3.0
110.963	3.0
110.978	1.0
110.993	2.0
111.008	4.0
111.023	3.0
111.038	5.0
111.053	2.0
111.067	1.0
111.082	2.0
111.097	1.0
111.112	2.0
111.127	4.0
111.142	0.0
111.157	5.0
111.172	2.0
111.186	1.0
111.201	1.0
111.216	2.0
111.231	4.0
111.246	2.0
111.261	4.0
111.276	5.0
111.291	4.0
111.305	0.0
111.32	3.0
111.335	3.0
111.35	3.0
111.365	2.0
111.38	5.0
111.395	2.0
111.41	5.0
111.424	2.0
111.439	2.0
111.454	7.0
111.469	6.0
111.484	6.0
111.499	1.0
111.514	4.0
111.528	3.0
111.543	5.0
111.558	5.0
111.573	4.0
111.588	2.0
111.603	3.0
111.618	3.0
111.633	3.0
111.647	6.0
111.662	3.0
111.677	6.0
111.692	7.0
111.707	8.0
111.722	3.0
111.737	5.0
111.751	4.0
111.766	4.0
111.781	3.0
111.796	5.0
111.811	4.0
111.826	3.0
111.84	3.0
111.855	5.0
111.87	3.0
111.885	2.0
111.9	4.0
111.915	3.0
111.93	0.0
111.944	4.0
111.959	2.0
111.974	2.0
111.989	5.0
112.004	2.0
112.019	2.0
112.033	1.0
112.048	1.0
112.063	6.0
112.078	2.0
112.093	3.0
112.108	3.0
112.123	3.0
112.137	1.0
112.152	8.0
112.167	7.0
112.182	3.0
112.197	2.0
112.212	2.0
112.226	3.0
112.241	1.0
112.256	6.0
112.271	6.0
112.286	2.0
112.301	4.0
112.315	3.0
112.33	2.0
112.345	5.0
112.36	2.0
112.375	3.0
112.389	2.0
112.404	3.0
112.419	2.0
112.434	3.0
112.449	5.0
112.464	5.0
112.478	3.0
112.493	1.0
112.508	2.0
112.523	6.0
112.538	3.0
112.553	3.0
112.567	7.0
112.582	3.0
112.597	0.0
112.612	2.0
112.627	4.0
112.642	1.0
112.656	3.0
112.671	1.0
112.686	4.0
112.701	3.0
112.716	4.0
112.73	7.0
112.745	4.0
112.76	1.0
112.775	5.0
112.79	3.0
112.805	2.0
112.819	0.0
112.834	3.0
112.849	3.0
112.864	3.0
112.879	0.0
112.894	1.0
112.908	2.0
112.923	5.0
112.938	3.0
112.953	5.0
112.968	3.0
112.983	1.0
112.997	2.0
113.012	5.0
113.027	2.0
113.042	6.0
113.057	5.0
113.072	2.0
113.086	1.0
113.101	5.0
113.116	2.0
113.131	5.0
113.146	3.0
113.161	6.0
113.175	5.0
113.19	1.0
113.205	4.0
113.22	4.0
113.235	3.0
113.25	2.0
113.265	2.0
113.279	5.0
113.294	5.0
113.309	5.0
113.324	7.0
113.339	2.0
113.354	6.0
113.368	8.0
113.383	2.0
113.398	6.0
113.413	1.0
113.428	4.0
113.443	4.0
113.458	4.0
113.472	0.0
113.487	4.0
113.502	2.0
113.517	1.0
113.532	2.0
113.547	5.0
113.562	4.0
113.576	4.0
113.591	0.0
113.606	4.0
113.621	4.0
113.636	3.0
113.651	4.0
113.666	4.0
113.681	3.0
113.695	6.0
113.71	4.0
113.725	3.0
113.74	0.0
113.755	2.0
113.77	0.0
113.785	5.0
113.8	0.0
113.814	3.0
113.829	3.0
113.844	4.0
113.859	2.0
113.874	9.0
113.889	7.0
113.904	2.0
113.919	5.0
113.934	2.0
113.949	1.0
113.963	4.0
113.978	4.0
113.993	3.0
114.008	5.0
114.023	2.0
114.038	1.0
114.053	5.0
114.068	3.0
114.083	7.0
114.098	4.0
114.113	4.0
114.127	4.0
114.142	6.0
114.157	2.0
114.172	5.0
114.187	2.0
114.202	5.0
114.217	4.0
114.232	4.0
114.247	0.0
114.262	4.0
114.277	5.0
114.292	6.0
114.307	3.0
114.322	2.0
114.337	4.0
114.351	5.0
114.366	3.0
114.381	2.0
114.396	3.0
114.411	1.0
114.426	2.0
114.441	0.0
114.456	5.0
114.471	1.0
114.486	4.0
114.501	2.0
114.516	2.0
114.531	2.0
114.546	2.0
114.561	3.0
114.576	2.0
114.591	2.0
114.606	3.0
114.621	3.0
114.636	9.0
114.65	7.0
114.665	3.0
114.68	3.0
114.695	1.0
114.71	4.0
114.725	5.0
114.74	3.0
114.755	2.0
114.77	5.0
114.785	1.0
114.8	4.0
114.815	1.0
114.83	3.0
114.845	7.0
114.86	2.0
114.875	5.0
114.89	1.0
114.905	2.0
114.92	2.0
114.935	4.0
114.95	2.0
114.965	2.0
114.98	6.0
114.995	5.0
115.009	3.0
115.024	3.0
115.039	6.0
115.054	3.0
115.069	5.0
115.084	5.0
115.099	3.0
115.114	4.0
115.129	3.0
115.144	8.0
115.159	4.0
115.174	4.0
115.189	4.0
115.204	5.0
115.219	7.0
115.234	2.0
115.249	5.0
115.264	6.0
115.279	3.0
115.294	6.0
115.309	5.0
115.323	2.0
115.338	3.0
115.353	5.0
115.368	9.0
115.383	4.0
115.398	5.0
115.413	1.0
115.428	3.0
115.443	5.0
115.458	0.0
115.473	2.0
115.488	4.0
115.503	5.0
115.518	2.0
115.533	6.0
115.548	4.0
115.562	0.0
115.577	3.0
115.592	4.0
115.607	5.0
115.622	4.0
115.637	5.0
115.652	4.0
115.667	8.0
115.682	6.0
115.697	5.0
115.712	3.0
115.727	4.0
115.741	3.0
115.756	1.0
115.771	5.0
115.786	5.0
115.801	2.0
115.816	3.0
115.831	1.0
115.846	1.0
115.861	1.0
115.875	4.0
115.89	1.0
115.905	4.0
115.92	6.0
115.935	2.0
115.95	6.0
115.965	3.0
115.98	4.0
115.995	5.0
116.009	3.0
116.024	3.0
116.039	7.0
116.054	1.0
116.069	4.0
116.084	6.0
116.099	5.0
116.113	7.0
116.128	5.0
116.143	1.0
116.158	2.0
116.173	2.0
116.188	6.0
116.202	3.0
116.217	3.0
116.232	6.0
116.247	4.0
116.262	5.0
116.277	5.0
116.291	5.0
116.306	2.0
116.321	2.0
116.336	1.0
116.351	5.0
116.366	3.0
116.38	4.0
116.395	3.0
116.41	1.0
116.425	3.0
116.44	7.0
116.454	2.0
116.469	5.0
116.484	1.0
116.499	2.0
116.514	4.0
116.528	3.0
116.543	5.0
116.558	1.0
116.573	4.0
116.588	0.0
116.602	6.0
116.617	5.0
116.632	3.0
116.647	1.0
116.662	5.0
116.676	3.0
116.691	0.0
116.706	2.0
116.721	2.0
116.735	2.0
116.75	4.0
116.765	2.0
116.78	3.0
116.795	2.0
116.809	3.0
116.824	7.0
116.839	3.0
116.854	3.0
116.868	4.0
116.883	4.0
116.898	3.0
116.913	6.0
116.927	4.0
116.942	2.0
116.957	4.0
116.972	3.0
116.986	6.0
117.001	3.0
117.016	3.0
117.031	1.0
117.045	4.0
117.06	5.0
117.075	2.0
117.09	3.0
117.104	2.0
117.119	4.0
117.134	3.0
117.149	2.0
117.163	7.0
117.178	7.0
117.193	3.0
117.208	5.0
117.222	3.0
117.237	3.0
117.252	5.0
117.267	1.0
117.281	6.0
117.296	4.0
117.311	4.0
117.325	1.0
117.34	2.0
117.355	4.0
117.37	0.0
117.384	4.0
117.399	3.0
117.414	2.0
117.429	2.0
117.443	3.0
117.458	5.0
117.473	7.0
117.487	2.0
117.502	2.0
117.517	1.0
117.532	3.0
117.546	2.0
117.561	0.0
117.576	8.0
117.59	2.0
117.605	3.0
117.62	4.0
117.635	6.0
117.649	2.0
117.664	5.0
117.679	7.0
117.693	5.0
117.708	2.0
117.723	1.0
117.738	1.0
117.752	2.0
117.767	4.0
117.782	5.0
117.796	6.0
117.811	3.0
117.826	3.0
117.841	1.0
117.855	2.0
117.87	5.0
117.885	4.0
117.899	1.0
117.914	4.0
117.929	1.0
117.944	3.0
117.958	3.0
117.973	5.0
117.988	3.0
118.002	3.0
118.017	3.0
118.032	5.0
118.047	3.0
118.062	6.0
118.077	6.0
118.092	6.0
118.107	7.0
118.121	2.0
118.136	4.0
118.151	1.0
118.166	8.0
118.181	2.0
118.196	5.0
118.211	3.0
118.225	1.0
118.24	5.0
118.255	3.0
118.27	2.0
118.285	3.0
118.3	3.0
118.315	8.0
118.33	4.0
118.344	6.0
118.359	5.0
118.374	6.0
118.389	4.0
118.404	3.0
118.419	2.0
118.434	4.0
118.449	5.0
118.463	3.0
118.478	5.0
118.493	1.0
118.508	3.0
118.523	8.0
118.538	2.0
118.553	3.0
118.567	4.0
118.582	1.0
118.597	6.0
118.612	1.0
118.627	5.0
118.642	3.0
118.657	3.0
118.672	2.0
118.686	2.0
118.701	5.0
118.716	2.0
118.731	2.0
118.746	4.0
118.761	7.0
118.776	8.0
118.791	3.0
118.805	1.0
118.82	5.0
118.835	4.0
118.85	4.0
118.865	3.0
118.88	4.0
118.895	1.0
118.909	3.0
118.924	3.0
118.939	3.0
118.954	1.0
118.969	0.0
118.984	4.0
118.999	5.0
119.014	3.0
119.028	5.0
119.043	2.0
119.058	4.0
119.073	4.0
119.088	4.0
119.103	4.0
119.118	1.0
119.133	6.0
119.147	3.0
119.162	2.0
119.177	6.0
119.192	3.0
119.207	4.0
119.222	1.0
119.237	3.0
119.251	2.0
119.266	3.0
119.281	3.0
119.296	10.0
119.311	6.0
119.326	6.0
119.341	2.0
119.356	0.0
119.37	4.0
119.385	5.0
119.4	5.0
119.415	4.0
119.43	3.0
119.445	3.0
119.46	0.0
119.475	1.0
119.489	6.0
119.504	4.0
119.519	2.0
119.534	3.0
119.549	3.0
119.564	1.0
119.579	3.0
119.593	2.0
119.608	5.0
119.623	4.0
119.638	3.0
119.653	3.0
119.668	5.0
119.683	2.0
119.698	3.0
119.712	2.0
119.727	1.0
119.742	5.0
119.757	9.0
119.772	2.0
119.787	2.0
119.802	0.0
119.817	3.0
119.831	2.0
119.846	0.0
119.861	4.0
119.876	1.0
119.891	6.0
119.906	3.0
119.921	2.0
119.935	6.0
119.95	2.0
119.965	2.0
119.98	0.0
119.995	2.0
120.01	3.0
120.025	1.0
120.04	3.0
120.054	0.0
120.069	1.0
120.084	4.0
120.099	1.0
120.114	2.0
120.129	1.0
120.144	1.0
120.159	2.0
120.173	2.0
120.188	2.0
120.203	1.0
120.218	2.0
120.233	1.0
120.248	1.0
120.263	0.0
120.277	0.0
120.292	1.0
120.307	0.0
120.322	0.0
120.337	1.0
120.352	0.0
120.367	0.0
120.382	0.0
120.396	0.0
120.411	1.0
120.426	0.0
120.441	0.0
120.456	0.0
120.471	0.0
120.486	0.0
120.501	0.0
120.515	1.0
120.53	0.0
120.545	0.0
120.56	0.0
120.575	0.0
120.59	0.0
120.605	0.0
120.619	0.0
120.634	0.0
120.649	0.0
120.664	0.0
120.679	0.0
120.694	0.0
120.709	0.0
120.724	0.0
120.738	0.0
120.753	0.0
120.768	0.0
120.783	0.0
120.798	0.0
120.813	0.0
120.828	0.0
120.843	0.0
120.857	0.0
120.872	0.0
120.887	0.0
120.902	0.0
120.917	0.0
120.932	0.0
120.947	0.0
120.961	0.0
120.976	0.0
