-1.217	0.0
-1.202	0.0
-1.187	0.0
-1.172	0.0
-1.157	0.0
-1.142	0.0
-1.128	0.0
-1.113	0.0
-1.098	0.0
-1.083	0.0
-1.068	0.0
-1.054	0.0
-1.039	0.0
-1.024	0.0
-1.009	0.0
-0.994	0.0
-0.979	0.0
-0.965	0.0
-0.95	0.0
-0.935	0.0
-0.92	0.0
-0.905	0.0
-0.891	0.0
-0.876	0.0
-0.861	0.0
-0.846	0.0
-0.831	0.0
-0.816	0.0
-0.802	0.0
-0.787	0.0
-0.772	0.0
-0.757	0.0
-0.742	0.0
-0.728	0.0
-0.713	0.0
-0.698	0.0
-0.683	0.0
-0.668	0.0
-0.653	0.0
-0.639	0.0
-0.624	0.0
-0.609	0.0
-0.594	0.0
-0.579	0.0
-0.565	0.0
-0.55	0.0
-0.535	0.0
-0.52	1.0
-0.505	0.0
-0.49	0.0
-0.476	0.0
-0.461	0.0
-0.446	0.0
-0.431	0.0
-0.416	0.0
-0.401	0.0
-0.387	0.0
-0.372	0.0
-0.357	0.0
-0.342	0.0
-0.327	0.0
-0.313	0.0
-0.298	0.0
-0.283	0.0
-0.268	0.0
-0.253	0.0
-0.238	0.0
-0.224	0.0
-0.209	0.0
-0.194	0.0
-0.179	0.0
-0.164	0.0
-0.15	0.0
-0.135	0.0
-0.12	0.0
-0.105	0.0
-0.09	0.0
-0.075	0.0
-0.061	0.0
-0.046	0.0
-0.031	0.0
-0.016	0.0
-0.001	0.0
0.013	0.0
0.028	0.0
0.043	0.0
0.058	0.0
0.073	0.0
0.088	0.0
0.102	0.0
0.117	0.0
0.132	0.0
0.147	0.0
0.162	0.0
0.176	0.0
0.191	0.0
0.206	0.0
0.221	0.0
0.236	0.0
0.251	0.0
0.265	0.0
0.28	1.0
0.295	0.0
0.31	0.0
0.325	0.0
0.339	0.0
0.354	0.0
0.369	0.0
0.384	0.0
0.399	0.0
0.414	0.0
0.428	0.0
0.443	0.0
0.458	0.0
0.473	0.0
0.488	0.0
0.502	0.0
0.517	0.0
0.532	0.0
0.547	0.0
0.562	0.0
0.577	0.0
0.591	0.0
0.606	0.0
0.621	0.0
0.636	0.0
0.651	0.0
0.665	0.0
0.68	0.0
0.695	1.0
0.71	1.0
0.725	0.0
0.74	0.0
0.754	0.0
0.769	0.0
0.784	0.0
0.799	0.0
0.814	0.0
0.828	0.0
0.843	0.0
0.858	0.0
0.873	0.0
0.888	0.0
0.903	0.0
0.917	0.0
0.932	0.0
0.947	0.0
0.962	0.0
0.977	0.0
0.991	0.0
1.006	0.0
1.021	1.0
1.036	0.0
1.051	0.0
1.065	0.0
1.08	0.0
1.095	0.0
1.11	0.0
1.125	0.0
1.14	0.0
1.154	1.0
1.169	1.0
1.184	0.0
1.199	0.0
1.214	0.0
1.228	0.0
1.243	0.0
1.258	0.0
1.273	0.0
1.288	0.0
1.302	0.0
1.317	0.0
1.332	0.0
1.347	0.0
1.362	0.0
1.376	0.0
1.391	0.0
1.406	0.0
1.421	0.0
1.436	0.0
1.45	0.0
1.465	0.0
1.48	0.0
1.495	0.0
1.51	0.0
1.524	0.0
1.539	0.0
1.554	0.0
1.569	0.0
1.584	1.0
1.598	0.0
1.613	0.0
1.628	0.0
1.643	0.0
1.658	2.0
1.672	0.0
1.687	0.0
1.702	0.0
1.717	1.0
1.732	0.0
1.746	0.0
1.761	0.0
1.776	0.0
1.791	0.0
1.806	0.0
1.82	0.0
1.835	0.0
1.85	0.0
1.865	0.0
1.88	0.0
1.894	0.0
1.909	0.0
1.924	0.0
1.939	0.0
1.954	0.0
1.968	0.0
1.983	0.0
1.998	0.0
2.013	0.0
2.028	0.0
2.042	0.0
2.057	0.0
2.072	0.0
2.087	0.0
2.101	0.0
2.116	0.0
2.131	0.0
2.146	0.0
2.161	0.0
2.175	0.0
2.19	0.0
2.205	1.0
2.22	0.0
2.235	0.0
2.249	2.0
2.264	0.0
2.279	0.0
2.294	0.0
2.308	1.0
2.323	1.0
2.338	0.0
2.353	1.0
2.368	1.0
2.382	0.0
2.397	4.0
2.412	2.0
2.427	2.0
2.442	1.0
2.456	1.0
2.471	1.0
2.486	1.0
2.501	1.0
2.515	2.0
2.53	4.0
2.545	5.0
2.56	2.0
2.575	1.0
2.589	3.0
2.604	2.0
2.619	3.0
2.634	4.0
2.649	3.0
2.663	2.0
2.678	1.0
2.693	2.0
2.708	4.0
2.722	3.0
2.737	2.0
2.752	9.0
2.767	3.0
2.782	4.0
2.796	7.0
2.811	6.0
2.826	2.0
2.841	5.0
2.856	1.0
2.87	3.0
2.885	10.0
2.9	1.0
2.915	4.0
2.93	2.0
2.944	3.0
2.959	4.0
2.974	4.0
2.989	5.0
3.004	4.0
3.018	5.0
3.033	6.0
3.048	4.0
3.063	8.0
3.078	6.0
3.092	9.0
3.107	3.0
3.122	3.0
3.137	9.0
3.152	4.0
3.166	4.0
3.181	4.0
3.196	7.0
3.211	6.0
3.226	4.0
3.24	4.0
3.255	5.0
3.27	6.0
3.285	7.0
3.3	5.0
3.315	8.0
3.329	8.0
3.344	4.0
3.359	1.0
3.374	9.0
3.389	6.0
3.403	8.0
3.418	4.0
3.433	3.0
3.448	8.0
3.463	3.0
3.478	3.0
3.492	6.0
3.507	3.0
3.522	3.0
3.537	3.0
3.552	8.0
3.567	5.0
3.581	1.0
3.596	3.0
3.611	7.0
3.626	5.0
3.641	4.0
3.656	5.0
3.671	4.0
3.685	5.0
3.7	2.0
3.715	13.0
3.73	6.0
3.745	10.0
3.76	8.0
3.775	8.0
3.789	1.0
3.804	7.0
3.819	6.0
3.834	10.0
3.849	5.0
3.864	5.0
3.879	7.0
3.894	4.0
3.908	8.0
3.923	5.0
3.938	6.0
3.953	8.0
3.968	7.0
3.983	4.0
3.998	1.0
4.013	5.0
4.027	10.0
4.042	6.0
4.057	8.0
4.072	7.0
4.087	5.0
4.102	5.0
4.117	10.0
4.132	10.0
4.147	11.0
4.162	2.0
4.176	8.0
4.191	5.0
4.206	5.0
4.221	5.0
4.236	9.0
4.251	9.0
4.266	4.0
4.281	8.0
4.296	7.0
4.311	4.0
4.326	3.0
4.341	7.0
4.356	8.0
4.37	8.0
4.385	10.0
4.4	5.0
4.415	8.0
4.43	9.0
4.445	8.0
4.46	5.0
4.475	9.0
4.49	9.0
4.505	5.0
4.52	4.0
4.535	2.0
4.55	3.0
4.565	10.0
4.58	8.0
4.595	3.0
4.61	8.0
4.625	9.0
4.639	9.0
4.654	2.0
4.669	8.0
4.684	9.0
4.699	10.0
4.714	8.0
4.729	7.0
4.744	6.0
4.759	3.0
4.774	4.0
4.789	12.0
4.804	8.0
4.819	7.0
4.834	10.0
4.849	9.0
4.864	5.0
4.879	7.0
4.894	12.0
4.909	11.0
4.924	10.0
4.939	6.0
4.954	6.0
4.969	7.0
4.984	5.0
4.999	3.0
5.014	8.0
5.029	3.0
5.044	10.0
5.059	8.0
5.074	7.0
5.089	8.0
5.104	7.0
5.119	7.0
5.134	3.0
5.149	13.0
5.164	11.0
5.179	6.0
5.194	16.0
5.209	4.0
5.224	5.0
5.239	5.0
5.254	6.0
5.269	3.0
5.284	10.0
5.299	11.0
5.314	8.0
5.329	8.0
5.344	15.0
5.359	11.0
5.374	9.0
5.389	10.0
5.404	9.0
5.419	8.0
5.434	8.0
5.449	7.0
5.464	10.0
5.479	6.0
5.494	12.0
5.509	9.0
5.524	5.0
5.539	12.0
5.554	5.0
5.569	13.0
5.584	9.0
5.599	9.0
5.614	7.0
5.629	12.0
5.644	7.0
5.659	5.0
5.674	7.0
5.689	8.0
5.704	5.0
5.719	8.0
5.734	13.0
5.749	12.0
5.764	7.0
5.779	7.0
5.794	11.0
5.809	12.0
5.824	3.0
5.839	8.0
5.854	19.0
5.869	8.0
5.884	7.0
5.899	8.0
5.914	13.0
5.929	11.0
5.944	10.0
5.959	8.0
5.974	12.0
5.989	7.0
6.004	4.0
6.019	15.0
6.034	9.0
6.049	8.0
6.064	8.0
6.079	9.0
6.094	9.0
6.109	11.0
6.124	7.0
6.139	11.0
6.154	7.0
6.169	10.0
6.184	6.0
6.199	5.0
6.214	8.0
6.229	10.0
6.244	14.0
6.259	2.0
6.274	9.0
6.289	8.0
6.304	2.0
6.319	12.0
6.334	11.0
6.349	12.0
6.364	6.0
6.379	13.0
6.394	14.0
6.409	9.0
6.424	9.0
6.439	14.0
6.454	11.0
6.469	5.0
6.484	4.0
6.499	3.0
6.514	15.0
6.529	7.0
6.544	10.0
6.559	8.0
6.574	8.0
6.589	8.0
6.604	8.0
6.619	14.0
6.634	11.0
6.649	8.0
6.664	5.0
6.679	14.0
6.694	7.0
6.709	10.0
6.724	8.0
6.739	3.0
6.754	15.0
6.769	5.0
6.784	9.0
6.799	6.0
6.814	9.0
6.829	6.0
6.844	11.0
6.859	8.0
6.873	11.0
6.888	5.0
6.903	9.0
6.918	10.0
6.933	5.0
6.948	6.0
6.963	10.0
6.978	14.0
6.993	10.0
7.008	5.0
7.023	10.0
7.038	9.0
7.053	7.0
7.068	10.0
7.083	6.0
7.098	2.0
7.113	10.0
7.128	8.0
7.143	9.0
7.157	11.0
7.172	10.0
7.187	12.0
7.202	9.0
7.217	12.0
7.232	3.0
7.247	7.0
7.262	8.0
7.277	11.0
7.292	11.0
7.307	9.0
7.322	13.0
7.336	11.0
7.351	10.0
7.366	4.0
7.381	5.0
7.396	7.0
7.411	9.0
7.426	9.0
7.441	6.0
7.456	8.0
7.471	11.0
7.485	10.0
7.5	11.0
7.515	3.0
7.53	13.0
7.545	7.0
7.56	10.0
7.575	11.0
7.59	5.0
7.604	7.0
7.619	8.0
7.634	8.0
7.649	7.0
7.664	10.0
7.679	2.0
7.693	6.0
7.708	12.0
7.723	14.0
7.738	14.0
7.753	10.0
7.768	3.0
7.783	3.0
7.797	6.0
7.812	6.0
7.827	9.0
7.842	10.0
7.857	10.0
7.871	10.0
7.886	12.0
7.901	12.0
7.916	8.0
7.931	6.0
7.945	13.0
7.96	8.0
7.975	11.0
7.99	11.0
8.005	6.0
8.019	5.0
8.034	13.0
8.049	13.0
8.064	10.0
8.078	9.0
8.093	9.0
8.108	6.0
8.123	11.0
8.137	5.0
8.152	12.0
8.167	14.0
8.182	10.0
8.196	11.0
8.211	6.0
8.226	12.0
8.241	8.0
8.255	4.0
8.27	8.0
8.285	7.0
8.3	11.0
8.314	4.0
8.329	14.0
8.344	8.0
8.358	12.0
8.373	5.0
8.388	12.0
8.403	12.0
8.417	13.0
8.432	11.0
8.447	6.0
8.461	4.0
8.476	4.0
8.491	6.0
8.505	6.0
8.52	11.0
8.535	13.0
8.55	10.0
8.564	9.0
8.579	10.0
8.594	12.0
8.608	8.0
8.623	8.0
8.638	14.0
8.652	4.0
8.667	9.0
8.682	13.0
8.696	11.0
8.711	9.0
8.726	9.0
8.74	9.0
8.755	15.0
8.77	6.0
8.784	6.0
8.799	9.0
8.814	9.0
8.828	8.0
8.843	5.0
8.858	8.0
8.872	8.0
8.887	11.0
8.902	4.0
8.916	10.0
8.931	10.0
8.946	14.0
8.96	6.0
8.975	9.0
8.99	9.0
9.004	14.0
9.019	13.0
9.034	7.0
9.048	14.0
9.063	12.0
9.077	11.0
9.092	12.0
9.107	5.0
9.121	8.0
9.136	8.0
9.151	10.0
9.165	10.0
9.18	3.0
9.195	6.0
9.209	13.0
9.224	8.0
9.239	6.0
9.253	8.0
9.268	8.0
9.283	9.0
9.297	7.0
9.312	3.0
9.327	5.0
9.341	6.0
9.356	15.0
9.371	7.0
9.385	8.0
9.4	8.0
9.415	9.0
9.429	10.0
9.444	8.0
9.458	7.0
9.473	11.0
9.488	4.0
9.502	10.0
9.517	6.0
9.532	11.0
9.546	9.0
9.561	13.0
9.576	11.0
9.59	11.0
9.605	10.0
9.62	8.0
9.635	5.0
9.649	8.0
9.664	8.0
9.679	6.0
9.693	12.0
9.708	9.0
9.723	9.0
9.737	5.0
9.752	8.0
9.767	11.0
9.781	13.0
9.796	12.0
9.811	7.0
9.825	8.0
9.84	8.0
9.855	4.0
9.87	4.0
9.884	10.0
9.899	4.0
9.914	4.0
9.928	8.0
9.943	14.0
9.958	10.0
9.973	11.0
9.987	7.0
10.002	7.0
10.017	9.0
10.031	5.0
10.046	8.0
10.061	7.0
10.076	11.0
10.09	18.0
10.105	3.0
10.12	11.0
10.135	7.0
10.149	8.0
10.164	10.0
10.179	13.0
10.194	7.0
10.208	9.0
10.223	10.0
10.238	17.0
10.253	9.0
10.267	13.0
10.282	10.0
10.297	6.0
10.312	6.0
10.326	6.0
10.341	9.0
10.356	3.0
10.371	7.0
10.386	2.0
10.4	8.0
10.415	7.0
10.43	5.0
10.445	7.0
10.46	1.0
10.474	9.0
10.489	12.0
10.504	7.0
10.519	8.0
10.533	12.0
10.548	5.0
10.563	11.0
10.578	7.0
10.593	9.0
10.608	10.0
10.622	5.0
10.637	10.0
10.652	9.0
10.667	6.0
10.682	9.0
10.696	6.0
10.711	8.0
10.726	14.0
10.741	5.0
10.756	6.0
10.771	5.0
10.785	6.0
10.8	7.0
10.815	10.0
10.83	7.0
10.845	10.0
10.86	13.0
10.874	9.0
10.889	8.0
10.904	10.0
10.919	6.0
10.934	10.0
10.949	5.0
10.963	8.0
10.978	7.0
10.993	9.0
11.008	8.0
11.023	8.0
11.038	7.0
11.053	7.0
11.067	5.0
11.082	10.0
11.097	6.0
11.112	7.0
11.127	9.0
11.142	7.0
11.157	7.0
11.172	9.0
11.186	5.0
11.201	14.0
11.216	10.0
11.231	9.0
11.246	9.0
11.261	10.0
11.276	8.0
11.291	7.0
11.305	6.0
11.32	7.0
11.335	7.0
11.35	12.0
11.365	7.0
11.38	10.0
11.395	7.0
11.41	8.0
11.424	10.0
11.439	9.0
11.454	21.0
11.469	7.0
11.484	6.0
11.499	10.0
11.514	10.0
11.529	5.0
11.544	6.0
11.558	7.0
11.573	7.0
11.588	9.0
11.603	11.0
11.618	7.0
11.633	10.0
11.648	10.0
11.663	6.0
11.678	9.0
11.693	9.0
11.707	10.0
11.722	1.0
11.737	8.0
11.752	7.0
11.767	9.0
11.782	6.0
11.797	6.0
11.812	10.0
11.827	10.0
11.842	4.0
11.856	15.0
11.871	5.0
11.886	7.0
11.901	12.0
11.916	7.0
11.931	15.0
11.946	5.0
11.961	9.0
11.976	10.0
11.991	5.0
12.006	9.0
12.02	5.0
12.035	7.0
12.05	10.0
12.065	11.0
12.08	16.0
12.095	11.0
12.11	5.0
12.125	10.0
12.14	7.0
12.155	6.0
12.17	14.0
12.184	5.0
12.199	18.0
12.214	6.0
12.229	8.0
12.244	7.0
12.259	15.0
12.274	7.0
12.289	11.0
12.304	9.0
12.319	6.0
12.334	11.0
12.348	12.0
12.363	13.0
12.378	15.0
12.393	13.0
12.408	6.0
12.423	10.0
12.438	7.0
12.453	7.0
12.468	8.0
12.483	11.0
12.498	11.0
12.513	10.0
12.527	12.0
12.542	18.0
12.557	14.0
12.572	15.0
12.587	9.0
12.602	9.0
12.617	18.0
12.632	13.0
12.647	12.0
12.662	15.0
12.677	9.0
12.692	9.0
12.707	5.0
12.721	11.0
12.736	17.0
12.751	7.0
12.766	15.0
12.781	17.0
12.796	9.0
12.811	13.0
12.826	17.0
12.841	13.0
12.856	20.0
12.871	16.0
12.886	20.0
12.9	14.0
12.915	15.0
12.93	12.0
12.945	12.0
12.96	19.0
12.975	16.0
12.99	18.0
13.005	16.0
13.02	19.0
13.035	24.0
13.05	16.0
13.065	17.0
13.08	15.0
13.094	20.0
13.109	10.0
13.124	22.0
13.139	25.0
13.154	17.0
13.169	13.0
13.184	21.0
13.199	21.0
13.214	16.0
13.229	22.0
13.244	15.0
13.259	20.0
13.274	24.0
13.288	24.0
13.303	13.0
13.318	20.0
13.333	25.0
13.348	15.0
13.363	20.0
13.378	14.0
13.393	24.0
13.408	22.0
13.423	25.0
13.438	31.0
13.453	31.0
13.468	33.0
13.482	46.0
13.497	41.0
13.512	37.0
13.527	43.0
13.542	46.0
13.557	50.0
13.572	44.0
13.587	58.0
13.602	64.0
13.617	72.0
13.632	63.0
13.647	69.0
13.662	74.0
13.677	81.0
13.691	96.0
13.706	95.0
13.721	73.0
13.736	97.0
13.751	98.0
13.766	124.0
13.781	109.0
13.796	124.0
13.811	139.0
13.826	131.0
13.841	143.0
13.856	98.0
13.871	122.0
13.885	97.0
13.9	88.0
13.915	93.0
13.93	70.0
13.945	72.0
13.96	41.0
13.975	46.0
13.99	38.0
14.005	30.0
14.02	38.0
14.035	28.0
14.05	25.0
14.065	21.0
14.08	12.0
14.094	18.0
14.109	25.0
14.124	20.0
14.139	24.0
14.154	35.0
14.169	26.0
14.184	16.0
14.199	30.0
14.214	21.0
14.229	23.0
14.244	28.0
14.259	21.0
14.274	20.0
14.288	17.0
14.303	16.0
14.318	22.0
14.333	25.0
14.348	13.0
14.363	25.0
14.378	15.0
14.393	18.0
14.408	21.0
14.423	16.0
14.438	22.0
14.453	25.0
14.468	16.0
14.482	19.0
14.497	18.0
14.512	14.0
14.527	21.0
14.542	17.0
14.557	13.0
14.572	13.0
14.587	22.0
14.602	19.0
14.617	20.0
14.632	14.0
14.647	21.0
14.661	16.0
14.676	20.0
14.691	21.0
14.706	12.0
14.721	12.0
14.736	16.0
14.751	26.0
14.766	23.0
14.781	16.0
14.796	16.0
14.811	25.0
14.826	20.0
14.84	9.0
14.855	15.0
14.87	18.0
14.885	21.0
14.9	15.0
14.915	15.0
14.93	17.0
14.945	20.0
14.96	18.0
14.975	22.0
14.989	19.0
15.004	20.0
15.019	9.0
15.034	18.0
15.049	12.0
15.064	22.0
15.079	12.0
15.094	7.0
15.109	21.0
15.124	14.0
15.138	11.0
15.153	17.0
15.168	9.0
15.183	17.0
15.198	20.0
15.213	17.0
15.228	10.0
15.243	17.0
15.258	10.0
15.272	9.0
15.287	14.0
15.302	18.0
15.317	12.0
15.332	16.0
15.347	9.0
15.362	20.0
15.377	14.0
15.391	11.0
15.406	8.0
15.421	18.0
15.436	17.0
15.451	10.0
15.466	17.0
15.481	12.0
15.496	18.0
15.51	15.0
15.525	18.0
15.54	14.0
15.555	19.0
15.57	14.0
15.585	18.0
15.6	13.0
15.614	11.0
15.629	7.0
15.644	14.0
15.659	9.0
15.674	16.0
15.689	13.0
15.704	16.0
15.718	21.0
15.733	14.0
15.748	13.0
15.763	19.0
15.778	18.0
15.793	9.0
15.808	16.0
15.822	17.0
15.837	11.0
15.852	17.0
15.867	12.0
15.882	22.0
15.897	16.0
15.911	16.0
15.926	20.0
15.941	12.0
15.956	12.0
15.971	19.0
15.986	15.0
16.0	11.0
16.015	15.0
16.03	12.0
16.045	17.0
16.06	14.0
16.074	21.0
16.089	14.0
16.104	7.0
16.119	9.0
16.134	10.0
16.149	14.0
16.163	16.0
16.178	8.0
16.193	19.0
16.208	19.0
16.223	16.0
16.237	16.0
16.252	15.0
16.267	15.0
16.282	22.0
16.297	19.0
16.311	12.0
16.326	19.0
16.341	17.0
16.356	15.0
16.37	12.0
16.385	11.0
16.4	11.0
16.415	12.0
16.43	22.0
16.444	15.0
16.459	16.0
16.474	20.0
16.489	9.0
16.504	16.0
16.518	11.0
16.533	21.0
16.548	12.0
16.563	14.0
16.577	17.0
16.592	16.0
16.607	18.0
16.622	16.0
16.637	20.0
16.651	24.0
16.666	20.0
16.681	22.0
16.696	23.0
16.71	27.0
16.725	22.0
16.74	20.0
16.755	30.0
16.77	28.0
16.784	56.0
16.799	36.0
16.814	51.0
16.829	35.0
16.843	48.0
16.858	60.0
16.873	55.0
16.888	53.0
16.902	68.0
16.917	77.0
16.932	80.0
16.947	81.0
16.961	69.0
16.976	78.0
16.991	61.0
17.006	61.0
17.021	53.0
17.035	49.0
17.05	47.0
17.065	37.0
17.08	53.0
17.094	38.0
17.109	45.0
17.124	22.0
17.139	22.0
17.153	33.0
17.168	20.0
17.183	17.0
17.198	20.0
17.212	17.0
17.227	16.0
17.242	17.0
17.257	21.0
17.271	17.0
17.286	9.0
17.301	18.0
17.316	8.0
17.33	18.0
17.345	24.0
17.36	14.0
17.375	17.0
17.39	19.0
17.404	15.0
17.419	12.0
17.434	11.0
17.449	8.0
17.463	17.0
17.478	13.0
17.493	18.0
17.508	12.0
17.522	14.0
17.537	24.0
17.552	11.0
17.567	13.0
17.581	10.0
17.596	18.0
17.611	16.0
17.626	10.0
17.641	16.0
17.655	13.0
17.67	13.0
17.685	9.0
17.7	18.0
17.714	16.0
17.729	13.0
17.744	18.0
17.759	16.0
17.773	13.0
17.788	12.0
17.803	9.0
17.818	14.0
17.833	5.0
17.847	9.0
17.862	11.0
17.877	12.0
17.892	17.0
17.906	17.0
17.921	18.0
17.936	13.0
17.951	11.0
17.966	11.0
17.98	15.0
17.995	14.0
18.01	11.0
18.025	11.0
18.04	20.0
18.054	10.0
18.069	18.0
18.084	11.0
18.099	7.0
18.114	7.0
18.128	14.0
18.143	11.0
18.158	5.0
18.173	8.0
18.188	13.0
18.202	14.0
18.217	13.0
18.232	9.0
18.247	14.0
18.262	14.0
18.276	10.0
18.291	12.0
18.306	7.0
18.321	9.0
18.336	14.0
18.35	13.0
18.365	14.0
18.38	11.0
18.395	11.0
18.41	8.0
18.424	17.0
18.439	14.0
18.454	9.0
18.469	9.0
18.484	8.0
18.498	14.0
18.513	14.0
18.528	12.0
18.543	10.0
18.558	13.0
18.573	10.0
18.587	11.0
18.602	6.0
18.617	13.0
18.632	13.0
18.647	10.0
18.661	12.0
18.676	3.0
18.691	7.0
18.706	15.0
18.721	11.0
18.736	23.0
18.75	5.0
18.765	16.0
18.78	14.0
18.795	11.0
18.81	13.0
18.825	7.0
18.839	6.0
18.854	15.0
18.869	14.0
18.884	15.0
18.899	11.0
18.913	11.0
18.928	19.0
18.943	16.0
18.958	18.0
18.973	11.0
18.988	7.0
19.002	13.0
19.017	15.0
19.032	13.0
19.047	15.0
19.062	11.0
19.077	11.0
19.091	13.0
19.106	11.0
19.121	10.0
19.136	5.0
19.151	17.0
19.165	19.0
19.18	15.0
19.195	14.0
19.21	11.0
19.225	16.0
19.24	13.0
19.254	6.0
19.269	15.0
19.284	13.0
19.299	14.0
19.314	16.0
19.329	13.0
19.343	22.0
19.358	19.0
19.373	22.0
19.388	20.0
19.403	25.0
19.417	24.0
19.432	22.0
19.447	18.0
19.462	25.0
19.477	29.0
19.492	21.0
19.506	30.0
19.521	33.0
19.536	41.0
19.551	37.0
19.566	52.0
19.58	42.0
19.595	43.0
19.61	36.0
19.625	31.0
19.64	33.0
19.655	51.0
19.669	30.0
19.684	24.0
19.699	50.0
19.714	23.0
19.729	32.0
19.743	27.0
19.758	29.0
19.773	26.0
19.788	21.0
19.803	19.0
19.817	20.0
19.832	12.0
19.847	15.0
19.862	10.0
19.877	17.0
19.891	11.0
19.906	13.0
19.921	6.0
19.936	23.0
19.951	6.0
19.965	10.0
19.98	11.0
19.995	12.0
20.01	9.0
20.025	13.0
20.039	11.0
20.054	13.0
20.069	22.0
20.084	8.0
20.099	16.0
20.113	12.0
20.128	5.0
20.143	17.0
20.158	14.0
20.173	13.0
20.187	13.0
20.202	7.0
20.217	16.0
20.232	10.0
20.246	8.0
20.261	11.0
20.276	11.0
20.291	8.0
20.306	8.0
20.32	7.0
20.335	10.0
20.35	14.0
20.365	14.0
20.38	9.0
20.394	14.0
20.409	14.0
20.424	10.0
20.439	13.0
20.453	9.0
20.468	16.0
20.483	13.0
20.498	16.0
20.513	12.0
20.527	6.0
20.542	7.0
20.557	9.0
20.572	14.0
20.586	12.0
20.601	7.0
20.616	14.0
20.631	11.0
20.646	16.0
20.66	7.0
20.675	16.0
20.69	11.0
20.705	16.0
20.719	10.0
20.734	8.0
20.749	10.0
20.764	7.0
20.779	8.0
20.793	10.0
20.808	14.0
20.823	13.0
20.838	8.0
20.853	9.0
20.867	14.0
20.882	12.0
20.897	13.0
20.912	12.0
20.926	17.0
20.941	8.0
20.956	13.0
20.971	8.0
20.986	12.0
21.0	7.0
21.015	10.0
21.03	5.0
21.045	4.0
21.06	16.0
21.074	9.0
21.089	14.0
21.104	11.0
21.119	9.0
21.134	12.0
21.148	9.0
21.163	12.0
21.178	8.0
21.193	15.0
21.208	13.0
21.222	10.0
21.237	6.0
21.252	18.0
21.267	11.0
21.282	10.0
21.296	9.0
21.311	9.0
21.326	10.0
21.341	13.0
21.356	13.0
21.37	13.0
21.385	13.0
21.4	13.0
21.415	15.0
21.43	16.0
21.444	5.0
21.459	16.0
21.474	11.0
21.489	15.0
21.504	13.0
21.519	14.0
21.533	9.0
21.548	17.0
21.563	17.0
21.578	8.0
21.593	23.0
21.608	13.0
21.622	14.0
21.637	18.0
21.652	8.0
21.667	16.0
21.682	18.0
21.697	29.0
21.712	29.0
21.726	25.0
21.741	26.0
21.756	19.0
21.771	34.0
21.786	32.0
21.801	30.0
21.816	28.0
21.83	57.0
21.845	48.0
21.86	51.0
21.875	73.0
21.89	59.0
21.905	70.0
21.92	81.0
21.935	70.0
21.949	87.0
21.964	96.0
21.979	87.0
21.994	82.0
22.009	75.0
22.024	65.0
22.039	55.0
22.054	55.0
22.069	66.0
22.083	52.0
22.098	52.0
22.113	38.0
22.128	37.0
22.143	39.0
22.158	26.0
22.173	19.0
22.188	25.0
22.203	14.0
22.218	19.0
22.233	12.0
22.248	18.0
22.262	13.0
22.277	14.0
22.292	18.0
22.307	13.0
22.322	16.0
22.337	7.0
22.352	7.0
22.367	13.0
22.382	13.0
22.397	9.0
22.412	14.0
22.427	16.0
22.442	10.0
22.457	10.0
22.472	8.0
22.487	11.0
22.502	18.0
22.516	13.0
22.531	13.0
22.546	6.0
22.561	9.0
22.576	12.0
22.591	11.0
22.606	14.0
22.621	14.0
22.636	14.0
22.651	11.0
22.666	13.0
22.681	8.0
22.696	14.0
22.711	14.0
22.726	10.0
22.741	9.0
22.756	20.0
22.771	10.0
22.786	10.0
22.801	13.0
22.816	8.0
22.831	6.0
22.846	11.0
22.861	10.0
22.876	10.0
22.891	7.0
22.906	11.0
22.92	9.0
22.935	10.0
22.95	10.0
22.965	10.0
22.98	10.0
22.995	10.0
23.01	8.0
23.025	6.0
23.04	10.0
23.055	10.0
23.07	12.0
23.085	3.0
23.1	6.0
23.115	14.0
23.13	11.0
23.145	10.0
23.16	9.0
23.175	11.0
23.19	6.0
23.205	14.0
23.22	8.0
23.235	6.0
23.25	10.0
23.265	10.0
23.28	12.0
23.295	8.0
23.31	11.0
23.325	16.0
23.34	10.0
23.355	16.0
23.37	5.0
23.384	8.0
23.399	12.0
23.414	9.0
23.429	16.0
23.444	9.0
23.459	23.0
23.474	11.0
23.489	16.0
23.504	12.0
23.519	11.0
23.534	17.0
23.549	9.0
23.564	7.0
23.579	9.0
23.594	12.0
23.609	13.0
23.624	13.0
23.639	15.0
23.654	8.0
23.668	10.0
23.683	13.0
23.698	11.0
23.713	19.0
23.728	9.0
23.743	10.0
23.758	22.0
23.773	13.0
23.788	17.0
23.803	13.0
23.818	11.0
23.833	13.0
23.848	25.0
23.862	18.0
23.877	23.0
23.892	12.0
23.907	16.0
23.922	14.0
23.937	20.0
23.952	37.0
23.967	29.0
23.982	27.0
23.997	26.0
24.011	40.0
24.026	48.0
24.041	53.0
24.056	43.0
24.071	47.0
24.086	52.0
24.101	46.0
24.116	53.0
24.131	43.0
24.145	50.0
24.16	35.0
24.175	45.0
24.19	35.0
24.205	34.0
24.22	31.0
24.235	29.0
24.249	28.0
24.264	25.0
24.279	23.0
24.294	26.0
24.309	18.0
24.324	11.0
24.338	13.0
24.353	13.0
24.368	8.0
24.383	12.0
24.398	15.0
24.413	11.0
24.428	13.0
24.442	14.0
24.457	13.0
24.472	18.0
24.487	11.0
24.502	13.0
24.516	14.0
24.531	21.0
24.546	20.0
24.561	10.0
24.576	16.0
24.591	12.0
24.605	12.0
24.62	12.0
24.635	13.0
24.65	17.0
24.665	10.0
24.679	5.0
24.694	15.0
24.709	5.0
24.724	12.0
24.739	10.0
24.753	12.0
24.768	11.0
24.783	8.0
24.798	11.0
24.813	10.0
24.827	12.0
24.842	9.0
24.857	18.0
24.872	9.0
24.886	10.0
24.901	9.0
24.916	5.0
24.931	13.0
24.946	4.0
24.96	10.0
24.975	14.0
24.99	9.0
25.005	11.0
25.019	8.0
25.034	9.0
25.049	9.0
25.064	10.0
25.078	10.0
25.093	17.0
25.108	12.0
25.123	6.0
25.138	11.0
25.152	10.0
25.167	13.0
25.182	4.0
25.197	7.0
25.211	10.0
25.226	13.0
25.241	9.0
25.256	11.0
25.27	10.0
25.285	11.0
25.3	10.0
25.315	8.0
25.329	6.0
25.344	11.0
25.359	13.0
25.374	13.0
25.388	12.0
25.403	10.0
25.418	12.0
25.433	6.0
25.447	13.0
25.462	11.0
25.477	10.0
25.492	11.0
25.506	11.0
25.521	13.0
25.536	9.0
25.55	11.0
25.565	9.0
25.58	12.0
25.595	13.0
25.609	9.0
25.624	9.0
25.639	6.0
25.654	9.0
25.668	9.0
25.683	11.0
25.698	11.0
25.713	6.0
25.727	11.0
25.742	14.0
25.757	6.0
25.772	15.0
25.786	3.0
25.801	10.0
25.816	11.0
25.83	10.0
25.845	11.0
25.86	3.0
25.875	12.0
25.889	12.0
25.904	5.0
25.919	9.0
25.934	14.0
25.948	7.0
25.963	10.0
25.978	8.0
25.992	10.0
26.007	7.0
26.022	10.0
26.037	5.0
26.051	9.0
26.066	10.0
26.081	11.0
26.096	12.0
26.11	10.0
26.125	9.0
26.14	7.0
26.155	12.0
26.169	5.0
26.184	5.0
26.199	15.0
26.213	5.0
26.228	8.0
26.243	7.0
26.258	7.0
26.272	4.0
26.287	9.0
26.302	11.0
26.317	5.0
26.331	6.0
26.346	11.0
26.361	12.0
26.376	7.0
26.39	5.0
26.405	13.0
26.42	2.0
26.434	7.0
26.449	11.0
26.464	18.0
26.479	12.0
26.493	9.0
26.508	11.0
26.523	8.0
26.538	6.0
26.552	5.0
26.567	5.0
26.582	12.0
26.597	11.0
26.611	11.0
26.626	9.0
26.641	12.0
26.656	8.0
26.67	8.0
26.685	8.0
26.7	10.0
26.715	10.0
26.729	5.0
26.744	11.0
26.759	11.0
26.773	11.0
26.788	12.0
26.803	12.0
26.818	5.0
26.832	11.0
26.847	11.0
26.862	14.0
26.877	14.0
26.891	6.0
26.906	9.0
26.921	6.0
26.936	8.0
26.95	14.0
26.965	12.0
26.98	5.0
26.995	5.0
27.01	3.0
27.024	10.0
27.039	9.0
27.054	13.0
27.069	4.0
27.083	8.0
27.098	9.0
27.113	5.0
27.128	12.0
27.142	18.0
27.157	9.0
27.172	12.0
27.187	10.0
27.201	6.0
27.216	6.0
27.231	12.0
27.246	8.0
27.261	8.0
27.275	15.0
27.29	12.0
27.305	11.0
27.32	11.0
27.334	10.0
27.349	14.0
27.364	10.0
27.379	13.0
27.394	7.0
27.408	11.0
27.423	8.0
27.438	12.0
27.453	10.0
27.467	10.0
27.482	9.0
27.497	8.0
27.512	14.0
27.527	12.0
27.541	13.0
27.556	8.0
27.571	9.0
27.586	5.0
27.601	15.0
27.615	6.0
27.63	13.0
27.645	6.0
27.66	12.0
27.675	7.0
27.689	14.0
27.704	13.0
27.719	15.0
27.734	9.0
27.749	18.0
27.763	14.0
27.778	18.0
27.793	17.0
27.808	26.0
27.823	20.0
27.838	19.0
27.852	27.0
27.867	26.0
27.882	19.0
27.897	29.0
27.912	29.0
27.926	21.0
27.941	17.0
27.956	20.0
27.971	25.0
27.986	17.0
28.001	13.0
28.015	17.0
28.03	19.0
28.045	26.0
28.06	12.0
28.075	18.0
28.09	11.0
28.105	12.0
28.119	12.0
28.134	17.0
28.149	11.0
28.164	11.0
28.179	14.0
28.194	9.0
28.208	8.0
28.223	17.0
28.238	6.0
28.253	9.0
28.268	5.0
28.283	16.0
28.298	7.0
28.312	8.0
28.327	13.0
28.342	5.0
28.357	10.0
28.372	9.0
28.387	13.0
28.402	6.0
28.417	12.0
28.431	11.0
28.446	14.0
28.461	11.0
28.476	10.0
28.491	8.0
28.506	14.0
28.521	13.0
28.536	11.0
28.55	7.0
28.565	10.0
28.58	6.0
28.595	9.0
28.61	10.0
28.625	8.0
28.64	11.0
28.655	8.0
28.669	9.0
28.684	9.0
28.699	6.0
28.714	14.0
28.729	18.0
28.744	9.0
28.759	12.0
28.774	10.0
28.788	9.0
28.803	17.0
28.818	13.0
28.833	16.0
28.848	14.0
28.863	9.0
28.878	12.0
28.893	8.0
28.908	10.0
28.922	11.0
28.937	8.0
28.952	6.0
28.967	7.0
28.982	10.0
28.997	8.0
29.012	12.0
29.027	15.0
29.041	13.0
29.056	7.0
29.071	5.0
29.086	9.0
29.101	10.0
29.116	10.0
29.131	17.0
29.146	7.0
29.16	7.0
29.175	9.0
29.19	18.0
29.205	12.0
29.22	17.0
29.235	16.0
29.25	11.0
29.265	11.0
29.279	11.0
29.294	12.0
29.309	13.0
29.324	12.0
29.339	7.0
29.354	15.0
29.369	10.0
29.384	18.0
29.398	9.0
29.413	15.0
29.428	16.0
29.443	21.0
29.458	19.0
29.473	25.0
29.488	24.0
29.502	24.0
29.517	26.0
29.532	42.0
29.547	36.0
29.562	34.0
29.577	35.0
29.592	46.0
29.606	49.0
29.621	45.0
29.636	44.0
29.651	44.0
29.666	47.0
29.681	39.0
29.695	30.0
29.71	45.0
29.725	26.0
29.74	28.0
29.755	28.0
29.77	32.0
29.784	39.0
29.799	37.0
29.814	35.0
29.829	26.0
29.844	21.0
29.859	16.0
29.873	22.0
29.888	17.0
29.903	17.0
29.918	13.0
29.933	13.0
29.947	14.0
29.962	7.0
29.977	14.0
29.992	15.0
30.007	10.0
30.021	11.0
30.036	11.0
30.051	10.0
30.066	7.0
30.081	10.0
30.095	7.0
30.11	12.0
30.125	6.0
30.14	9.0
30.155	14.0
30.169	11.0
30.184	6.0
30.199	11.0
30.214	10.0
30.228	14.0
30.243	12.0
30.258	11.0
30.273	14.0
30.288	17.0
30.302	8.0
30.317	12.0
30.332	10.0
30.347	10.0
30.361	10.0
30.376	7.0
30.391	16.0
30.406	9.0
30.42	10.0
30.435	9.0
30.45	13.0
30.465	15.0
30.479	15.0
30.494	11.0
30.509	15.0
30.524	8.0
30.538	8.0
30.553	12.0
30.568	12.0
30.583	9.0
30.597	10.0
30.612	7.0
30.627	9.0
30.641	14.0
30.656	13.0
30.671	15.0
30.686	12.0
30.7	11.0
30.715	5.0
30.73	8.0
30.745	9.0
30.759	7.0
30.774	8.0
30.789	13.0
30.803	9.0
30.818	12.0
30.833	14.0
30.848	12.0
30.862	10.0
30.877	11.0
30.892	11.0
30.906	11.0
30.921	7.0
30.936	14.0
30.951	17.0
30.965	13.0
30.98	9.0
30.995	15.0
31.009	9.0
31.024	7.0
31.039	13.0
31.053	22.0
31.068	15.0
31.083	9.0
31.098	6.0
31.112	14.0
31.127	24.0
31.142	18.0
31.156	19.0
31.171	44.0
31.186	30.0
31.2	26.0
31.215	28.0
31.23	35.0
31.245	43.0
31.259	40.0
31.274	43.0
31.289	40.0
31.303	28.0
31.318	33.0
31.333	33.0
31.347	33.0
31.362	35.0
31.377	21.0
31.392	32.0
31.406	28.0
31.421	21.0
31.436	28.0
31.45	25.0
31.465	28.0
31.48	25.0
31.494	25.0
31.509	25.0
31.524	12.0
31.538	20.0
31.553	19.0
31.568	17.0
31.583	16.0
31.597	13.0
31.612	16.0
31.627	6.0
31.641	17.0
31.656	7.0
31.671	11.0
31.685	7.0
31.7	4.0
31.715	14.0
31.729	14.0
31.744	8.0
31.759	11.0
31.774	4.0
31.788	15.0
31.803	8.0
31.818	15.0
31.832	5.0
31.847	5.0
31.862	13.0
31.876	12.0
31.891	12.0
31.906	10.0
31.92	9.0
31.935	12.0
31.95	8.0
31.965	11.0
31.979	12.0
31.994	10.0
32.009	15.0
32.023	14.0
32.038	6.0
32.053	7.0
32.067	6.0
32.082	5.0
32.097	16.0
32.112	8.0
32.126	8.0
32.141	10.0
32.156	14.0
32.17	10.0
32.185	7.0
32.2	6.0
32.214	7.0
32.229	5.0
32.244	11.0
32.259	13.0
32.273	14.0
32.288	8.0
32.303	11.0
32.317	15.0
32.332	14.0
32.347	9.0
32.362	8.0
32.376	10.0
32.391	9.0
32.406	13.0
32.42	14.0
32.435	9.0
32.45	12.0
32.465	14.0
32.479	7.0
32.494	16.0
32.509	7.0
32.523	20.0
32.538	8.0
32.553	16.0
32.568	12.0
32.582	10.0
32.597	5.0
32.612	8.0
32.627	14.0
32.641	11.0
32.656	8.0
32.671	18.0
32.685	15.0
32.7	14.0
32.715	26.0
32.73	21.0
32.744	21.0
32.759	24.0
32.774	30.0
32.788	28.0
32.803	31.0
32.818	33.0
32.833	33.0
32.847	28.0
32.862	30.0
32.877	20.0
32.892	24.0
32.906	19.0
32.921	13.0
32.936	19.0
32.951	16.0
32.965	14.0
32.98	20.0
32.995	22.0
33.009	25.0
33.024	13.0
33.039	17.0
33.054	26.0
33.068	14.0
33.083	21.0
33.098	17.0
33.113	9.0
33.127	15.0
33.142	14.0
33.157	19.0
33.172	5.0
33.186	10.0
33.201	11.0
33.216	9.0
33.231	9.0
33.245	5.0
33.26	7.0
33.275	14.0
33.29	13.0
33.304	8.0
33.319	3.0
33.334	11.0
33.349	3.0
33.363	5.0
33.378	9.0
33.393	6.0
33.408	5.0
33.422	10.0
33.437	7.0
33.452	5.0
33.467	9.0
33.481	10.0
33.496	5.0
33.511	10.0
33.526	12.0
33.54	11.0
33.555	12.0
33.57	11.0
33.585	10.0
33.599	9.0
33.614	9.0
33.629	11.0
33.644	7.0
33.658	10.0
33.673	16.0
33.688	6.0
33.703	11.0
33.718	10.0
33.732	9.0
33.747	5.0
33.762	7.0
33.777	8.0
33.791	4.0
33.806	5.0
33.821	10.0
33.836	7.0
33.85	9.0
33.865	10.0
33.88	15.0
33.895	14.0
33.91	12.0
33.924	9.0
33.939	6.0
33.954	8.0
33.969	11.0
33.983	17.0
33.998	6.0
34.013	9.0
34.028	8.0
34.042	7.0
34.057	18.0
34.072	9.0
34.087	7.0
34.102	8.0
34.116	14.0
34.131	7.0
34.146	10.0
34.161	8.0
34.175	12.0
34.19	12.0
34.205	11.0
34.22	9.0
34.235	15.0
34.249	10.0
34.264	15.0
34.279	9.0
34.294	15.0
34.309	13.0
34.323	19.0
34.338	11.0
34.353	14.0
34.368	13.0
34.382	16.0
34.397	8.0
34.412	12.0
34.427	11.0
34.442	14.0
34.456	15.0
34.471	9.0
34.486	10.0
34.501	12.0
34.516	5.0
34.53	13.0
34.545	12.0
34.56	8.0
34.575	10.0
34.59	20.0
34.604	12.0
34.619	14.0
34.634	11.0
34.649	10.0
34.664	13.0
34.678	6.0
34.693	6.0
34.708	8.0
34.723	7.0
34.738	5.0
34.752	8.0
34.767	7.0
34.782	6.0
34.797	4.0
34.812	9.0
34.826	8.0
34.841	9.0
34.856	5.0
34.871	9.0
34.886	4.0
34.9	5.0
34.915	6.0
34.93	14.0
34.945	8.0
34.96	10.0
34.974	6.0
34.989	8.0
35.004	6.0
35.019	12.0
35.034	13.0
35.048	9.0
35.063	8.0
35.078	14.0
35.093	6.0
35.108	8.0
35.122	9.0
35.137	11.0
35.152	6.0
35.167	10.0
35.182	10.0
35.196	8.0
35.211	13.0
35.226	7.0
35.241	5.0
35.256	11.0
35.27	9.0
35.285	7.0
35.3	9.0
35.315	9.0
35.33	12.0
35.344	5.0
35.359	8.0
35.374	9.0
35.389	10.0
35.404	11.0
35.418	9.0
35.433	11.0
35.448	9.0
35.463	9.0
35.478	11.0
35.493	10.0
35.507	8.0
35.522	10.0
35.537	5.0
35.552	10.0
35.567	8.0
35.581	13.0
35.596	12.0
35.611	15.0
35.626	13.0
35.641	6.0
35.655	13.0
35.67	22.0
35.685	13.0
35.7	15.0
35.715	17.0
35.729	15.0
35.744	11.0
35.759	19.0
35.774	16.0
35.789	21.0
35.804	15.0
35.818	15.0
35.833	18.0
35.848	15.0
35.863	16.0
35.878	15.0
35.892	10.0
35.907	19.0
35.922	16.0
35.937	22.0
35.952	17.0
35.966	17.0
35.981	12.0
35.996	15.0
36.011	23.0
36.026	13.0
36.04	19.0
36.055	8.0
36.07	15.0
36.085	12.0
36.1	7.0
36.114	6.0
36.129	9.0
36.144	5.0
36.159	8.0
36.174	7.0
36.189	11.0
36.203	17.0
36.218	10.0
36.233	15.0
36.248	5.0
36.263	11.0
36.277	16.0
36.292	3.0
36.307	8.0
36.322	5.0
36.337	5.0
36.351	8.0
36.366	6.0
36.381	1.0
36.396	9.0
36.411	7.0
36.426	6.0
36.44	7.0
36.455	9.0
36.47	8.0
36.485	11.0
36.5	10.0
36.514	12.0
36.529	4.0
36.544	9.0
36.559	4.0
36.574	6.0
36.589	6.0
36.603	9.0
36.618	9.0
36.633	7.0
36.648	10.0
36.663	7.0
36.677	8.0
36.692	7.0
36.707	6.0
36.722	14.0
36.737	9.0
36.752	12.0
36.766	7.0
36.781	4.0
36.796	11.0
36.811	5.0
36.826	7.0
36.841	11.0
36.855	9.0
36.87	4.0
36.885	7.0
36.9	6.0
36.915	5.0
36.93	12.0
36.944	10.0
36.959	18.0
36.974	12.0
36.989	15.0
37.004	7.0
37.019	17.0
37.033	14.0
37.048	9.0
37.063	18.0
37.078	20.0
37.093	26.0
37.108	18.0
37.123	34.0
37.137	25.0
37.152	18.0
37.167	37.0
37.182	33.0
37.197	33.0
37.212	33.0
37.226	32.0
37.241	27.0
37.256	17.0
37.271	23.0
37.286	19.0
37.301	16.0
37.316	18.0
37.331	26.0
37.345	31.0
37.36	12.0
37.375	16.0
37.39	21.0
37.405	23.0
37.42	18.0
37.435	20.0
37.45	16.0
37.464	17.0
37.479	15.0
37.494	14.0
37.509	15.0
37.524	12.0
37.539	11.0
37.554	9.0
37.569	9.0
37.583	9.0
37.598	11.0
37.613	8.0
37.628	8.0
37.643	8.0
37.658	6.0
37.673	8.0
37.688	7.0
37.703	9.0
37.718	15.0
37.733	5.0
37.747	9.0
37.762	4.0
37.777	5.0
37.792	6.0
37.807	6.0
37.822	5.0
37.837	7.0
37.852	7.0
37.867	11.0
37.882	7.0
37.897	4.0
37.912	8.0
37.927	6.0
37.941	4.0
37.956	6.0
37.971	4.0
37.986	8.0
38.001	4.0
38.016	5.0
38.031	7.0
38.046	12.0
38.061	7.0
38.076	10.0
38.091	4.0
38.106	6.0
38.121	5.0
38.136	4.0
38.151	5.0
38.166	9.0
38.181	8.0
38.196	5.0
38.211	6.0
38.226	6.0
38.241	11.0
38.256	7.0
38.271	3.0
38.285	8.0
38.3	6.0
38.315	8.0
38.33	5.0
38.345	7.0
38.36	8.0
38.375	8.0
38.39	7.0
38.405	8.0
38.42	8.0
38.435	9.0
38.45	8.0
38.465	7.0
38.48	5.0
38.495	7.0
38.51	5.0
38.525	4.0
38.54	4.0
38.555	8.0
38.57	4.0
38.585	6.0
38.6	7.0
38.615	3.0
38.63	6.0
38.645	10.0
38.66	7.0
38.675	11.0
38.69	9.0
38.705	6.0
38.72	9.0
38.735	3.0
38.75	6.0
38.765	8.0
38.78	8.0
38.795	4.0
38.81	11.0
38.825	5.0
38.84	11.0
38.855	12.0
38.87	5.0
38.885	8.0
38.9	4.0
38.915	5.0
38.93	4.0
38.945	9.0
38.96	9.0
38.975	10.0
38.99	4.0
39.005	7.0
39.02	6.0
39.035	6.0
39.05	6.0
39.065	11.0
39.08	4.0
39.095	5.0
39.11	5.0
39.125	4.0
39.14	7.0
39.155	4.0
39.17	4.0
39.185	5.0
39.2	2.0
39.215	2.0
39.23	4.0
39.245	5.0
39.26	9.0
39.275	7.0
39.29	8.0
39.305	6.0
39.32	6.0
39.335	7.0
39.35	6.0
39.365	5.0
39.38	7.0
39.395	7.0
39.409	8.0
39.424	5.0
39.439	5.0
39.454	2.0
39.469	3.0
39.484	6.0
39.499	7.0
39.514	4.0
39.529	7.0
39.544	8.0
39.559	6.0
39.574	8.0
39.589	10.0
39.604	3.0
39.619	6.0
39.634	8.0
39.649	3.0
39.664	3.0
39.678	8.0
39.693	7.0
39.708	6.0
39.723	3.0
39.738	5.0
39.753	9.0
39.768	10.0
39.783	9.0
39.798	12.0
39.813	11.0
39.827	10.0
39.842	9.0
39.857	8.0
39.872	7.0
39.887	7.0
39.902	11.0
39.917	9.0
39.932	11.0
39.947	6.0
39.961	9.0
39.976	4.0
39.991	7.0
40.006	3.0
40.021	8.0
40.036	8.0
40.051	7.0
40.065	7.0
40.08	10.0
40.095	5.0
40.11	5.0
40.125	7.0
40.14	11.0
40.154	8.0
40.169	6.0
40.184	7.0
40.199	5.0
40.214	4.0
40.228	12.0
40.243	6.0
40.258	3.0
40.273	11.0
40.288	8.0
40.302	9.0
40.317	4.0
40.332	3.0
40.347	4.0
40.362	5.0
40.376	7.0
40.391	4.0
40.406	4.0
40.421	7.0
40.436	4.0
40.45	6.0
40.465	4.0
40.48	7.0
40.495	4.0
40.509	5.0
40.524	5.0
40.539	7.0
40.554	5.0
40.568	8.0
40.583	1.0
40.598	4.0
40.613	2.0
40.627	10.0
40.642	12.0
40.657	8.0
40.672	7.0
40.686	8.0
40.701	4.0
40.716	10.0
40.731	6.0
40.745	6.0
40.76	8.0
40.775	7.0
40.79	4.0
40.804	11.0
40.819	10.0
40.834	7.0
40.849	6.0
40.863	3.0
40.878	11.0
40.893	4.0
40.907	3.0
40.922	8.0
40.937	4.0
40.952	8.0
40.966	7.0
40.981	9.0
40.996	15.0
41.011	13.0
41.025	14.0
41.04	12.0
41.055	16.0
41.069	14.0
41.084	22.0
41.099	22.0
41.114	22.0
41.128	23.0
41.143	23.0
41.158	23.0
41.173	19.0
41.187	20.0
41.202	20.0
41.217	17.0
41.231	15.0
41.246	7.0
41.261	9.0
41.276	9.0
41.29	11.0
41.305	13.0
41.32	7.0
41.335	11.0
41.349	12.0
41.364	18.0
41.379	7.0
41.393	12.0
41.408	11.0
41.423	17.0
41.438	21.0
41.452	12.0
41.467	16.0
41.482	8.0
41.497	7.0
41.511	9.0
41.526	6.0
41.541	8.0
41.556	8.0
41.57	8.0
41.585	6.0
41.6	8.0
41.615	5.0
41.629	10.0
41.644	4.0
41.659	6.0
41.674	5.0
41.688	4.0
41.703	6.0
41.718	5.0
41.733	4.0
41.747	5.0
41.762	7.0
41.777	3.0
41.792	9.0
41.806	3.0
41.821	4.0
41.836	5.0
41.851	3.0
41.866	8.0
41.88	6.0
41.895	4.0
41.91	6.0
41.925	9.0
41.939	4.0
41.954	6.0
41.969	11.0
41.984	9.0
41.999	1.0
42.013	6.0
42.028	6.0
42.043	5.0
42.058	5.0
42.073	7.0
42.088	8.0
42.102	5.0
42.117	3.0
42.132	5.0
42.147	5.0
42.162	6.0
42.176	7.0
42.191	8.0
42.206	8.0
42.221	4.0
42.236	14.0
42.251	10.0
42.266	6.0
42.28	15.0
42.295	10.0
42.31	10.0
42.325	19.0
42.34	11.0
42.355	11.0
42.369	17.0
42.384	11.0
42.399	16.0
42.414	15.0
42.429	10.0
42.444	20.0
42.459	14.0
42.474	10.0
42.488	13.0
42.503	10.0
42.518	7.0
42.533	8.0
42.548	8.0
42.563	14.0
42.578	10.0
42.593	9.0
42.608	14.0
42.622	9.0
42.637	8.0
42.652	10.0
42.667	16.0
42.682	14.0
42.697	11.0
42.712	18.0
42.727	7.0
42.742	7.0
42.757	7.0
42.772	8.0
42.786	5.0
42.801	5.0
42.816	6.0
42.831	5.0
42.846	4.0
42.861	6.0
42.876	7.0
42.891	5.0
42.906	7.0
42.921	6.0
42.936	9.0
42.951	7.0
42.966	6.0
42.981	7.0
42.996	4.0
43.011	4.0
43.025	4.0
43.04	3.0
43.055	7.0
43.07	5.0
43.085	8.0
43.1	2.0
43.115	6.0
43.13	0.0
43.145	13.0
43.16	8.0
43.175	5.0
43.19	10.0
43.205	9.0
43.22	2.0
43.235	10.0
43.25	2.0
43.265	5.0
43.28	9.0
43.295	8.0
43.31	6.0
43.325	6.0
43.34	5.0
43.355	3.0
43.37	4.0
43.385	7.0
43.4	4.0
43.415	4.0
43.43	6.0
43.445	6.0
43.46	6.0
43.475	8.0
43.49	7.0
43.505	9.0
43.52	10.0
43.535	5.0
43.55	8.0
43.565	6.0
43.58	11.0
43.595	5.0
43.61	10.0
43.625	10.0
43.64	11.0
43.655	12.0
43.67	10.0
43.685	8.0
43.7	8.0
43.715	4.0
43.73	10.0
43.745	7.0
43.76	7.0
43.775	7.0
43.79	7.0
43.805	6.0
43.82	7.0
43.835	6.0
43.85	11.0
43.865	5.0
43.88	6.0
43.895	5.0
43.91	6.0
43.925	8.0
43.94	7.0
43.955	5.0
43.97	9.0
43.985	5.0
44.0	5.0
44.015	7.0
44.03	5.0
44.045	4.0
44.061	5.0
44.076	5.0
44.091	7.0
44.106	5.0
44.121	8.0
44.136	7.0
44.151	7.0
44.166	8.0
44.181	5.0
44.196	4.0
44.211	6.0
44.226	3.0
44.241	8.0
44.256	6.0
44.271	3.0
44.286	6.0
44.301	3.0
44.316	6.0
44.331	7.0
44.346	7.0
44.361	4.0
44.377	6.0
44.392	4.0
44.407	4.0
44.422	6.0
44.437	6.0
44.452	4.0
44.467	5.0
44.482	9.0
44.497	3.0
44.512	6.0
44.527	9.0
44.542	4.0
44.557	3.0
44.572	4.0
44.587	1.0
44.602	1.0
44.617	6.0
44.632	4.0
44.647	7.0
44.663	10.0
44.678	4.0
44.693	5.0
44.708	11.0
44.723	11.0
44.738	9.0
44.753	8.0
44.768	15.0
44.783	11.0
44.798	16.0
44.813	11.0
44.828	7.0
44.843	14.0
44.858	5.0
44.873	7.0
44.888	9.0
44.903	10.0
44.918	6.0
44.933	6.0
44.948	8.0
44.964	6.0
44.979	11.0
44.994	9.0
45.009	9.0
45.024	4.0
45.039	11.0
45.054	6.0
45.069	9.0
45.084	5.0
45.099	5.0
45.114	9.0
45.129	9.0
45.144	8.0
45.159	4.0
45.174	8.0
45.189	4.0
45.204	8.0
45.219	5.0
45.234	3.0
45.249	6.0
45.264	4.0
45.279	2.0
45.294	3.0
45.309	4.0
45.324	4.0
45.339	8.0
45.354	10.0
45.369	4.0
45.384	4.0
45.399	7.0
45.414	3.0
45.429	3.0
45.444	3.0
45.459	5.0
45.474	8.0
45.489	2.0
45.504	7.0
45.519	6.0
45.534	9.0
45.549	3.0
45.564	5.0
45.579	4.0
45.594	5.0
45.609	3.0
45.624	8.0
45.639	4.0
45.654	5.0
45.669	4.0
45.684	7.0
45.699	5.0
45.714	6.0
45.729	3.0
45.744	4.0
45.759	8.0
45.774	3.0
45.789	4.0
45.804	7.0
45.819	6.0
45.834	6.0
45.849	6.0
45.864	5.0
45.879	6.0
45.894	13.0
45.909	17.0
45.924	12.0
45.939	9.0
45.954	19.0
45.969	12.0
45.984	21.0
45.998	16.0
46.013	16.0
46.028	10.0
46.043	15.0
46.058	9.0
46.073	9.0
46.088	11.0
46.103	8.0
46.118	4.0
46.133	4.0
46.148	1.0
46.163	9.0
46.178	7.0
46.192	10.0
46.207	9.0
46.222	14.0
46.237	12.0
46.252	10.0
46.267	13.0
46.282	15.0
46.297	6.0
46.312	11.0
46.327	6.0
46.341	14.0
46.356	15.0
46.371	10.0
46.386	19.0
46.401	4.0
46.416	6.0
46.431	3.0
46.446	5.0
46.46	5.0
46.475	4.0
46.49	7.0
46.505	7.0
46.52	6.0
46.535	4.0
46.55	5.0
46.564	7.0
46.579	6.0
46.594	4.0
46.609	7.0
46.624	5.0
46.639	6.0
46.654	4.0
46.668	7.0
46.683	8.0
46.698	2.0
46.713	5.0
46.728	4.0
46.743	5.0
46.758	7.0
46.772	5.0
46.787	9.0
46.802	3.0
46.817	1.0
46.832	5.0
46.847	4.0
46.861	4.0
46.876	3.0
46.891	4.0
46.906	8.0
46.921	7.0
46.936	5.0
46.95	4.0
46.965	4.0
46.98	4.0
46.995	4.0
47.01	10.0
47.025	7.0
47.039	2.0
47.054	8.0
47.069	10.0
47.084	9.0
47.099	5.0
47.113	9.0
47.128	10.0
47.143	8.0
47.158	10.0
47.173	8.0
47.188	7.0
47.202	12.0
47.217	9.0
47.232	8.0
47.247	5.0
47.262	10.0
47.277	5.0
47.291	6.0
47.306	9.0
47.321	3.0
47.336	4.0
47.351	9.0
47.365	5.0
47.38	4.0
47.395	2.0
47.41	6.0
47.425	11.0
47.44	9.0
47.454	6.0
47.469	10.0
47.484	11.0
47.499	8.0
47.514	8.0
47.528	6.0
47.543	1.0
47.558	6.0
47.573	9.0
47.588	4.0
47.603	2.0
47.617	3.0
47.632	8.0
47.647	7.0
47.662	7.0
47.677	2.0
47.691	4.0
47.706	1.0
47.721	6.0
47.736	1.0
47.751	5.0
47.766	3.0
47.78	3.0
47.795	6.0
47.81	4.0
47.825	2.0
47.84	5.0
47.855	5.0
47.869	5.0
47.884	6.0
47.899	10.0
47.914	10.0
47.929	6.0
47.944	7.0
47.958	4.0
47.973	5.0
47.988	3.0
48.003	5.0
48.018	5.0
48.033	3.0
48.047	5.0
48.062	3.0
48.077	12.0
48.092	2.0
48.107	5.0
48.122	5.0
48.137	5.0
48.151	4.0
48.166	5.0
48.181	6.0
48.196	8.0
48.211	6.0
48.226	2.0
48.241	5.0
48.255	8.0
48.27	0.0
48.285	6.0
48.3	4.0
48.315	3.0
48.33	3.0
48.345	6.0
48.359	7.0
48.374	1.0
48.389	6.0
48.404	4.0
48.419	5.0
48.434	7.0
48.449	4.0
48.464	3.0
48.478	4.0
48.493	4.0
48.508	3.0
48.523	4.0
48.538	3.0
48.553	13.0
48.568	4.0
48.583	1.0
48.597	5.0
48.612	4.0
48.627	4.0
48.642	4.0
48.657	4.0
48.672	8.0
48.687	3.0
48.702	3.0
48.717	3.0
48.731	4.0
48.746	4.0
48.761	7.0
48.776	6.0
48.791	1.0
48.806	6.0
48.821	6.0
48.836	7.0
48.851	5.0
48.866	8.0
48.88	4.0
48.895	6.0
48.91	5.0
48.925	9.0
48.94	3.0
48.955	8.0
48.97	4.0
48.985	4.0
49.0	6.0
49.015	5.0
49.03	9.0
49.044	5.0
49.059	6.0
49.074	9.0
49.089	4.0
49.104	9.0
49.119	3.0
49.134	7.0
49.149	6.0
49.164	10.0
49.179	3.0
49.194	1.0
49.209	4.0
49.224	2.0
49.238	2.0
49.253	3.0
49.268	2.0
49.283	8.0
49.298	2.0
49.313	11.0
49.328	5.0
49.343	4.0
49.358	3.0
49.373	10.0
49.388	6.0
49.403	8.0
49.418	9.0
49.433	5.0
49.448	8.0
49.463	5.0
49.478	4.0
49.492	4.0
49.507	3.0
49.522	4.0
49.537	5.0
49.552	5.0
49.567	4.0
49.582	8.0
49.597	7.0
49.612	8.0
49.627	7.0
49.642	9.0
49.657	6.0
49.672	10.0
49.687	6.0
49.702	9.0
49.717	6.0
49.732	4.0
49.747	11.0
49.762	8.0
49.777	7.0
49.792	7.0
49.807	4.0
49.822	6.0
49.837	1.0
49.852	4.0
49.867	5.0
49.882	6.0
49.897	5.0
49.912	6.0
49.927	7.0
49.942	4.0
49.957	1.0
49.971	6.0
49.986	10.0
50.001	5.0
50.016	2.0
50.031	9.0
50.046	4.0
50.061	4.0
50.076	4.0
50.091	5.0
50.106	6.0
50.121	2.0
50.136	7.0
50.151	5.0
50.166	10.0
50.181	3.0
50.196	5.0
50.211	9.0
50.226	4.0
50.241	2.0
50.256	6.0
50.271	4.0
50.286	7.0
50.302	6.0
50.317	10.0
50.332	2.0
50.347	6.0
50.362	5.0
50.377	8.0
50.392	6.0
50.407	7.0
50.422	7.0
50.437	5.0
50.452	14.0
50.467	12.0
50.482	6.0
50.497	0.0
50.512	6.0
50.527	7.0
50.542	8.0
50.557	4.0
50.572	3.0
50.587	7.0
50.602	10.0
50.617	4.0
50.632	6.0
50.647	4.0
50.662	3.0
50.677	3.0
50.692	7.0
50.707	10.0
50.722	8.0
50.737	7.0
50.752	5.0
50.767	9.0
50.782	4.0
50.797	8.0
50.812	4.0
50.828	10.0
50.843	7.0
50.858	6.0
50.873	4.0
50.888	2.0
50.903	10.0
50.918	4.0
50.933	7.0
50.948	4.0
50.963	3.0
50.978	10.0
50.993	6.0
51.008	3.0
51.023	5.0
51.038	6.0
51.053	2.0
51.068	5.0
51.083	5.0
51.098	3.0
51.114	1.0
51.129	6.0
51.144	3.0
51.159	3.0
51.174	6.0
51.189	9.0
51.204	7.0
51.219	3.0
51.234	5.0
51.249	4.0
51.264	9.0
51.279	7.0
51.294	1.0
51.309	2.0
51.324	4.0
51.34	4.0
51.355	9.0
51.37	3.0
51.385	15.0
51.4	5.0
51.415	8.0
51.43	11.0
51.445	11.0
51.46	14.0
51.475	14.0
51.49	9.0
51.505	12.0
51.52	17.0
51.535	13.0
51.551	11.0
51.566	14.0
51.581	13.0
51.596	15.0
51.611	9.0
51.626	7.0
51.641	6.0
51.656	8.0
51.671	9.0
51.686	9.0
51.701	5.0
51.716	8.0
51.732	9.0
51.747	7.0
51.762	8.0
51.777	8.0
51.792	13.0
51.807	9.0
51.822	14.0
51.837	8.0
51.852	10.0
51.867	16.0
51.882	8.0
51.898	5.0
51.913	9.0
51.928	12.0
51.943	7.0
51.958	10.0
51.973	5.0
51.988	12.0
52.003	3.0
52.018	9.0
52.033	6.0
52.048	9.0
52.064	4.0
52.079	1.0
52.094	5.0
52.109	5.0
52.124	4.0
52.139	6.0
52.154	5.0
52.169	7.0
52.184	5.0
52.199	5.0
52.215	6.0
52.23	6.0
52.245	8.0
52.26	7.0
52.275	3.0
52.29	4.0
52.305	6.0
52.32	7.0
52.335	5.0
52.35	6.0
52.366	9.0
52.381	7.0
52.396	8.0
52.411	8.0
52.426	2.0
52.441	5.0
52.456	4.0
52.471	9.0
52.486	8.0
52.502	10.0
52.517	5.0
52.532	6.0
52.547	13.0
52.562	8.0
52.577	6.0
52.592	14.0
52.607	4.0
52.622	6.0
52.637	9.0
52.653	6.0
52.668	8.0
52.683	11.0
52.698	4.0
52.713	6.0
52.728	7.0
52.743	4.0
52.758	5.0
52.774	11.0
52.789	7.0
52.804	7.0
52.819	7.0
52.834	4.0
52.849	9.0
52.864	8.0
52.879	4.0
52.894	8.0
52.91	13.0
52.925	8.0
52.94	9.0
52.955	6.0
52.97	11.0
52.985	10.0
53.0	7.0
53.015	3.0
53.031	5.0
53.046	9.0
53.061	4.0
53.076	5.0
53.091	4.0
53.106	6.0
53.121	3.0
53.136	3.0
53.152	7.0
53.167	3.0
53.182	5.0
53.197	6.0
53.212	3.0
53.227	8.0
53.242	5.0
53.257	4.0
53.273	4.0
53.288	5.0
53.303	5.0
53.318	3.0
53.333	4.0
53.348	10.0
53.363	3.0
53.379	5.0
53.394	9.0
53.409	3.0
53.424	8.0
53.439	4.0
53.454	6.0
53.469	2.0
53.484	3.0
53.5	4.0
53.515	4.0
53.53	6.0
53.545	9.0
53.56	6.0
53.575	4.0
53.59	7.0
53.606	11.0
53.621	6.0
53.636	7.0
53.651	9.0
53.666	4.0
53.681	3.0
53.696	4.0
53.712	6.0
53.727	8.0
53.742	7.0
53.757	5.0
53.772	7.0
53.787	2.0
53.802	4.0
53.818	2.0
53.833	5.0
53.848	5.0
53.863	5.0
53.878	7.0
53.893	2.0
53.909	7.0
53.924	5.0
53.939	6.0
53.954	2.0
53.969	6.0
53.984	1.0
53.999	2.0
54.015	4.0
54.03	4.0
54.045	4.0
54.06	6.0
54.075	3.0
54.09	4.0
54.106	4.0
54.121	10.0
54.136	4.0
54.151	6.0
54.166	8.0
54.181	3.0
54.197	9.0
54.212	4.0
54.227	4.0
54.242	6.0
54.257	6.0
54.272	7.0
54.288	6.0
54.303	3.0
54.318	10.0
54.333	1.0
54.348	3.0
54.363	5.0
54.379	6.0
54.394	6.0
54.409	6.0
54.424	3.0
54.439	5.0
54.454	5.0
54.47	10.0
54.485	4.0
54.5	7.0
54.515	5.0
54.53	7.0
54.545	7.0
54.561	10.0
54.576	13.0
54.591	8.0
54.606	12.0
54.621	14.0
54.636	9.0
54.652	12.0
54.667	15.0
54.682	13.0
54.697	11.0
54.712	13.0
54.727	11.0
54.743	11.0
54.758	4.0
54.773	4.0
54.788	15.0
54.803	14.0
54.819	5.0
54.834	7.0
54.849	11.0
54.864	5.0
54.879	6.0
54.894	9.0
54.91	8.0
54.925	9.0
54.94	9.0
54.955	6.0
54.97	4.0
54.985	8.0
55.001	10.0
55.016	8.0
55.031	5.0
55.046	7.0
55.061	13.0
55.077	5.0
55.092	7.0
55.107	4.0
55.122	3.0
55.137	3.0
55.152	2.0
55.168	5.0
55.183	2.0
55.198	5.0
55.213	3.0
55.228	5.0
55.243	3.0
55.259	4.0
55.274	5.0
55.289	2.0
55.304	4.0
55.319	3.0
55.335	4.0
55.35	1.0
55.365	4.0
55.38	3.0
55.395	2.0
55.41	8.0
55.426	4.0
55.441	3.0
55.456	8.0
55.471	6.0
55.486	9.0
55.501	3.0
55.517	4.0
55.532	6.0
55.547	7.0
55.562	4.0
55.577	6.0
55.592	5.0
55.608	5.0
55.623	6.0
55.638	7.0
55.653	8.0
55.668	9.0
55.683	4.0
55.699	4.0
55.714	9.0
55.729	8.0
55.744	12.0
55.759	6.0
55.774	7.0
55.79	7.0
55.805	3.0
55.82	4.0
55.835	5.0
55.85	7.0
55.865	7.0
55.881	4.0
55.896	8.0
55.911	3.0
55.926	3.0
55.941	11.0
55.956	4.0
55.972	1.0
55.987	7.0
56.002	5.0
56.017	5.0
56.032	4.0
56.047	4.0
56.063	7.0
56.078	7.0
56.093	9.0
56.108	6.0
56.123	13.0
56.138	4.0
56.154	4.0
56.169	4.0
56.184	7.0
56.199	2.0
56.214	5.0
56.229	4.0
56.244	4.0
56.26	7.0
56.275	2.0
56.29	9.0
56.305	5.0
56.32	1.0
56.335	5.0
56.351	4.0
56.366	6.0
56.381	6.0
56.396	3.0
56.411	4.0
56.426	8.0
56.441	3.0
56.457	4.0
56.472	5.0
56.487	0.0
56.502	6.0
56.517	5.0
56.532	3.0
56.547	3.0
56.563	4.0
56.578	5.0
56.593	5.0
56.608	8.0
56.623	3.0
56.638	4.0
56.653	4.0
56.668	5.0
56.684	3.0
56.699	6.0
56.714	4.0
56.729	3.0
56.744	2.0
56.759	1.0
56.774	2.0
56.79	5.0
56.805	4.0
56.82	5.0
56.835	5.0
56.85	2.0
56.865	3.0
56.88	4.0
56.895	4.0
56.911	6.0
56.926	6.0
56.941	4.0
56.956	3.0
56.971	5.0
56.986	3.0
57.001	3.0
57.016	6.0
57.031	7.0
57.047	4.0
57.062	6.0
57.077	6.0
57.092	4.0
57.107	5.0
57.122	6.0
57.137	3.0
57.152	2.0
57.167	5.0
57.183	5.0
57.198	3.0
57.213	4.0
57.228	0.0
57.243	4.0
57.258	6.0
57.273	4.0
57.288	5.0
57.303	7.0
57.318	4.0
57.334	5.0
57.349	3.0
57.364	3.0
57.379	1.0
57.394	4.0
57.409	5.0
57.424	3.0
57.439	3.0
57.454	4.0
57.469	6.0
57.484	4.0
57.5	1.0
57.515	3.0
57.53	7.0
57.545	5.0
57.56	5.0
57.575	4.0
57.59	5.0
57.605	8.0
57.62	8.0
57.635	7.0
57.65	5.0
57.665	8.0
57.68	6.0
57.696	3.0
57.711	8.0
57.726	6.0
57.741	5.0
57.756	8.0
57.771	8.0
57.786	8.0
57.801	6.0
57.816	1.0
57.831	3.0
57.846	4.0
57.861	6.0
57.876	3.0
57.891	3.0
57.906	2.0
57.921	4.0
57.937	4.0
57.952	2.0
57.967	2.0
57.982	4.0
57.997	4.0
58.012	3.0
58.027	2.0
58.042	4.0
58.057	0.0
58.072	1.0
58.087	2.0
58.102	5.0
58.117	3.0
58.132	3.0
58.147	8.0
58.162	4.0
58.177	5.0
58.192	7.0
58.207	6.0
58.222	4.0
58.237	7.0
58.252	3.0
58.267	7.0
58.282	4.0
58.297	3.0
58.312	5.0
58.327	1.0
58.342	2.0
58.357	2.0
58.372	5.0
58.387	3.0
58.402	4.0
58.418	4.0
58.433	5.0
58.448	4.0
58.463	5.0
58.478	3.0
58.493	2.0
58.508	4.0
58.523	7.0
58.538	6.0
58.553	5.0
58.568	9.0
58.583	6.0
58.598	5.0
58.613	7.0
58.628	14.0
58.643	12.0
58.658	9.0
58.673	12.0
58.688	4.0
58.703	10.0
58.718	15.0
58.733	8.0
58.748	6.0
58.763	6.0
58.778	2.0
58.793	4.0
58.808	8.0
58.823	3.0
58.838	4.0
58.853	4.0
58.868	5.0
58.883	7.0
58.898	5.0
58.913	3.0
58.928	6.0
58.942	2.0
58.957	9.0
58.972	4.0
58.987	14.0
59.002	7.0
59.017	6.0
59.032	6.0
59.047	10.0
59.062	2.0
59.077	3.0
59.092	7.0
59.107	7.0
59.122	7.0
59.137	0.0
59.152	4.0
59.167	7.0
59.182	6.0
59.197	3.0
59.212	5.0
59.227	6.0
59.242	4.0
59.257	6.0
59.272	10.0
59.287	4.0
59.302	4.0
59.317	4.0
59.332	6.0
59.347	2.0
59.362	5.0
59.377	4.0
59.392	5.0
59.407	4.0
59.422	5.0
59.437	7.0
59.452	3.0
59.467	5.0
59.482	5.0
59.497	3.0
59.512	2.0
59.527	8.0
59.542	3.0
59.557	10.0
59.572	9.0
59.587	13.0
59.602	7.0
59.617	11.0
59.632	8.0
59.647	10.0
59.661	9.0
59.676	10.0
59.691	5.0
59.706	7.0
59.721	6.0
59.736	7.0
59.751	3.0
59.766	3.0
59.781	4.0
59.796	5.0
59.811	2.0
59.826	7.0
59.841	4.0
59.856	6.0
59.871	6.0
59.886	2.0
59.901	5.0
59.916	11.0
59.931	9.0
59.946	2.0
59.961	4.0
59.976	7.0
59.991	6.0
60.006	4.0
60.021	8.0
60.036	2.0
60.051	8.0
60.066	8.0
60.081	6.0
60.096	4.0
60.111	3.0
60.126	7.0
60.141	5.0
60.156	6.0
60.171	3.0
60.186	6.0
60.201	6.0
60.216	7.0
60.231	2.0
60.246	5.0
60.261	6.0
60.276	4.0
60.291	2.0
60.306	3.0
60.321	3.0
60.336	5.0
60.35	4.0
60.365	5.0
60.38	9.0
60.395	5.0
60.41	3.0
60.425	4.0
60.44	4.0
60.455	8.0
60.47	5.0
60.485	7.0
60.5	4.0
60.515	6.0
60.53	7.0
60.545	8.0
60.56	8.0
60.575	11.0
60.59	14.0
60.605	9.0
60.62	7.0
60.635	5.0
60.65	7.0
60.665	2.0
60.68	7.0
60.695	4.0
60.71	6.0
60.725	7.0
60.74	8.0
60.755	6.0
60.77	2.0
60.785	5.0
60.8	6.0
60.815	3.0
60.83	4.0
60.845	6.0
60.86	7.0
60.875	6.0
60.89	4.0
60.905	6.0
60.92	6.0
60.935	4.0
60.95	9.0
60.965	4.0
60.98	5.0
60.995	7.0
61.01	4.0
61.025	8.0
61.04	5.0
61.055	6.0
61.07	5.0
61.085	2.0
61.1	6.0
61.115	1.0
61.13	4.0
61.145	6.0
61.16	6.0
61.175	1.0
61.191	2.0
61.206	3.0
61.221	5.0
61.236	2.0
61.251	3.0
61.266	6.0
61.281	5.0
61.296	5.0
61.311	7.0
61.326	4.0
61.341	3.0
61.356	5.0
61.371	6.0
61.386	5.0
61.401	4.0
61.416	5.0
61.431	4.0
61.446	7.0
61.461	0.0
61.476	8.0
61.491	6.0
61.506	8.0
61.521	6.0
61.536	8.0
61.551	7.0
61.566	7.0
61.581	0.0
61.596	7.0
61.611	2.0
61.626	4.0
61.641	7.0
61.656	5.0
61.672	5.0
61.687	7.0
61.702	3.0
61.717	5.0
61.732	3.0
61.747	3.0
61.762	4.0
61.777	7.0
61.792	2.0
61.807	6.0
61.822	6.0
61.837	5.0
61.852	5.0
61.867	4.0
61.882	3.0
61.897	6.0
61.912	3.0
61.927	4.0
61.943	4.0
61.958	4.0
61.973	8.0
61.988	6.0
62.003	1.0
62.018	5.0
62.033	5.0
62.048	1.0
62.063	0.0
62.078	5.0
62.093	1.0
62.108	6.0
62.123	2.0
62.138	2.0
62.153	2.0
62.169	5.0
62.184	3.0
62.199	3.0
62.214	5.0
62.229	4.0
62.244	3.0
62.259	7.0
62.274	3.0
62.289	4.0
62.304	7.0
62.319	5.0
62.335	5.0
62.35	3.0
62.365	4.0
62.38	1.0
62.395	5.0
62.41	2.0
62.425	2.0
62.44	6.0
62.455	8.0
62.47	4.0
62.485	3.0
62.501	8.0
62.516	7.0
62.531	2.0
62.546	6.0
62.561	2.0
62.576	6.0
62.591	3.0
62.606	5.0
62.621	3.0
62.636	7.0
62.652	5.0
62.667	1.0
62.682	2.0
62.697	4.0
62.712	4.0
62.727	5.0
62.742	5.0
62.757	13.0
62.772	6.0
62.787	2.0
62.803	8.0
62.818	5.0
62.833	1.0
62.848	4.0
62.863	6.0
62.878	0.0
62.893	4.0
62.908	2.0
62.923	1.0
62.939	3.0
62.954	9.0
62.969	4.0
62.984	3.0
62.999	5.0
63.014	2.0
63.029	4.0
63.044	2.0
63.059	5.0
63.074	3.0
63.09	4.0
63.105	2.0
63.12	7.0
63.135	4.0
63.15	2.0
63.165	3.0
63.18	4.0
63.195	3.0
63.21	8.0
63.226	9.0
63.241	2.0
63.256	5.0
63.271	4.0
63.286	4.0
63.301	6.0
63.316	7.0
63.331	7.0
63.346	4.0
63.362	3.0
63.377	6.0
63.392	14.0
63.407	5.0
63.422	9.0
63.437	5.0
63.452	5.0
63.467	3.0
63.482	4.0
63.497	8.0
63.513	3.0
63.528	3.0
63.543	6.0
63.558	3.0
63.573	8.0
63.588	5.0
63.603	3.0
63.618	0.0
63.633	2.0
63.648	3.0
63.664	5.0
63.679	3.0
63.694	4.0
63.709	4.0
63.724	2.0
63.739	5.0
63.754	2.0
63.769	3.0
63.784	6.0
63.799	8.0
63.814	8.0
63.83	3.0
63.845	6.0
63.86	10.0
63.875	5.0
63.89	8.0
63.905	8.0
63.92	6.0
63.935	3.0
63.95	7.0
63.965	1.0
63.98	3.0
63.996	5.0
64.011	3.0
64.026	5.0
64.041	2.0
64.056	7.0
64.071	4.0
64.086	4.0
64.101	3.0
64.116	5.0
64.131	3.0
64.146	4.0
64.161	2.0
64.176	3.0
64.191	0.0
64.207	5.0
64.222	6.0
64.237	2.0
64.252	3.0
64.267	5.0
64.282	3.0
64.297	7.0
64.312	3.0
64.327	2.0
64.342	3.0
64.357	2.0
64.372	4.0
64.387	5.0
64.402	1.0
64.417	5.0
64.433	6.0
64.448	4.0
64.463	1.0
64.478	5.0
64.493	4.0
64.508	3.0
64.523	2.0
64.538	6.0
64.553	2.0
64.568	3.0
64.583	1.0
64.598	1.0
64.613	1.0
64.628	3.0
64.643	4.0
64.658	2.0
64.673	3.0
64.688	4.0
64.703	1.0
64.718	5.0
64.734	5.0
64.749	7.0
64.764	6.0
64.779	6.0
64.794	7.0
64.809	4.0
64.824	8.0
64.839	3.0
64.854	2.0
64.869	3.0
64.884	4.0
64.899	9.0
64.914	3.0
64.929	8.0
64.944	4.0
64.959	5.0
64.974	5.0
64.989	1.0
65.004	6.0
65.019	5.0
65.034	1.0
65.049	3.0
65.064	6.0
65.079	3.0
65.094	3.0
65.109	1.0
65.125	7.0
65.14	3.0
65.155	6.0
65.17	2.0
65.185	4.0
65.2	2.0
65.215	4.0
65.23	2.0
65.245	4.0
65.26	7.0
65.275	6.0
65.29	5.0
65.305	1.0
65.32	8.0
65.335	6.0
65.35	6.0
65.365	2.0
65.38	6.0
65.395	5.0
65.41	6.0
65.425	4.0
65.44	4.0
65.455	3.0
65.47	3.0
65.485	4.0
65.5	2.0
65.515	3.0
65.53	4.0
65.545	4.0
65.56	3.0
65.575	3.0
65.59	7.0
65.605	5.0
65.62	6.0
65.635	3.0
65.65	6.0
65.666	3.0
65.681	3.0
65.696	3.0
65.711	8.0
65.726	4.0
65.741	4.0
65.756	1.0
65.771	1.0
65.786	4.0
65.801	4.0
65.816	5.0
65.831	1.0
65.846	3.0
65.861	3.0
65.876	4.0
65.891	1.0
65.906	3.0
65.921	4.0
65.936	5.0
65.951	6.0
65.966	3.0
65.981	4.0
65.996	4.0
66.011	3.0
66.026	4.0
66.041	5.0
66.056	3.0
66.071	9.0
66.086	5.0
66.101	5.0
66.116	4.0
66.131	5.0
66.146	4.0
66.161	10.0
66.176	11.0
66.191	7.0
66.206	10.0
66.221	8.0
66.236	7.0
66.251	10.0
66.266	5.0
66.281	7.0
66.296	4.0
66.311	3.0
66.327	4.0
66.342	7.0
66.357	6.0
66.372	3.0
66.387	3.0
66.402	6.0
66.417	3.0
66.432	5.0
66.447	4.0
66.462	3.0
66.477	4.0
66.492	3.0
66.507	4.0
66.522	2.0
66.537	9.0
66.552	3.0
66.567	3.0
66.582	4.0
66.597	7.0
66.612	4.0
66.627	5.0
66.642	6.0
66.657	7.0
66.672	7.0
66.687	8.0
66.702	4.0
66.717	5.0
66.732	8.0
66.747	2.0
66.762	2.0
66.777	6.0
66.792	3.0
66.807	1.0
66.822	2.0
66.837	3.0
66.853	2.0
66.868	6.0
66.883	2.0
66.898	5.0
66.913	6.0
66.928	7.0
66.943	3.0
66.958	2.0
66.973	3.0
66.988	5.0
67.003	5.0
67.018	5.0
67.033	6.0
67.048	6.0
67.063	5.0
67.078	4.0
67.093	7.0
67.108	10.0
67.123	11.0
67.138	1.0
67.153	4.0
67.168	1.0
67.183	7.0
67.198	6.0
67.214	6.0
67.229	4.0
67.244	8.0
67.259	2.0
67.274	1.0
67.289	6.0
67.304	9.0
67.319	1.0
67.334	4.0
67.349	0.0
67.364	1.0
67.379	5.0
67.394	3.0
67.409	6.0
67.424	3.0
67.439	2.0
67.454	6.0
67.469	2.0
67.484	0.0
67.5	2.0
67.515	4.0
67.53	6.0
67.545	3.0
67.56	3.0
67.575	6.0
67.59	8.0
67.605	1.0
67.62	4.0
67.635	1.0
67.65	3.0
67.665	7.0
67.68	2.0
67.695	2.0
67.71	2.0
67.726	5.0
67.741	2.0
67.756	3.0
67.771	4.0
67.786	2.0
67.801	3.0
67.816	4.0
67.831	3.0
67.846	2.0
67.861	7.0
67.876	2.0
67.891	1.0
67.906	3.0
67.922	5.0
67.937	7.0
67.952	4.0
67.967	6.0
67.982	6.0
67.997	4.0
68.012	3.0
68.027	6.0
68.042	4.0
68.057	4.0
68.072	9.0
68.087	7.0
68.103	1.0
68.118	3.0
68.133	4.0
68.148	2.0
68.163	2.0
68.178	5.0
68.193	1.0
68.208	4.0
68.223	4.0
68.238	7.0
68.254	1.0
68.269	2.0
68.284	5.0
68.299	6.0
68.314	2.0
68.329	1.0
68.344	8.0
68.359	0.0
68.374	7.0
68.389	5.0
68.405	2.0
68.42	2.0
68.435	0.0
68.45	7.0
68.465	5.0
68.48	8.0
68.495	4.0
68.51	1.0
68.525	3.0
68.54	5.0
68.556	3.0
68.571	4.0
68.586	4.0
68.601	2.0
68.616	4.0
68.631	4.0
68.646	2.0
68.661	1.0
68.676	5.0
68.691	7.0
68.707	4.0
68.722	2.0
68.737	2.0
68.752	8.0
68.767	6.0
68.782	7.0
68.797	5.0
68.812	4.0
68.827	4.0
68.842	3.0
68.857	4.0
68.873	10.0
68.888	3.0
68.903	1.0
68.918	6.0
68.933	6.0
68.948	6.0
68.963	4.0
68.978	2.0
68.993	4.0
69.008	3.0
69.023	7.0
69.038	4.0
69.054	0.0
69.069	5.0
69.084	2.0
69.099	1.0
69.114	2.0
69.129	8.0
69.144	6.0
69.159	3.0
69.174	4.0
69.189	2.0
69.204	8.0
69.219	2.0
69.234	3.0
69.249	8.0
69.264	5.0
69.279	3.0
69.295	3.0
69.31	8.0
69.325	2.0
69.34	7.0
69.355	2.0
69.37	6.0
69.385	2.0
69.4	3.0
69.415	4.0
69.43	5.0
69.445	7.0
69.46	5.0
69.475	2.0
69.49	3.0
69.505	2.0
69.52	6.0
69.535	0.0
69.55	2.0
69.565	4.0
69.58	5.0
69.595	7.0
69.61	3.0
69.625	1.0
69.64	5.0
69.655	5.0
69.67	5.0
69.685	2.0
69.7	5.0
69.715	5.0
69.73	5.0
69.745	11.0
69.76	4.0
69.775	9.0
69.79	6.0
69.805	9.0
69.82	9.0
69.835	11.0
69.85	4.0
69.865	4.0
69.88	6.0
69.895	5.0
69.909	2.0
69.924	5.0
69.939	1.0
69.954	1.0
69.969	2.0
69.984	8.0
69.999	6.0
70.014	4.0
70.029	3.0
70.044	1.0
70.059	4.0
70.074	3.0
70.088	2.0
70.103	6.0
70.118	4.0
70.133	3.0
70.148	3.0
70.163	5.0
70.178	1.0
70.193	3.0
70.208	4.0
70.222	5.0
70.237	5.0
70.252	8.0
70.267	7.0
70.282	5.0
70.297	4.0
70.312	5.0
70.327	3.0
70.341	7.0
70.356	3.0
70.371	3.0
70.386	3.0
70.401	4.0
70.416	2.0
70.43	4.0
70.445	6.0
70.46	6.0
70.475	3.0
70.49	0.0
70.505	6.0
70.519	4.0
70.534	3.0
70.549	6.0
70.564	5.0
70.579	3.0
70.594	4.0
70.608	6.0
70.623	5.0
70.638	4.0
70.653	8.0
70.668	3.0
70.683	5.0
70.697	4.0
70.712	7.0
70.727	8.0
70.742	4.0
70.757	3.0
70.771	4.0
70.786	3.0
70.801	7.0
70.816	5.0
70.831	2.0
70.845	0.0
70.86	3.0
70.875	1.0
70.89	6.0
70.905	3.0
70.92	0.0
70.934	5.0
70.949	1.0
70.964	1.0
70.979	6.0
70.994	1.0
71.008	5.0
71.023	4.0
71.038	2.0
71.053	3.0
71.068	4.0
71.082	3.0
71.097	5.0
71.112	2.0
71.127	2.0
71.142	4.0
71.156	6.0
71.171	2.0
71.186	3.0
71.201	6.0
71.216	3.0
71.231	5.0
71.245	5.0
71.26	3.0
71.275	3.0
71.29	1.0
71.305	4.0
71.319	1.0
71.334	2.0
71.349	3.0
71.364	5.0
71.379	3.0
71.394	3.0
71.408	2.0
71.423	2.0
71.438	3.0
71.453	4.0
71.468	3.0
71.483	7.0
71.497	3.0
71.512	6.0
71.527	3.0
71.542	3.0
71.557	3.0
71.572	4.0
71.586	6.0
71.601	7.0
71.616	4.0
71.631	2.0
71.646	3.0
71.661	3.0
71.676	2.0
71.69	2.0
71.705	3.0
71.72	3.0
71.735	4.0
71.75	3.0
71.765	2.0
71.78	3.0
71.795	3.0
71.81	3.0
71.824	4.0
71.839	5.0
71.854	2.0
71.869	3.0
71.884	4.0
71.899	2.0
71.914	0.0
71.929	5.0
71.944	7.0
71.959	3.0
71.974	3.0
71.988	4.0
72.003	6.0
72.018	9.0
72.033	3.0
72.048	2.0
72.063	4.0
72.078	2.0
72.093	4.0
72.108	4.0
72.123	1.0
72.138	3.0
72.153	1.0
72.168	6.0
72.183	2.0
72.198	3.0
72.213	3.0
72.228	4.0
72.243	2.0
72.258	6.0
72.273	0.0
72.288	1.0
72.303	5.0
72.318	1.0
72.333	2.0
72.348	6.0
72.363	4.0
72.378	6.0
72.393	4.0
72.408	1.0
72.423	4.0
72.438	3.0
72.453	3.0
72.468	3.0
72.483	4.0
72.498	2.0
72.513	1.0
72.528	3.0
72.543	4.0
72.558	1.0
72.573	3.0
72.588	3.0
72.603	2.0
72.618	4.0
72.633	2.0
72.649	3.0
72.664	1.0
72.679	1.0
72.694	4.0
72.709	1.0
72.724	1.0
72.739	3.0
72.754	3.0
72.769	1.0
72.784	3.0
72.799	2.0
72.814	2.0
72.829	2.0
72.845	1.0
72.86	3.0
72.875	3.0
72.89	4.0
72.905	4.0
72.92	3.0
72.935	4.0
72.95	4.0
72.965	5.0
72.98	4.0
72.996	3.0
73.011	2.0
73.026	5.0
73.041	3.0
73.056	3.0
73.071	3.0
73.086	2.0
73.101	3.0
73.117	2.0
73.132	5.0
73.147	1.0
73.162	2.0
73.177	1.0
73.192	6.0
73.207	4.0
73.222	4.0
73.238	0.0
73.253	4.0
73.268	5.0
73.283	5.0
73.298	5.0
73.313	0.0
73.328	5.0
73.343	4.0
73.359	4.0
73.374	11.0
73.389	6.0
73.404	5.0
73.419	5.0
73.434	6.0
73.449	3.0
73.465	6.0
73.48	1.0
73.495	3.0
73.51	1.0
73.525	2.0
73.54	1.0
73.556	1.0
73.571	1.0
73.586	2.0
73.601	1.0
73.616	0.0
73.631	2.0
73.646	1.0
73.662	0.0
73.677	2.0
73.692	3.0
73.707	1.0
73.722	5.0
73.737	3.0
73.752	6.0
73.768	5.0
73.783	1.0
73.798	4.0
73.813	4.0
73.828	6.0
73.843	7.0
73.859	2.0
73.874	2.0
73.889	4.0
73.904	5.0
73.919	4.0
73.934	2.0
73.949	4.0
73.965	1.0
73.98	3.0
73.995	7.0
74.01	3.0
74.025	5.0
74.04	4.0
74.056	3.0
74.071	2.0
74.086	7.0
74.101	2.0
74.116	3.0
74.131	3.0
74.146	3.0
74.162	3.0
74.177	7.0
74.192	5.0
74.207	6.0
74.222	9.0
74.237	5.0
74.252	5.0
74.268	3.0
74.283	4.0
74.298	3.0
74.313	2.0
74.328	4.0
74.343	1.0
74.358	4.0
74.374	5.0
74.389	3.0
74.404	4.0
74.419	3.0
74.434	4.0
74.449	4.0
74.464	4.0
74.48	4.0
74.495	2.0
74.51	6.0
74.525	0.0
74.54	7.0
74.555	1.0
74.57	5.0
74.586	4.0
74.601	3.0
74.616	3.0
74.631	2.0
74.646	8.0
74.661	8.0
74.676	3.0
74.691	6.0
74.707	3.0
74.722	4.0
74.737	5.0
74.752	6.0
74.767	3.0
74.782	1.0
74.797	4.0
74.813	3.0
74.828	4.0
74.843	5.0
74.858	6.0
74.873	3.0
74.888	5.0
74.903	3.0
74.918	6.0
74.934	3.0
74.949	5.0
74.964	4.0
74.979	3.0
74.994	5.0
75.009	4.0
75.024	3.0
75.04	6.0
75.055	4.0
75.07	3.0
75.085	1.0
75.1	7.0
75.115	3.0
75.13	5.0
75.145	4.0
75.161	2.0
75.176	3.0
75.191	5.0
75.206	5.0
75.221	3.0
75.236	1.0
75.251	5.0
75.266	7.0
75.282	7.0
75.297	1.0
75.312	6.0
75.327	5.0
75.342	3.0
75.357	4.0
75.372	2.0
75.387	3.0
75.403	3.0
75.418	6.0
75.433	6.0
75.448	5.0
75.463	1.0
75.478	3.0
75.493	6.0
75.509	3.0
75.524	4.0
75.539	6.0
75.554	2.0
75.569	1.0
75.584	4.0
75.599	1.0
75.614	4.0
75.63	3.0
75.645	6.0
75.66	2.0
75.675	2.0
75.69	0.0
75.705	6.0
75.72	6.0
75.735	0.0
75.751	3.0
75.766	2.0
75.781	2.0
75.796	5.0
75.811	3.0
75.826	4.0
75.841	5.0
75.856	3.0
75.872	3.0
75.887	1.0
75.902	3.0
75.917	6.0
75.932	2.0
75.947	4.0
75.962	6.0
75.977	3.0
75.993	5.0
76.008	8.0
76.023	4.0
76.038	3.0
76.053	2.0
76.068	4.0
76.083	3.0
76.098	2.0
76.114	5.0
76.129	4.0
76.144	1.0
76.159	2.0
76.174	2.0
76.189	4.0
76.204	3.0
76.22	1.0
76.235	0.0
76.25	3.0
76.265	1.0
76.28	4.0
76.295	3.0
76.31	2.0
76.325	1.0
76.341	7.0
76.356	2.0
76.371	0.0
76.386	1.0
76.401	5.0
76.416	6.0
76.431	2.0
76.446	1.0
76.462	9.0
76.477	3.0
76.492	5.0
76.507	6.0
76.522	1.0
76.537	3.0
76.552	1.0
76.567	4.0
76.583	4.0
76.598	4.0
76.613	3.0
76.628	2.0
76.643	3.0
76.658	4.0
76.673	6.0
76.688	4.0
76.704	5.0
76.719	5.0
76.734	2.0
76.749	4.0
76.764	2.0
76.779	3.0
76.794	5.0
76.809	5.0
76.824	7.0
76.84	3.0
76.855	2.0
76.87	4.0
76.885	4.0
76.9	3.0
76.915	2.0
76.93	2.0
76.945	4.0
76.96	4.0
76.976	2.0
76.991	5.0
77.006	2.0
77.021	2.0
77.036	6.0
77.051	1.0
77.066	0.0
77.081	7.0
77.096	3.0
77.112	0.0
77.127	1.0
77.142	1.0
77.157	4.0
77.172	3.0
77.187	3.0
77.202	4.0
77.217	2.0
77.232	1.0
77.247	2.0
77.263	3.0
77.278	3.0
77.293	1.0
77.308	5.0
77.323	6.0
77.338	5.0
77.353	4.0
77.368	4.0
77.383	2.0
77.398	4.0
77.413	6.0
77.428	4.0
77.444	6.0
77.459	2.0
77.474	3.0
77.489	3.0
77.504	2.0
77.519	4.0
77.534	2.0
77.549	3.0
77.564	5.0
77.579	7.0
77.594	5.0
77.609	7.0
77.624	5.0
77.64	7.0
77.655	6.0
77.67	5.0
77.685	4.0
77.7	9.0
77.715	4.0
77.73	3.0
77.745	2.0
77.76	4.0
77.775	3.0
77.79	1.0
77.805	1.0
77.82	4.0
77.835	2.0
77.85	4.0
77.865	3.0
77.88	1.0
77.895	2.0
77.91	0.0
77.926	1.0
77.941	3.0
77.956	5.0
77.971	0.0
77.986	6.0
78.001	4.0
78.016	4.0
78.031	2.0
78.046	3.0
78.061	2.0
78.076	5.0
78.091	3.0
78.106	3.0
78.121	0.0
78.136	6.0
78.151	2.0
78.166	2.0
78.181	5.0
78.196	5.0
78.211	1.0
78.226	1.0
78.241	2.0
78.256	2.0
78.271	5.0
78.286	5.0
78.301	1.0
78.316	4.0
78.331	7.0
78.346	2.0
78.361	2.0
78.376	1.0
78.391	1.0
78.406	2.0
78.421	0.0
78.436	4.0
78.451	3.0
78.466	2.0
78.481	6.0
78.496	3.0
78.511	2.0
78.526	0.0
78.541	3.0
78.556	1.0
78.571	1.0
78.586	2.0
78.601	3.0
78.616	5.0
78.631	3.0
78.646	3.0
78.661	2.0
78.676	5.0
78.691	3.0
78.706	3.0
78.721	6.0
78.736	2.0
78.751	3.0
78.766	3.0
78.781	3.0
78.796	3.0
78.811	3.0
78.826	2.0
78.841	1.0
78.856	5.0
78.871	1.0
78.885	3.0
78.9	1.0
78.915	4.0
78.93	3.0
78.945	3.0
78.96	2.0
78.975	4.0
78.99	4.0
79.005	7.0
79.02	1.0
79.035	4.0
79.05	5.0
79.065	4.0
79.08	5.0
79.095	2.0
79.11	4.0
79.125	4.0
79.14	2.0
79.155	5.0
79.17	2.0
79.185	2.0
79.2	6.0
79.215	6.0
79.23	5.0
79.245	4.0
79.26	5.0
79.275	4.0
79.29	5.0
79.304	4.0
79.319	5.0
79.334	7.0
79.349	3.0
79.364	5.0
79.379	1.0
79.394	7.0
79.409	4.0
79.424	2.0
79.439	2.0
79.454	3.0
79.469	6.0
79.484	4.0
79.499	0.0
79.514	7.0
79.529	2.0
79.544	0.0
79.559	4.0
79.574	1.0
79.589	4.0
79.604	2.0
79.619	3.0
79.634	4.0
79.649	1.0
79.664	3.0
79.679	2.0
79.693	0.0
79.708	2.0
79.723	3.0
79.738	4.0
79.753	6.0
79.768	5.0
79.783	0.0
79.798	4.0
79.813	6.0
79.828	3.0
79.843	3.0
79.858	8.0
79.873	5.0
79.888	0.0
79.903	2.0
79.918	1.0
79.933	1.0
79.948	6.0
79.963	3.0
79.978	3.0
79.993	2.0
80.008	4.0
80.023	2.0
80.038	4.0
80.053	4.0
80.068	3.0
80.083	2.0
80.098	6.0
80.113	5.0
80.128	3.0
80.143	2.0
80.158	2.0
80.173	2.0
80.188	6.0
80.202	4.0
80.217	6.0
80.232	5.0
80.247	4.0
80.262	4.0
80.277	2.0
80.292	1.0
80.307	3.0
80.322	3.0
80.337	1.0
80.352	2.0
80.367	6.0
80.382	6.0
80.397	0.0
80.412	3.0
80.427	3.0
80.442	2.0
80.457	3.0
80.472	4.0
80.487	2.0
80.502	4.0
80.517	2.0
80.532	3.0
80.547	1.0
80.562	1.0
80.577	2.0
80.592	1.0
80.607	5.0
80.622	4.0
80.637	5.0
80.652	5.0
80.667	2.0
80.682	5.0
80.697	1.0
80.712	2.0
80.727	1.0
80.742	4.0
80.757	3.0
80.772	4.0
80.787	4.0
80.802	1.0
80.817	7.0
80.832	2.0
80.847	8.0
80.862	5.0
80.877	5.0
80.892	2.0
80.907	3.0
80.922	4.0
80.937	4.0
80.952	5.0
80.967	5.0
80.982	2.0
80.997	2.0
81.012	1.0
81.027	3.0
81.042	2.0
81.057	2.0
81.072	3.0
81.087	6.0
81.101	3.0
81.116	5.0
81.131	3.0
81.146	1.0
81.161	1.0
81.176	5.0
81.191	2.0
81.206	1.0
81.221	2.0
81.236	3.0
81.251	2.0
81.266	7.0
81.281	1.0
81.296	4.0
81.311	4.0
81.326	1.0
81.341	5.0
81.356	0.0
81.371	3.0
81.386	3.0
81.401	4.0
81.416	4.0
81.431	0.0
81.446	2.0
81.461	4.0
81.476	1.0
81.491	0.0
81.506	6.0
81.521	5.0
81.536	6.0
81.55	0.0
81.565	4.0
81.58	0.0
81.595	5.0
81.61	1.0
81.625	3.0
81.64	4.0
81.655	3.0
81.67	2.0
81.685	1.0
81.7	6.0
81.715	2.0
81.73	4.0
81.745	3.0
81.76	3.0
81.775	2.0
81.79	0.0
81.805	6.0
81.819	4.0
81.834	2.0
81.849	3.0
81.864	3.0
81.879	4.0
81.894	2.0
81.909	2.0
81.924	3.0
81.939	3.0
81.954	3.0
81.969	3.0
81.984	6.0
81.999	1.0
82.013	3.0
82.028	2.0
82.043	2.0
82.058	5.0
82.073	2.0
82.088	5.0
82.103	1.0
82.118	0.0
82.133	3.0
82.148	4.0
82.163	4.0
82.177	4.0
82.192	4.0
82.207	9.0
82.222	1.0
82.237	3.0
82.252	3.0
82.267	5.0
82.282	2.0
82.297	1.0
82.312	4.0
82.326	2.0
82.341	1.0
82.356	4.0
82.371	0.0
82.386	2.0
82.401	4.0
82.416	2.0
82.431	6.0
82.445	5.0
82.46	3.0
82.475	3.0
82.49	4.0
82.505	3.0
82.52	2.0
82.535	1.0
82.55	0.0
82.565	3.0
82.579	4.0
82.594	5.0
82.609	3.0
82.624	2.0
82.639	2.0
82.654	1.0
82.669	2.0
82.684	3.0
82.698	6.0
82.713	7.0
82.728	3.0
82.743	4.0
82.758	7.0
82.773	6.0
82.788	4.0
82.803	4.0
82.817	5.0
82.832	2.0
82.847	5.0
82.862	5.0
82.877	4.0
82.892	5.0
82.907	2.0
82.922	2.0
82.937	1.0
82.951	5.0
82.966	2.0
82.981	3.0
82.996	4.0
83.011	1.0
83.026	4.0
83.041	4.0
83.056	4.0
83.07	4.0
83.085	6.0
83.1	3.0
83.115	8.0
83.13	1.0
83.145	4.0
83.16	2.0
83.175	0.0
83.19	3.0
83.204	2.0
83.219	0.0
83.234	1.0
83.249	1.0
83.264	2.0
83.279	3.0
83.294	7.0
83.309	3.0
83.324	2.0
83.339	2.0
83.353	4.0
83.368	2.0
83.383	5.0
83.398	2.0
83.413	3.0
83.428	6.0
83.443	4.0
83.458	1.0
83.473	6.0
83.488	5.0
83.503	3.0
83.517	3.0
83.532	1.0
83.547	4.0
83.562	5.0
83.577	3.0
83.592	4.0
83.607	1.0
83.622	7.0
83.637	3.0
83.652	4.0
83.667	3.0
83.682	2.0
83.697	3.0
83.712	2.0
83.727	3.0
83.741	4.0
83.756	4.0
83.771	3.0
83.786	1.0
83.801	1.0
83.816	1.0
83.831	2.0
83.846	3.0
83.861	2.0
83.876	5.0
83.891	4.0
83.906	5.0
83.921	5.0
83.936	2.0
83.951	4.0
83.966	3.0
83.981	2.0
83.996	2.0
84.011	2.0
84.026	2.0
84.041	0.0
84.056	0.0
84.071	3.0
84.086	2.0
84.101	2.0
84.116	1.0
84.131	2.0
84.146	4.0
84.161	2.0
84.176	3.0
84.191	3.0
84.206	5.0
84.221	2.0
84.236	1.0
84.251	5.0
84.266	3.0
84.281	3.0
84.296	2.0
84.311	7.0
84.326	2.0
84.341	3.0
84.356	5.0
84.371	3.0
84.386	3.0
84.401	6.0
84.416	4.0
84.431	5.0
84.446	4.0
84.461	5.0
84.476	1.0
84.492	0.0
84.507	8.0
84.522	0.0
84.537	4.0
84.552	2.0
84.567	4.0
84.582	2.0
84.597	2.0
84.612	5.0
84.627	3.0
84.642	4.0
84.657	2.0
84.672	1.0
84.687	3.0
84.702	4.0
84.717	5.0
84.733	4.0
84.748	4.0
84.763	2.0
84.778	2.0
84.793	4.0
84.808	3.0
84.823	3.0
84.838	6.0
84.853	3.0
84.868	4.0
84.883	6.0
84.898	4.0
84.913	1.0
84.929	3.0
84.944	4.0
84.959	4.0
84.974	4.0
84.989	5.0
85.004	5.0
85.019	3.0
85.034	3.0
85.049	10.0
85.064	2.0
85.079	5.0
85.094	2.0
85.11	5.0
85.125	5.0
85.14	1.0
85.155	3.0
85.17	3.0
85.185	5.0
85.2	2.0
85.215	5.0
85.23	1.0
85.245	3.0
85.26	1.0
85.276	3.0
85.291	0.0
85.306	3.0
85.321	0.0
85.336	3.0
85.351	2.0
85.366	5.0
85.381	2.0
85.396	4.0
85.411	0.0
85.426	4.0
85.441	2.0
85.457	1.0
85.472	5.0
85.487	2.0
85.502	2.0
85.517	2.0
85.532	1.0
85.547	5.0
85.562	3.0
85.577	3.0
85.592	6.0
85.607	3.0
85.622	2.0
85.637	0.0
85.653	3.0
85.668	3.0
85.683	3.0
85.698	2.0
85.713	1.0
85.728	1.0
85.743	1.0
85.758	1.0
85.773	6.0
85.788	5.0
85.803	2.0
85.818	3.0
85.833	10.0
85.848	5.0
85.863	2.0
85.879	5.0
85.894	5.0
85.909	4.0
85.924	5.0
85.939	1.0
85.954	3.0
85.969	6.0
85.984	3.0
85.999	2.0
86.014	2.0
86.029	4.0
86.044	5.0
86.059	4.0
86.074	3.0
86.089	2.0
86.104	2.0
86.119	1.0
86.134	4.0
86.149	4.0
86.164	5.0
86.179	2.0
86.194	2.0
86.209	2.0
86.224	3.0
86.239	4.0
86.254	4.0
86.269	2.0
86.284	2.0
86.299	2.0
86.314	0.0
86.33	2.0
86.345	3.0
86.36	4.0
86.375	3.0
86.39	4.0
86.405	1.0
86.42	1.0
86.435	2.0
86.45	2.0
86.465	4.0
86.48	3.0
86.495	3.0
86.51	1.0
86.525	3.0
86.54	2.0
86.555	1.0
86.57	4.0
86.585	5.0
86.6	3.0
86.615	1.0
86.63	2.0
86.645	6.0
86.659	3.0
86.674	4.0
86.689	4.0
86.704	7.0
86.719	4.0
86.734	4.0
86.749	2.0
86.764	5.0
86.779	2.0
86.794	3.0
86.809	3.0
86.824	5.0
86.839	2.0
86.854	2.0
86.869	2.0
86.884	6.0
86.899	3.0
86.914	3.0
86.929	4.0
86.944	6.0
86.959	6.0
86.974	3.0
86.989	1.0
87.004	2.0
87.019	4.0
87.034	1.0
87.049	4.0
87.064	5.0
87.079	4.0
87.094	3.0
87.109	6.0
87.124	4.0
87.139	3.0
87.154	1.0
87.169	2.0
87.184	4.0
87.199	1.0
87.214	2.0
87.229	1.0
87.244	3.0
87.259	5.0
87.274	2.0
87.289	1.0
87.304	5.0
87.319	2.0
87.334	2.0
87.349	0.0
87.364	2.0
87.379	3.0
87.394	2.0
87.409	5.0
87.424	5.0
87.438	1.0
87.453	7.0
87.468	4.0
87.483	2.0
87.498	4.0
87.513	4.0
87.528	3.0
87.543	2.0
87.558	2.0
87.573	8.0
87.588	4.0
87.603	3.0
87.618	3.0
87.633	3.0
87.648	4.0
87.663	3.0
87.678	6.0
87.693	6.0
87.708	7.0
87.723	3.0
87.738	1.0
87.753	6.0
87.768	4.0
87.783	3.0
87.798	6.0
87.813	4.0
87.828	3.0
87.843	6.0
87.858	1.0
87.873	3.0
87.888	4.0
87.903	1.0
87.918	2.0
87.933	1.0
87.948	2.0
87.963	2.0
87.978	2.0
87.993	3.0
88.008	4.0
88.023	4.0
88.038	4.0
88.053	3.0
88.068	4.0
88.083	1.0
88.098	6.0
88.113	1.0
88.128	1.0
88.143	0.0
88.158	2.0
88.174	2.0
88.189	1.0
88.204	4.0
88.219	2.0
88.234	0.0
88.249	2.0
88.264	0.0
88.279	3.0
88.294	1.0
88.309	1.0
88.324	4.0
88.339	3.0
88.354	3.0
88.369	3.0
88.384	5.0
88.399	2.0
88.414	7.0
88.429	2.0
88.444	5.0
88.459	1.0
88.474	6.0
88.489	5.0
88.504	1.0
88.519	4.0
88.534	3.0
88.549	2.0
88.564	2.0
88.58	4.0
88.595	4.0
88.61	3.0
88.625	1.0
88.64	2.0
88.655	4.0
88.67	1.0
88.685	4.0
88.7	2.0
88.715	2.0
88.73	4.0
88.745	2.0
88.76	1.0
88.775	1.0
88.79	1.0
88.805	2.0
88.82	3.0
88.835	1.0
88.85	5.0
88.865	2.0
88.88	4.0
88.895	5.0
88.911	5.0
88.926	2.0
88.941	2.0
88.956	1.0
88.971	2.0
88.986	1.0
89.001	3.0
89.016	1.0
89.031	2.0
89.046	4.0
89.061	3.0
89.076	5.0
89.091	3.0
89.106	3.0
89.121	3.0
89.136	3.0
89.151	2.0
89.166	0.0
89.181	5.0
89.196	4.0
89.211	1.0
89.227	1.0
89.242	7.0
89.257	3.0
89.272	4.0
89.287	3.0
89.302	5.0
89.317	3.0
89.332	3.0
89.347	2.0
89.362	3.0
89.377	0.0
89.392	4.0
89.407	5.0
89.422	2.0
89.437	3.0
89.452	3.0
89.467	2.0
89.482	3.0
89.497	2.0
89.512	3.0
89.527	3.0
89.542	5.0
89.557	1.0
89.572	6.0
89.587	2.0
89.602	2.0
89.617	0.0
89.632	2.0
89.647	6.0
89.662	4.0
89.677	1.0
89.693	4.0
89.708	4.0
89.723	1.0
89.738	4.0
89.753	4.0
89.768	5.0
89.783	4.0
89.798	0.0
89.813	3.0
89.828	5.0
89.843	2.0
89.858	3.0
89.873	3.0
89.888	3.0
89.903	5.0
89.918	4.0
89.933	4.0
89.948	1.0
89.963	6.0
89.978	0.0
89.993	2.0
90.008	8.0
90.023	2.0
90.038	1.0
90.053	3.0
90.068	3.0
90.083	1.0
90.097	5.0
90.112	1.0
90.127	7.0
90.142	3.0
90.157	3.0
90.172	5.0
90.187	4.0
90.202	4.0
90.217	6.0
90.232	2.0
90.247	7.0
90.262	3.0
90.277	4.0
90.292	3.0
90.307	8.0
90.322	2.0
90.337	5.0
90.352	3.0
90.367	6.0
90.382	1.0
90.397	3.0
90.412	1.0
90.427	4.0
90.442	5.0
90.457	3.0
90.472	2.0
90.487	2.0
90.501	5.0
90.516	1.0
90.531	3.0
90.546	1.0
90.561	1.0
90.576	3.0
90.591	1.0
90.606	2.0
90.621	2.0
90.636	1.0
90.651	3.0
90.666	2.0
90.681	4.0
90.696	3.0
90.711	1.0
90.726	3.0
90.741	6.0
90.755	6.0
90.77	3.0
90.785	2.0
90.8	1.0
90.815	3.0
90.83	3.0
90.845	1.0
90.86	1.0
90.875	4.0
90.89	2.0
90.905	6.0
90.92	3.0
90.935	5.0
90.95	5.0
90.965	7.0
90.979	1.0
90.994	6.0
91.009	6.0
91.024	1.0
91.039	5.0
91.054	3.0
91.069	5.0
91.084	5.0
91.099	3.0
91.114	2.0
91.129	3.0
91.144	3.0
91.159	3.0
91.174	3.0
91.188	3.0
91.203	1.0
91.218	2.0
91.233	1.0
91.248	0.0
91.263	4.0
91.278	2.0
91.293	1.0
91.308	2.0
91.323	5.0
91.338	0.0
91.353	2.0
91.368	1.0
91.383	1.0
91.398	3.0
91.412	5.0
91.427	1.0
91.442	1.0
91.457	3.0
91.472	3.0
91.487	7.0
91.502	1.0
91.517	4.0
91.532	4.0
91.547	1.0
91.562	1.0
91.577	1.0
91.592	3.0
91.607	4.0
91.622	1.0
91.637	3.0
91.652	3.0
91.666	3.0
91.681	3.0
91.696	7.0
91.711	5.0
91.726	2.0
91.741	2.0
91.756	5.0
91.771	2.0
91.786	1.0
91.801	3.0
91.816	3.0
91.831	4.0
91.846	9.0
91.861	10.0
91.876	3.0
91.891	1.0
91.906	4.0
91.921	4.0
91.936	1.0
91.951	5.0
91.966	2.0
91.981	4.0
91.995	0.0
92.01	1.0
92.025	4.0
92.04	2.0
92.055	3.0
92.07	4.0
92.085	3.0
92.1	3.0
92.115	2.0
92.13	4.0
92.145	2.0
92.16	1.0
92.175	5.0
92.19	2.0
92.205	3.0
92.22	3.0
92.235	0.0
92.25	2.0
92.265	8.0
92.28	4.0
92.295	3.0
92.31	2.0
92.325	4.0
92.34	3.0
92.355	3.0
92.37	4.0
92.385	2.0
92.4	5.0
92.415	0.0
92.43	0.0
92.445	2.0
92.46	1.0
92.475	0.0
92.49	2.0
92.505	1.0
92.52	5.0
92.535	2.0
92.55	1.0
92.565	2.0
92.58	3.0
92.595	2.0
92.61	5.0
92.625	5.0
92.64	1.0
92.655	3.0
92.67	1.0
92.685	2.0
92.7	0.0
92.715	1.0
92.73	2.0
92.745	2.0
92.76	2.0
92.775	2.0
92.79	2.0
92.805	2.0
92.82	3.0
92.835	3.0
92.85	2.0
92.865	3.0
92.88	3.0
92.895	1.0
92.91	2.0
92.925	3.0
92.94	0.0
92.955	1.0
92.97	3.0
92.985	1.0
93.0	3.0
93.015	4.0
93.03	2.0
93.045	2.0
93.06	3.0
93.075	3.0
93.09	4.0
93.105	0.0
93.12	1.0
93.135	4.0
93.15	0.0
93.165	2.0
93.18	3.0
93.195	1.0
93.21	2.0
93.225	0.0
93.24	2.0
93.255	3.0
93.27	3.0
93.285	3.0
93.3	6.0
93.315	3.0
93.33	4.0
93.345	6.0
93.36	3.0
93.375	4.0
93.39	5.0
93.405	3.0
93.42	6.0
93.435	2.0
93.45	5.0
93.465	1.0
93.48	3.0
93.495	2.0
93.51	3.0
93.525	1.0
93.54	0.0
93.555	2.0
93.57	6.0
93.585	5.0
93.6	4.0
93.615	8.0
93.63	5.0
93.645	3.0
93.66	1.0
93.675	6.0
93.69	1.0
93.705	3.0
93.72	4.0
93.735	3.0
93.75	5.0
93.765	2.0
93.78	1.0
93.795	2.0
93.81	5.0
93.824	5.0
93.839	3.0
93.854	2.0
93.869	2.0
93.884	4.0
93.899	1.0
93.914	1.0
93.929	2.0
93.944	1.0
93.959	4.0
93.974	4.0
93.989	7.0
94.004	1.0
94.019	2.0
94.034	4.0
94.049	5.0
94.064	0.0
94.079	2.0
94.094	4.0
94.108	2.0
94.123	6.0
94.138	3.0
94.153	2.0
94.168	2.0
94.183	5.0
94.198	6.0
94.213	3.0
94.228	3.0
94.243	6.0
94.258	1.0
94.273	5.0
94.288	5.0
94.302	4.0
94.317	2.0
94.332	6.0
94.347	4.0
94.362	6.0
94.377	3.0
94.392	4.0
94.407	2.0
94.422	4.0
94.437	6.0
94.452	5.0
94.466	2.0
94.481	0.0
94.496	2.0
94.511	8.0
94.526	3.0
94.541	0.0
94.556	5.0
94.571	4.0
94.586	3.0
94.601	2.0
94.615	5.0
94.63	5.0
94.645	3.0
94.66	2.0
94.675	7.0
94.69	5.0
94.705	4.0
94.72	9.0
94.735	2.0
94.749	2.0
94.764	2.0
94.779	5.0
94.794	4.0
94.809	2.0
94.824	3.0
94.839	2.0
94.854	3.0
94.868	4.0
94.883	5.0
94.898	1.0
94.913	5.0
94.928	2.0
94.943	4.0
94.958	2.0
94.973	1.0
94.987	6.0
95.002	3.0
95.017	3.0
95.032	3.0
95.047	5.0
95.062	1.0
95.077	4.0
95.092	5.0
95.106	7.0
95.121	3.0
95.136	6.0
95.151	5.0
95.166	3.0
95.181	12.0
95.196	4.0
95.211	3.0
95.226	4.0
95.24	1.0
95.255	8.0
95.27	2.0
95.285	0.0
95.3	6.0
95.315	2.0
95.33	3.0
95.345	2.0
95.359	3.0
95.374	4.0
95.389	3.0
95.404	4.0
95.419	4.0
95.434	3.0
95.449	6.0
95.464	2.0
95.478	5.0
95.493	1.0
95.508	4.0
95.523	0.0
95.538	3.0
95.553	5.0
95.568	2.0
95.583	4.0
95.597	3.0
95.612	2.0
95.627	2.0
95.642	5.0
95.657	2.0
95.672	3.0
95.687	2.0
95.702	0.0
95.717	3.0
95.731	0.0
95.746	3.0
95.761	2.0
95.776	5.0
95.791	6.0
95.806	5.0
95.821	2.0
95.836	3.0
95.851	1.0
95.866	2.0
95.88	3.0
95.895	5.0
95.91	0.0
95.925	5.0
95.94	3.0
95.955	2.0
95.97	4.0
95.985	1.0
96.0	9.0
96.015	5.0
96.029	5.0
96.044	2.0
96.059	1.0
96.074	1.0
96.089	2.0
96.104	3.0
96.119	4.0
96.134	0.0
96.149	1.0
96.164	2.0
96.179	2.0
96.194	2.0
96.208	2.0
96.223	5.0
96.238	2.0
96.253	3.0
96.268	3.0
96.283	7.0
96.298	0.0
96.313	1.0
96.328	6.0
96.343	1.0
96.358	2.0
96.373	2.0
96.388	4.0
96.403	2.0
96.417	2.0
96.432	0.0
96.447	3.0
96.462	3.0
96.477	1.0
96.492	2.0
96.507	4.0
96.522	2.0
96.537	1.0
96.552	2.0
96.567	3.0
96.582	4.0
96.597	2.0
96.612	6.0
96.627	1.0
96.642	3.0
96.656	5.0
96.671	4.0
96.686	2.0
96.701	2.0
96.716	5.0
96.731	2.0
96.746	2.0
96.761	2.0
96.776	4.0
96.791	4.0
96.806	6.0
96.821	3.0
96.836	6.0
96.851	2.0
96.866	2.0
96.881	3.0
96.896	3.0
96.911	2.0
96.926	3.0
96.94	3.0
96.955	3.0
96.97	2.0
96.985	2.0
97.0	3.0
97.015	0.0
97.03	4.0
97.045	2.0
97.06	4.0
97.075	3.0
97.09	3.0
97.105	4.0
97.12	1.0
97.135	2.0
97.15	3.0
97.165	8.0
97.18	3.0
97.195	2.0
97.21	3.0
97.225	1.0
97.239	6.0
97.254	2.0
97.269	2.0
97.284	2.0
97.299	5.0
97.314	2.0
97.329	4.0
97.344	4.0
97.359	3.0
97.374	4.0
97.389	5.0
97.404	1.0
97.419	2.0
97.434	3.0
97.449	0.0
97.464	4.0
97.479	2.0
97.494	1.0
97.509	0.0
97.524	3.0
97.538	5.0
97.553	1.0
97.568	3.0
97.583	4.0
97.598	1.0
97.613	2.0
97.628	4.0
97.643	2.0
97.658	5.0
97.673	5.0
97.688	3.0
97.703	5.0
97.718	2.0
97.733	5.0
97.748	4.0
97.763	1.0
97.778	3.0
97.792	4.0
97.807	4.0
97.822	1.0
97.837	4.0
97.852	2.0
97.867	5.0
97.882	5.0
97.897	3.0
97.912	2.0
97.927	5.0
97.942	1.0
97.957	6.0
97.972	2.0
97.987	0.0
98.001	1.0
98.016	3.0
98.031	1.0
98.046	3.0
98.061	3.0
98.076	4.0
98.091	0.0
98.106	3.0
98.121	5.0
98.136	1.0
98.151	3.0
98.166	4.0
98.181	2.0
98.195	1.0
98.21	2.0
98.225	0.0
98.24	2.0
98.255	3.0
98.27	4.0
98.285	4.0
98.3	1.0
98.315	5.0
98.33	1.0
98.345	3.0
98.359	4.0
98.374	3.0
98.389	2.0
98.404	1.0
98.419	1.0
98.434	5.0
98.449	3.0
98.464	3.0
98.479	3.0
98.494	3.0
98.508	4.0
98.523	3.0
98.538	2.0
98.553	6.0
98.568	0.0
98.583	3.0
98.598	7.0
98.613	1.0
98.628	6.0
98.642	4.0
98.657	2.0
98.672	2.0
98.687	4.0
98.702	3.0
98.717	3.0
98.732	1.0
98.747	3.0
98.762	3.0
98.776	6.0
98.791	1.0
98.806	6.0
98.821	3.0
98.836	3.0
98.851	3.0
98.866	3.0
98.881	5.0
98.896	3.0
98.91	4.0
98.925	6.0
98.94	5.0
98.955	2.0
98.97	0.0
98.985	4.0
99.0	3.0
99.015	2.0
99.029	1.0
99.044	5.0
99.059	8.0
99.074	4.0
99.089	1.0
99.104	2.0
99.119	4.0
99.133	4.0
99.148	4.0
99.163	4.0
99.178	6.0
99.193	5.0
99.208	5.0
99.223	2.0
99.238	2.0
99.252	4.0
99.267	3.0
99.282	4.0
99.297	3.0
99.312	2.0
99.327	6.0
99.342	1.0
99.356	5.0
99.371	5.0
99.386	0.0
99.401	1.0
99.416	1.0
99.431	4.0
99.446	6.0
99.461	4.0
99.475	2.0
99.49	7.0
99.505	1.0
99.52	2.0
99.535	4.0
99.55	4.0
99.565	3.0
99.579	4.0
99.594	2.0
99.609	1.0
99.624	1.0
99.639	3.0
99.654	10.0
99.669	4.0
99.683	0.0
99.698	2.0
99.713	2.0
99.728	1.0
99.743	3.0
99.758	1.0
99.772	0.0
99.787	1.0
99.802	3.0
99.817	3.0
99.832	7.0
99.847	6.0
99.862	3.0
99.876	1.0
99.891	2.0
99.906	4.0
99.921	2.0
99.936	5.0
99.951	3.0
99.966	5.0
99.98	5.0
99.995	2.0
100.01	5.0
100.025	3.0
100.04	3.0
100.055	3.0
100.069	2.0
100.084	1.0
100.099	2.0
100.114	0.0
100.129	4.0
100.144	2.0
100.159	2.0
100.173	2.0
100.188	4.0
100.203	3.0
100.218	3.0
100.233	4.0
100.248	4.0
100.262	3.0
100.277	6.0
100.292	5.0
100.307	6.0
100.322	9.0
100.337	7.0
100.351	5.0
100.366	6.0
100.381	5.0
100.396	6.0
100.411	2.0
100.426	3.0
100.441	3.0
100.455	4.0
100.47	5.0
100.485	1.0
100.5	4.0
100.515	1.0
100.53	3.0
100.544	6.0
100.559	3.0
100.574	6.0
100.589	4.0
100.604	6.0
100.619	2.0
100.633	2.0
100.648	2.0
100.663	5.0
100.678	4.0
100.693	3.0
100.708	3.0
100.722	8.0
100.737	0.0
100.752	0.0
100.767	2.0
100.782	2.0
100.796	2.0
100.811	2.0
100.826	7.0
100.841	3.0
100.856	3.0
100.871	1.0
100.885	2.0
100.9	4.0
100.915	4.0
100.93	4.0
100.945	3.0
100.96	4.0
100.974	4.0
100.989	4.0
101.004	5.0
101.019	1.0
101.034	3.0
101.048	3.0
101.063	2.0
101.078	1.0
101.093	5.0
101.108	3.0
101.123	4.0
101.137	5.0
101.152	5.0
101.167	1.0
101.182	6.0
101.197	6.0
101.211	1.0
101.226	4.0
101.241	1.0
101.256	6.0
101.271	5.0
101.285	4.0
101.3	6.0
101.315	2.0
101.33	5.0
101.345	1.0
101.359	4.0
101.374	3.0
101.389	7.0
101.404	0.0
101.419	2.0
101.433	3.0
101.448	2.0
101.463	2.0
101.478	3.0
101.493	4.0
101.507	2.0
101.522	3.0
101.537	3.0
101.552	4.0
101.567	0.0
101.581	1.0
101.596	2.0
101.611	2.0
101.626	5.0
101.64	3.0
101.655	2.0
101.67	5.0
101.685	2.0
101.7	6.0
101.714	2.0
101.729	4.0
101.744	1.0
101.759	3.0
101.773	6.0
101.788	5.0
101.803	1.0
101.818	1.0
101.833	4.0
101.847	2.0
101.862	2.0
101.877	1.0
101.892	4.0
101.906	7.0
101.921	3.0
101.936	7.0
101.951	3.0
101.965	4.0
101.98	3.0
101.995	3.0
102.01	5.0
102.025	3.0
102.039	3.0
102.054	4.0
102.069	6.0
102.084	5.0
102.098	5.0
102.113	2.0
102.128	3.0
102.143	3.0
102.157	4.0
102.172	5.0
102.187	4.0
102.202	3.0
102.216	0.0
102.231	0.0
102.246	3.0
102.261	3.0
102.275	4.0
102.29	1.0
102.305	4.0
102.32	2.0
102.334	4.0
102.349	0.0
102.364	1.0
102.378	3.0
102.393	5.0
102.408	0.0
102.423	0.0
102.437	1.0
102.452	5.0
102.467	4.0
102.482	1.0
102.496	10.0
102.511	4.0
102.526	7.0
102.541	5.0
102.555	8.0
102.57	4.0
102.585	3.0
102.6	3.0
102.614	3.0
102.629	6.0
102.644	1.0
102.659	5.0
102.673	6.0
102.688	0.0
102.703	0.0
102.717	4.0
102.732	4.0
102.747	2.0
102.762	2.0
102.776	4.0
102.791	2.0
102.806	2.0
102.821	1.0
102.835	5.0
102.85	5.0
102.865	3.0
102.88	3.0
102.894	3.0
102.909	2.0
102.924	1.0
102.938	3.0
102.953	2.0
102.968	2.0
102.983	4.0
102.997	4.0
103.012	2.0
103.027	1.0
103.042	4.0
103.056	5.0
103.071	4.0
103.086	3.0
103.101	2.0
103.115	1.0
103.13	1.0
103.145	1.0
103.16	4.0
103.174	1.0
103.189	4.0
103.204	3.0
103.219	2.0
103.233	3.0
103.248	6.0
103.263	1.0
103.278	3.0
103.292	1.0
103.307	3.0
103.322	4.0
103.337	2.0
103.351	3.0
103.366	5.0
103.381	0.0
103.396	3.0
103.41	5.0
103.425	5.0
103.44	2.0
103.455	7.0
103.469	3.0
103.484	5.0
103.499	6.0
103.514	4.0
103.529	2.0
103.543	0.0
103.558	2.0
103.573	5.0
103.588	3.0
103.602	2.0
103.617	5.0
103.632	3.0
103.647	3.0
103.661	1.0
103.676	2.0
103.691	4.0
103.706	6.0
103.721	0.0
103.735	2.0
103.75	3.0
103.765	5.0
103.78	3.0
103.795	3.0
103.809	4.0
103.824	4.0
103.839	3.0
103.854	3.0
103.869	4.0
103.883	5.0
103.898	5.0
103.913	2.0
103.928	1.0
103.943	2.0
103.957	3.0
103.972	2.0
103.987	5.0
104.002	2.0
104.017	3.0
104.031	3.0
104.046	1.0
104.061	7.0
104.076	3.0
104.091	6.0
104.106	5.0
104.12	3.0
104.135	3.0
104.15	2.0
104.165	2.0
104.18	2.0
104.195	4.0
104.209	3.0
104.224	1.0
104.239	1.0
104.254	2.0
104.269	1.0
104.284	5.0
104.299	5.0
104.313	4.0
104.328	3.0
104.343	0.0
104.358	4.0
104.373	1.0
104.388	0.0
104.403	3.0
104.417	4.0
104.432	4.0
104.447	5.0
104.462	3.0
104.477	3.0
104.492	7.0
104.507	0.0
104.522	4.0
104.536	4.0
104.551	3.0
104.566	5.0
104.581	3.0
104.596	2.0
104.611	6.0
104.626	2.0
104.641	4.0
104.656	3.0
104.67	5.0
104.685	7.0
104.7	2.0
104.715	3.0
104.73	0.0
104.745	8.0
104.76	0.0
104.775	4.0
104.79	8.0
104.804	4.0
104.819	2.0
104.834	5.0
104.849	6.0
104.864	3.0
104.879	2.0
104.894	2.0
104.909	2.0
104.924	3.0
104.939	4.0
104.954	3.0
104.968	4.0
104.983	6.0
104.998	2.0
105.013	1.0
105.028	4.0
105.043	0.0
105.058	3.0
105.073	2.0
105.088	1.0
105.103	2.0
105.118	5.0
105.133	2.0
105.147	4.0
105.162	3.0
105.177	3.0
105.192	5.0
105.207	2.0
105.222	2.0
105.237	1.0
105.252	2.0
105.267	4.0
105.282	1.0
105.297	6.0
105.312	3.0
105.327	1.0
105.342	2.0
105.356	4.0
105.371	2.0
105.386	1.0
105.401	3.0
105.416	4.0
105.431	2.0
105.446	2.0
105.461	6.0
105.476	5.0
105.491	4.0
105.506	1.0
105.521	5.0
105.536	5.0
105.551	5.0
105.566	5.0
105.581	5.0
105.595	2.0
105.61	0.0
105.625	8.0
105.64	5.0
105.655	1.0
105.67	2.0
105.685	2.0
105.7	5.0
105.715	3.0
105.73	3.0
105.745	2.0
105.76	1.0
105.775	6.0
105.79	5.0
105.805	0.0
105.82	5.0
105.835	1.0
105.85	2.0
105.864	3.0
105.879	1.0
105.894	3.0
105.909	1.0
105.924	3.0
105.939	5.0
105.954	4.0
105.969	1.0
105.984	0.0
105.999	5.0
106.014	2.0
106.029	8.0
106.044	2.0
106.059	3.0
106.074	2.0
106.089	4.0
106.104	7.0
106.119	9.0
106.134	3.0
106.148	2.0
106.163	3.0
106.178	0.0
106.193	3.0
106.208	7.0
106.223	4.0
106.238	1.0
106.253	6.0
106.268	3.0
106.283	3.0
106.298	2.0
106.313	2.0
106.328	5.0
106.343	0.0
106.358	4.0
106.373	4.0
106.388	4.0
106.403	3.0
106.418	3.0
106.432	2.0
106.447	4.0
106.462	2.0
106.477	5.0
106.492	8.0
106.507	3.0
106.522	3.0
106.537	5.0
106.552	2.0
106.567	1.0
106.582	1.0
106.597	2.0
106.612	2.0
106.627	0.0
106.642	1.0
106.657	5.0
106.672	4.0
106.687	4.0
106.701	1.0
106.716	1.0
106.731	3.0
106.746	3.0
106.761	3.0
106.776	2.0
106.791	2.0
106.806	2.0
106.821	2.0
106.836	4.0
106.851	4.0
106.866	3.0
106.881	4.0
106.896	3.0
106.911	6.0
106.926	3.0
106.941	3.0
106.955	4.0
106.97	3.0
106.985	2.0
107.0	6.0
107.015	3.0
107.03	4.0
107.045	4.0
107.06	1.0
107.075	2.0
107.09	4.0
107.105	3.0
107.12	4.0
107.135	3.0
107.15	0.0
107.165	1.0
107.18	4.0
107.194	6.0
107.209	3.0
107.224	6.0
107.239	4.0
107.254	4.0
107.269	4.0
107.284	3.0
107.299	1.0
107.314	6.0
107.329	1.0
107.344	4.0
107.359	4.0
107.374	3.0
107.389	2.0
107.404	4.0
107.418	2.0
107.433	3.0
107.448	3.0
107.463	1.0
107.478	0.0
107.493	2.0
107.508	2.0
107.523	3.0
107.538	6.0
107.553	3.0
107.568	1.0
107.583	4.0
107.598	6.0
107.613	2.0
107.627	0.0
107.642	1.0
107.657	4.0
107.672	2.0
107.687	5.0
107.702	0.0
107.717	4.0
107.732	1.0
107.747	3.0
107.762	1.0
107.777	5.0
107.792	3.0
107.807	2.0
107.821	6.0
107.836	2.0
107.851	6.0
107.866	3.0
107.881	4.0
107.896	5.0
107.911	4.0
107.926	1.0
107.941	0.0
107.956	4.0
107.971	3.0
107.986	7.0
108.0	3.0
108.015	3.0
108.03	2.0
108.045	4.0
108.06	2.0
108.075	4.0
108.09	4.0
108.105	4.0
108.12	7.0
108.135	4.0
108.15	5.0
108.164	6.0
108.179	6.0
108.194	2.0
108.209	7.0
108.224	1.0
108.239	2.0
108.254	4.0
108.269	2.0
108.284	3.0
108.299	3.0
108.313	4.0
108.328	2.0
108.343	2.0
108.358	3.0
108.373	3.0
108.388	7.0
108.403	2.0
108.418	7.0
108.433	4.0
108.448	1.0
108.462	6.0
108.477	5.0
108.492	2.0
108.507	4.0
108.522	4.0
108.537	3.0
108.552	3.0
108.567	2.0
108.582	4.0
108.597	4.0
108.611	3.0
108.626	5.0
108.641	6.0
108.656	3.0
108.671	3.0
108.686	2.0
108.701	1.0
108.716	2.0
108.731	3.0
108.745	4.0
108.76	1.0
108.775	1.0
108.79	1.0
108.805	6.0
108.82	2.0
108.835	1.0
108.85	4.0
108.865	1.0
108.879	9.0
108.894	4.0
108.909	1.0
108.924	1.0
108.939	2.0
108.954	4.0
108.969	4.0
108.984	2.0
108.999	3.0
109.013	4.0
109.028	5.0
109.043	1.0
109.058	2.0
109.073	7.0
109.088	5.0
109.103	2.0
109.118	6.0
109.133	3.0
109.147	7.0
109.162	2.0
109.177	4.0
109.192	0.0
109.207	6.0
109.222	2.0
109.237	1.0
109.252	1.0
109.267	2.0
109.281	2.0
109.296	3.0
109.311	5.0
109.326	2.0
109.341	3.0
109.356	4.0
109.371	2.0
109.386	1.0
109.4	4.0
109.415	1.0
109.43	3.0
109.445	4.0
109.46	2.0
109.475	2.0
109.49	4.0
109.505	3.0
109.52	5.0
109.534	1.0
109.549	3.0
109.564	2.0
109.579	3.0
109.594	4.0
109.609	3.0
109.624	2.0
109.639	3.0
109.653	0.0
109.668	4.0
109.683	4.0
109.698	5.0
109.713	5.0
109.728	0.0
109.743	9.0
109.758	3.0
109.773	3.0
109.787	3.0
109.802	1.0
109.817	4.0
109.832	4.0
109.847	3.0
109.862	4.0
109.877	3.0
109.892	4.0
109.907	5.0
109.921	1.0
109.936	5.0
109.951	6.0
109.966	3.0
109.981	7.0
109.996	4.0
110.011	4.0
110.026	5.0
110.04	6.0
110.055	1.0
110.07	1.0
110.085	4.0
110.1	3.0
110.115	7.0
110.13	3.0
110.145	3.0
110.16	2.0
110.174	1.0
110.189	3.0
110.204	2.0
110.219	7.0
110.234	0.0
110.249	5.0
110.264	3.0
110.279	1.0
110.294	2.0
110.308	4.0
110.323	7.0
110.338	5.0
110.353	1.0
110.368	5.0
110.383	5.0
110.398	3.0
110.413	4.0
110.428	6.0
110.442	2.0
110.457	5.0
110.472	5.0
110.487	2.0
110.502	1.0
110.517	4.0
110.532	2.0
110.547	3.0
110.561	3.0
110.576	9.0
110.591	5.0
110.606	1.0
110.621	5.0
110.636	6.0
110.651	4.0
110.666	3.0
110.681	3.0
110.695	4.0
110.71	1.0
110.725	2.0
110.74	3.0
110.755	2.0
110.77	8.0
110.785	5.0
110.8	4.0
110.815	6.0
110.829	3.0
110.844	4.0
110.859	2.0
110.874	7.0
110.889	1.0
110.904	1.0
110.919	4.0
110.934	1.0
110.948	7.0
110.963	2.0
110.978	4.0
110.993	0.0
111.008	3.0
111.023	2.0
111.038	5.0
111.053	2.0
111.067	4.0
111.082	4.0
111.097	2.0
111.112	8.0
111.127	3.0
111.142	1.0
111.157	5.0
111.172	1.0
111.186	1.0
111.201	2.0
111.216	6.0
111.231	6.0
111.246	4.0
111.261	2.0
111.276	1.0
111.291	4.0
111.305	4.0
111.32	3.0
111.335	3.0
111.35	3.0
111.365	3.0
111.38	2.0
111.395	4.0
111.41	2.0
111.424	2.0
111.439	1.0
111.454	1.0
111.469	2.0
111.484	1.0
111.499	2.0
111.514	3.0
111.528	9.0
111.543	3.0
111.558	7.0
111.573	6.0
111.588	1.0
111.603	3.0
111.618	3.0
111.633	6.0
111.647	3.0
111.662	6.0
111.677	4.0
111.692	2.0
111.707	5.0
111.722	3.0
111.737	7.0
111.751	4.0
111.766	4.0
111.781	4.0
111.796	3.0
111.811	4.0
111.826	4.0
111.84	2.0
111.855	2.0
111.87	1.0
111.885	5.0
111.9	3.0
111.915	1.0
111.93	2.0
111.944	2.0
111.959	7.0
111.974	0.0
111.989	4.0
112.004	4.0
112.019	6.0
112.033	2.0
112.048	5.0
112.063	3.0
112.078	3.0
112.093	9.0
112.108	5.0
112.123	3.0
112.137	3.0
112.152	0.0
112.167	4.0
112.182	5.0
112.197	3.0
112.212	3.0
112.226	6.0
112.241	2.0
112.256	4.0
112.271	4.0
112.286	1.0
112.301	3.0
112.315	5.0
112.33	5.0
112.345	6.0
112.36	4.0
112.375	3.0
112.389	4.0
112.404	6.0
112.419	3.0
112.434	7.0
112.449	2.0
112.464	2.0
112.478	2.0
112.493	3.0
112.508	4.0
112.523	4.0
112.538	5.0
112.553	7.0
112.567	2.0
112.582	2.0
112.597	2.0
112.612	6.0
112.627	7.0
112.642	1.0
112.656	4.0
112.671	2.0
112.686	2.0
112.701	3.0
112.716	3.0
112.73	3.0
112.745	2.0
112.76	2.0
112.775	3.0
112.79	4.0
112.805	2.0
112.819	4.0
112.834	2.0
112.849	3.0
112.864	6.0
112.879	5.0
112.894	4.0
112.908	2.0
112.923	1.0
112.938	4.0
112.953	1.0
112.968	2.0
112.983	4.0
112.997	3.0
113.012	4.0
113.027	3.0
113.042	3.0
113.057	2.0
113.072	2.0
113.086	1.0
113.101	1.0
113.116	0.0
113.131	4.0
113.146	2.0
113.161	4.0
113.175	5.0
113.19	2.0
113.205	3.0
113.22	1.0
113.235	3.0
113.25	3.0
113.265	4.0
113.279	4.0
113.294	2.0
113.309	4.0
113.324	2.0
113.339	2.0
113.354	4.0
113.368	6.0
113.383	4.0
113.398	9.0
113.413	7.0
113.428	1.0
113.443	2.0
113.458	1.0
113.472	8.0
113.487	7.0
113.502	5.0
113.517	1.0
113.532	6.0
113.547	5.0
113.562	4.0
113.576	1.0
113.591	3.0
113.606	4.0
113.621	3.0
113.636	3.0
113.651	2.0
113.666	3.0
113.681	1.0
113.695	4.0
113.71	6.0
113.725	9.0
113.74	1.0
113.755	5.0
113.77	3.0
113.785	2.0
113.8	3.0
113.814	6.0
113.829	5.0
113.844	5.0
113.859	2.0
113.874	4.0
113.889	4.0
113.904	4.0
113.919	2.0
113.934	2.0
113.949	6.0
113.963	0.0
113.978	3.0
113.993	5.0
114.008	3.0
114.023	5.0
114.038	1.0
114.053	7.0
114.068	3.0
114.083	5.0
114.098	2.0
114.113	4.0
114.127	4.0
114.142	7.0
114.157	4.0
114.172	7.0
114.187	3.0
114.202	8.0
114.217	5.0
114.232	3.0
114.247	5.0
114.262	4.0
114.277	8.0
114.292	1.0
114.307	3.0
114.322	7.0
114.337	3.0
114.351	5.0
114.366	8.0
114.381	4.0
114.396	5.0
114.411	4.0
114.426	7.0
114.441	2.0
114.456	3.0
114.471	10.0
114.486	3.0
114.501	4.0
114.516	6.0
114.531	2.0
114.546	4.0
114.561	4.0
114.576	1.0
114.591	5.0
114.606	2.0
114.621	0.0
114.636	5.0
114.65	3.0
114.665	5.0
114.68	4.0
114.695	1.0
114.71	3.0
114.725	2.0
114.74	2.0
114.755	3.0
114.77	1.0
114.785	5.0
114.8	7.0
114.815	4.0
114.83	4.0
114.845	3.0
114.86	4.0
114.875	4.0
114.89	3.0
114.905	5.0
114.92	4.0
114.935	4.0
114.95	2.0
114.965	2.0
114.98	2.0
114.995	3.0
115.009	2.0
115.024	1.0
115.039	6.0
115.054	2.0
115.069	2.0
115.084	1.0
115.099	2.0
115.114	3.0
115.129	3.0
115.144	8.0
115.159	4.0
115.174	3.0
115.189	5.0
115.204	2.0
115.219	5.0
115.234	6.0
115.249	5.0
115.264	4.0
115.279	6.0
115.294	2.0
115.309	2.0
115.323	8.0
115.338	4.0
115.353	6.0
115.368	2.0
115.383	3.0
115.398	6.0
115.413	3.0
115.428	2.0
115.443	3.0
115.458	2.0
115.473	4.0
115.488	3.0
115.503	3.0
115.518	2.0
115.533	4.0
115.548	5.0
115.562	5.0
115.577	6.0
115.592	5.0
115.607	4.0
115.622	1.0
115.637	5.0
115.652	2.0
115.667	3.0
115.682	4.0
115.697	4.0
115.712	7.0
115.727	5.0
115.741	3.0
115.756	5.0
115.771	2.0
115.786	2.0
115.801	2.0
115.816	4.0
115.831	3.0
115.846	9.0
115.861	9.0
115.875	3.0
115.89	2.0
115.905	1.0
115.92	4.0
115.935	0.0
115.95	5.0
115.965	4.0
115.98	4.0
115.995	1.0
116.009	2.0
116.024	2.0
116.039	2.0
116.054	0.0
116.069	3.0
116.084	5.0
116.099	2.0
116.113	4.0
116.128	5.0
116.143	4.0
116.158	6.0
116.173	6.0
116.188	3.0
116.202	3.0
116.217	3.0
116.232	3.0
116.247	7.0
116.262	6.0
116.277	3.0
116.291	3.0
116.306	5.0
116.321	4.0
116.336	8.0
116.351	1.0
116.366	3.0
116.38	5.0
116.395	4.0
116.41	5.0
116.425	8.0
116.44	3.0
116.454	3.0
116.469	3.0
116.484	2.0
116.499	3.0
116.514	2.0
116.528	4.0
116.543	4.0
116.558	6.0
116.573	4.0
116.588	3.0
116.602	2.0
116.617	6.0
116.632	6.0
116.647	1.0
116.662	3.0
116.676	3.0
116.691	3.0
116.706	3.0
116.721	4.0
116.735	1.0
116.75	2.0
116.765	3.0
116.78	4.0
116.795	4.0
116.809	4.0
116.824	5.0
116.839	4.0
116.854	4.0
116.868	3.0
116.883	9.0
116.898	4.0
116.913	5.0
116.927	4.0
116.942	2.0
116.957	6.0
116.972	4.0
116.986	4.0
117.001	3.0
117.016	6.0
117.031	4.0
117.045	2.0
117.06	4.0
117.075	4.0
117.09	5.0
117.104	6.0
117.119	1.0
117.134	5.0
117.149	5.0
117.163	4.0
117.178	4.0
117.193	3.0
117.208	3.0
117.222	3.0
117.237	1.0
117.252	4.0
117.267	1.0
117.281	7.0
117.296	8.0
117.311	3.0
117.325	5.0
117.34	3.0
117.355	4.0
117.37	4.0
117.384	10.0
117.399	4.0
117.414	7.0
117.429	5.0
117.443	5.0
117.458	2.0
117.473	3.0
117.487	6.0
117.502	2.0
117.517	2.0
117.532	1.0
117.546	2.0
117.561	8.0
117.576	5.0
117.59	8.0
117.605	4.0
117.62	3.0
117.635	2.0
117.649	5.0
117.664	2.0
117.679	1.0
117.693	0.0
117.708	3.0
117.723	1.0
117.738	0.0
117.752	2.0
117.767	4.0
117.782	3.0
117.796	1.0
117.811	6.0
117.826	2.0
117.841	4.0
117.855	1.0
117.87	4.0
117.885	4.0
117.899	7.0
117.914	7.0
117.929	1.0
117.944	7.0
117.958	5.0
117.973	2.0
117.988	3.0
118.002	1.0
118.017	7.0
118.032	3.0
118.047	5.0
118.062	5.0
118.077	3.0
118.092	4.0
118.107	3.0
118.121	7.0
118.136	2.0
118.151	3.0
118.166	5.0
118.181	1.0
118.196	4.0
118.211	1.0
118.225	5.0
118.24	2.0
118.255	4.0
118.27	6.0
118.285	7.0
118.3	5.0
118.315	9.0
118.33	3.0
118.344	7.0
118.359	5.0
118.374	2.0
118.389	6.0
118.404	5.0
118.419	4.0
118.434	4.0
118.449	2.0
118.463	3.0
118.478	3.0
118.493	2.0
118.508	3.0
118.523	1.0
118.538	9.0
118.553	4.0
118.567	12.0
118.582	6.0
118.597	4.0
118.612	7.0
118.627	0.0
118.642	1.0
118.657	6.0
118.672	5.0
118.686	5.0
118.701	2.0
118.716	4.0
118.731	9.0
118.746	2.0
118.761	7.0
118.776	2.0
118.791	1.0
118.805	3.0
118.82	0.0
118.835	8.0
118.85	5.0
118.865	4.0
118.88	3.0
118.895	2.0
118.909	2.0
118.924	4.0
118.939	1.0
118.954	6.0
118.969	6.0
118.984	4.0
118.999	5.0
119.014	6.0
119.028	7.0
119.043	8.0
119.058	2.0
119.073	4.0
119.088	0.0
119.103	0.0
119.118	4.0
119.133	6.0
119.147	2.0
119.162	4.0
119.177	3.0
119.192	5.0
119.207	2.0
119.222	3.0
119.237	3.0
119.251	4.0
119.266	4.0
119.281	5.0
119.296	5.0
119.311	7.0
119.326	4.0
119.341	4.0
119.356	7.0
119.37	3.0
119.385	2.0
119.4	4.0
119.415	4.0
119.43	5.0
119.445	4.0
119.46	4.0
119.475	1.0
119.489	3.0
119.504	5.0
119.519	3.0
119.534	1.0
119.549	5.0
119.564	2.0
119.579	3.0
119.593	2.0
119.608	4.0
119.623	1.0
119.638	3.0
119.653	8.0
119.668	2.0
119.683	3.0
119.698	2.0
119.712	2.0
119.727	2.0
119.742	7.0
119.757	2.0
119.772	1.0
119.787	4.0
119.802	1.0
119.817	2.0
119.831	2.0
119.846	3.0
119.861	4.0
119.876	8.0
119.891	3.0
119.906	2.0
119.921	2.0
119.935	1.0
119.95	4.0
119.965	3.0
119.98	6.0
119.995	3.0
120.01	4.0
120.025	2.0
120.04	2.0
120.054	0.0
120.069	1.0
120.084	3.0
120.099	5.0
120.114	3.0
120.129	3.0
120.144	2.0
120.159	0.0
120.173	0.0
120.188	2.0
120.203	2.0
120.218	2.0
120.233	1.0
120.248	1.0
120.263	2.0
120.277	0.0
120.292	0.0
120.307	0.0
120.322	0.0
120.337	1.0
120.352	0.0
120.367	1.0
120.382	0.0
120.396	0.0
120.411	1.0
120.426	0.0
120.441	0.0
120.456	0.0
120.471	0.0
120.486	0.0
120.501	0.0
120.515	1.0
120.53	0.0
120.545	0.0
120.56	1.0
120.575	0.0
120.59	0.0
120.605	0.0
120.619	0.0
120.634	0.0
120.649	0.0
120.664	0.0
120.679	0.0
120.694	0.0
120.709	0.0
120.724	0.0
120.738	1.0
120.753	0.0
120.768	1.0
120.783	0.0
120.798	0.0
120.813	0.0
120.828	0.0
120.843	0.0
120.857	0.0
120.872	0.0
120.887	0.0
120.902	0.0
120.917	0.0
120.932	0.0
120.947	0.0
120.961	0.0
120.976	0.0
