-1.217	0.0
-1.202	0.0
-1.187	0.0
-1.172	0.0
-1.157	0.0
-1.142	0.0
-1.128	0.0
-1.113	0.0
-1.098	0.0
-1.083	0.0
-1.068	0.0
-1.054	0.0
-1.039	0.0
-1.024	0.0
-1.009	0.0
-0.994	0.0
-0.979	0.0
-0.965	0.0
-0.95	0.0
-0.935	0.0
-0.92	0.0
-0.905	0.0
-0.891	1.0
-0.876	0.0
-0.861	0.0
-0.846	0.0
-0.831	0.0
-0.816	0.0
-0.802	0.0
-0.787	0.0
-0.772	0.0
-0.757	0.0
-0.742	0.0
-0.728	0.0
-0.713	0.0
-0.698	0.0
-0.683	0.0
-0.668	0.0
-0.653	0.0
-0.639	0.0
-0.624	0.0
-0.609	0.0
-0.594	0.0
-0.579	0.0
-0.565	0.0
-0.55	0.0
-0.535	0.0
-0.52	0.0
-0.505	0.0
-0.49	0.0
-0.476	0.0
-0.461	0.0
-0.446	0.0
-0.431	0.0
-0.416	0.0
-0.401	0.0
-0.387	1.0
-0.372	0.0
-0.357	0.0
-0.342	0.0
-0.327	0.0
-0.313	0.0
-0.298	0.0
-0.283	0.0
-0.268	0.0
-0.253	0.0
-0.238	0.0
-0.224	0.0
-0.209	0.0
-0.194	0.0
-0.179	0.0
-0.164	0.0
-0.15	0.0
-0.135	0.0
-0.12	0.0
-0.105	0.0
-0.09	0.0
-0.075	0.0
-0.061	0.0
-0.046	0.0
-0.031	0.0
-0.016	0.0
-0.001	0.0
0.013	0.0
0.028	0.0
0.043	0.0
0.058	0.0
0.073	0.0
0.088	0.0
0.102	0.0
0.117	0.0
0.132	0.0
0.147	0.0
0.162	0.0
0.176	0.0
0.191	0.0
0.206	0.0
0.221	0.0
0.236	0.0
0.251	0.0
0.265	0.0
0.28	0.0
0.295	0.0
0.31	0.0
0.325	0.0
0.339	0.0
0.354	0.0
0.369	0.0
0.384	0.0
0.399	0.0
0.414	0.0
0.428	0.0
0.443	0.0
0.458	0.0
0.473	0.0
0.488	0.0
0.502	0.0
0.517	0.0
0.532	0.0
0.547	0.0
0.562	0.0
0.577	0.0
0.591	0.0
0.606	0.0
0.621	0.0
0.636	0.0
0.651	0.0
0.665	0.0
0.68	0.0
0.695	0.0
0.71	0.0
0.725	0.0
0.74	0.0
0.754	0.0
0.769	0.0
0.784	0.0
0.799	0.0
0.814	0.0
0.828	0.0
0.843	0.0
0.858	0.0
0.873	0.0
0.888	0.0
0.903	0.0
0.917	0.0
0.932	0.0
0.947	0.0
0.962	0.0
0.977	0.0
0.991	0.0
1.006	0.0
1.021	0.0
1.036	0.0
1.051	0.0
1.065	0.0
1.08	0.0
1.095	0.0
1.11	0.0
1.125	0.0
1.14	0.0
1.154	0.0
1.169	0.0
1.184	0.0
1.199	0.0
1.214	0.0
1.228	0.0
1.243	1.0
1.258	0.0
1.273	0.0
1.288	1.0
1.302	2.0
1.317	0.0
1.332	0.0
1.347	0.0
1.362	0.0
1.376	0.0
1.391	0.0
1.406	0.0
1.421	0.0
1.436	0.0
1.45	0.0
1.465	0.0
1.48	0.0
1.495	0.0
1.51	0.0
1.524	0.0
1.539	0.0
1.554	0.0
1.569	0.0
1.584	0.0
1.598	0.0
1.613	0.0
1.628	0.0
1.643	0.0
1.658	0.0
1.672	0.0
1.687	0.0
1.702	0.0
1.717	0.0
1.732	0.0
1.746	0.0
1.761	0.0
1.776	0.0
1.791	0.0
1.806	0.0
1.82	0.0
1.835	0.0
1.85	0.0
1.865	0.0
1.88	0.0
1.894	1.0
1.909	0.0
1.924	1.0
1.939	0.0
1.954	0.0
1.968	0.0
1.983	0.0
1.998	1.0
2.013	0.0
2.028	0.0
2.042	0.0
2.057	0.0
2.072	0.0
2.087	0.0
2.101	0.0
2.116	0.0
2.131	0.0
2.146	0.0
2.161	0.0
2.175	0.0
2.19	0.0
2.205	0.0
2.22	0.0
2.235	0.0
2.249	0.0
2.264	0.0
2.279	2.0
2.294	0.0
2.308	0.0
2.323	2.0
2.338	1.0
2.353	2.0
2.368	1.0
2.382	0.0
2.397	0.0
2.412	0.0
2.427	0.0
2.442	3.0
2.456	2.0
2.471	1.0
2.486	3.0
2.501	1.0
2.515	2.0
2.53	3.0
2.545	3.0
2.56	1.0
2.575	5.0
2.589	3.0
2.604	1.0
2.619	0.0
2.634	4.0
2.649	5.0
2.663	6.0
2.678	3.0
2.693	3.0
2.708	4.0
2.722	1.0
2.737	1.0
2.752	1.0
2.767	0.0
2.782	2.0
2.796	3.0
2.811	1.0
2.826	3.0
2.841	1.0
2.856	2.0
2.87	3.0
2.885	4.0
2.9	3.0
2.915	6.0
2.93	1.0
2.944	4.0
2.959	2.0
2.974	3.0
2.989	2.0
3.004	2.0
3.018	3.0
3.033	5.0
3.048	5.0
3.063	1.0
3.078	3.0
3.092	1.0
3.107	4.0
3.122	1.0
3.137	5.0
3.152	4.0
3.166	5.0
3.181	3.0
3.196	5.0
3.211	3.0
3.226	11.0
3.24	1.0
3.255	7.0
3.27	5.0
3.285	1.0
3.3	6.0
3.315	5.0
3.329	2.0
3.344	4.0
3.359	5.0
3.374	5.0
3.389	5.0
3.403	0.0
3.418	8.0
3.433	6.0
3.448	4.0
3.463	7.0
3.478	4.0
3.492	5.0
3.507	3.0
3.522	6.0
3.537	5.0
3.552	5.0
3.567	9.0
3.581	10.0
3.596	2.0
3.611	4.0
3.626	6.0
3.641	4.0
3.656	5.0
3.671	8.0
3.685	5.0
3.7	8.0
3.715	5.0
3.73	6.0
3.745	1.0
3.76	12.0
3.775	2.0
3.789	9.0
3.804	6.0
3.819	4.0
3.834	7.0
3.849	3.0
3.864	4.0
3.879	6.0
3.894	5.0
3.908	2.0
3.923	6.0
3.938	6.0
3.953	4.0
3.968	8.0
3.983	6.0
3.998	7.0
4.013	8.0
4.027	10.0
4.042	10.0
4.057	7.0
4.072	7.0
4.087	9.0
4.102	6.0
4.117	7.0
4.132	9.0
4.147	3.0
4.162	7.0
4.176	6.0
4.191	5.0
4.206	2.0
4.221	7.0
4.236	4.0
4.251	11.0
4.266	7.0
4.281	8.0
4.296	4.0
4.311	12.0
4.326	7.0
4.341	6.0
4.356	8.0
4.37	5.0
4.385	6.0
4.4	11.0
4.415	6.0
4.43	8.0
4.445	7.0
4.46	7.0
4.475	9.0
4.49	10.0
4.505	4.0
4.52	4.0
4.535	9.0
4.55	12.0
4.565	6.0
4.58	5.0
4.595	7.0
4.61	9.0
4.625	7.0
4.639	8.0
4.654	5.0
4.669	9.0
4.684	9.0
4.699	7.0
4.714	8.0
4.729	8.0
4.744	5.0
4.759	8.0
4.774	12.0
4.789	9.0
4.804	9.0
4.819	7.0
4.834	8.0
4.849	7.0
4.864	6.0
4.879	10.0
4.894	4.0
4.909	8.0
4.924	7.0
4.939	12.0
4.954	6.0
4.969	8.0
4.984	2.0
4.999	7.0
5.014	6.0
5.029	12.0
5.044	8.0
5.059	9.0
5.074	4.0
5.089	8.0
5.104	8.0
5.119	5.0
5.134	6.0
5.149	8.0
5.164	7.0
5.179	8.0
5.194	10.0
5.209	6.0
5.224	11.0
5.239	6.0
5.254	3.0
5.269	11.0
5.284	4.0
5.299	6.0
5.314	11.0
5.329	8.0
5.344	5.0
5.359	7.0
5.374	4.0
5.389	11.0
5.404	10.0
5.419	6.0
5.434	8.0
5.449	12.0
5.464	13.0
5.479	9.0
5.494	11.0
5.509	14.0
5.524	6.0
5.539	11.0
5.554	12.0
5.569	12.0
5.584	9.0
5.599	7.0
5.614	11.0
5.629	13.0
5.644	6.0
5.659	8.0
5.674	8.0
5.689	9.0
5.704	11.0
5.719	7.0
5.734	9.0
5.749	10.0
5.764	8.0
5.779	5.0
5.794	10.0
5.809	13.0
5.824	11.0
5.839	9.0
5.854	11.0
5.869	9.0
5.884	6.0
5.899	5.0
5.914	11.0
5.929	6.0
5.944	11.0
5.959	8.0
5.974	12.0
5.989	7.0
6.004	11.0
6.019	6.0
6.034	9.0
6.049	14.0
6.064	7.0
6.079	6.0
6.094	9.0
6.109	7.0
6.124	11.0
6.139	8.0
6.154	9.0
6.169	7.0
6.184	12.0
6.199	7.0
6.214	6.0
6.229	9.0
6.244	9.0
6.259	12.0
6.274	3.0
6.289	10.0
6.304	9.0
6.319	9.0
6.334	9.0
6.349	14.0
6.364	9.0
6.379	12.0
6.394	12.0
6.409	10.0
6.424	9.0
6.439	3.0
6.454	10.0
6.469	7.0
6.484	7.0
6.499	8.0
6.514	6.0
6.529	11.0
6.544	8.0
6.559	5.0
6.574	8.0
6.589	6.0
6.604	9.0
6.619	8.0
6.634	7.0
6.649	11.0
6.664	8.0
6.679	6.0
6.694	13.0
6.709	11.0
6.724	5.0
6.739	5.0
6.754	14.0
6.769	11.0
6.784	10.0
6.799	13.0
6.814	4.0
6.829	7.0
6.844	10.0
6.859	9.0
6.873	6.0
6.888	5.0
6.903	7.0
6.918	5.0
6.933	10.0
6.948	13.0
6.963	8.0
6.978	9.0
6.993	8.0
7.008	8.0
7.023	13.0
7.038	8.0
7.053	5.0
7.068	4.0
7.083	12.0
7.098	10.0
7.113	15.0
7.128	8.0
7.143	7.0
7.157	8.0
7.172	11.0
7.187	14.0
7.202	10.0
7.217	10.0
7.232	5.0
7.247	8.0
7.262	10.0
7.277	8.0
7.292	12.0
7.307	15.0
7.322	6.0
7.336	10.0
7.351	12.0
7.366	7.0
7.381	17.0
7.396	7.0
7.411	9.0
7.426	8.0
7.441	12.0
7.456	9.0
7.471	5.0
7.485	6.0
7.5	9.0
7.515	4.0
7.53	8.0
7.545	13.0
7.56	12.0
7.575	9.0
7.59	8.0
7.604	5.0
7.619	10.0
7.634	7.0
7.649	3.0
7.664	11.0
7.679	10.0
7.693	12.0
7.708	10.0
7.723	7.0
7.738	9.0
7.753	10.0
7.768	12.0
7.783	12.0
7.797	9.0
7.812	5.0
7.827	6.0
7.842	10.0
7.857	6.0
7.871	7.0
7.886	17.0
7.901	15.0
7.916	7.0
7.931	12.0
7.945	9.0
7.96	14.0
7.975	6.0
7.99	5.0
8.005	10.0
8.019	6.0
8.034	10.0
8.049	13.0
8.064	9.0
8.078	8.0
8.093	16.0
8.108	11.0
8.123	9.0
8.137	8.0
8.152	12.0
8.167	9.0
8.182	12.0
8.196	7.0
8.211	14.0
8.226	9.0
8.241	9.0
8.255	8.0
8.27	9.0
8.285	10.0
8.3	3.0
8.314	9.0
8.329	11.0
8.344	13.0
8.358	5.0
8.373	13.0
8.388	4.0
8.403	8.0
8.417	9.0
8.432	9.0
8.447	8.0
8.461	9.0
8.476	4.0
8.491	6.0
8.505	13.0
8.52	10.0
8.535	7.0
8.55	10.0
8.564	11.0
8.579	3.0
8.594	4.0
8.608	7.0
8.623	9.0
8.638	12.0
8.652	13.0
8.667	12.0
8.682	9.0
8.696	10.0
8.711	10.0
8.726	4.0
8.74	9.0
8.755	8.0
8.77	8.0
8.784	7.0
8.799	8.0
8.814	12.0
8.828	7.0
8.843	10.0
8.858	5.0
8.872	6.0
8.887	12.0
8.902	10.0
8.916	6.0
8.931	5.0
8.946	10.0
8.96	7.0
8.975	13.0
8.99	8.0
9.004	5.0
9.019	7.0
9.034	13.0
9.048	7.0
9.063	8.0
9.077	11.0
9.092	10.0
9.107	6.0
9.121	9.0
9.136	4.0
9.151	7.0
9.165	5.0
9.18	10.0
9.195	6.0
9.209	5.0
9.224	9.0
9.239	5.0
9.253	8.0
9.268	7.0
9.283	17.0
9.297	6.0
9.312	8.0
9.327	13.0
9.341	9.0
9.356	10.0
9.371	8.0
9.385	7.0
9.4	7.0
9.415	11.0
9.429	13.0
9.444	4.0
9.458	4.0
9.473	7.0
9.488	10.0
9.502	5.0
9.517	10.0
9.532	11.0
9.546	10.0
9.561	10.0
9.576	6.0
9.59	6.0
9.605	11.0
9.62	7.0
9.635	4.0
9.649	13.0
9.664	9.0
9.679	7.0
9.693	10.0
9.708	6.0
9.723	7.0
9.737	6.0
9.752	6.0
9.767	5.0
9.781	7.0
9.796	13.0
9.811	8.0
9.825	5.0
9.84	13.0
9.855	9.0
9.87	4.0
9.884	6.0
9.899	8.0
9.914	9.0
9.928	6.0
9.943	5.0
9.958	9.0
9.973	9.0
9.987	5.0
10.002	9.0
10.017	10.0
10.031	3.0
10.046	12.0
10.061	9.0
10.076	7.0
10.09	14.0
10.105	11.0
10.12	11.0
10.135	8.0
10.149	7.0
10.164	11.0
10.179	6.0
10.194	6.0
10.208	14.0
10.223	6.0
10.238	9.0
10.253	14.0
10.267	13.0
10.282	4.0
10.297	4.0
10.312	9.0
10.326	5.0
10.341	7.0
10.356	8.0
10.371	10.0
10.386	12.0
10.4	9.0
10.415	7.0
10.43	14.0
10.445	9.0
10.46	14.0
10.474	8.0
10.489	9.0
10.504	3.0
10.519	2.0
10.533	12.0
10.548	8.0
10.563	8.0
10.578	10.0
10.593	4.0
10.608	8.0
10.622	8.0
10.637	8.0
10.652	5.0
10.667	8.0
10.682	6.0
10.696	12.0
10.711	7.0
10.726	9.0
10.741	6.0
10.756	6.0
10.771	7.0
10.785	9.0
10.8	9.0
10.815	2.0
10.83	9.0
10.845	9.0
10.86	9.0
10.874	11.0
10.889	9.0
10.904	7.0
10.919	7.0
10.934	7.0
10.949	7.0
10.963	6.0
10.978	7.0
10.993	7.0
11.008	10.0
11.023	10.0
11.038	10.0
11.053	6.0
11.067	9.0
11.082	6.0
11.097	8.0
11.112	9.0
11.127	4.0
11.142	5.0
11.157	7.0
11.172	8.0
11.186	10.0
11.201	2.0
11.216	6.0
11.231	5.0
11.246	7.0
11.261	9.0
11.276	3.0
11.291	10.0
11.305	11.0
11.32	8.0
11.335	7.0
11.35	5.0
11.365	9.0
11.38	6.0
11.395	10.0
11.41	6.0
11.424	3.0
11.439	8.0
11.454	7.0
11.469	8.0
11.484	12.0
11.499	12.0
11.514	6.0
11.529	15.0
11.544	10.0
11.558	4.0
11.573	9.0
11.588	9.0
11.603	12.0
11.618	8.0
11.633	5.0
11.648	11.0
11.663	7.0
11.678	6.0
11.693	7.0
11.707	9.0
11.722	6.0
11.737	7.0
11.752	10.0
11.767	6.0
11.782	6.0
11.797	14.0
11.812	7.0
11.827	11.0
11.842	12.0
11.856	15.0
11.871	7.0
11.886	7.0
11.901	16.0
11.916	11.0
11.931	7.0
11.946	10.0
11.961	14.0
11.976	9.0
11.991	5.0
12.006	10.0
12.02	9.0
12.035	9.0
12.05	3.0
12.065	10.0
12.08	9.0
12.095	5.0
12.11	10.0
12.125	7.0
12.14	7.0
12.155	7.0
12.17	13.0
12.184	5.0
12.199	13.0
12.214	10.0
12.229	15.0
12.244	14.0
12.259	9.0
12.274	9.0
12.289	11.0
12.304	10.0
12.319	13.0
12.334	13.0
12.348	13.0
12.363	12.0
12.378	10.0
12.393	12.0
12.408	8.0
12.423	11.0
12.438	5.0
12.453	9.0
12.468	9.0
12.483	11.0
12.498	9.0
12.513	9.0
12.527	8.0
12.542	12.0
12.557	15.0
12.572	12.0
12.587	9.0
12.602	16.0
12.617	8.0
12.632	12.0
12.647	12.0
12.662	7.0
12.677	12.0
12.692	17.0
12.707	12.0
12.721	17.0
12.736	17.0
12.751	20.0
12.766	11.0
12.781	11.0
12.796	13.0
12.811	8.0
12.826	15.0
12.841	14.0
12.856	16.0
12.871	17.0
12.886	14.0
12.9	10.0
12.915	21.0
12.93	17.0
12.945	13.0
12.96	18.0
12.975	22.0
12.99	16.0
13.005	10.0
13.02	19.0
13.035	13.0
13.05	17.0
13.065	22.0
13.08	20.0
13.094	13.0
13.109	21.0
13.124	12.0
13.139	15.0
13.154	14.0
13.169	17.0
13.184	14.0
13.199	22.0
13.214	15.0
13.229	18.0
13.244	32.0
13.259	17.0
13.274	18.0
13.288	19.0
13.303	26.0
13.318	18.0
13.333	22.0
13.348	23.0
13.363	18.0
13.378	33.0
13.393	32.0
13.408	28.0
13.423	30.0
13.438	25.0
13.453	32.0
13.468	31.0
13.482	30.0
13.497	34.0
13.512	39.0
13.527	40.0
13.542	46.0
13.557	44.0
13.572	57.0
13.587	53.0
13.602	50.0
13.617	87.0
13.632	79.0
13.647	90.0
13.662	66.0
13.677	102.0
13.691	89.0
13.706	89.0
13.721	97.0
13.736	93.0
13.751	116.0
13.766	103.0
13.781	128.0
13.796	120.0
13.811	130.0
13.826	125.0
13.841	127.0
13.856	118.0
13.871	110.0
13.885	116.0
13.9	112.0
13.915	79.0
13.93	69.0
13.945	66.0
13.96	51.0
13.975	45.0
13.99	36.0
14.005	42.0
14.02	32.0
14.035	29.0
14.05	29.0
14.065	21.0
14.08	25.0
14.094	19.0
14.109	24.0
14.124	15.0
14.139	17.0
14.154	16.0
14.169	26.0
14.184	25.0
14.199	27.0
14.214	14.0
14.229	18.0
14.244	22.0
14.259	18.0
14.274	25.0
14.288	22.0
14.303	19.0
14.318	13.0
14.333	18.0
14.348	16.0
14.363	22.0
14.378	19.0
14.393	15.0
14.408	21.0
14.423	16.0
14.438	16.0
14.453	20.0
14.468	25.0
14.482	18.0
14.497	15.0
14.512	19.0
14.527	16.0
14.542	18.0
14.557	13.0
14.572	17.0
14.587	11.0
14.602	20.0
14.617	19.0
14.632	12.0
14.647	18.0
14.661	17.0
14.676	13.0
14.691	24.0
14.706	21.0
14.721	19.0
14.736	18.0
14.751	19.0
14.766	18.0
14.781	15.0
14.796	12.0
14.811	12.0
14.826	14.0
14.84	16.0
14.855	21.0
14.87	14.0
14.885	16.0
14.9	11.0
14.915	28.0
14.93	20.0
14.945	20.0
14.96	25.0
14.975	11.0
14.989	19.0
15.004	17.0
15.019	12.0
15.034	15.0
15.049	22.0
15.064	11.0
15.079	19.0
15.094	13.0
15.109	8.0
15.124	10.0
15.138	17.0
15.153	17.0
15.168	20.0
15.183	20.0
15.198	20.0
15.213	13.0
15.228	15.0
15.243	18.0
15.258	16.0
15.272	16.0
15.287	20.0
15.302	10.0
15.317	17.0
15.332	15.0
15.347	20.0
15.362	21.0
15.377	16.0
15.391	15.0
15.406	16.0
15.421	14.0
15.436	15.0
15.451	19.0
15.466	11.0
15.481	11.0
15.496	11.0
15.51	13.0
15.525	10.0
15.54	19.0
15.555	9.0
15.57	12.0
15.585	13.0
15.6	12.0
15.614	9.0
15.629	20.0
15.644	13.0
15.659	14.0
15.674	14.0
15.689	11.0
15.704	18.0
15.718	15.0
15.733	17.0
15.748	6.0
15.763	14.0
15.778	15.0
15.793	19.0
15.808	18.0
15.822	15.0
15.837	17.0
15.852	6.0
15.867	10.0
15.882	11.0
15.897	13.0
15.911	14.0
15.926	11.0
15.941	14.0
15.956	14.0
15.971	7.0
15.986	10.0
16.0	15.0
16.015	13.0
16.03	10.0
16.045	11.0
16.06	12.0
16.074	18.0
16.089	12.0
16.104	12.0
16.119	18.0
16.134	14.0
16.149	19.0
16.163	15.0
16.178	12.0
16.193	19.0
16.208	12.0
16.223	14.0
16.237	12.0
16.252	10.0
16.267	18.0
16.282	16.0
16.297	12.0
16.311	9.0
16.326	15.0
16.341	20.0
16.356	14.0
16.37	12.0
16.385	8.0
16.4	19.0
16.415	15.0
16.43	16.0
16.444	11.0
16.459	11.0
16.474	16.0
16.489	20.0
16.504	14.0
16.518	16.0
16.533	16.0
16.548	16.0
16.563	16.0
16.577	17.0
16.592	13.0
16.607	17.0
16.622	22.0
16.637	20.0
16.651	22.0
16.666	9.0
16.681	22.0
16.696	32.0
16.71	25.0
16.725	31.0
16.74	31.0
16.755	34.0
16.77	26.0
16.784	30.0
16.799	37.0
16.814	35.0
16.829	36.0
16.843	48.0
16.858	65.0
16.873	51.0
16.888	56.0
16.902	63.0
16.917	69.0
16.932	70.0
16.947	81.0
16.961	82.0
16.976	85.0
16.991	71.0
17.006	64.0
17.021	64.0
17.035	58.0
17.05	42.0
17.065	55.0
17.08	42.0
17.094	35.0
17.109	27.0
17.124	29.0
17.139	26.0
17.153	15.0
17.168	17.0
17.183	17.0
17.198	10.0
17.212	19.0
17.227	22.0
17.242	15.0
17.257	17.0
17.271	10.0
17.286	14.0
17.301	17.0
17.316	12.0
17.33	7.0
17.345	17.0
17.36	14.0
17.375	19.0
17.39	16.0
17.404	22.0
17.419	10.0
17.434	14.0
17.449	9.0
17.463	9.0
17.478	17.0
17.493	12.0
17.508	11.0
17.522	14.0
17.537	14.0
17.552	16.0
17.567	12.0
17.581	13.0
17.596	6.0
17.611	13.0
17.626	11.0
17.641	11.0
17.655	15.0
17.67	10.0
17.685	14.0
17.7	6.0
17.714	9.0
17.729	7.0
17.744	11.0
17.759	14.0
17.773	16.0
17.788	17.0
17.803	12.0
17.818	16.0
17.833	10.0
17.847	15.0
17.862	13.0
17.877	9.0
17.892	17.0
17.906	5.0
17.921	17.0
17.936	11.0
17.951	8.0
17.966	9.0
17.98	8.0
17.995	10.0
18.01	14.0
18.025	9.0
18.04	8.0
18.054	8.0
18.069	12.0
18.084	21.0
18.099	12.0
18.114	12.0
18.128	12.0
18.143	9.0
18.158	13.0
18.173	11.0
18.188	11.0
18.202	16.0
18.217	13.0
18.232	8.0
18.247	11.0
18.262	11.0
18.276	12.0
18.291	13.0
18.306	10.0
18.321	14.0
18.336	15.0
18.35	14.0
18.365	11.0
18.38	9.0
18.395	14.0
18.41	13.0
18.424	13.0
18.439	10.0
18.454	6.0
18.469	8.0
18.484	7.0
18.498	18.0
18.513	14.0
18.528	16.0
18.543	7.0
18.558	17.0
18.573	16.0
18.587	13.0
18.602	17.0
18.617	9.0
18.632	11.0
18.647	20.0
18.661	15.0
18.676	8.0
18.691	11.0
18.706	16.0
18.721	10.0
18.736	12.0
18.75	8.0
18.765	8.0
18.78	10.0
18.795	12.0
18.81	13.0
18.825	16.0
18.839	16.0
18.854	7.0
18.869	11.0
18.884	15.0
18.899	9.0
18.913	15.0
18.928	10.0
18.943	11.0
18.958	21.0
18.973	11.0
18.988	14.0
19.002	4.0
19.017	12.0
19.032	8.0
19.047	11.0
19.062	11.0
19.077	14.0
19.091	13.0
19.106	9.0
19.121	13.0
19.136	7.0
19.151	19.0
19.165	15.0
19.18	13.0
19.195	10.0
19.21	11.0
19.225	7.0
19.24	20.0
19.254	13.0
19.269	10.0
19.284	18.0
19.299	16.0
19.314	13.0
19.329	19.0
19.343	14.0
19.358	12.0
19.373	15.0
19.388	14.0
19.403	20.0
19.417	21.0
19.432	19.0
19.447	27.0
19.462	27.0
19.477	38.0
19.492	32.0
19.506	35.0
19.521	27.0
19.536	34.0
19.551	47.0
19.566	37.0
19.58	47.0
19.595	45.0
19.61	39.0
19.625	47.0
19.64	61.0
19.655	31.0
19.669	42.0
19.684	28.0
19.699	36.0
19.714	24.0
19.729	24.0
19.743	26.0
19.758	22.0
19.773	19.0
19.788	27.0
19.803	14.0
19.817	27.0
19.832	18.0
19.847	12.0
19.862	10.0
19.877	8.0
19.891	18.0
19.906	10.0
19.921	15.0
19.936	11.0
19.951	11.0
19.965	6.0
19.98	13.0
19.995	14.0
20.01	10.0
20.025	13.0
20.039	17.0
20.054	11.0
20.069	8.0
20.084	8.0
20.099	7.0
20.113	9.0
20.128	18.0
20.143	10.0
20.158	13.0
20.173	13.0
20.187	7.0
20.202	21.0
20.217	8.0
20.232	10.0
20.246	14.0
20.261	10.0
20.276	13.0
20.291	13.0
20.306	11.0
20.32	10.0
20.335	15.0
20.35	8.0
20.365	7.0
20.38	11.0
20.394	9.0
20.409	16.0
20.424	11.0
20.439	13.0
20.453	14.0
20.468	16.0
20.483	10.0
20.498	14.0
20.513	19.0
20.527	11.0
20.542	10.0
20.557	16.0
20.572	11.0
20.586	10.0
20.601	12.0
20.616	11.0
20.631	15.0
20.646	9.0
20.66	5.0
20.675	11.0
20.69	12.0
20.705	7.0
20.719	8.0
20.734	9.0
20.749	13.0
20.764	9.0
20.779	11.0
20.793	11.0
20.808	16.0
20.823	14.0
20.838	4.0
20.853	12.0
20.867	9.0
20.882	12.0
20.897	7.0
20.912	11.0
20.926	18.0
20.941	14.0
20.956	5.0
20.971	6.0
20.986	14.0
21.0	11.0
21.015	15.0
21.03	12.0
21.045	11.0
21.06	11.0
21.074	16.0
21.089	12.0
21.104	8.0
21.119	13.0
21.134	14.0
21.148	13.0
21.163	11.0
21.178	5.0
21.193	9.0
21.208	15.0
21.222	12.0
21.237	13.0
21.252	13.0
21.267	14.0
21.282	10.0
21.296	11.0
21.311	11.0
21.326	15.0
21.341	12.0
21.356	17.0
21.37	6.0
21.385	11.0
21.4	12.0
21.415	11.0
21.43	16.0
21.444	16.0
21.459	11.0
21.474	14.0
21.489	6.0
21.504	12.0
21.519	20.0
21.533	15.0
21.548	12.0
21.563	11.0
21.578	12.0
21.593	14.0
21.608	14.0
21.622	14.0
21.637	16.0
21.652	17.0
21.667	13.0
21.682	21.0
21.697	14.0
21.712	23.0
21.726	25.0
21.741	30.0
21.756	27.0
21.771	27.0
21.786	31.0
21.801	39.0
21.816	48.0
21.83	50.0
21.845	51.0
21.86	53.0
21.875	67.0
21.89	67.0
21.905	59.0
21.92	82.0
21.935	78.0
21.949	82.0
21.964	77.0
21.979	68.0
21.994	81.0
22.009	65.0
22.024	63.0
22.039	48.0
22.054	46.0
22.069	51.0
22.083	53.0
22.098	46.0
22.113	40.0
22.128	29.0
22.143	33.0
22.158	17.0
22.173	26.0
22.188	19.0
22.203	24.0
22.218	15.0
22.233	10.0
22.248	13.0
22.262	16.0
22.277	11.0
22.292	16.0
22.307	13.0
22.322	12.0
22.337	9.0
22.352	17.0
22.367	14.0
22.382	7.0
22.397	13.0
22.412	8.0
22.427	17.0
22.442	13.0
22.457	9.0
22.472	14.0
22.487	13.0
22.502	12.0
22.516	11.0
22.531	14.0
22.546	8.0
22.561	13.0
22.576	10.0
22.591	18.0
22.606	7.0
22.621	12.0
22.636	10.0
22.651	12.0
22.666	8.0
22.681	14.0
22.696	11.0
22.711	11.0
22.726	7.0
22.741	13.0
22.756	18.0
22.771	8.0
22.786	12.0
22.801	12.0
22.816	12.0
22.831	16.0
22.846	11.0
22.861	9.0
22.876	13.0
22.891	7.0
22.906	10.0
22.92	9.0
22.935	13.0
22.95	9.0
22.965	19.0
22.98	11.0
22.995	11.0
23.01	12.0
23.025	12.0
23.04	8.0
23.055	8.0
23.07	7.0
23.085	11.0
23.1	7.0
23.115	9.0
23.13	10.0
23.145	9.0
23.16	6.0
23.175	7.0
23.19	9.0
23.205	14.0
23.22	7.0
23.235	7.0
23.25	15.0
23.265	18.0
23.28	7.0
23.295	8.0
23.31	11.0
23.325	10.0
23.34	12.0
23.355	11.0
23.37	14.0
23.384	9.0
23.399	11.0
23.414	14.0
23.429	10.0
23.444	14.0
23.459	9.0
23.474	5.0
23.489	16.0
23.504	12.0
23.519	9.0
23.534	3.0
23.549	10.0
23.564	7.0
23.579	12.0
23.594	13.0
23.609	11.0
23.624	7.0
23.639	11.0
23.654	9.0
23.668	13.0
23.683	9.0
23.698	12.0
23.713	13.0
23.728	15.0
23.743	11.0
23.758	12.0
23.773	12.0
23.788	8.0
23.803	12.0
23.818	14.0
23.833	17.0
23.848	16.0
23.862	11.0
23.877	13.0
23.892	17.0
23.907	21.0
23.922	18.0
23.937	26.0
23.952	32.0
23.967	30.0
23.982	34.0
23.997	46.0
24.011	57.0
24.026	38.0
24.041	44.0
24.056	49.0
24.071	49.0
24.086	49.0
24.101	57.0
24.116	52.0
24.131	42.0
24.145	36.0
24.16	35.0
24.175	43.0
24.19	32.0
24.205	40.0
24.22	30.0
24.235	36.0
24.249	30.0
24.264	33.0
24.279	32.0
24.294	20.0
24.309	17.0
24.324	16.0
24.338	18.0
24.353	15.0
24.368	19.0
24.383	9.0
24.398	10.0
24.413	17.0
24.428	8.0
24.442	24.0
24.457	12.0
24.472	21.0
24.487	8.0
24.502	9.0
24.516	15.0
24.531	8.0
24.546	10.0
24.561	9.0
24.576	9.0
24.591	11.0
24.605	10.0
24.62	15.0
24.635	16.0
24.65	11.0
24.665	11.0
24.679	16.0
24.694	10.0
24.709	18.0
24.724	14.0
24.739	13.0
24.753	11.0
24.768	7.0
24.783	6.0
24.798	16.0
24.813	7.0
24.827	15.0
24.842	9.0
24.857	12.0
24.872	9.0
24.886	13.0
24.901	13.0
24.916	7.0
24.931	12.0
24.946	9.0
24.96	10.0
24.975	17.0
24.99	10.0
25.005	7.0
25.019	6.0
25.034	8.0
25.049	12.0
25.064	14.0
25.078	12.0
25.093	7.0
25.108	12.0
25.123	14.0
25.138	14.0
25.152	14.0
25.167	10.0
25.182	8.0
25.197	9.0
25.211	12.0
25.226	4.0
25.241	10.0
25.256	14.0
25.27	15.0
25.285	9.0
25.3	8.0
25.315	9.0
25.329	12.0
25.344	13.0
25.359	8.0
25.374	15.0
25.388	15.0
25.403	10.0
25.418	12.0
25.433	7.0
25.447	5.0
25.462	13.0
25.477	11.0
25.492	14.0
25.506	14.0
25.521	9.0
25.536	8.0
25.55	11.0
25.565	6.0
25.58	8.0
25.595	12.0
25.609	5.0
25.624	9.0
25.639	5.0
25.654	12.0
25.668	11.0
25.683	8.0
25.698	8.0
25.713	6.0
25.727	4.0
25.742	12.0
25.757	8.0
25.772	4.0
25.786	7.0
25.801	6.0
25.816	8.0
25.83	8.0
25.845	9.0
25.86	12.0
25.875	12.0
25.889	15.0
25.904	9.0
25.919	6.0
25.934	7.0
25.948	7.0
25.963	11.0
25.978	12.0
25.992	12.0
26.007	11.0
26.022	8.0
26.037	8.0
26.051	7.0
26.066	15.0
26.081	14.0
26.096	13.0
26.11	5.0
26.125	16.0
26.14	10.0
26.155	6.0
26.169	13.0
26.184	9.0
26.199	17.0
26.213	6.0
26.228	10.0
26.243	12.0
26.258	5.0
26.272	6.0
26.287	11.0
26.302	15.0
26.317	14.0
26.331	10.0
26.346	10.0
26.361	11.0
26.376	11.0
26.39	13.0
26.405	9.0
26.42	9.0
26.434	6.0
26.449	9.0
26.464	11.0
26.479	9.0
26.493	7.0
26.508	6.0
26.523	13.0
26.538	8.0
26.552	8.0
26.567	8.0
26.582	15.0
26.597	11.0
26.611	12.0
26.626	9.0
26.641	18.0
26.656	15.0
26.67	6.0
26.685	12.0
26.7	11.0
26.715	7.0
26.729	16.0
26.744	10.0
26.759	11.0
26.773	12.0
26.788	10.0
26.803	11.0
26.818	9.0
26.832	6.0
26.847	11.0
26.862	11.0
26.877	10.0
26.891	12.0
26.906	10.0
26.921	10.0
26.936	11.0
26.95	9.0
26.965	8.0
26.98	8.0
26.995	16.0
27.01	7.0
27.024	9.0
27.039	9.0
27.054	6.0
27.069	9.0
27.083	22.0
27.098	11.0
27.113	12.0
27.128	10.0
27.142	7.0
27.157	12.0
27.172	11.0
27.187	8.0
27.201	15.0
27.216	8.0
27.231	10.0
27.246	13.0
27.261	8.0
27.275	10.0
27.29	16.0
27.305	15.0
27.32	6.0
27.334	13.0
27.349	12.0
27.364	9.0
27.379	8.0
27.394	13.0
27.408	13.0
27.423	9.0
27.438	4.0
27.453	9.0
27.467	14.0
27.482	12.0
27.497	7.0
27.512	5.0
27.527	14.0
27.541	5.0
27.556	9.0
27.571	14.0
27.586	12.0
27.601	13.0
27.615	11.0
27.63	11.0
27.645	10.0
27.66	6.0
27.675	11.0
27.689	17.0
27.704	11.0
27.719	14.0
27.734	15.0
27.749	10.0
27.763	20.0
27.778	12.0
27.793	16.0
27.808	19.0
27.823	24.0
27.838	18.0
27.852	27.0
27.867	29.0
27.882	22.0
27.897	25.0
27.912	13.0
27.926	17.0
27.941	29.0
27.956	16.0
27.971	21.0
27.986	15.0
28.001	18.0
28.015	15.0
28.03	14.0
28.045	16.0
28.06	15.0
28.075	16.0
28.09	6.0
28.105	13.0
28.119	19.0
28.134	19.0
28.149	9.0
28.164	13.0
28.179	11.0
28.194	11.0
28.208	9.0
28.223	12.0
28.238	14.0
28.253	16.0
28.268	7.0
28.283	11.0
28.298	6.0
28.312	10.0
28.327	7.0
28.342	11.0
28.357	11.0
28.372	14.0
28.387	8.0
28.402	14.0
28.417	15.0
28.431	6.0
28.446	11.0
28.461	8.0
28.476	7.0
28.491	11.0
28.506	13.0
28.521	11.0
28.536	10.0
28.55	9.0
28.565	9.0
28.58	11.0
28.595	9.0
28.61	10.0
28.625	14.0
28.64	11.0
28.655	12.0
28.669	9.0
28.684	8.0
28.699	13.0
28.714	14.0
28.729	9.0
28.744	11.0
28.759	13.0
28.774	8.0
28.788	13.0
28.803	9.0
28.818	16.0
28.833	10.0
28.848	15.0
28.863	20.0
28.878	9.0
28.893	5.0
28.908	12.0
28.922	9.0
28.937	10.0
28.952	10.0
28.967	10.0
28.982	17.0
28.997	7.0
29.012	10.0
29.027	14.0
29.041	15.0
29.056	9.0
29.071	16.0
29.086	11.0
29.101	16.0
29.116	14.0
29.131	9.0
29.146	24.0
29.16	12.0
29.175	11.0
29.19	11.0
29.205	15.0
29.22	10.0
29.235	13.0
29.25	9.0
29.265	12.0
29.279	6.0
29.294	9.0
29.309	13.0
29.324	9.0
29.339	7.0
29.354	13.0
29.369	9.0
29.384	13.0
29.398	17.0
29.413	16.0
29.428	20.0
29.443	22.0
29.458	27.0
29.473	23.0
29.488	20.0
29.502	28.0
29.517	32.0
29.532	40.0
29.547	35.0
29.562	31.0
29.577	37.0
29.592	44.0
29.606	55.0
29.621	53.0
29.636	50.0
29.651	42.0
29.666	43.0
29.681	37.0
29.695	36.0
29.71	36.0
29.725	36.0
29.74	29.0
29.755	22.0
29.77	35.0
29.784	36.0
29.799	39.0
29.814	26.0
29.829	28.0
29.844	31.0
29.859	26.0
29.873	23.0
29.888	18.0
29.903	14.0
29.918	14.0
29.933	14.0
29.947	15.0
29.962	18.0
29.977	10.0
29.992	13.0
30.007	10.0
30.021	13.0
30.036	12.0
30.051	9.0
30.066	12.0
30.081	8.0
30.095	6.0
30.11	14.0
30.125	14.0
30.14	11.0
30.155	10.0
30.169	10.0
30.184	8.0
30.199	15.0
30.214	10.0
30.228	14.0
30.243	7.0
30.258	13.0
30.273	9.0
30.288	9.0
30.302	8.0
30.317	16.0
30.332	11.0
30.347	10.0
30.361	13.0
30.376	14.0
30.391	12.0
30.406	10.0
30.42	17.0
30.435	13.0
30.45	7.0
30.465	18.0
30.479	11.0
30.494	17.0
30.509	11.0
30.524	7.0
30.538	14.0
30.553	14.0
30.568	7.0
30.583	10.0
30.597	11.0
30.612	14.0
30.627	7.0
30.641	10.0
30.656	14.0
30.671	10.0
30.686	12.0
30.7	15.0
30.715	11.0
30.73	11.0
30.745	9.0
30.759	14.0
30.774	12.0
30.789	12.0
30.803	13.0
30.818	5.0
30.833	7.0
30.848	12.0
30.862	9.0
30.877	8.0
30.892	14.0
30.906	14.0
30.921	8.0
30.936	10.0
30.951	12.0
30.965	9.0
30.98	10.0
30.995	11.0
31.009	14.0
31.024	6.0
31.039	4.0
31.053	16.0
31.068	17.0
31.083	16.0
31.098	13.0
31.112	22.0
31.127	23.0
31.142	18.0
31.156	27.0
31.171	31.0
31.186	31.0
31.2	34.0
31.215	31.0
31.23	46.0
31.245	36.0
31.259	27.0
31.274	35.0
31.289	41.0
31.303	27.0
31.318	26.0
31.333	28.0
31.347	28.0
31.362	29.0
31.377	25.0
31.392	34.0
31.406	22.0
31.421	23.0
31.436	30.0
31.45	29.0
31.465	28.0
31.48	30.0
31.494	23.0
31.509	30.0
31.524	18.0
31.538	24.0
31.553	21.0
31.568	10.0
31.583	11.0
31.597	14.0
31.612	14.0
31.627	14.0
31.641	9.0
31.656	12.0
31.671	11.0
31.685	10.0
31.7	13.0
31.715	12.0
31.729	11.0
31.744	10.0
31.759	6.0
31.774	15.0
31.788	11.0
31.803	7.0
31.818	7.0
31.832	12.0
31.847	15.0
31.862	7.0
31.876	13.0
31.891	13.0
31.906	11.0
31.92	10.0
31.935	7.0
31.95	7.0
31.965	8.0
31.979	13.0
31.994	13.0
32.009	11.0
32.023	7.0
32.038	14.0
32.053	12.0
32.067	8.0
32.082	10.0
32.097	16.0
32.112	11.0
32.126	8.0
32.141	4.0
32.156	13.0
32.17	9.0
32.185	8.0
32.2	8.0
32.214	7.0
32.229	10.0
32.244	5.0
32.259	8.0
32.273	5.0
32.288	12.0
32.303	14.0
32.317	15.0
32.332	7.0
32.347	8.0
32.362	9.0
32.376	10.0
32.391	13.0
32.406	14.0
32.42	16.0
32.435	14.0
32.45	7.0
32.465	10.0
32.479	7.0
32.494	16.0
32.509	12.0
32.523	10.0
32.538	12.0
32.553	6.0
32.568	11.0
32.582	7.0
32.597	9.0
32.612	10.0
32.627	9.0
32.641	18.0
32.656	6.0
32.671	11.0
32.685	23.0
32.7	19.0
32.715	15.0
32.73	21.0
32.744	10.0
32.759	9.0
32.774	31.0
32.788	18.0
32.803	24.0
32.818	30.0
32.833	29.0
32.847	20.0
32.862	34.0
32.877	15.0
32.892	19.0
32.906	19.0
32.921	30.0
32.936	22.0
32.951	25.0
32.965	19.0
32.98	15.0
32.995	26.0
33.009	24.0
33.024	18.0
33.039	15.0
33.054	17.0
33.068	21.0
33.083	17.0
33.098	6.0
33.113	20.0
33.127	14.0
33.142	12.0
33.157	8.0
33.172	7.0
33.186	13.0
33.201	14.0
33.216	11.0
33.231	9.0
33.245	9.0
33.26	6.0
33.275	12.0
33.29	15.0
33.304	8.0
33.319	8.0
33.334	11.0
33.349	12.0
33.363	13.0
33.378	11.0
33.393	9.0
33.408	16.0
33.422	5.0
33.437	9.0
33.452	8.0
33.467	9.0
33.481	4.0
33.496	7.0
33.511	6.0
33.526	15.0
33.54	9.0
33.555	15.0
33.57	11.0
33.585	13.0
33.599	8.0
33.614	11.0
33.629	9.0
33.644	3.0
33.658	10.0
33.673	12.0
33.688	7.0
33.703	5.0
33.718	10.0
33.732	15.0
33.747	15.0
33.762	6.0
33.777	10.0
33.791	6.0
33.806	10.0
33.821	10.0
33.836	13.0
33.85	14.0
33.865	10.0
33.88	8.0
33.895	13.0
33.91	11.0
33.924	8.0
33.939	7.0
33.954	14.0
33.969	9.0
33.983	11.0
33.998	13.0
34.013	10.0
34.028	11.0
34.042	14.0
34.057	8.0
34.072	15.0
34.087	7.0
34.102	5.0
34.116	10.0
34.131	7.0
34.146	10.0
34.161	17.0
34.175	12.0
34.19	6.0
34.205	12.0
34.22	7.0
34.235	12.0
34.249	14.0
34.264	17.0
34.279	7.0
34.294	11.0
34.309	12.0
34.323	17.0
34.338	17.0
34.353	9.0
34.368	9.0
34.382	15.0
34.397	10.0
34.412	12.0
34.427	12.0
34.442	6.0
34.456	7.0
34.471	9.0
34.486	10.0
34.501	12.0
34.516	8.0
34.53	12.0
34.545	14.0
34.56	6.0
34.575	15.0
34.59	13.0
34.604	17.0
34.619	11.0
34.634	4.0
34.649	3.0
34.664	7.0
34.678	9.0
34.693	9.0
34.708	7.0
34.723	9.0
34.738	7.0
34.752	14.0
34.767	5.0
34.782	11.0
34.797	7.0
34.812	8.0
34.826	17.0
34.841	10.0
34.856	10.0
34.871	5.0
34.886	11.0
34.9	10.0
34.915	8.0
34.93	10.0
34.945	8.0
34.96	9.0
34.974	10.0
34.989	9.0
35.004	12.0
35.019	6.0
35.034	9.0
35.048	10.0
35.063	7.0
35.078	10.0
35.093	6.0
35.108	5.0
35.122	8.0
35.137	12.0
35.152	7.0
35.167	10.0
35.182	9.0
35.196	9.0
35.211	7.0
35.226	10.0
35.241	9.0
35.256	9.0
35.27	9.0
35.285	8.0
35.3	9.0
35.315	9.0
35.33	4.0
35.344	11.0
35.359	4.0
35.374	7.0
35.389	9.0
35.404	8.0
35.418	9.0
35.433	14.0
35.448	19.0
35.463	9.0
35.478	12.0
35.493	9.0
35.507	5.0
35.522	10.0
35.537	10.0
35.552	13.0
35.567	9.0
35.581	5.0
35.596	6.0
35.611	20.0
35.626	5.0
35.641	13.0
35.655	9.0
35.67	12.0
35.685	16.0
35.7	11.0
35.715	12.0
35.729	19.0
35.744	22.0
35.759	17.0
35.774	17.0
35.789	14.0
35.804	16.0
35.818	23.0
35.833	19.0
35.848	13.0
35.863	16.0
35.878	15.0
35.892	12.0
35.907	16.0
35.922	15.0
35.937	15.0
35.952	12.0
35.966	8.0
35.981	23.0
35.996	18.0
36.011	14.0
36.026	17.0
36.04	13.0
36.055	7.0
36.07	14.0
36.085	11.0
36.1	10.0
36.114	10.0
36.129	6.0
36.144	11.0
36.159	13.0
36.174	7.0
36.189	5.0
36.203	8.0
36.218	12.0
36.233	6.0
36.248	7.0
36.263	7.0
36.277	9.0
36.292	8.0
36.307	6.0
36.322	11.0
36.337	5.0
36.351	6.0
36.366	8.0
36.381	13.0
36.396	9.0
36.411	12.0
36.426	6.0
36.44	7.0
36.455	7.0
36.47	8.0
36.485	5.0
36.5	6.0
36.514	10.0
36.529	5.0
36.544	5.0
36.559	11.0
36.574	9.0
36.589	4.0
36.603	6.0
36.618	6.0
36.633	6.0
36.648	4.0
36.663	10.0
36.677	13.0
36.692	9.0
36.707	9.0
36.722	6.0
36.737	6.0
36.752	7.0
36.766	6.0
36.781	12.0
36.796	6.0
36.811	13.0
36.826	6.0
36.841	6.0
36.855	10.0
36.87	6.0
36.885	10.0
36.9	6.0
36.915	10.0
36.93	11.0
36.944	8.0
36.959	4.0
36.974	6.0
36.989	18.0
37.004	6.0
37.019	18.0
37.033	16.0
37.048	16.0
37.063	20.0
37.078	22.0
37.093	24.0
37.108	21.0
37.123	24.0
37.137	21.0
37.152	30.0
37.167	31.0
37.182	31.0
37.197	24.0
37.212	23.0
37.226	23.0
37.241	25.0
37.256	28.0
37.271	23.0
37.286	20.0
37.301	20.0
37.316	9.0
37.331	18.0
37.345	21.0
37.36	20.0
37.375	17.0
37.39	16.0
37.405	17.0
37.42	20.0
37.435	22.0
37.45	10.0
37.464	10.0
37.479	27.0
37.494	10.0
37.509	14.0
37.524	10.0
37.539	8.0
37.554	12.0
37.569	7.0
37.583	8.0
37.598	9.0
37.613	10.0
37.628	8.0
37.643	2.0
37.658	8.0
37.673	6.0
37.688	6.0
37.703	7.0
37.718	7.0
37.733	17.0
37.747	2.0
37.762	7.0
37.777	4.0
37.792	6.0
37.807	6.0
37.822	9.0
37.837	4.0
37.852	11.0
37.867	10.0
37.882	2.0
37.897	8.0
37.912	6.0
37.927	4.0
37.941	5.0
37.956	6.0
37.971	4.0
37.986	5.0
38.001	7.0
38.016	9.0
38.031	4.0
38.046	12.0
38.061	9.0
38.076	10.0
38.091	13.0
38.106	2.0
38.121	10.0
38.136	7.0
38.151	9.0
38.166	4.0
38.181	6.0
38.196	4.0
38.211	7.0
38.226	8.0
38.241	7.0
38.256	5.0
38.271	4.0
38.285	6.0
38.3	5.0
38.315	5.0
38.33	7.0
38.345	5.0
38.36	6.0
38.375	8.0
38.39	3.0
38.405	8.0
38.42	4.0
38.435	5.0
38.45	8.0
38.465	8.0
38.48	9.0
38.495	5.0
38.51	8.0
38.525	11.0
38.54	4.0
38.555	5.0
38.57	5.0
38.585	10.0
38.6	10.0
38.615	7.0
38.63	9.0
38.645	6.0
38.66	8.0
38.675	5.0
38.69	6.0
38.705	9.0
38.72	11.0
38.735	9.0
38.75	6.0
38.765	7.0
38.78	5.0
38.795	6.0
38.81	8.0
38.825	2.0
38.84	7.0
38.855	8.0
38.87	6.0
38.885	6.0
38.9	5.0
38.915	3.0
38.93	6.0
38.945	7.0
38.96	7.0
38.975	4.0
38.99	7.0
39.005	4.0
39.02	8.0
39.035	4.0
39.05	6.0
39.065	7.0
39.08	8.0
39.095	7.0
39.11	9.0
39.125	8.0
39.14	4.0
39.155	2.0
39.17	6.0
39.185	5.0
39.2	5.0
39.215	7.0
39.23	5.0
39.245	6.0
39.26	8.0
39.275	4.0
39.29	9.0
39.305	12.0
39.32	5.0
39.335	7.0
39.35	5.0
39.365	9.0
39.38	5.0
39.395	5.0
39.409	5.0
39.424	5.0
39.439	5.0
39.454	5.0
39.469	7.0
39.484	4.0
39.499	9.0
39.514	4.0
39.529	4.0
39.544	7.0
39.559	2.0
39.574	3.0
39.589	2.0
39.604	6.0
39.619	5.0
39.634	9.0
39.649	1.0
39.664	3.0
39.678	7.0
39.693	9.0
39.708	10.0
39.723	6.0
39.738	10.0
39.753	7.0
39.768	6.0
39.783	8.0
39.798	9.0
39.813	5.0
39.827	6.0
39.842	12.0
39.857	12.0
39.872	2.0
39.887	9.0
39.902	6.0
39.917	6.0
39.932	9.0
39.947	9.0
39.961	11.0
39.976	15.0
39.991	10.0
40.006	8.0
40.021	7.0
40.036	4.0
40.051	5.0
40.065	9.0
40.08	3.0
40.095	12.0
40.11	8.0
40.125	8.0
40.14	4.0
40.154	11.0
40.169	9.0
40.184	8.0
40.199	8.0
40.214	6.0
40.228	5.0
40.243	5.0
40.258	7.0
40.273	4.0
40.288	2.0
40.302	8.0
40.317	2.0
40.332	7.0
40.347	6.0
40.362	3.0
40.376	7.0
40.391	6.0
40.406	4.0
40.421	5.0
40.436	6.0
40.45	5.0
40.465	6.0
40.48	3.0
40.495	5.0
40.509	7.0
40.524	9.0
40.539	5.0
40.554	8.0
40.568	6.0
40.583	2.0
40.598	5.0
40.613	3.0
40.627	8.0
40.642	6.0
40.657	5.0
40.672	3.0
40.686	2.0
40.701	2.0
40.716	4.0
40.731	7.0
40.745	7.0
40.76	7.0
40.775	7.0
40.79	6.0
40.804	5.0
40.819	4.0
40.834	10.0
40.849	5.0
40.863	6.0
40.878	6.0
40.893	5.0
40.907	8.0
40.922	2.0
40.937	9.0
40.952	10.0
40.966	6.0
40.981	11.0
40.996	11.0
41.011	5.0
41.025	8.0
41.04	12.0
41.055	8.0
41.069	13.0
41.084	12.0
41.099	15.0
41.114	21.0
41.128	21.0
41.143	15.0
41.158	28.0
41.173	20.0
41.187	23.0
41.202	22.0
41.217	8.0
41.231	13.0
41.246	8.0
41.261	9.0
41.276	10.0
41.29	11.0
41.305	8.0
41.32	4.0
41.335	13.0
41.349	11.0
41.364	12.0
41.379	13.0
41.393	20.0
41.408	13.0
41.423	5.0
41.438	8.0
41.452	13.0
41.467	13.0
41.482	8.0
41.497	12.0
41.511	3.0
41.526	9.0
41.541	1.0
41.556	7.0
41.57	7.0
41.585	2.0
41.6	6.0
41.615	8.0
41.629	3.0
41.644	8.0
41.659	7.0
41.674	7.0
41.688	9.0
41.703	10.0
41.718	3.0
41.733	4.0
41.747	6.0
41.762	4.0
41.777	5.0
41.792	7.0
41.806	4.0
41.821	4.0
41.836	12.0
41.851	8.0
41.866	9.0
41.88	5.0
41.895	3.0
41.91	9.0
41.925	3.0
41.939	7.0
41.954	3.0
41.969	9.0
41.984	3.0
41.999	2.0
42.013	3.0
42.028	8.0
42.043	7.0
42.058	2.0
42.073	3.0
42.088	1.0
42.102	8.0
42.117	3.0
42.132	8.0
42.147	2.0
42.162	2.0
42.176	12.0
42.191	7.0
42.206	5.0
42.221	11.0
42.236	2.0
42.251	12.0
42.266	14.0
42.28	7.0
42.295	10.0
42.31	6.0
42.325	15.0
42.34	15.0
42.355	17.0
42.369	13.0
42.384	13.0
42.399	14.0
42.414	7.0
42.429	15.0
42.444	25.0
42.459	12.0
42.474	11.0
42.488	9.0
42.503	7.0
42.518	9.0
42.533	11.0
42.548	5.0
42.563	6.0
42.578	7.0
42.593	15.0
42.608	9.0
42.622	11.0
42.637	18.0
42.652	15.0
42.667	14.0
42.682	13.0
42.697	12.0
42.712	8.0
42.727	8.0
42.742	9.0
42.757	3.0
42.772	10.0
42.786	8.0
42.801	8.0
42.816	8.0
42.831	5.0
42.846	3.0
42.861	3.0
42.876	6.0
42.891	10.0
42.906	5.0
42.921	1.0
42.936	5.0
42.951	5.0
42.966	5.0
42.981	5.0
42.996	7.0
43.011	1.0
43.025	5.0
43.04	5.0
43.055	5.0
43.07	5.0
43.085	9.0
43.1	8.0
43.115	3.0
43.13	5.0
43.145	9.0
43.16	1.0
43.175	8.0
43.19	2.0
43.205	5.0
43.22	4.0
43.235	5.0
43.25	3.0
43.265	4.0
43.28	5.0
43.295	8.0
43.31	7.0
43.325	6.0
43.34	6.0
43.355	5.0
43.37	6.0
43.385	11.0
43.4	5.0
43.415	7.0
43.43	5.0
43.445	7.0
43.46	6.0
43.475	5.0
43.49	6.0
43.505	11.0
43.52	3.0
43.535	10.0
43.55	6.0
43.565	8.0
43.58	11.0
43.595	12.0
43.61	12.0
43.625	12.0
43.64	11.0
43.655	10.0
43.67	14.0
43.685	7.0
43.7	9.0
43.715	5.0
43.73	5.0
43.745	4.0
43.76	5.0
43.775	4.0
43.79	8.0
43.805	5.0
43.82	6.0
43.835	10.0
43.85	8.0
43.865	8.0
43.88	3.0
43.895	12.0
43.91	7.0
43.925	5.0
43.94	6.0
43.955	8.0
43.97	5.0
43.985	12.0
44.0	7.0
44.015	2.0
44.03	7.0
44.045	6.0
44.061	8.0
44.076	4.0
44.091	10.0
44.106	10.0
44.121	7.0
44.136	2.0
44.151	7.0
44.166	7.0
44.181	5.0
44.196	5.0
44.211	4.0
44.226	2.0
44.241	3.0
44.256	11.0
44.271	7.0
44.286	4.0
44.301	4.0
44.316	4.0
44.331	10.0
44.346	3.0
44.361	4.0
44.377	7.0
44.392	6.0
44.407	7.0
44.422	7.0
44.437	3.0
44.452	4.0
44.467	5.0
44.482	0.0
44.497	10.0
44.512	5.0
44.527	5.0
44.542	6.0
44.557	7.0
44.572	6.0
44.587	8.0
44.602	7.0
44.617	3.0
44.632	4.0
44.647	4.0
44.663	6.0
44.678	7.0
44.693	10.0
44.708	13.0
44.723	11.0
44.738	10.0
44.753	7.0
44.768	9.0
44.783	8.0
44.798	5.0
44.813	12.0
44.828	13.0
44.843	12.0
44.858	5.0
44.873	5.0
44.888	4.0
44.903	12.0
44.918	6.0
44.933	7.0
44.948	8.0
44.964	6.0
44.979	9.0
44.994	10.0
45.009	6.0
45.024	8.0
45.039	8.0
45.054	13.0
45.069	10.0
45.084	4.0
45.099	8.0
45.114	4.0
45.129	7.0
45.144	6.0
45.159	12.0
45.174	4.0
45.189	8.0
45.204	2.0
45.219	6.0
45.234	4.0
45.249	3.0
45.264	4.0
45.279	11.0
45.294	4.0
45.309	6.0
45.324	3.0
45.339	6.0
45.354	3.0
45.369	7.0
45.384	6.0
45.399	7.0
45.414	4.0
45.429	6.0
45.444	4.0
45.459	7.0
45.474	2.0
45.489	7.0
45.504	9.0
45.519	11.0
45.534	7.0
45.549	8.0
45.564	6.0
45.579	11.0
45.594	5.0
45.609	7.0
45.624	2.0
45.639	4.0
45.654	5.0
45.669	9.0
45.684	4.0
45.699	6.0
45.714	2.0
45.729	13.0
45.744	6.0
45.759	5.0
45.774	4.0
45.789	6.0
45.804	7.0
45.819	5.0
45.834	6.0
45.849	10.0
45.864	5.0
45.879	7.0
45.894	7.0
45.909	16.0
45.924	13.0
45.939	20.0
45.954	13.0
45.969	18.0
45.984	16.0
45.998	16.0
46.013	24.0
46.028	17.0
46.043	13.0
46.058	8.0
46.073	10.0
46.088	9.0
46.103	4.0
46.118	8.0
46.133	11.0
46.148	5.0
46.163	6.0
46.178	4.0
46.192	4.0
46.207	13.0
46.222	11.0
46.237	14.0
46.252	11.0
46.267	10.0
46.282	12.0
46.297	11.0
46.312	10.0
46.327	16.0
46.341	8.0
46.356	7.0
46.371	9.0
46.386	4.0
46.401	12.0
46.416	6.0
46.431	7.0
46.446	3.0
46.46	5.0
46.475	9.0
46.49	5.0
46.505	6.0
46.52	3.0
46.535	8.0
46.55	5.0
46.564	5.0
46.579	5.0
46.594	6.0
46.609	3.0
46.624	7.0
46.639	10.0
46.654	8.0
46.668	4.0
46.683	4.0
46.698	0.0
46.713	3.0
46.728	4.0
46.743	4.0
46.758	5.0
46.772	6.0
46.787	3.0
46.802	6.0
46.817	4.0
46.832	7.0
46.847	9.0
46.861	5.0
46.876	6.0
46.891	7.0
46.906	4.0
46.921	6.0
46.936	5.0
46.95	7.0
46.965	7.0
46.98	7.0
46.995	6.0
47.01	4.0
47.025	6.0
47.039	8.0
47.054	9.0
47.069	11.0
47.084	7.0
47.099	3.0
47.113	5.0
47.128	9.0
47.143	11.0
47.158	4.0
47.173	11.0
47.188	7.0
47.202	7.0
47.217	5.0
47.232	5.0
47.247	5.0
47.262	6.0
47.277	7.0
47.291	10.0
47.306	3.0
47.321	8.0
47.336	7.0
47.351	8.0
47.365	7.0
47.38	9.0
47.395	8.0
47.41	8.0
47.425	9.0
47.44	11.0
47.454	9.0
47.469	6.0
47.484	6.0
47.499	3.0
47.514	3.0
47.528	5.0
47.543	5.0
47.558	12.0
47.573	4.0
47.588	3.0
47.603	4.0
47.617	3.0
47.632	5.0
47.647	5.0
47.662	5.0
47.677	6.0
47.691	9.0
47.706	10.0
47.721	8.0
47.736	5.0
47.751	2.0
47.766	2.0
47.78	1.0
47.795	6.0
47.81	2.0
47.825	7.0
47.84	4.0
47.855	3.0
47.869	4.0
47.884	4.0
47.899	5.0
47.914	7.0
47.929	9.0
47.944	4.0
47.958	5.0
47.973	5.0
47.988	6.0
48.003	4.0
48.018	2.0
48.033	8.0
48.047	4.0
48.062	3.0
48.077	7.0
48.092	2.0
48.107	6.0
48.122	2.0
48.137	7.0
48.151	8.0
48.166	4.0
48.181	5.0
48.196	4.0
48.211	4.0
48.226	4.0
48.241	5.0
48.255	4.0
48.27	2.0
48.285	4.0
48.3	3.0
48.315	2.0
48.33	4.0
48.345	6.0
48.359	3.0
48.374	8.0
48.389	9.0
48.404	4.0
48.419	3.0
48.434	4.0
48.449	3.0
48.464	7.0
48.478	3.0
48.493	4.0
48.508	2.0
48.523	6.0
48.538	5.0
48.553	3.0
48.568	9.0
48.583	6.0
48.597	4.0
48.612	4.0
48.627	4.0
48.642	4.0
48.657	6.0
48.672	6.0
48.687	7.0
48.702	10.0
48.717	7.0
48.731	5.0
48.746	4.0
48.761	3.0
48.776	5.0
48.791	5.0
48.806	2.0
48.821	3.0
48.836	2.0
48.851	3.0
48.866	3.0
48.88	2.0
48.895	5.0
48.91	5.0
48.925	1.0
48.94	6.0
48.955	7.0
48.97	1.0
48.985	4.0
49.0	3.0
49.015	5.0
49.03	1.0
49.044	3.0
49.059	5.0
49.074	5.0
49.089	4.0
49.104	3.0
49.119	4.0
49.134	8.0
49.149	5.0
49.164	6.0
49.179	6.0
49.194	4.0
49.209	5.0
49.224	8.0
49.238	4.0
49.253	3.0
49.268	6.0
49.283	2.0
49.298	9.0
49.313	6.0
49.328	9.0
49.343	8.0
49.358	10.0
49.373	7.0
49.388	7.0
49.403	7.0
49.418	10.0
49.433	6.0
49.448	6.0
49.463	3.0
49.478	10.0
49.492	6.0
49.507	5.0
49.522	5.0
49.537	5.0
49.552	8.0
49.567	2.0
49.582	2.0
49.597	8.0
49.612	6.0
49.627	9.0
49.642	3.0
49.657	8.0
49.672	5.0
49.687	4.0
49.702	1.0
49.717	3.0
49.732	4.0
49.747	9.0
49.762	7.0
49.777	7.0
49.792	5.0
49.807	5.0
49.822	5.0
49.837	2.0
49.852	2.0
49.867	3.0
49.882	4.0
49.897	2.0
49.912	9.0
49.927	6.0
49.942	5.0
49.957	4.0
49.971	7.0
49.986	8.0
50.001	2.0
50.016	8.0
50.031	5.0
50.046	1.0
50.061	4.0
50.076	4.0
50.091	5.0
50.106	5.0
50.121	7.0
50.136	2.0
50.151	8.0
50.166	6.0
50.181	5.0
50.196	6.0
50.211	3.0
50.226	2.0
50.241	4.0
50.256	6.0
50.271	9.0
50.286	6.0
50.302	5.0
50.317	7.0
50.332	2.0
50.347	6.0
50.362	7.0
50.377	3.0
50.392	4.0
50.407	13.0
50.422	11.0
50.437	10.0
50.452	9.0
50.467	7.0
50.482	8.0
50.497	6.0
50.512	6.0
50.527	12.0
50.542	4.0
50.557	6.0
50.572	6.0
50.587	6.0
50.602	6.0
50.617	8.0
50.632	4.0
50.647	5.0
50.662	5.0
50.677	6.0
50.692	6.0
50.707	3.0
50.722	4.0
50.737	3.0
50.752	7.0
50.767	6.0
50.782	5.0
50.797	5.0
50.812	6.0
50.828	5.0
50.843	2.0
50.858	4.0
50.873	3.0
50.888	5.0
50.903	6.0
50.918	7.0
50.933	7.0
50.948	7.0
50.963	4.0
50.978	4.0
50.993	7.0
51.008	7.0
51.023	2.0
51.038	1.0
51.053	4.0
51.068	6.0
51.083	5.0
51.098	3.0
51.114	2.0
51.129	7.0
51.144	5.0
51.159	5.0
51.174	1.0
51.189	6.0
51.204	5.0
51.219	7.0
51.234	9.0
51.249	2.0
51.264	6.0
51.279	6.0
51.294	3.0
51.309	6.0
51.324	10.0
51.34	2.0
51.355	3.0
51.37	10.0
51.385	8.0
51.4	5.0
51.415	5.0
51.43	8.0
51.445	9.0
51.46	8.0
51.475	11.0
51.49	16.0
51.505	12.0
51.52	13.0
51.535	20.0
51.551	12.0
51.566	14.0
51.581	15.0
51.596	13.0
51.611	12.0
51.626	7.0
51.641	5.0
51.656	6.0
51.671	9.0
51.686	5.0
51.701	5.0
51.716	9.0
51.732	6.0
51.747	10.0
51.762	8.0
51.777	8.0
51.792	3.0
51.807	8.0
51.822	10.0
51.837	12.0
51.852	8.0
51.867	14.0
51.882	13.0
51.898	16.0
51.913	10.0
51.928	8.0
51.943	10.0
51.958	6.0
51.973	11.0
51.988	6.0
52.003	11.0
52.018	5.0
52.033	8.0
52.048	6.0
52.064	2.0
52.079	3.0
52.094	5.0
52.109	3.0
52.124	7.0
52.139	3.0
52.154	9.0
52.169	2.0
52.184	2.0
52.199	7.0
52.215	8.0
52.23	1.0
52.245	2.0
52.26	4.0
52.275	4.0
52.29	4.0
52.305	7.0
52.32	5.0
52.335	9.0
52.35	6.0
52.366	3.0
52.381	5.0
52.396	6.0
52.411	4.0
52.426	5.0
52.441	3.0
52.456	9.0
52.471	7.0
52.486	8.0
52.502	7.0
52.517	12.0
52.532	10.0
52.547	4.0
52.562	9.0
52.577	11.0
52.592	8.0
52.607	7.0
52.622	11.0
52.637	12.0
52.653	10.0
52.668	3.0
52.683	5.0
52.698	2.0
52.713	9.0
52.728	8.0
52.743	5.0
52.758	7.0
52.774	4.0
52.789	5.0
52.804	5.0
52.819	8.0
52.834	5.0
52.849	3.0
52.864	8.0
52.879	7.0
52.894	6.0
52.91	8.0
52.925	6.0
52.94	6.0
52.955	10.0
52.97	4.0
52.985	6.0
53.0	7.0
53.015	6.0
53.031	2.0
53.046	6.0
53.061	5.0
53.076	4.0
53.091	6.0
53.106	2.0
53.121	4.0
53.136	4.0
53.152	6.0
53.167	6.0
53.182	5.0
53.197	4.0
53.212	2.0
53.227	7.0
53.242	6.0
53.257	8.0
53.273	7.0
53.288	9.0
53.303	7.0
53.318	6.0
53.333	3.0
53.348	8.0
53.363	6.0
53.379	4.0
53.394	4.0
53.409	4.0
53.424	4.0
53.439	2.0
53.454	1.0
53.469	4.0
53.484	2.0
53.5	5.0
53.515	4.0
53.53	9.0
53.545	1.0
53.56	6.0
53.575	7.0
53.59	4.0
53.606	6.0
53.621	5.0
53.636	2.0
53.651	5.0
53.666	5.0
53.681	8.0
53.696	2.0
53.712	3.0
53.727	2.0
53.742	5.0
53.757	2.0
53.772	4.0
53.787	5.0
53.802	6.0
53.818	7.0
53.833	4.0
53.848	5.0
53.863	2.0
53.878	6.0
53.893	3.0
53.909	4.0
53.924	6.0
53.939	2.0
53.954	3.0
53.969	4.0
53.984	5.0
53.999	8.0
54.015	3.0
54.03	5.0
54.045	0.0
54.06	4.0
54.075	6.0
54.09	1.0
54.106	6.0
54.121	9.0
54.136	4.0
54.151	6.0
54.166	3.0
54.181	1.0
54.197	4.0
54.212	2.0
54.227	4.0
54.242	6.0
54.257	2.0
54.272	2.0
54.288	5.0
54.303	7.0
54.318	5.0
54.333	3.0
54.348	4.0
54.363	3.0
54.379	8.0
54.394	7.0
54.409	6.0
54.424	5.0
54.439	7.0
54.454	5.0
54.47	2.0
54.485	4.0
54.5	5.0
54.515	6.0
54.53	6.0
54.545	7.0
54.561	9.0
54.576	5.0
54.591	9.0
54.606	5.0
54.621	14.0
54.636	9.0
54.652	8.0
54.667	12.0
54.682	9.0
54.697	15.0
54.712	7.0
54.727	10.0
54.743	5.0
54.758	10.0
54.773	10.0
54.788	15.0
54.803	4.0
54.819	2.0
54.834	3.0
54.849	5.0
54.864	8.0
54.879	4.0
54.894	6.0
54.91	5.0
54.925	8.0
54.94	13.0
54.955	12.0
54.97	5.0
54.985	7.0
55.001	10.0
55.016	15.0
55.031	11.0
55.046	9.0
55.061	4.0
55.077	13.0
55.092	7.0
55.107	9.0
55.122	6.0
55.137	3.0
55.152	4.0
55.168	3.0
55.183	3.0
55.198	3.0
55.213	4.0
55.228	8.0
55.243	6.0
55.259	7.0
55.274	6.0
55.289	4.0
55.304	6.0
55.319	6.0
55.335	5.0
55.35	3.0
55.365	6.0
55.38	6.0
55.395	4.0
55.41	3.0
55.426	6.0
55.441	5.0
55.456	1.0
55.471	6.0
55.486	8.0
55.501	2.0
55.517	5.0
55.532	3.0
55.547	5.0
55.562	7.0
55.577	2.0
55.592	7.0
55.608	4.0
55.623	6.0
55.638	8.0
55.653	5.0
55.668	5.0
55.683	6.0
55.699	9.0
55.714	9.0
55.729	11.0
55.744	5.0
55.759	3.0
55.774	8.0
55.79	5.0
55.805	7.0
55.82	7.0
55.835	3.0
55.85	7.0
55.865	6.0
55.881	7.0
55.896	3.0
55.911	2.0
55.926	4.0
55.941	6.0
55.956	3.0
55.972	5.0
55.987	9.0
56.002	6.0
56.017	7.0
56.032	2.0
56.047	6.0
56.063	6.0
56.078	6.0
56.093	9.0
56.108	7.0
56.123	5.0
56.138	7.0
56.154	5.0
56.169	5.0
56.184	8.0
56.199	4.0
56.214	5.0
56.229	4.0
56.244	4.0
56.26	5.0
56.275	6.0
56.29	5.0
56.305	4.0
56.32	5.0
56.335	5.0
56.351	4.0
56.366	5.0
56.381	7.0
56.396	3.0
56.411	2.0
56.426	1.0
56.441	6.0
56.457	3.0
56.472	6.0
56.487	5.0
56.502	5.0
56.517	3.0
56.532	3.0
56.547	8.0
56.563	3.0
56.578	8.0
56.593	3.0
56.608	6.0
56.623	4.0
56.638	6.0
56.653	1.0
56.668	6.0
56.684	5.0
56.699	8.0
56.714	4.0
56.729	2.0
56.744	5.0
56.759	5.0
56.774	4.0
56.79	6.0
56.805	2.0
56.82	4.0
56.835	1.0
56.85	1.0
56.865	3.0
56.88	6.0
56.895	3.0
56.911	5.0
56.926	8.0
56.941	5.0
56.956	4.0
56.971	4.0
56.986	2.0
57.001	3.0
57.016	2.0
57.031	3.0
57.047	4.0
57.062	3.0
57.077	4.0
57.092	3.0
57.107	6.0
57.122	6.0
57.137	3.0
57.152	3.0
57.167	2.0
57.183	5.0
57.198	1.0
57.213	7.0
57.228	5.0
57.243	8.0
57.258	4.0
57.273	6.0
57.288	7.0
57.303	1.0
57.318	2.0
57.334	5.0
57.349	4.0
57.364	2.0
57.379	6.0
57.394	5.0
57.409	6.0
57.424	2.0
57.439	2.0
57.454	5.0
57.469	3.0
57.484	1.0
57.5	4.0
57.515	3.0
57.53	3.0
57.545	6.0
57.56	4.0
57.575	7.0
57.59	5.0
57.605	3.0
57.62	5.0
57.635	10.0
57.65	4.0
57.665	8.0
57.68	11.0
57.696	9.0
57.711	2.0
57.726	8.0
57.741	4.0
57.756	2.0
57.771	4.0
57.786	3.0
57.801	2.0
57.816	4.0
57.831	3.0
57.846	5.0
57.861	1.0
57.876	2.0
57.891	4.0
57.906	3.0
57.921	1.0
57.937	7.0
57.952	6.0
57.967	5.0
57.982	6.0
57.997	5.0
58.012	4.0
58.027	5.0
58.042	6.0
58.057	2.0
58.072	8.0
58.087	5.0
58.102	4.0
58.117	5.0
58.132	4.0
58.147	2.0
58.162	3.0
58.177	5.0
58.192	4.0
58.207	9.0
58.222	8.0
58.237	5.0
58.252	7.0
58.267	1.0
58.282	2.0
58.297	0.0
58.312	4.0
58.327	6.0
58.342	4.0
58.357	3.0
58.372	7.0
58.387	7.0
58.402	3.0
58.418	5.0
58.433	2.0
58.448	8.0
58.463	8.0
58.478	4.0
58.493	10.0
58.508	3.0
58.523	5.0
58.538	11.0
58.553	7.0
58.568	5.0
58.583	7.0
58.598	9.0
58.613	9.0
58.628	10.0
58.643	13.0
58.658	12.0
58.673	12.0
58.688	5.0
58.703	12.0
58.718	5.0
58.733	6.0
58.748	2.0
58.763	3.0
58.778	3.0
58.793	7.0
58.808	7.0
58.823	8.0
58.838	0.0
58.853	2.0
58.868	3.0
58.883	2.0
58.898	0.0
58.913	12.0
58.928	5.0
58.942	7.0
58.957	6.0
58.972	7.0
58.987	6.0
59.002	6.0
59.017	3.0
59.032	7.0
59.047	8.0
59.062	7.0
59.077	6.0
59.092	6.0
59.107	6.0
59.122	5.0
59.137	8.0
59.152	6.0
59.167	3.0
59.182	4.0
59.197	1.0
59.212	5.0
59.227	5.0
59.242	5.0
59.257	3.0
59.272	5.0
59.287	5.0
59.302	6.0
59.317	3.0
59.332	7.0
59.347	6.0
59.362	5.0
59.377	2.0
59.392	1.0
59.407	3.0
59.422	3.0
59.437	3.0
59.452	4.0
59.467	2.0
59.482	3.0
59.497	2.0
59.512	6.0
59.527	4.0
59.542	6.0
59.557	10.0
59.572	6.0
59.587	6.0
59.602	7.0
59.617	10.0
59.632	9.0
59.647	3.0
59.661	9.0
59.676	9.0
59.691	7.0
59.706	11.0
59.721	4.0
59.736	4.0
59.751	8.0
59.766	7.0
59.781	3.0
59.796	5.0
59.811	4.0
59.826	6.0
59.841	3.0
59.856	3.0
59.871	3.0
59.886	4.0
59.901	3.0
59.916	9.0
59.931	3.0
59.946	6.0
59.961	9.0
59.976	4.0
59.991	8.0
60.006	5.0
60.021	5.0
60.036	11.0
60.051	8.0
60.066	10.0
60.081	5.0
60.096	2.0
60.111	3.0
60.126	2.0
60.141	4.0
60.156	8.0
60.171	2.0
60.186	10.0
60.201	2.0
60.216	7.0
60.231	4.0
60.246	6.0
60.261	4.0
60.276	2.0
60.291	3.0
60.306	9.0
60.321	4.0
60.336	2.0
60.35	7.0
60.365	4.0
60.38	8.0
60.395	2.0
60.41	5.0
60.425	4.0
60.44	8.0
60.455	3.0
60.47	3.0
60.485	6.0
60.5	5.0
60.515	8.0
60.53	9.0
60.545	3.0
60.56	7.0
60.575	8.0
60.59	9.0
60.605	7.0
60.62	7.0
60.635	6.0
60.65	5.0
60.665	6.0
60.68	6.0
60.695	3.0
60.71	4.0
60.725	0.0
60.74	6.0
60.755	4.0
60.77	2.0
60.785	1.0
60.8	8.0
60.815	2.0
60.83	3.0
60.845	7.0
60.86	5.0
60.875	5.0
60.89	5.0
60.905	4.0
60.92	5.0
60.935	5.0
60.95	6.0
60.965	2.0
60.98	8.0
60.995	12.0
61.01	8.0
61.025	6.0
61.04	7.0
61.055	2.0
61.07	6.0
61.085	4.0
61.1	5.0
61.115	2.0
61.13	3.0
61.145	4.0
61.16	3.0
61.175	2.0
61.191	4.0
61.206	6.0
61.221	2.0
61.236	5.0
61.251	3.0
61.266	0.0
61.281	3.0
61.296	2.0
61.311	0.0
61.326	2.0
61.341	5.0
61.356	6.0
61.371	2.0
61.386	5.0
61.401	2.0
61.416	7.0
61.431	4.0
61.446	5.0
61.461	5.0
61.476	7.0
61.491	3.0
61.506	4.0
61.521	10.0
61.536	4.0
61.551	0.0
61.566	4.0
61.581	5.0
61.596	4.0
61.611	7.0
61.626	8.0
61.641	2.0
61.656	2.0
61.672	2.0
61.687	2.0
61.702	3.0
61.717	4.0
61.732	4.0
61.747	3.0
61.762	3.0
61.777	3.0
61.792	7.0
61.807	3.0
61.822	7.0
61.837	4.0
61.852	6.0
61.867	4.0
61.882	9.0
61.897	9.0
61.912	7.0
61.927	5.0
61.943	7.0
61.958	3.0
61.973	7.0
61.988	4.0
62.003	4.0
62.018	7.0
62.033	1.0
62.048	3.0
62.063	1.0
62.078	7.0
62.093	4.0
62.108	4.0
62.123	3.0
62.138	7.0
62.153	3.0
62.169	4.0
62.184	7.0
62.199	3.0
62.214	4.0
62.229	2.0
62.244	4.0
62.259	3.0
62.274	2.0
62.289	2.0
62.304	7.0
62.319	3.0
62.335	2.0
62.35	3.0
62.365	5.0
62.38	1.0
62.395	7.0
62.41	4.0
62.425	7.0
62.44	6.0
62.455	8.0
62.47	7.0
62.485	4.0
62.501	4.0
62.516	6.0
62.531	6.0
62.546	7.0
62.561	2.0
62.576	2.0
62.591	1.0
62.606	2.0
62.621	5.0
62.636	3.0
62.652	3.0
62.667	11.0
62.682	3.0
62.697	5.0
62.712	3.0
62.727	3.0
62.742	3.0
62.757	3.0
62.772	1.0
62.787	3.0
62.803	7.0
62.818	2.0
62.833	3.0
62.848	1.0
62.863	9.0
62.878	0.0
62.893	6.0
62.908	5.0
62.923	4.0
62.939	5.0
62.954	3.0
62.969	6.0
62.984	5.0
62.999	5.0
63.014	5.0
63.029	4.0
63.044	6.0
63.059	4.0
63.074	5.0
63.09	4.0
63.105	4.0
63.12	3.0
63.135	3.0
63.15	3.0
63.165	7.0
63.18	2.0
63.195	7.0
63.21	3.0
63.226	4.0
63.241	4.0
63.256	3.0
63.271	6.0
63.286	11.0
63.301	4.0
63.316	0.0
63.331	8.0
63.346	3.0
63.362	2.0
63.377	5.0
63.392	6.0
63.407	7.0
63.422	5.0
63.437	15.0
63.452	8.0
63.467	7.0
63.482	5.0
63.497	9.0
63.513	4.0
63.528	2.0
63.543	4.0
63.558	2.0
63.573	3.0
63.588	3.0
63.603	6.0
63.618	8.0
63.633	4.0
63.648	0.0
63.664	8.0
63.679	3.0
63.694	3.0
63.709	1.0
63.724	4.0
63.739	3.0
63.754	4.0
63.769	3.0
63.784	5.0
63.799	5.0
63.814	10.0
63.83	7.0
63.845	3.0
63.86	6.0
63.875	6.0
63.89	3.0
63.905	6.0
63.92	3.0
63.935	3.0
63.95	4.0
63.965	4.0
63.98	7.0
63.996	5.0
64.011	3.0
64.026	5.0
64.041	7.0
64.056	3.0
64.071	6.0
64.086	4.0
64.101	2.0
64.116	3.0
64.131	3.0
64.146	8.0
64.161	0.0
64.176	2.0
64.191	4.0
64.207	5.0
64.222	5.0
64.237	3.0
64.252	4.0
64.267	3.0
64.282	1.0
64.297	3.0
64.312	1.0
64.327	5.0
64.342	3.0
64.357	5.0
64.372	2.0
64.387	6.0
64.402	2.0
64.417	5.0
64.433	3.0
64.448	2.0
64.463	4.0
64.478	4.0
64.493	2.0
64.508	2.0
64.523	4.0
64.538	3.0
64.553	4.0
64.568	4.0
64.583	4.0
64.598	3.0
64.613	3.0
64.628	3.0
64.643	4.0
64.658	2.0
64.673	3.0
64.688	1.0
64.703	3.0
64.718	2.0
64.734	3.0
64.749	3.0
64.764	3.0
64.779	2.0
64.794	4.0
64.809	4.0
64.824	5.0
64.839	2.0
64.854	2.0
64.869	5.0
64.884	4.0
64.899	10.0
64.914	4.0
64.929	5.0
64.944	5.0
64.959	6.0
64.974	3.0
64.989	3.0
65.004	7.0
65.019	4.0
65.034	1.0
65.049	1.0
65.064	1.0
65.079	4.0
65.094	2.0
65.109	5.0
65.125	6.0
65.14	5.0
65.155	5.0
65.17	4.0
65.185	7.0
65.2	5.0
65.215	2.0
65.23	7.0
65.245	4.0
65.26	3.0
65.275	2.0
65.29	9.0
65.305	8.0
65.32	7.0
65.335	5.0
65.35	4.0
65.365	1.0
65.38	5.0
65.395	2.0
65.41	4.0
65.425	6.0
65.44	2.0
65.455	2.0
65.47	2.0
65.485	2.0
65.5	7.0
65.515	2.0
65.53	1.0
65.545	2.0
65.56	2.0
65.575	4.0
65.59	3.0
65.605	4.0
65.62	3.0
65.635	7.0
65.65	5.0
65.666	1.0
65.681	3.0
65.696	4.0
65.711	4.0
65.726	1.0
65.741	3.0
65.756	2.0
65.771	10.0
65.786	3.0
65.801	1.0
65.816	8.0
65.831	3.0
65.846	4.0
65.861	7.0
65.876	2.0
65.891	4.0
65.906	6.0
65.921	5.0
65.936	2.0
65.951	5.0
65.966	3.0
65.981	5.0
65.996	2.0
66.011	6.0
66.026	5.0
66.041	2.0
66.056	3.0
66.071	4.0
66.086	5.0
66.101	2.0
66.116	4.0
66.131	11.0
66.146	3.0
66.161	6.0
66.176	10.0
66.191	7.0
66.206	7.0
66.221	8.0
66.236	6.0
66.251	8.0
66.266	8.0
66.281	6.0
66.296	4.0
66.311	6.0
66.327	3.0
66.342	1.0
66.357	3.0
66.372	5.0
66.387	4.0
66.402	3.0
66.417	8.0
66.432	7.0
66.447	3.0
66.462	8.0
66.477	2.0
66.492	4.0
66.507	5.0
66.522	7.0
66.537	1.0
66.552	2.0
66.567	6.0
66.582	6.0
66.597	3.0
66.612	1.0
66.627	6.0
66.642	4.0
66.657	8.0
66.672	7.0
66.687	2.0
66.702	9.0
66.717	5.0
66.732	3.0
66.747	3.0
66.762	4.0
66.777	2.0
66.792	2.0
66.807	2.0
66.822	4.0
66.837	4.0
66.853	6.0
66.868	4.0
66.883	5.0
66.898	1.0
66.913	2.0
66.928	4.0
66.943	0.0
66.958	3.0
66.973	6.0
66.988	1.0
67.003	2.0
67.018	5.0
67.033	5.0
67.048	5.0
67.063	4.0
67.078	2.0
67.093	6.0
67.108	4.0
67.123	7.0
67.138	6.0
67.153	4.0
67.168	4.0
67.183	2.0
67.198	11.0
67.214	6.0
67.229	6.0
67.244	3.0
67.259	3.0
67.274	5.0
67.289	2.0
67.304	2.0
67.319	4.0
67.334	1.0
67.349	6.0
67.364	2.0
67.379	3.0
67.394	6.0
67.409	3.0
67.424	3.0
67.439	2.0
67.454	3.0
67.469	2.0
67.484	8.0
67.5	8.0
67.515	3.0
67.53	4.0
67.545	8.0
67.56	3.0
67.575	7.0
67.59	7.0
67.605	4.0
67.62	3.0
67.635	4.0
67.65	6.0
67.665	6.0
67.68	5.0
67.695	0.0
67.71	3.0
67.726	2.0
67.741	3.0
67.756	9.0
67.771	2.0
67.786	6.0
67.801	3.0
67.816	3.0
67.831	4.0
67.846	8.0
67.861	1.0
67.876	5.0
67.891	1.0
67.906	5.0
67.922	4.0
67.937	6.0
67.952	3.0
67.967	3.0
67.982	4.0
67.997	3.0
68.012	3.0
68.027	5.0
68.042	6.0
68.057	7.0
68.072	4.0
68.087	4.0
68.103	3.0
68.118	5.0
68.133	5.0
68.148	2.0
68.163	6.0
68.178	5.0
68.193	4.0
68.208	3.0
68.223	5.0
68.238	3.0
68.254	5.0
68.269	4.0
68.284	4.0
68.299	6.0
68.314	2.0
68.329	4.0
68.344	3.0
68.359	3.0
68.374	3.0
68.389	2.0
68.405	1.0
68.42	4.0
68.435	4.0
68.45	7.0
68.465	6.0
68.48	5.0
68.495	5.0
68.51	5.0
68.525	4.0
68.54	6.0
68.556	2.0
68.571	3.0
68.586	4.0
68.601	2.0
68.616	3.0
68.631	3.0
68.646	2.0
68.661	4.0
68.676	3.0
68.691	3.0
68.707	4.0
68.722	6.0
68.737	1.0
68.752	2.0
68.767	1.0
68.782	6.0
68.797	5.0
68.812	2.0
68.827	3.0
68.842	3.0
68.857	5.0
68.873	5.0
68.888	1.0
68.903	3.0
68.918	5.0
68.933	3.0
68.948	3.0
68.963	3.0
68.978	6.0
68.993	4.0
69.008	2.0
69.023	0.0
69.038	4.0
69.054	2.0
69.069	4.0
69.084	3.0
69.099	4.0
69.114	5.0
69.129	4.0
69.144	2.0
69.159	2.0
69.174	2.0
69.189	4.0
69.204	3.0
69.219	2.0
69.234	2.0
69.249	6.0
69.264	3.0
69.279	5.0
69.295	7.0
69.31	3.0
69.325	6.0
69.34	2.0
69.355	5.0
69.37	1.0
69.385	3.0
69.4	3.0
69.415	5.0
69.43	3.0
69.445	3.0
69.46	2.0
69.475	4.0
69.49	5.0
69.505	3.0
69.52	6.0
69.535	4.0
69.55	3.0
69.565	1.0
69.58	4.0
69.595	3.0
69.61	3.0
69.625	3.0
69.64	6.0
69.655	4.0
69.67	2.0
69.685	5.0
69.7	8.0
69.715	6.0
69.73	5.0
69.745	6.0
69.76	3.0
69.775	6.0
69.79	8.0
69.805	5.0
69.82	2.0
69.835	8.0
69.85	7.0
69.865	6.0
69.88	8.0
69.895	1.0
69.909	7.0
69.924	6.0
69.939	3.0
69.954	3.0
69.969	3.0
69.984	5.0
69.999	4.0
70.014	5.0
70.029	5.0
70.044	2.0
70.059	2.0
70.074	6.0
70.088	4.0
70.103	3.0
70.118	4.0
70.133	5.0
70.148	2.0
70.163	2.0
70.178	3.0
70.193	8.0
70.208	4.0
70.222	4.0
70.237	9.0
70.252	5.0
70.267	9.0
70.282	4.0
70.297	3.0
70.312	5.0
70.327	10.0
70.341	4.0
70.356	5.0
70.371	4.0
70.386	1.0
70.401	5.0
70.416	4.0
70.43	4.0
70.445	3.0
70.46	3.0
70.475	4.0
70.49	1.0
70.505	3.0
70.519	2.0
70.534	3.0
70.549	3.0
70.564	8.0
70.579	4.0
70.594	4.0
70.608	5.0
70.623	5.0
70.638	4.0
70.653	5.0
70.668	3.0
70.683	5.0
70.697	4.0
70.712	5.0
70.727	5.0
70.742	5.0
70.757	3.0
70.771	7.0
70.786	4.0
70.801	3.0
70.816	3.0
70.831	4.0
70.845	4.0
70.86	3.0
70.875	3.0
70.89	3.0
70.905	12.0
70.92	10.0
70.934	5.0
70.949	2.0
70.964	3.0
70.979	0.0
70.994	6.0
71.008	4.0
71.023	4.0
71.038	1.0
71.053	7.0
71.068	5.0
71.082	6.0
71.097	7.0
71.112	2.0
71.127	1.0
71.142	3.0
71.156	5.0
71.171	3.0
71.186	5.0
71.201	4.0
71.216	4.0
71.231	6.0
71.245	3.0
71.26	6.0
71.275	3.0
71.29	3.0
71.305	2.0
71.319	3.0
71.334	2.0
71.349	2.0
71.364	2.0
71.379	5.0
71.394	4.0
71.408	5.0
71.423	3.0
71.438	6.0
71.453	3.0
71.468	6.0
71.483	3.0
71.497	2.0
71.512	3.0
71.527	4.0
71.542	4.0
71.557	3.0
71.572	2.0
71.586	2.0
71.601	3.0
71.616	4.0
71.631	7.0
71.646	6.0
71.661	1.0
71.676	6.0
71.69	3.0
71.705	2.0
71.72	2.0
71.735	3.0
71.75	1.0
71.765	7.0
71.78	4.0
71.795	2.0
71.81	2.0
71.824	3.0
71.839	4.0
71.854	3.0
71.869	2.0
71.884	1.0
71.899	4.0
71.914	1.0
71.929	4.0
71.944	4.0
71.959	6.0
71.974	2.0
71.988	2.0
72.003	7.0
72.018	3.0
72.033	6.0
72.048	4.0
72.063	2.0
72.078	4.0
72.093	8.0
72.108	2.0
72.123	5.0
72.138	2.0
72.153	3.0
72.168	4.0
72.183	2.0
72.198	3.0
72.213	4.0
72.228	2.0
72.243	4.0
72.258	1.0
72.273	4.0
72.288	6.0
72.303	4.0
72.318	5.0
72.333	0.0
72.348	2.0
72.363	6.0
72.378	6.0
72.393	2.0
72.408	1.0
72.423	5.0
72.438	3.0
72.453	9.0
72.468	4.0
72.483	4.0
72.498	3.0
72.513	5.0
72.528	2.0
72.543	7.0
72.558	3.0
72.573	1.0
72.588	1.0
72.603	3.0
72.618	4.0
72.633	4.0
72.649	0.0
72.664	2.0
72.679	3.0
72.694	2.0
72.709	5.0
72.724	5.0
72.739	2.0
72.754	1.0
72.769	4.0
72.784	2.0
72.799	2.0
72.814	3.0
72.829	3.0
72.845	1.0
72.86	7.0
72.875	4.0
72.89	4.0
72.905	0.0
72.92	2.0
72.935	3.0
72.95	3.0
72.965	4.0
72.98	2.0
72.996	2.0
73.011	1.0
73.026	2.0
73.041	5.0
73.056	4.0
73.071	3.0
73.086	4.0
73.101	4.0
73.117	2.0
73.132	1.0
73.147	2.0
73.162	4.0
73.177	5.0
73.192	5.0
73.207	4.0
73.222	7.0
73.238	3.0
73.253	2.0
73.268	5.0
73.283	5.0
73.298	3.0
73.313	3.0
73.328	6.0
73.343	3.0
73.359	4.0
73.374	5.0
73.389	5.0
73.404	1.0
73.419	1.0
73.434	7.0
73.449	6.0
73.465	4.0
73.48	7.0
73.495	3.0
73.51	2.0
73.525	7.0
73.54	5.0
73.556	2.0
73.571	3.0
73.586	5.0
73.601	6.0
73.616	3.0
73.631	2.0
73.646	5.0
73.662	4.0
73.677	4.0
73.692	4.0
73.707	3.0
73.722	5.0
73.737	2.0
73.752	1.0
73.768	0.0
73.783	6.0
73.798	5.0
73.813	5.0
73.828	3.0
73.843	6.0
73.859	4.0
73.874	4.0
73.889	4.0
73.904	5.0
73.919	5.0
73.934	7.0
73.949	2.0
73.965	5.0
73.98	5.0
73.995	3.0
74.01	5.0
74.025	8.0
74.04	2.0
74.056	2.0
74.071	3.0
74.086	2.0
74.101	5.0
74.116	5.0
74.131	4.0
74.146	8.0
74.162	4.0
74.177	7.0
74.192	7.0
74.207	7.0
74.222	7.0
74.237	7.0
74.252	6.0
74.268	3.0
74.283	4.0
74.298	5.0
74.313	3.0
74.328	2.0
74.343	0.0
74.358	5.0
74.374	3.0
74.389	5.0
74.404	5.0
74.419	3.0
74.434	0.0
74.449	1.0
74.464	2.0
74.48	1.0
74.495	2.0
74.51	4.0
74.525	5.0
74.54	3.0
74.555	4.0
74.57	6.0
74.586	3.0
74.601	2.0
74.616	2.0
74.631	4.0
74.646	1.0
74.661	4.0
74.676	6.0
74.691	4.0
74.707	8.0
74.722	5.0
74.737	3.0
74.752	1.0
74.767	2.0
74.782	5.0
74.797	3.0
74.813	4.0
74.828	2.0
74.843	6.0
74.858	6.0
74.873	3.0
74.888	1.0
74.903	3.0
74.918	2.0
74.934	5.0
74.949	7.0
74.964	8.0
74.979	9.0
74.994	6.0
75.009	1.0
75.024	1.0
75.04	6.0
75.055	2.0
75.07	2.0
75.085	1.0
75.1	5.0
75.115	3.0
75.13	1.0
75.145	9.0
75.161	2.0
75.176	0.0
75.191	3.0
75.206	2.0
75.221	4.0
75.236	3.0
75.251	2.0
75.266	3.0
75.282	2.0
75.297	3.0
75.312	1.0
75.327	7.0
75.342	3.0
75.357	5.0
75.372	3.0
75.387	1.0
75.403	0.0
75.418	6.0
75.433	4.0
75.448	3.0
75.463	2.0
75.478	4.0
75.493	3.0
75.509	5.0
75.524	3.0
75.539	5.0
75.554	4.0
75.569	7.0
75.584	11.0
75.599	4.0
75.614	2.0
75.63	3.0
75.645	3.0
75.66	1.0
75.675	4.0
75.69	8.0
75.705	8.0
75.72	1.0
75.735	4.0
75.751	5.0
75.766	10.0
75.781	1.0
75.796	1.0
75.811	4.0
75.826	5.0
75.841	4.0
75.856	4.0
75.872	5.0
75.887	2.0
75.902	5.0
75.917	4.0
75.932	6.0
75.947	3.0
75.962	1.0
75.977	7.0
75.993	5.0
76.008	5.0
76.023	2.0
76.038	5.0
76.053	1.0
76.068	3.0
76.083	2.0
76.098	3.0
76.114	1.0
76.129	2.0
76.144	3.0
76.159	1.0
76.174	1.0
76.189	1.0
76.204	5.0
76.22	2.0
76.235	9.0
76.25	2.0
76.265	3.0
76.28	7.0
76.295	2.0
76.31	3.0
76.325	6.0
76.341	3.0
76.356	3.0
76.371	3.0
76.386	2.0
76.401	3.0
76.416	2.0
76.431	5.0
76.446	5.0
76.462	7.0
76.477	4.0
76.492	4.0
76.507	3.0
76.522	3.0
76.537	2.0
76.552	4.0
76.567	3.0
76.583	4.0
76.598	3.0
76.613	3.0
76.628	3.0
76.643	2.0
76.658	1.0
76.673	5.0
76.688	3.0
76.704	5.0
76.719	2.0
76.734	9.0
76.749	2.0
76.764	6.0
76.779	7.0
76.794	5.0
76.809	4.0
76.824	1.0
76.84	2.0
76.855	1.0
76.87	4.0
76.885	8.0
76.9	2.0
76.915	3.0
76.93	3.0
76.945	3.0
76.96	3.0
76.976	8.0
76.991	7.0
77.006	6.0
77.021	0.0
77.036	2.0
77.051	1.0
77.066	5.0
77.081	5.0
77.096	4.0
77.112	2.0
77.127	4.0
77.142	6.0
77.157	1.0
77.172	3.0
77.187	1.0
77.202	2.0
77.217	1.0
77.232	0.0
77.247	2.0
77.263	1.0
77.278	3.0
77.293	3.0
77.308	6.0
77.323	3.0
77.338	2.0
77.353	0.0
77.368	2.0
77.383	7.0
77.398	1.0
77.413	3.0
77.428	3.0
77.444	4.0
77.459	6.0
77.474	2.0
77.489	1.0
77.504	5.0
77.519	6.0
77.534	8.0
77.549	4.0
77.564	4.0
77.579	7.0
77.594	3.0
77.609	4.0
77.624	8.0
77.64	4.0
77.655	6.0
77.67	4.0
77.685	4.0
77.7	6.0
77.715	2.0
77.73	1.0
77.745	6.0
77.76	4.0
77.775	4.0
77.79	3.0
77.805	2.0
77.82	3.0
77.835	6.0
77.85	1.0
77.865	1.0
77.88	1.0
77.895	4.0
77.91	6.0
77.926	1.0
77.941	1.0
77.956	4.0
77.971	1.0
77.986	4.0
78.001	4.0
78.016	2.0
78.031	6.0
78.046	3.0
78.061	0.0
78.076	5.0
78.091	3.0
78.106	2.0
78.121	7.0
78.136	2.0
78.151	4.0
78.166	2.0
78.181	8.0
78.196	0.0
78.211	2.0
78.226	3.0
78.241	4.0
78.256	4.0
78.271	2.0
78.286	5.0
78.301	5.0
78.316	3.0
78.331	3.0
78.346	6.0
78.361	4.0
78.376	5.0
78.391	4.0
78.406	6.0
78.421	2.0
78.436	3.0
78.451	3.0
78.466	3.0
78.481	2.0
78.496	6.0
78.511	1.0
78.526	2.0
78.541	4.0
78.556	2.0
78.571	3.0
78.586	1.0
78.601	2.0
78.616	1.0
78.631	1.0
78.646	6.0
78.661	5.0
78.676	2.0
78.691	1.0
78.706	4.0
78.721	2.0
78.736	1.0
78.751	2.0
78.766	6.0
78.781	3.0
78.796	4.0
78.811	1.0
78.826	1.0
78.841	4.0
78.856	5.0
78.871	3.0
78.885	3.0
78.9	3.0
78.915	2.0
78.93	3.0
78.945	2.0
78.96	3.0
78.975	2.0
78.99	3.0
79.005	7.0
79.02	5.0
79.035	4.0
79.05	3.0
79.065	2.0
79.08	4.0
79.095	1.0
79.11	4.0
79.125	0.0
79.14	3.0
79.155	3.0
79.17	4.0
79.185	2.0
79.2	2.0
79.215	5.0
79.23	3.0
79.245	2.0
79.26	3.0
79.275	8.0
79.29	4.0
79.304	2.0
79.319	3.0
79.334	6.0
79.349	1.0
79.364	3.0
79.379	1.0
79.394	1.0
79.409	4.0
79.424	2.0
79.439	2.0
79.454	3.0
79.469	1.0
79.484	4.0
79.499	2.0
79.514	7.0
79.529	3.0
79.544	3.0
79.559	1.0
79.574	2.0
79.589	3.0
79.604	5.0
79.619	4.0
79.634	2.0
79.649	4.0
79.664	4.0
79.679	2.0
79.693	3.0
79.708	3.0
79.723	4.0
79.738	3.0
79.753	4.0
79.768	1.0
79.783	1.0
79.798	1.0
79.813	4.0
79.828	1.0
79.843	0.0
79.858	4.0
79.873	4.0
79.888	1.0
79.903	3.0
79.918	6.0
79.933	3.0
79.948	1.0
79.963	6.0
79.978	9.0
79.993	4.0
80.008	7.0
80.023	5.0
80.038	5.0
80.053	4.0
80.068	4.0
80.083	4.0
80.098	4.0
80.113	4.0
80.128	6.0
80.143	3.0
80.158	4.0
80.173	2.0
80.188	3.0
80.202	4.0
80.217	1.0
80.232	6.0
80.247	3.0
80.262	3.0
80.277	6.0
80.292	4.0
80.307	4.0
80.322	4.0
80.337	2.0
80.352	5.0
80.367	3.0
80.382	1.0
80.397	1.0
80.412	1.0
80.427	2.0
80.442	5.0
80.457	1.0
80.472	3.0
80.487	0.0
80.502	3.0
80.517	4.0
80.532	3.0
80.547	2.0
80.562	3.0
80.577	4.0
80.592	3.0
80.607	2.0
80.622	3.0
80.637	2.0
80.652	0.0
80.667	2.0
80.682	2.0
80.697	6.0
80.712	3.0
80.727	5.0
80.742	5.0
80.757	4.0
80.772	3.0
80.787	5.0
80.802	4.0
80.817	1.0
80.832	2.0
80.847	4.0
80.862	0.0
80.877	6.0
80.892	2.0
80.907	2.0
80.922	4.0
80.937	2.0
80.952	1.0
80.967	6.0
80.982	3.0
80.997	5.0
81.012	4.0
81.027	3.0
81.042	3.0
81.057	0.0
81.072	0.0
81.087	0.0
81.101	4.0
81.116	3.0
81.131	2.0
81.146	2.0
81.161	3.0
81.176	1.0
81.191	2.0
81.206	2.0
81.221	4.0
81.236	4.0
81.251	3.0
81.266	3.0
81.281	2.0
81.296	8.0
81.311	3.0
81.326	5.0
81.341	4.0
81.356	4.0
81.371	1.0
81.386	4.0
81.401	3.0
81.416	1.0
81.431	3.0
81.446	1.0
81.461	3.0
81.476	0.0
81.491	5.0
81.506	3.0
81.521	6.0
81.536	2.0
81.55	9.0
81.565	3.0
81.58	6.0
81.595	3.0
81.61	7.0
81.625	1.0
81.64	3.0
81.655	1.0
81.67	8.0
81.685	3.0
81.7	1.0
81.715	1.0
81.73	1.0
81.745	1.0
81.76	3.0
81.775	1.0
81.79	4.0
81.805	3.0
81.819	4.0
81.834	3.0
81.849	4.0
81.864	5.0
81.879	4.0
81.894	2.0
81.909	5.0
81.924	1.0
81.939	4.0
81.954	4.0
81.969	0.0
81.984	5.0
81.999	4.0
82.013	2.0
82.028	2.0
82.043	1.0
82.058	4.0
82.073	1.0
82.088	5.0
82.103	4.0
82.118	3.0
82.133	2.0
82.148	2.0
82.163	3.0
82.177	8.0
82.192	6.0
82.207	6.0
82.222	3.0
82.237	4.0
82.252	2.0
82.267	3.0
82.282	6.0
82.297	0.0
82.312	2.0
82.326	2.0
82.341	1.0
82.356	6.0
82.371	2.0
82.386	4.0
82.401	6.0
82.416	2.0
82.431	6.0
82.445	3.0
82.46	4.0
82.475	5.0
82.49	2.0
82.505	4.0
82.52	1.0
82.535	7.0
82.55	1.0
82.565	4.0
82.579	2.0
82.594	2.0
82.609	2.0
82.624	2.0
82.639	6.0
82.654	3.0
82.669	4.0
82.684	4.0
82.698	2.0
82.713	2.0
82.728	1.0
82.743	1.0
82.758	4.0
82.773	2.0
82.788	5.0
82.803	3.0
82.817	0.0
82.832	2.0
82.847	1.0
82.862	3.0
82.877	3.0
82.892	5.0
82.907	3.0
82.922	3.0
82.937	3.0
82.951	4.0
82.966	1.0
82.981	2.0
82.996	5.0
83.011	2.0
83.026	1.0
83.041	4.0
83.056	7.0
83.07	3.0
83.085	0.0
83.1	3.0
83.115	1.0
83.13	1.0
83.145	3.0
83.16	6.0
83.175	4.0
83.19	2.0
83.204	3.0
83.219	3.0
83.234	2.0
83.249	2.0
83.264	2.0
83.279	4.0
83.294	6.0
83.309	4.0
83.324	2.0
83.339	4.0
83.353	2.0
83.368	5.0
83.383	5.0
83.398	1.0
83.413	5.0
83.428	3.0
83.443	3.0
83.458	3.0
83.473	4.0
83.488	0.0
83.503	3.0
83.517	1.0
83.532	5.0
83.547	7.0
83.562	5.0
83.577	6.0
83.592	8.0
83.607	3.0
83.622	2.0
83.637	4.0
83.652	4.0
83.667	2.0
83.682	3.0
83.697	3.0
83.712	6.0
83.727	1.0
83.741	2.0
83.756	6.0
83.771	4.0
83.786	7.0
83.801	2.0
83.816	4.0
83.831	4.0
83.846	1.0
83.861	2.0
83.876	1.0
83.891	3.0
83.906	5.0
83.921	0.0
83.936	2.0
83.951	5.0
83.966	2.0
83.981	3.0
83.996	2.0
84.011	3.0
84.026	3.0
84.041	3.0
84.056	1.0
84.071	5.0
84.086	4.0
84.101	6.0
84.116	4.0
84.131	3.0
84.146	3.0
84.161	5.0
84.176	5.0
84.191	3.0
84.206	2.0
84.221	5.0
84.236	4.0
84.251	3.0
84.266	3.0
84.281	8.0
84.296	5.0
84.311	8.0
84.326	2.0
84.341	7.0
84.356	6.0
84.371	9.0
84.386	3.0
84.401	4.0
84.416	7.0
84.431	6.0
84.446	3.0
84.461	4.0
84.476	3.0
84.492	7.0
84.507	2.0
84.522	3.0
84.537	1.0
84.552	3.0
84.567	2.0
84.582	4.0
84.597	4.0
84.612	0.0
84.627	3.0
84.642	6.0
84.657	1.0
84.672	4.0
84.687	1.0
84.702	10.0
84.717	1.0
84.733	3.0
84.748	3.0
84.763	1.0
84.778	4.0
84.793	1.0
84.808	2.0
84.823	0.0
84.838	4.0
84.853	1.0
84.868	8.0
84.883	3.0
84.898	2.0
84.913	1.0
84.929	4.0
84.944	2.0
84.959	4.0
84.974	2.0
84.989	3.0
85.004	5.0
85.019	5.0
85.034	4.0
85.049	4.0
85.064	1.0
85.079	4.0
85.094	2.0
85.11	4.0
85.125	4.0
85.14	2.0
85.155	2.0
85.17	4.0
85.185	1.0
85.2	2.0
85.215	6.0
85.23	3.0
85.245	3.0
85.26	2.0
85.276	2.0
85.291	3.0
85.306	4.0
85.321	2.0
85.336	3.0
85.351	3.0
85.366	2.0
85.381	4.0
85.396	1.0
85.411	2.0
85.426	2.0
85.441	1.0
85.457	4.0
85.472	6.0
85.487	2.0
85.502	2.0
85.517	2.0
85.532	1.0
85.547	2.0
85.562	2.0
85.577	3.0
85.592	6.0
85.607	4.0
85.622	5.0
85.637	4.0
85.653	6.0
85.668	3.0
85.683	3.0
85.698	4.0
85.713	4.0
85.728	5.0
85.743	2.0
85.758	3.0
85.773	3.0
85.788	2.0
85.803	0.0
85.818	0.0
85.833	1.0
85.848	3.0
85.863	7.0
85.879	1.0
85.894	3.0
85.909	4.0
85.924	2.0
85.939	1.0
85.954	5.0
85.969	2.0
85.984	5.0
85.999	2.0
86.014	1.0
86.029	1.0
86.044	1.0
86.059	0.0
86.074	4.0
86.089	3.0
86.104	1.0
86.119	2.0
86.134	4.0
86.149	2.0
86.164	5.0
86.179	4.0
86.194	5.0
86.209	0.0
86.224	1.0
86.239	0.0
86.254	5.0
86.269	2.0
86.284	3.0
86.299	1.0
86.314	3.0
86.33	5.0
86.345	3.0
86.36	4.0
86.375	2.0
86.39	2.0
86.405	2.0
86.42	1.0
86.435	4.0
86.45	4.0
86.465	1.0
86.48	3.0
86.495	3.0
86.51	7.0
86.525	4.0
86.54	3.0
86.555	4.0
86.57	3.0
86.585	0.0
86.6	0.0
86.615	4.0
86.63	2.0
86.645	2.0
86.659	5.0
86.674	1.0
86.689	2.0
86.704	5.0
86.719	3.0
86.734	1.0
86.749	5.0
86.764	1.0
86.779	5.0
86.794	1.0
86.809	6.0
86.824	4.0
86.839	4.0
86.854	4.0
86.869	2.0
86.884	6.0
86.899	6.0
86.914	6.0
86.929	6.0
86.944	4.0
86.959	4.0
86.974	2.0
86.989	3.0
87.004	1.0
87.019	4.0
87.034	5.0
87.049	8.0
87.064	3.0
87.079	0.0
87.094	5.0
87.109	0.0
87.124	4.0
87.139	4.0
87.154	4.0
87.169	2.0
87.184	3.0
87.199	1.0
87.214	2.0
87.229	2.0
87.244	0.0
87.259	4.0
87.274	2.0
87.289	2.0
87.304	5.0
87.319	2.0
87.334	3.0
87.349	6.0
87.364	2.0
87.379	3.0
87.394	4.0
87.409	6.0
87.424	2.0
87.438	2.0
87.453	1.0
87.468	8.0
87.483	4.0
87.498	2.0
87.513	2.0
87.528	2.0
87.543	5.0
87.558	2.0
87.573	6.0
87.588	2.0
87.603	2.0
87.618	7.0
87.633	4.0
87.648	7.0
87.663	4.0
87.678	8.0
87.693	3.0
87.708	2.0
87.723	3.0
87.738	4.0
87.753	2.0
87.768	5.0
87.783	2.0
87.798	5.0
87.813	2.0
87.828	1.0
87.843	4.0
87.858	0.0
87.873	4.0
87.888	4.0
87.903	4.0
87.918	1.0
87.933	4.0
87.948	2.0
87.963	5.0
87.978	0.0
87.993	3.0
88.008	1.0
88.023	2.0
88.038	2.0
88.053	5.0
88.068	2.0
88.083	3.0
88.098	4.0
88.113	4.0
88.128	2.0
88.143	3.0
88.158	4.0
88.174	3.0
88.189	5.0
88.204	6.0
88.219	5.0
88.234	4.0
88.249	5.0
88.264	4.0
88.279	5.0
88.294	5.0
88.309	2.0
88.324	0.0
88.339	5.0
88.354	3.0
88.369	7.0
88.384	7.0
88.399	2.0
88.414	2.0
88.429	6.0
88.444	4.0
88.459	4.0
88.474	4.0
88.489	3.0
88.504	3.0
88.519	6.0
88.534	3.0
88.549	3.0
88.564	2.0
88.58	4.0
88.595	1.0
88.61	5.0
88.625	2.0
88.64	4.0
88.655	4.0
88.67	1.0
88.685	4.0
88.7	5.0
88.715	2.0
88.73	2.0
88.745	1.0
88.76	5.0
88.775	1.0
88.79	2.0
88.805	1.0
88.82	6.0
88.835	2.0
88.85	1.0
88.865	3.0
88.88	3.0
88.895	2.0
88.911	3.0
88.926	1.0
88.941	0.0
88.956	1.0
88.971	4.0
88.986	1.0
89.001	5.0
89.016	2.0
89.031	6.0
89.046	1.0
89.061	7.0
89.076	0.0
89.091	0.0
89.106	1.0
89.121	1.0
89.136	4.0
89.151	5.0
89.166	6.0
89.181	3.0
89.196	2.0
89.211	1.0
89.227	4.0
89.242	4.0
89.257	1.0
89.272	6.0
89.287	1.0
89.302	4.0
89.317	3.0
89.332	3.0
89.347	4.0
89.362	0.0
89.377	1.0
89.392	4.0
89.407	5.0
89.422	2.0
89.437	4.0
89.452	6.0
89.467	3.0
89.482	0.0
89.497	5.0
89.512	4.0
89.527	2.0
89.542	4.0
89.557	5.0
89.572	4.0
89.587	3.0
89.602	4.0
89.617	4.0
89.632	4.0
89.647	4.0
89.662	4.0
89.677	4.0
89.693	1.0
89.708	5.0
89.723	4.0
89.738	4.0
89.753	5.0
89.768	3.0
89.783	2.0
89.798	2.0
89.813	3.0
89.828	2.0
89.843	6.0
89.858	1.0
89.873	4.0
89.888	5.0
89.903	4.0
89.918	6.0
89.933	3.0
89.948	7.0
89.963	3.0
89.978	2.0
89.993	2.0
90.008	3.0
90.023	3.0
90.038	4.0
90.053	2.0
90.068	2.0
90.083	3.0
90.097	1.0
90.112	2.0
90.127	6.0
90.142	3.0
90.157	3.0
90.172	3.0
90.187	6.0
90.202	6.0
90.217	4.0
90.232	8.0
90.247	12.0
90.262	4.0
90.277	6.0
90.292	6.0
90.307	8.0
90.322	6.0
90.337	5.0
90.352	3.0
90.367	5.0
90.382	4.0
90.397	3.0
90.412	4.0
90.427	2.0
90.442	3.0
90.457	3.0
90.472	5.0
90.487	3.0
90.501	3.0
90.516	3.0
90.531	3.0
90.546	4.0
90.561	3.0
90.576	3.0
90.591	3.0
90.606	4.0
90.621	1.0
90.636	1.0
90.651	0.0
90.666	1.0
90.681	4.0
90.696	1.0
90.711	3.0
90.726	3.0
90.741	0.0
90.755	4.0
90.77	5.0
90.785	3.0
90.8	4.0
90.815	1.0
90.83	3.0
90.845	5.0
90.86	4.0
90.875	2.0
90.89	6.0
90.905	2.0
90.92	6.0
90.935	4.0
90.95	3.0
90.965	4.0
90.979	3.0
90.994	4.0
91.009	5.0
91.024	2.0
91.039	4.0
91.054	5.0
91.069	2.0
91.084	2.0
91.099	0.0
91.114	4.0
91.129	3.0
91.144	2.0
91.159	4.0
91.174	4.0
91.188	2.0
91.203	3.0
91.218	3.0
91.233	1.0
91.248	5.0
91.263	7.0
91.278	5.0
91.293	4.0
91.308	5.0
91.323	3.0
91.338	1.0
91.353	2.0
91.368	3.0
91.383	5.0
91.398	1.0
91.412	1.0
91.427	3.0
91.442	2.0
91.457	1.0
91.472	4.0
91.487	6.0
91.502	2.0
91.517	1.0
91.532	2.0
91.547	3.0
91.562	2.0
91.577	2.0
91.592	3.0
91.607	8.0
91.622	3.0
91.637	4.0
91.652	2.0
91.666	2.0
91.681	3.0
91.696	4.0
91.711	2.0
91.726	3.0
91.741	1.0
91.756	2.0
91.771	4.0
91.786	5.0
91.801	3.0
91.816	1.0
91.831	7.0
91.846	1.0
91.861	1.0
91.876	1.0
91.891	2.0
91.906	1.0
91.921	3.0
91.936	5.0
91.951	4.0
91.966	3.0
91.981	2.0
91.995	4.0
92.01	3.0
92.025	1.0
92.04	3.0
92.055	5.0
92.07	1.0
92.085	6.0
92.1	2.0
92.115	1.0
92.13	3.0
92.145	2.0
92.16	5.0
92.175	3.0
92.19	4.0
92.205	0.0
92.22	4.0
92.235	1.0
92.25	3.0
92.265	2.0
92.28	1.0
92.295	3.0
92.31	7.0
92.325	3.0
92.34	3.0
92.355	3.0
92.37	3.0
92.385	1.0
92.4	2.0
92.415	3.0
92.43	5.0
92.445	2.0
92.46	3.0
92.475	3.0
92.49	1.0
92.505	1.0
92.52	5.0
92.535	4.0
92.55	3.0
92.565	0.0
92.58	2.0
92.595	2.0
92.61	3.0
92.625	5.0
92.64	3.0
92.655	1.0
92.67	2.0
92.685	6.0
92.7	2.0
92.715	3.0
92.73	4.0
92.745	5.0
92.76	1.0
92.775	2.0
92.79	5.0
92.805	3.0
92.82	4.0
92.835	1.0
92.85	3.0
92.865	2.0
92.88	1.0
92.895	2.0
92.91	7.0
92.925	6.0
92.94	5.0
92.955	3.0
92.97	1.0
92.985	1.0
93.0	1.0
93.015	1.0
93.03	2.0
93.045	4.0
93.06	1.0
93.075	4.0
93.09	4.0
93.105	2.0
93.12	6.0
93.135	2.0
93.15	2.0
93.165	3.0
93.18	2.0
93.195	5.0
93.21	2.0
93.225	3.0
93.24	5.0
93.255	1.0
93.27	3.0
93.285	1.0
93.3	4.0
93.315	0.0
93.33	2.0
93.345	4.0
93.36	5.0
93.375	4.0
93.39	3.0
93.405	2.0
93.42	1.0
93.435	8.0
93.45	1.0
93.465	3.0
93.48	6.0
93.495	2.0
93.51	4.0
93.525	5.0
93.54	1.0
93.555	4.0
93.57	2.0
93.585	6.0
93.6	0.0
93.615	1.0
93.63	1.0
93.645	1.0
93.66	3.0
93.675	5.0
93.69	4.0
93.705	8.0
93.72	2.0
93.735	3.0
93.75	3.0
93.765	1.0
93.78	6.0
93.795	5.0
93.81	4.0
93.824	3.0
93.839	6.0
93.854	2.0
93.869	1.0
93.884	3.0
93.899	4.0
93.914	2.0
93.929	4.0
93.944	1.0
93.959	2.0
93.974	4.0
93.989	1.0
94.004	2.0
94.019	8.0
94.034	3.0
94.049	5.0
94.064	1.0
94.079	1.0
94.094	4.0
94.108	2.0
94.123	2.0
94.138	3.0
94.153	4.0
94.168	4.0
94.183	2.0
94.198	3.0
94.213	4.0
94.228	2.0
94.243	1.0
94.258	1.0
94.273	4.0
94.288	3.0
94.302	1.0
94.317	3.0
94.332	6.0
94.347	4.0
94.362	3.0
94.377	4.0
94.392	2.0
94.407	12.0
94.422	8.0
94.437	13.0
94.452	6.0
94.466	2.0
94.481	5.0
94.496	5.0
94.511	5.0
94.526	3.0
94.541	0.0
94.556	4.0
94.571	2.0
94.586	4.0
94.601	2.0
94.615	3.0
94.63	2.0
94.645	0.0
94.66	2.0
94.675	4.0
94.69	1.0
94.705	1.0
94.72	3.0
94.735	8.0
94.749	3.0
94.764	1.0
94.779	2.0
94.794	1.0
94.809	2.0
94.824	3.0
94.839	5.0
94.854	8.0
94.868	0.0
94.883	2.0
94.898	1.0
94.913	2.0
94.928	1.0
94.943	4.0
94.958	2.0
94.973	2.0
94.987	6.0
95.002	4.0
95.017	2.0
95.032	8.0
95.047	5.0
95.062	4.0
95.077	2.0
95.092	3.0
95.106	7.0
95.121	5.0
95.136	2.0
95.151	5.0
95.166	4.0
95.181	5.0
95.196	5.0
95.211	3.0
95.226	9.0
95.24	9.0
95.255	1.0
95.27	4.0
95.285	3.0
95.3	3.0
95.315	3.0
95.33	8.0
95.345	5.0
95.359	2.0
95.374	3.0
95.389	2.0
95.404	3.0
95.419	0.0
95.434	1.0
95.449	4.0
95.464	4.0
95.478	5.0
95.493	0.0
95.508	3.0
95.523	1.0
95.538	2.0
95.553	4.0
95.568	6.0
95.583	1.0
95.597	3.0
95.612	3.0
95.627	2.0
95.642	3.0
95.657	4.0
95.672	2.0
95.687	4.0
95.702	3.0
95.717	4.0
95.731	2.0
95.746	1.0
95.761	4.0
95.776	2.0
95.791	2.0
95.806	5.0
95.821	5.0
95.836	3.0
95.851	6.0
95.866	3.0
95.88	2.0
95.895	3.0
95.91	6.0
95.925	4.0
95.94	4.0
95.955	2.0
95.97	4.0
95.985	3.0
96.0	5.0
96.015	4.0
96.029	4.0
96.044	4.0
96.059	2.0
96.074	0.0
96.089	2.0
96.104	1.0
96.119	7.0
96.134	4.0
96.149	3.0
96.164	3.0
96.179	5.0
96.194	4.0
96.208	3.0
96.223	3.0
96.238	0.0
96.253	3.0
96.268	4.0
96.283	2.0
96.298	3.0
96.313	3.0
96.328	1.0
96.343	5.0
96.358	4.0
96.373	2.0
96.388	3.0
96.403	3.0
96.417	4.0
96.432	3.0
96.447	4.0
96.462	3.0
96.477	4.0
96.492	5.0
96.507	0.0
96.522	0.0
96.537	4.0
96.552	1.0
96.567	2.0
96.582	3.0
96.597	4.0
96.612	2.0
96.627	6.0
96.642	3.0
96.656	2.0
96.671	3.0
96.686	1.0
96.701	5.0
96.716	4.0
96.731	5.0
96.746	5.0
96.761	2.0
96.776	4.0
96.791	4.0
96.806	4.0
96.821	2.0
96.836	2.0
96.851	4.0
96.866	0.0
96.881	5.0
96.896	3.0
96.911	4.0
96.926	0.0
96.94	5.0
96.955	4.0
96.97	2.0
96.985	4.0
97.0	2.0
97.015	5.0
97.03	4.0
97.045	2.0
97.06	6.0
97.075	6.0
97.09	4.0
97.105	2.0
97.12	3.0
97.135	5.0
97.15	5.0
97.165	2.0
97.18	6.0
97.195	5.0
97.21	2.0
97.225	3.0
97.239	1.0
97.254	1.0
97.269	4.0
97.284	5.0
97.299	1.0
97.314	6.0
97.329	4.0
97.344	2.0
97.359	4.0
97.374	1.0
97.389	2.0
97.404	5.0
97.419	3.0
97.434	1.0
97.449	1.0
97.464	3.0
97.479	3.0
97.494	7.0
97.509	1.0
97.524	3.0
97.538	5.0
97.553	6.0
97.568	1.0
97.583	2.0
97.598	3.0
97.613	4.0
97.628	3.0
97.643	4.0
97.658	2.0
97.673	6.0
97.688	3.0
97.703	1.0
97.718	6.0
97.733	0.0
97.748	5.0
97.763	3.0
97.778	9.0
97.792	2.0
97.807	3.0
97.822	1.0
97.837	4.0
97.852	1.0
97.867	2.0
97.882	3.0
97.897	3.0
97.912	2.0
97.927	1.0
97.942	1.0
97.957	2.0
97.972	6.0
97.987	2.0
98.001	4.0
98.016	2.0
98.031	3.0
98.046	7.0
98.061	3.0
98.076	1.0
98.091	5.0
98.106	6.0
98.121	4.0
98.136	5.0
98.151	1.0
98.166	2.0
98.181	3.0
98.195	1.0
98.21	4.0
98.225	1.0
98.24	3.0
98.255	5.0
98.27	1.0
98.285	3.0
98.3	5.0
98.315	2.0
98.33	2.0
98.345	1.0
98.359	1.0
98.374	4.0
98.389	4.0
98.404	4.0
98.419	3.0
98.434	0.0
98.449	3.0
98.464	2.0
98.479	3.0
98.494	4.0
98.508	3.0
98.523	2.0
98.538	2.0
98.553	3.0
98.568	2.0
98.583	1.0
98.598	2.0
98.613	5.0
98.628	2.0
98.642	3.0
98.657	1.0
98.672	7.0
98.687	3.0
98.702	5.0
98.717	3.0
98.732	5.0
98.747	6.0
98.762	2.0
98.776	4.0
98.791	4.0
98.806	1.0
98.821	2.0
98.836	1.0
98.851	6.0
98.866	4.0
98.881	1.0
98.896	4.0
98.91	6.0
98.925	7.0
98.94	2.0
98.955	2.0
98.97	8.0
98.985	4.0
99.0	5.0
99.015	1.0
99.029	3.0
99.044	0.0
99.059	3.0
99.074	4.0
99.089	6.0
99.104	7.0
99.119	4.0
99.133	2.0
99.148	2.0
99.163	3.0
99.178	2.0
99.193	4.0
99.208	1.0
99.223	2.0
99.238	6.0
99.252	4.0
99.267	8.0
99.282	4.0
99.297	3.0
99.312	2.0
99.327	2.0
99.342	5.0
99.356	3.0
99.371	5.0
99.386	1.0
99.401	3.0
99.416	1.0
99.431	3.0
99.446	2.0
99.461	1.0
99.475	5.0
99.49	4.0
99.505	2.0
99.52	6.0
99.535	0.0
99.55	2.0
99.565	3.0
99.579	2.0
99.594	5.0
99.609	2.0
99.624	5.0
99.639	2.0
99.654	2.0
99.669	2.0
99.683	2.0
99.698	2.0
99.713	3.0
99.728	5.0
99.743	4.0
99.758	2.0
99.772	3.0
99.787	1.0
99.802	4.0
99.817	2.0
99.832	2.0
99.847	7.0
99.862	6.0
99.876	4.0
99.891	2.0
99.906	3.0
99.921	4.0
99.936	2.0
99.951	3.0
99.966	1.0
99.98	5.0
99.995	2.0
100.01	5.0
100.025	0.0
100.04	3.0
100.055	3.0
100.069	2.0
100.084	2.0
100.099	7.0
100.114	1.0
100.129	1.0
100.144	6.0
100.159	2.0
100.173	4.0
100.188	5.0
100.203	2.0
100.218	5.0
100.233	4.0
100.248	2.0
100.262	5.0
100.277	4.0
100.292	3.0
100.307	1.0
100.322	5.0
100.337	4.0
100.351	1.0
100.366	6.0
100.381	1.0
100.396	3.0
100.411	1.0
100.426	4.0
100.441	5.0
100.455	2.0
100.47	6.0
100.485	3.0
100.5	4.0
100.515	7.0
100.53	1.0
100.544	7.0
100.559	3.0
100.574	4.0
100.589	2.0
100.604	2.0
100.619	5.0
100.633	1.0
100.648	4.0
100.663	4.0
100.678	5.0
100.693	3.0
100.708	0.0
100.722	3.0
100.737	6.0
100.752	4.0
100.767	2.0
100.782	3.0
100.796	4.0
100.811	3.0
100.826	0.0
100.841	3.0
100.856	1.0
100.871	2.0
100.885	1.0
100.9	2.0
100.915	6.0
100.93	6.0
100.945	6.0
100.96	4.0
100.974	4.0
100.989	2.0
101.004	6.0
101.019	2.0
101.034	4.0
101.048	4.0
101.063	3.0
101.078	4.0
101.093	2.0
101.108	4.0
101.123	4.0
101.137	4.0
101.152	3.0
101.167	4.0
101.182	6.0
101.197	4.0
101.211	4.0
101.226	4.0
101.241	4.0
101.256	4.0
101.271	1.0
101.285	7.0
101.3	5.0
101.315	6.0
101.33	1.0
101.345	5.0
101.359	2.0
101.374	1.0
101.389	4.0
101.404	2.0
101.419	3.0
101.433	6.0
101.448	2.0
101.463	3.0
101.478	2.0
101.493	1.0
101.507	4.0
101.522	3.0
101.537	2.0
101.552	6.0
101.567	3.0
101.581	4.0
101.596	4.0
101.611	4.0
101.626	4.0
101.64	3.0
101.655	3.0
101.67	1.0
101.685	3.0
101.7	2.0
101.714	5.0
101.729	4.0
101.744	2.0
101.759	2.0
101.773	4.0
101.788	2.0
101.803	2.0
101.818	2.0
101.833	2.0
101.847	3.0
101.862	1.0
101.877	10.0
101.892	3.0
101.906	3.0
101.921	5.0
101.936	6.0
101.951	5.0
101.965	7.0
101.98	7.0
101.995	5.0
102.01	7.0
102.025	3.0
102.039	2.0
102.054	5.0
102.069	4.0
102.084	2.0
102.098	3.0
102.113	4.0
102.128	2.0
102.143	4.0
102.157	6.0
102.172	2.0
102.187	5.0
102.202	7.0
102.216	6.0
102.231	5.0
102.246	3.0
102.261	6.0
102.275	4.0
102.29	3.0
102.305	3.0
102.32	1.0
102.334	2.0
102.349	5.0
102.364	5.0
102.378	1.0
102.393	2.0
102.408	2.0
102.423	2.0
102.437	4.0
102.452	2.0
102.467	6.0
102.482	3.0
102.496	3.0
102.511	5.0
102.526	1.0
102.541	1.0
102.555	3.0
102.57	4.0
102.585	5.0
102.6	3.0
102.614	3.0
102.629	6.0
102.644	6.0
102.659	9.0
102.673	4.0
102.688	2.0
102.703	4.0
102.717	4.0
102.732	6.0
102.747	1.0
102.762	2.0
102.776	6.0
102.791	8.0
102.806	4.0
102.821	8.0
102.835	1.0
102.85	3.0
102.865	3.0
102.88	2.0
102.894	2.0
102.909	4.0
102.924	2.0
102.938	5.0
102.953	4.0
102.968	2.0
102.983	3.0
102.997	4.0
103.012	2.0
103.027	6.0
103.042	2.0
103.056	2.0
103.071	2.0
103.086	1.0
103.101	3.0
103.115	2.0
103.13	2.0
103.145	1.0
103.16	5.0
103.174	3.0
103.189	0.0
103.204	3.0
103.219	3.0
103.233	4.0
103.248	3.0
103.263	2.0
103.278	3.0
103.292	3.0
103.307	6.0
103.322	7.0
103.337	2.0
103.351	1.0
103.366	6.0
103.381	5.0
103.396	7.0
103.41	4.0
103.425	4.0
103.44	1.0
103.455	3.0
103.469	4.0
103.484	3.0
103.499	6.0
103.514	3.0
103.529	6.0
103.543	2.0
103.558	5.0
103.573	2.0
103.588	4.0
103.602	6.0
103.617	1.0
103.632	3.0
103.647	1.0
103.661	4.0
103.676	2.0
103.691	5.0
103.706	4.0
103.721	3.0
103.735	3.0
103.75	3.0
103.765	6.0
103.78	3.0
103.795	3.0
103.809	4.0
103.824	5.0
103.839	3.0
103.854	4.0
103.869	4.0
103.883	5.0
103.898	2.0
103.913	0.0
103.928	6.0
103.943	5.0
103.957	3.0
103.972	8.0
103.987	4.0
104.002	2.0
104.017	6.0
104.031	4.0
104.046	2.0
104.061	2.0
104.076	5.0
104.091	2.0
104.106	1.0
104.12	3.0
104.135	5.0
104.15	4.0
104.165	6.0
104.18	4.0
104.195	1.0
104.209	3.0
104.224	4.0
104.239	2.0
104.254	2.0
104.269	3.0
104.284	2.0
104.299	7.0
104.313	2.0
104.328	6.0
104.343	4.0
104.358	1.0
104.373	3.0
104.388	3.0
104.403	2.0
104.417	2.0
104.432	2.0
104.447	4.0
104.462	3.0
104.477	1.0
104.492	5.0
104.507	3.0
104.522	5.0
104.536	2.0
104.551	2.0
104.566	2.0
104.581	5.0
104.596	4.0
104.611	2.0
104.626	4.0
104.641	4.0
104.656	5.0
104.67	2.0
104.685	1.0
104.7	4.0
104.715	3.0
104.73	6.0
104.745	4.0
104.76	2.0
104.775	8.0
104.79	4.0
104.804	2.0
104.819	4.0
104.834	3.0
104.849	2.0
104.864	4.0
104.879	2.0
104.894	7.0
104.909	1.0
104.924	4.0
104.939	2.0
104.954	2.0
104.968	4.0
104.983	1.0
104.998	1.0
105.013	5.0
105.028	1.0
105.043	3.0
105.058	3.0
105.073	4.0
105.088	4.0
105.103	2.0
105.118	5.0
105.133	3.0
105.147	5.0
105.162	5.0
105.177	2.0
105.192	0.0
105.207	1.0
105.222	4.0
105.237	4.0
105.252	4.0
105.267	5.0
105.282	3.0
105.297	3.0
105.312	0.0
105.327	4.0
105.342	5.0
105.356	2.0
105.371	0.0
105.386	2.0
105.401	3.0
105.416	6.0
105.431	5.0
105.446	5.0
105.461	5.0
105.476	2.0
105.491	2.0
105.506	2.0
105.521	4.0
105.536	3.0
105.551	6.0
105.566	2.0
105.581	2.0
105.595	0.0
105.61	3.0
105.625	5.0
105.64	1.0
105.655	3.0
105.67	4.0
105.685	2.0
105.7	4.0
105.715	6.0
105.73	2.0
105.745	2.0
105.76	4.0
105.775	3.0
105.79	6.0
105.805	1.0
105.82	6.0
105.835	3.0
105.85	1.0
105.864	2.0
105.879	2.0
105.894	3.0
105.909	2.0
105.924	2.0
105.939	3.0
105.954	5.0
105.969	2.0
105.984	3.0
105.999	4.0
106.014	3.0
106.029	2.0
106.044	5.0
106.059	6.0
106.074	2.0
106.089	1.0
106.104	1.0
106.119	3.0
106.134	3.0
106.148	3.0
106.163	1.0
106.178	2.0
106.193	3.0
106.208	11.0
106.223	4.0
106.238	4.0
106.253	6.0
106.268	2.0
106.283	4.0
106.298	4.0
106.313	0.0
106.328	4.0
106.343	3.0
106.358	4.0
106.373	2.0
106.388	3.0
106.403	5.0
106.418	2.0
106.432	1.0
106.447	1.0
106.462	2.0
106.477	6.0
106.492	4.0
106.507	2.0
106.522	2.0
106.537	6.0
106.552	5.0
106.567	3.0
106.582	5.0
106.597	6.0
106.612	1.0
106.627	1.0
106.642	3.0
106.657	3.0
106.672	4.0
106.687	4.0
106.701	3.0
106.716	4.0
106.731	6.0
106.746	3.0
106.761	3.0
106.776	3.0
106.791	4.0
106.806	2.0
106.821	5.0
106.836	3.0
106.851	6.0
106.866	2.0
106.881	5.0
106.896	4.0
106.911	1.0
106.926	5.0
106.941	4.0
106.955	2.0
106.97	5.0
106.985	3.0
107.0	4.0
107.015	3.0
107.03	4.0
107.045	4.0
107.06	2.0
107.075	2.0
107.09	6.0
107.105	3.0
107.12	3.0
107.135	7.0
107.15	2.0
107.165	7.0
107.18	8.0
107.194	8.0
107.209	5.0
107.224	3.0
107.239	4.0
107.254	0.0
107.269	1.0
107.284	1.0
107.299	5.0
107.314	3.0
107.329	3.0
107.344	8.0
107.359	5.0
107.374	8.0
107.389	6.0
107.404	5.0
107.418	4.0
107.433	5.0
107.448	3.0
107.463	3.0
107.478	4.0
107.493	2.0
107.508	2.0
107.523	5.0
107.538	2.0
107.553	4.0
107.568	3.0
107.583	0.0
107.598	3.0
107.613	1.0
107.627	1.0
107.642	2.0
107.657	7.0
107.672	3.0
107.687	6.0
107.702	2.0
107.717	7.0
107.732	3.0
107.747	2.0
107.762	4.0
107.777	3.0
107.792	3.0
107.807	3.0
107.821	2.0
107.836	4.0
107.851	5.0
107.866	3.0
107.881	3.0
107.896	5.0
107.911	4.0
107.926	2.0
107.941	4.0
107.956	3.0
107.971	5.0
107.986	4.0
108.0	5.0
108.015	3.0
108.03	4.0
108.045	3.0
108.06	4.0
108.075	7.0
108.09	6.0
108.105	4.0
108.12	4.0
108.135	5.0
108.15	4.0
108.164	5.0
108.179	2.0
108.194	1.0
108.209	2.0
108.224	4.0
108.239	2.0
108.254	4.0
108.269	3.0
108.284	3.0
108.299	4.0
108.313	3.0
108.328	7.0
108.343	6.0
108.358	7.0
108.373	3.0
108.388	5.0
108.403	2.0
108.418	2.0
108.433	6.0
108.448	2.0
108.462	4.0
108.477	2.0
108.492	3.0
108.507	6.0
108.522	4.0
108.537	1.0
108.552	3.0
108.567	0.0
108.582	2.0
108.597	3.0
108.611	3.0
108.626	2.0
108.641	3.0
108.656	2.0
108.671	2.0
108.686	2.0
108.701	2.0
108.716	2.0
108.731	2.0
108.745	6.0
108.76	5.0
108.775	1.0
108.79	6.0
108.805	4.0
108.82	1.0
108.835	6.0
108.85	3.0
108.865	5.0
108.879	2.0
108.894	2.0
108.909	4.0
108.924	6.0
108.939	5.0
108.954	7.0
108.969	2.0
108.984	9.0
108.999	3.0
109.013	7.0
109.028	3.0
109.043	4.0
109.058	4.0
109.073	6.0
109.088	7.0
109.103	4.0
109.118	1.0
109.133	4.0
109.147	5.0
109.162	3.0
109.177	3.0
109.192	6.0
109.207	1.0
109.222	4.0
109.237	3.0
109.252	2.0
109.267	2.0
109.281	4.0
109.296	8.0
109.311	2.0
109.326	2.0
109.341	3.0
109.356	2.0
109.371	3.0
109.386	3.0
109.4	3.0
109.415	1.0
109.43	5.0
109.445	2.0
109.46	2.0
109.475	3.0
109.49	5.0
109.505	1.0
109.52	3.0
109.534	3.0
109.549	6.0
109.564	2.0
109.579	1.0
109.594	2.0
109.609	4.0
109.624	1.0
109.639	1.0
109.653	3.0
109.668	2.0
109.683	2.0
109.698	4.0
109.713	1.0
109.728	2.0
109.743	2.0
109.758	5.0
109.773	3.0
109.787	5.0
109.802	3.0
109.817	6.0
109.832	3.0
109.847	3.0
109.862	4.0
109.877	4.0
109.892	1.0
109.907	2.0
109.921	2.0
109.936	0.0
109.951	2.0
109.966	2.0
109.981	3.0
109.996	2.0
110.011	0.0
110.026	7.0
110.04	5.0
110.055	4.0
110.07	4.0
110.085	2.0
110.1	5.0
110.115	3.0
110.13	4.0
110.145	3.0
110.16	3.0
110.174	4.0
110.189	3.0
110.204	3.0
110.219	2.0
110.234	1.0
110.249	0.0
110.264	0.0
110.279	4.0
110.294	6.0
110.308	6.0
110.323	4.0
110.338	3.0
110.353	3.0
110.368	0.0
110.383	2.0
110.398	3.0
110.413	1.0
110.428	3.0
110.442	3.0
110.457	0.0
110.472	4.0
110.487	2.0
110.502	0.0
110.517	4.0
110.532	1.0
110.547	1.0
110.561	2.0
110.576	4.0
110.591	6.0
110.606	2.0
110.621	3.0
110.636	1.0
110.651	3.0
110.666	1.0
110.681	4.0
110.695	2.0
110.71	4.0
110.725	5.0
110.74	3.0
110.755	3.0
110.77	5.0
110.785	1.0
110.8	4.0
110.815	2.0
110.829	5.0
110.844	0.0
110.859	4.0
110.874	2.0
110.889	5.0
110.904	4.0
110.919	1.0
110.934	0.0
110.948	5.0
110.963	3.0
110.978	3.0
110.993	2.0
111.008	5.0
111.023	2.0
111.038	0.0
111.053	3.0
111.067	6.0
111.082	3.0
111.097	3.0
111.112	2.0
111.127	1.0
111.142	1.0
111.157	1.0
111.172	1.0
111.186	2.0
111.201	3.0
111.216	7.0
111.231	3.0
111.246	2.0
111.261	3.0
111.276	1.0
111.291	2.0
111.305	7.0
111.32	4.0
111.335	2.0
111.35	4.0
111.365	4.0
111.38	4.0
111.395	3.0
111.41	3.0
111.424	6.0
111.439	2.0
111.454	2.0
111.469	6.0
111.484	5.0
111.499	8.0
111.514	3.0
111.528	4.0
111.543	7.0
111.558	4.0
111.573	5.0
111.588	5.0
111.603	2.0
111.618	3.0
111.633	6.0
111.647	4.0
111.662	5.0
111.677	4.0
111.692	3.0
111.707	5.0
111.722	4.0
111.737	3.0
111.751	3.0
111.766	2.0
111.781	7.0
111.796	6.0
111.811	4.0
111.826	4.0
111.84	2.0
111.855	2.0
111.87	7.0
111.885	3.0
111.9	2.0
111.915	4.0
111.93	4.0
111.944	3.0
111.959	1.0
111.974	6.0
111.989	5.0
112.004	2.0
112.019	3.0
112.033	4.0
112.048	4.0
112.063	4.0
112.078	3.0
112.093	1.0
112.108	5.0
112.123	4.0
112.137	5.0
112.152	4.0
112.167	3.0
112.182	2.0
112.197	4.0
112.212	7.0
112.226	3.0
112.241	3.0
112.256	3.0
112.271	5.0
112.286	3.0
112.301	2.0
112.315	1.0
112.33	0.0
112.345	2.0
112.36	2.0
112.375	7.0
112.389	2.0
112.404	10.0
112.419	3.0
112.434	4.0
112.449	3.0
112.464	3.0
112.478	6.0
112.493	2.0
112.508	5.0
112.523	4.0
112.538	3.0
112.553	4.0
112.567	1.0
112.582	7.0
112.597	2.0
112.612	4.0
112.627	6.0
112.642	1.0
112.656	3.0
112.671	3.0
112.686	4.0
112.701	4.0
112.716	7.0
112.73	4.0
112.745	2.0
112.76	4.0
112.775	5.0
112.79	4.0
112.805	2.0
112.819	3.0
112.834	2.0
112.849	1.0
112.864	4.0
112.879	6.0
112.894	3.0
112.908	3.0
112.923	3.0
112.938	3.0
112.953	3.0
112.968	6.0
112.983	1.0
112.997	4.0
113.012	4.0
113.027	5.0
113.042	1.0
113.057	6.0
113.072	2.0
113.086	1.0
113.101	2.0
113.116	3.0
113.131	2.0
113.146	1.0
113.161	1.0
113.175	1.0
113.19	3.0
113.205	1.0
113.22	3.0
113.235	3.0
113.25	4.0
113.265	3.0
113.279	6.0
113.294	4.0
113.309	3.0
113.324	2.0
113.339	2.0
113.354	3.0
113.368	3.0
113.383	3.0
113.398	3.0
113.413	3.0
113.428	5.0
113.443	5.0
113.458	5.0
113.472	4.0
113.487	2.0
113.502	1.0
113.517	8.0
113.532	4.0
113.547	1.0
113.562	4.0
113.576	3.0
113.591	2.0
113.606	2.0
113.621	1.0
113.636	3.0
113.651	3.0
113.666	2.0
113.681	2.0
113.695	5.0
113.71	3.0
113.725	2.0
113.74	3.0
113.755	2.0
113.77	2.0
113.785	5.0
113.8	3.0
113.814	4.0
113.829	2.0
113.844	1.0
113.859	3.0
113.874	6.0
113.889	3.0
113.904	0.0
113.919	1.0
113.934	7.0
113.949	7.0
113.963	0.0
113.978	5.0
113.993	4.0
114.008	1.0
114.023	4.0
114.038	6.0
114.053	2.0
114.068	4.0
114.083	3.0
114.098	2.0
114.113	0.0
114.127	3.0
114.142	1.0
114.157	4.0
114.172	2.0
114.187	1.0
114.202	4.0
114.217	4.0
114.232	2.0
114.247	3.0
114.262	3.0
114.277	1.0
114.292	4.0
114.307	3.0
114.322	6.0
114.337	6.0
114.351	5.0
114.366	3.0
114.381	3.0
114.396	4.0
114.411	5.0
114.426	5.0
114.441	1.0
114.456	5.0
114.471	7.0
114.486	4.0
114.501	3.0
114.516	4.0
114.531	3.0
114.546	3.0
114.561	6.0
114.576	6.0
114.591	3.0
114.606	1.0
114.621	5.0
114.636	6.0
114.65	5.0
114.665	6.0
114.68	1.0
114.695	7.0
114.71	2.0
114.725	3.0
114.74	2.0
114.755	3.0
114.77	2.0
114.785	0.0
114.8	0.0
114.815	5.0
114.83	4.0
114.845	4.0
114.86	1.0
114.875	3.0
114.89	10.0
114.905	2.0
114.92	5.0
114.935	3.0
114.95	3.0
114.965	3.0
114.98	6.0
114.995	2.0
115.009	3.0
115.024	5.0
115.039	2.0
115.054	5.0
115.069	4.0
115.084	3.0
115.099	0.0
115.114	2.0
115.129	3.0
115.144	5.0
115.159	8.0
115.174	2.0
115.189	3.0
115.204	4.0
115.219	7.0
115.234	3.0
115.249	3.0
115.264	4.0
115.279	4.0
115.294	3.0
115.309	1.0
115.323	2.0
115.338	4.0
115.353	4.0
115.368	3.0
115.383	5.0
115.398	1.0
115.413	5.0
115.428	4.0
115.443	5.0
115.458	7.0
115.473	5.0
115.488	1.0
115.503	1.0
115.518	3.0
115.533	5.0
115.548	5.0
115.562	6.0
115.577	2.0
115.592	4.0
115.607	4.0
115.622	6.0
115.637	3.0
115.652	4.0
115.667	6.0
115.682	5.0
115.697	4.0
115.712	0.0
115.727	5.0
115.741	4.0
115.756	5.0
115.771	1.0
115.786	3.0
115.801	4.0
115.816	6.0
115.831	1.0
115.846	8.0
115.861	2.0
115.875	4.0
115.89	2.0
115.905	4.0
115.92	5.0
115.935	5.0
115.95	9.0
115.965	4.0
115.98	2.0
115.995	3.0
116.009	2.0
116.024	5.0
116.039	5.0
116.054	3.0
116.069	4.0
116.084	5.0
116.099	5.0
116.113	2.0
116.128	5.0
116.143	5.0
116.158	1.0
116.173	5.0
116.188	2.0
116.202	1.0
116.217	7.0
116.232	2.0
116.247	4.0
116.262	5.0
116.277	4.0
116.291	6.0
116.306	6.0
116.321	3.0
116.336	4.0
116.351	5.0
116.366	4.0
116.38	4.0
116.395	3.0
116.41	2.0
116.425	6.0
116.44	2.0
116.454	3.0
116.469	3.0
116.484	9.0
116.499	5.0
116.514	5.0
116.528	5.0
116.543	1.0
116.558	4.0
116.573	3.0
116.588	3.0
116.602	2.0
116.617	3.0
116.632	4.0
116.647	1.0
116.662	3.0
116.676	2.0
116.691	1.0
116.706	4.0
116.721	3.0
116.735	2.0
116.75	1.0
116.765	2.0
116.78	6.0
116.795	4.0
116.809	2.0
116.824	3.0
116.839	4.0
116.854	3.0
116.868	10.0
116.883	6.0
116.898	3.0
116.913	4.0
116.927	3.0
116.942	2.0
116.957	1.0
116.972	1.0
116.986	4.0
117.001	4.0
117.016	2.0
117.031	5.0
117.045	6.0
117.06	5.0
117.075	8.0
117.09	7.0
117.104	2.0
117.119	1.0
117.134	5.0
117.149	5.0
117.163	2.0
117.178	2.0
117.193	2.0
117.208	6.0
117.222	3.0
117.237	5.0
117.252	1.0
117.267	5.0
117.281	9.0
117.296	4.0
117.311	2.0
117.325	4.0
117.34	2.0
117.355	6.0
117.37	4.0
117.384	4.0
117.399	1.0
117.414	4.0
117.429	3.0
117.443	6.0
117.458	4.0
117.473	3.0
117.487	2.0
117.502	2.0
117.517	2.0
117.532	4.0
117.546	3.0
117.561	5.0
117.576	0.0
117.59	0.0
117.605	5.0
117.62	5.0
117.635	0.0
117.649	3.0
117.664	2.0
117.679	4.0
117.693	6.0
117.708	3.0
117.723	4.0
117.738	2.0
117.752	2.0
117.767	5.0
117.782	2.0
117.796	2.0
117.811	4.0
117.826	2.0
117.841	2.0
117.855	4.0
117.87	4.0
117.885	1.0
117.899	4.0
117.914	0.0
117.929	2.0
117.944	3.0
117.958	3.0
117.973	6.0
117.988	1.0
118.002	6.0
118.017	2.0
118.032	5.0
118.047	3.0
118.062	6.0
118.077	7.0
118.092	4.0
118.107	4.0
118.121	6.0
118.136	8.0
118.151	2.0
118.166	4.0
118.181	2.0
118.196	8.0
118.211	2.0
118.225	3.0
118.24	2.0
118.255	4.0
118.27	4.0
118.285	0.0
118.3	2.0
118.315	8.0
118.33	6.0
118.344	1.0
118.359	1.0
118.374	3.0
118.389	3.0
118.404	3.0
118.419	2.0
118.434	1.0
118.449	4.0
118.463	6.0
118.478	3.0
118.493	3.0
118.508	1.0
118.523	2.0
118.538	5.0
118.553	6.0
118.567	1.0
118.582	2.0
118.597	3.0
118.612	1.0
118.627	2.0
118.642	7.0
118.657	4.0
118.672	3.0
118.686	6.0
118.701	3.0
118.716	6.0
118.731	1.0
118.746	5.0
118.761	5.0
118.776	3.0
118.791	3.0
118.805	3.0
118.82	2.0
118.835	2.0
118.85	3.0
118.865	3.0
118.88	2.0
118.895	5.0
118.909	4.0
118.924	4.0
118.939	4.0
118.954	2.0
118.969	3.0
118.984	4.0
118.999	2.0
119.014	2.0
119.028	4.0
119.043	7.0
119.058	2.0
119.073	12.0
119.088	2.0
119.103	3.0
119.118	2.0
119.133	7.0
119.147	6.0
119.162	8.0
119.177	1.0
119.192	4.0
119.207	6.0
119.222	4.0
119.237	2.0
119.251	1.0
119.266	5.0
119.281	5.0
119.296	6.0
119.311	5.0
119.326	5.0
119.341	5.0
119.356	3.0
119.37	5.0
119.385	5.0
119.4	5.0
119.415	4.0
119.43	3.0
119.445	8.0
119.46	2.0
119.475	0.0
119.489	2.0
119.504	5.0
119.519	5.0
119.534	6.0
119.549	4.0
119.564	5.0
119.579	2.0
119.593	3.0
119.608	2.0
119.623	4.0
119.638	4.0
119.653	4.0
119.668	4.0
119.683	2.0
119.698	2.0
119.712	2.0
119.727	3.0
119.742	3.0
119.757	1.0
119.772	4.0
119.787	4.0
119.802	4.0
119.817	3.0
119.831	3.0
119.846	4.0
119.861	1.0
119.876	1.0
119.891	3.0
119.906	4.0
119.921	4.0
119.935	0.0
119.95	4.0
119.965	4.0
119.98	2.0
119.995	4.0
120.01	4.0
120.025	2.0
120.04	3.0
120.054	1.0
120.069	3.0
120.084	3.0
120.099	2.0
120.114	2.0
120.129	1.0
120.144	1.0
120.159	0.0
120.173	1.0
120.188	1.0
120.203	2.0
120.218	3.0
120.233	1.0
120.248	0.0
120.263	2.0
120.277	0.0
120.292	2.0
120.307	3.0
120.322	0.0
120.337	1.0
120.352	0.0
120.367	0.0
120.382	1.0
120.396	0.0
120.411	0.0
120.426	0.0
120.441	0.0
120.456	0.0
120.471	0.0
120.486	1.0
120.501	0.0
120.515	0.0
120.53	0.0
120.545	0.0
120.56	0.0
120.575	0.0
120.59	0.0
120.605	0.0
120.619	0.0
120.634	0.0
120.649	0.0
120.664	1.0
120.679	0.0
120.694	0.0
120.709	0.0
120.724	0.0
120.738	0.0
120.753	0.0
120.768	0.0
120.783	0.0
120.798	1.0
120.813	0.0
120.828	0.0
120.843	0.0
120.857	0.0
120.872	0.0
120.887	0.0
120.902	0.0
120.917	0.0
120.932	0.0
120.947	0.0
120.961	1.0
120.976	0.0
