-1.217	0.0
-1.202	0.0
-1.187	0.0
-1.172	0.0
-1.157	0.0
-1.142	0.0
-1.128	0.0
-1.113	0.0
-1.098	0.0
-1.083	0.0
-1.068	0.0
-1.054	0.0
-1.039	0.0
-1.024	0.0
-1.009	0.0
-0.994	0.0
-0.979	0.0
-0.965	0.0
-0.95	0.0
-0.935	0.0
-0.92	0.0
-0.905	0.0
-0.891	0.0
-0.876	0.0
-0.861	0.0
-0.846	0.0
-0.831	0.0
-0.816	1.0
-0.802	0.0
-0.787	0.0
-0.772	0.0
-0.757	0.0
-0.742	0.0
-0.728	0.0
-0.713	0.0
-0.698	0.0
-0.683	0.0
-0.668	0.0
-0.653	0.0
-0.639	0.0
-0.624	0.0
-0.609	0.0
-0.594	0.0
-0.579	0.0
-0.565	0.0
-0.55	0.0
-0.535	0.0
-0.52	0.0
-0.505	0.0
-0.49	0.0
-0.476	0.0
-0.461	0.0
-0.446	0.0
-0.431	0.0
-0.416	0.0
-0.401	0.0
-0.387	0.0
-0.372	0.0
-0.357	0.0
-0.342	0.0
-0.327	0.0
-0.313	0.0
-0.298	0.0
-0.283	0.0
-0.268	0.0
-0.253	0.0
-0.238	0.0
-0.224	0.0
-0.209	0.0
-0.194	0.0
-0.179	0.0
-0.164	0.0
-0.15	0.0
-0.135	0.0
-0.12	0.0
-0.105	0.0
-0.09	0.0
-0.075	0.0
-0.061	0.0
-0.046	0.0
-0.031	0.0
-0.016	0.0
-0.001	0.0
0.013	0.0
0.028	0.0
0.043	0.0
0.058	0.0
0.073	0.0
0.088	0.0
0.102	0.0
0.117	0.0
0.132	0.0
0.147	0.0
0.162	0.0
0.176	0.0
0.191	0.0
0.206	0.0
0.221	0.0
0.236	0.0
0.251	0.0
0.265	0.0
0.28	0.0
0.295	0.0
0.31	0.0
0.325	0.0
0.339	0.0
0.354	0.0
0.369	0.0
0.384	0.0
0.399	0.0
0.414	0.0
0.428	0.0
0.443	0.0
0.458	0.0
0.473	0.0
0.488	0.0
0.502	0.0
0.517	1.0
0.532	0.0
0.547	0.0
0.562	0.0
0.577	0.0
0.591	0.0
0.606	0.0
0.621	0.0
0.636	0.0
0.651	0.0
0.665	0.0
0.68	0.0
0.695	0.0
0.71	0.0
0.725	0.0
0.74	0.0
0.754	0.0
0.769	0.0
0.784	0.0
0.799	0.0
0.814	0.0
0.828	0.0
0.843	1.0
0.858	0.0
0.873	0.0
0.888	0.0
0.903	0.0
0.917	0.0
0.932	0.0
0.947	0.0
0.962	0.0
0.977	0.0
0.991	0.0
1.006	0.0
1.021	0.0
1.036	0.0
1.051	0.0
1.065	0.0
1.08	0.0
1.095	0.0
1.11	0.0
1.125	0.0
1.14	0.0
1.154	0.0
1.169	0.0
1.184	1.0
1.199	0.0
1.214	0.0
1.228	0.0
1.243	0.0
1.258	0.0
1.273	0.0
1.288	0.0
1.302	0.0
1.317	0.0
1.332	0.0
1.347	0.0
1.362	0.0
1.376	0.0
1.391	0.0
1.406	0.0
1.421	0.0
1.436	0.0
1.45	0.0
1.465	0.0
1.48	0.0
1.495	0.0
1.51	0.0
1.524	0.0
1.539	0.0
1.554	0.0
1.569	0.0
1.584	0.0
1.598	0.0
1.613	0.0
1.628	0.0
1.643	1.0
1.658	0.0
1.672	0.0
1.687	0.0
1.702	0.0
1.717	0.0
1.732	0.0
1.746	0.0
1.761	0.0
1.776	0.0
1.791	0.0
1.806	0.0
1.82	0.0
1.835	0.0
1.85	0.0
1.865	0.0
1.88	0.0
1.894	0.0
1.909	0.0
1.924	0.0
1.939	0.0
1.954	0.0
1.968	0.0
1.983	0.0
1.998	1.0
2.013	0.0
2.028	0.0
2.042	1.0
2.057	0.0
2.072	0.0
2.087	1.0
2.101	0.0
2.116	0.0
2.131	0.0
2.146	0.0
2.161	1.0
2.175	0.0
2.19	0.0
2.205	0.0
2.22	0.0
2.235	0.0
2.249	0.0
2.264	1.0
2.279	0.0
2.294	1.0
2.308	1.0
2.323	1.0
2.338	0.0
2.353	1.0
2.368	0.0
2.382	1.0
2.397	0.0
2.412	0.0
2.427	0.0
2.442	2.0
2.456	3.0
2.471	1.0
2.486	3.0
2.501	3.0
2.515	1.0
2.53	2.0
2.545	0.0
2.56	2.0
2.575	1.0
2.589	3.0
2.604	4.0
2.619	2.0
2.634	2.0
2.649	1.0
2.663	2.0
2.678	1.0
2.693	1.0
2.708	6.0
2.722	5.0
2.737	1.0
2.752	1.0
2.767	1.0
2.782	3.0
2.796	0.0
2.811	5.0
2.826	3.0
2.841	6.0
2.856	4.0
2.87	2.0
2.885	4.0
2.9	3.0
2.915	2.0
2.93	3.0
2.944	1.0
2.959	3.0
2.974	7.0
2.989	3.0
3.004	6.0
3.018	5.0
3.033	4.0
3.048	3.0
3.063	8.0
3.078	2.0
3.092	2.0
3.107	3.0
3.122	4.0
3.137	4.0
3.152	5.0
3.166	3.0
3.181	2.0
3.196	4.0
3.211	4.0
3.226	3.0
3.24	1.0
3.255	3.0
3.27	3.0
3.285	5.0
3.3	3.0
3.315	1.0
3.329	5.0
3.344	7.0
3.359	4.0
3.374	7.0
3.389	4.0
3.403	5.0
3.418	5.0
3.433	4.0
3.448	5.0
3.463	4.0
3.478	6.0
3.492	9.0
3.507	3.0
3.522	6.0
3.537	6.0
3.552	3.0
3.567	6.0
3.581	9.0
3.596	7.0
3.611	10.0
3.626	6.0
3.641	4.0
3.656	6.0
3.671	6.0
3.685	8.0
3.7	5.0
3.715	6.0
3.73	9.0
3.745	6.0
3.76	5.0
3.775	6.0
3.789	8.0
3.804	10.0
3.819	5.0
3.834	8.0
3.849	3.0
3.864	6.0
3.879	9.0
3.894	6.0
3.908	7.0
3.923	6.0
3.938	5.0
3.953	9.0
3.968	7.0
3.983	6.0
3.998	11.0
4.013	3.0
4.027	6.0
4.042	10.0
4.057	9.0
4.072	6.0
4.087	12.0
4.102	6.0
4.117	5.0
4.132	7.0
4.147	9.0
4.162	4.0
4.176	7.0
4.191	9.0
4.206	5.0
4.221	4.0
4.236	9.0
4.251	7.0
4.266	11.0
4.281	8.0
4.296	8.0
4.311	8.0
4.326	7.0
4.341	11.0
4.356	3.0
4.37	9.0
4.385	9.0
4.4	8.0
4.415	5.0
4.43	4.0
4.445	11.0
4.46	5.0
4.475	4.0
4.49	6.0
4.505	5.0
4.52	7.0
4.535	7.0
4.55	5.0
4.565	4.0
4.58	4.0
4.595	13.0
4.61	7.0
4.625	5.0
4.639	12.0
4.654	11.0
4.669	9.0
4.684	7.0
4.699	1.0
4.714	8.0
4.729	8.0
4.744	2.0
4.759	8.0
4.774	14.0
4.789	3.0
4.804	5.0
4.819	10.0
4.834	11.0
4.849	5.0
4.864	6.0
4.879	15.0
4.894	5.0
4.909	13.0
4.924	12.0
4.939	10.0
4.954	6.0
4.969	8.0
4.984	11.0
4.999	6.0
5.014	6.0
5.029	7.0
5.044	6.0
5.059	5.0
5.074	6.0
5.089	5.0
5.104	4.0
5.119	6.0
5.134	7.0
5.149	7.0
5.164	9.0
5.179	5.0
5.194	8.0
5.209	8.0
5.224	9.0
5.239	11.0
5.254	6.0
5.269	8.0
5.284	14.0
5.299	9.0
5.314	8.0
5.329	6.0
5.344	13.0
5.359	5.0
5.374	7.0
5.389	5.0
5.404	8.0
5.419	8.0
5.434	12.0
5.449	6.0
5.464	6.0
5.479	4.0
5.494	7.0
5.509	5.0
5.524	9.0
5.539	9.0
5.554	6.0
5.569	10.0
5.584	7.0
5.599	9.0
5.614	2.0
5.629	12.0
5.644	7.0
5.659	5.0
5.674	2.0
5.689	8.0
5.704	15.0
5.719	5.0
5.734	8.0
5.749	8.0
5.764	10.0
5.779	13.0
5.794	5.0
5.809	8.0
5.824	7.0
5.839	7.0
5.854	9.0
5.869	10.0
5.884	5.0
5.899	7.0
5.914	5.0
5.929	9.0
5.944	9.0
5.959	9.0
5.974	8.0
5.989	5.0
6.004	8.0
6.019	8.0
6.034	7.0
6.049	4.0
6.064	7.0
6.079	9.0
6.094	12.0
6.109	7.0
6.124	7.0
6.139	11.0
6.154	12.0
6.169	12.0
6.184	7.0
6.199	7.0
6.214	5.0
6.229	8.0
6.244	11.0
6.259	7.0
6.274	6.0
6.289	8.0
6.304	7.0
6.319	8.0
6.334	12.0
6.349	5.0
6.364	9.0
6.379	14.0
6.394	6.0
6.409	7.0
6.424	6.0
6.439	6.0
6.454	9.0
6.469	7.0
6.484	14.0
6.499	8.0
6.514	10.0
6.529	7.0
6.544	17.0
6.559	9.0
6.574	6.0
6.589	12.0
6.604	10.0
6.619	3.0
6.634	9.0
6.649	5.0
6.664	10.0
6.679	7.0
6.694	13.0
6.709	7.0
6.724	5.0
6.739	7.0
6.754	8.0
6.769	11.0
6.784	8.0
6.799	14.0
6.814	6.0
6.829	9.0
6.844	7.0
6.859	6.0
6.873	10.0
6.888	5.0
6.903	8.0
6.918	6.0
6.933	12.0
6.948	5.0
6.963	11.0
6.978	9.0
6.993	13.0
7.008	14.0
7.023	16.0
7.038	12.0
7.053	9.0
7.068	11.0
7.083	12.0
7.098	5.0
7.113	7.0
7.128	7.0
7.143	10.0
7.157	10.0
7.172	10.0
7.187	8.0
7.202	7.0
7.217	9.0
7.232	9.0
7.247	5.0
7.262	4.0
7.277	9.0
7.292	10.0
7.307	12.0
7.322	5.0
7.336	4.0
7.351	10.0
7.366	10.0
7.381	15.0
7.396	14.0
7.411	12.0
7.426	16.0
7.441	10.0
7.456	9.0
7.471	12.0
7.485	14.0
7.5	7.0
7.515	8.0
7.53	8.0
7.545	11.0
7.56	15.0
7.575	12.0
7.59	13.0
7.604	9.0
7.619	9.0
7.634	7.0
7.649	13.0
7.664	6.0
7.679	8.0
7.693	13.0
7.708	9.0
7.723	12.0
7.738	12.0
7.753	5.0
7.768	10.0
7.783	7.0
7.797	9.0
7.812	7.0
7.827	6.0
7.842	11.0
7.857	7.0
7.871	10.0
7.886	14.0
7.901	12.0
7.916	8.0
7.931	14.0
7.945	9.0
7.96	5.0
7.975	6.0
7.99	9.0
8.005	4.0
8.019	7.0
8.034	6.0
8.049	13.0
8.064	7.0
8.078	11.0
8.093	14.0
8.108	10.0
8.123	12.0
8.137	11.0
8.152	5.0
8.167	7.0
8.182	12.0
8.196	10.0
8.211	10.0
8.226	11.0
8.241	9.0
8.255	6.0
8.27	7.0
8.285	9.0
8.3	8.0
8.314	8.0
8.329	6.0
8.344	10.0
8.358	7.0
8.373	15.0
8.388	6.0
8.403	18.0
8.417	11.0
8.432	8.0
8.447	8.0
8.461	10.0
8.476	10.0
8.491	6.0
8.505	6.0
8.52	9.0
8.535	8.0
8.55	4.0
8.564	13.0
8.579	4.0
8.594	10.0
8.608	12.0
8.623	9.0
8.638	8.0
8.652	7.0
8.667	10.0
8.682	9.0
8.696	15.0
8.711	7.0
8.726	19.0
8.74	13.0
8.755	11.0
8.77	7.0
8.784	11.0
8.799	9.0
8.814	10.0
8.828	10.0
8.843	8.0
8.858	3.0
8.872	6.0
8.887	10.0
8.902	14.0
8.916	8.0
8.931	9.0
8.946	10.0
8.96	6.0
8.975	8.0
8.99	9.0
9.004	3.0
9.019	2.0
9.034	11.0
9.048	8.0
9.063	9.0
9.077	9.0
9.092	7.0
9.107	5.0
9.121	10.0
9.136	11.0
9.151	10.0
9.165	8.0
9.18	8.0
9.195	6.0
9.209	4.0
9.224	5.0
9.239	6.0
9.253	13.0
9.268	13.0
9.283	6.0
9.297	9.0
9.312	9.0
9.327	14.0
9.341	10.0
9.356	8.0
9.371	8.0
9.385	5.0
9.4	6.0
9.415	9.0
9.429	6.0
9.444	13.0
9.458	4.0
9.473	10.0
9.488	8.0
9.502	13.0
9.517	12.0
9.532	6.0
9.546	7.0
9.561	10.0
9.576	3.0
9.59	8.0
9.605	8.0
9.62	10.0
9.635	8.0
9.649	9.0
9.664	7.0
9.679	4.0
9.693	10.0
9.708	7.0
9.723	7.0
9.737	7.0
9.752	10.0
9.767	9.0
9.781	8.0
9.796	11.0
9.811	5.0
9.825	12.0
9.84	7.0
9.855	8.0
9.87	7.0
9.884	3.0
9.899	12.0
9.914	14.0
9.928	6.0
9.943	10.0
9.958	6.0
9.973	9.0
9.987	6.0
10.002	7.0
10.017	4.0
10.031	10.0
10.046	4.0
10.061	5.0
10.076	11.0
10.09	11.0
10.105	8.0
10.12	12.0
10.135	7.0
10.149	3.0
10.164	10.0
10.179	12.0
10.194	6.0
10.208	6.0
10.223	8.0
10.238	4.0
10.253	7.0
10.267	3.0
10.282	9.0
10.297	7.0
10.312	14.0
10.326	5.0
10.341	9.0
10.356	7.0
10.371	10.0
10.386	7.0
10.4	8.0
10.415	13.0
10.43	7.0
10.445	5.0
10.46	11.0
10.474	13.0
10.489	6.0
10.504	6.0
10.519	15.0
10.533	10.0
10.548	5.0
10.563	9.0
10.578	9.0
10.593	9.0
10.608	8.0
10.622	5.0
10.637	3.0
10.652	7.0
10.667	5.0
10.682	13.0
10.696	4.0
10.711	6.0
10.726	7.0
10.741	7.0
10.756	12.0
10.771	7.0
10.785	3.0
10.8	10.0
10.815	8.0
10.83	8.0
10.845	9.0
10.86	9.0
10.874	9.0
10.889	9.0
10.904	13.0
10.919	5.0
10.934	8.0
10.949	11.0
10.963	7.0
10.978	8.0
10.993	5.0
11.008	5.0
11.023	4.0
11.038	6.0
11.053	11.0
11.067	15.0
11.082	9.0
11.097	9.0
11.112	9.0
11.127	11.0
11.142	11.0
11.157	5.0
11.172	8.0
11.186	6.0
11.201	8.0
11.216	8.0
11.231	12.0
11.246	4.0
11.261	8.0
11.276	6.0
11.291	7.0
11.305	11.0
11.32	6.0
11.335	8.0
11.35	8.0
11.365	10.0
11.38	8.0
11.395	7.0
11.41	2.0
11.424	11.0
11.439	9.0
11.454	9.0
11.469	7.0
11.484	13.0
11.499	9.0
11.514	8.0
11.529	4.0
11.544	9.0
11.558	8.0
11.573	6.0
11.588	7.0
11.603	4.0
11.618	10.0
11.633	8.0
11.648	6.0
11.663	3.0
11.678	9.0
11.693	8.0
11.707	5.0
11.722	12.0
11.737	9.0
11.752	7.0
11.767	8.0
11.782	13.0
11.797	10.0
11.812	8.0
11.827	6.0
11.842	13.0
11.856	14.0
11.871	9.0
11.886	6.0
11.901	10.0
11.916	8.0
11.931	8.0
11.946	10.0
11.961	11.0
11.976	14.0
11.991	8.0
12.006	6.0
12.02	8.0
12.035	13.0
12.05	7.0
12.065	6.0
12.08	9.0
12.095	5.0
12.11	10.0
12.125	12.0
12.14	11.0
12.155	9.0
12.17	10.0
12.184	20.0
12.199	8.0
12.214	9.0
12.229	14.0
12.244	5.0
12.259	9.0
12.274	9.0
12.289	11.0
12.304	13.0
12.319	9.0
12.334	9.0
12.348	15.0
12.363	8.0
12.378	12.0
12.393	14.0
12.408	8.0
12.423	16.0
12.438	9.0
12.453	6.0
12.468	11.0
12.483	10.0
12.498	10.0
12.513	12.0
12.527	14.0
12.542	16.0
12.557	13.0
12.572	12.0
12.587	16.0
12.602	7.0
12.617	12.0
12.632	8.0
12.647	12.0
12.662	18.0
12.677	8.0
12.692	9.0
12.707	14.0
12.721	21.0
12.736	19.0
12.751	11.0
12.766	16.0
12.781	17.0
12.796	14.0
12.811	21.0
12.826	15.0
12.841	16.0
12.856	16.0
12.871	14.0
12.886	11.0
12.9	18.0
12.915	16.0
12.93	21.0
12.945	15.0
12.96	14.0
12.975	14.0
12.99	17.0
13.005	15.0
13.02	20.0
13.035	16.0
13.05	20.0
13.065	13.0
13.08	19.0
13.094	21.0
13.109	13.0
13.124	15.0
13.139	19.0
13.154	17.0
13.169	19.0
13.184	17.0
13.199	18.0
13.214	16.0
13.229	17.0
13.244	30.0
13.259	30.0
13.274	14.0
13.288	25.0
13.303	29.0
13.318	13.0
13.333	23.0
13.348	27.0
13.363	18.0
13.378	32.0
13.393	33.0
13.408	31.0
13.423	21.0
13.438	34.0
13.453	38.0
13.468	24.0
13.482	24.0
13.497	43.0
13.512	42.0
13.527	48.0
13.542	42.0
13.557	49.0
13.572	52.0
13.587	53.0
13.602	61.0
13.617	68.0
13.632	65.0
13.647	60.0
13.662	72.0
13.677	93.0
13.691	94.0
13.706	100.0
13.721	102.0
13.736	103.0
13.751	103.0
13.766	106.0
13.781	151.0
13.796	112.0
13.811	109.0
13.826	135.0
13.841	121.0
13.856	110.0
13.871	115.0
13.885	115.0
13.9	78.0
13.915	84.0
13.93	68.0
13.945	63.0
13.96	62.0
13.975	44.0
13.99	34.0
14.005	50.0
14.02	33.0
14.035	19.0
14.05	32.0
14.065	22.0
14.08	13.0
14.094	18.0
14.109	31.0
14.124	25.0
14.139	24.0
14.154	23.0
14.169	32.0
14.184	28.0
14.199	19.0
14.214	16.0
14.229	19.0
14.244	15.0
14.259	14.0
14.274	18.0
14.288	18.0
14.303	28.0
14.318	21.0
14.333	17.0
14.348	18.0
14.363	15.0
14.378	18.0
14.393	21.0
14.408	30.0
14.423	19.0
14.438	20.0
14.453	19.0
14.468	17.0
14.482	15.0
14.497	23.0
14.512	17.0
14.527	26.0
14.542	16.0
14.557	15.0
14.572	13.0
14.587	19.0
14.602	15.0
14.617	17.0
14.632	20.0
14.647	12.0
14.661	14.0
14.676	16.0
14.691	17.0
14.706	18.0
14.721	15.0
14.736	20.0
14.751	17.0
14.766	16.0
14.781	13.0
14.796	27.0
14.811	8.0
14.826	12.0
14.84	14.0
14.855	17.0
14.87	13.0
14.885	20.0
14.9	15.0
14.915	9.0
14.93	16.0
14.945	17.0
14.96	9.0
14.975	16.0
14.989	20.0
15.004	18.0
15.019	26.0
15.034	10.0
15.049	19.0
15.064	18.0
15.079	16.0
15.094	15.0
15.109	16.0
15.124	14.0
15.138	18.0
15.153	13.0
15.168	8.0
15.183	13.0
15.198	13.0
15.213	12.0
15.228	14.0
15.243	11.0
15.258	23.0
15.272	12.0
15.287	13.0
15.302	15.0
15.317	12.0
15.332	11.0
15.347	7.0
15.362	16.0
15.377	12.0
15.391	13.0
15.406	13.0
15.421	16.0
15.436	16.0
15.451	19.0
15.466	16.0
15.481	15.0
15.496	15.0
15.51	14.0
15.525	17.0
15.54	12.0
15.555	8.0
15.57	14.0
15.585	16.0
15.6	14.0
15.614	14.0
15.629	10.0
15.644	9.0
15.659	15.0
15.674	12.0
15.689	15.0
15.704	14.0
15.718	13.0
15.733	16.0
15.748	19.0
15.763	17.0
15.778	13.0
15.793	16.0
15.808	11.0
15.822	23.0
15.837	12.0
15.852	12.0
15.867	12.0
15.882	12.0
15.897	9.0
15.911	22.0
15.926	13.0
15.941	13.0
15.956	10.0
15.971	18.0
15.986	20.0
16.0	11.0
16.015	13.0
16.03	7.0
16.045	18.0
16.06	17.0
16.074	19.0
16.089	18.0
16.104	17.0
16.119	15.0
16.134	17.0
16.149	11.0
16.163	13.0
16.178	22.0
16.193	10.0
16.208	17.0
16.223	14.0
16.237	22.0
16.252	10.0
16.267	8.0
16.282	15.0
16.297	19.0
16.311	19.0
16.326	12.0
16.341	20.0
16.356	14.0
16.37	18.0
16.385	8.0
16.4	18.0
16.415	12.0
16.43	15.0
16.444	14.0
16.459	11.0
16.474	14.0
16.489	16.0
16.504	11.0
16.518	14.0
16.533	17.0
16.548	17.0
16.563	20.0
16.577	16.0
16.592	12.0
16.607	20.0
16.622	11.0
16.637	17.0
16.651	14.0
16.666	24.0
16.681	35.0
16.696	28.0
16.71	25.0
16.725	19.0
16.74	21.0
16.755	25.0
16.77	19.0
16.784	45.0
16.799	27.0
16.814	33.0
16.829	40.0
16.843	55.0
16.858	53.0
16.873	55.0
16.888	61.0
16.902	62.0
16.917	65.0
16.932	75.0
16.947	69.0
16.961	80.0
16.976	75.0
16.991	65.0
17.006	74.0
17.021	68.0
17.035	56.0
17.05	52.0
17.065	44.0
17.08	34.0
17.094	29.0
17.109	33.0
17.124	21.0
17.139	28.0
17.153	25.0
17.168	19.0
17.183	16.0
17.198	21.0
17.212	11.0
17.227	19.0
17.242	13.0
17.257	14.0
17.271	20.0
17.286	16.0
17.301	18.0
17.316	11.0
17.33	11.0
17.345	21.0
17.36	5.0
17.375	16.0
17.39	11.0
17.404	13.0
17.419	13.0
17.434	9.0
17.449	8.0
17.463	20.0
17.478	19.0
17.493	20.0
17.508	9.0
17.522	6.0
17.537	18.0
17.552	17.0
17.567	13.0
17.581	18.0
17.596	11.0
17.611	8.0
17.626	10.0
17.641	13.0
17.655	12.0
17.67	11.0
17.685	22.0
17.7	12.0
17.714	12.0
17.729	14.0
17.744	20.0
17.759	11.0
17.773	11.0
17.788	10.0
17.803	15.0
17.818	11.0
17.833	14.0
17.847	13.0
17.862	11.0
17.877	18.0
17.892	8.0
17.906	21.0
17.921	12.0
17.936	7.0
17.951	17.0
17.966	14.0
17.98	14.0
17.995	10.0
18.01	18.0
18.025	14.0
18.04	16.0
18.054	13.0
18.069	15.0
18.084	11.0
18.099	16.0
18.114	8.0
18.128	13.0
18.143	14.0
18.158	13.0
18.173	16.0
18.188	7.0
18.202	6.0
18.217	10.0
18.232	10.0
18.247	13.0
18.262	13.0
18.276	11.0
18.291	10.0
18.306	13.0
18.321	15.0
18.336	7.0
18.35	15.0
18.365	11.0
18.38	10.0
18.395	11.0
18.41	6.0
18.424	12.0
18.439	9.0
18.454	9.0
18.469	11.0
18.484	12.0
18.498	21.0
18.513	9.0
18.528	16.0
18.543	10.0
18.558	9.0
18.573	9.0
18.587	8.0
18.602	19.0
18.617	12.0
18.632	10.0
18.647	10.0
18.661	11.0
18.676	15.0
18.691	6.0
18.706	13.0
18.721	13.0
18.736	8.0
18.75	10.0
18.765	16.0
18.78	9.0
18.795	8.0
18.81	12.0
18.825	11.0
18.839	12.0
18.854	7.0
18.869	13.0
18.884	16.0
18.899	8.0
18.913	7.0
18.928	15.0
18.943	12.0
18.958	16.0
18.973	5.0
18.988	8.0
19.002	12.0
19.017	15.0
19.032	10.0
19.047	5.0
19.062	10.0
19.077	8.0
19.091	11.0
19.106	12.0
19.121	13.0
19.136	8.0
19.151	9.0
19.165	17.0
19.18	12.0
19.195	14.0
19.21	5.0
19.225	10.0
19.24	6.0
19.254	10.0
19.269	14.0
19.284	8.0
19.299	14.0
19.314	13.0
19.329	13.0
19.343	18.0
19.358	11.0
19.373	17.0
19.388	17.0
19.403	18.0
19.417	26.0
19.432	19.0
19.447	31.0
19.462	20.0
19.477	30.0
19.492	23.0
19.506	32.0
19.521	43.0
19.536	37.0
19.551	36.0
19.566	43.0
19.58	49.0
19.595	43.0
19.61	44.0
19.625	44.0
19.64	36.0
19.655	45.0
19.669	29.0
19.684	38.0
19.699	42.0
19.714	25.0
19.729	23.0
19.743	19.0
19.758	26.0
19.773	24.0
19.788	24.0
19.803	14.0
19.817	11.0
19.832	20.0
19.847	17.0
19.862	16.0
19.877	9.0
19.891	21.0
19.906	14.0
19.921	17.0
19.936	18.0
19.951	13.0
19.965	7.0
19.98	10.0
19.995	15.0
20.01	8.0
20.025	9.0
20.039	18.0
20.054	17.0
20.069	11.0
20.084	11.0
20.099	16.0
20.113	10.0
20.128	11.0
20.143	13.0
20.158	12.0
20.173	12.0
20.187	12.0
20.202	17.0
20.217	10.0
20.232	12.0
20.246	19.0
20.261	9.0
20.276	13.0
20.291	9.0
20.306	10.0
20.32	11.0
20.335	16.0
20.35	7.0
20.365	14.0
20.38	12.0
20.394	11.0
20.409	13.0
20.424	14.0
20.439	16.0
20.453	11.0
20.468	6.0
20.483	9.0
20.498	13.0
20.513	13.0
20.527	17.0
20.542	15.0
20.557	11.0
20.572	10.0
20.586	12.0
20.601	16.0
20.616	11.0
20.631	14.0
20.646	12.0
20.66	7.0
20.675	14.0
20.69	16.0
20.705	13.0
20.719	11.0
20.734	13.0
20.749	7.0
20.764	10.0
20.779	11.0
20.793	9.0
20.808	12.0
20.823	12.0
20.838	12.0
20.853	9.0
20.867	14.0
20.882	13.0
20.897	15.0
20.912	11.0
20.926	6.0
20.941	9.0
20.956	12.0
20.971	11.0
20.986	9.0
21.0	10.0
21.015	10.0
21.03	10.0
21.045	11.0
21.06	12.0
21.074	11.0
21.089	11.0
21.104	8.0
21.119	16.0
21.134	9.0
21.148	9.0
21.163	9.0
21.178	13.0
21.193	10.0
21.208	16.0
21.222	14.0
21.237	9.0
21.252	11.0
21.267	12.0
21.282	9.0
21.296	13.0
21.311	11.0
21.326	14.0
21.341	12.0
21.356	9.0
21.37	10.0
21.385	9.0
21.4	8.0
21.415	14.0
21.43	15.0
21.444	10.0
21.459	20.0
21.474	11.0
21.489	8.0
21.504	10.0
21.519	17.0
21.533	12.0
21.548	16.0
21.563	15.0
21.578	17.0
21.593	15.0
21.608	15.0
21.622	10.0
21.637	20.0
21.652	23.0
21.667	22.0
21.682	17.0
21.697	17.0
21.712	21.0
21.726	25.0
21.741	33.0
21.756	18.0
21.771	26.0
21.786	34.0
21.801	38.0
21.816	47.0
21.83	49.0
21.845	57.0
21.86	50.0
21.875	54.0
21.89	81.0
21.905	64.0
21.92	69.0
21.935	76.0
21.949	92.0
21.964	78.0
21.979	78.0
21.994	60.0
22.009	61.0
22.024	70.0
22.039	63.0
22.054	73.0
22.069	48.0
22.083	45.0
22.098	39.0
22.113	47.0
22.128	25.0
22.143	38.0
22.158	22.0
22.173	21.0
22.188	26.0
22.203	17.0
22.218	18.0
22.233	17.0
22.248	20.0
22.262	17.0
22.277	7.0
22.292	10.0
22.307	10.0
22.322	13.0
22.337	11.0
22.352	12.0
22.367	9.0
22.382	10.0
22.397	7.0
22.412	15.0
22.427	9.0
22.442	12.0
22.457	11.0
22.472	11.0
22.487	17.0
22.502	6.0
22.516	11.0
22.531	20.0
22.546	16.0
22.561	9.0
22.576	15.0
22.591	10.0
22.606	13.0
22.621	14.0
22.636	11.0
22.651	19.0
22.666	14.0
22.681	14.0
22.696	6.0
22.711	14.0
22.726	10.0
22.741	15.0
22.756	11.0
22.771	11.0
22.786	14.0
22.801	11.0
22.816	10.0
22.831	7.0
22.846	11.0
22.861	8.0
22.876	12.0
22.891	5.0
22.906	9.0
22.92	12.0
22.935	8.0
22.95	10.0
22.965	6.0
22.98	11.0
22.995	9.0
23.01	9.0
23.025	15.0
23.04	10.0
23.055	16.0
23.07	7.0
23.085	10.0
23.1	6.0
23.115	13.0
23.13	6.0
23.145	12.0
23.16	6.0
23.175	3.0
23.19	10.0
23.205	7.0
23.22	11.0
23.235	5.0
23.25	14.0
23.265	12.0
23.28	8.0
23.295	8.0
23.31	10.0
23.325	8.0
23.34	9.0
23.355	10.0
23.37	13.0
23.384	16.0
23.399	15.0
23.414	9.0
23.429	7.0
23.444	14.0
23.459	14.0
23.474	2.0
23.489	12.0
23.504	15.0
23.519	9.0
23.534	10.0
23.549	10.0
23.564	8.0
23.579	13.0
23.594	10.0
23.609	12.0
23.624	10.0
23.639	8.0
23.654	11.0
23.668	11.0
23.683	13.0
23.698	8.0
23.713	7.0
23.728	9.0
23.743	7.0
23.758	10.0
23.773	7.0
23.788	11.0
23.803	13.0
23.818	18.0
23.833	17.0
23.848	14.0
23.862	27.0
23.877	20.0
23.892	19.0
23.907	16.0
23.922	19.0
23.937	16.0
23.952	28.0
23.967	37.0
23.982	39.0
23.997	37.0
24.011	44.0
24.026	40.0
24.041	47.0
24.056	57.0
24.071	48.0
24.086	49.0
24.101	56.0
24.116	48.0
24.131	49.0
24.145	31.0
24.16	56.0
24.175	41.0
24.19	37.0
24.205	38.0
24.22	43.0
24.235	28.0
24.249	24.0
24.264	31.0
24.279	15.0
24.294	22.0
24.309	12.0
24.324	18.0
24.338	16.0
24.353	17.0
24.368	13.0
24.383	9.0
24.398	8.0
24.413	10.0
24.428	12.0
24.442	14.0
24.457	14.0
24.472	9.0
24.487	14.0
24.502	10.0
24.516	12.0
24.531	13.0
24.546	15.0
24.561	6.0
24.576	12.0
24.591	8.0
24.605	12.0
24.62	10.0
24.635	10.0
24.65	13.0
24.665	10.0
24.679	12.0
24.694	14.0
24.709	9.0
24.724	10.0
24.739	6.0
24.753	11.0
24.768	10.0
24.783	9.0
24.798	11.0
24.813	6.0
24.827	13.0
24.842	11.0
24.857	9.0
24.872	7.0
24.886	12.0
24.901	7.0
24.916	10.0
24.931	11.0
24.946	11.0
24.96	11.0
24.975	12.0
24.99	15.0
25.005	8.0
25.019	18.0
25.034	11.0
25.049	8.0
25.064	14.0
25.078	10.0
25.093	12.0
25.108	16.0
25.123	10.0
25.138	8.0
25.152	11.0
25.167	10.0
25.182	10.0
25.197	9.0
25.211	8.0
25.226	8.0
25.241	9.0
25.256	12.0
25.27	5.0
25.285	4.0
25.3	8.0
25.315	9.0
25.329	8.0
25.344	8.0
25.359	9.0
25.374	9.0
25.388	8.0
25.403	12.0
25.418	7.0
25.433	7.0
25.447	9.0
25.462	8.0
25.477	8.0
25.492	10.0
25.506	7.0
25.521	17.0
25.536	6.0
25.55	10.0
25.565	11.0
25.58	5.0
25.595	15.0
25.609	10.0
25.624	7.0
25.639	10.0
25.654	6.0
25.668	8.0
25.683	9.0
25.698	10.0
25.713	10.0
25.727	4.0
25.742	11.0
25.757	9.0
25.772	13.0
25.786	12.0
25.801	6.0
25.816	9.0
25.83	9.0
25.845	9.0
25.86	7.0
25.875	10.0
25.889	10.0
25.904	7.0
25.919	18.0
25.934	9.0
25.948	12.0
25.963	9.0
25.978	8.0
25.992	5.0
26.007	9.0
26.022	7.0
26.037	11.0
26.051	9.0
26.066	8.0
26.081	20.0
26.096	13.0
26.11	9.0
26.125	12.0
26.14	10.0
26.155	5.0
26.169	9.0
26.184	13.0
26.199	11.0
26.213	6.0
26.228	13.0
26.243	11.0
26.258	12.0
26.272	12.0
26.287	13.0
26.302	12.0
26.317	10.0
26.331	9.0
26.346	8.0
26.361	10.0
26.376	11.0
26.39	12.0
26.405	12.0
26.42	11.0
26.434	9.0
26.449	9.0
26.464	8.0
26.479	6.0
26.493	13.0
26.508	13.0
26.523	13.0
26.538	13.0
26.552	10.0
26.567	9.0
26.582	7.0
26.597	11.0
26.611	7.0
26.626	11.0
26.641	7.0
26.656	12.0
26.67	10.0
26.685	11.0
26.7	15.0
26.715	7.0
26.729	6.0
26.744	8.0
26.759	8.0
26.773	14.0
26.788	13.0
26.803	6.0
26.818	8.0
26.832	10.0
26.847	9.0
26.862	8.0
26.877	7.0
26.891	10.0
26.906	12.0
26.921	4.0
26.936	3.0
26.95	7.0
26.965	7.0
26.98	15.0
26.995	12.0
27.01	7.0
27.024	7.0
27.039	9.0
27.054	11.0
27.069	7.0
27.083	12.0
27.098	9.0
27.113	9.0
27.128	12.0
27.142	9.0
27.157	11.0
27.172	8.0
27.187	12.0
27.201	6.0
27.216	9.0
27.231	5.0
27.246	4.0
27.261	6.0
27.275	9.0
27.29	8.0
27.305	9.0
27.32	13.0
27.334	10.0
27.349	11.0
27.364	16.0
27.379	8.0
27.394	4.0
27.408	8.0
27.423	7.0
27.438	7.0
27.453	10.0
27.467	11.0
27.482	8.0
27.497	10.0
27.512	12.0
27.527	10.0
27.541	16.0
27.556	12.0
27.571	10.0
27.586	15.0
27.601	10.0
27.615	8.0
27.63	14.0
27.645	13.0
27.66	15.0
27.675	14.0
27.689	8.0
27.704	16.0
27.719	19.0
27.734	11.0
27.749	19.0
27.763	24.0
27.778	26.0
27.793	22.0
27.808	23.0
27.823	15.0
27.838	19.0
27.852	16.0
27.867	26.0
27.882	25.0
27.897	18.0
27.912	19.0
27.926	22.0
27.941	19.0
27.956	9.0
27.971	21.0
27.986	21.0
28.001	20.0
28.015	12.0
28.03	27.0
28.045	17.0
28.06	20.0
28.075	17.0
28.09	13.0
28.105	16.0
28.119	18.0
28.134	15.0
28.149	16.0
28.164	18.0
28.179	13.0
28.194	10.0
28.208	9.0
28.223	11.0
28.238	16.0
28.253	10.0
28.268	11.0
28.283	10.0
28.298	13.0
28.312	9.0
28.327	7.0
28.342	12.0
28.357	10.0
28.372	14.0
28.387	10.0
28.402	8.0
28.417	14.0
28.431	17.0
28.446	9.0
28.461	19.0
28.476	9.0
28.491	14.0
28.506	6.0
28.521	6.0
28.536	10.0
28.55	8.0
28.565	6.0
28.58	8.0
28.595	9.0
28.61	9.0
28.625	18.0
28.64	11.0
28.655	11.0
28.669	13.0
28.684	11.0
28.699	11.0
28.714	15.0
28.729	8.0
28.744	15.0
28.759	15.0
28.774	9.0
28.788	2.0
28.803	7.0
28.818	10.0
28.833	5.0
28.848	10.0
28.863	11.0
28.878	14.0
28.893	10.0
28.908	9.0
28.922	14.0
28.937	10.0
28.952	9.0
28.967	10.0
28.982	19.0
28.997	9.0
29.012	8.0
29.027	10.0
29.041	13.0
29.056	7.0
29.071	12.0
29.086	8.0
29.101	16.0
29.116	12.0
29.131	8.0
29.146	11.0
29.16	7.0
29.175	10.0
29.19	8.0
29.205	10.0
29.22	12.0
29.235	8.0
29.25	10.0
29.265	9.0
29.279	8.0
29.294	9.0
29.309	7.0
29.324	15.0
29.339	14.0
29.354	13.0
29.369	20.0
29.384	13.0
29.398	16.0
29.413	11.0
29.428	13.0
29.443	21.0
29.458	20.0
29.473	28.0
29.488	24.0
29.502	26.0
29.517	35.0
29.532	31.0
29.547	35.0
29.562	39.0
29.577	54.0
29.592	57.0
29.606	50.0
29.621	52.0
29.636	46.0
29.651	46.0
29.666	47.0
29.681	40.0
29.695	44.0
29.71	35.0
29.725	27.0
29.74	29.0
29.755	31.0
29.77	34.0
29.784	29.0
29.799	34.0
29.814	27.0
29.829	34.0
29.844	20.0
29.859	12.0
29.873	18.0
29.888	11.0
29.903	14.0
29.918	20.0
29.933	12.0
29.947	18.0
29.962	16.0
29.977	11.0
29.992	12.0
30.007	10.0
30.021	10.0
30.036	11.0
30.051	16.0
30.066	21.0
30.081	4.0
30.095	7.0
30.11	12.0
30.125	12.0
30.14	8.0
30.155	8.0
30.169	10.0
30.184	17.0
30.199	18.0
30.214	9.0
30.228	10.0
30.243	17.0
30.258	10.0
30.273	12.0
30.288	7.0
30.302	10.0
30.317	12.0
30.332	9.0
30.347	16.0
30.361	10.0
30.376	14.0
30.391	7.0
30.406	11.0
30.42	20.0
30.435	18.0
30.45	11.0
30.465	10.0
30.479	14.0
30.494	10.0
30.509	17.0
30.524	11.0
30.538	10.0
30.553	15.0
30.568	10.0
30.583	12.0
30.597	14.0
30.612	8.0
30.627	18.0
30.641	14.0
30.656	13.0
30.671	12.0
30.686	12.0
30.7	7.0
30.715	13.0
30.73	10.0
30.745	12.0
30.759	9.0
30.774	12.0
30.789	11.0
30.803	6.0
30.818	13.0
30.833	5.0
30.848	12.0
30.862	18.0
30.877	20.0
30.892	14.0
30.906	14.0
30.921	11.0
30.936	10.0
30.951	11.0
30.965	15.0
30.98	13.0
30.995	14.0
31.009	12.0
31.024	9.0
31.039	11.0
31.053	19.0
31.068	15.0
31.083	18.0
31.098	22.0
31.112	21.0
31.127	25.0
31.142	19.0
31.156	21.0
31.171	30.0
31.186	26.0
31.2	33.0
31.215	25.0
31.23	27.0
31.245	37.0
31.259	40.0
31.274	46.0
31.289	42.0
31.303	38.0
31.318	34.0
31.333	30.0
31.347	33.0
31.362	27.0
31.377	28.0
31.392	27.0
31.406	20.0
31.421	31.0
31.436	17.0
31.45	20.0
31.465	21.0
31.48	19.0
31.494	27.0
31.509	18.0
31.524	17.0
31.538	14.0
31.553	16.0
31.568	11.0
31.583	19.0
31.597	9.0
31.612	10.0
31.627	9.0
31.641	12.0
31.656	5.0
31.671	8.0
31.685	17.0
31.7	9.0
31.715	6.0
31.729	11.0
31.744	9.0
31.759	8.0
31.774	7.0
31.788	10.0
31.803	8.0
31.818	13.0
31.832	7.0
31.847	11.0
31.862	10.0
31.876	21.0
31.891	5.0
31.906	8.0
31.92	14.0
31.935	14.0
31.95	15.0
31.965	6.0
31.979	8.0
31.994	8.0
32.009	8.0
32.023	13.0
32.038	13.0
32.053	14.0
32.067	13.0
32.082	6.0
32.097	9.0
32.112	11.0
32.126	7.0
32.141	11.0
32.156	11.0
32.17	16.0
32.185	7.0
32.2	10.0
32.214	12.0
32.229	12.0
32.244	9.0
32.259	8.0
32.273	6.0
32.288	8.0
32.303	10.0
32.317	9.0
32.332	7.0
32.347	11.0
32.362	14.0
32.376	14.0
32.391	7.0
32.406	9.0
32.42	6.0
32.435	10.0
32.45	9.0
32.465	10.0
32.479	8.0
32.494	12.0
32.509	12.0
32.523	12.0
32.538	14.0
32.553	10.0
32.568	11.0
32.582	14.0
32.597	5.0
32.612	13.0
32.627	17.0
32.641	10.0
32.656	17.0
32.671	15.0
32.685	13.0
32.7	11.0
32.715	19.0
32.73	22.0
32.744	32.0
32.759	22.0
32.774	20.0
32.788	32.0
32.803	25.0
32.818	21.0
32.833	25.0
32.847	23.0
32.862	28.0
32.877	23.0
32.892	19.0
32.906	18.0
32.921	22.0
32.936	20.0
32.951	13.0
32.965	13.0
32.98	22.0
32.995	19.0
33.009	21.0
33.024	24.0
33.039	25.0
33.054	18.0
33.068	12.0
33.083	18.0
33.098	15.0
33.113	19.0
33.127	16.0
33.142	12.0
33.157	7.0
33.172	9.0
33.186	11.0
33.201	12.0
33.216	7.0
33.231	10.0
33.245	12.0
33.26	9.0
33.275	11.0
33.29	7.0
33.304	8.0
33.319	13.0
33.334	11.0
33.349	17.0
33.363	9.0
33.378	8.0
33.393	11.0
33.408	4.0
33.422	7.0
33.437	5.0
33.452	7.0
33.467	13.0
33.481	7.0
33.496	14.0
33.511	10.0
33.526	9.0
33.54	8.0
33.555	8.0
33.57	10.0
33.585	17.0
33.599	10.0
33.614	9.0
33.629	9.0
33.644	9.0
33.658	2.0
33.673	9.0
33.688	7.0
33.703	10.0
33.718	14.0
33.732	7.0
33.747	15.0
33.762	11.0
33.777	18.0
33.791	13.0
33.806	5.0
33.821	8.0
33.836	10.0
33.85	7.0
33.865	11.0
33.88	6.0
33.895	6.0
33.91	10.0
33.924	8.0
33.939	5.0
33.954	7.0
33.969	10.0
33.983	5.0
33.998	12.0
34.013	9.0
34.028	16.0
34.042	17.0
34.057	10.0
34.072	9.0
34.087	15.0
34.102	13.0
34.116	10.0
34.131	12.0
34.146	9.0
34.161	13.0
34.175	11.0
34.19	16.0
34.205	13.0
34.22	10.0
34.235	11.0
34.249	16.0
34.264	10.0
34.279	15.0
34.294	20.0
34.309	13.0
34.323	18.0
34.338	13.0
34.353	8.0
34.368	18.0
34.382	13.0
34.397	14.0
34.412	12.0
34.427	7.0
34.442	5.0
34.456	7.0
34.471	10.0
34.486	9.0
34.501	14.0
34.516	10.0
34.53	16.0
34.545	8.0
34.56	7.0
34.575	4.0
34.59	13.0
34.604	6.0
34.619	8.0
34.634	7.0
34.649	7.0
34.664	11.0
34.678	3.0
34.693	4.0
34.708	12.0
34.723	9.0
34.738	13.0
34.752	8.0
34.767	15.0
34.782	11.0
34.797	6.0
34.812	10.0
34.826	7.0
34.841	5.0
34.856	5.0
34.871	11.0
34.886	14.0
34.9	8.0
34.915	7.0
34.93	11.0
34.945	9.0
34.96	17.0
34.974	11.0
34.989	9.0
35.004	6.0
35.019	6.0
35.034	8.0
35.048	9.0
35.063	10.0
35.078	11.0
35.093	7.0
35.108	10.0
35.122	7.0
35.137	9.0
35.152	12.0
35.167	6.0
35.182	17.0
35.196	3.0
35.211	9.0
35.226	9.0
35.241	9.0
35.256	5.0
35.27	10.0
35.285	6.0
35.3	9.0
35.315	8.0
35.33	8.0
35.344	8.0
35.359	6.0
35.374	8.0
35.389	8.0
35.404	4.0
35.418	7.0
35.433	2.0
35.448	10.0
35.463	12.0
35.478	4.0
35.493	8.0
35.507	12.0
35.522	4.0
35.537	12.0
35.552	6.0
35.567	7.0
35.581	14.0
35.596	11.0
35.611	7.0
35.626	14.0
35.641	4.0
35.655	13.0
35.67	15.0
35.685	17.0
35.7	15.0
35.715	11.0
35.729	17.0
35.744	24.0
35.759	18.0
35.774	26.0
35.789	21.0
35.804	14.0
35.818	14.0
35.833	10.0
35.848	10.0
35.863	15.0
35.878	14.0
35.892	21.0
35.907	10.0
35.922	9.0
35.937	17.0
35.952	11.0
35.966	11.0
35.981	18.0
35.996	9.0
36.011	12.0
36.026	14.0
36.04	14.0
36.055	10.0
36.07	13.0
36.085	12.0
36.1	10.0
36.114	12.0
36.129	14.0
36.144	9.0
36.159	6.0
36.174	7.0
36.189	14.0
36.203	8.0
36.218	12.0
36.233	13.0
36.248	11.0
36.263	8.0
36.277	11.0
36.292	8.0
36.307	11.0
36.322	6.0
36.337	11.0
36.351	11.0
36.366	12.0
36.381	14.0
36.396	6.0
36.411	10.0
36.426	3.0
36.44	8.0
36.455	8.0
36.47	6.0
36.485	5.0
36.5	9.0
36.514	11.0
36.529	11.0
36.544	8.0
36.559	9.0
36.574	6.0
36.589	10.0
36.603	5.0
36.618	6.0
36.633	7.0
36.648	11.0
36.663	5.0
36.677	17.0
36.692	9.0
36.707	5.0
36.722	6.0
36.737	8.0
36.752	6.0
36.766	9.0
36.781	12.0
36.796	12.0
36.811	9.0
36.826	8.0
36.841	7.0
36.855	13.0
36.87	6.0
36.885	8.0
36.9	10.0
36.915	8.0
36.93	6.0
36.944	12.0
36.959	12.0
36.974	9.0
36.989	14.0
37.004	9.0
37.019	16.0
37.033	13.0
37.048	13.0
37.063	13.0
37.078	12.0
37.093	20.0
37.108	21.0
37.123	19.0
37.137	25.0
37.152	29.0
37.167	32.0
37.182	32.0
37.197	27.0
37.212	23.0
37.226	31.0
37.241	21.0
37.256	23.0
37.271	18.0
37.286	13.0
37.301	15.0
37.316	22.0
37.331	22.0
37.345	21.0
37.36	16.0
37.375	21.0
37.39	22.0
37.405	18.0
37.42	29.0
37.435	16.0
37.45	20.0
37.464	23.0
37.479	5.0
37.494	11.0
37.509	7.0
37.524	9.0
37.539	11.0
37.554	9.0
37.569	9.0
37.583	12.0
37.598	10.0
37.613	8.0
37.628	9.0
37.643	1.0
37.658	4.0
37.673	8.0
37.688	6.0
37.703	6.0
37.718	6.0
37.733	6.0
37.747	9.0
37.762	8.0
37.777	8.0
37.792	5.0
37.807	8.0
37.822	7.0
37.837	5.0
37.852	5.0
37.867	10.0
37.882	7.0
37.897	4.0
37.912	2.0
37.927	8.0
37.941	6.0
37.956	7.0
37.971	6.0
37.986	6.0
38.001	4.0
38.016	8.0
38.031	10.0
38.046	8.0
38.061	5.0
38.076	4.0
38.091	7.0
38.106	10.0
38.121	4.0
38.136	11.0
38.151	8.0
38.166	6.0
38.181	6.0
38.196	3.0
38.211	3.0
38.226	3.0
38.241	6.0
38.256	6.0
38.271	8.0
38.285	6.0
38.3	8.0
38.315	11.0
38.33	4.0
38.345	6.0
38.36	8.0
38.375	10.0
38.39	6.0
38.405	8.0
38.42	9.0
38.435	6.0
38.45	4.0
38.465	7.0
38.48	6.0
38.495	8.0
38.51	11.0
38.525	3.0
38.54	6.0
38.555	6.0
38.57	6.0
38.585	13.0
38.6	7.0
38.615	2.0
38.63	6.0
38.645	6.0
38.66	6.0
38.675	4.0
38.69	15.0
38.705	7.0
38.72	10.0
38.735	7.0
38.75	8.0
38.765	3.0
38.78	2.0
38.795	6.0
38.81	3.0
38.825	4.0
38.84	5.0
38.855	3.0
38.87	7.0
38.885	8.0
38.9	4.0
38.915	6.0
38.93	1.0
38.945	7.0
38.96	8.0
38.975	9.0
38.99	4.0
39.005	4.0
39.02	9.0
39.035	7.0
39.05	3.0
39.065	8.0
39.08	5.0
39.095	3.0
39.11	5.0
39.125	16.0
39.14	7.0
39.155	5.0
39.17	3.0
39.185	4.0
39.2	5.0
39.215	4.0
39.23	5.0
39.245	1.0
39.26	8.0
39.275	5.0
39.29	2.0
39.305	5.0
39.32	7.0
39.335	8.0
39.35	5.0
39.365	7.0
39.38	6.0
39.395	8.0
39.409	4.0
39.424	3.0
39.439	3.0
39.454	1.0
39.469	5.0
39.484	4.0
39.499	9.0
39.514	2.0
39.529	4.0
39.544	5.0
39.559	5.0
39.574	5.0
39.589	4.0
39.604	7.0
39.619	9.0
39.634	8.0
39.649	7.0
39.664	5.0
39.678	7.0
39.693	4.0
39.708	5.0
39.723	8.0
39.738	6.0
39.753	9.0
39.768	6.0
39.783	7.0
39.798	9.0
39.813	11.0
39.827	7.0
39.842	11.0
39.857	9.0
39.872	6.0
39.887	8.0
39.902	5.0
39.917	11.0
39.932	2.0
39.947	4.0
39.961	7.0
39.976	10.0
39.991	6.0
40.006	6.0
40.021	11.0
40.036	5.0
40.051	6.0
40.065	8.0
40.08	2.0
40.095	11.0
40.11	2.0
40.125	6.0
40.14	7.0
40.154	11.0
40.169	14.0
40.184	8.0
40.199	8.0
40.214	8.0
40.228	6.0
40.243	9.0
40.258	11.0
40.273	7.0
40.288	4.0
40.302	8.0
40.317	11.0
40.332	4.0
40.347	8.0
40.362	3.0
40.376	5.0
40.391	6.0
40.406	4.0
40.421	3.0
40.436	11.0
40.45	5.0
40.465	3.0
40.48	8.0
40.495	5.0
40.509	5.0
40.524	8.0
40.539	4.0
40.554	11.0
40.568	2.0
40.583	3.0
40.598	4.0
40.613	2.0
40.627	5.0
40.642	7.0
40.657	5.0
40.672	1.0
40.686	4.0
40.701	4.0
40.716	3.0
40.731	5.0
40.745	6.0
40.76	4.0
40.775	10.0
40.79	7.0
40.804	10.0
40.819	6.0
40.834	7.0
40.849	4.0
40.863	6.0
40.878	6.0
40.893	6.0
40.907	1.0
40.922	10.0
40.937	6.0
40.952	3.0
40.966	10.0
40.981	14.0
40.996	14.0
41.011	8.0
41.025	8.0
41.04	12.0
41.055	13.0
41.069	14.0
41.084	15.0
41.099	11.0
41.114	22.0
41.128	21.0
41.143	28.0
41.158	21.0
41.173	22.0
41.187	10.0
41.202	14.0
41.217	19.0
41.231	15.0
41.246	9.0
41.261	11.0
41.276	8.0
41.29	5.0
41.305	11.0
41.32	12.0
41.335	9.0
41.349	14.0
41.364	11.0
41.379	13.0
41.393	11.0
41.408	10.0
41.423	12.0
41.438	14.0
41.452	10.0
41.467	15.0
41.482	9.0
41.497	13.0
41.511	9.0
41.526	12.0
41.541	5.0
41.556	9.0
41.57	7.0
41.585	4.0
41.6	9.0
41.615	5.0
41.629	7.0
41.644	5.0
41.659	7.0
41.674	8.0
41.688	6.0
41.703	11.0
41.718	7.0
41.733	4.0
41.747	6.0
41.762	11.0
41.777	8.0
41.792	9.0
41.806	5.0
41.821	7.0
41.836	3.0
41.851	10.0
41.866	4.0
41.88	4.0
41.895	3.0
41.91	6.0
41.925	3.0
41.939	5.0
41.954	8.0
41.969	5.0
41.984	5.0
41.999	6.0
42.013	7.0
42.028	2.0
42.043	6.0
42.058	1.0
42.073	4.0
42.088	10.0
42.102	5.0
42.117	5.0
42.132	3.0
42.147	7.0
42.162	5.0
42.176	4.0
42.191	5.0
42.206	4.0
42.221	9.0
42.236	6.0
42.251	6.0
42.266	5.0
42.28	13.0
42.295	13.0
42.31	13.0
42.325	9.0
42.34	14.0
42.355	10.0
42.369	9.0
42.384	20.0
42.399	19.0
42.414	13.0
42.429	19.0
42.444	11.0
42.459	10.0
42.474	19.0
42.488	11.0
42.503	14.0
42.518	8.0
42.533	12.0
42.548	9.0
42.563	8.0
42.578	14.0
42.593	15.0
42.608	10.0
42.622	11.0
42.637	9.0
42.652	5.0
42.667	9.0
42.682	6.0
42.697	10.0
42.712	9.0
42.727	8.0
42.742	7.0
42.757	8.0
42.772	6.0
42.786	5.0
42.801	6.0
42.816	6.0
42.831	9.0
42.846	4.0
42.861	5.0
42.876	4.0
42.891	8.0
42.906	2.0
42.921	5.0
42.936	6.0
42.951	5.0
42.966	6.0
42.981	4.0
42.996	7.0
43.011	6.0
43.025	7.0
43.04	6.0
43.055	4.0
43.07	4.0
43.085	6.0
43.1	10.0
43.115	3.0
43.13	1.0
43.145	4.0
43.16	5.0
43.175	6.0
43.19	2.0
43.205	5.0
43.22	5.0
43.235	4.0
43.25	4.0
43.265	10.0
43.28	8.0
43.295	8.0
43.31	4.0
43.325	3.0
43.34	5.0
43.355	5.0
43.37	5.0
43.385	5.0
43.4	7.0
43.415	5.0
43.43	5.0
43.445	8.0
43.46	2.0
43.475	12.0
43.49	5.0
43.505	7.0
43.52	14.0
43.535	5.0
43.55	12.0
43.565	7.0
43.58	9.0
43.595	6.0
43.61	10.0
43.625	12.0
43.64	11.0
43.655	6.0
43.67	8.0
43.685	7.0
43.7	3.0
43.715	6.0
43.73	7.0
43.745	6.0
43.76	8.0
43.775	6.0
43.79	4.0
43.805	6.0
43.82	4.0
43.835	9.0
43.85	8.0
43.865	6.0
43.88	9.0
43.895	8.0
43.91	10.0
43.925	4.0
43.94	16.0
43.955	3.0
43.97	3.0
43.985	5.0
44.0	8.0
44.015	10.0
44.03	6.0
44.045	6.0
44.061	5.0
44.076	4.0
44.091	4.0
44.106	4.0
44.121	6.0
44.136	6.0
44.151	4.0
44.166	11.0
44.181	3.0
44.196	6.0
44.211	3.0
44.226	8.0
44.241	2.0
44.256	1.0
44.271	5.0
44.286	6.0
44.301	3.0
44.316	8.0
44.331	2.0
44.346	3.0
44.361	5.0
44.377	5.0
44.392	5.0
44.407	5.0
44.422	0.0
44.437	3.0
44.452	4.0
44.467	7.0
44.482	5.0
44.497	5.0
44.512	6.0
44.527	3.0
44.542	5.0
44.557	6.0
44.572	9.0
44.587	2.0
44.602	11.0
44.617	3.0
44.632	7.0
44.647	5.0
44.663	8.0
44.678	8.0
44.693	5.0
44.708	1.0
44.723	6.0
44.738	16.0
44.753	9.0
44.768	10.0
44.783	8.0
44.798	11.0
44.813	7.0
44.828	10.0
44.843	10.0
44.858	14.0
44.873	11.0
44.888	10.0
44.903	5.0
44.918	5.0
44.933	8.0
44.948	5.0
44.964	7.0
44.979	7.0
44.994	6.0
45.009	5.0
45.024	7.0
45.039	5.0
45.054	5.0
45.069	11.0
45.084	8.0
45.099	10.0
45.114	11.0
45.129	7.0
45.144	9.0
45.159	8.0
45.174	5.0
45.189	9.0
45.204	5.0
45.219	4.0
45.234	3.0
45.249	3.0
45.264	3.0
45.279	5.0
45.294	6.0
45.309	7.0
45.324	5.0
45.339	2.0
45.354	2.0
45.369	8.0
45.384	8.0
45.399	2.0
45.414	6.0
45.429	4.0
45.444	6.0
45.459	5.0
45.474	8.0
45.489	5.0
45.504	8.0
45.519	3.0
45.534	5.0
45.549	6.0
45.564	3.0
45.579	6.0
45.594	6.0
45.609	5.0
45.624	6.0
45.639	4.0
45.654	7.0
45.669	1.0
45.684	3.0
45.699	2.0
45.714	9.0
45.729	5.0
45.744	8.0
45.759	6.0
45.774	5.0
45.789	8.0
45.804	7.0
45.819	5.0
45.834	3.0
45.849	5.0
45.864	11.0
45.879	14.0
45.894	11.0
45.909	10.0
45.924	20.0
45.939	18.0
45.954	21.0
45.969	14.0
45.984	13.0
45.998	15.0
46.013	17.0
46.028	6.0
46.043	15.0
46.058	18.0
46.073	11.0
46.088	6.0
46.103	9.0
46.118	12.0
46.133	9.0
46.148	12.0
46.163	9.0
46.178	6.0
46.192	9.0
46.207	7.0
46.222	8.0
46.237	13.0
46.252	16.0
46.267	10.0
46.282	8.0
46.297	13.0
46.312	11.0
46.327	5.0
46.341	8.0
46.356	12.0
46.371	4.0
46.386	8.0
46.401	11.0
46.416	6.0
46.431	7.0
46.446	3.0
46.46	3.0
46.475	4.0
46.49	4.0
46.505	9.0
46.52	8.0
46.535	6.0
46.55	7.0
46.564	7.0
46.579	4.0
46.594	3.0
46.609	3.0
46.624	0.0
46.639	6.0
46.654	7.0
46.668	1.0
46.683	6.0
46.698	3.0
46.713	4.0
46.728	6.0
46.743	5.0
46.758	3.0
46.772	3.0
46.787	3.0
46.802	8.0
46.817	10.0
46.832	4.0
46.847	1.0
46.861	3.0
46.876	5.0
46.891	7.0
46.906	7.0
46.921	4.0
46.936	10.0
46.95	5.0
46.965	7.0
46.98	5.0
46.995	8.0
47.01	6.0
47.025	5.0
47.039	8.0
47.054	3.0
47.069	6.0
47.084	9.0
47.099	9.0
47.113	7.0
47.128	15.0
47.143	5.0
47.158	7.0
47.173	8.0
47.188	7.0
47.202	8.0
47.217	10.0
47.232	7.0
47.247	9.0
47.262	11.0
47.277	3.0
47.291	7.0
47.306	8.0
47.321	2.0
47.336	8.0
47.351	6.0
47.365	7.0
47.38	8.0
47.395	14.0
47.41	9.0
47.425	8.0
47.44	12.0
47.454	11.0
47.469	7.0
47.484	10.0
47.499	8.0
47.514	9.0
47.528	10.0
47.543	5.0
47.558	2.0
47.573	2.0
47.588	9.0
47.603	5.0
47.617	3.0
47.632	6.0
47.647	4.0
47.662	2.0
47.677	8.0
47.691	3.0
47.706	10.0
47.721	8.0
47.736	4.0
47.751	5.0
47.766	4.0
47.78	6.0
47.795	9.0
47.81	6.0
47.825	6.0
47.84	1.0
47.855	3.0
47.869	3.0
47.884	8.0
47.899	2.0
47.914	5.0
47.929	3.0
47.944	1.0
47.958	5.0
47.973	2.0
47.988	4.0
48.003	5.0
48.018	8.0
48.033	2.0
48.047	4.0
48.062	2.0
48.077	5.0
48.092	7.0
48.107	6.0
48.122	6.0
48.137	3.0
48.151	4.0
48.166	7.0
48.181	3.0
48.196	3.0
48.211	6.0
48.226	6.0
48.241	4.0
48.255	6.0
48.27	2.0
48.285	4.0
48.3	4.0
48.315	3.0
48.33	4.0
48.345	5.0
48.359	7.0
48.374	4.0
48.389	3.0
48.404	4.0
48.419	5.0
48.434	6.0
48.449	5.0
48.464	5.0
48.478	9.0
48.493	4.0
48.508	6.0
48.523	6.0
48.538	1.0
48.553	2.0
48.568	3.0
48.583	8.0
48.597	5.0
48.612	3.0
48.627	8.0
48.642	4.0
48.657	11.0
48.672	5.0
48.687	4.0
48.702	4.0
48.717	2.0
48.731	6.0
48.746	1.0
48.761	5.0
48.776	7.0
48.791	7.0
48.806	7.0
48.821	4.0
48.836	2.0
48.851	9.0
48.866	7.0
48.88	5.0
48.895	8.0
48.91	5.0
48.925	4.0
48.94	8.0
48.955	6.0
48.97	5.0
48.985	8.0
49.0	5.0
49.015	4.0
49.03	5.0
49.044	6.0
49.059	7.0
49.074	4.0
49.089	4.0
49.104	5.0
49.119	2.0
49.134	2.0
49.149	5.0
49.164	6.0
49.179	6.0
49.194	6.0
49.209	4.0
49.224	7.0
49.238	3.0
49.253	1.0
49.268	6.0
49.283	5.0
49.298	5.0
49.313	7.0
49.328	5.0
49.343	8.0
49.358	10.0
49.373	12.0
49.388	8.0
49.403	6.0
49.418	7.0
49.433	4.0
49.448	6.0
49.463	9.0
49.478	11.0
49.492	8.0
49.507	8.0
49.522	7.0
49.537	3.0
49.552	5.0
49.567	2.0
49.582	4.0
49.597	6.0
49.612	7.0
49.627	2.0
49.642	4.0
49.657	6.0
49.672	8.0
49.687	3.0
49.702	5.0
49.717	6.0
49.732	3.0
49.747	5.0
49.762	6.0
49.777	6.0
49.792	1.0
49.807	3.0
49.822	5.0
49.837	6.0
49.852	4.0
49.867	5.0
49.882	3.0
49.897	3.0
49.912	2.0
49.927	4.0
49.942	5.0
49.957	8.0
49.971	6.0
49.986	3.0
50.001	3.0
50.016	4.0
50.031	4.0
50.046	3.0
50.061	5.0
50.076	9.0
50.091	2.0
50.106	3.0
50.121	4.0
50.136	5.0
50.151	6.0
50.166	3.0
50.181	6.0
50.196	4.0
50.211	4.0
50.226	5.0
50.241	7.0
50.256	6.0
50.271	10.0
50.286	6.0
50.302	4.0
50.317	3.0
50.332	4.0
50.347	5.0
50.362	3.0
50.377	10.0
50.392	8.0
50.407	5.0
50.422	8.0
50.437	14.0
50.452	8.0
50.467	9.0
50.482	7.0
50.497	4.0
50.512	7.0
50.527	7.0
50.542	6.0
50.557	2.0
50.572	2.0
50.587	7.0
50.602	4.0
50.617	7.0
50.632	5.0
50.647	1.0
50.662	3.0
50.677	9.0
50.692	4.0
50.707	4.0
50.722	3.0
50.737	11.0
50.752	4.0
50.767	8.0
50.782	3.0
50.797	4.0
50.812	12.0
50.828	9.0
50.843	2.0
50.858	6.0
50.873	8.0
50.888	5.0
50.903	6.0
50.918	2.0
50.933	8.0
50.948	6.0
50.963	3.0
50.978	6.0
50.993	6.0
51.008	7.0
51.023	7.0
51.038	2.0
51.053	5.0
51.068	4.0
51.083	5.0
51.098	7.0
51.114	8.0
51.129	6.0
51.144	2.0
51.159	4.0
51.174	2.0
51.189	11.0
51.204	7.0
51.219	7.0
51.234	4.0
51.249	4.0
51.264	6.0
51.279	6.0
51.294	8.0
51.309	3.0
51.324	8.0
51.34	7.0
51.355	6.0
51.37	7.0
51.385	2.0
51.4	11.0
51.415	15.0
51.43	19.0
51.445	11.0
51.46	15.0
51.475	11.0
51.49	17.0
51.505	16.0
51.52	17.0
51.535	17.0
51.551	13.0
51.566	11.0
51.581	10.0
51.596	12.0
51.611	10.0
51.626	13.0
51.641	9.0
51.656	7.0
51.671	8.0
51.686	10.0
51.701	8.0
51.716	5.0
51.732	8.0
51.747	3.0
51.762	9.0
51.777	6.0
51.792	9.0
51.807	10.0
51.822	11.0
51.837	11.0
51.852	15.0
51.867	11.0
51.882	12.0
51.898	11.0
51.913	11.0
51.928	10.0
51.943	7.0
51.958	7.0
51.973	4.0
51.988	1.0
52.003	6.0
52.018	6.0
52.033	3.0
52.048	3.0
52.064	4.0
52.079	6.0
52.094	7.0
52.109	6.0
52.124	4.0
52.139	9.0
52.154	7.0
52.169	4.0
52.184	3.0
52.199	3.0
52.215	2.0
52.23	6.0
52.245	4.0
52.26	3.0
52.275	4.0
52.29	1.0
52.305	7.0
52.32	9.0
52.335	4.0
52.35	5.0
52.366	6.0
52.381	3.0
52.396	3.0
52.411	5.0
52.426	8.0
52.441	2.0
52.456	6.0
52.471	7.0
52.486	8.0
52.502	3.0
52.517	6.0
52.532	9.0
52.547	12.0
52.562	9.0
52.577	12.0
52.592	16.0
52.607	12.0
52.622	9.0
52.637	4.0
52.653	9.0
52.668	7.0
52.683	7.0
52.698	6.0
52.713	2.0
52.728	7.0
52.743	7.0
52.758	10.0
52.774	4.0
52.789	8.0
52.804	4.0
52.819	6.0
52.834	6.0
52.849	7.0
52.864	9.0
52.879	8.0
52.894	4.0
52.91	3.0
52.925	9.0
52.94	7.0
52.955	11.0
52.97	3.0
52.985	5.0
53.0	7.0
53.015	7.0
53.031	4.0
53.046	5.0
53.061	5.0
53.076	7.0
53.091	3.0
53.106	3.0
53.121	3.0
53.136	5.0
53.152	6.0
53.167	5.0
53.182	3.0
53.197	5.0
53.212	3.0
53.227	3.0
53.242	5.0
53.257	4.0
53.273	4.0
53.288	7.0
53.303	5.0
53.318	3.0
53.333	3.0
53.348	7.0
53.363	3.0
53.379	4.0
53.394	4.0
53.409	7.0
53.424	6.0
53.439	1.0
53.454	1.0
53.469	3.0
53.484	6.0
53.5	1.0
53.515	7.0
53.53	3.0
53.545	4.0
53.56	2.0
53.575	3.0
53.59	2.0
53.606	5.0
53.621	8.0
53.636	2.0
53.651	4.0
53.666	7.0
53.681	4.0
53.696	8.0
53.712	2.0
53.727	5.0
53.742	3.0
53.757	3.0
53.772	7.0
53.787	10.0
53.802	4.0
53.818	9.0
53.833	2.0
53.848	2.0
53.863	8.0
53.878	7.0
53.893	3.0
53.909	3.0
53.924	6.0
53.939	8.0
53.954	5.0
53.969	7.0
53.984	8.0
53.999	5.0
54.015	2.0
54.03	4.0
54.045	7.0
54.06	5.0
54.075	9.0
54.09	8.0
54.106	2.0
54.121	2.0
54.136	7.0
54.151	4.0
54.166	3.0
54.181	3.0
54.197	7.0
54.212	6.0
54.227	1.0
54.242	6.0
54.257	4.0
54.272	3.0
54.288	4.0
54.303	7.0
54.318	6.0
54.333	7.0
54.348	5.0
54.363	4.0
54.379	6.0
54.394	6.0
54.409	6.0
54.424	3.0
54.439	5.0
54.454	7.0
54.47	4.0
54.485	6.0
54.5	5.0
54.515	10.0
54.53	7.0
54.545	10.0
54.561	6.0
54.576	7.0
54.591	12.0
54.606	15.0
54.621	6.0
54.636	8.0
54.652	13.0
54.667	10.0
54.682	11.0
54.697	13.0
54.712	10.0
54.727	9.0
54.743	12.0
54.758	6.0
54.773	7.0
54.788	8.0
54.803	8.0
54.819	3.0
54.834	2.0
54.849	3.0
54.864	6.0
54.879	11.0
54.894	6.0
54.91	9.0
54.925	3.0
54.94	7.0
54.955	7.0
54.97	11.0
54.985	14.0
55.001	10.0
55.016	5.0
55.031	6.0
55.046	8.0
55.061	9.0
55.077	10.0
55.092	10.0
55.107	3.0
55.122	4.0
55.137	4.0
55.152	8.0
55.168	4.0
55.183	7.0
55.198	3.0
55.213	2.0
55.228	5.0
55.243	3.0
55.259	10.0
55.274	9.0
55.289	5.0
55.304	6.0
55.319	6.0
55.335	3.0
55.35	10.0
55.365	3.0
55.38	4.0
55.395	6.0
55.41	7.0
55.426	4.0
55.441	2.0
55.456	6.0
55.471	6.0
55.486	6.0
55.501	5.0
55.517	1.0
55.532	4.0
55.547	5.0
55.562	4.0
55.577	1.0
55.592	4.0
55.608	7.0
55.623	11.0
55.638	11.0
55.653	3.0
55.668	5.0
55.683	10.0
55.699	7.0
55.714	4.0
55.729	4.0
55.744	6.0
55.759	2.0
55.774	5.0
55.79	3.0
55.805	3.0
55.82	2.0
55.835	4.0
55.85	10.0
55.865	4.0
55.881	4.0
55.896	5.0
55.911	4.0
55.926	4.0
55.941	6.0
55.956	9.0
55.972	3.0
55.987	8.0
56.002	8.0
56.017	6.0
56.032	7.0
56.047	7.0
56.063	10.0
56.078	10.0
56.093	10.0
56.108	3.0
56.123	5.0
56.138	3.0
56.154	4.0
56.169	2.0
56.184	4.0
56.199	1.0
56.214	4.0
56.229	4.0
56.244	4.0
56.26	2.0
56.275	6.0
56.29	7.0
56.305	6.0
56.32	9.0
56.335	3.0
56.351	6.0
56.366	5.0
56.381	3.0
56.396	5.0
56.411	4.0
56.426	2.0
56.441	4.0
56.457	9.0
56.472	1.0
56.487	2.0
56.502	5.0
56.517	5.0
56.532	4.0
56.547	4.0
56.563	2.0
56.578	6.0
56.593	3.0
56.608	6.0
56.623	3.0
56.638	2.0
56.653	2.0
56.668	3.0
56.684	4.0
56.699	4.0
56.714	2.0
56.729	2.0
56.744	2.0
56.759	1.0
56.774	4.0
56.79	3.0
56.805	9.0
56.82	0.0
56.835	6.0
56.85	5.0
56.865	4.0
56.88	2.0
56.895	2.0
56.911	8.0
56.926	5.0
56.941	4.0
56.956	5.0
56.971	3.0
56.986	2.0
57.001	0.0
57.016	6.0
57.031	6.0
57.047	2.0
57.062	3.0
57.077	4.0
57.092	4.0
57.107	6.0
57.122	2.0
57.137	5.0
57.152	4.0
57.167	9.0
57.183	2.0
57.198	6.0
57.213	2.0
57.228	7.0
57.243	8.0
57.258	2.0
57.273	4.0
57.288	1.0
57.303	7.0
57.318	6.0
57.334	2.0
57.349	7.0
57.364	3.0
57.379	1.0
57.394	1.0
57.409	6.0
57.424	6.0
57.439	6.0
57.454	5.0
57.469	7.0
57.484	7.0
57.5	8.0
57.515	8.0
57.53	2.0
57.545	3.0
57.56	4.0
57.575	7.0
57.59	4.0
57.605	8.0
57.62	1.0
57.635	1.0
57.65	0.0
57.665	7.0
57.68	5.0
57.696	3.0
57.711	3.0
57.726	5.0
57.741	5.0
57.756	2.0
57.771	3.0
57.786	7.0
57.801	5.0
57.816	5.0
57.831	6.0
57.846	4.0
57.861	5.0
57.876	2.0
57.891	7.0
57.906	6.0
57.921	1.0
57.937	7.0
57.952	10.0
57.967	3.0
57.982	5.0
57.997	3.0
58.012	3.0
58.027	5.0
58.042	4.0
58.057	2.0
58.072	4.0
58.087	3.0
58.102	2.0
58.117	3.0
58.132	4.0
58.147	8.0
58.162	4.0
58.177	6.0
58.192	4.0
58.207	1.0
58.222	5.0
58.237	8.0
58.252	4.0
58.267	2.0
58.282	13.0
58.297	6.0
58.312	4.0
58.327	4.0
58.342	3.0
58.357	8.0
58.372	6.0
58.387	5.0
58.402	6.0
58.418	8.0
58.433	6.0
58.448	8.0
58.463	2.0
58.478	2.0
58.493	4.0
58.508	7.0
58.523	6.0
58.538	6.0
58.553	6.0
58.568	11.0
58.583	9.0
58.598	12.0
58.613	4.0
58.628	12.0
58.643	5.0
58.658	6.0
58.673	9.0
58.688	7.0
58.703	6.0
58.718	5.0
58.733	6.0
58.748	6.0
58.763	8.0
58.778	7.0
58.793	8.0
58.808	4.0
58.823	6.0
58.838	6.0
58.853	5.0
58.868	5.0
58.883	5.0
58.898	8.0
58.913	6.0
58.928	6.0
58.942	6.0
58.957	8.0
58.972	6.0
58.987	11.0
59.002	6.0
59.017	6.0
59.032	8.0
59.047	5.0
59.062	10.0
59.077	11.0
59.092	8.0
59.107	5.0
59.122	5.0
59.137	4.0
59.152	9.0
59.167	5.0
59.182	2.0
59.197	4.0
59.212	3.0
59.227	4.0
59.242	3.0
59.257	4.0
59.272	2.0
59.287	6.0
59.302	5.0
59.317	7.0
59.332	5.0
59.347	4.0
59.362	4.0
59.377	5.0
59.392	4.0
59.407	3.0
59.422	4.0
59.437	4.0
59.452	2.0
59.467	5.0
59.482	5.0
59.497	5.0
59.512	7.0
59.527	7.0
59.542	3.0
59.557	8.0
59.572	6.0
59.587	11.0
59.602	9.0
59.617	9.0
59.632	12.0
59.647	16.0
59.661	9.0
59.676	4.0
59.691	7.0
59.706	4.0
59.721	2.0
59.736	7.0
59.751	3.0
59.766	4.0
59.781	7.0
59.796	1.0
59.811	6.0
59.826	1.0
59.841	5.0
59.856	5.0
59.871	8.0
59.886	4.0
59.901	2.0
59.916	7.0
59.931	4.0
59.946	7.0
59.961	3.0
59.976	4.0
59.991	7.0
60.006	4.0
60.021	8.0
60.036	6.0
60.051	10.0
60.066	6.0
60.081	4.0
60.096	8.0
60.111	3.0
60.126	5.0
60.141	7.0
60.156	5.0
60.171	7.0
60.186	3.0
60.201	7.0
60.216	9.0
60.231	4.0
60.246	2.0
60.261	2.0
60.276	4.0
60.291	6.0
60.306	6.0
60.321	1.0
60.336	5.0
60.35	7.0
60.365	5.0
60.38	9.0
60.395	6.0
60.41	4.0
60.425	1.0
60.44	4.0
60.455	2.0
60.47	9.0
60.485	2.0
60.5	7.0
60.515	6.0
60.53	7.0
60.545	10.0
60.56	11.0
60.575	8.0
60.59	10.0
60.605	9.0
60.62	10.0
60.635	11.0
60.65	7.0
60.665	6.0
60.68	5.0
60.695	5.0
60.71	3.0
60.725	1.0
60.74	5.0
60.755	2.0
60.77	6.0
60.785	8.0
60.8	2.0
60.815	2.0
60.83	7.0
60.845	4.0
60.86	6.0
60.875	4.0
60.89	3.0
60.905	2.0
60.92	9.0
60.935	6.0
60.95	5.0
60.965	4.0
60.98	5.0
60.995	7.0
61.01	8.0
61.025	4.0
61.04	2.0
61.055	4.0
61.07	4.0
61.085	5.0
61.1	2.0
61.115	4.0
61.13	3.0
61.145	3.0
61.16	1.0
61.175	5.0
61.191	2.0
61.206	5.0
61.221	11.0
61.236	3.0
61.251	7.0
61.266	1.0
61.281	4.0
61.296	4.0
61.311	6.0
61.326	2.0
61.341	3.0
61.356	3.0
61.371	4.0
61.386	5.0
61.401	5.0
61.416	4.0
61.431	3.0
61.446	6.0
61.461	7.0
61.476	5.0
61.491	9.0
61.506	7.0
61.521	2.0
61.536	3.0
61.551	6.0
61.566	7.0
61.581	6.0
61.596	8.0
61.611	4.0
61.626	6.0
61.641	4.0
61.656	4.0
61.672	6.0
61.687	6.0
61.702	3.0
61.717	5.0
61.732	5.0
61.747	1.0
61.762	1.0
61.777	4.0
61.792	4.0
61.807	7.0
61.822	4.0
61.837	3.0
61.852	4.0
61.867	6.0
61.882	6.0
61.897	4.0
61.912	7.0
61.927	1.0
61.943	2.0
61.958	4.0
61.973	3.0
61.988	6.0
62.003	3.0
62.018	2.0
62.033	6.0
62.048	6.0
62.063	4.0
62.078	3.0
62.093	5.0
62.108	2.0
62.123	2.0
62.138	4.0
62.153	4.0
62.169	1.0
62.184	3.0
62.199	4.0
62.214	2.0
62.229	4.0
62.244	6.0
62.259	1.0
62.274	2.0
62.289	1.0
62.304	4.0
62.319	1.0
62.335	3.0
62.35	6.0
62.365	6.0
62.38	6.0
62.395	4.0
62.41	5.0
62.425	5.0
62.44	3.0
62.455	6.0
62.47	6.0
62.485	7.0
62.501	2.0
62.516	3.0
62.531	9.0
62.546	3.0
62.561	3.0
62.576	1.0
62.591	5.0
62.606	4.0
62.621	1.0
62.636	6.0
62.652	7.0
62.667	7.0
62.682	6.0
62.697	3.0
62.712	5.0
62.727	2.0
62.742	6.0
62.757	4.0
62.772	4.0
62.787	8.0
62.803	3.0
62.818	4.0
62.833	6.0
62.848	5.0
62.863	3.0
62.878	3.0
62.893	3.0
62.908	5.0
62.923	6.0
62.939	4.0
62.954	7.0
62.969	4.0
62.984	3.0
62.999	5.0
63.014	3.0
63.029	5.0
63.044	2.0
63.059	8.0
63.074	2.0
63.09	4.0
63.105	3.0
63.12	5.0
63.135	5.0
63.15	9.0
63.165	5.0
63.18	5.0
63.195	3.0
63.21	1.0
63.226	3.0
63.241	8.0
63.256	6.0
63.271	7.0
63.286	8.0
63.301	3.0
63.316	11.0
63.331	9.0
63.346	4.0
63.362	5.0
63.377	6.0
63.392	8.0
63.407	7.0
63.422	6.0
63.437	6.0
63.452	10.0
63.467	4.0
63.482	10.0
63.497	8.0
63.513	6.0
63.528	9.0
63.543	6.0
63.558	3.0
63.573	5.0
63.588	7.0
63.603	6.0
63.618	5.0
63.633	6.0
63.648	1.0
63.664	3.0
63.679	2.0
63.694	4.0
63.709	4.0
63.724	2.0
63.739	3.0
63.754	7.0
63.769	5.0
63.784	4.0
63.799	8.0
63.814	7.0
63.83	11.0
63.845	4.0
63.86	6.0
63.875	8.0
63.89	6.0
63.905	4.0
63.92	2.0
63.935	3.0
63.95	3.0
63.965	4.0
63.98	7.0
63.996	3.0
64.011	1.0
64.026	4.0
64.041	3.0
64.056	2.0
64.071	2.0
64.086	5.0
64.101	1.0
64.116	4.0
64.131	7.0
64.146	3.0
64.161	2.0
64.176	9.0
64.191	4.0
64.207	2.0
64.222	5.0
64.237	4.0
64.252	2.0
64.267	0.0
64.282	3.0
64.297	5.0
64.312	5.0
64.327	1.0
64.342	3.0
64.357	6.0
64.372	0.0
64.387	6.0
64.402	7.0
64.417	1.0
64.433	5.0
64.448	4.0
64.463	5.0
64.478	5.0
64.493	5.0
64.508	4.0
64.523	1.0
64.538	6.0
64.553	1.0
64.568	1.0
64.583	7.0
64.598	2.0
64.613	1.0
64.628	6.0
64.643	2.0
64.658	3.0
64.673	3.0
64.688	3.0
64.703	4.0
64.718	9.0
64.734	5.0
64.749	3.0
64.764	2.0
64.779	4.0
64.794	3.0
64.809	6.0
64.824	6.0
64.839	4.0
64.854	6.0
64.869	3.0
64.884	1.0
64.899	5.0
64.914	0.0
64.929	5.0
64.944	8.0
64.959	3.0
64.974	3.0
64.989	9.0
65.004	4.0
65.019	5.0
65.034	2.0
65.049	6.0
65.064	2.0
65.079	2.0
65.094	4.0
65.109	2.0
65.125	6.0
65.14	6.0
65.155	3.0
65.17	5.0
65.185	2.0
65.2	3.0
65.215	3.0
65.23	4.0
65.245	4.0
65.26	4.0
65.275	5.0
65.29	6.0
65.305	2.0
65.32	5.0
65.335	4.0
65.35	6.0
65.365	2.0
65.38	5.0
65.395	5.0
65.41	3.0
65.425	6.0
65.44	5.0
65.455	3.0
65.47	2.0
65.485	3.0
65.5	3.0
65.515	2.0
65.53	4.0
65.545	2.0
65.56	2.0
65.575	7.0
65.59	4.0
65.605	2.0
65.62	5.0
65.635	3.0
65.65	6.0
65.666	3.0
65.681	7.0
65.696	5.0
65.711	8.0
65.726	9.0
65.741	3.0
65.756	5.0
65.771	2.0
65.786	5.0
65.801	3.0
65.816	3.0
65.831	6.0
65.846	6.0
65.861	3.0
65.876	5.0
65.891	4.0
65.906	4.0
65.921	2.0
65.936	2.0
65.951	2.0
65.966	3.0
65.981	3.0
65.996	1.0
66.011	6.0
66.026	5.0
66.041	3.0
66.056	3.0
66.071	3.0
66.086	5.0
66.101	7.0
66.116	10.0
66.131	4.0
66.146	9.0
66.161	3.0
66.176	8.0
66.191	8.0
66.206	8.0
66.221	6.0
66.236	4.0
66.251	5.0
66.266	7.0
66.281	6.0
66.296	4.0
66.311	3.0
66.327	3.0
66.342	3.0
66.357	4.0
66.372	9.0
66.387	2.0
66.402	2.0
66.417	6.0
66.432	2.0
66.447	3.0
66.462	5.0
66.477	1.0
66.492	2.0
66.507	1.0
66.522	5.0
66.537	10.0
66.552	5.0
66.567	5.0
66.582	2.0
66.597	7.0
66.612	6.0
66.627	6.0
66.642	6.0
66.657	5.0
66.672	10.0
66.687	5.0
66.702	5.0
66.717	9.0
66.732	3.0
66.747	6.0
66.762	2.0
66.777	3.0
66.792	3.0
66.807	0.0
66.822	4.0
66.837	6.0
66.853	3.0
66.868	1.0
66.883	3.0
66.898	3.0
66.913	3.0
66.928	1.0
66.943	5.0
66.958	5.0
66.973	6.0
66.988	6.0
67.003	2.0
67.018	0.0
67.033	8.0
67.048	7.0
67.063	7.0
67.078	5.0
67.093	9.0
67.108	7.0
67.123	7.0
67.138	4.0
67.153	4.0
67.168	6.0
67.183	3.0
67.198	1.0
67.214	5.0
67.229	1.0
67.244	2.0
67.259	5.0
67.274	5.0
67.289	2.0
67.304	6.0
67.319	2.0
67.334	2.0
67.349	6.0
67.364	5.0
67.379	5.0
67.394	1.0
67.409	2.0
67.424	7.0
67.439	1.0
67.454	4.0
67.469	9.0
67.484	3.0
67.5	3.0
67.515	1.0
67.53	3.0
67.545	4.0
67.56	2.0
67.575	3.0
67.59	6.0
67.605	4.0
67.62	4.0
67.635	1.0
67.65	10.0
67.665	7.0
67.68	6.0
67.695	4.0
67.71	5.0
67.726	2.0
67.741	6.0
67.756	3.0
67.771	2.0
67.786	1.0
67.801	1.0
67.816	1.0
67.831	7.0
67.846	3.0
67.861	5.0
67.876	5.0
67.891	6.0
67.906	5.0
67.922	2.0
67.937	6.0
67.952	4.0
67.967	4.0
67.982	1.0
67.997	5.0
68.012	3.0
68.027	3.0
68.042	3.0
68.057	6.0
68.072	3.0
68.087	3.0
68.103	3.0
68.118	4.0
68.133	7.0
68.148	3.0
68.163	2.0
68.178	3.0
68.193	6.0
68.208	5.0
68.223	2.0
68.238	2.0
68.254	3.0
68.269	3.0
68.284	3.0
68.299	3.0
68.314	3.0
68.329	4.0
68.344	2.0
68.359	4.0
68.374	4.0
68.389	4.0
68.405	4.0
68.42	4.0
68.435	2.0
68.45	5.0
68.465	6.0
68.48	4.0
68.495	3.0
68.51	2.0
68.525	6.0
68.54	3.0
68.556	4.0
68.571	6.0
68.586	2.0
68.601	0.0
68.616	3.0
68.631	4.0
68.646	1.0
68.661	10.0
68.676	3.0
68.691	6.0
68.707	5.0
68.722	3.0
68.737	6.0
68.752	3.0
68.767	2.0
68.782	3.0
68.797	3.0
68.812	2.0
68.827	1.0
68.842	2.0
68.857	3.0
68.873	2.0
68.888	5.0
68.903	5.0
68.918	6.0
68.933	2.0
68.948	3.0
68.963	4.0
68.978	4.0
68.993	3.0
69.008	6.0
69.023	2.0
69.038	1.0
69.054	3.0
69.069	4.0
69.084	9.0
69.099	5.0
69.114	3.0
69.129	5.0
69.144	3.0
69.159	4.0
69.174	6.0
69.189	5.0
69.204	4.0
69.219	4.0
69.234	5.0
69.249	3.0
69.264	2.0
69.279	4.0
69.295	5.0
69.31	5.0
69.325	5.0
69.34	4.0
69.355	6.0
69.37	4.0
69.385	3.0
69.4	4.0
69.415	4.0
69.43	1.0
69.445	1.0
69.46	6.0
69.475	2.0
69.49	5.0
69.505	4.0
69.52	2.0
69.535	2.0
69.55	8.0
69.565	4.0
69.58	4.0
69.595	7.0
69.61	3.0
69.625	6.0
69.64	2.0
69.655	12.0
69.67	5.0
69.685	3.0
69.7	6.0
69.715	6.0
69.73	2.0
69.745	4.0
69.76	6.0
69.775	9.0
69.79	4.0
69.805	5.0
69.82	11.0
69.835	5.0
69.85	5.0
69.865	3.0
69.88	3.0
69.895	8.0
69.909	5.0
69.924	5.0
69.939	7.0
69.954	2.0
69.969	3.0
69.984	2.0
69.999	6.0
70.014	4.0
70.029	5.0
70.044	5.0
70.059	6.0
70.074	2.0
70.088	4.0
70.103	3.0
70.118	4.0
70.133	5.0
70.148	7.0
70.163	7.0
70.178	4.0
70.193	2.0
70.208	5.0
70.222	5.0
70.237	6.0
70.252	4.0
70.267	2.0
70.282	4.0
70.297	6.0
70.312	5.0
70.327	8.0
70.341	7.0
70.356	3.0
70.371	1.0
70.386	4.0
70.401	3.0
70.416	2.0
70.43	3.0
70.445	5.0
70.46	3.0
70.475	3.0
70.49	3.0
70.505	2.0
70.519	4.0
70.534	2.0
70.549	5.0
70.564	1.0
70.579	3.0
70.594	0.0
70.608	7.0
70.623	1.0
70.638	6.0
70.653	4.0
70.668	9.0
70.683	8.0
70.697	5.0
70.712	4.0
70.727	8.0
70.742	3.0
70.757	1.0
70.771	7.0
70.786	2.0
70.801	3.0
70.816	5.0
70.831	3.0
70.845	2.0
70.86	6.0
70.875	1.0
70.89	2.0
70.905	4.0
70.92	3.0
70.934	2.0
70.949	5.0
70.964	3.0
70.979	4.0
70.994	2.0
71.008	5.0
71.023	4.0
71.038	2.0
71.053	3.0
71.068	6.0
71.082	2.0
71.097	8.0
71.112	5.0
71.127	3.0
71.142	6.0
71.156	8.0
71.171	3.0
71.186	4.0
71.201	4.0
71.216	1.0
71.231	5.0
71.245	4.0
71.26	2.0
71.275	6.0
71.29	2.0
71.305	4.0
71.319	4.0
71.334	2.0
71.349	3.0
71.364	1.0
71.379	4.0
71.394	5.0
71.408	2.0
71.423	4.0
71.438	2.0
71.453	5.0
71.468	3.0
71.483	2.0
71.497	4.0
71.512	6.0
71.527	3.0
71.542	2.0
71.557	3.0
71.572	6.0
71.586	4.0
71.601	6.0
71.616	3.0
71.631	1.0
71.646	1.0
71.661	1.0
71.676	2.0
71.69	1.0
71.705	0.0
71.72	4.0
71.735	5.0
71.75	3.0
71.765	3.0
71.78	6.0
71.795	2.0
71.81	0.0
71.824	6.0
71.839	3.0
71.854	3.0
71.869	3.0
71.884	4.0
71.899	4.0
71.914	2.0
71.929	1.0
71.944	4.0
71.959	2.0
71.974	4.0
71.988	4.0
72.003	3.0
72.018	2.0
72.033	4.0
72.048	3.0
72.063	2.0
72.078	2.0
72.093	4.0
72.108	6.0
72.123	7.0
72.138	1.0
72.153	4.0
72.168	2.0
72.183	4.0
72.198	2.0
72.213	3.0
72.228	4.0
72.243	3.0
72.258	3.0
72.273	3.0
72.288	1.0
72.303	5.0
72.318	1.0
72.333	3.0
72.348	3.0
72.363	3.0
72.378	2.0
72.393	5.0
72.408	4.0
72.423	5.0
72.438	5.0
72.453	3.0
72.468	2.0
72.483	5.0
72.498	5.0
72.513	3.0
72.528	2.0
72.543	1.0
72.558	8.0
72.573	3.0
72.588	3.0
72.603	0.0
72.618	5.0
72.633	3.0
72.649	6.0
72.664	4.0
72.679	3.0
72.694	6.0
72.709	6.0
72.724	4.0
72.739	2.0
72.754	3.0
72.769	3.0
72.784	3.0
72.799	4.0
72.814	0.0
72.829	2.0
72.845	3.0
72.86	1.0
72.875	3.0
72.89	5.0
72.905	3.0
72.92	2.0
72.935	1.0
72.95	2.0
72.965	3.0
72.98	7.0
72.996	5.0
73.011	2.0
73.026	2.0
73.041	5.0
73.056	3.0
73.071	5.0
73.086	0.0
73.101	5.0
73.117	3.0
73.132	3.0
73.147	1.0
73.162	2.0
73.177	3.0
73.192	7.0
73.207	4.0
73.222	5.0
73.238	2.0
73.253	7.0
73.268	4.0
73.283	5.0
73.298	2.0
73.313	2.0
73.328	6.0
73.343	4.0
73.359	4.0
73.374	4.0
73.389	4.0
73.404	4.0
73.419	5.0
73.434	1.0
73.449	2.0
73.465	3.0
73.48	7.0
73.495	2.0
73.51	6.0
73.525	4.0
73.54	3.0
73.556	0.0
73.571	6.0
73.586	2.0
73.601	2.0
73.616	4.0
73.631	3.0
73.646	1.0
73.662	2.0
73.677	3.0
73.692	3.0
73.707	5.0
73.722	2.0
73.737	2.0
73.752	2.0
73.768	8.0
73.783	7.0
73.798	5.0
73.813	4.0
73.828	7.0
73.843	3.0
73.859	5.0
73.874	6.0
73.889	3.0
73.904	1.0
73.919	0.0
73.934	2.0
73.949	5.0
73.965	4.0
73.98	2.0
73.995	3.0
74.01	5.0
74.025	1.0
74.04	2.0
74.056	2.0
74.071	6.0
74.086	2.0
74.101	6.0
74.116	6.0
74.131	6.0
74.146	7.0
74.162	7.0
74.177	4.0
74.192	7.0
74.207	8.0
74.222	4.0
74.237	3.0
74.252	4.0
74.268	4.0
74.283	4.0
74.298	5.0
74.313	1.0
74.328	5.0
74.343	3.0
74.358	4.0
74.374	2.0
74.389	2.0
74.404	3.0
74.419	1.0
74.434	6.0
74.449	1.0
74.464	4.0
74.48	2.0
74.495	1.0
74.51	5.0
74.525	5.0
74.54	5.0
74.555	6.0
74.57	5.0
74.586	4.0
74.601	4.0
74.616	4.0
74.631	4.0
74.646	12.0
74.661	4.0
74.676	5.0
74.691	3.0
74.707	8.0
74.722	6.0
74.737	2.0
74.752	4.0
74.767	1.0
74.782	3.0
74.797	4.0
74.813	6.0
74.828	3.0
74.843	4.0
74.858	4.0
74.873	3.0
74.888	11.0
74.903	2.0
74.918	4.0
74.934	3.0
74.949	3.0
74.964	2.0
74.979	3.0
74.994	6.0
75.009	8.0
75.024	7.0
75.04	3.0
75.055	4.0
75.07	4.0
75.085	0.0
75.1	5.0
75.115	3.0
75.13	5.0
75.145	1.0
75.161	9.0
75.176	4.0
75.191	2.0
75.206	5.0
75.221	2.0
75.236	2.0
75.251	2.0
75.266	2.0
75.282	0.0
75.297	2.0
75.312	2.0
75.327	3.0
75.342	0.0
75.357	1.0
75.372	2.0
75.387	1.0
75.403	3.0
75.418	4.0
75.433	2.0
75.448	6.0
75.463	5.0
75.478	5.0
75.493	5.0
75.509	2.0
75.524	2.0
75.539	3.0
75.554	2.0
75.569	2.0
75.584	7.0
75.599	2.0
75.614	3.0
75.63	6.0
75.645	4.0
75.66	4.0
75.675	2.0
75.69	2.0
75.705	5.0
75.72	1.0
75.735	3.0
75.751	5.0
75.766	8.0
75.781	4.0
75.796	6.0
75.811	3.0
75.826	2.0
75.841	8.0
75.856	3.0
75.872	4.0
75.887	3.0
75.902	3.0
75.917	7.0
75.932	5.0
75.947	3.0
75.962	4.0
75.977	3.0
75.993	3.0
76.008	4.0
76.023	1.0
76.038	2.0
76.053	4.0
76.068	4.0
76.083	4.0
76.098	4.0
76.114	3.0
76.129	3.0
76.144	2.0
76.159	4.0
76.174	2.0
76.189	5.0
76.204	3.0
76.22	3.0
76.235	1.0
76.25	4.0
76.265	3.0
76.28	2.0
76.295	2.0
76.31	4.0
76.325	1.0
76.341	4.0
76.356	6.0
76.371	5.0
76.386	2.0
76.401	3.0
76.416	3.0
76.431	4.0
76.446	6.0
76.462	4.0
76.477	1.0
76.492	2.0
76.507	4.0
76.522	2.0
76.537	1.0
76.552	5.0
76.567	7.0
76.583	2.0
76.598	5.0
76.613	1.0
76.628	6.0
76.643	4.0
76.658	5.0
76.673	4.0
76.688	5.0
76.704	5.0
76.719	2.0
76.734	4.0
76.749	4.0
76.764	4.0
76.779	3.0
76.794	5.0
76.809	4.0
76.824	1.0
76.84	4.0
76.855	5.0
76.87	2.0
76.885	2.0
76.9	4.0
76.915	6.0
76.93	4.0
76.945	4.0
76.96	7.0
76.976	0.0
76.991	2.0
77.006	4.0
77.021	2.0
77.036	7.0
77.051	3.0
77.066	1.0
77.081	4.0
77.096	0.0
77.112	5.0
77.127	1.0
77.142	3.0
77.157	2.0
77.172	7.0
77.187	2.0
77.202	7.0
77.217	4.0
77.232	5.0
77.247	7.0
77.263	4.0
77.278	0.0
77.293	1.0
77.308	2.0
77.323	6.0
77.338	5.0
77.353	2.0
77.368	5.0
77.383	3.0
77.398	1.0
77.413	5.0
77.428	4.0
77.444	3.0
77.459	5.0
77.474	6.0
77.489	2.0
77.504	7.0
77.519	5.0
77.534	2.0
77.549	3.0
77.564	3.0
77.579	3.0
77.594	9.0
77.609	3.0
77.624	3.0
77.64	4.0
77.655	1.0
77.67	11.0
77.685	6.0
77.7	2.0
77.715	7.0
77.73	3.0
77.745	2.0
77.76	6.0
77.775	2.0
77.79	4.0
77.805	1.0
77.82	3.0
77.835	6.0
77.85	4.0
77.865	1.0
77.88	2.0
77.895	6.0
77.91	4.0
77.926	3.0
77.941	4.0
77.956	2.0
77.971	5.0
77.986	1.0
78.001	1.0
78.016	3.0
78.031	6.0
78.046	5.0
78.061	5.0
78.076	4.0
78.091	1.0
78.106	2.0
78.121	4.0
78.136	2.0
78.151	8.0
78.166	3.0
78.181	4.0
78.196	5.0
78.211	3.0
78.226	3.0
78.241	1.0
78.256	4.0
78.271	5.0
78.286	4.0
78.301	9.0
78.316	5.0
78.331	3.0
78.346	3.0
78.361	2.0
78.376	3.0
78.391	5.0
78.406	3.0
78.421	1.0
78.436	5.0
78.451	4.0
78.466	2.0
78.481	2.0
78.496	3.0
78.511	1.0
78.526	2.0
78.541	3.0
78.556	1.0
78.571	2.0
78.586	0.0
78.601	3.0
78.616	0.0
78.631	1.0
78.646	4.0
78.661	1.0
78.676	2.0
78.691	1.0
78.706	2.0
78.721	5.0
78.736	5.0
78.751	2.0
78.766	1.0
78.781	4.0
78.796	3.0
78.811	4.0
78.826	2.0
78.841	5.0
78.856	3.0
78.871	2.0
78.885	4.0
78.9	1.0
78.915	2.0
78.93	2.0
78.945	3.0
78.96	1.0
78.975	3.0
78.99	1.0
79.005	2.0
79.02	5.0
79.035	7.0
79.05	8.0
79.065	4.0
79.08	7.0
79.095	2.0
79.11	2.0
79.125	4.0
79.14	3.0
79.155	3.0
79.17	2.0
79.185	1.0
79.2	2.0
79.215	0.0
79.23	1.0
79.245	9.0
79.26	2.0
79.275	8.0
79.29	3.0
79.304	2.0
79.319	4.0
79.334	3.0
79.349	3.0
79.364	6.0
79.379	2.0
79.394	1.0
79.409	4.0
79.424	2.0
79.439	3.0
79.454	1.0
79.469	4.0
79.484	2.0
79.499	6.0
79.514	3.0
79.529	2.0
79.544	1.0
79.559	0.0
79.574	4.0
79.589	6.0
79.604	1.0
79.619	6.0
79.634	2.0
79.649	5.0
79.664	2.0
79.679	6.0
79.693	2.0
79.708	5.0
79.723	3.0
79.738	2.0
79.753	0.0
79.768	1.0
79.783	3.0
79.798	3.0
79.813	3.0
79.828	4.0
79.843	2.0
79.858	2.0
79.873	5.0
79.888	3.0
79.903	5.0
79.918	4.0
79.933	1.0
79.948	4.0
79.963	3.0
79.978	3.0
79.993	5.0
80.008	3.0
80.023	4.0
80.038	5.0
80.053	1.0
80.068	1.0
80.083	2.0
80.098	1.0
80.113	2.0
80.128	5.0
80.143	3.0
80.158	6.0
80.173	5.0
80.188	5.0
80.202	9.0
80.217	3.0
80.232	3.0
80.247	2.0
80.262	4.0
80.277	2.0
80.292	3.0
80.307	4.0
80.322	6.0
80.337	3.0
80.352	2.0
80.367	8.0
80.382	5.0
80.397	2.0
80.412	0.0
80.427	4.0
80.442	1.0
80.457	1.0
80.472	2.0
80.487	1.0
80.502	4.0
80.517	2.0
80.532	2.0
80.547	1.0
80.562	2.0
80.577	4.0
80.592	3.0
80.607	4.0
80.622	1.0
80.637	2.0
80.652	2.0
80.667	2.0
80.682	7.0
80.697	3.0
80.712	2.0
80.727	2.0
80.742	1.0
80.757	3.0
80.772	3.0
80.787	4.0
80.802	5.0
80.817	4.0
80.832	5.0
80.847	3.0
80.862	5.0
80.877	3.0
80.892	7.0
80.907	4.0
80.922	3.0
80.937	1.0
80.952	2.0
80.967	2.0
80.982	7.0
80.997	3.0
81.012	1.0
81.027	4.0
81.042	1.0
81.057	5.0
81.072	0.0
81.087	5.0
81.101	2.0
81.116	6.0
81.131	2.0
81.146	2.0
81.161	2.0
81.176	3.0
81.191	4.0
81.206	2.0
81.221	5.0
81.236	2.0
81.251	1.0
81.266	2.0
81.281	10.0
81.296	3.0
81.311	2.0
81.326	2.0
81.341	3.0
81.356	3.0
81.371	1.0
81.386	4.0
81.401	2.0
81.416	3.0
81.431	4.0
81.446	1.0
81.461	2.0
81.476	2.0
81.491	2.0
81.506	4.0
81.521	1.0
81.536	2.0
81.55	4.0
81.565	2.0
81.58	1.0
81.595	2.0
81.61	2.0
81.625	5.0
81.64	1.0
81.655	1.0
81.67	7.0
81.685	4.0
81.7	1.0
81.715	3.0
81.73	5.0
81.745	3.0
81.76	6.0
81.775	3.0
81.79	5.0
81.805	3.0
81.819	2.0
81.834	5.0
81.849	3.0
81.864	5.0
81.879	3.0
81.894	2.0
81.909	3.0
81.924	4.0
81.939	6.0
81.954	10.0
81.969	1.0
81.984	2.0
81.999	2.0
82.013	4.0
82.028	2.0
82.043	0.0
82.058	0.0
82.073	10.0
82.088	1.0
82.103	1.0
82.118	2.0
82.133	2.0
82.148	4.0
82.163	3.0
82.177	2.0
82.192	2.0
82.207	3.0
82.222	1.0
82.237	3.0
82.252	3.0
82.267	3.0
82.282	6.0
82.297	5.0
82.312	2.0
82.326	1.0
82.341	2.0
82.356	3.0
82.371	2.0
82.386	1.0
82.401	1.0
82.416	5.0
82.431	4.0
82.445	3.0
82.46	3.0
82.475	2.0
82.49	3.0
82.505	2.0
82.52	2.0
82.535	3.0
82.55	1.0
82.565	3.0
82.579	3.0
82.594	1.0
82.609	1.0
82.624	3.0
82.639	3.0
82.654	3.0
82.669	1.0
82.684	0.0
82.698	4.0
82.713	1.0
82.728	1.0
82.743	2.0
82.758	5.0
82.773	4.0
82.788	7.0
82.803	1.0
82.817	3.0
82.832	2.0
82.847	3.0
82.862	3.0
82.877	2.0
82.892	4.0
82.907	2.0
82.922	2.0
82.937	3.0
82.951	2.0
82.966	4.0
82.981	5.0
82.996	1.0
83.011	3.0
83.026	1.0
83.041	3.0
83.056	4.0
83.07	3.0
83.085	1.0
83.1	0.0
83.115	5.0
83.13	4.0
83.145	3.0
83.16	2.0
83.175	2.0
83.19	3.0
83.204	1.0
83.219	3.0
83.234	4.0
83.249	0.0
83.264	4.0
83.279	3.0
83.294	2.0
83.309	7.0
83.324	3.0
83.339	2.0
83.353	3.0
83.368	4.0
83.383	3.0
83.398	7.0
83.413	6.0
83.428	1.0
83.443	5.0
83.458	3.0
83.473	3.0
83.488	3.0
83.503	0.0
83.517	0.0
83.532	3.0
83.547	8.0
83.562	4.0
83.577	2.0
83.592	5.0
83.607	5.0
83.622	3.0
83.637	4.0
83.652	4.0
83.667	2.0
83.682	2.0
83.697	4.0
83.712	5.0
83.727	2.0
83.741	2.0
83.756	2.0
83.771	3.0
83.786	2.0
83.801	5.0
83.816	0.0
83.831	1.0
83.846	2.0
83.861	0.0
83.876	8.0
83.891	1.0
83.906	6.0
83.921	2.0
83.936	4.0
83.951	7.0
83.966	2.0
83.981	4.0
83.996	4.0
84.011	5.0
84.026	0.0
84.041	3.0
84.056	4.0
84.071	4.0
84.086	1.0
84.101	5.0
84.116	3.0
84.131	2.0
84.146	2.0
84.161	8.0
84.176	3.0
84.191	2.0
84.206	3.0
84.221	3.0
84.236	4.0
84.251	2.0
84.266	3.0
84.281	1.0
84.296	4.0
84.311	2.0
84.326	3.0
84.341	7.0
84.356	10.0
84.371	4.0
84.386	6.0
84.401	2.0
84.416	3.0
84.431	6.0
84.446	2.0
84.461	5.0
84.476	4.0
84.492	3.0
84.507	3.0
84.522	6.0
84.537	2.0
84.552	2.0
84.567	4.0
84.582	5.0
84.597	3.0
84.612	1.0
84.627	2.0
84.642	2.0
84.657	2.0
84.672	2.0
84.687	6.0
84.702	5.0
84.717	4.0
84.733	4.0
84.748	1.0
84.763	2.0
84.778	2.0
84.793	5.0
84.808	5.0
84.823	5.0
84.838	6.0
84.853	3.0
84.868	2.0
84.883	3.0
84.898	4.0
84.913	2.0
84.929	5.0
84.944	1.0
84.959	6.0
84.974	4.0
84.989	2.0
85.004	4.0
85.019	3.0
85.034	4.0
85.049	1.0
85.064	1.0
85.079	5.0
85.094	9.0
85.11	2.0
85.125	1.0
85.14	5.0
85.155	7.0
85.17	2.0
85.185	3.0
85.2	5.0
85.215	3.0
85.23	0.0
85.245	4.0
85.26	2.0
85.276	1.0
85.291	3.0
85.306	4.0
85.321	6.0
85.336	4.0
85.351	2.0
85.366	6.0
85.381	5.0
85.396	2.0
85.411	8.0
85.426	3.0
85.441	3.0
85.457	8.0
85.472	2.0
85.487	1.0
85.502	1.0
85.517	1.0
85.532	0.0
85.547	1.0
85.562	4.0
85.577	3.0
85.592	3.0
85.607	2.0
85.622	3.0
85.637	5.0
85.653	2.0
85.668	1.0
85.683	1.0
85.698	1.0
85.713	3.0
85.728	0.0
85.743	1.0
85.758	5.0
85.773	5.0
85.788	2.0
85.803	3.0
85.818	5.0
85.833	3.0
85.848	1.0
85.863	1.0
85.879	3.0
85.894	7.0
85.909	2.0
85.924	2.0
85.939	1.0
85.954	1.0
85.969	1.0
85.984	1.0
85.999	4.0
86.014	4.0
86.029	2.0
86.044	5.0
86.059	4.0
86.074	2.0
86.089	5.0
86.104	3.0
86.119	1.0
86.134	5.0
86.149	0.0
86.164	3.0
86.179	2.0
86.194	0.0
86.209	0.0
86.224	3.0
86.239	3.0
86.254	4.0
86.269	2.0
86.284	1.0
86.299	3.0
86.314	4.0
86.33	3.0
86.345	1.0
86.36	6.0
86.375	3.0
86.39	1.0
86.405	3.0
86.42	3.0
86.435	1.0
86.45	3.0
86.465	3.0
86.48	3.0
86.495	2.0
86.51	2.0
86.525	4.0
86.54	3.0
86.555	1.0
86.57	0.0
86.585	3.0
86.6	7.0
86.615	0.0
86.63	2.0
86.645	2.0
86.659	1.0
86.674	4.0
86.689	3.0
86.704	2.0
86.719	3.0
86.734	3.0
86.749	4.0
86.764	1.0
86.779	4.0
86.794	3.0
86.809	3.0
86.824	3.0
86.839	3.0
86.854	6.0
86.869	2.0
86.884	5.0
86.899	5.0
86.914	7.0
86.929	1.0
86.944	5.0
86.959	5.0
86.974	0.0
86.989	7.0
87.004	5.0
87.019	3.0
87.034	3.0
87.049	2.0
87.064	2.0
87.079	3.0
87.094	2.0
87.109	6.0
87.124	2.0
87.139	3.0
87.154	1.0
87.169	1.0
87.184	3.0
87.199	3.0
87.214	5.0
87.229	1.0
87.244	1.0
87.259	2.0
87.274	0.0
87.289	0.0
87.304	1.0
87.319	1.0
87.334	3.0
87.349	3.0
87.364	3.0
87.379	0.0
87.394	2.0
87.409	3.0
87.424	4.0
87.438	1.0
87.453	3.0
87.468	2.0
87.483	3.0
87.498	4.0
87.513	1.0
87.528	4.0
87.543	3.0
87.558	6.0
87.573	2.0
87.588	4.0
87.603	1.0
87.618	2.0
87.633	2.0
87.648	4.0
87.663	6.0
87.678	6.0
87.693	4.0
87.708	5.0
87.723	7.0
87.738	8.0
87.753	4.0
87.768	1.0
87.783	3.0
87.798	4.0
87.813	1.0
87.828	4.0
87.843	3.0
87.858	3.0
87.873	4.0
87.888	2.0
87.903	5.0
87.918	3.0
87.933	1.0
87.948	3.0
87.963	4.0
87.978	4.0
87.993	2.0
88.008	0.0
88.023	2.0
88.038	1.0
88.053	5.0
88.068	2.0
88.083	5.0
88.098	4.0
88.113	2.0
88.128	3.0
88.143	3.0
88.158	3.0
88.174	2.0
88.189	2.0
88.204	3.0
88.219	2.0
88.234	1.0
88.249	1.0
88.264	4.0
88.279	3.0
88.294	2.0
88.309	2.0
88.324	2.0
88.339	4.0
88.354	5.0
88.369	4.0
88.384	6.0
88.399	4.0
88.414	1.0
88.429	1.0
88.444	4.0
88.459	2.0
88.474	6.0
88.489	3.0
88.504	1.0
88.519	2.0
88.534	3.0
88.549	2.0
88.564	4.0
88.58	3.0
88.595	3.0
88.61	5.0
88.625	2.0
88.64	3.0
88.655	6.0
88.67	1.0
88.685	5.0
88.7	1.0
88.715	1.0
88.73	0.0
88.745	0.0
88.76	3.0
88.775	2.0
88.79	1.0
88.805	4.0
88.82	3.0
88.835	1.0
88.85	4.0
88.865	4.0
88.88	2.0
88.895	3.0
88.911	10.0
88.926	1.0
88.941	5.0
88.956	7.0
88.971	5.0
88.986	4.0
89.001	2.0
89.016	2.0
89.031	3.0
89.046	2.0
89.061	1.0
89.076	1.0
89.091	8.0
89.106	4.0
89.121	2.0
89.136	1.0
89.151	0.0
89.166	2.0
89.181	4.0
89.196	0.0
89.211	3.0
89.227	3.0
89.242	3.0
89.257	3.0
89.272	3.0
89.287	2.0
89.302	6.0
89.317	5.0
89.332	2.0
89.347	1.0
89.362	5.0
89.377	2.0
89.392	2.0
89.407	3.0
89.422	6.0
89.437	5.0
89.452	5.0
89.467	3.0
89.482	2.0
89.497	5.0
89.512	3.0
89.527	3.0
89.542	3.0
89.557	3.0
89.572	1.0
89.587	5.0
89.602	6.0
89.617	3.0
89.632	3.0
89.647	2.0
89.662	3.0
89.677	2.0
89.693	2.0
89.708	2.0
89.723	4.0
89.738	3.0
89.753	3.0
89.768	2.0
89.783	1.0
89.798	4.0
89.813	2.0
89.828	1.0
89.843	0.0
89.858	1.0
89.873	1.0
89.888	0.0
89.903	4.0
89.918	6.0
89.933	4.0
89.948	3.0
89.963	4.0
89.978	3.0
89.993	3.0
90.008	6.0
90.023	2.0
90.038	1.0
90.053	2.0
90.068	5.0
90.083	2.0
90.097	2.0
90.112	2.0
90.127	4.0
90.142	3.0
90.157	3.0
90.172	2.0
90.187	3.0
90.202	4.0
90.217	3.0
90.232	3.0
90.247	4.0
90.262	3.0
90.277	1.0
90.292	2.0
90.307	3.0
90.322	3.0
90.337	2.0
90.352	4.0
90.367	7.0
90.382	0.0
90.397	4.0
90.412	4.0
90.427	5.0
90.442	3.0
90.457	3.0
90.472	2.0
90.487	1.0
90.501	1.0
90.516	4.0
90.531	3.0
90.546	4.0
90.561	2.0
90.576	2.0
90.591	2.0
90.606	1.0
90.621	2.0
90.636	3.0
90.651	5.0
90.666	3.0
90.681	3.0
90.696	6.0
90.711	1.0
90.726	0.0
90.741	3.0
90.755	5.0
90.77	3.0
90.785	2.0
90.8	1.0
90.815	6.0
90.83	3.0
90.845	2.0
90.86	2.0
90.875	3.0
90.89	2.0
90.905	5.0
90.92	2.0
90.935	1.0
90.95	7.0
90.965	1.0
90.979	2.0
90.994	3.0
91.009	5.0
91.024	0.0
91.039	5.0
91.054	6.0
91.069	4.0
91.084	6.0
91.099	1.0
91.114	7.0
91.129	2.0
91.144	8.0
91.159	5.0
91.174	3.0
91.188	2.0
91.203	1.0
91.218	6.0
91.233	4.0
91.248	1.0
91.263	5.0
91.278	4.0
91.293	6.0
91.308	4.0
91.323	1.0
91.338	2.0
91.353	3.0
91.368	2.0
91.383	6.0
91.398	4.0
91.412	8.0
91.427	4.0
91.442	4.0
91.457	0.0
91.472	5.0
91.487	1.0
91.502	0.0
91.517	3.0
91.532	4.0
91.547	3.0
91.562	1.0
91.577	3.0
91.592	6.0
91.607	5.0
91.622	2.0
91.637	8.0
91.652	1.0
91.666	7.0
91.681	8.0
91.696	2.0
91.711	3.0
91.726	2.0
91.741	6.0
91.756	2.0
91.771	4.0
91.786	2.0
91.801	6.0
91.816	4.0
91.831	3.0
91.846	6.0
91.861	0.0
91.876	4.0
91.891	3.0
91.906	1.0
91.921	3.0
91.936	4.0
91.951	0.0
91.966	6.0
91.981	4.0
91.995	1.0
92.01	1.0
92.025	6.0
92.04	5.0
92.055	0.0
92.07	0.0
92.085	5.0
92.1	3.0
92.115	1.0
92.13	11.0
92.145	4.0
92.16	2.0
92.175	5.0
92.19	3.0
92.205	3.0
92.22	3.0
92.235	2.0
92.25	1.0
92.265	3.0
92.28	6.0
92.295	2.0
92.31	4.0
92.325	6.0
92.34	2.0
92.355	3.0
92.37	1.0
92.385	4.0
92.4	2.0
92.415	3.0
92.43	2.0
92.445	4.0
92.46	2.0
92.475	3.0
92.49	4.0
92.505	2.0
92.52	6.0
92.535	0.0
92.55	1.0
92.565	3.0
92.58	1.0
92.595	1.0
92.61	4.0
92.625	2.0
92.64	1.0
92.655	3.0
92.67	4.0
92.685	2.0
92.7	6.0
92.715	2.0
92.73	3.0
92.745	4.0
92.76	4.0
92.775	6.0
92.79	6.0
92.805	5.0
92.82	5.0
92.835	2.0
92.85	1.0
92.865	1.0
92.88	5.0
92.895	4.0
92.91	4.0
92.925	1.0
92.94	2.0
92.955	2.0
92.97	5.0
92.985	4.0
93.0	4.0
93.015	3.0
93.03	4.0
93.045	7.0
93.06	2.0
93.075	2.0
93.09	1.0
93.105	3.0
93.12	3.0
93.135	1.0
93.15	2.0
93.165	8.0
93.18	5.0
93.195	1.0
93.21	2.0
93.225	4.0
93.24	6.0
93.255	6.0
93.27	3.0
93.285	4.0
93.3	2.0
93.315	2.0
93.33	2.0
93.345	2.0
93.36	2.0
93.375	5.0
93.39	4.0
93.405	7.0
93.42	5.0
93.435	3.0
93.45	5.0
93.465	5.0
93.48	7.0
93.495	8.0
93.51	2.0
93.525	4.0
93.54	6.0
93.555	5.0
93.57	4.0
93.585	3.0
93.6	5.0
93.615	3.0
93.63	6.0
93.645	6.0
93.66	5.0
93.675	6.0
93.69	3.0
93.705	4.0
93.72	5.0
93.735	0.0
93.75	5.0
93.765	4.0
93.78	5.0
93.795	3.0
93.81	2.0
93.824	2.0
93.839	4.0
93.854	2.0
93.869	3.0
93.884	2.0
93.899	1.0
93.914	0.0
93.929	1.0
93.944	1.0
93.959	1.0
93.974	1.0
93.989	7.0
94.004	3.0
94.019	3.0
94.034	4.0
94.049	3.0
94.064	4.0
94.079	3.0
94.094	2.0
94.108	3.0
94.123	7.0
94.138	2.0
94.153	3.0
94.168	2.0
94.183	5.0
94.198	1.0
94.213	0.0
94.228	6.0
94.243	0.0
94.258	4.0
94.273	3.0
94.288	2.0
94.302	5.0
94.317	4.0
94.332	4.0
94.347	0.0
94.362	7.0
94.377	6.0
94.392	7.0
94.407	1.0
94.422	7.0
94.437	4.0
94.452	8.0
94.466	2.0
94.481	2.0
94.496	2.0
94.511	3.0
94.526	3.0
94.541	5.0
94.556	0.0
94.571	1.0
94.586	4.0
94.601	3.0
94.615	5.0
94.63	3.0
94.645	4.0
94.66	5.0
94.675	5.0
94.69	5.0
94.705	4.0
94.72	6.0
94.735	5.0
94.749	6.0
94.764	0.0
94.779	2.0
94.794	3.0
94.809	2.0
94.824	2.0
94.839	2.0
94.854	4.0
94.868	5.0
94.883	2.0
94.898	1.0
94.913	1.0
94.928	3.0
94.943	1.0
94.958	5.0
94.973	6.0
94.987	4.0
95.002	5.0
95.017	3.0
95.032	4.0
95.047	3.0
95.062	2.0
95.077	3.0
95.092	4.0
95.106	4.0
95.121	0.0
95.136	4.0
95.151	2.0
95.166	3.0
95.181	3.0
95.196	5.0
95.211	2.0
95.226	6.0
95.24	1.0
95.255	6.0
95.27	6.0
95.285	2.0
95.3	2.0
95.315	8.0
95.33	4.0
95.345	3.0
95.359	7.0
95.374	3.0
95.389	2.0
95.404	3.0
95.419	2.0
95.434	6.0
95.449	4.0
95.464	3.0
95.478	3.0
95.493	3.0
95.508	4.0
95.523	2.0
95.538	5.0
95.553	3.0
95.568	3.0
95.583	3.0
95.597	7.0
95.612	5.0
95.627	3.0
95.642	1.0
95.657	6.0
95.672	4.0
95.687	3.0
95.702	0.0
95.717	2.0
95.731	3.0
95.746	3.0
95.761	1.0
95.776	5.0
95.791	7.0
95.806	1.0
95.821	1.0
95.836	2.0
95.851	6.0
95.866	5.0
95.88	3.0
95.895	3.0
95.91	7.0
95.925	7.0
95.94	1.0
95.955	6.0
95.97	4.0
95.985	3.0
96.0	4.0
96.015	4.0
96.029	4.0
96.044	4.0
96.059	8.0
96.074	1.0
96.089	4.0
96.104	2.0
96.119	3.0
96.134	4.0
96.149	6.0
96.164	1.0
96.179	8.0
96.194	5.0
96.208	4.0
96.223	4.0
96.238	5.0
96.253	4.0
96.268	2.0
96.283	6.0
96.298	2.0
96.313	4.0
96.328	0.0
96.343	5.0
96.358	2.0
96.373	1.0
96.388	5.0
96.403	2.0
96.417	6.0
96.432	3.0
96.447	3.0
96.462	4.0
96.477	2.0
96.492	4.0
96.507	2.0
96.522	2.0
96.537	1.0
96.552	2.0
96.567	5.0
96.582	4.0
96.597	3.0
96.612	0.0
96.627	3.0
96.642	2.0
96.656	4.0
96.671	2.0
96.686	2.0
96.701	1.0
96.716	2.0
96.731	3.0
96.746	4.0
96.761	2.0
96.776	6.0
96.791	3.0
96.806	7.0
96.821	2.0
96.836	2.0
96.851	2.0
96.866	1.0
96.881	5.0
96.896	7.0
96.911	5.0
96.926	9.0
96.94	5.0
96.955	3.0
96.97	3.0
96.985	5.0
97.0	5.0
97.015	2.0
97.03	3.0
97.045	3.0
97.06	2.0
97.075	3.0
97.09	2.0
97.105	9.0
97.12	5.0
97.135	3.0
97.15	5.0
97.165	4.0
97.18	6.0
97.195	2.0
97.21	5.0
97.225	3.0
97.239	3.0
97.254	4.0
97.269	3.0
97.284	0.0
97.299	4.0
97.314	6.0
97.329	3.0
97.344	4.0
97.359	3.0
97.374	4.0
97.389	6.0
97.404	4.0
97.419	3.0
97.434	5.0
97.449	1.0
97.464	0.0
97.479	4.0
97.494	1.0
97.509	4.0
97.524	3.0
97.538	2.0
97.553	4.0
97.568	4.0
97.583	2.0
97.598	1.0
97.613	7.0
97.628	2.0
97.643	6.0
97.658	6.0
97.673	3.0
97.688	5.0
97.703	7.0
97.718	3.0
97.733	2.0
97.748	3.0
97.763	4.0
97.778	3.0
97.792	5.0
97.807	4.0
97.822	5.0
97.837	5.0
97.852	3.0
97.867	1.0
97.882	0.0
97.897	4.0
97.912	2.0
97.927	3.0
97.942	0.0
97.957	2.0
97.972	2.0
97.987	4.0
98.001	3.0
98.016	6.0
98.031	3.0
98.046	3.0
98.061	3.0
98.076	3.0
98.091	4.0
98.106	3.0
98.121	5.0
98.136	5.0
98.151	1.0
98.166	4.0
98.181	2.0
98.195	1.0
98.21	3.0
98.225	1.0
98.24	2.0
98.255	3.0
98.27	4.0
98.285	3.0
98.3	1.0
98.315	1.0
98.33	0.0
98.345	2.0
98.359	3.0
98.374	2.0
98.389	5.0
98.404	2.0
98.419	2.0
98.434	1.0
98.449	4.0
98.464	1.0
98.479	1.0
98.494	5.0
98.508	5.0
98.523	4.0
98.538	4.0
98.553	3.0
98.568	7.0
98.583	2.0
98.598	2.0
98.613	5.0
98.628	2.0
98.642	3.0
98.657	3.0
98.672	5.0
98.687	5.0
98.702	3.0
98.717	4.0
98.732	4.0
98.747	3.0
98.762	3.0
98.776	3.0
98.791	2.0
98.806	2.0
98.821	1.0
98.836	4.0
98.851	2.0
98.866	1.0
98.881	3.0
98.896	6.0
98.91	3.0
98.925	2.0
98.94	2.0
98.955	3.0
98.97	5.0
98.985	1.0
99.0	2.0
99.015	2.0
99.029	6.0
99.044	6.0
99.059	7.0
99.074	2.0
99.089	3.0
99.104	4.0
99.119	3.0
99.133	5.0
99.148	4.0
99.163	2.0
99.178	3.0
99.193	5.0
99.208	3.0
99.223	2.0
99.238	6.0
99.252	3.0
99.267	5.0
99.282	4.0
99.297	3.0
99.312	1.0
99.327	2.0
99.342	2.0
99.356	4.0
99.371	4.0
99.386	3.0
99.401	2.0
99.416	4.0
99.431	4.0
99.446	2.0
99.461	2.0
99.475	2.0
99.49	1.0
99.505	3.0
99.52	8.0
99.535	2.0
99.55	4.0
99.565	3.0
99.579	2.0
99.594	4.0
99.609	3.0
99.624	5.0
99.639	3.0
99.654	1.0
99.669	3.0
99.683	1.0
99.698	3.0
99.713	2.0
99.728	3.0
99.743	3.0
99.758	1.0
99.772	3.0
99.787	0.0
99.802	2.0
99.817	6.0
99.832	3.0
99.847	1.0
99.862	0.0
99.876	2.0
99.891	1.0
99.906	3.0
99.921	3.0
99.936	0.0
99.951	0.0
99.966	4.0
99.98	5.0
99.995	4.0
100.01	4.0
100.025	4.0
100.04	3.0
100.055	6.0
100.069	4.0
100.084	3.0
100.099	5.0
100.114	2.0
100.129	3.0
100.144	2.0
100.159	3.0
100.173	1.0
100.188	6.0
100.203	1.0
100.218	3.0
100.233	3.0
100.248	5.0
100.262	2.0
100.277	1.0
100.292	4.0
100.307	6.0
100.322	5.0
100.337	3.0
100.351	3.0
100.366	5.0
100.381	5.0
100.396	3.0
100.411	3.0
100.426	1.0
100.441	4.0
100.455	8.0
100.47	3.0
100.485	4.0
100.5	2.0
100.515	1.0
100.53	2.0
100.544	5.0
100.559	7.0
100.574	3.0
100.589	1.0
100.604	2.0
100.619	1.0
100.633	6.0
100.648	6.0
100.663	2.0
100.678	1.0
100.693	4.0
100.708	1.0
100.722	4.0
100.737	0.0
100.752	6.0
100.767	3.0
100.782	2.0
100.796	7.0
100.811	1.0
100.826	2.0
100.841	5.0
100.856	2.0
100.871	6.0
100.885	3.0
100.9	3.0
100.915	4.0
100.93	8.0
100.945	1.0
100.96	2.0
100.974	4.0
100.989	3.0
101.004	3.0
101.019	2.0
101.034	5.0
101.048	1.0
101.063	5.0
101.078	5.0
101.093	2.0
101.108	3.0
101.123	6.0
101.137	5.0
101.152	4.0
101.167	7.0
101.182	4.0
101.197	2.0
101.211	3.0
101.226	3.0
101.241	1.0
101.256	7.0
101.271	2.0
101.285	3.0
101.3	4.0
101.315	4.0
101.33	4.0
101.345	5.0
101.359	2.0
101.374	2.0
101.389	0.0
101.404	2.0
101.419	0.0
101.433	4.0
101.448	3.0
101.463	4.0
101.478	7.0
101.493	5.0
101.507	3.0
101.522	2.0
101.537	1.0
101.552	0.0
101.567	3.0
101.581	3.0
101.596	0.0
101.611	3.0
101.626	1.0
101.64	7.0
101.655	4.0
101.67	2.0
101.685	3.0
101.7	2.0
101.714	1.0
101.729	2.0
101.744	8.0
101.759	3.0
101.773	2.0
101.788	5.0
101.803	2.0
101.818	5.0
101.833	8.0
101.847	3.0
101.862	1.0
101.877	4.0
101.892	3.0
101.906	4.0
101.921	5.0
101.936	2.0
101.951	3.0
101.965	1.0
101.98	4.0
101.995	4.0
102.01	6.0
102.025	4.0
102.039	5.0
102.054	3.0
102.069	3.0
102.084	8.0
102.098	1.0
102.113	3.0
102.128	6.0
102.143	2.0
102.157	3.0
102.172	2.0
102.187	5.0
102.202	6.0
102.216	4.0
102.231	3.0
102.246	4.0
102.261	1.0
102.275	3.0
102.29	2.0
102.305	4.0
102.32	7.0
102.334	3.0
102.349	1.0
102.364	2.0
102.378	5.0
102.393	0.0
102.408	3.0
102.423	3.0
102.437	1.0
102.452	6.0
102.467	2.0
102.482	1.0
102.496	5.0
102.511	1.0
102.526	2.0
102.541	0.0
102.555	2.0
102.57	1.0
102.585	5.0
102.6	5.0
102.614	6.0
102.629	4.0
102.644	5.0
102.659	2.0
102.673	5.0
102.688	0.0
102.703	3.0
102.717	1.0
102.732	3.0
102.747	1.0
102.762	4.0
102.776	6.0
102.791	2.0
102.806	5.0
102.821	9.0
102.835	4.0
102.85	3.0
102.865	1.0
102.88	6.0
102.894	3.0
102.909	2.0
102.924	3.0
102.938	4.0
102.953	3.0
102.968	4.0
102.983	1.0
102.997	4.0
103.012	4.0
103.027	2.0
103.042	5.0
103.056	1.0
103.071	2.0
103.086	5.0
103.101	4.0
103.115	5.0
103.13	4.0
103.145	3.0
103.16	3.0
103.174	4.0
103.189	1.0
103.204	5.0
103.219	5.0
103.233	2.0
103.248	2.0
103.263	5.0
103.278	5.0
103.292	4.0
103.307	0.0
103.322	5.0
103.337	6.0
103.351	6.0
103.366	0.0
103.381	5.0
103.396	3.0
103.41	3.0
103.425	0.0
103.44	4.0
103.455	3.0
103.469	3.0
103.484	3.0
103.499	3.0
103.514	1.0
103.529	5.0
103.543	7.0
103.558	0.0
103.573	5.0
103.588	3.0
103.602	4.0
103.617	2.0
103.632	6.0
103.647	4.0
103.661	5.0
103.676	3.0
103.691	1.0
103.706	3.0
103.721	3.0
103.735	1.0
103.75	5.0
103.765	3.0
103.78	3.0
103.795	8.0
103.809	3.0
103.824	5.0
103.839	5.0
103.854	1.0
103.869	2.0
103.883	2.0
103.898	2.0
103.913	5.0
103.928	3.0
103.943	5.0
103.957	6.0
103.972	4.0
103.987	1.0
104.002	2.0
104.017	7.0
104.031	2.0
104.046	4.0
104.061	3.0
104.076	6.0
104.091	6.0
104.106	2.0
104.12	2.0
104.135	7.0
104.15	0.0
104.165	2.0
104.18	5.0
104.195	4.0
104.209	0.0
104.224	5.0
104.239	0.0
104.254	5.0
104.269	2.0
104.284	8.0
104.299	5.0
104.313	0.0
104.328	1.0
104.343	3.0
104.358	2.0
104.373	5.0
104.388	2.0
104.403	0.0
104.417	5.0
104.432	5.0
104.447	4.0
104.462	1.0
104.477	5.0
104.492	3.0
104.507	4.0
104.522	4.0
104.536	8.0
104.551	1.0
104.566	3.0
104.581	2.0
104.596	4.0
104.611	1.0
104.626	5.0
104.641	7.0
104.656	2.0
104.67	5.0
104.685	7.0
104.7	2.0
104.715	3.0
104.73	3.0
104.745	1.0
104.76	5.0
104.775	2.0
104.79	5.0
104.804	1.0
104.819	4.0
104.834	5.0
104.849	2.0
104.864	5.0
104.879	5.0
104.894	0.0
104.909	0.0
104.924	1.0
104.939	3.0
104.954	1.0
104.968	6.0
104.983	5.0
104.998	2.0
105.013	1.0
105.028	5.0
105.043	10.0
105.058	4.0
105.073	1.0
105.088	2.0
105.103	3.0
105.118	4.0
105.133	8.0
105.147	3.0
105.162	5.0
105.177	4.0
105.192	3.0
105.207	3.0
105.222	3.0
105.237	6.0
105.252	7.0
105.267	2.0
105.282	4.0
105.297	2.0
105.312	5.0
105.327	2.0
105.342	4.0
105.356	3.0
105.371	2.0
105.386	2.0
105.401	1.0
105.416	3.0
105.431	4.0
105.446	1.0
105.461	2.0
105.476	6.0
105.491	5.0
105.506	8.0
105.521	2.0
105.536	4.0
105.551	1.0
105.566	7.0
105.581	3.0
105.595	3.0
105.61	2.0
105.625	2.0
105.64	0.0
105.655	4.0
105.67	0.0
105.685	2.0
105.7	2.0
105.715	4.0
105.73	7.0
105.745	3.0
105.76	2.0
105.775	3.0
105.79	2.0
105.805	0.0
105.82	2.0
105.835	4.0
105.85	5.0
105.864	2.0
105.879	5.0
105.894	3.0
105.909	8.0
105.924	1.0
105.939	0.0
105.954	4.0
105.969	1.0
105.984	4.0
105.999	2.0
106.014	2.0
106.029	3.0
106.044	2.0
106.059	3.0
106.074	1.0
106.089	3.0
106.104	3.0
106.119	2.0
106.134	4.0
106.148	4.0
106.163	5.0
106.178	2.0
106.193	4.0
106.208	2.0
106.223	4.0
106.238	4.0
106.253	2.0
106.268	5.0
106.283	4.0
106.298	4.0
106.313	5.0
106.328	4.0
106.343	3.0
106.358	2.0
106.373	4.0
106.388	3.0
106.403	5.0
106.418	6.0
106.432	3.0
106.447	3.0
106.462	7.0
106.477	4.0
106.492	2.0
106.507	4.0
106.522	4.0
106.537	4.0
106.552	4.0
106.567	4.0
106.582	1.0
106.597	2.0
106.612	0.0
106.627	7.0
106.642	2.0
106.657	2.0
106.672	2.0
106.687	4.0
106.701	1.0
106.716	1.0
106.731	4.0
106.746	5.0
106.761	1.0
106.776	2.0
106.791	2.0
106.806	5.0
106.821	4.0
106.836	2.0
106.851	2.0
106.866	0.0
106.881	6.0
106.896	3.0
106.911	2.0
106.926	4.0
106.941	4.0
106.955	2.0
106.97	4.0
106.985	2.0
107.0	4.0
107.015	1.0
107.03	2.0
107.045	6.0
107.06	1.0
107.075	6.0
107.09	5.0
107.105	2.0
107.12	2.0
107.135	0.0
107.15	8.0
107.165	3.0
107.18	5.0
107.194	4.0
107.209	2.0
107.224	7.0
107.239	3.0
107.254	8.0
107.269	10.0
107.284	4.0
107.299	5.0
107.314	3.0
107.329	8.0
107.344	5.0
107.359	4.0
107.374	2.0
107.389	5.0
107.404	3.0
107.418	2.0
107.433	0.0
107.448	5.0
107.463	3.0
107.478	2.0
107.493	2.0
107.508	1.0
107.523	3.0
107.538	1.0
107.553	2.0
107.568	5.0
107.583	4.0
107.598	5.0
107.613	3.0
107.627	4.0
107.642	3.0
107.657	1.0
107.672	6.0
107.687	1.0
107.702	1.0
107.717	5.0
107.732	3.0
107.747	4.0
107.762	3.0
107.777	3.0
107.792	3.0
107.807	2.0
107.821	3.0
107.836	3.0
107.851	0.0
107.866	3.0
107.881	5.0
107.896	3.0
107.911	2.0
107.926	1.0
107.941	3.0
107.956	5.0
107.971	5.0
107.986	2.0
108.0	4.0
108.015	6.0
108.03	5.0
108.045	1.0
108.06	11.0
108.075	0.0
108.09	1.0
108.105	3.0
108.12	1.0
108.135	7.0
108.15	3.0
108.164	1.0
108.179	6.0
108.194	2.0
108.209	2.0
108.224	3.0
108.239	0.0
108.254	3.0
108.269	6.0
108.284	3.0
108.299	5.0
108.313	3.0
108.328	3.0
108.343	0.0
108.358	6.0
108.373	5.0
108.388	4.0
108.403	3.0
108.418	0.0
108.433	2.0
108.448	1.0
108.462	1.0
108.477	4.0
108.492	4.0
108.507	5.0
108.522	3.0
108.537	2.0
108.552	6.0
108.567	2.0
108.582	6.0
108.597	6.0
108.611	3.0
108.626	4.0
108.641	3.0
108.656	2.0
108.671	3.0
108.686	4.0
108.701	2.0
108.716	1.0
108.731	4.0
108.745	4.0
108.76	2.0
108.775	2.0
108.79	6.0
108.805	2.0
108.82	3.0
108.835	2.0
108.85	4.0
108.865	4.0
108.879	4.0
108.894	0.0
108.909	4.0
108.924	5.0
108.939	2.0
108.954	1.0
108.969	3.0
108.984	2.0
108.999	5.0
109.013	8.0
109.028	4.0
109.043	1.0
109.058	2.0
109.073	0.0
109.088	4.0
109.103	2.0
109.118	4.0
109.133	0.0
109.147	3.0
109.162	6.0
109.177	1.0
109.192	4.0
109.207	4.0
109.222	4.0
109.237	2.0
109.252	4.0
109.267	2.0
109.281	1.0
109.296	1.0
109.311	3.0
109.326	5.0
109.341	4.0
109.356	3.0
109.371	3.0
109.386	3.0
109.4	4.0
109.415	5.0
109.43	2.0
109.445	3.0
109.46	2.0
109.475	4.0
109.49	8.0
109.505	3.0
109.52	4.0
109.534	3.0
109.549	3.0
109.564	3.0
109.579	3.0
109.594	2.0
109.609	3.0
109.624	2.0
109.639	3.0
109.653	5.0
109.668	5.0
109.683	5.0
109.698	5.0
109.713	5.0
109.728	2.0
109.743	7.0
109.758	2.0
109.773	7.0
109.787	4.0
109.802	4.0
109.817	5.0
109.832	2.0
109.847	1.0
109.862	6.0
109.877	4.0
109.892	2.0
109.907	0.0
109.921	3.0
109.936	5.0
109.951	4.0
109.966	4.0
109.981	2.0
109.996	2.0
110.011	1.0
110.026	4.0
110.04	5.0
110.055	5.0
110.07	5.0
110.085	3.0
110.1	1.0
110.115	3.0
110.13	3.0
110.145	3.0
110.16	2.0
110.174	1.0
110.189	4.0
110.204	4.0
110.219	2.0
110.234	4.0
110.249	4.0
110.264	5.0
110.279	2.0
110.294	3.0
110.308	5.0
110.323	4.0
110.338	6.0
110.353	1.0
110.368	5.0
110.383	1.0
110.398	1.0
110.413	2.0
110.428	5.0
110.442	5.0
110.457	4.0
110.472	0.0
110.487	1.0
110.502	4.0
110.517	4.0
110.532	1.0
110.547	5.0
110.561	2.0
110.576	1.0
110.591	1.0
110.606	1.0
110.621	6.0
110.636	2.0
110.651	2.0
110.666	2.0
110.681	4.0
110.695	3.0
110.71	4.0
110.725	4.0
110.74	2.0
110.755	8.0
110.77	2.0
110.785	0.0
110.8	2.0
110.815	6.0
110.829	5.0
110.844	2.0
110.859	6.0
110.874	5.0
110.889	5.0
110.904	1.0
110.919	2.0
110.934	1.0
110.948	3.0
110.963	3.0
110.978	4.0
110.993	5.0
111.008	6.0
111.023	2.0
111.038	7.0
111.053	2.0
111.067	4.0
111.082	0.0
111.097	0.0
111.112	4.0
111.127	4.0
111.142	5.0
111.157	4.0
111.172	5.0
111.186	1.0
111.201	5.0
111.216	2.0
111.231	6.0
111.246	4.0
111.261	2.0
111.276	3.0
111.291	2.0
111.305	3.0
111.32	2.0
111.335	4.0
111.35	4.0
111.365	6.0
111.38	3.0
111.395	6.0
111.41	1.0
111.424	3.0
111.439	4.0
111.454	3.0
111.469	5.0
111.484	2.0
111.499	3.0
111.514	4.0
111.528	3.0
111.543	5.0
111.558	1.0
111.573	5.0
111.588	2.0
111.603	1.0
111.618	1.0
111.633	3.0
111.647	4.0
111.662	5.0
111.677	3.0
111.692	3.0
111.707	4.0
111.722	1.0
111.737	2.0
111.751	5.0
111.766	4.0
111.781	7.0
111.796	6.0
111.811	3.0
111.826	1.0
111.84	2.0
111.855	3.0
111.87	10.0
111.885	5.0
111.9	2.0
111.915	4.0
111.93	5.0
111.944	3.0
111.959	7.0
111.974	2.0
111.989	3.0
112.004	4.0
112.019	4.0
112.033	7.0
112.048	2.0
112.063	5.0
112.078	3.0
112.093	3.0
112.108	3.0
112.123	3.0
112.137	3.0
112.152	1.0
112.167	3.0
112.182	6.0
112.197	3.0
112.212	0.0
112.226	6.0
112.241	4.0
112.256	3.0
112.271	0.0
112.286	3.0
112.301	4.0
112.315	4.0
112.33	1.0
112.345	5.0
112.36	5.0
112.375	3.0
112.389	1.0
112.404	3.0
112.419	4.0
112.434	4.0
112.449	3.0
112.464	4.0
112.478	2.0
112.493	2.0
112.508	3.0
112.523	2.0
112.538	5.0
112.553	3.0
112.567	4.0
112.582	2.0
112.597	8.0
112.612	2.0
112.627	2.0
112.642	5.0
112.656	5.0
112.671	3.0
112.686	7.0
112.701	1.0
112.716	4.0
112.73	2.0
112.745	5.0
112.76	4.0
112.775	4.0
112.79	4.0
112.805	1.0
112.819	6.0
112.834	6.0
112.849	5.0
112.864	3.0
112.879	3.0
112.894	3.0
112.908	3.0
112.923	2.0
112.938	3.0
112.953	3.0
112.968	2.0
112.983	3.0
112.997	2.0
113.012	4.0
113.027	3.0
113.042	4.0
113.057	6.0
113.072	3.0
113.086	2.0
113.101	2.0
113.116	4.0
113.131	6.0
113.146	2.0
113.161	6.0
113.175	5.0
113.19	2.0
113.205	5.0
113.22	3.0
113.235	3.0
113.25	1.0
113.265	4.0
113.279	3.0
113.294	0.0
113.309	3.0
113.324	5.0
113.339	6.0
113.354	1.0
113.368	4.0
113.383	4.0
113.398	5.0
113.413	0.0
113.428	3.0
113.443	7.0
113.458	1.0
113.472	6.0
113.487	3.0
113.502	1.0
113.517	1.0
113.532	2.0
113.547	5.0
113.562	4.0
113.576	2.0
113.591	6.0
113.606	1.0
113.621	4.0
113.636	5.0
113.651	7.0
113.666	3.0
113.681	2.0
113.695	6.0
113.71	5.0
113.725	0.0
113.74	5.0
113.755	7.0
113.77	2.0
113.785	3.0
113.8	3.0
113.814	2.0
113.829	7.0
113.844	2.0
113.859	2.0
113.874	1.0
113.889	4.0
113.904	6.0
113.919	4.0
113.934	5.0
113.949	1.0
113.963	6.0
113.978	1.0
113.993	5.0
114.008	2.0
114.023	2.0
114.038	2.0
114.053	4.0
114.068	5.0
114.083	4.0
114.098	5.0
114.113	5.0
114.127	2.0
114.142	4.0
114.157	8.0
114.172	3.0
114.187	4.0
114.202	3.0
114.217	3.0
114.232	2.0
114.247	1.0
114.262	3.0
114.277	2.0
114.292	1.0
114.307	2.0
114.322	7.0
114.337	4.0
114.351	3.0
114.366	2.0
114.381	2.0
114.396	5.0
114.411	2.0
114.426	5.0
114.441	4.0
114.456	8.0
114.471	4.0
114.486	7.0
114.501	4.0
114.516	4.0
114.531	4.0
114.546	5.0
114.561	3.0
114.576	3.0
114.591	3.0
114.606	5.0
114.621	2.0
114.636	4.0
114.65	7.0
114.665	12.0
114.68	3.0
114.695	3.0
114.71	4.0
114.725	7.0
114.74	7.0
114.755	7.0
114.77	3.0
114.785	4.0
114.8	1.0
114.815	5.0
114.83	3.0
114.845	4.0
114.86	2.0
114.875	9.0
114.89	0.0
114.905	2.0
114.92	4.0
114.935	5.0
114.95	6.0
114.965	2.0
114.98	0.0
114.995	3.0
115.009	1.0
115.024	3.0
115.039	6.0
115.054	2.0
115.069	6.0
115.084	2.0
115.099	6.0
115.114	4.0
115.129	3.0
115.144	3.0
115.159	5.0
115.174	2.0
115.189	6.0
115.204	2.0
115.219	2.0
115.234	5.0
115.249	3.0
115.264	6.0
115.279	3.0
115.294	6.0
115.309	3.0
115.323	5.0
115.338	8.0
115.353	1.0
115.368	10.0
115.383	7.0
115.398	1.0
115.413	4.0
115.428	3.0
115.443	3.0
115.458	2.0
115.473	1.0
115.488	8.0
115.503	3.0
115.518	4.0
115.533	1.0
115.548	4.0
115.562	10.0
115.577	4.0
115.592	8.0
115.607	4.0
115.622	3.0
115.637	5.0
115.652	2.0
115.667	1.0
115.682	3.0
115.697	2.0
115.712	4.0
115.727	7.0
115.741	2.0
115.756	2.0
115.771	3.0
115.786	5.0
115.801	4.0
115.816	3.0
115.831	8.0
115.846	4.0
115.861	7.0
115.875	3.0
115.89	3.0
115.905	1.0
115.92	4.0
115.935	4.0
115.95	4.0
115.965	4.0
115.98	3.0
115.995	5.0
116.009	1.0
116.024	1.0
116.039	6.0
116.054	5.0
116.069	2.0
116.084	2.0
116.099	3.0
116.113	2.0
116.128	7.0
116.143	1.0
116.158	6.0
116.173	6.0
116.188	2.0
116.202	3.0
116.217	4.0
116.232	6.0
116.247	4.0
116.262	3.0
116.277	4.0
116.291	5.0
116.306	3.0
116.321	4.0
116.336	4.0
116.351	3.0
116.366	4.0
116.38	5.0
116.395	3.0
116.41	7.0
116.425	7.0
116.44	0.0
116.454	3.0
116.469	5.0
116.484	9.0
116.499	2.0
116.514	4.0
116.528	3.0
116.543	6.0
116.558	3.0
116.573	2.0
116.588	2.0
116.602	3.0
116.617	1.0
116.632	5.0
116.647	3.0
116.662	7.0
116.676	6.0
116.691	3.0
116.706	5.0
116.721	0.0
116.735	4.0
116.75	4.0
116.765	7.0
116.78	2.0
116.795	3.0
116.809	2.0
116.824	5.0
116.839	1.0
116.854	3.0
116.868	1.0
116.883	6.0
116.898	2.0
116.913	5.0
116.927	5.0
116.942	4.0
116.957	4.0
116.972	6.0
116.986	3.0
117.001	4.0
117.016	3.0
117.031	4.0
117.045	3.0
117.06	2.0
117.075	2.0
117.09	1.0
117.104	9.0
117.119	7.0
117.134	5.0
117.149	3.0
117.163	3.0
117.178	2.0
117.193	1.0
117.208	7.0
117.222	4.0
117.237	5.0
117.252	2.0
117.267	3.0
117.281	1.0
117.296	5.0
117.311	3.0
117.325	5.0
117.34	1.0
117.355	3.0
117.37	1.0
117.384	4.0
117.399	3.0
117.414	3.0
117.429	1.0
117.443	6.0
117.458	6.0
117.473	5.0
117.487	3.0
117.502	6.0
117.517	3.0
117.532	4.0
117.546	1.0
117.561	6.0
117.576	1.0
117.59	4.0
117.605	4.0
117.62	4.0
117.635	3.0
117.649	2.0
117.664	3.0
117.679	1.0
117.693	6.0
117.708	2.0
117.723	6.0
117.738	7.0
117.752	6.0
117.767	0.0
117.782	1.0
117.796	1.0
117.811	1.0
117.826	4.0
117.841	4.0
117.855	4.0
117.87	3.0
117.885	3.0
117.899	2.0
117.914	5.0
117.929	2.0
117.944	1.0
117.958	2.0
117.973	2.0
117.988	3.0
118.002	5.0
118.017	5.0
118.032	5.0
118.047	3.0
118.062	6.0
118.077	6.0
118.092	5.0
118.107	2.0
118.121	4.0
118.136	3.0
118.151	3.0
118.166	8.0
118.181	1.0
118.196	5.0
118.211	3.0
118.225	2.0
118.24	4.0
118.255	3.0
118.27	4.0
118.285	4.0
118.3	4.0
118.315	5.0
118.33	6.0
118.344	3.0
118.359	5.0
118.374	6.0
118.389	4.0
118.404	6.0
118.419	4.0
118.434	2.0
118.449	3.0
118.463	4.0
118.478	9.0
118.493	6.0
118.508	2.0
118.523	3.0
118.538	3.0
118.553	2.0
118.567	7.0
118.582	0.0
118.597	2.0
118.612	6.0
118.627	3.0
118.642	4.0
118.657	4.0
118.672	0.0
118.686	3.0
118.701	5.0
118.716	5.0
118.731	1.0
118.746	4.0
118.761	7.0
118.776	3.0
118.791	4.0
118.805	4.0
118.82	3.0
118.835	6.0
118.85	3.0
118.865	4.0
118.88	5.0
118.895	3.0
118.909	5.0
118.924	4.0
118.939	5.0
118.954	2.0
118.969	4.0
118.984	8.0
118.999	0.0
119.014	4.0
119.028	1.0
119.043	8.0
119.058	5.0
119.073	3.0
119.088	3.0
119.103	4.0
119.118	6.0
119.133	5.0
119.147	3.0
119.162	2.0
119.177	4.0
119.192	4.0
119.207	3.0
119.222	6.0
119.237	2.0
119.251	9.0
119.266	5.0
119.281	7.0
119.296	1.0
119.311	7.0
119.326	4.0
119.341	4.0
119.356	4.0
119.37	4.0
119.385	3.0
119.4	4.0
119.415	5.0
119.43	3.0
119.445	3.0
119.46	3.0
119.475	2.0
119.489	3.0
119.504	3.0
119.519	3.0
119.534	3.0
119.549	1.0
119.564	4.0
119.579	5.0
119.593	4.0
119.608	3.0
119.623	5.0
119.638	3.0
119.653	2.0
119.668	4.0
119.683	6.0
119.698	5.0
119.712	2.0
119.727	4.0
119.742	5.0
119.757	4.0
119.772	6.0
119.787	5.0
119.802	3.0
119.817	2.0
119.831	6.0
119.846	4.0
119.861	5.0
119.876	4.0
119.891	2.0
119.906	3.0
119.921	1.0
119.935	5.0
119.95	5.0
119.965	3.0
119.98	2.0
119.995	2.0
120.01	4.0
120.025	1.0
120.04	3.0
120.054	1.0
120.069	1.0
120.084	1.0
120.099	2.0
120.114	3.0
120.129	3.0
120.144	0.0
120.159	0.0
120.173	2.0
120.188	1.0
120.203	1.0
120.218	1.0
120.233	0.0
120.248	0.0
120.263	0.0
120.277	0.0
120.292	0.0
120.307	0.0
120.322	0.0
120.337	0.0
120.352	0.0
120.367	0.0
120.382	0.0
120.396	1.0
120.411	1.0
120.426	0.0
120.441	0.0
120.456	0.0
120.471	0.0
120.486	1.0
120.501	0.0
120.515	1.0
120.53	0.0
120.545	0.0
120.56	0.0
120.575	0.0
120.59	0.0
120.605	0.0
120.619	0.0
120.634	0.0
120.649	0.0
120.664	0.0
120.679	0.0
120.694	0.0
120.709	0.0
120.724	0.0
120.738	0.0
120.753	0.0
120.768	0.0
120.783	0.0
120.798	0.0
120.813	0.0
120.828	0.0
120.843	0.0
120.857	0.0
120.872	1.0
120.887	0.0
120.902	0.0
120.917	0.0
120.932	0.0
120.947	0.0
120.961	0.0
120.976	0.0
