-1.217	0.0
-1.202	0.0
-1.187	0.0
-1.172	0.0
-1.157	0.0
-1.142	0.0
-1.128	0.0
-1.113	0.0
-1.098	0.0
-1.083	0.0
-1.068	0.0
-1.054	0.0
-1.039	0.0
-1.024	0.0
-1.009	0.0
-0.994	0.0
-0.979	0.0
-0.965	0.0
-0.95	0.0
-0.935	0.0
-0.92	0.0
-0.905	1.0
-0.891	0.0
-0.876	0.0
-0.861	0.0
-0.846	0.0
-0.831	0.0
-0.816	1.0
-0.802	0.0
-0.787	0.0
-0.772	0.0
-0.757	0.0
-0.742	0.0
-0.728	0.0
-0.713	0.0
-0.698	0.0
-0.683	0.0
-0.668	0.0
-0.653	0.0
-0.639	0.0
-0.624	0.0
-0.609	0.0
-0.594	0.0
-0.579	0.0
-0.565	0.0
-0.55	0.0
-0.535	0.0
-0.52	0.0
-0.505	0.0
-0.49	0.0
-0.476	0.0
-0.461	0.0
-0.446	0.0
-0.431	0.0
-0.416	0.0
-0.401	0.0
-0.387	0.0
-0.372	0.0
-0.357	0.0
-0.342	0.0
-0.327	0.0
-0.313	0.0
-0.298	0.0
-0.283	0.0
-0.268	0.0
-0.253	0.0
-0.238	0.0
-0.224	0.0
-0.209	0.0
-0.194	0.0
-0.179	0.0
-0.164	0.0
-0.15	0.0
-0.135	0.0
-0.12	0.0
-0.105	0.0
-0.09	0.0
-0.075	0.0
-0.061	0.0
-0.046	0.0
-0.031	0.0
-0.016	0.0
-0.001	0.0
0.013	0.0
0.028	0.0
0.043	0.0
0.058	0.0
0.073	0.0
0.088	0.0
0.102	0.0
0.117	0.0
0.132	0.0
0.147	0.0
0.162	0.0
0.176	0.0
0.191	0.0
0.206	0.0
0.221	0.0
0.236	0.0
0.251	0.0
0.265	0.0
0.28	0.0
0.295	0.0
0.31	0.0
0.325	0.0
0.339	0.0
0.354	0.0
0.369	0.0
0.384	1.0
0.399	0.0
0.414	0.0
0.428	0.0
0.443	0.0
0.458	0.0
0.473	0.0
0.488	0.0
0.502	0.0
0.517	0.0
0.532	0.0
0.547	0.0
0.562	0.0
0.577	0.0
0.591	0.0
0.606	0.0
0.621	0.0
0.636	0.0
0.651	0.0
0.665	0.0
0.68	0.0
0.695	0.0
0.71	0.0
0.725	0.0
0.74	0.0
0.754	0.0
0.769	0.0
0.784	0.0
0.799	0.0
0.814	1.0
0.828	0.0
0.843	0.0
0.858	0.0
0.873	0.0
0.888	0.0
0.903	0.0
0.917	0.0
0.932	0.0
0.947	0.0
0.962	0.0
0.977	0.0
0.991	0.0
1.006	0.0
1.021	0.0
1.036	0.0
1.051	0.0
1.065	0.0
1.08	0.0
1.095	0.0
1.11	0.0
1.125	0.0
1.14	0.0
1.154	0.0
1.169	0.0
1.184	0.0
1.199	0.0
1.214	0.0
1.228	0.0
1.243	0.0
1.258	0.0
1.273	0.0
1.288	0.0
1.302	0.0
1.317	0.0
1.332	0.0
1.347	0.0
1.362	0.0
1.376	0.0
1.391	0.0
1.406	0.0
1.421	0.0
1.436	0.0
1.45	0.0
1.465	0.0
1.48	0.0
1.495	0.0
1.51	0.0
1.524	0.0
1.539	0.0
1.554	0.0
1.569	0.0
1.584	0.0
1.598	0.0
1.613	0.0
1.628	0.0
1.643	0.0
1.658	0.0
1.672	0.0
1.687	0.0
1.702	0.0
1.717	0.0
1.732	0.0
1.746	1.0
1.761	0.0
1.776	1.0
1.791	0.0
1.806	0.0
1.82	0.0
1.835	1.0
1.85	0.0
1.865	0.0
1.88	0.0
1.894	0.0
1.909	0.0
1.924	0.0
1.939	0.0
1.954	0.0
1.968	0.0
1.983	0.0
1.998	0.0
2.013	0.0
2.028	0.0
2.042	0.0
2.057	0.0
2.072	0.0
2.087	0.0
2.101	0.0
2.116	0.0
2.131	1.0
2.146	1.0
2.161	0.0
2.175	0.0
2.19	0.0
2.205	0.0
2.22	0.0
2.235	0.0
2.249	0.0
2.264	0.0
2.279	1.0
2.294	1.0
2.308	1.0
2.323	0.0
2.338	1.0
2.353	1.0
2.368	1.0
2.382	2.0
2.397	2.0
2.412	2.0
2.427	1.0
2.442	1.0
2.456	1.0
2.471	1.0
2.486	1.0
2.501	0.0
2.515	0.0
2.53	2.0
2.545	1.0
2.56	2.0
2.575	4.0
2.589	5.0
2.604	2.0
2.619	0.0
2.634	2.0
2.649	3.0
2.663	2.0
2.678	2.0
2.693	1.0
2.708	1.0
2.722	3.0
2.737	1.0
2.752	2.0
2.767	2.0
2.782	1.0
2.796	2.0
2.811	6.0
2.826	2.0
2.841	2.0
2.856	4.0
2.87	4.0
2.885	5.0
2.9	4.0
2.915	4.0
2.93	3.0
2.944	4.0
2.959	7.0
2.974	1.0
2.989	3.0
3.004	4.0
3.018	2.0
3.033	1.0
3.048	4.0
3.063	2.0
3.078	1.0
3.092	1.0
3.107	3.0
3.122	3.0
3.137	4.0
3.152	3.0
3.166	1.0
3.181	8.0
3.196	4.0
3.211	2.0
3.226	3.0
3.24	7.0
3.255	5.0
3.27	3.0
3.285	1.0
3.3	10.0
3.315	9.0
3.329	5.0
3.344	4.0
3.359	8.0
3.374	6.0
3.389	4.0
3.403	6.0
3.418	8.0
3.433	5.0
3.448	4.0
3.463	5.0
3.478	9.0
3.492	7.0
3.507	4.0
3.522	4.0
3.537	5.0
3.552	6.0
3.567	3.0
3.581	6.0
3.596	6.0
3.611	3.0
3.626	4.0
3.641	4.0
3.656	3.0
3.671	6.0
3.685	3.0
3.7	4.0
3.715	2.0
3.73	7.0
3.745	9.0
3.76	4.0
3.775	6.0
3.789	11.0
3.804	6.0
3.819	8.0
3.834	4.0
3.849	6.0
3.864	4.0
3.879	7.0
3.894	5.0
3.908	13.0
3.923	5.0
3.938	6.0
3.953	4.0
3.968	4.0
3.983	3.0
3.998	6.0
4.013	8.0
4.027	5.0
4.042	3.0
4.057	3.0
4.072	3.0
4.087	3.0
4.102	11.0
4.117	8.0
4.132	3.0
4.147	10.0
4.162	6.0
4.176	7.0
4.191	18.0
4.206	4.0
4.221	2.0
4.236	8.0
4.251	4.0
4.266	4.0
4.281	8.0
4.296	5.0
4.311	3.0
4.326	8.0
4.341	3.0
4.356	4.0
4.37	9.0
4.385	6.0
4.4	6.0
4.415	4.0
4.43	11.0
4.445	7.0
4.46	3.0
4.475	7.0
4.49	8.0
4.505	7.0
4.52	16.0
4.535	4.0
4.55	10.0
4.565	6.0
4.58	5.0
4.595	6.0
4.61	7.0
4.625	7.0
4.639	8.0
4.654	10.0
4.669	12.0
4.684	9.0
4.699	2.0
4.714	7.0
4.729	6.0
4.744	4.0
4.759	12.0
4.774	10.0
4.789	7.0
4.804	4.0
4.819	8.0
4.834	2.0
4.849	6.0
4.864	4.0
4.879	6.0
4.894	5.0
4.909	8.0
4.924	4.0
4.939	6.0
4.954	2.0
4.969	10.0
4.984	4.0
4.999	7.0
5.014	9.0
5.029	7.0
5.044	5.0
5.059	10.0
5.074	3.0
5.089	9.0
5.104	9.0
5.119	6.0
5.134	9.0
5.149	8.0
5.164	7.0
5.179	8.0
5.194	9.0
5.209	5.0
5.224	11.0
5.239	9.0
5.254	4.0
5.269	11.0
5.284	10.0
5.299	8.0
5.314	8.0
5.329	8.0
5.344	5.0
5.359	11.0
5.374	6.0
5.389	7.0
5.404	8.0
5.419	6.0
5.434	12.0
5.449	11.0
5.464	12.0
5.479	8.0
5.494	12.0
5.509	9.0
5.524	7.0
5.539	8.0
5.554	7.0
5.569	7.0
5.584	6.0
5.599	12.0
5.614	10.0
5.629	8.0
5.644	5.0
5.659	9.0
5.674	9.0
5.689	11.0
5.704	8.0
5.719	10.0
5.734	9.0
5.749	5.0
5.764	11.0
5.779	10.0
5.794	6.0
5.809	9.0
5.824	5.0
5.839	11.0
5.854	13.0
5.869	10.0
5.884	5.0
5.899	10.0
5.914	5.0
5.929	5.0
5.944	9.0
5.959	9.0
5.974	16.0
5.989	10.0
6.004	9.0
6.019	5.0
6.034	6.0
6.049	14.0
6.064	9.0
6.079	8.0
6.094	4.0
6.109	12.0
6.124	4.0
6.139	10.0
6.154	6.0
6.169	8.0
6.184	19.0
6.199	5.0
6.214	9.0
6.229	8.0
6.244	12.0
6.259	9.0
6.274	9.0
6.289	7.0
6.304	11.0
6.319	7.0
6.334	12.0
6.349	11.0
6.364	6.0
6.379	12.0
6.394	9.0
6.409	7.0
6.424	7.0
6.439	16.0
6.454	11.0
6.469	13.0
6.484	5.0
6.499	6.0
6.514	9.0
6.529	16.0
6.544	11.0
6.559	7.0
6.574	8.0
6.589	7.0
6.604	12.0
6.619	13.0
6.634	10.0
6.649	6.0
6.664	11.0
6.679	11.0
6.694	12.0
6.709	7.0
6.724	8.0
6.739	9.0
6.754	9.0
6.769	6.0
6.784	9.0
6.799	7.0
6.814	2.0
6.829	9.0
6.844	6.0
6.859	8.0
6.873	11.0
6.888	4.0
6.903	12.0
6.918	9.0
6.933	10.0
6.948	6.0
6.963	12.0
6.978	13.0
6.993	8.0
7.008	11.0
7.023	17.0
7.038	8.0
7.053	11.0
7.068	8.0
7.083	9.0
7.098	9.0
7.113	10.0
7.128	14.0
7.143	10.0
7.157	7.0
7.172	7.0
7.187	7.0
7.202	7.0
7.217	11.0
7.232	10.0
7.247	5.0
7.262	12.0
7.277	5.0
7.292	7.0
7.307	11.0
7.322	11.0
7.336	11.0
7.351	13.0
7.366	17.0
7.381	16.0
7.396	4.0
7.411	9.0
7.426	15.0
7.441	12.0
7.456	6.0
7.471	10.0
7.485	8.0
7.5	13.0
7.515	8.0
7.53	8.0
7.545	11.0
7.56	7.0
7.575	14.0
7.59	7.0
7.604	9.0
7.619	15.0
7.634	10.0
7.649	6.0
7.664	12.0
7.679	7.0
7.693	11.0
7.708	9.0
7.723	6.0
7.738	6.0
7.753	6.0
7.768	7.0
7.783	11.0
7.797	7.0
7.812	10.0
7.827	8.0
7.842	7.0
7.857	12.0
7.871	6.0
7.886	6.0
7.901	7.0
7.916	8.0
7.931	8.0
7.945	4.0
7.96	13.0
7.975	13.0
7.99	9.0
8.005	5.0
8.019	12.0
8.034	9.0
8.049	6.0
8.064	11.0
8.078	6.0
8.093	11.0
8.108	5.0
8.123	13.0
8.137	6.0
8.152	6.0
8.167	11.0
8.182	7.0
8.196	15.0
8.211	8.0
8.226	6.0
8.241	12.0
8.255	12.0
8.27	8.0
8.285	8.0
8.3	8.0
8.314	10.0
8.329	9.0
8.344	15.0
8.358	4.0
8.373	7.0
8.388	8.0
8.403	10.0
8.417	12.0
8.432	10.0
8.447	11.0
8.461	10.0
8.476	6.0
8.491	14.0
8.505	8.0
8.52	10.0
8.535	7.0
8.55	1.0
8.564	7.0
8.579	5.0
8.594	6.0
8.608	9.0
8.623	12.0
8.638	10.0
8.652	7.0
8.667	8.0
8.682	7.0
8.696	7.0
8.711	11.0
8.726	4.0
8.74	16.0
8.755	12.0
8.77	9.0
8.784	7.0
8.799	10.0
8.814	6.0
8.828	9.0
8.843	6.0
8.858	9.0
8.872	4.0
8.887	11.0
8.902	7.0
8.916	6.0
8.931	3.0
8.946	8.0
8.96	6.0
8.975	7.0
8.99	10.0
9.004	11.0
9.019	12.0
9.034	4.0
9.048	7.0
9.063	7.0
9.077	4.0
9.092	6.0
9.107	13.0
9.121	7.0
9.136	6.0
9.151	7.0
9.165	9.0
9.18	7.0
9.195	7.0
9.209	5.0
9.224	10.0
9.239	6.0
9.253	13.0
9.268	8.0
9.283	8.0
9.297	12.0
9.312	9.0
9.327	7.0
9.341	6.0
9.356	8.0
9.371	6.0
9.385	11.0
9.4	6.0
9.415	10.0
9.429	11.0
9.444	3.0
9.458	9.0
9.473	9.0
9.488	5.0
9.502	8.0
9.517	4.0
9.532	9.0
9.546	13.0
9.561	7.0
9.576	12.0
9.59	13.0
9.605	13.0
9.62	6.0
9.635	8.0
9.649	7.0
9.664	10.0
9.679	5.0
9.693	8.0
9.708	7.0
9.723	7.0
9.737	8.0
9.752	7.0
9.767	14.0
9.781	10.0
9.796	6.0
9.811	10.0
9.825	7.0
9.84	13.0
9.855	7.0
9.87	10.0
9.884	9.0
9.899	6.0
9.914	9.0
9.928	9.0
9.943	6.0
9.958	13.0
9.973	14.0
9.987	5.0
10.002	8.0
10.017	4.0
10.031	10.0
10.046	6.0
10.061	9.0
10.076	7.0
10.09	9.0
10.105	9.0
10.12	10.0
10.135	10.0
10.149	7.0
10.164	7.0
10.179	11.0
10.194	12.0
10.208	15.0
10.223	7.0
10.238	6.0
10.253	5.0
10.267	8.0
10.282	6.0
10.297	9.0
10.312	7.0
10.326	12.0
10.341	18.0
10.356	7.0
10.371	7.0
10.386	13.0
10.4	4.0
10.415	8.0
10.43	11.0
10.445	9.0
10.46	8.0
10.474	9.0
10.489	4.0
10.504	8.0
10.519	10.0
10.533	15.0
10.548	9.0
10.563	5.0
10.578	8.0
10.593	5.0
10.608	10.0
10.622	5.0
10.637	4.0
10.652	7.0
10.667	5.0
10.682	8.0
10.696	6.0
10.711	6.0
10.726	8.0
10.741	9.0
10.756	7.0
10.771	10.0
10.785	13.0
10.8	6.0
10.815	3.0
10.83	6.0
10.845	12.0
10.86	14.0
10.874	8.0
10.889	8.0
10.904	8.0
10.919	5.0
10.934	8.0
10.949	5.0
10.963	12.0
10.978	10.0
10.993	6.0
11.008	9.0
11.023	4.0
11.038	6.0
11.053	8.0
11.067	10.0
11.082	8.0
11.097	6.0
11.112	12.0
11.127	11.0
11.142	5.0
11.157	6.0
11.172	6.0
11.186	11.0
11.201	10.0
11.216	5.0
11.231	6.0
11.246	8.0
11.261	9.0
11.276	8.0
11.291	9.0
11.305	6.0
11.32	5.0
11.335	15.0
11.35	9.0
11.365	8.0
11.38	9.0
11.395	7.0
11.41	3.0
11.424	10.0
11.439	5.0
11.454	9.0
11.469	16.0
11.484	6.0
11.499	7.0
11.514	14.0
11.529	8.0
11.544	11.0
11.558	8.0
11.573	7.0
11.588	12.0
11.603	6.0
11.618	10.0
11.633	4.0
11.648	11.0
11.663	5.0
11.678	13.0
11.693	13.0
11.707	7.0
11.722	3.0
11.737	6.0
11.752	4.0
11.767	11.0
11.782	4.0
11.797	14.0
11.812	8.0
11.827	10.0
11.842	6.0
11.856	6.0
11.871	6.0
11.886	8.0
11.901	13.0
11.916	11.0
11.931	14.0
11.946	5.0
11.961	10.0
11.976	7.0
11.991	5.0
12.006	10.0
12.02	5.0
12.035	12.0
12.05	11.0
12.065	11.0
12.08	8.0
12.095	12.0
12.11	15.0
12.125	10.0
12.14	8.0
12.155	12.0
12.17	12.0
12.184	10.0
12.199	7.0
12.214	8.0
12.229	8.0
12.244	18.0
12.259	10.0
12.274	14.0
12.289	14.0
12.304	19.0
12.319	7.0
12.334	15.0
12.348	10.0
12.363	13.0
12.378	4.0
12.393	17.0
12.408	10.0
12.423	11.0
12.438	11.0
12.453	17.0
12.468	14.0
12.483	13.0
12.498	13.0
12.513	10.0
12.527	15.0
12.542	13.0
12.557	10.0
12.572	17.0
12.587	18.0
12.602	8.0
12.617	20.0
12.632	16.0
12.647	8.0
12.662	12.0
12.677	18.0
12.692	12.0
12.707	18.0
12.721	14.0
12.736	15.0
12.751	22.0
12.766	16.0
12.781	14.0
12.796	12.0
12.811	13.0
12.826	15.0
12.841	12.0
12.856	16.0
12.871	15.0
12.886	19.0
12.9	14.0
12.915	10.0
12.93	18.0
12.945	16.0
12.96	14.0
12.975	19.0
12.99	15.0
13.005	18.0
13.02	21.0
13.035	12.0
13.05	22.0
13.065	15.0
13.08	20.0
13.094	19.0
13.109	17.0
13.124	16.0
13.139	16.0
13.154	21.0
13.169	18.0
13.184	12.0
13.199	26.0
13.214	23.0
13.229	28.0
13.244	12.0
13.259	13.0
13.274	18.0
13.288	18.0
13.303	16.0
13.318	17.0
13.333	16.0
13.348	25.0
13.363	26.0
13.378	18.0
13.393	27.0
13.408	20.0
13.423	34.0
13.438	25.0
13.453	34.0
13.468	49.0
13.482	35.0
13.497	35.0
13.512	32.0
13.527	34.0
13.542	40.0
13.557	51.0
13.572	51.0
13.587	61.0
13.602	61.0
13.617	72.0
13.632	63.0
13.647	68.0
13.662	83.0
13.677	71.0
13.691	101.0
13.706	102.0
13.721	97.0
13.736	107.0
13.751	110.0
13.766	139.0
13.781	95.0
13.796	130.0
13.811	132.0
13.826	146.0
13.841	139.0
13.856	151.0
13.871	126.0
13.885	97.0
13.9	78.0
13.915	76.0
13.93	67.0
13.945	71.0
13.96	64.0
13.975	52.0
13.99	42.0
14.005	42.0
14.02	42.0
14.035	25.0
14.05	26.0
14.065	26.0
14.08	22.0
14.094	23.0
14.109	13.0
14.124	26.0
14.139	19.0
14.154	31.0
14.169	24.0
14.184	19.0
14.199	22.0
14.214	20.0
14.229	15.0
14.244	25.0
14.259	17.0
14.274	22.0
14.288	17.0
14.303	17.0
14.318	13.0
14.333	24.0
14.348	19.0
14.363	7.0
14.378	20.0
14.393	20.0
14.408	9.0
14.423	16.0
14.438	16.0
14.453	20.0
14.468	24.0
14.482	20.0
14.497	15.0
14.512	15.0
14.527	18.0
14.542	16.0
14.557	11.0
14.572	16.0
14.587	14.0
14.602	8.0
14.617	26.0
14.632	14.0
14.647	20.0
14.661	19.0
14.676	21.0
14.691	13.0
14.706	12.0
14.721	16.0
14.736	15.0
14.751	11.0
14.766	14.0
14.781	17.0
14.796	10.0
14.811	13.0
14.826	17.0
14.84	17.0
14.855	21.0
14.87	14.0
14.885	23.0
14.9	15.0
14.915	18.0
14.93	12.0
14.945	10.0
14.96	15.0
14.975	16.0
14.989	10.0
15.004	12.0
15.019	13.0
15.034	21.0
15.049	17.0
15.064	15.0
15.079	18.0
15.094	11.0
15.109	16.0
15.124	15.0
15.138	21.0
15.153	11.0
15.168	19.0
15.183	15.0
15.198	16.0
15.213	15.0
15.228	20.0
15.243	24.0
15.258	14.0
15.272	20.0
15.287	16.0
15.302	14.0
15.317	22.0
15.332	12.0
15.347	21.0
15.362	21.0
15.377	12.0
15.391	15.0
15.406	11.0
15.421	11.0
15.436	10.0
15.451	14.0
15.466	20.0
15.481	15.0
15.496	14.0
15.51	19.0
15.525	14.0
15.54	17.0
15.555	20.0
15.57	11.0
15.585	14.0
15.6	13.0
15.614	18.0
15.629	22.0
15.644	15.0
15.659	19.0
15.674	18.0
15.689	19.0
15.704	14.0
15.718	16.0
15.733	14.0
15.748	15.0
15.763	7.0
15.778	13.0
15.793	12.0
15.808	17.0
15.822	14.0
15.837	13.0
15.852	9.0
15.867	17.0
15.882	10.0
15.897	14.0
15.911	18.0
15.926	15.0
15.941	16.0
15.956	13.0
15.971	20.0
15.986	12.0
16.0	13.0
16.015	18.0
16.03	13.0
16.045	16.0
16.06	11.0
16.074	14.0
16.089	10.0
16.104	15.0
16.119	10.0
16.134	11.0
16.149	18.0
16.163	21.0
16.178	17.0
16.193	11.0
16.208	15.0
16.223	20.0
16.237	16.0
16.252	14.0
16.267	9.0
16.282	14.0
16.297	21.0
16.311	17.0
16.326	13.0
16.341	17.0
16.356	15.0
16.37	16.0
16.385	13.0
16.4	19.0
16.415	15.0
16.43	12.0
16.444	15.0
16.459	11.0
16.474	18.0
16.489	20.0
16.504	26.0
16.518	15.0
16.533	22.0
16.548	14.0
16.563	19.0
16.577	18.0
16.592	17.0
16.607	21.0
16.622	13.0
16.637	24.0
16.651	21.0
16.666	21.0
16.681	17.0
16.696	24.0
16.71	22.0
16.725	24.0
16.74	29.0
16.755	41.0
16.77	34.0
16.784	39.0
16.799	36.0
16.814	37.0
16.829	43.0
16.843	44.0
16.858	60.0
16.873	49.0
16.888	47.0
16.902	66.0
16.917	78.0
16.932	70.0
16.947	89.0
16.961	70.0
16.976	80.0
16.991	71.0
17.006	71.0
17.021	48.0
17.035	62.0
17.05	59.0
17.065	41.0
17.08	32.0
17.094	38.0
17.109	30.0
17.124	27.0
17.139	16.0
17.153	18.0
17.168	24.0
17.183	17.0
17.198	15.0
17.212	19.0
17.227	13.0
17.242	17.0
17.257	11.0
17.271	17.0
17.286	13.0
17.301	12.0
17.316	17.0
17.33	14.0
17.345	17.0
17.36	9.0
17.375	16.0
17.39	10.0
17.404	21.0
17.419	14.0
17.434	15.0
17.449	8.0
17.463	12.0
17.478	20.0
17.493	8.0
17.508	10.0
17.522	13.0
17.537	13.0
17.552	9.0
17.567	9.0
17.581	14.0
17.596	13.0
17.611	10.0
17.626	18.0
17.641	11.0
17.655	16.0
17.67	13.0
17.685	9.0
17.7	11.0
17.714	14.0
17.729	14.0
17.744	12.0
17.759	19.0
17.773	8.0
17.788	12.0
17.803	11.0
17.818	12.0
17.833	9.0
17.847	15.0
17.862	11.0
17.877	11.0
17.892	10.0
17.906	17.0
17.921	7.0
17.936	11.0
17.951	9.0
17.966	11.0
17.98	13.0
17.995	20.0
18.01	14.0
18.025	11.0
18.04	20.0
18.054	12.0
18.069	12.0
18.084	7.0
18.099	11.0
18.114	15.0
18.128	10.0
18.143	12.0
18.158	14.0
18.173	9.0
18.188	8.0
18.202	10.0
18.217	12.0
18.232	10.0
18.247	11.0
18.262	13.0
18.276	11.0
18.291	7.0
18.306	15.0
18.321	9.0
18.336	15.0
18.35	16.0
18.365	10.0
18.38	7.0
18.395	12.0
18.41	15.0
18.424	19.0
18.439	10.0
18.454	8.0
18.469	7.0
18.484	12.0
18.498	16.0
18.513	10.0
18.528	13.0
18.543	9.0
18.558	16.0
18.573	12.0
18.587	11.0
18.602	10.0
18.617	10.0
18.632	10.0
18.647	13.0
18.661	13.0
18.676	12.0
18.691	13.0
18.706	16.0
18.721	17.0
18.736	14.0
18.75	9.0
18.765	14.0
18.78	16.0
18.795	14.0
18.81	10.0
18.825	8.0
18.839	10.0
18.854	18.0
18.869	13.0
18.884	11.0
18.899	10.0
18.913	10.0
18.928	10.0
18.943	16.0
18.958	11.0
18.973	9.0
18.988	18.0
19.002	12.0
19.017	18.0
19.032	14.0
19.047	8.0
19.062	15.0
19.077	10.0
19.091	14.0
19.106	12.0
19.121	9.0
19.136	15.0
19.151	9.0
19.165	8.0
19.18	12.0
19.195	10.0
19.21	10.0
19.225	12.0
19.24	17.0
19.254	14.0
19.269	15.0
19.284	15.0
19.299	21.0
19.314	12.0
19.329	11.0
19.343	19.0
19.358	11.0
19.373	23.0
19.388	15.0
19.403	17.0
19.417	19.0
19.432	21.0
19.447	23.0
19.462	24.0
19.477	33.0
19.492	31.0
19.506	27.0
19.521	30.0
19.536	26.0
19.551	37.0
19.566	51.0
19.58	39.0
19.595	39.0
19.61	40.0
19.625	37.0
19.64	44.0
19.655	42.0
19.669	39.0
19.684	33.0
19.699	34.0
19.714	34.0
19.729	33.0
19.743	20.0
19.758	32.0
19.773	22.0
19.788	25.0
19.803	23.0
19.817	16.0
19.832	15.0
19.847	18.0
19.862	9.0
19.877	14.0
19.891	9.0
19.906	10.0
19.921	16.0
19.936	10.0
19.951	17.0
19.965	15.0
19.98	10.0
19.995	13.0
20.01	12.0
20.025	10.0
20.039	11.0
20.054	10.0
20.069	10.0
20.084	6.0
20.099	11.0
20.113	11.0
20.128	9.0
20.143	10.0
20.158	12.0
20.173	7.0
20.187	6.0
20.202	8.0
20.217	9.0
20.232	11.0
20.246	12.0
20.261	8.0
20.276	7.0
20.291	8.0
20.306	9.0
20.32	10.0
20.335	17.0
20.35	14.0
20.365	12.0
20.38	9.0
20.394	17.0
20.409	12.0
20.424	12.0
20.439	14.0
20.453	10.0
20.468	13.0
20.483	14.0
20.498	14.0
20.513	13.0
20.527	8.0
20.542	6.0
20.557	13.0
20.572	9.0
20.586	16.0
20.601	10.0
20.616	11.0
20.631	1.0
20.646	16.0
20.66	11.0
20.675	10.0
20.69	9.0
20.705	7.0
20.719	8.0
20.734	12.0
20.749	7.0
20.764	16.0
20.779	10.0
20.793	8.0
20.808	10.0
20.823	7.0
20.838	11.0
20.853	12.0
20.867	10.0
20.882	12.0
20.897	9.0
20.912	9.0
20.926	10.0
20.941	12.0
20.956	18.0
20.971	14.0
20.986	12.0
21.0	11.0
21.015	13.0
21.03	15.0
21.045	14.0
21.06	5.0
21.074	13.0
21.089	8.0
21.104	10.0
21.119	9.0
21.134	11.0
21.148	16.0
21.163	7.0
21.178	15.0
21.193	9.0
21.208	9.0
21.222	16.0
21.237	18.0
21.252	13.0
21.267	10.0
21.282	9.0
21.296	13.0
21.311	9.0
21.326	14.0
21.341	8.0
21.356	13.0
21.37	9.0
21.385	7.0
21.4	7.0
21.415	12.0
21.43	15.0
21.444	14.0
21.459	8.0
21.474	17.0
21.489	15.0
21.504	14.0
21.519	12.0
21.533	6.0
21.548	20.0
21.563	13.0
21.578	13.0
21.593	17.0
21.608	13.0
21.622	15.0
21.637	10.0
21.652	14.0
21.667	22.0
21.682	21.0
21.697	23.0
21.712	28.0
21.726	21.0
21.741	18.0
21.756	26.0
21.771	35.0
21.786	35.0
21.801	38.0
21.816	48.0
21.83	53.0
21.845	61.0
21.86	76.0
21.875	80.0
21.89	77.0
21.905	69.0
21.92	74.0
21.935	79.0
21.949	79.0
21.964	80.0
21.979	81.0
21.994	75.0
22.009	65.0
22.024	71.0
22.039	60.0
22.054	59.0
22.069	63.0
22.083	53.0
22.098	49.0
22.113	40.0
22.128	41.0
22.143	26.0
22.158	25.0
22.173	27.0
22.188	20.0
22.203	18.0
22.218	19.0
22.233	11.0
22.248	22.0
22.262	15.0
22.277	8.0
22.292	13.0
22.307	22.0
22.322	14.0
22.337	11.0
22.352	10.0
22.367	10.0
22.382	10.0
22.397	17.0
22.412	10.0
22.427	12.0
22.442	11.0
22.457	15.0
22.472	12.0
22.487	5.0
22.502	10.0
22.516	14.0
22.531	8.0
22.546	14.0
22.561	11.0
22.576	8.0
22.591	11.0
22.606	11.0
22.621	12.0
22.636	14.0
22.651	13.0
22.666	10.0
22.681	13.0
22.696	14.0
22.711	13.0
22.726	13.0
22.741	11.0
22.756	9.0
22.771	10.0
22.786	6.0
22.801	6.0
22.816	10.0
22.831	13.0
22.846	8.0
22.861	15.0
22.876	11.0
22.891	12.0
22.906	11.0
22.92	7.0
22.935	13.0
22.95	11.0
22.965	6.0
22.98	8.0
22.995	11.0
23.01	13.0
23.025	11.0
23.04	9.0
23.055	14.0
23.07	4.0
23.085	7.0
23.1	12.0
23.115	3.0
23.13	7.0
23.145	5.0
23.16	12.0
23.175	4.0
23.19	11.0
23.205	11.0
23.22	7.0
23.235	7.0
23.25	17.0
23.265	7.0
23.28	14.0
23.295	14.0
23.31	8.0
23.325	13.0
23.34	11.0
23.355	11.0
23.37	7.0
23.384	9.0
23.399	11.0
23.414	6.0
23.429	13.0
23.444	9.0
23.459	10.0
23.474	12.0
23.489	7.0
23.504	13.0
23.519	13.0
23.534	10.0
23.549	12.0
23.564	11.0
23.579	9.0
23.594	10.0
23.609	9.0
23.624	10.0
23.639	12.0
23.654	11.0
23.668	5.0
23.683	6.0
23.698	9.0
23.713	13.0
23.728	14.0
23.743	10.0
23.758	16.0
23.773	13.0
23.788	14.0
23.803	19.0
23.818	10.0
23.833	13.0
23.848	26.0
23.862	17.0
23.877	21.0
23.892	23.0
23.907	21.0
23.922	29.0
23.937	24.0
23.952	29.0
23.967	30.0
23.982	36.0
23.997	38.0
24.011	44.0
24.026	43.0
24.041	56.0
24.056	50.0
24.071	51.0
24.086	46.0
24.101	62.0
24.116	54.0
24.131	48.0
24.145	36.0
24.16	41.0
24.175	40.0
24.19	32.0
24.205	43.0
24.22	48.0
24.235	34.0
24.249	18.0
24.264	34.0
24.279	27.0
24.294	25.0
24.309	18.0
24.324	18.0
24.338	14.0
24.353	11.0
24.368	13.0
24.383	15.0
24.398	10.0
24.413	11.0
24.428	10.0
24.442	9.0
24.457	10.0
24.472	14.0
24.487	4.0
24.502	6.0
24.516	8.0
24.531	11.0
24.546	8.0
24.561	10.0
24.576	9.0
24.591	7.0
24.605	9.0
24.62	12.0
24.635	9.0
24.65	10.0
24.665	9.0
24.679	11.0
24.694	10.0
24.709	11.0
24.724	9.0
24.739	14.0
24.753	13.0
24.768	13.0
24.783	15.0
24.798	7.0
24.813	12.0
24.827	6.0
24.842	12.0
24.857	12.0
24.872	9.0
24.886	8.0
24.901	11.0
24.916	14.0
24.931	12.0
24.946	15.0
24.96	11.0
24.975	15.0
24.99	10.0
25.005	13.0
25.019	7.0
25.034	6.0
25.049	13.0
25.064	13.0
25.078	12.0
25.093	5.0
25.108	9.0
25.123	10.0
25.138	13.0
25.152	14.0
25.167	12.0
25.182	13.0
25.197	10.0
25.211	13.0
25.226	7.0
25.241	6.0
25.256	7.0
25.27	8.0
25.285	12.0
25.3	6.0
25.315	8.0
25.329	17.0
25.344	7.0
25.359	15.0
25.374	10.0
25.388	18.0
25.403	14.0
25.418	10.0
25.433	6.0
25.447	8.0
25.462	5.0
25.477	23.0
25.492	8.0
25.506	15.0
25.521	3.0
25.536	7.0
25.55	14.0
25.565	9.0
25.58	10.0
25.595	8.0
25.609	13.0
25.624	8.0
25.639	7.0
25.654	6.0
25.668	12.0
25.683	8.0
25.698	11.0
25.713	9.0
25.727	9.0
25.742	12.0
25.757	15.0
25.772	12.0
25.786	7.0
25.801	13.0
25.816	9.0
25.83	12.0
25.845	6.0
25.86	11.0
25.875	6.0
25.889	13.0
25.904	8.0
25.919	9.0
25.934	10.0
25.948	10.0
25.963	9.0
25.978	16.0
25.992	7.0
26.007	12.0
26.022	10.0
26.037	10.0
26.051	13.0
26.066	13.0
26.081	7.0
26.096	11.0
26.11	6.0
26.125	10.0
26.14	7.0
26.155	8.0
26.169	13.0
26.184	12.0
26.199	14.0
26.213	11.0
26.228	8.0
26.243	8.0
26.258	7.0
26.272	10.0
26.287	7.0
26.302	8.0
26.317	4.0
26.331	9.0
26.346	6.0
26.361	10.0
26.376	5.0
26.39	12.0
26.405	7.0
26.42	8.0
26.434	10.0
26.449	10.0
26.464	13.0
26.479	11.0
26.493	14.0
26.508	8.0
26.523	10.0
26.538	9.0
26.552	10.0
26.567	5.0
26.582	11.0
26.597	13.0
26.611	11.0
26.626	15.0
26.641	10.0
26.656	11.0
26.67	6.0
26.685	12.0
26.7	12.0
26.715	11.0
26.729	8.0
26.744	10.0
26.759	4.0
26.773	17.0
26.788	16.0
26.803	15.0
26.818	17.0
26.832	8.0
26.847	7.0
26.862	7.0
26.877	8.0
26.891	9.0
26.906	9.0
26.921	15.0
26.936	6.0
26.95	12.0
26.965	12.0
26.98	11.0
26.995	10.0
27.01	13.0
27.024	6.0
27.039	8.0
27.054	9.0
27.069	14.0
27.083	16.0
27.098	13.0
27.113	7.0
27.128	9.0
27.142	13.0
27.157	7.0
27.172	9.0
27.187	10.0
27.201	11.0
27.216	7.0
27.231	10.0
27.246	12.0
27.261	5.0
27.275	15.0
27.29	14.0
27.305	9.0
27.32	11.0
27.334	13.0
27.349	10.0
27.364	12.0
27.379	10.0
27.394	10.0
27.408	16.0
27.423	10.0
27.438	14.0
27.453	16.0
27.467	13.0
27.482	9.0
27.497	15.0
27.512	12.0
27.527	9.0
27.541	11.0
27.556	6.0
27.571	13.0
27.586	8.0
27.601	5.0
27.615	14.0
27.63	15.0
27.645	13.0
27.66	8.0
27.675	16.0
27.689	14.0
27.704	18.0
27.719	16.0
27.734	8.0
27.749	14.0
27.763	14.0
27.778	18.0
27.793	16.0
27.808	16.0
27.823	21.0
27.838	22.0
27.852	22.0
27.867	22.0
27.882	20.0
27.897	26.0
27.912	23.0
27.926	17.0
27.941	21.0
27.956	26.0
27.971	23.0
27.986	22.0
28.001	22.0
28.015	11.0
28.03	17.0
28.045	19.0
28.06	25.0
28.075	9.0
28.09	10.0
28.105	21.0
28.119	24.0
28.134	19.0
28.149	7.0
28.164	14.0
28.179	12.0
28.194	11.0
28.208	13.0
28.223	6.0
28.238	11.0
28.253	13.0
28.268	9.0
28.283	14.0
28.298	8.0
28.312	14.0
28.327	11.0
28.342	6.0
28.357	8.0
28.372	16.0
28.387	12.0
28.402	9.0
28.417	13.0
28.431	9.0
28.446	13.0
28.461	10.0
28.476	14.0
28.491	14.0
28.506	13.0
28.521	9.0
28.536	8.0
28.55	11.0
28.565	5.0
28.58	13.0
28.595	16.0
28.61	10.0
28.625	9.0
28.64	9.0
28.655	16.0
28.669	14.0
28.684	9.0
28.699	11.0
28.714	11.0
28.729	9.0
28.744	7.0
28.759	11.0
28.774	12.0
28.788	8.0
28.803	11.0
28.818	11.0
28.833	13.0
28.848	12.0
28.863	6.0
28.878	12.0
28.893	10.0
28.908	9.0
28.922	12.0
28.937	9.0
28.952	11.0
28.967	6.0
28.982	10.0
28.997	9.0
29.012	6.0
29.027	10.0
29.041	15.0
29.056	15.0
29.071	15.0
29.086	12.0
29.101	12.0
29.116	10.0
29.131	11.0
29.146	21.0
29.16	17.0
29.175	20.0
29.19	11.0
29.205	5.0
29.22	12.0
29.235	12.0
29.25	14.0
29.265	10.0
29.279	13.0
29.294	10.0
29.309	7.0
29.324	8.0
29.339	13.0
29.354	18.0
29.369	16.0
29.384	15.0
29.398	16.0
29.413	22.0
29.428	14.0
29.443	21.0
29.458	24.0
29.473	21.0
29.488	28.0
29.502	41.0
29.517	43.0
29.532	33.0
29.547	36.0
29.562	46.0
29.577	52.0
29.592	46.0
29.606	51.0
29.621	37.0
29.636	62.0
29.651	48.0
29.666	45.0
29.681	39.0
29.695	41.0
29.71	34.0
29.725	36.0
29.74	32.0
29.755	29.0
29.77	26.0
29.784	31.0
29.799	30.0
29.814	19.0
29.829	31.0
29.844	20.0
29.859	32.0
29.873	21.0
29.888	21.0
29.903	13.0
29.918	21.0
29.933	13.0
29.947	16.0
29.962	21.0
29.977	15.0
29.992	14.0
30.007	10.0
30.021	11.0
30.036	12.0
30.051	9.0
30.066	11.0
30.081	16.0
30.095	9.0
30.11	12.0
30.125	11.0
30.14	14.0
30.155	7.0
30.169	10.0
30.184	9.0
30.199	23.0
30.214	11.0
30.228	12.0
30.243	10.0
30.258	11.0
30.273	19.0
30.288	12.0
30.302	17.0
30.317	15.0
30.332	10.0
30.347	14.0
30.361	15.0
30.376	12.0
30.391	2.0
30.406	12.0
30.42	13.0
30.435	15.0
30.45	19.0
30.465	8.0
30.479	6.0
30.494	14.0
30.509	17.0
30.524	8.0
30.538	7.0
30.553	8.0
30.568	14.0
30.583	14.0
30.597	14.0
30.612	12.0
30.627	14.0
30.641	11.0
30.656	9.0
30.671	7.0
30.686	10.0
30.7	4.0
30.715	5.0
30.73	11.0
30.745	4.0
30.759	11.0
30.774	8.0
30.789	10.0
30.803	7.0
30.818	13.0
30.833	13.0
30.848	12.0
30.862	12.0
30.877	6.0
30.892	6.0
30.906	9.0
30.921	13.0
30.936	12.0
30.951	10.0
30.965	11.0
30.98	5.0
30.995	9.0
31.009	13.0
31.024	7.0
31.039	12.0
31.053	17.0
31.068	15.0
31.083	15.0
31.098	22.0
31.112	16.0
31.127	22.0
31.142	18.0
31.156	22.0
31.171	30.0
31.186	31.0
31.2	31.0
31.215	26.0
31.23	27.0
31.245	38.0
31.259	35.0
31.274	29.0
31.289	37.0
31.303	45.0
31.318	43.0
31.333	24.0
31.347	22.0
31.362	36.0
31.377	28.0
31.392	29.0
31.406	25.0
31.421	25.0
31.436	28.0
31.45	23.0
31.465	21.0
31.48	22.0
31.494	24.0
31.509	13.0
31.524	15.0
31.538	22.0
31.553	10.0
31.568	19.0
31.583	13.0
31.597	10.0
31.612	7.0
31.627	9.0
31.641	18.0
31.656	11.0
31.671	20.0
31.685	9.0
31.7	11.0
31.715	9.0
31.729	19.0
31.744	5.0
31.759	11.0
31.774	8.0
31.788	15.0
31.803	4.0
31.818	10.0
31.832	13.0
31.847	12.0
31.862	8.0
31.876	8.0
31.891	2.0
31.906	7.0
31.92	12.0
31.935	9.0
31.95	7.0
31.965	14.0
31.979	9.0
31.994	9.0
32.009	12.0
32.023	12.0
32.038	9.0
32.053	17.0
32.067	7.0
32.082	14.0
32.097	14.0
32.112	13.0
32.126	5.0
32.141	5.0
32.156	8.0
32.17	13.0
32.185	6.0
32.2	17.0
32.214	6.0
32.229	9.0
32.244	7.0
32.259	7.0
32.273	4.0
32.288	10.0
32.303	6.0
32.317	7.0
32.332	12.0
32.347	13.0
32.362	6.0
32.376	9.0
32.391	15.0
32.406	14.0
32.42	11.0
32.435	8.0
32.45	11.0
32.465	15.0
32.479	11.0
32.494	14.0
32.509	11.0
32.523	15.0
32.538	13.0
32.553	5.0
32.568	7.0
32.582	14.0
32.597	7.0
32.612	12.0
32.627	6.0
32.641	19.0
32.656	7.0
32.671	20.0
32.685	14.0
32.7	16.0
32.715	22.0
32.73	21.0
32.744	14.0
32.759	15.0
32.774	21.0
32.788	32.0
32.803	23.0
32.818	32.0
32.833	27.0
32.847	26.0
32.862	30.0
32.877	28.0
32.892	19.0
32.906	18.0
32.921	28.0
32.936	17.0
32.951	19.0
32.965	21.0
32.98	18.0
32.995	14.0
33.009	18.0
33.024	20.0
33.039	17.0
33.054	20.0
33.068	18.0
33.083	18.0
33.098	14.0
33.113	12.0
33.127	14.0
33.142	6.0
33.157	11.0
33.172	10.0
33.186	9.0
33.201	8.0
33.216	7.0
33.231	12.0
33.245	12.0
33.26	5.0
33.275	6.0
33.29	15.0
33.304	9.0
33.319	18.0
33.334	8.0
33.349	8.0
33.363	10.0
33.378	12.0
33.393	10.0
33.408	15.0
33.422	14.0
33.437	11.0
33.452	12.0
33.467	15.0
33.481	7.0
33.496	7.0
33.511	7.0
33.526	16.0
33.54	13.0
33.555	8.0
33.57	11.0
33.585	8.0
33.599	13.0
33.614	11.0
33.629	14.0
33.644	14.0
33.658	8.0
33.673	11.0
33.688	10.0
33.703	11.0
33.718	10.0
33.732	9.0
33.747	12.0
33.762	8.0
33.777	10.0
33.791	11.0
33.806	16.0
33.821	9.0
33.836	9.0
33.85	6.0
33.865	12.0
33.88	10.0
33.895	8.0
33.91	8.0
33.924	7.0
33.939	10.0
33.954	11.0
33.969	7.0
33.983	13.0
33.998	10.0
34.013	8.0
34.028	10.0
34.042	18.0
34.057	9.0
34.072	8.0
34.087	14.0
34.102	10.0
34.116	17.0
34.131	10.0
34.146	16.0
34.161	13.0
34.175	12.0
34.19	8.0
34.205	14.0
34.22	13.0
34.235	5.0
34.249	11.0
34.264	12.0
34.279	14.0
34.294	14.0
34.309	10.0
34.323	12.0
34.338	20.0
34.353	20.0
34.368	14.0
34.382	14.0
34.397	5.0
34.412	11.0
34.427	12.0
34.442	4.0
34.456	13.0
34.471	12.0
34.486	11.0
34.501	11.0
34.516	20.0
34.53	12.0
34.545	12.0
34.56	10.0
34.575	6.0
34.59	7.0
34.604	6.0
34.619	8.0
34.634	11.0
34.649	6.0
34.664	8.0
34.678	7.0
34.693	9.0
34.708	5.0
34.723	11.0
34.738	6.0
34.752	13.0
34.767	3.0
34.782	10.0
34.797	6.0
34.812	5.0
34.826	9.0
34.841	14.0
34.856	14.0
34.871	8.0
34.886	9.0
34.9	8.0
34.915	9.0
34.93	17.0
34.945	4.0
34.96	7.0
34.974	15.0
34.989	17.0
35.004	7.0
35.019	9.0
35.034	7.0
35.048	9.0
35.063	12.0
35.078	5.0
35.093	4.0
35.108	13.0
35.122	9.0
35.137	7.0
35.152	8.0
35.167	10.0
35.182	9.0
35.196	9.0
35.211	12.0
35.226	8.0
35.241	8.0
35.256	11.0
35.27	5.0
35.285	10.0
35.3	6.0
35.315	6.0
35.33	7.0
35.344	8.0
35.359	9.0
35.374	8.0
35.389	10.0
35.404	8.0
35.418	9.0
35.433	8.0
35.448	7.0
35.463	9.0
35.478	9.0
35.493	13.0
35.507	6.0
35.522	15.0
35.537	9.0
35.552	10.0
35.567	9.0
35.581	8.0
35.596	9.0
35.611	12.0
35.626	6.0
35.641	13.0
35.655	14.0
35.67	16.0
35.685	10.0
35.7	15.0
35.715	11.0
35.729	13.0
35.744	14.0
35.759	8.0
35.774	22.0
35.789	22.0
35.804	15.0
35.818	14.0
35.833	22.0
35.848	12.0
35.863	8.0
35.878	10.0
35.892	13.0
35.907	10.0
35.922	13.0
35.937	12.0
35.952	15.0
35.966	14.0
35.981	10.0
35.996	15.0
36.011	17.0
36.026	10.0
36.04	15.0
36.055	11.0
36.07	11.0
36.085	10.0
36.1	11.0
36.114	8.0
36.129	13.0
36.144	7.0
36.159	10.0
36.174	11.0
36.189	6.0
36.203	11.0
36.218	7.0
36.233	10.0
36.248	11.0
36.263	9.0
36.277	4.0
36.292	11.0
36.307	8.0
36.322	9.0
36.337	10.0
36.351	7.0
36.366	3.0
36.381	7.0
36.396	7.0
36.411	9.0
36.426	3.0
36.44	7.0
36.455	5.0
36.47	9.0
36.485	11.0
36.5	10.0
36.514	13.0
36.529	11.0
36.544	9.0
36.559	8.0
36.574	4.0
36.589	2.0
36.603	9.0
36.618	10.0
36.633	9.0
36.648	12.0
36.663	4.0
36.677	11.0
36.692	7.0
36.707	8.0
36.722	8.0
36.737	6.0
36.752	3.0
36.766	9.0
36.781	10.0
36.796	8.0
36.811	13.0
36.826	12.0
36.841	11.0
36.855	7.0
36.87	11.0
36.885	8.0
36.9	9.0
36.915	10.0
36.93	10.0
36.944	12.0
36.959	6.0
36.974	7.0
36.989	4.0
37.004	8.0
37.019	12.0
37.033	8.0
37.048	14.0
37.063	11.0
37.078	18.0
37.093	15.0
37.108	24.0
37.123	26.0
37.137	28.0
37.152	23.0
37.167	21.0
37.182	26.0
37.197	31.0
37.212	26.0
37.226	26.0
37.241	25.0
37.256	16.0
37.271	17.0
37.286	21.0
37.301	26.0
37.316	20.0
37.331	15.0
37.345	16.0
37.36	24.0
37.375	9.0
37.39	18.0
37.405	19.0
37.42	26.0
37.435	22.0
37.45	17.0
37.464	14.0
37.479	9.0
37.494	12.0
37.509	10.0
37.524	12.0
37.539	5.0
37.554	3.0
37.569	12.0
37.583	8.0
37.598	9.0
37.613	8.0
37.628	9.0
37.643	7.0
37.658	13.0
37.673	5.0
37.688	8.0
37.703	12.0
37.718	8.0
37.733	7.0
37.747	10.0
37.762	10.0
37.777	9.0
37.792	3.0
37.807	9.0
37.822	8.0
37.837	4.0
37.852	6.0
37.867	7.0
37.882	11.0
37.897	5.0
37.912	9.0
37.927	7.0
37.941	5.0
37.956	12.0
37.971	7.0
37.986	5.0
38.001	4.0
38.016	9.0
38.031	9.0
38.046	5.0
38.061	10.0
38.076	10.0
38.091	9.0
38.106	7.0
38.121	7.0
38.136	6.0
38.151	8.0
38.166	4.0
38.181	6.0
38.196	8.0
38.211	14.0
38.226	1.0
38.241	5.0
38.256	5.0
38.271	4.0
38.285	9.0
38.3	4.0
38.315	6.0
38.33	15.0
38.345	8.0
38.36	3.0
38.375	4.0
38.39	4.0
38.405	8.0
38.42	6.0
38.435	5.0
38.45	6.0
38.465	5.0
38.48	3.0
38.495	9.0
38.51	4.0
38.525	4.0
38.54	8.0
38.555	8.0
38.57	6.0
38.585	3.0
38.6	6.0
38.615	5.0
38.63	9.0
38.645	4.0
38.66	3.0
38.675	5.0
38.69	6.0
38.705	7.0
38.72	3.0
38.735	10.0
38.75	7.0
38.765	8.0
38.78	1.0
38.795	6.0
38.81	8.0
38.825	6.0
38.84	6.0
38.855	3.0
38.87	3.0
38.885	8.0
38.9	9.0
38.915	13.0
38.93	7.0
38.945	5.0
38.96	3.0
38.975	6.0
38.99	4.0
39.005	5.0
39.02	9.0
39.035	6.0
39.05	6.0
39.065	8.0
39.08	8.0
39.095	10.0
39.11	6.0
39.125	2.0
39.14	7.0
39.155	7.0
39.17	9.0
39.185	2.0
39.2	9.0
39.215	7.0
39.23	7.0
39.245	3.0
39.26	6.0
39.275	10.0
39.29	7.0
39.305	10.0
39.32	10.0
39.335	4.0
39.35	5.0
39.365	6.0
39.38	6.0
39.395	9.0
39.409	9.0
39.424	7.0
39.439	5.0
39.454	7.0
39.469	7.0
39.484	8.0
39.499	6.0
39.514	4.0
39.529	3.0
39.544	2.0
39.559	8.0
39.574	8.0
39.589	8.0
39.604	8.0
39.619	4.0
39.634	4.0
39.649	5.0
39.664	4.0
39.678	8.0
39.693	1.0
39.708	3.0
39.723	7.0
39.738	7.0
39.753	7.0
39.768	6.0
39.783	9.0
39.798	10.0
39.813	9.0
39.827	11.0
39.842	13.0
39.857	8.0
39.872	11.0
39.887	6.0
39.902	3.0
39.917	12.0
39.932	6.0
39.947	9.0
39.961	7.0
39.976	10.0
39.991	5.0
40.006	11.0
40.021	2.0
40.036	9.0
40.051	5.0
40.065	9.0
40.08	12.0
40.095	4.0
40.11	8.0
40.125	10.0
40.14	7.0
40.154	4.0
40.169	11.0
40.184	3.0
40.199	4.0
40.214	8.0
40.228	9.0
40.243	10.0
40.258	9.0
40.273	12.0
40.288	6.0
40.302	5.0
40.317	4.0
40.332	4.0
40.347	1.0
40.362	1.0
40.376	3.0
40.391	8.0
40.406	9.0
40.421	6.0
40.436	6.0
40.45	8.0
40.465	6.0
40.48	4.0
40.495	4.0
40.509	5.0
40.524	6.0
40.539	9.0
40.554	8.0
40.568	2.0
40.583	11.0
40.598	4.0
40.613	4.0
40.627	4.0
40.642	4.0
40.657	8.0
40.672	11.0
40.686	5.0
40.701	7.0
40.716	5.0
40.731	5.0
40.745	3.0
40.76	8.0
40.775	6.0
40.79	7.0
40.804	8.0
40.819	3.0
40.834	5.0
40.849	8.0
40.863	6.0
40.878	3.0
40.893	3.0
40.907	3.0
40.922	6.0
40.937	4.0
40.952	5.0
40.966	12.0
40.981	12.0
40.996	8.0
41.011	11.0
41.025	12.0
41.04	10.0
41.055	13.0
41.069	18.0
41.084	18.0
41.099	26.0
41.114	29.0
41.128	20.0
41.143	12.0
41.158	13.0
41.173	27.0
41.187	20.0
41.202	14.0
41.217	12.0
41.231	15.0
41.246	13.0
41.261	10.0
41.276	13.0
41.29	13.0
41.305	7.0
41.32	6.0
41.335	12.0
41.349	13.0
41.364	13.0
41.379	14.0
41.393	17.0
41.408	14.0
41.423	9.0
41.438	14.0
41.452	8.0
41.467	16.0
41.482	11.0
41.497	9.0
41.511	4.0
41.526	11.0
41.541	5.0
41.556	9.0
41.57	8.0
41.585	6.0
41.6	6.0
41.615	6.0
41.629	8.0
41.644	5.0
41.659	5.0
41.674	7.0
41.688	2.0
41.703	5.0
41.718	6.0
41.733	5.0
41.747	8.0
41.762	7.0
41.777	6.0
41.792	9.0
41.806	10.0
41.821	3.0
41.836	6.0
41.851	3.0
41.866	4.0
41.88	4.0
41.895	6.0
41.91	6.0
41.925	4.0
41.939	6.0
41.954	10.0
41.969	2.0
41.984	7.0
41.999	3.0
42.013	5.0
42.028	5.0
42.043	10.0
42.058	1.0
42.073	7.0
42.088	8.0
42.102	8.0
42.117	6.0
42.132	7.0
42.147	8.0
42.162	11.0
42.176	6.0
42.191	4.0
42.206	7.0
42.221	10.0
42.236	12.0
42.251	14.0
42.266	8.0
42.28	8.0
42.295	10.0
42.31	8.0
42.325	9.0
42.34	13.0
42.355	13.0
42.369	11.0
42.384	16.0
42.399	24.0
42.414	19.0
42.429	15.0
42.444	12.0
42.459	11.0
42.474	22.0
42.488	17.0
42.503	12.0
42.518	5.0
42.533	11.0
42.548	11.0
42.563	8.0
42.578	15.0
42.593	9.0
42.608	7.0
42.622	12.0
42.637	10.0
42.652	11.0
42.667	15.0
42.682	14.0
42.697	16.0
42.712	9.0
42.727	9.0
42.742	9.0
42.757	12.0
42.772	7.0
42.786	7.0
42.801	7.0
42.816	5.0
42.831	5.0
42.846	5.0
42.861	12.0
42.876	10.0
42.891	7.0
42.906	5.0
42.921	6.0
42.936	9.0
42.951	5.0
42.966	6.0
42.981	5.0
42.996	5.0
43.011	6.0
43.025	7.0
43.04	4.0
43.055	3.0
43.07	5.0
43.085	7.0
43.1	3.0
43.115	6.0
43.13	10.0
43.145	8.0
43.16	6.0
43.175	7.0
43.19	7.0
43.205	8.0
43.22	4.0
43.235	7.0
43.25	3.0
43.265	5.0
43.28	3.0
43.295	9.0
43.31	3.0
43.325	4.0
43.34	8.0
43.355	4.0
43.37	10.0
43.385	4.0
43.4	8.0
43.415	5.0
43.43	4.0
43.445	10.0
43.46	8.0
43.475	10.0
43.49	11.0
43.505	10.0
43.52	9.0
43.535	7.0
43.55	6.0
43.565	11.0
43.58	3.0
43.595	6.0
43.61	8.0
43.625	7.0
43.64	4.0
43.655	5.0
43.67	9.0
43.685	11.0
43.7	9.0
43.715	4.0
43.73	6.0
43.745	7.0
43.76	6.0
43.775	4.0
43.79	9.0
43.805	11.0
43.82	6.0
43.835	14.0
43.85	6.0
43.865	5.0
43.88	9.0
43.895	7.0
43.91	6.0
43.925	4.0
43.94	6.0
43.955	9.0
43.97	7.0
43.985	9.0
44.0	1.0
44.015	6.0
44.03	5.0
44.045	6.0
44.061	5.0
44.076	6.0
44.091	4.0
44.106	7.0
44.121	6.0
44.136	6.0
44.151	5.0
44.166	2.0
44.181	2.0
44.196	7.0
44.211	1.0
44.226	7.0
44.241	7.0
44.256	5.0
44.271	4.0
44.286	4.0
44.301	8.0
44.316	5.0
44.331	6.0
44.346	8.0
44.361	8.0
44.377	5.0
44.392	3.0
44.407	4.0
44.422	6.0
44.437	3.0
44.452	9.0
44.467	3.0
44.482	2.0
44.497	3.0
44.512	5.0
44.527	4.0
44.542	4.0
44.557	6.0
44.572	4.0
44.587	6.0
44.602	4.0
44.617	4.0
44.632	8.0
44.647	7.0
44.663	8.0
44.678	6.0
44.693	8.0
44.708	3.0
44.723	9.0
44.738	11.0
44.753	9.0
44.768	11.0
44.783	6.0
44.798	10.0
44.813	13.0
44.828	9.0
44.843	19.0
44.858	7.0
44.873	15.0
44.888	10.0
44.903	6.0
44.918	12.0
44.933	8.0
44.948	11.0
44.964	3.0
44.979	8.0
44.994	6.0
45.009	5.0
45.024	6.0
45.039	7.0
45.054	5.0
45.069	7.0
45.084	7.0
45.099	2.0
45.114	10.0
45.129	9.0
45.144	6.0
45.159	4.0
45.174	9.0
45.189	5.0
45.204	4.0
45.219	5.0
45.234	8.0
45.249	9.0
45.264	7.0
45.279	5.0
45.294	5.0
45.309	4.0
45.324	9.0
45.339	7.0
45.354	2.0
45.369	4.0
45.384	5.0
45.399	5.0
45.414	4.0
45.429	4.0
45.444	6.0
45.459	6.0
45.474	3.0
45.489	3.0
45.504	6.0
45.519	5.0
45.534	4.0
45.549	4.0
45.564	2.0
45.579	4.0
45.594	6.0
45.609	3.0
45.624	4.0
45.639	6.0
45.654	6.0
45.669	6.0
45.684	4.0
45.699	6.0
45.714	4.0
45.729	7.0
45.744	4.0
45.759	8.0
45.774	3.0
45.789	4.0
45.804	3.0
45.819	8.0
45.834	5.0
45.849	12.0
45.864	3.0
45.879	8.0
45.894	7.0
45.909	8.0
45.924	12.0
45.939	14.0
45.954	15.0
45.969	14.0
45.984	11.0
45.998	10.0
46.013	20.0
46.028	14.0
46.043	10.0
46.058	13.0
46.073	14.0
46.088	4.0
46.103	6.0
46.118	9.0
46.133	2.0
46.148	7.0
46.163	12.0
46.178	4.0
46.192	6.0
46.207	11.0
46.222	7.0
46.237	11.0
46.252	9.0
46.267	7.0
46.282	9.0
46.297	11.0
46.312	20.0
46.327	10.0
46.341	6.0
46.356	9.0
46.371	6.0
46.386	5.0
46.401	4.0
46.416	7.0
46.431	7.0
46.446	10.0
46.46	10.0
46.475	7.0
46.49	8.0
46.505	6.0
46.52	3.0
46.535	2.0
46.55	4.0
46.564	5.0
46.579	2.0
46.594	3.0
46.609	6.0
46.624	8.0
46.639	8.0
46.654	7.0
46.668	4.0
46.683	3.0
46.698	5.0
46.713	7.0
46.728	5.0
46.743	4.0
46.758	6.0
46.772	2.0
46.787	6.0
46.802	3.0
46.817	3.0
46.832	8.0
46.847	9.0
46.861	6.0
46.876	4.0
46.891	6.0
46.906	5.0
46.921	8.0
46.936	3.0
46.95	6.0
46.965	4.0
46.98	5.0
46.995	4.0
47.01	5.0
47.025	4.0
47.039	11.0
47.054	5.0
47.069	8.0
47.084	7.0
47.099	6.0
47.113	10.0
47.128	9.0
47.143	17.0
47.158	5.0
47.173	4.0
47.188	9.0
47.202	4.0
47.217	10.0
47.232	6.0
47.247	6.0
47.262	4.0
47.277	3.0
47.291	7.0
47.306	2.0
47.321	10.0
47.336	6.0
47.351	3.0
47.365	4.0
47.38	8.0
47.395	8.0
47.41	5.0
47.425	10.0
47.44	10.0
47.454	10.0
47.469	5.0
47.484	10.0
47.499	7.0
47.514	10.0
47.528	3.0
47.543	10.0
47.558	9.0
47.573	6.0
47.588	6.0
47.603	2.0
47.617	5.0
47.632	6.0
47.647	3.0
47.662	5.0
47.677	9.0
47.691	2.0
47.706	5.0
47.721	5.0
47.736	9.0
47.751	5.0
47.766	8.0
47.78	2.0
47.795	4.0
47.81	5.0
47.825	6.0
47.84	2.0
47.855	6.0
47.869	0.0
47.884	3.0
47.899	7.0
47.914	7.0
47.929	6.0
47.944	6.0
47.958	8.0
47.973	3.0
47.988	3.0
48.003	11.0
48.018	5.0
48.033	1.0
48.047	10.0
48.062	5.0
48.077	3.0
48.092	8.0
48.107	5.0
48.122	2.0
48.137	3.0
48.151	6.0
48.166	6.0
48.181	4.0
48.196	7.0
48.211	4.0
48.226	2.0
48.241	4.0
48.255	5.0
48.27	3.0
48.285	4.0
48.3	3.0
48.315	0.0
48.33	6.0
48.345	2.0
48.359	2.0
48.374	6.0
48.389	4.0
48.404	2.0
48.419	4.0
48.434	3.0
48.449	4.0
48.464	4.0
48.478	8.0
48.493	6.0
48.508	5.0
48.523	4.0
48.538	5.0
48.553	2.0
48.568	4.0
48.583	5.0
48.597	3.0
48.612	0.0
48.627	8.0
48.642	1.0
48.657	3.0
48.672	4.0
48.687	5.0
48.702	4.0
48.717	3.0
48.731	2.0
48.746	3.0
48.761	9.0
48.776	5.0
48.791	5.0
48.806	2.0
48.821	3.0
48.836	5.0
48.851	3.0
48.866	4.0
48.88	6.0
48.895	0.0
48.91	6.0
48.925	3.0
48.94	3.0
48.955	1.0
48.97	5.0
48.985	4.0
49.0	5.0
49.015	4.0
49.03	7.0
49.044	5.0
49.059	4.0
49.074	7.0
49.089	4.0
49.104	3.0
49.119	5.0
49.134	5.0
49.149	7.0
49.164	1.0
49.179	2.0
49.194	4.0
49.209	6.0
49.224	5.0
49.238	6.0
49.253	6.0
49.268	8.0
49.283	9.0
49.298	7.0
49.313	6.0
49.328	6.0
49.343	18.0
49.358	8.0
49.373	8.0
49.388	5.0
49.403	5.0
49.418	7.0
49.433	2.0
49.448	3.0
49.463	6.0
49.478	2.0
49.492	6.0
49.507	4.0
49.522	2.0
49.537	5.0
49.552	5.0
49.567	6.0
49.582	3.0
49.597	8.0
49.612	4.0
49.627	5.0
49.642	10.0
49.657	3.0
49.672	8.0
49.687	5.0
49.702	9.0
49.717	7.0
49.732	5.0
49.747	4.0
49.762	1.0
49.777	6.0
49.792	2.0
49.807	2.0
49.822	3.0
49.837	5.0
49.852	8.0
49.867	7.0
49.882	10.0
49.897	7.0
49.912	5.0
49.927	3.0
49.942	4.0
49.957	8.0
49.971	7.0
49.986	5.0
50.001	4.0
50.016	6.0
50.031	6.0
50.046	4.0
50.061	4.0
50.076	5.0
50.091	1.0
50.106	6.0
50.121	5.0
50.136	4.0
50.151	5.0
50.166	7.0
50.181	8.0
50.196	6.0
50.211	3.0
50.226	3.0
50.241	5.0
50.256	2.0
50.271	5.0
50.286	7.0
50.302	5.0
50.317	6.0
50.332	2.0
50.347	6.0
50.362	3.0
50.377	3.0
50.392	10.0
50.407	4.0
50.422	7.0
50.437	4.0
50.452	5.0
50.467	8.0
50.482	8.0
50.497	4.0
50.512	9.0
50.527	10.0
50.542	10.0
50.557	9.0
50.572	5.0
50.587	4.0
50.602	11.0
50.617	5.0
50.632	2.0
50.647	8.0
50.662	3.0
50.677	7.0
50.692	4.0
50.707	5.0
50.722	4.0
50.737	6.0
50.752	6.0
50.767	3.0
50.782	8.0
50.797	8.0
50.812	9.0
50.828	7.0
50.843	7.0
50.858	5.0
50.873	4.0
50.888	4.0
50.903	5.0
50.918	2.0
50.933	10.0
50.948	6.0
50.963	5.0
50.978	6.0
50.993	4.0
51.008	7.0
51.023	3.0
51.038	3.0
51.053	5.0
51.068	6.0
51.083	6.0
51.098	7.0
51.114	4.0
51.129	7.0
51.144	6.0
51.159	7.0
51.174	5.0
51.189	9.0
51.204	4.0
51.219	3.0
51.234	10.0
51.249	8.0
51.264	6.0
51.279	3.0
51.294	3.0
51.309	5.0
51.324	6.0
51.34	4.0
51.355	6.0
51.37	4.0
51.385	12.0
51.4	4.0
51.415	18.0
51.43	3.0
51.445	11.0
51.46	12.0
51.475	14.0
51.49	9.0
51.505	21.0
51.52	14.0
51.535	20.0
51.551	10.0
51.566	10.0
51.581	12.0
51.596	10.0
51.611	13.0
51.626	11.0
51.641	10.0
51.656	6.0
51.671	8.0
51.686	6.0
51.701	4.0
51.716	5.0
51.732	7.0
51.747	8.0
51.762	8.0
51.777	13.0
51.792	13.0
51.807	7.0
51.822	11.0
51.837	11.0
51.852	13.0
51.867	12.0
51.882	10.0
51.898	14.0
51.913	6.0
51.928	7.0
51.943	9.0
51.958	11.0
51.973	6.0
51.988	3.0
52.003	6.0
52.018	5.0
52.033	8.0
52.048	4.0
52.064	7.0
52.079	4.0
52.094	4.0
52.109	1.0
52.124	5.0
52.139	4.0
52.154	8.0
52.169	8.0
52.184	5.0
52.199	3.0
52.215	5.0
52.23	9.0
52.245	13.0
52.26	5.0
52.275	7.0
52.29	8.0
52.305	5.0
52.32	6.0
52.335	8.0
52.35	2.0
52.366	3.0
52.381	11.0
52.396	7.0
52.411	5.0
52.426	4.0
52.441	3.0
52.456	6.0
52.471	6.0
52.486	7.0
52.502	3.0
52.517	3.0
52.532	10.0
52.547	11.0
52.562	14.0
52.577	8.0
52.592	8.0
52.607	8.0
52.622	6.0
52.637	9.0
52.653	11.0
52.668	6.0
52.683	11.0
52.698	7.0
52.713	6.0
52.728	4.0
52.743	6.0
52.758	3.0
52.774	7.0
52.789	6.0
52.804	6.0
52.819	6.0
52.834	7.0
52.849	7.0
52.864	9.0
52.879	6.0
52.894	5.0
52.91	7.0
52.925	8.0
52.94	7.0
52.955	7.0
52.97	11.0
52.985	3.0
53.0	6.0
53.015	12.0
53.031	4.0
53.046	5.0
53.061	8.0
53.076	1.0
53.091	2.0
53.106	3.0
53.121	6.0
53.136	7.0
53.152	9.0
53.167	7.0
53.182	7.0
53.197	7.0
53.212	3.0
53.227	6.0
53.242	6.0
53.257	4.0
53.273	3.0
53.288	5.0
53.303	4.0
53.318	8.0
53.333	4.0
53.348	8.0
53.363	4.0
53.379	5.0
53.394	3.0
53.409	7.0
53.424	2.0
53.439	6.0
53.454	8.0
53.469	9.0
53.484	1.0
53.5	6.0
53.515	5.0
53.53	4.0
53.545	7.0
53.56	5.0
53.575	2.0
53.59	8.0
53.606	2.0
53.621	3.0
53.636	6.0
53.651	3.0
53.666	10.0
53.681	11.0
53.696	7.0
53.712	3.0
53.727	5.0
53.742	2.0
53.757	8.0
53.772	2.0
53.787	5.0
53.802	4.0
53.818	1.0
53.833	4.0
53.848	6.0
53.863	4.0
53.878	6.0
53.893	5.0
53.909	6.0
53.924	2.0
53.939	3.0
53.954	5.0
53.969	4.0
53.984	4.0
53.999	2.0
54.015	2.0
54.03	4.0
54.045	3.0
54.06	3.0
54.075	4.0
54.09	4.0
54.106	6.0
54.121	7.0
54.136	5.0
54.151	5.0
54.166	3.0
54.181	3.0
54.197	6.0
54.212	5.0
54.227	2.0
54.242	4.0
54.257	7.0
54.272	3.0
54.288	1.0
54.303	4.0
54.318	6.0
54.333	9.0
54.348	9.0
54.363	5.0
54.379	3.0
54.394	5.0
54.409	4.0
54.424	3.0
54.439	5.0
54.454	7.0
54.47	5.0
54.485	4.0
54.5	11.0
54.515	7.0
54.53	4.0
54.545	6.0
54.561	10.0
54.576	12.0
54.591	10.0
54.606	10.0
54.621	17.0
54.636	10.0
54.652	16.0
54.667	17.0
54.682	10.0
54.697	17.0
54.712	14.0
54.727	10.0
54.743	7.0
54.758	9.0
54.773	8.0
54.788	5.0
54.803	5.0
54.819	6.0
54.834	10.0
54.849	7.0
54.864	6.0
54.879	9.0
54.894	3.0
54.91	8.0
54.925	5.0
54.94	11.0
54.955	8.0
54.97	6.0
54.985	9.0
55.001	10.0
55.016	7.0
55.031	8.0
55.046	5.0
55.061	10.0
55.077	6.0
55.092	9.0
55.107	2.0
55.122	2.0
55.137	6.0
55.152	7.0
55.168	1.0
55.183	3.0
55.198	4.0
55.213	6.0
55.228	5.0
55.243	10.0
55.259	1.0
55.274	5.0
55.289	6.0
55.304	2.0
55.319	3.0
55.335	6.0
55.35	8.0
55.365	2.0
55.38	3.0
55.395	1.0
55.41	2.0
55.426	6.0
55.441	2.0
55.456	5.0
55.471	6.0
55.486	8.0
55.501	2.0
55.517	3.0
55.532	4.0
55.547	6.0
55.562	0.0
55.577	7.0
55.592	10.0
55.608	10.0
55.623	6.0
55.638	7.0
55.653	3.0
55.668	5.0
55.683	3.0
55.699	4.0
55.714	10.0
55.729	4.0
55.744	5.0
55.759	7.0
55.774	2.0
55.79	7.0
55.805	3.0
55.82	8.0
55.835	10.0
55.85	6.0
55.865	8.0
55.881	3.0
55.896	4.0
55.911	8.0
55.926	3.0
55.941	11.0
55.956	4.0
55.972	11.0
55.987	12.0
56.002	2.0
56.017	2.0
56.032	4.0
56.047	11.0
56.063	5.0
56.078	5.0
56.093	1.0
56.108	6.0
56.123	6.0
56.138	1.0
56.154	1.0
56.169	5.0
56.184	8.0
56.199	8.0
56.214	3.0
56.229	5.0
56.244	9.0
56.26	4.0
56.275	3.0
56.29	5.0
56.305	5.0
56.32	6.0
56.335	5.0
56.351	2.0
56.366	7.0
56.381	4.0
56.396	6.0
56.411	7.0
56.426	2.0
56.441	7.0
56.457	5.0
56.472	3.0
56.487	2.0
56.502	5.0
56.517	3.0
56.532	10.0
56.547	5.0
56.563	9.0
56.578	7.0
56.593	6.0
56.608	3.0
56.623	7.0
56.638	4.0
56.653	3.0
56.668	3.0
56.684	3.0
56.699	4.0
56.714	5.0
56.729	6.0
56.744	3.0
56.759	4.0
56.774	8.0
56.79	6.0
56.805	1.0
56.82	1.0
56.835	2.0
56.85	5.0
56.865	3.0
56.88	0.0
56.895	5.0
56.911	4.0
56.926	6.0
56.941	3.0
56.956	5.0
56.971	2.0
56.986	3.0
57.001	4.0
57.016	4.0
57.031	7.0
57.047	3.0
57.062	3.0
57.077	4.0
57.092	3.0
57.107	2.0
57.122	5.0
57.137	2.0
57.152	6.0
57.167	3.0
57.183	4.0
57.198	5.0
57.213	6.0
57.228	5.0
57.243	1.0
57.258	3.0
57.273	3.0
57.288	6.0
57.303	8.0
57.318	5.0
57.334	7.0
57.349	5.0
57.364	1.0
57.379	4.0
57.394	4.0
57.409	1.0
57.424	1.0
57.439	4.0
57.454	4.0
57.469	4.0
57.484	4.0
57.5	7.0
57.515	6.0
57.53	4.0
57.545	4.0
57.56	4.0
57.575	6.0
57.59	8.0
57.605	8.0
57.62	2.0
57.635	5.0
57.65	4.0
57.665	5.0
57.68	0.0
57.696	6.0
57.711	4.0
57.726	3.0
57.741	2.0
57.756	4.0
57.771	7.0
57.786	3.0
57.801	2.0
57.816	4.0
57.831	1.0
57.846	5.0
57.861	6.0
57.876	2.0
57.891	7.0
57.906	2.0
57.921	4.0
57.937	7.0
57.952	5.0
57.967	6.0
57.982	5.0
57.997	7.0
58.012	5.0
58.027	3.0
58.042	6.0
58.057	6.0
58.072	6.0
58.087	5.0
58.102	3.0
58.117	5.0
58.132	2.0
58.147	3.0
58.162	4.0
58.177	5.0
58.192	3.0
58.207	2.0
58.222	2.0
58.237	2.0
58.252	6.0
58.267	4.0
58.282	6.0
58.297	7.0
58.312	3.0
58.327	6.0
58.342	2.0
58.357	4.0
58.372	3.0
58.387	8.0
58.402	6.0
58.418	5.0
58.433	5.0
58.448	7.0
58.463	3.0
58.478	8.0
58.493	5.0
58.508	1.0
58.523	2.0
58.538	6.0
58.553	3.0
58.568	11.0
58.583	3.0
58.598	3.0
58.613	6.0
58.628	5.0
58.643	8.0
58.658	9.0
58.673	14.0
58.688	6.0
58.703	10.0
58.718	5.0
58.733	7.0
58.748	6.0
58.763	8.0
58.778	4.0
58.793	5.0
58.808	6.0
58.823	4.0
58.838	7.0
58.853	3.0
58.868	3.0
58.883	4.0
58.898	6.0
58.913	3.0
58.928	5.0
58.942	12.0
58.957	7.0
58.972	13.0
58.987	5.0
59.002	9.0
59.017	6.0
59.032	8.0
59.047	4.0
59.062	7.0
59.077	3.0
59.092	7.0
59.107	7.0
59.122	7.0
59.137	5.0
59.152	7.0
59.167	5.0
59.182	1.0
59.197	3.0
59.212	2.0
59.227	2.0
59.242	0.0
59.257	5.0
59.272	7.0
59.287	1.0
59.302	3.0
59.317	2.0
59.332	2.0
59.347	4.0
59.362	1.0
59.377	1.0
59.392	4.0
59.407	8.0
59.422	6.0
59.437	3.0
59.452	6.0
59.467	3.0
59.482	6.0
59.497	5.0
59.512	4.0
59.527	4.0
59.542	4.0
59.557	7.0
59.572	8.0
59.587	8.0
59.602	7.0
59.617	6.0
59.632	12.0
59.647	4.0
59.661	9.0
59.676	11.0
59.691	7.0
59.706	4.0
59.721	9.0
59.736	6.0
59.751	5.0
59.766	4.0
59.781	4.0
59.796	4.0
59.811	2.0
59.826	2.0
59.841	2.0
59.856	2.0
59.871	5.0
59.886	4.0
59.901	6.0
59.916	4.0
59.931	8.0
59.946	5.0
59.961	4.0
59.976	7.0
59.991	5.0
60.006	2.0
60.021	7.0
60.036	4.0
60.051	7.0
60.066	3.0
60.081	8.0
60.096	5.0
60.111	6.0
60.126	4.0
60.141	4.0
60.156	3.0
60.171	1.0
60.186	1.0
60.201	3.0
60.216	5.0
60.231	5.0
60.246	5.0
60.261	5.0
60.276	5.0
60.291	4.0
60.306	4.0
60.321	3.0
60.336	6.0
60.35	2.0
60.365	7.0
60.38	4.0
60.395	2.0
60.41	10.0
60.425	7.0
60.44	5.0
60.455	3.0
60.47	7.0
60.485	7.0
60.5	8.0
60.515	6.0
60.53	11.0
60.545	10.0
60.56	9.0
60.575	10.0
60.59	3.0
60.605	5.0
60.62	13.0
60.635	11.0
60.65	5.0
60.665	5.0
60.68	4.0
60.695	4.0
60.71	6.0
60.725	2.0
60.74	2.0
60.755	1.0
60.77	4.0
60.785	3.0
60.8	3.0
60.815	5.0
60.83	4.0
60.845	3.0
60.86	3.0
60.875	5.0
60.89	7.0
60.905	3.0
60.92	6.0
60.935	4.0
60.95	9.0
60.965	7.0
60.98	5.0
60.995	6.0
61.01	3.0
61.025	8.0
61.04	5.0
61.055	5.0
61.07	5.0
61.085	0.0
61.1	6.0
61.115	7.0
61.13	12.0
61.145	1.0
61.16	6.0
61.175	1.0
61.191	4.0
61.206	4.0
61.221	5.0
61.236	4.0
61.251	7.0
61.266	3.0
61.281	2.0
61.296	3.0
61.311	6.0
61.326	1.0
61.341	3.0
61.356	5.0
61.371	4.0
61.386	3.0
61.401	2.0
61.416	3.0
61.431	4.0
61.446	3.0
61.461	4.0
61.476	5.0
61.491	6.0
61.506	5.0
61.521	5.0
61.536	2.0
61.551	6.0
61.566	6.0
61.581	2.0
61.596	9.0
61.611	1.0
61.626	2.0
61.641	3.0
61.656	2.0
61.672	0.0
61.687	6.0
61.702	3.0
61.717	3.0
61.732	6.0
61.747	3.0
61.762	4.0
61.777	5.0
61.792	7.0
61.807	6.0
61.822	5.0
61.837	4.0
61.852	2.0
61.867	4.0
61.882	7.0
61.897	7.0
61.912	5.0
61.927	8.0
61.943	3.0
61.958	5.0
61.973	2.0
61.988	3.0
62.003	3.0
62.018	1.0
62.033	6.0
62.048	2.0
62.063	1.0
62.078	2.0
62.093	3.0
62.108	2.0
62.123	4.0
62.138	3.0
62.153	8.0
62.169	5.0
62.184	5.0
62.199	4.0
62.214	5.0
62.229	5.0
62.244	3.0
62.259	5.0
62.274	1.0
62.289	2.0
62.304	5.0
62.319	2.0
62.335	3.0
62.35	5.0
62.365	2.0
62.38	4.0
62.395	6.0
62.41	4.0
62.425	7.0
62.44	6.0
62.455	5.0
62.47	5.0
62.485	7.0
62.501	8.0
62.516	2.0
62.531	4.0
62.546	4.0
62.561	2.0
62.576	5.0
62.591	3.0
62.606	5.0
62.621	6.0
62.636	5.0
62.652	3.0
62.667	8.0
62.682	5.0
62.697	3.0
62.712	4.0
62.727	7.0
62.742	4.0
62.757	4.0
62.772	3.0
62.787	2.0
62.803	4.0
62.818	2.0
62.833	6.0
62.848	5.0
62.863	5.0
62.878	1.0
62.893	7.0
62.908	3.0
62.923	6.0
62.939	6.0
62.954	7.0
62.969	3.0
62.984	2.0
62.999	5.0
63.014	4.0
63.029	3.0
63.044	1.0
63.059	3.0
63.074	5.0
63.09	1.0
63.105	6.0
63.12	5.0
63.135	2.0
63.15	3.0
63.165	2.0
63.18	3.0
63.195	3.0
63.21	6.0
63.226	5.0
63.241	4.0
63.256	4.0
63.271	6.0
63.286	3.0
63.301	3.0
63.316	8.0
63.331	5.0
63.346	6.0
63.362	1.0
63.377	5.0
63.392	7.0
63.407	8.0
63.422	9.0
63.437	4.0
63.452	7.0
63.467	5.0
63.482	6.0
63.497	7.0
63.513	6.0
63.528	9.0
63.543	4.0
63.558	4.0
63.573	5.0
63.588	3.0
63.603	6.0
63.618	5.0
63.633	5.0
63.648	3.0
63.664	4.0
63.679	3.0
63.694	5.0
63.709	5.0
63.724	5.0
63.739	5.0
63.754	7.0
63.769	5.0
63.784	5.0
63.799	8.0
63.814	6.0
63.83	12.0
63.845	5.0
63.86	7.0
63.875	2.0
63.89	4.0
63.905	3.0
63.92	2.0
63.935	5.0
63.95	4.0
63.965	3.0
63.98	3.0
63.996	4.0
64.011	5.0
64.026	3.0
64.041	6.0
64.056	5.0
64.071	5.0
64.086	3.0
64.101	8.0
64.116	4.0
64.131	4.0
64.146	5.0
64.161	8.0
64.176	3.0
64.191	6.0
64.207	5.0
64.222	1.0
64.237	5.0
64.252	3.0
64.267	3.0
64.282	2.0
64.297	5.0
64.312	8.0
64.327	6.0
64.342	3.0
64.357	5.0
64.372	2.0
64.387	3.0
64.402	5.0
64.417	3.0
64.433	5.0
64.448	1.0
64.463	5.0
64.478	2.0
64.493	5.0
64.508	5.0
64.523	3.0
64.538	2.0
64.553	2.0
64.568	3.0
64.583	2.0
64.598	3.0
64.613	4.0
64.628	3.0
64.643	4.0
64.658	2.0
64.673	3.0
64.688	5.0
64.703	8.0
64.718	3.0
64.734	4.0
64.749	4.0
64.764	7.0
64.779	4.0
64.794	5.0
64.809	4.0
64.824	5.0
64.839	3.0
64.854	3.0
64.869	5.0
64.884	4.0
64.899	7.0
64.914	4.0
64.929	6.0
64.944	4.0
64.959	4.0
64.974	3.0
64.989	6.0
65.004	2.0
65.019	3.0
65.034	2.0
65.049	1.0
65.064	2.0
65.079	6.0
65.094	7.0
65.109	4.0
65.125	3.0
65.14	6.0
65.155	7.0
65.17	4.0
65.185	4.0
65.2	6.0
65.215	4.0
65.23	1.0
65.245	3.0
65.26	6.0
65.275	8.0
65.29	9.0
65.305	9.0
65.32	7.0
65.335	1.0
65.35	8.0
65.365	2.0
65.38	7.0
65.395	2.0
65.41	1.0
65.425	1.0
65.44	3.0
65.455	5.0
65.47	4.0
65.485	1.0
65.5	3.0
65.515	5.0
65.53	2.0
65.545	6.0
65.56	3.0
65.575	6.0
65.59	1.0
65.605	2.0
65.62	3.0
65.635	3.0
65.65	3.0
65.666	5.0
65.681	4.0
65.696	8.0
65.711	8.0
65.726	2.0
65.741	2.0
65.756	5.0
65.771	5.0
65.786	1.0
65.801	1.0
65.816	5.0
65.831	5.0
65.846	7.0
65.861	4.0
65.876	2.0
65.891	5.0
65.906	2.0
65.921	3.0
65.936	3.0
65.951	4.0
65.966	4.0
65.981	3.0
65.996	7.0
66.011	5.0
66.026	5.0
66.041	8.0
66.056	6.0
66.071	5.0
66.086	4.0
66.101	5.0
66.116	6.0
66.131	7.0
66.146	9.0
66.161	5.0
66.176	5.0
66.191	7.0
66.206	6.0
66.221	12.0
66.236	4.0
66.251	8.0
66.266	9.0
66.281	5.0
66.296	7.0
66.311	5.0
66.327	4.0
66.342	6.0
66.357	3.0
66.372	2.0
66.387	2.0
66.402	6.0
66.417	5.0
66.432	4.0
66.447	3.0
66.462	2.0
66.477	9.0
66.492	5.0
66.507	3.0
66.522	5.0
66.537	1.0
66.552	3.0
66.567	5.0
66.582	9.0
66.597	8.0
66.612	8.0
66.627	2.0
66.642	4.0
66.657	4.0
66.672	3.0
66.687	7.0
66.702	6.0
66.717	7.0
66.732	3.0
66.747	3.0
66.762	6.0
66.777	4.0
66.792	5.0
66.807	8.0
66.822	6.0
66.837	5.0
66.853	8.0
66.868	3.0
66.883	6.0
66.898	2.0
66.913	3.0
66.928	3.0
66.943	2.0
66.958	6.0
66.973	4.0
66.988	4.0
67.003	3.0
67.018	8.0
67.033	4.0
67.048	4.0
67.063	5.0
67.078	6.0
67.093	3.0
67.108	4.0
67.123	9.0
67.138	2.0
67.153	5.0
67.168	7.0
67.183	5.0
67.198	7.0
67.214	4.0
67.229	2.0
67.244	5.0
67.259	2.0
67.274	5.0
67.289	3.0
67.304	0.0
67.319	2.0
67.334	4.0
67.349	2.0
67.364	3.0
67.379	5.0
67.394	2.0
67.409	4.0
67.424	4.0
67.439	5.0
67.454	4.0
67.469	3.0
67.484	6.0
67.5	3.0
67.515	4.0
67.53	2.0
67.545	9.0
67.56	5.0
67.575	7.0
67.59	6.0
67.605	2.0
67.62	5.0
67.635	5.0
67.65	6.0
67.665	7.0
67.68	4.0
67.695	2.0
67.71	7.0
67.726	4.0
67.741	1.0
67.756	3.0
67.771	6.0
67.786	6.0
67.801	3.0
67.816	3.0
67.831	6.0
67.846	4.0
67.861	4.0
67.876	3.0
67.891	9.0
67.906	1.0
67.922	6.0
67.937	4.0
67.952	4.0
67.967	5.0
67.982	6.0
67.997	3.0
68.012	6.0
68.027	0.0
68.042	5.0
68.057	6.0
68.072	3.0
68.087	5.0
68.103	7.0
68.118	1.0
68.133	1.0
68.148	1.0
68.163	4.0
68.178	3.0
68.193	0.0
68.208	5.0
68.223	3.0
68.238	5.0
68.254	4.0
68.269	2.0
68.284	2.0
68.299	5.0
68.314	3.0
68.329	1.0
68.344	7.0
68.359	5.0
68.374	2.0
68.389	5.0
68.405	3.0
68.42	0.0
68.435	2.0
68.45	1.0
68.465	2.0
68.48	4.0
68.495	7.0
68.51	5.0
68.525	3.0
68.54	0.0
68.556	5.0
68.571	6.0
68.586	6.0
68.601	5.0
68.616	6.0
68.631	1.0
68.646	6.0
68.661	2.0
68.676	4.0
68.691	6.0
68.707	2.0
68.722	1.0
68.737	3.0
68.752	3.0
68.767	2.0
68.782	4.0
68.797	2.0
68.812	4.0
68.827	7.0
68.842	1.0
68.857	2.0
68.873	4.0
68.888	3.0
68.903	0.0
68.918	4.0
68.933	3.0
68.948	6.0
68.963	10.0
68.978	5.0
68.993	5.0
69.008	5.0
69.023	4.0
69.038	4.0
69.054	2.0
69.069	2.0
69.084	1.0
69.099	1.0
69.114	6.0
69.129	3.0
69.144	8.0
69.159	7.0
69.174	3.0
69.189	5.0
69.204	1.0
69.219	6.0
69.234	6.0
69.249	1.0
69.264	3.0
69.279	6.0
69.295	5.0
69.31	6.0
69.325	4.0
69.34	4.0
69.355	3.0
69.37	6.0
69.385	5.0
69.4	5.0
69.415	3.0
69.43	5.0
69.445	3.0
69.46	5.0
69.475	7.0
69.49	6.0
69.505	7.0
69.52	3.0
69.535	1.0
69.55	6.0
69.565	6.0
69.58	3.0
69.595	3.0
69.61	4.0
69.625	1.0
69.64	4.0
69.655	2.0
69.67	4.0
69.685	7.0
69.7	4.0
69.715	1.0
69.73	5.0
69.745	10.0
69.76	5.0
69.775	4.0
69.79	2.0
69.805	8.0
69.82	3.0
69.835	7.0
69.85	8.0
69.865	5.0
69.88	4.0
69.895	5.0
69.909	3.0
69.924	3.0
69.939	4.0
69.954	0.0
69.969	2.0
69.984	3.0
69.999	4.0
70.014	6.0
70.029	4.0
70.044	4.0
70.059	6.0
70.074	1.0
70.088	4.0
70.103	2.0
70.118	3.0
70.133	4.0
70.148	0.0
70.163	9.0
70.178	3.0
70.193	5.0
70.208	3.0
70.222	6.0
70.237	7.0
70.252	3.0
70.267	6.0
70.282	3.0
70.297	8.0
70.312	0.0
70.327	7.0
70.341	4.0
70.356	4.0
70.371	2.0
70.386	4.0
70.401	5.0
70.416	1.0
70.43	4.0
70.445	5.0
70.46	3.0
70.475	2.0
70.49	3.0
70.505	5.0
70.519	4.0
70.534	2.0
70.549	3.0
70.564	9.0
70.579	3.0
70.594	6.0
70.608	4.0
70.623	3.0
70.638	1.0
70.653	7.0
70.668	6.0
70.683	5.0
70.697	4.0
70.712	6.0
70.727	8.0
70.742	2.0
70.757	3.0
70.771	6.0
70.786	2.0
70.801	5.0
70.816	5.0
70.831	5.0
70.845	1.0
70.86	3.0
70.875	4.0
70.89	8.0
70.905	5.0
70.92	4.0
70.934	4.0
70.949	1.0
70.964	4.0
70.979	9.0
70.994	3.0
71.008	6.0
71.023	3.0
71.038	6.0
71.053	3.0
71.068	7.0
71.082	3.0
71.097	3.0
71.112	3.0
71.127	7.0
71.142	4.0
71.156	5.0
71.171	1.0
71.186	5.0
71.201	3.0
71.216	3.0
71.231	6.0
71.245	2.0
71.26	4.0
71.275	2.0
71.29	2.0
71.305	1.0
71.319	4.0
71.334	2.0
71.349	3.0
71.364	8.0
71.379	6.0
71.394	2.0
71.408	4.0
71.423	2.0
71.438	6.0
71.453	2.0
71.468	2.0
71.483	2.0
71.497	5.0
71.512	4.0
71.527	4.0
71.542	3.0
71.557	8.0
71.572	3.0
71.586	4.0
71.601	4.0
71.616	2.0
71.631	2.0
71.646	2.0
71.661	3.0
71.676	4.0
71.69	3.0
71.705	2.0
71.72	3.0
71.735	1.0
71.75	3.0
71.765	4.0
71.78	5.0
71.795	3.0
71.81	1.0
71.824	2.0
71.839	4.0
71.854	2.0
71.869	4.0
71.884	4.0
71.899	5.0
71.914	1.0
71.929	2.0
71.944	2.0
71.959	4.0
71.974	0.0
71.988	3.0
72.003	2.0
72.018	6.0
72.033	3.0
72.048	2.0
72.063	3.0
72.078	4.0
72.093	5.0
72.108	1.0
72.123	1.0
72.138	6.0
72.153	3.0
72.168	5.0
72.183	2.0
72.198	1.0
72.213	5.0
72.228	1.0
72.243	7.0
72.258	4.0
72.273	4.0
72.288	2.0
72.303	1.0
72.318	3.0
72.333	3.0
72.348	3.0
72.363	6.0
72.378	2.0
72.393	1.0
72.408	3.0
72.423	2.0
72.438	1.0
72.453	3.0
72.468	4.0
72.483	4.0
72.498	2.0
72.513	3.0
72.528	4.0
72.543	3.0
72.558	3.0
72.573	7.0
72.588	5.0
72.603	5.0
72.618	7.0
72.633	5.0
72.649	0.0
72.664	1.0
72.679	4.0
72.694	2.0
72.709	6.0
72.724	0.0
72.739	2.0
72.754	4.0
72.769	2.0
72.784	4.0
72.799	3.0
72.814	4.0
72.829	0.0
72.845	1.0
72.86	5.0
72.875	5.0
72.89	5.0
72.905	4.0
72.92	3.0
72.935	3.0
72.95	4.0
72.965	1.0
72.98	3.0
72.996	1.0
73.011	3.0
73.026	4.0
73.041	1.0
73.056	8.0
73.071	3.0
73.086	1.0
73.101	3.0
73.117	2.0
73.132	2.0
73.147	3.0
73.162	4.0
73.177	4.0
73.192	4.0
73.207	3.0
73.222	2.0
73.238	2.0
73.253	7.0
73.268	4.0
73.283	6.0
73.298	4.0
73.313	4.0
73.328	5.0
73.343	3.0
73.359	5.0
73.374	4.0
73.389	5.0
73.404	5.0
73.419	5.0
73.434	7.0
73.449	3.0
73.465	3.0
73.48	3.0
73.495	4.0
73.51	2.0
73.525	3.0
73.54	2.0
73.556	3.0
73.571	4.0
73.586	3.0
73.601	2.0
73.616	4.0
73.631	2.0
73.646	0.0
73.662	3.0
73.677	2.0
73.692	5.0
73.707	4.0
73.722	3.0
73.737	1.0
73.752	3.0
73.768	5.0
73.783	9.0
73.798	4.0
73.813	2.0
73.828	6.0
73.843	3.0
73.859	5.0
73.874	3.0
73.889	5.0
73.904	4.0
73.919	3.0
73.934	4.0
73.949	3.0
73.965	4.0
73.98	6.0
73.995	1.0
74.01	4.0
74.025	1.0
74.04	3.0
74.056	3.0
74.071	5.0
74.086	3.0
74.101	4.0
74.116	4.0
74.131	4.0
74.146	1.0
74.162	3.0
74.177	9.0
74.192	9.0
74.207	8.0
74.222	3.0
74.237	5.0
74.252	2.0
74.268	4.0
74.283	3.0
74.298	6.0
74.313	6.0
74.328	3.0
74.343	3.0
74.358	3.0
74.374	4.0
74.389	1.0
74.404	4.0
74.419	9.0
74.434	2.0
74.449	1.0
74.464	4.0
74.48	3.0
74.495	3.0
74.51	1.0
74.525	5.0
74.54	7.0
74.555	3.0
74.57	4.0
74.586	4.0
74.601	4.0
74.616	5.0
74.631	5.0
74.646	3.0
74.661	9.0
74.676	6.0
74.691	1.0
74.707	4.0
74.722	2.0
74.737	4.0
74.752	2.0
74.767	5.0
74.782	3.0
74.797	1.0
74.813	3.0
74.828	1.0
74.843	8.0
74.858	1.0
74.873	4.0
74.888	4.0
74.903	2.0
74.918	3.0
74.934	2.0
74.949	6.0
74.964	5.0
74.979	1.0
74.994	3.0
75.009	3.0
75.024	4.0
75.04	4.0
75.055	7.0
75.07	1.0
75.085	4.0
75.1	3.0
75.115	5.0
75.13	5.0
75.145	6.0
75.161	3.0
75.176	0.0
75.191	8.0
75.206	6.0
75.221	5.0
75.236	3.0
75.251	2.0
75.266	5.0
75.282	3.0
75.297	4.0
75.312	2.0
75.327	1.0
75.342	4.0
75.357	5.0
75.372	2.0
75.387	1.0
75.403	2.0
75.418	2.0
75.433	2.0
75.448	3.0
75.463	5.0
75.478	4.0
75.493	4.0
75.509	0.0
75.524	3.0
75.539	3.0
75.554	0.0
75.569	8.0
75.584	7.0
75.599	4.0
75.614	5.0
75.63	3.0
75.645	4.0
75.66	1.0
75.675	2.0
75.69	3.0
75.705	4.0
75.72	4.0
75.735	1.0
75.751	4.0
75.766	6.0
75.781	4.0
75.796	1.0
75.811	3.0
75.826	5.0
75.841	3.0
75.856	4.0
75.872	8.0
75.887	3.0
75.902	1.0
75.917	6.0
75.932	3.0
75.947	1.0
75.962	4.0
75.977	5.0
75.993	3.0
76.008	3.0
76.023	2.0
76.038	4.0
76.053	2.0
76.068	4.0
76.083	4.0
76.098	3.0
76.114	4.0
76.129	5.0
76.144	3.0
76.159	4.0
76.174	4.0
76.189	4.0
76.204	2.0
76.22	1.0
76.235	5.0
76.25	4.0
76.265	3.0
76.28	3.0
76.295	1.0
76.31	6.0
76.325	5.0
76.341	3.0
76.356	6.0
76.371	4.0
76.386	1.0
76.401	7.0
76.416	0.0
76.431	3.0
76.446	5.0
76.462	5.0
76.477	3.0
76.492	4.0
76.507	7.0
76.522	5.0
76.537	4.0
76.552	5.0
76.567	5.0
76.583	1.0
76.598	8.0
76.613	2.0
76.628	2.0
76.643	1.0
76.658	3.0
76.673	10.0
76.688	1.0
76.704	4.0
76.719	4.0
76.734	4.0
76.749	3.0
76.764	9.0
76.779	5.0
76.794	3.0
76.809	2.0
76.824	4.0
76.84	6.0
76.855	3.0
76.87	6.0
76.885	2.0
76.9	5.0
76.915	4.0
76.93	4.0
76.945	2.0
76.96	4.0
76.976	4.0
76.991	2.0
77.006	5.0
77.021	6.0
77.036	3.0
77.051	3.0
77.066	2.0
77.081	3.0
77.096	4.0
77.112	2.0
77.127	2.0
77.142	2.0
77.157	4.0
77.172	3.0
77.187	4.0
77.202	5.0
77.217	4.0
77.232	6.0
77.247	3.0
77.263	8.0
77.278	2.0
77.293	1.0
77.308	7.0
77.323	5.0
77.338	3.0
77.353	6.0
77.368	4.0
77.383	7.0
77.398	8.0
77.413	7.0
77.428	4.0
77.444	1.0
77.459	5.0
77.474	4.0
77.489	4.0
77.504	4.0
77.519	1.0
77.534	5.0
77.549	7.0
77.564	3.0
77.579	5.0
77.594	7.0
77.609	4.0
77.624	5.0
77.64	5.0
77.655	7.0
77.67	5.0
77.685	3.0
77.7	3.0
77.715	8.0
77.73	4.0
77.745	3.0
77.76	4.0
77.775	3.0
77.79	4.0
77.805	4.0
77.82	4.0
77.835	3.0
77.85	3.0
77.865	1.0
77.88	3.0
77.895	3.0
77.91	1.0
77.926	5.0
77.941	3.0
77.956	3.0
77.971	4.0
77.986	2.0
78.001	3.0
78.016	5.0
78.031	2.0
78.046	2.0
78.061	2.0
78.076	8.0
78.091	7.0
78.106	4.0
78.121	3.0
78.136	3.0
78.151	3.0
78.166	3.0
78.181	2.0
78.196	2.0
78.211	4.0
78.226	2.0
78.241	1.0
78.256	2.0
78.271	4.0
78.286	5.0
78.301	1.0
78.316	4.0
78.331	4.0
78.346	3.0
78.361	7.0
78.376	4.0
78.391	2.0
78.406	4.0
78.421	4.0
78.436	1.0
78.451	1.0
78.466	3.0
78.481	2.0
78.496	0.0
78.511	2.0
78.526	5.0
78.541	5.0
78.556	2.0
78.571	2.0
78.586	4.0
78.601	2.0
78.616	5.0
78.631	5.0
78.646	2.0
78.661	4.0
78.676	6.0
78.691	0.0
78.706	5.0
78.721	6.0
78.736	3.0
78.751	1.0
78.766	3.0
78.781	8.0
78.796	4.0
78.811	1.0
78.826	5.0
78.841	1.0
78.856	4.0
78.871	3.0
78.885	4.0
78.9	1.0
78.915	0.0
78.93	2.0
78.945	0.0
78.96	5.0
78.975	3.0
78.99	2.0
79.005	1.0
79.02	2.0
79.035	3.0
79.05	1.0
79.065	1.0
79.08	6.0
79.095	2.0
79.11	6.0
79.125	4.0
79.14	4.0
79.155	4.0
79.17	0.0
79.185	2.0
79.2	5.0
79.215	1.0
79.23	3.0
79.245	4.0
79.26	2.0
79.275	4.0
79.29	7.0
79.304	3.0
79.319	2.0
79.334	4.0
79.349	4.0
79.364	1.0
79.379	4.0
79.394	2.0
79.409	2.0
79.424	6.0
79.439	4.0
79.454	3.0
79.469	3.0
79.484	7.0
79.499	2.0
79.514	1.0
79.529	4.0
79.544	1.0
79.559	3.0
79.574	1.0
79.589	2.0
79.604	0.0
79.619	3.0
79.634	6.0
79.649	3.0
79.664	1.0
79.679	3.0
79.693	5.0
79.708	2.0
79.723	3.0
79.738	6.0
79.753	2.0
79.768	2.0
79.783	3.0
79.798	4.0
79.813	5.0
79.828	3.0
79.843	6.0
79.858	3.0
79.873	4.0
79.888	6.0
79.903	4.0
79.918	1.0
79.933	2.0
79.948	1.0
79.963	4.0
79.978	0.0
79.993	4.0
80.008	3.0
80.023	3.0
80.038	3.0
80.053	1.0
80.068	5.0
80.083	2.0
80.098	5.0
80.113	4.0
80.128	3.0
80.143	3.0
80.158	1.0
80.173	1.0
80.188	5.0
80.202	9.0
80.217	7.0
80.232	7.0
80.247	3.0
80.262	3.0
80.277	1.0
80.292	6.0
80.307	3.0
80.322	4.0
80.337	4.0
80.352	3.0
80.367	1.0
80.382	3.0
80.397	3.0
80.412	0.0
80.427	6.0
80.442	3.0
80.457	6.0
80.472	5.0
80.487	2.0
80.502	1.0
80.517	5.0
80.532	5.0
80.547	2.0
80.562	3.0
80.577	2.0
80.592	2.0
80.607	5.0
80.622	3.0
80.637	5.0
80.652	3.0
80.667	4.0
80.682	6.0
80.697	2.0
80.712	1.0
80.727	1.0
80.742	4.0
80.757	1.0
80.772	5.0
80.787	1.0
80.802	2.0
80.817	3.0
80.832	4.0
80.847	4.0
80.862	0.0
80.877	2.0
80.892	6.0
80.907	2.0
80.922	5.0
80.937	6.0
80.952	2.0
80.967	2.0
80.982	2.0
80.997	1.0
81.012	3.0
81.027	2.0
81.042	3.0
81.057	7.0
81.072	2.0
81.087	2.0
81.101	3.0
81.116	3.0
81.131	6.0
81.146	0.0
81.161	3.0
81.176	4.0
81.191	6.0
81.206	2.0
81.221	3.0
81.236	3.0
81.251	0.0
81.266	0.0
81.281	4.0
81.296	2.0
81.311	2.0
81.326	2.0
81.341	1.0
81.356	3.0
81.371	1.0
81.386	3.0
81.401	3.0
81.416	1.0
81.431	1.0
81.446	6.0
81.461	2.0
81.476	3.0
81.491	1.0
81.506	1.0
81.521	2.0
81.536	1.0
81.55	0.0
81.565	3.0
81.58	1.0
81.595	3.0
81.61	2.0
81.625	2.0
81.64	2.0
81.655	2.0
81.67	6.0
81.685	6.0
81.7	5.0
81.715	7.0
81.73	2.0
81.745	3.0
81.76	5.0
81.775	5.0
81.79	3.0
81.805	2.0
81.819	4.0
81.834	2.0
81.849	2.0
81.864	5.0
81.879	6.0
81.894	4.0
81.909	4.0
81.924	3.0
81.939	8.0
81.954	7.0
81.969	3.0
81.984	1.0
81.999	6.0
82.013	4.0
82.028	0.0
82.043	8.0
82.058	2.0
82.073	4.0
82.088	1.0
82.103	2.0
82.118	2.0
82.133	1.0
82.148	3.0
82.163	3.0
82.177	5.0
82.192	4.0
82.207	1.0
82.222	2.0
82.237	3.0
82.252	4.0
82.267	0.0
82.282	3.0
82.297	2.0
82.312	3.0
82.326	2.0
82.341	5.0
82.356	5.0
82.371	2.0
82.386	1.0
82.401	5.0
82.416	3.0
82.431	2.0
82.445	3.0
82.46	1.0
82.475	4.0
82.49	4.0
82.505	5.0
82.52	3.0
82.535	3.0
82.55	2.0
82.565	5.0
82.579	3.0
82.594	3.0
82.609	5.0
82.624	3.0
82.639	2.0
82.654	1.0
82.669	3.0
82.684	5.0
82.698	4.0
82.713	4.0
82.728	2.0
82.743	2.0
82.758	7.0
82.773	5.0
82.788	8.0
82.803	6.0
82.817	5.0
82.832	5.0
82.847	1.0
82.862	1.0
82.877	6.0
82.892	1.0
82.907	4.0
82.922	2.0
82.937	2.0
82.951	1.0
82.966	2.0
82.981	4.0
82.996	0.0
83.011	3.0
83.026	3.0
83.041	2.0
83.056	1.0
83.07	3.0
83.085	8.0
83.1	2.0
83.115	2.0
83.13	3.0
83.145	0.0
83.16	4.0
83.175	2.0
83.19	2.0
83.204	5.0
83.219	3.0
83.234	0.0
83.249	4.0
83.264	1.0
83.279	6.0
83.294	4.0
83.309	7.0
83.324	1.0
83.339	4.0
83.353	7.0
83.368	3.0
83.383	3.0
83.398	2.0
83.413	2.0
83.428	2.0
83.443	3.0
83.458	6.0
83.473	1.0
83.488	1.0
83.503	3.0
83.517	1.0
83.532	4.0
83.547	6.0
83.562	7.0
83.577	5.0
83.592	2.0
83.607	1.0
83.622	2.0
83.637	3.0
83.652	5.0
83.667	2.0
83.682	3.0
83.697	5.0
83.712	5.0
83.727	4.0
83.741	3.0
83.756	2.0
83.771	5.0
83.786	2.0
83.801	3.0
83.816	3.0
83.831	5.0
83.846	2.0
83.861	4.0
83.876	2.0
83.891	2.0
83.906	1.0
83.921	4.0
83.936	4.0
83.951	2.0
83.966	1.0
83.981	3.0
83.996	3.0
84.011	3.0
84.026	3.0
84.041	2.0
84.056	0.0
84.071	2.0
84.086	3.0
84.101	2.0
84.116	4.0
84.131	2.0
84.146	3.0
84.161	3.0
84.176	3.0
84.191	1.0
84.206	2.0
84.221	2.0
84.236	4.0
84.251	2.0
84.266	2.0
84.281	6.0
84.296	4.0
84.311	3.0
84.326	5.0
84.341	3.0
84.356	3.0
84.371	0.0
84.386	11.0
84.401	8.0
84.416	4.0
84.431	4.0
84.446	2.0
84.461	3.0
84.476	2.0
84.492	4.0
84.507	0.0
84.522	3.0
84.537	1.0
84.552	1.0
84.567	4.0
84.582	4.0
84.597	5.0
84.612	1.0
84.627	5.0
84.642	6.0
84.657	6.0
84.672	3.0
84.687	2.0
84.702	2.0
84.717	0.0
84.733	3.0
84.748	4.0
84.763	4.0
84.778	2.0
84.793	3.0
84.808	3.0
84.823	1.0
84.838	6.0
84.853	3.0
84.868	2.0
84.883	1.0
84.898	1.0
84.913	6.0
84.929	3.0
84.944	4.0
84.959	5.0
84.974	3.0
84.989	3.0
85.004	1.0
85.019	5.0
85.034	4.0
85.049	5.0
85.064	3.0
85.079	3.0
85.094	1.0
85.11	1.0
85.125	3.0
85.14	5.0
85.155	1.0
85.17	5.0
85.185	2.0
85.2	2.0
85.215	3.0
85.23	3.0
85.245	0.0
85.26	4.0
85.276	5.0
85.291	6.0
85.306	3.0
85.321	1.0
85.336	5.0
85.351	4.0
85.366	1.0
85.381	5.0
85.396	3.0
85.411	2.0
85.426	3.0
85.441	3.0
85.457	2.0
85.472	2.0
85.487	2.0
85.502	7.0
85.517	4.0
85.532	1.0
85.547	1.0
85.562	2.0
85.577	4.0
85.592	4.0
85.607	6.0
85.622	6.0
85.637	3.0
85.653	2.0
85.668	3.0
85.683	2.0
85.698	2.0
85.713	5.0
85.728	2.0
85.743	1.0
85.758	2.0
85.773	2.0
85.788	2.0
85.803	1.0
85.818	2.0
85.833	6.0
85.848	4.0
85.863	0.0
85.879	3.0
85.894	2.0
85.909	2.0
85.924	3.0
85.939	4.0
85.954	3.0
85.969	5.0
85.984	2.0
85.999	4.0
86.014	5.0
86.029	3.0
86.044	0.0
86.059	1.0
86.074	2.0
86.089	2.0
86.104	2.0
86.119	2.0
86.134	5.0
86.149	3.0
86.164	1.0
86.179	3.0
86.194	5.0
86.209	4.0
86.224	7.0
86.239	4.0
86.254	3.0
86.269	4.0
86.284	1.0
86.299	5.0
86.314	1.0
86.33	2.0
86.345	3.0
86.36	2.0
86.375	5.0
86.39	2.0
86.405	3.0
86.42	3.0
86.435	5.0
86.45	4.0
86.465	5.0
86.48	2.0
86.495	2.0
86.51	4.0
86.525	2.0
86.54	1.0
86.555	1.0
86.57	1.0
86.585	2.0
86.6	6.0
86.615	5.0
86.63	2.0
86.645	1.0
86.659	4.0
86.674	5.0
86.689	0.0
86.704	3.0
86.719	3.0
86.734	6.0
86.749	3.0
86.764	2.0
86.779	6.0
86.794	4.0
86.809	7.0
86.824	5.0
86.839	2.0
86.854	2.0
86.869	3.0
86.884	3.0
86.899	1.0
86.914	3.0
86.929	3.0
86.944	4.0
86.959	2.0
86.974	6.0
86.989	4.0
87.004	3.0
87.019	1.0
87.034	2.0
87.049	4.0
87.064	5.0
87.079	0.0
87.094	3.0
87.109	4.0
87.124	5.0
87.139	4.0
87.154	7.0
87.169	1.0
87.184	6.0
87.199	3.0
87.214	4.0
87.229	2.0
87.244	2.0
87.259	3.0
87.274	3.0
87.289	0.0
87.304	3.0
87.319	4.0
87.334	1.0
87.349	2.0
87.364	2.0
87.379	4.0
87.394	2.0
87.409	3.0
87.424	1.0
87.438	7.0
87.453	5.0
87.468	3.0
87.483	3.0
87.498	3.0
87.513	4.0
87.528	3.0
87.543	9.0
87.558	6.0
87.573	6.0
87.588	4.0
87.603	3.0
87.618	1.0
87.633	7.0
87.648	7.0
87.663	4.0
87.678	8.0
87.693	1.0
87.708	1.0
87.723	6.0
87.738	5.0
87.753	3.0
87.768	7.0
87.783	7.0
87.798	7.0
87.813	5.0
87.828	3.0
87.843	3.0
87.858	5.0
87.873	8.0
87.888	3.0
87.903	2.0
87.918	2.0
87.933	2.0
87.948	4.0
87.963	2.0
87.978	1.0
87.993	1.0
88.008	4.0
88.023	3.0
88.038	3.0
88.053	4.0
88.068	4.0
88.083	1.0
88.098	2.0
88.113	3.0
88.128	6.0
88.143	4.0
88.158	5.0
88.174	3.0
88.189	1.0
88.204	1.0
88.219	2.0
88.234	2.0
88.249	3.0
88.264	0.0
88.279	1.0
88.294	2.0
88.309	6.0
88.324	3.0
88.339	2.0
88.354	3.0
88.369	7.0
88.384	1.0
88.399	3.0
88.414	5.0
88.429	1.0
88.444	1.0
88.459	2.0
88.474	2.0
88.489	4.0
88.504	7.0
88.519	1.0
88.534	5.0
88.549	4.0
88.564	4.0
88.58	6.0
88.595	4.0
88.61	3.0
88.625	2.0
88.64	3.0
88.655	3.0
88.67	4.0
88.685	7.0
88.7	3.0
88.715	2.0
88.73	1.0
88.745	2.0
88.76	0.0
88.775	1.0
88.79	5.0
88.805	0.0
88.82	6.0
88.835	1.0
88.85	5.0
88.865	2.0
88.88	5.0
88.895	0.0
88.911	2.0
88.926	2.0
88.941	0.0
88.956	3.0
88.971	2.0
88.986	3.0
89.001	2.0
89.016	2.0
89.031	4.0
89.046	4.0
89.061	4.0
89.076	2.0
89.091	1.0
89.106	2.0
89.121	3.0
89.136	3.0
89.151	4.0
89.166	3.0
89.181	2.0
89.196	3.0
89.211	1.0
89.227	5.0
89.242	3.0
89.257	3.0
89.272	1.0
89.287	3.0
89.302	6.0
89.317	3.0
89.332	6.0
89.347	3.0
89.362	1.0
89.377	4.0
89.392	3.0
89.407	5.0
89.422	0.0
89.437	6.0
89.452	2.0
89.467	3.0
89.482	4.0
89.497	4.0
89.512	1.0
89.527	6.0
89.542	1.0
89.557	1.0
89.572	4.0
89.587	2.0
89.602	4.0
89.617	3.0
89.632	3.0
89.647	3.0
89.662	5.0
89.677	4.0
89.693	3.0
89.708	5.0
89.723	3.0
89.738	2.0
89.753	3.0
89.768	4.0
89.783	4.0
89.798	5.0
89.813	3.0
89.828	6.0
89.843	2.0
89.858	2.0
89.873	0.0
89.888	4.0
89.903	4.0
89.918	1.0
89.933	2.0
89.948	3.0
89.963	3.0
89.978	4.0
89.993	7.0
90.008	4.0
90.023	4.0
90.038	7.0
90.053	3.0
90.068	2.0
90.083	6.0
90.097	3.0
90.112	2.0
90.127	8.0
90.142	1.0
90.157	1.0
90.172	3.0
90.187	7.0
90.202	4.0
90.217	3.0
90.232	6.0
90.247	4.0
90.262	3.0
90.277	3.0
90.292	8.0
90.307	4.0
90.322	6.0
90.337	7.0
90.352	2.0
90.367	7.0
90.382	3.0
90.397	3.0
90.412	3.0
90.427	1.0
90.442	2.0
90.457	1.0
90.472	6.0
90.487	2.0
90.501	3.0
90.516	2.0
90.531	2.0
90.546	7.0
90.561	3.0
90.576	4.0
90.591	4.0
90.606	3.0
90.621	2.0
90.636	4.0
90.651	6.0
90.666	4.0
90.681	2.0
90.696	0.0
90.711	3.0
90.726	1.0
90.741	2.0
90.755	3.0
90.77	2.0
90.785	2.0
90.8	5.0
90.815	3.0
90.83	5.0
90.845	7.0
90.86	4.0
90.875	5.0
90.89	2.0
90.905	5.0
90.92	3.0
90.935	3.0
90.95	4.0
90.965	6.0
90.979	3.0
90.994	4.0
91.009	4.0
91.024	5.0
91.039	1.0
91.054	1.0
91.069	2.0
91.084	4.0
91.099	4.0
91.114	5.0
91.129	2.0
91.144	3.0
91.159	2.0
91.174	0.0
91.188	3.0
91.203	2.0
91.218	1.0
91.233	2.0
91.248	2.0
91.263	0.0
91.278	4.0
91.293	7.0
91.308	4.0
91.323	3.0
91.338	4.0
91.353	1.0
91.368	3.0
91.383	0.0
91.398	7.0
91.412	5.0
91.427	3.0
91.442	5.0
91.457	1.0
91.472	4.0
91.487	5.0
91.502	2.0
91.517	3.0
91.532	3.0
91.547	0.0
91.562	4.0
91.577	5.0
91.592	3.0
91.607	2.0
91.622	2.0
91.637	3.0
91.652	4.0
91.666	4.0
91.681	2.0
91.696	6.0
91.711	1.0
91.726	3.0
91.741	2.0
91.756	6.0
91.771	3.0
91.786	4.0
91.801	8.0
91.816	3.0
91.831	4.0
91.846	2.0
91.861	1.0
91.876	5.0
91.891	4.0
91.906	3.0
91.921	2.0
91.936	1.0
91.951	5.0
91.966	6.0
91.981	2.0
91.995	2.0
92.01	3.0
92.025	0.0
92.04	6.0
92.055	5.0
92.07	4.0
92.085	3.0
92.1	5.0
92.115	3.0
92.13	5.0
92.145	5.0
92.16	0.0
92.175	4.0
92.19	3.0
92.205	5.0
92.22	3.0
92.235	5.0
92.25	5.0
92.265	4.0
92.28	3.0
92.295	2.0
92.31	2.0
92.325	4.0
92.34	0.0
92.355	3.0
92.37	4.0
92.385	3.0
92.4	4.0
92.415	0.0
92.43	0.0
92.445	0.0
92.46	4.0
92.475	3.0
92.49	3.0
92.505	1.0
92.52	1.0
92.535	5.0
92.55	2.0
92.565	4.0
92.58	3.0
92.595	4.0
92.61	1.0
92.625	3.0
92.64	2.0
92.655	3.0
92.67	3.0
92.685	1.0
92.7	2.0
92.715	3.0
92.73	3.0
92.745	1.0
92.76	0.0
92.775	2.0
92.79	3.0
92.805	2.0
92.82	3.0
92.835	3.0
92.85	5.0
92.865	2.0
92.88	3.0
92.895	3.0
92.91	1.0
92.925	3.0
92.94	1.0
92.955	1.0
92.97	3.0
92.985	4.0
93.0	4.0
93.015	4.0
93.03	5.0
93.045	3.0
93.06	3.0
93.075	4.0
93.09	5.0
93.105	5.0
93.12	1.0
93.135	4.0
93.15	3.0
93.165	2.0
93.18	4.0
93.195	4.0
93.21	2.0
93.225	1.0
93.24	6.0
93.255	2.0
93.27	0.0
93.285	2.0
93.3	1.0
93.315	4.0
93.33	5.0
93.345	4.0
93.36	1.0
93.375	4.0
93.39	3.0
93.405	2.0
93.42	3.0
93.435	8.0
93.45	2.0
93.465	2.0
93.48	3.0
93.495	4.0
93.51	3.0
93.525	2.0
93.54	2.0
93.555	2.0
93.57	5.0
93.585	2.0
93.6	6.0
93.615	4.0
93.63	2.0
93.645	5.0
93.66	1.0
93.675	0.0
93.69	3.0
93.705	5.0
93.72	7.0
93.735	3.0
93.75	4.0
93.765	3.0
93.78	5.0
93.795	2.0
93.81	2.0
93.824	6.0
93.839	3.0
93.854	1.0
93.869	4.0
93.884	5.0
93.899	3.0
93.914	2.0
93.929	3.0
93.944	3.0
93.959	3.0
93.974	3.0
93.989	4.0
94.004	3.0
94.019	0.0
94.034	4.0
94.049	4.0
94.064	1.0
94.079	2.0
94.094	2.0
94.108	2.0
94.123	1.0
94.138	3.0
94.153	2.0
94.168	3.0
94.183	1.0
94.198	4.0
94.213	3.0
94.228	2.0
94.243	3.0
94.258	2.0
94.273	6.0
94.288	2.0
94.302	2.0
94.317	3.0
94.332	3.0
94.347	2.0
94.362	3.0
94.377	3.0
94.392	5.0
94.407	3.0
94.422	9.0
94.437	6.0
94.452	1.0
94.466	5.0
94.481	11.0
94.496	7.0
94.511	2.0
94.526	6.0
94.541	5.0
94.556	5.0
94.571	1.0
94.586	0.0
94.601	5.0
94.615	3.0
94.63	3.0
94.645	2.0
94.66	4.0
94.675	5.0
94.69	4.0
94.705	1.0
94.72	2.0
94.735	2.0
94.749	3.0
94.764	4.0
94.779	3.0
94.794	1.0
94.809	5.0
94.824	7.0
94.839	3.0
94.854	5.0
94.868	4.0
94.883	4.0
94.898	2.0
94.913	1.0
94.928	4.0
94.943	3.0
94.958	1.0
94.973	5.0
94.987	3.0
95.002	3.0
95.017	7.0
95.032	2.0
95.047	0.0
95.062	6.0
95.077	2.0
95.092	4.0
95.106	1.0
95.121	2.0
95.136	7.0
95.151	7.0
95.166	4.0
95.181	6.0
95.196	5.0
95.211	3.0
95.226	9.0
95.24	8.0
95.255	3.0
95.27	4.0
95.285	3.0
95.3	3.0
95.315	1.0
95.33	4.0
95.345	3.0
95.359	2.0
95.374	7.0
95.389	3.0
95.404	0.0
95.419	0.0
95.434	1.0
95.449	2.0
95.464	1.0
95.478	6.0
95.493	5.0
95.508	5.0
95.523	1.0
95.538	1.0
95.553	2.0
95.568	1.0
95.583	3.0
95.597	2.0
95.612	4.0
95.627	2.0
95.642	2.0
95.657	2.0
95.672	4.0
95.687	2.0
95.702	2.0
95.717	1.0
95.731	1.0
95.746	1.0
95.761	4.0
95.776	6.0
95.791	2.0
95.806	2.0
95.821	4.0
95.836	5.0
95.851	3.0
95.866	2.0
95.88	2.0
95.895	4.0
95.91	2.0
95.925	2.0
95.94	1.0
95.955	4.0
95.97	3.0
95.985	1.0
96.0	2.0
96.015	1.0
96.029	1.0
96.044	3.0
96.059	1.0
96.074	2.0
96.089	4.0
96.104	2.0
96.119	3.0
96.134	2.0
96.149	3.0
96.164	1.0
96.179	2.0
96.194	1.0
96.208	2.0
96.223	4.0
96.238	3.0
96.253	3.0
96.268	2.0
96.283	4.0
96.298	1.0
96.313	3.0
96.328	2.0
96.343	5.0
96.358	0.0
96.373	4.0
96.388	2.0
96.403	3.0
96.417	2.0
96.432	3.0
96.447	3.0
96.462	3.0
96.477	1.0
96.492	1.0
96.507	1.0
96.522	1.0
96.537	1.0
96.552	1.0
96.567	1.0
96.582	6.0
96.597	4.0
96.612	2.0
96.627	5.0
96.642	2.0
96.656	4.0
96.671	7.0
96.686	3.0
96.701	0.0
96.716	6.0
96.731	5.0
96.746	5.0
96.761	5.0
96.776	4.0
96.791	5.0
96.806	1.0
96.821	1.0
96.836	8.0
96.851	5.0
96.866	4.0
96.881	5.0
96.896	2.0
96.911	3.0
96.926	3.0
96.94	2.0
96.955	1.0
96.97	6.0
96.985	8.0
97.0	2.0
97.015	3.0
97.03	2.0
97.045	4.0
97.06	2.0
97.075	1.0
97.09	2.0
97.105	3.0
97.12	4.0
97.135	3.0
97.15	3.0
97.165	0.0
97.18	2.0
97.195	5.0
97.21	2.0
97.225	7.0
97.239	3.0
97.254	4.0
97.269	0.0
97.284	2.0
97.299	2.0
97.314	1.0
97.329	4.0
97.344	4.0
97.359	2.0
97.374	1.0
97.389	3.0
97.404	4.0
97.419	3.0
97.434	2.0
97.449	3.0
97.464	4.0
97.479	4.0
97.494	6.0
97.509	2.0
97.524	0.0
97.538	1.0
97.553	2.0
97.568	1.0
97.583	3.0
97.598	3.0
97.613	5.0
97.628	3.0
97.643	8.0
97.658	2.0
97.673	6.0
97.688	4.0
97.703	6.0
97.718	3.0
97.733	1.0
97.748	8.0
97.763	1.0
97.778	5.0
97.792	4.0
97.807	2.0
97.822	6.0
97.837	4.0
97.852	1.0
97.867	5.0
97.882	4.0
97.897	3.0
97.912	4.0
97.927	4.0
97.942	2.0
97.957	4.0
97.972	4.0
97.987	3.0
98.001	3.0
98.016	3.0
98.031	3.0
98.046	1.0
98.061	1.0
98.076	3.0
98.091	3.0
98.106	7.0
98.121	1.0
98.136	2.0
98.151	5.0
98.166	2.0
98.181	2.0
98.195	3.0
98.21	1.0
98.225	3.0
98.24	3.0
98.255	5.0
98.27	3.0
98.285	3.0
98.3	2.0
98.315	2.0
98.33	5.0
98.345	4.0
98.359	3.0
98.374	4.0
98.389	3.0
98.404	5.0
98.419	2.0
98.434	1.0
98.449	2.0
98.464	3.0
98.479	5.0
98.494	5.0
98.508	4.0
98.523	2.0
98.538	2.0
98.553	4.0
98.568	2.0
98.583	2.0
98.598	2.0
98.613	5.0
98.628	2.0
98.642	2.0
98.657	1.0
98.672	2.0
98.687	4.0
98.702	2.0
98.717	3.0
98.732	5.0
98.747	2.0
98.762	1.0
98.776	3.0
98.791	3.0
98.806	5.0
98.821	0.0
98.836	2.0
98.851	2.0
98.866	2.0
98.881	2.0
98.896	4.0
98.91	3.0
98.925	4.0
98.94	4.0
98.955	4.0
98.97	5.0
98.985	4.0
99.0	3.0
99.015	4.0
99.029	4.0
99.044	4.0
99.059	3.0
99.074	2.0
99.089	5.0
99.104	4.0
99.119	4.0
99.133	4.0
99.148	5.0
99.163	6.0
99.178	1.0
99.193	2.0
99.208	1.0
99.223	3.0
99.238	2.0
99.252	3.0
99.267	3.0
99.282	6.0
99.297	4.0
99.312	2.0
99.327	2.0
99.342	2.0
99.356	2.0
99.371	2.0
99.386	2.0
99.401	3.0
99.416	5.0
99.431	1.0
99.446	3.0
99.461	2.0
99.475	2.0
99.49	2.0
99.505	3.0
99.52	3.0
99.535	5.0
99.55	3.0
99.565	9.0
99.579	5.0
99.594	1.0
99.609	9.0
99.624	4.0
99.639	5.0
99.654	3.0
99.669	3.0
99.683	0.0
99.698	5.0
99.713	4.0
99.728	6.0
99.743	3.0
99.758	1.0
99.772	5.0
99.787	4.0
99.802	7.0
99.817	3.0
99.832	3.0
99.847	5.0
99.862	3.0
99.876	2.0
99.891	2.0
99.906	4.0
99.921	5.0
99.936	1.0
99.951	3.0
99.966	3.0
99.98	3.0
99.995	3.0
100.01	5.0
100.025	2.0
100.04	4.0
100.055	5.0
100.069	3.0
100.084	6.0
100.099	7.0
100.114	4.0
100.129	4.0
100.144	3.0
100.159	3.0
100.173	3.0
100.188	1.0
100.203	4.0
100.218	4.0
100.233	5.0
100.248	1.0
100.262	6.0
100.277	3.0
100.292	6.0
100.307	2.0
100.322	6.0
100.337	2.0
100.351	4.0
100.366	4.0
100.381	6.0
100.396	4.0
100.411	3.0
100.426	4.0
100.441	6.0
100.455	4.0
100.47	1.0
100.485	4.0
100.5	3.0
100.515	4.0
100.53	6.0
100.544	2.0
100.559	2.0
100.574	2.0
100.589	5.0
100.604	3.0
100.619	7.0
100.633	4.0
100.648	3.0
100.663	4.0
100.678	4.0
100.693	3.0
100.708	2.0
100.722	2.0
100.737	1.0
100.752	2.0
100.767	5.0
100.782	1.0
100.796	1.0
100.811	2.0
100.826	6.0
100.841	2.0
100.856	5.0
100.871	2.0
100.885	3.0
100.9	1.0
100.915	2.0
100.93	4.0
100.945	4.0
100.96	3.0
100.974	2.0
100.989	0.0
101.004	3.0
101.019	2.0
101.034	7.0
101.048	2.0
101.063	5.0
101.078	2.0
101.093	5.0
101.108	1.0
101.123	5.0
101.137	3.0
101.152	2.0
101.167	4.0
101.182	6.0
101.197	3.0
101.211	1.0
101.226	5.0
101.241	7.0
101.256	5.0
101.271	1.0
101.285	6.0
101.3	1.0
101.315	3.0
101.33	2.0
101.345	2.0
101.359	4.0
101.374	1.0
101.389	8.0
101.404	5.0
101.419	4.0
101.433	4.0
101.448	2.0
101.463	1.0
101.478	2.0
101.493	3.0
101.507	4.0
101.522	3.0
101.537	3.0
101.552	3.0
101.567	3.0
101.581	3.0
101.596	4.0
101.611	7.0
101.626	2.0
101.64	5.0
101.655	5.0
101.67	6.0
101.685	4.0
101.7	1.0
101.714	1.0
101.729	1.0
101.744	5.0
101.759	4.0
101.773	2.0
101.788	5.0
101.803	5.0
101.818	2.0
101.833	6.0
101.847	2.0
101.862	5.0
101.877	1.0
101.892	6.0
101.906	5.0
101.921	2.0
101.936	1.0
101.951	2.0
101.965	1.0
101.98	4.0
101.995	5.0
102.01	1.0
102.025	5.0
102.039	2.0
102.054	9.0
102.069	4.0
102.084	4.0
102.098	3.0
102.113	2.0
102.128	1.0
102.143	2.0
102.157	2.0
102.172	5.0
102.187	5.0
102.202	4.0
102.216	4.0
102.231	3.0
102.246	2.0
102.261	2.0
102.275	2.0
102.29	0.0
102.305	9.0
102.32	2.0
102.334	4.0
102.349	1.0
102.364	8.0
102.378	2.0
102.393	1.0
102.408	3.0
102.423	7.0
102.437	3.0
102.452	0.0
102.467	2.0
102.482	4.0
102.496	4.0
102.511	4.0
102.526	1.0
102.541	3.0
102.555	2.0
102.57	3.0
102.585	1.0
102.6	5.0
102.614	5.0
102.629	2.0
102.644	0.0
102.659	2.0
102.673	7.0
102.688	3.0
102.703	5.0
102.717	6.0
102.732	5.0
102.747	3.0
102.762	1.0
102.776	2.0
102.791	1.0
102.806	4.0
102.821	4.0
102.835	9.0
102.85	1.0
102.865	4.0
102.88	7.0
102.894	8.0
102.909	6.0
102.924	5.0
102.938	5.0
102.953	3.0
102.968	3.0
102.983	2.0
102.997	3.0
103.012	5.0
103.027	5.0
103.042	3.0
103.056	0.0
103.071	3.0
103.086	3.0
103.101	2.0
103.115	3.0
103.13	1.0
103.145	5.0
103.16	3.0
103.174	6.0
103.189	3.0
103.204	3.0
103.219	3.0
103.233	4.0
103.248	3.0
103.263	3.0
103.278	3.0
103.292	1.0
103.307	1.0
103.322	5.0
103.337	0.0
103.351	4.0
103.366	2.0
103.381	3.0
103.396	2.0
103.41	6.0
103.425	1.0
103.44	3.0
103.455	3.0
103.469	6.0
103.484	3.0
103.499	6.0
103.514	5.0
103.529	1.0
103.543	2.0
103.558	3.0
103.573	1.0
103.588	3.0
103.602	1.0
103.617	4.0
103.632	3.0
103.647	0.0
103.661	7.0
103.676	1.0
103.691	3.0
103.706	7.0
103.721	4.0
103.735	8.0
103.75	5.0
103.765	1.0
103.78	5.0
103.795	1.0
103.809	1.0
103.824	2.0
103.839	2.0
103.854	6.0
103.869	2.0
103.883	4.0
103.898	6.0
103.913	4.0
103.928	3.0
103.943	3.0
103.957	1.0
103.972	5.0
103.987	3.0
104.002	2.0
104.017	1.0
104.031	4.0
104.046	2.0
104.061	4.0
104.076	2.0
104.091	3.0
104.106	6.0
104.12	1.0
104.135	0.0
104.15	3.0
104.165	0.0
104.18	2.0
104.195	1.0
104.209	2.0
104.224	2.0
104.239	3.0
104.254	4.0
104.269	1.0
104.284	2.0
104.299	6.0
104.313	6.0
104.328	3.0
104.343	3.0
104.358	3.0
104.373	0.0
104.388	3.0
104.403	1.0
104.417	6.0
104.432	4.0
104.447	6.0
104.462	1.0
104.477	5.0
104.492	4.0
104.507	2.0
104.522	6.0
104.536	5.0
104.551	4.0
104.566	4.0
104.581	3.0
104.596	1.0
104.611	3.0
104.626	8.0
104.641	7.0
104.656	3.0
104.67	5.0
104.685	2.0
104.7	4.0
104.715	2.0
104.73	2.0
104.745	1.0
104.76	3.0
104.775	1.0
104.79	1.0
104.804	1.0
104.819	2.0
104.834	3.0
104.849	4.0
104.864	4.0
104.879	4.0
104.894	3.0
104.909	1.0
104.924	3.0
104.939	3.0
104.954	3.0
104.968	1.0
104.983	2.0
104.998	2.0
105.013	1.0
105.028	1.0
105.043	2.0
105.058	2.0
105.073	2.0
105.088	1.0
105.103	3.0
105.118	3.0
105.133	4.0
105.147	3.0
105.162	2.0
105.177	3.0
105.192	6.0
105.207	3.0
105.222	5.0
105.237	5.0
105.252	2.0
105.267	3.0
105.282	3.0
105.297	4.0
105.312	5.0
105.327	3.0
105.342	4.0
105.356	4.0
105.371	7.0
105.386	4.0
105.401	7.0
105.416	2.0
105.431	4.0
105.446	1.0
105.461	3.0
105.476	5.0
105.491	5.0
105.506	4.0
105.521	6.0
105.536	4.0
105.551	3.0
105.566	4.0
105.581	3.0
105.595	1.0
105.61	5.0
105.625	3.0
105.64	5.0
105.655	2.0
105.67	4.0
105.685	3.0
105.7	4.0
105.715	3.0
105.73	4.0
105.745	1.0
105.76	5.0
105.775	2.0
105.79	3.0
105.805	1.0
105.82	5.0
105.835	3.0
105.85	2.0
105.864	5.0
105.879	0.0
105.894	5.0
105.909	2.0
105.924	2.0
105.939	4.0
105.954	2.0
105.969	5.0
105.984	2.0
105.999	2.0
106.014	2.0
106.029	5.0
106.044	5.0
106.059	5.0
106.074	2.0
106.089	1.0
106.104	3.0
106.119	1.0
106.134	2.0
106.148	3.0
106.163	2.0
106.178	1.0
106.193	2.0
106.208	3.0
106.223	0.0
106.238	1.0
106.253	2.0
106.268	2.0
106.283	1.0
106.298	0.0
106.313	7.0
106.328	1.0
106.343	4.0
106.358	3.0
106.373	0.0
106.388	1.0
106.403	1.0
106.418	3.0
106.432	4.0
106.447	0.0
106.462	1.0
106.477	2.0
106.492	2.0
106.507	1.0
106.522	4.0
106.537	1.0
106.552	4.0
106.567	2.0
106.582	0.0
106.597	5.0
106.612	2.0
106.627	3.0
106.642	5.0
106.657	2.0
106.672	1.0
106.687	2.0
106.701	4.0
106.716	4.0
106.731	1.0
106.746	6.0
106.761	4.0
106.776	3.0
106.791	1.0
106.806	6.0
106.821	3.0
106.836	4.0
106.851	6.0
106.866	0.0
106.881	2.0
106.896	3.0
106.911	2.0
106.926	2.0
106.941	2.0
106.955	2.0
106.97	3.0
106.985	4.0
107.0	2.0
107.015	6.0
107.03	6.0
107.045	1.0
107.06	6.0
107.075	1.0
107.09	1.0
107.105	8.0
107.12	4.0
107.135	4.0
107.15	4.0
107.165	6.0
107.18	2.0
107.194	1.0
107.209	8.0
107.224	5.0
107.239	6.0
107.254	4.0
107.269	3.0
107.284	3.0
107.299	6.0
107.314	4.0
107.329	3.0
107.344	4.0
107.359	4.0
107.374	5.0
107.389	5.0
107.404	3.0
107.418	5.0
107.433	1.0
107.448	2.0
107.463	2.0
107.478	3.0
107.493	4.0
107.508	4.0
107.523	2.0
107.538	6.0
107.553	0.0
107.568	4.0
107.583	2.0
107.598	0.0
107.613	4.0
107.627	1.0
107.642	3.0
107.657	6.0
107.672	5.0
107.687	4.0
107.702	3.0
107.717	2.0
107.732	5.0
107.747	5.0
107.762	4.0
107.777	2.0
107.792	5.0
107.807	3.0
107.821	4.0
107.836	3.0
107.851	7.0
107.866	4.0
107.881	3.0
107.896	2.0
107.911	1.0
107.926	3.0
107.941	1.0
107.956	2.0
107.971	4.0
107.986	6.0
108.0	4.0
108.015	3.0
108.03	3.0
108.045	6.0
108.06	3.0
108.075	6.0
108.09	9.0
108.105	5.0
108.12	2.0
108.135	5.0
108.15	3.0
108.164	7.0
108.179	2.0
108.194	7.0
108.209	4.0
108.224	8.0
108.239	3.0
108.254	2.0
108.269	2.0
108.284	4.0
108.299	2.0
108.313	4.0
108.328	7.0
108.343	5.0
108.358	5.0
108.373	3.0
108.388	3.0
108.403	2.0
108.418	4.0
108.433	2.0
108.448	13.0
108.462	1.0
108.477	2.0
108.492	6.0
108.507	5.0
108.522	2.0
108.537	1.0
108.552	3.0
108.567	6.0
108.582	3.0
108.597	7.0
108.611	0.0
108.626	2.0
108.641	3.0
108.656	7.0
108.671	1.0
108.686	3.0
108.701	4.0
108.716	6.0
108.731	3.0
108.745	6.0
108.76	4.0
108.775	3.0
108.79	4.0
108.805	1.0
108.82	4.0
108.835	4.0
108.85	1.0
108.865	2.0
108.879	5.0
108.894	6.0
108.909	4.0
108.924	5.0
108.939	2.0
108.954	0.0
108.969	4.0
108.984	1.0
108.999	5.0
109.013	3.0
109.028	1.0
109.043	3.0
109.058	3.0
109.073	4.0
109.088	2.0
109.103	3.0
109.118	2.0
109.133	4.0
109.147	4.0
109.162	2.0
109.177	5.0
109.192	4.0
109.207	2.0
109.222	2.0
109.237	5.0
109.252	4.0
109.267	4.0
109.281	3.0
109.296	1.0
109.311	6.0
109.326	2.0
109.341	4.0
109.356	4.0
109.371	4.0
109.386	3.0
109.4	2.0
109.415	5.0
109.43	3.0
109.445	4.0
109.46	4.0
109.475	6.0
109.49	7.0
109.505	5.0
109.52	0.0
109.534	2.0
109.549	1.0
109.564	4.0
109.579	5.0
109.594	4.0
109.609	3.0
109.624	2.0
109.639	3.0
109.653	5.0
109.668	4.0
109.683	5.0
109.698	6.0
109.713	3.0
109.728	2.0
109.743	2.0
109.758	3.0
109.773	1.0
109.787	5.0
109.802	1.0
109.817	4.0
109.832	3.0
109.847	4.0
109.862	5.0
109.877	3.0
109.892	2.0
109.907	1.0
109.921	3.0
109.936	5.0
109.951	2.0
109.966	4.0
109.981	5.0
109.996	3.0
110.011	4.0
110.026	4.0
110.04	2.0
110.055	4.0
110.07	1.0
110.085	7.0
110.1	5.0
110.115	5.0
110.13	4.0
110.145	2.0
110.16	2.0
110.174	5.0
110.189	2.0
110.204	7.0
110.219	3.0
110.234	3.0
110.249	3.0
110.264	3.0
110.279	3.0
110.294	2.0
110.308	5.0
110.323	3.0
110.338	5.0
110.353	7.0
110.368	1.0
110.383	6.0
110.398	1.0
110.413	2.0
110.428	4.0
110.442	3.0
110.457	3.0
110.472	2.0
110.487	3.0
110.502	1.0
110.517	4.0
110.532	3.0
110.547	3.0
110.561	0.0
110.576	3.0
110.591	1.0
110.606	5.0
110.621	3.0
110.636	6.0
110.651	5.0
110.666	7.0
110.681	2.0
110.695	5.0
110.71	5.0
110.725	3.0
110.74	2.0
110.755	3.0
110.77	5.0
110.785	4.0
110.8	4.0
110.815	8.0
110.829	3.0
110.844	4.0
110.859	4.0
110.874	2.0
110.889	4.0
110.904	2.0
110.919	4.0
110.934	3.0
110.948	5.0
110.963	6.0
110.978	1.0
110.993	1.0
111.008	6.0
111.023	5.0
111.038	6.0
111.053	4.0
111.067	1.0
111.082	2.0
111.097	3.0
111.112	3.0
111.127	4.0
111.142	6.0
111.157	4.0
111.172	5.0
111.186	3.0
111.201	2.0
111.216	3.0
111.231	2.0
111.246	4.0
111.261	1.0
111.276	4.0
111.291	3.0
111.305	6.0
111.32	6.0
111.335	5.0
111.35	5.0
111.365	2.0
111.38	7.0
111.395	2.0
111.41	2.0
111.424	4.0
111.439	3.0
111.454	4.0
111.469	4.0
111.484	3.0
111.499	1.0
111.514	7.0
111.528	2.0
111.543	1.0
111.558	1.0
111.573	4.0
111.588	3.0
111.603	8.0
111.618	9.0
111.633	8.0
111.647	5.0
111.662	2.0
111.677	5.0
111.692	4.0
111.707	6.0
111.722	3.0
111.737	3.0
111.751	2.0
111.766	3.0
111.781	4.0
111.796	7.0
111.811	2.0
111.826	2.0
111.84	4.0
111.855	4.0
111.87	4.0
111.885	7.0
111.9	3.0
111.915	5.0
111.93	2.0
111.944	4.0
111.959	2.0
111.974	0.0
111.989	3.0
112.004	2.0
112.019	2.0
112.033	5.0
112.048	2.0
112.063	0.0
112.078	5.0
112.093	5.0
112.108	3.0
112.123	1.0
112.137	4.0
112.152	5.0
112.167	6.0
112.182	0.0
112.197	0.0
112.212	4.0
112.226	4.0
112.241	4.0
112.256	2.0
112.271	1.0
112.286	3.0
112.301	4.0
112.315	4.0
112.33	5.0
112.345	3.0
112.36	5.0
112.375	2.0
112.389	6.0
112.404	10.0
112.419	4.0
112.434	4.0
112.449	6.0
112.464	4.0
112.478	3.0
112.493	2.0
112.508	6.0
112.523	3.0
112.538	1.0
112.553	1.0
112.567	3.0
112.582	3.0
112.597	6.0
112.612	6.0
112.627	5.0
112.642	7.0
112.656	0.0
112.671	3.0
112.686	8.0
112.701	4.0
112.716	2.0
112.73	5.0
112.745	1.0
112.76	3.0
112.775	1.0
112.79	4.0
112.805	2.0
112.819	1.0
112.834	4.0
112.849	7.0
112.864	4.0
112.879	5.0
112.894	3.0
112.908	6.0
112.923	2.0
112.938	4.0
112.953	2.0
112.968	1.0
112.983	2.0
112.997	8.0
113.012	7.0
113.027	3.0
113.042	2.0
113.057	7.0
113.072	3.0
113.086	2.0
113.101	2.0
113.116	2.0
113.131	9.0
113.146	5.0
113.161	1.0
113.175	5.0
113.19	5.0
113.205	2.0
113.22	1.0
113.235	2.0
113.25	0.0
113.265	5.0
113.279	4.0
113.294	3.0
113.309	4.0
113.324	2.0
113.339	2.0
113.354	5.0
113.368	4.0
113.383	4.0
113.398	1.0
113.413	1.0
113.428	2.0
113.443	1.0
113.458	2.0
113.472	4.0
113.487	4.0
113.502	2.0
113.517	2.0
113.532	4.0
113.547	1.0
113.562	2.0
113.576	5.0
113.591	5.0
113.606	4.0
113.621	1.0
113.636	1.0
113.651	6.0
113.666	2.0
113.681	1.0
113.695	2.0
113.71	4.0
113.725	3.0
113.74	2.0
113.755	5.0
113.77	2.0
113.785	7.0
113.8	2.0
113.814	3.0
113.829	2.0
113.844	3.0
113.859	3.0
113.874	4.0
113.889	7.0
113.904	2.0
113.919	5.0
113.934	3.0
113.949	5.0
113.963	3.0
113.978	3.0
113.993	4.0
114.008	3.0
114.023	6.0
114.038	5.0
114.053	3.0
114.068	3.0
114.083	1.0
114.098	3.0
114.113	4.0
114.127	3.0
114.142	4.0
114.157	8.0
114.172	2.0
114.187	7.0
114.202	4.0
114.217	7.0
114.232	2.0
114.247	7.0
114.262	3.0
114.277	3.0
114.292	1.0
114.307	4.0
114.322	3.0
114.337	3.0
114.351	4.0
114.366	3.0
114.381	4.0
114.396	1.0
114.411	6.0
114.426	4.0
114.441	4.0
114.456	2.0
114.471	4.0
114.486	6.0
114.501	5.0
114.516	6.0
114.531	1.0
114.546	6.0
114.561	4.0
114.576	4.0
114.591	6.0
114.606	2.0
114.621	4.0
114.636	3.0
114.65	6.0
114.665	1.0
114.68	8.0
114.695	3.0
114.71	3.0
114.725	4.0
114.74	6.0
114.755	2.0
114.77	3.0
114.785	4.0
114.8	1.0
114.815	4.0
114.83	4.0
114.845	4.0
114.86	4.0
114.875	8.0
114.89	1.0
114.905	3.0
114.92	2.0
114.935	3.0
114.95	4.0
114.965	2.0
114.98	3.0
114.995	6.0
115.009	3.0
115.024	4.0
115.039	5.0
115.054	3.0
115.069	6.0
115.084	6.0
115.099	7.0
115.114	3.0
115.129	4.0
115.144	4.0
115.159	1.0
115.174	8.0
115.189	1.0
115.204	2.0
115.219	2.0
115.234	6.0
115.249	1.0
115.264	5.0
115.279	8.0
115.294	5.0
115.309	3.0
115.323	5.0
115.338	2.0
115.353	3.0
115.368	3.0
115.383	3.0
115.398	5.0
115.413	3.0
115.428	4.0
115.443	5.0
115.458	3.0
115.473	0.0
115.488	5.0
115.503	4.0
115.518	5.0
115.533	9.0
115.548	4.0
115.562	2.0
115.577	4.0
115.592	3.0
115.607	4.0
115.622	4.0
115.637	6.0
115.652	4.0
115.667	2.0
115.682	5.0
115.697	3.0
115.712	1.0
115.727	3.0
115.741	5.0
115.756	6.0
115.771	2.0
115.786	2.0
115.801	2.0
115.816	6.0
115.831	1.0
115.846	2.0
115.861	1.0
115.875	4.0
115.89	1.0
115.905	3.0
115.92	5.0
115.935	4.0
115.95	4.0
115.965	0.0
115.98	2.0
115.995	3.0
116.009	3.0
116.024	4.0
116.039	2.0
116.054	4.0
116.069	3.0
116.084	2.0
116.099	2.0
116.113	7.0
116.128	5.0
116.143	3.0
116.158	5.0
116.173	1.0
116.188	4.0
116.202	7.0
116.217	2.0
116.232	4.0
116.247	8.0
116.262	4.0
116.277	5.0
116.291	3.0
116.306	8.0
116.321	2.0
116.336	5.0
116.351	6.0
116.366	8.0
116.38	0.0
116.395	2.0
116.41	5.0
116.425	3.0
116.44	6.0
116.454	2.0
116.469	6.0
116.484	5.0
116.499	4.0
116.514	3.0
116.528	3.0
116.543	2.0
116.558	3.0
116.573	3.0
116.588	1.0
116.602	3.0
116.617	6.0
116.632	3.0
116.647	2.0
116.662	2.0
116.676	6.0
116.691	3.0
116.706	3.0
116.721	3.0
116.735	4.0
116.75	2.0
116.765	0.0
116.78	5.0
116.795	4.0
116.809	2.0
116.824	4.0
116.839	6.0
116.854	5.0
116.868	5.0
116.883	11.0
116.898	5.0
116.913	2.0
116.927	3.0
116.942	5.0
116.957	5.0
116.972	4.0
116.986	2.0
117.001	2.0
117.016	1.0
117.031	7.0
117.045	3.0
117.06	2.0
117.075	2.0
117.09	3.0
117.104	4.0
117.119	2.0
117.134	4.0
117.149	2.0
117.163	4.0
117.178	3.0
117.193	4.0
117.208	6.0
117.222	5.0
117.237	3.0
117.252	3.0
117.267	6.0
117.281	1.0
117.296	4.0
117.311	3.0
117.325	4.0
117.34	2.0
117.355	3.0
117.37	5.0
117.384	1.0
117.399	5.0
117.414	4.0
117.429	4.0
117.443	7.0
117.458	5.0
117.473	1.0
117.487	2.0
117.502	8.0
117.517	6.0
117.532	2.0
117.546	8.0
117.561	3.0
117.576	4.0
117.59	2.0
117.605	3.0
117.62	6.0
117.635	3.0
117.649	4.0
117.664	2.0
117.679	4.0
117.693	4.0
117.708	4.0
117.723	0.0
117.738	2.0
117.752	0.0
117.767	3.0
117.782	4.0
117.796	8.0
117.811	3.0
117.826	3.0
117.841	5.0
117.855	3.0
117.87	1.0
117.885	5.0
117.899	4.0
117.914	3.0
117.929	1.0
117.944	4.0
117.958	4.0
117.973	7.0
117.988	1.0
118.002	6.0
118.017	3.0
118.032	7.0
118.047	2.0
118.062	4.0
118.077	4.0
118.092	3.0
118.107	2.0
118.121	5.0
118.136	9.0
118.151	4.0
118.166	1.0
118.181	3.0
118.196	6.0
118.211	4.0
118.225	6.0
118.24	5.0
118.255	3.0
118.27	8.0
118.285	5.0
118.3	4.0
118.315	4.0
118.33	8.0
118.344	3.0
118.359	4.0
118.374	3.0
118.389	5.0
118.404	2.0
118.419	7.0
118.434	7.0
118.449	4.0
118.463	3.0
118.478	4.0
118.493	4.0
118.508	2.0
118.523	6.0
118.538	3.0
118.553	5.0
118.567	3.0
118.582	3.0
118.597	4.0
118.612	5.0
118.627	4.0
118.642	5.0
118.657	1.0
118.672	3.0
118.686	3.0
118.701	5.0
118.716	3.0
118.731	5.0
118.746	5.0
118.761	4.0
118.776	6.0
118.791	6.0
118.805	5.0
118.82	2.0
118.835	3.0
118.85	5.0
118.865	3.0
118.88	2.0
118.895	4.0
118.909	2.0
118.924	9.0
118.939	0.0
118.954	4.0
118.969	5.0
118.984	4.0
118.999	5.0
119.014	5.0
119.028	3.0
119.043	8.0
119.058	2.0
119.073	8.0
119.088	3.0
119.103	2.0
119.118	3.0
119.133	4.0
119.147	4.0
119.162	3.0
119.177	8.0
119.192	6.0
119.207	6.0
119.222	2.0
119.237	1.0
119.251	6.0
119.266	4.0
119.281	2.0
119.296	4.0
119.311	1.0
119.326	3.0
119.341	4.0
119.356	1.0
119.37	5.0
119.385	3.0
119.4	6.0
119.415	8.0
119.43	1.0
119.445	4.0
119.46	4.0
119.475	5.0
119.489	7.0
119.504	8.0
119.519	2.0
119.534	0.0
119.549	2.0
119.564	2.0
119.579	4.0
119.593	1.0
119.608	2.0
119.623	4.0
119.638	3.0
119.653	1.0
119.668	1.0
119.683	2.0
119.698	3.0
119.712	3.0
119.727	3.0
119.742	1.0
119.757	3.0
119.772	2.0
119.787	5.0
119.802	6.0
119.817	2.0
119.831	4.0
119.846	3.0
119.861	2.0
119.876	2.0
119.891	4.0
119.906	6.0
119.921	4.0
119.935	3.0
119.95	3.0
119.965	3.0
119.98	1.0
119.995	3.0
120.01	2.0
120.025	6.0
120.04	2.0
120.054	1.0
120.069	0.0
120.084	1.0
120.099	2.0
120.114	1.0
120.129	3.0
120.144	0.0
120.159	0.0
120.173	3.0
120.188	0.0
120.203	1.0
120.218	0.0
120.233	1.0
120.248	0.0
120.263	0.0
120.277	1.0
120.292	3.0
120.307	0.0
120.322	0.0
120.337	0.0
120.352	1.0
120.367	0.0
120.382	0.0
120.396	0.0
120.411	0.0
120.426	0.0
120.441	1.0
120.456	0.0
120.471	1.0
120.486	1.0
120.501	1.0
120.515	0.0
120.53	0.0
120.545	0.0
120.56	0.0
120.575	0.0
120.59	0.0
120.605	0.0
120.619	0.0
120.634	0.0
120.649	0.0
120.664	0.0
120.679	0.0
120.694	0.0
120.709	1.0
120.724	0.0
120.738	0.0
120.753	0.0
120.768	0.0
120.783	0.0
120.798	0.0
120.813	0.0
120.828	0.0
120.843	0.0
120.857	0.0
120.872	0.0
120.887	0.0
120.902	0.0
120.917	0.0
120.932	0.0
120.947	0.0
120.961	0.0
120.976	0.0
