-1.217	0.0
-1.202	0.0
-1.187	0.0
-1.172	0.0
-1.157	0.0
-1.142	0.0
-1.128	0.0
-1.113	0.0
-1.098	0.0
-1.083	0.0
-1.068	0.0
-1.054	0.0
-1.039	0.0
-1.024	0.0
-1.009	0.0
-0.994	0.0
-0.979	0.0
-0.965	0.0
-0.95	0.0
-0.935	0.0
-0.92	1.0
-0.905	0.0
-0.891	0.0
-0.876	0.0
-0.861	0.0
-0.846	0.0
-0.831	0.0
-0.816	0.0
-0.802	0.0
-0.787	0.0
-0.772	0.0
-0.757	0.0
-0.742	0.0
-0.728	0.0
-0.713	0.0
-0.698	0.0
-0.683	0.0
-0.668	0.0
-0.653	0.0
-0.639	0.0
-0.624	0.0
-0.609	0.0
-0.594	0.0
-0.579	0.0
-0.565	0.0
-0.55	0.0
-0.535	0.0
-0.52	0.0
-0.505	0.0
-0.49	0.0
-0.476	0.0
-0.461	0.0
-0.446	0.0
-0.431	0.0
-0.416	1.0
-0.401	0.0
-0.387	0.0
-0.372	0.0
-0.357	0.0
-0.342	0.0
-0.327	0.0
-0.313	0.0
-0.298	0.0
-0.283	1.0
-0.268	0.0
-0.253	0.0
-0.238	0.0
-0.224	0.0
-0.209	0.0
-0.194	0.0
-0.179	0.0
-0.164	0.0
-0.15	0.0
-0.135	0.0
-0.12	0.0
-0.105	1.0
-0.09	1.0
-0.075	0.0
-0.061	0.0
-0.046	0.0
-0.031	0.0
-0.016	0.0
-0.001	0.0
0.013	0.0
0.028	0.0
0.043	0.0
0.058	0.0
0.073	0.0
0.088	0.0
0.102	0.0
0.117	0.0
0.132	0.0
0.147	0.0
0.162	0.0
0.176	0.0
0.191	1.0
0.206	0.0
0.221	0.0
0.236	0.0
0.251	0.0
0.265	0.0
0.28	0.0
0.295	0.0
0.31	0.0
0.325	0.0
0.339	0.0
0.354	0.0
0.369	0.0
0.384	0.0
0.399	0.0
0.414	0.0
0.428	0.0
0.443	0.0
0.458	0.0
0.473	0.0
0.488	0.0
0.502	0.0
0.517	0.0
0.532	0.0
0.547	0.0
0.562	0.0
0.577	0.0
0.591	0.0
0.606	0.0
0.621	0.0
0.636	0.0
0.651	0.0
0.665	0.0
0.68	0.0
0.695	0.0
0.71	0.0
0.725	0.0
0.74	0.0
0.754	0.0
0.769	0.0
0.784	0.0
0.799	0.0
0.814	0.0
0.828	0.0
0.843	1.0
0.858	0.0
0.873	0.0
0.888	0.0
0.903	0.0
0.917	0.0
0.932	0.0
0.947	0.0
0.962	0.0
0.977	0.0
0.991	1.0
1.006	0.0
1.021	0.0
1.036	0.0
1.051	0.0
1.065	0.0
1.08	0.0
1.095	0.0
1.11	0.0
1.125	0.0
1.14	0.0
1.154	0.0
1.169	0.0
1.184	0.0
1.199	0.0
1.214	0.0
1.228	0.0
1.243	0.0
1.258	0.0
1.273	0.0
1.288	0.0
1.302	0.0
1.317	0.0
1.332	0.0
1.347	0.0
1.362	0.0
1.376	0.0
1.391	0.0
1.406	0.0
1.421	0.0
1.436	0.0
1.45	0.0
1.465	0.0
1.48	0.0
1.495	0.0
1.51	0.0
1.524	0.0
1.539	0.0
1.554	0.0
1.569	0.0
1.584	0.0
1.598	0.0
1.613	0.0
1.628	0.0
1.643	0.0
1.658	0.0
1.672	0.0
1.687	0.0
1.702	0.0
1.717	0.0
1.732	0.0
1.746	0.0
1.761	0.0
1.776	0.0
1.791	0.0
1.806	0.0
1.82	0.0
1.835	0.0
1.85	0.0
1.865	0.0
1.88	0.0
1.894	0.0
1.909	0.0
1.924	1.0
1.939	0.0
1.954	0.0
1.968	0.0
1.983	0.0
1.998	1.0
2.013	0.0
2.028	0.0
2.042	0.0
2.057	1.0
2.072	1.0
2.087	0.0
2.101	0.0
2.116	1.0
2.131	0.0
2.146	0.0
2.161	0.0
2.175	0.0
2.19	0.0
2.205	0.0
2.22	0.0
2.235	3.0
2.249	0.0
2.264	0.0
2.279	0.0
2.294	0.0
2.308	0.0
2.323	0.0
2.338	1.0
2.353	3.0
2.368	3.0
2.382	1.0
2.397	2.0
2.412	1.0
2.427	0.0
2.442	0.0
2.456	1.0
2.471	2.0
2.486	2.0
2.501	2.0
2.515	1.0
2.53	1.0
2.545	3.0
2.56	0.0
2.575	2.0
2.589	6.0
2.604	3.0
2.619	1.0
2.634	4.0
2.649	3.0
2.663	0.0
2.678	2.0
2.693	2.0
2.708	2.0
2.722	2.0
2.737	2.0
2.752	4.0
2.767	2.0
2.782	3.0
2.796	2.0
2.811	2.0
2.826	1.0
2.841	4.0
2.856	1.0
2.87	2.0
2.885	2.0
2.9	6.0
2.915	6.0
2.93	4.0
2.944	8.0
2.959	4.0
2.974	2.0
2.989	5.0
3.004	4.0
3.018	4.0
3.033	5.0
3.048	4.0
3.063	5.0
3.078	6.0
3.092	4.0
3.107	6.0
3.122	6.0
3.137	7.0
3.152	7.0
3.166	5.0
3.181	6.0
3.196	2.0
3.211	4.0
3.226	6.0
3.24	2.0
3.255	6.0
3.27	4.0
3.285	3.0
3.3	4.0
3.315	0.0
3.329	3.0
3.344	6.0
3.359	4.0
3.374	2.0
3.389	7.0
3.403	3.0
3.418	2.0
3.433	8.0
3.448	3.0
3.463	3.0
3.478	4.0
3.492	6.0
3.507	7.0
3.522	4.0
3.537	3.0
3.552	4.0
3.567	5.0
3.581	2.0
3.596	6.0
3.611	2.0
3.626	7.0
3.641	4.0
3.656	11.0
3.671	8.0
3.685	8.0
3.7	7.0
3.715	5.0
3.73	8.0
3.745	13.0
3.76	6.0
3.775	5.0
3.789	7.0
3.804	7.0
3.819	8.0
3.834	4.0
3.849	7.0
3.864	5.0
3.879	7.0
3.894	7.0
3.908	4.0
3.923	6.0
3.938	2.0
3.953	8.0
3.968	5.0
3.983	10.0
3.998	8.0
4.013	2.0
4.027	7.0
4.042	4.0
4.057	6.0
4.072	8.0
4.087	7.0
4.102	4.0
4.117	6.0
4.132	9.0
4.147	5.0
4.162	9.0
4.176	5.0
4.191	7.0
4.206	6.0
4.221	4.0
4.236	5.0
4.251	10.0
4.266	6.0
4.281	5.0
4.296	9.0
4.311	6.0
4.326	4.0
4.341	7.0
4.356	8.0
4.37	9.0
4.385	13.0
4.4	4.0
4.415	1.0
4.43	7.0
4.445	2.0
4.46	7.0
4.475	8.0
4.49	4.0
4.505	8.0
4.52	6.0
4.535	6.0
4.55	8.0
4.565	5.0
4.58	5.0
4.595	7.0
4.61	7.0
4.625	9.0
4.639	9.0
4.654	4.0
4.669	6.0
4.684	5.0
4.699	7.0
4.714	8.0
4.729	12.0
4.744	9.0
4.759	7.0
4.774	7.0
4.789	7.0
4.804	8.0
4.819	3.0
4.834	6.0
4.849	13.0
4.864	9.0
4.879	8.0
4.894	12.0
4.909	12.0
4.924	3.0
4.939	8.0
4.954	11.0
4.969	7.0
4.984	7.0
4.999	9.0
5.014	10.0
5.029	9.0
5.044	13.0
5.059	4.0
5.074	5.0
5.089	2.0
5.104	4.0
5.119	8.0
5.134	6.0
5.149	6.0
5.164	8.0
5.179	6.0
5.194	6.0
5.209	9.0
5.224	5.0
5.239	4.0
5.254	13.0
5.269	5.0
5.284	6.0
5.299	6.0
5.314	9.0
5.329	7.0
5.344	11.0
5.359	7.0
5.374	11.0
5.389	6.0
5.404	9.0
5.419	9.0
5.434	5.0
5.449	13.0
5.464	8.0
5.479	11.0
5.494	6.0
5.509	5.0
5.524	11.0
5.539	7.0
5.554	10.0
5.569	13.0
5.584	11.0
5.599	7.0
5.614	9.0
5.629	9.0
5.644	6.0
5.659	2.0
5.674	15.0
5.689	10.0
5.704	9.0
5.719	12.0
5.734	13.0
5.749	8.0
5.764	8.0
5.779	8.0
5.794	11.0
5.809	11.0
5.824	7.0
5.839	16.0
5.854	4.0
5.869	1.0
5.884	11.0
5.899	12.0
5.914	9.0
5.929	5.0
5.944	7.0
5.959	3.0
5.974	15.0
5.989	6.0
6.004	7.0
6.019	8.0
6.034	8.0
6.049	11.0
6.064	9.0
6.079	10.0
6.094	13.0
6.109	8.0
6.124	7.0
6.139	14.0
6.154	11.0
6.169	5.0
6.184	13.0
6.199	8.0
6.214	7.0
6.229	13.0
6.244	12.0
6.259	10.0
6.274	10.0
6.289	10.0
6.304	11.0
6.319	10.0
6.334	13.0
6.349	7.0
6.364	7.0
6.379	10.0
6.394	7.0
6.409	13.0
6.424	7.0
6.439	9.0
6.454	16.0
6.469	13.0
6.484	6.0
6.499	9.0
6.514	8.0
6.529	10.0
6.544	9.0
6.559	7.0
6.574	10.0
6.589	7.0
6.604	5.0
6.619	7.0
6.634	9.0
6.649	10.0
6.664	12.0
6.679	4.0
6.694	11.0
6.709	5.0
6.724	6.0
6.739	8.0
6.754	8.0
6.769	9.0
6.784	11.0
6.799	8.0
6.814	9.0
6.829	16.0
6.844	8.0
6.859	12.0
6.873	7.0
6.888	5.0
6.903	8.0
6.918	9.0
6.933	9.0
6.948	6.0
6.963	12.0
6.978	9.0
6.993	11.0
7.008	5.0
7.023	8.0
7.038	9.0
7.053	7.0
7.068	9.0
7.083	8.0
7.098	9.0
7.113	7.0
7.128	10.0
7.143	10.0
7.157	6.0
7.172	11.0
7.187	9.0
7.202	11.0
7.217	14.0
7.232	9.0
7.247	9.0
7.262	11.0
7.277	11.0
7.292	11.0
7.307	5.0
7.322	10.0
7.336	14.0
7.351	9.0
7.366	14.0
7.381	13.0
7.396	11.0
7.411	12.0
7.426	12.0
7.441	11.0
7.456	10.0
7.471	7.0
7.485	7.0
7.5	10.0
7.515	10.0
7.53	9.0
7.545	11.0
7.56	9.0
7.575	4.0
7.59	9.0
7.604	6.0
7.619	8.0
7.634	8.0
7.649	12.0
7.664	10.0
7.679	4.0
7.693	12.0
7.708	6.0
7.723	11.0
7.738	10.0
7.753	4.0
7.768	9.0
7.783	7.0
7.797	8.0
7.812	9.0
7.827	10.0
7.842	7.0
7.857	9.0
7.871	9.0
7.886	12.0
7.901	9.0
7.916	9.0
7.931	9.0
7.945	6.0
7.96	7.0
7.975	8.0
7.99	7.0
8.005	10.0
8.019	4.0
8.034	7.0
8.049	9.0
8.064	10.0
8.078	6.0
8.093	8.0
8.108	12.0
8.123	6.0
8.137	9.0
8.152	14.0
8.167	7.0
8.182	10.0
8.196	9.0
8.211	9.0
8.226	9.0
8.241	12.0
8.255	14.0
8.27	8.0
8.285	9.0
8.3	12.0
8.314	10.0
8.329	7.0
8.344	7.0
8.358	10.0
8.373	12.0
8.388	9.0
8.403	17.0
8.417	5.0
8.432	9.0
8.447	12.0
8.461	16.0
8.476	7.0
8.491	6.0
8.505	9.0
8.52	10.0
8.535	8.0
8.55	9.0
8.564	8.0
8.579	7.0
8.594	8.0
8.608	8.0
8.623	7.0
8.638	7.0
8.652	14.0
8.667	7.0
8.682	10.0
8.696	10.0
8.711	14.0
8.726	6.0
8.74	6.0
8.755	12.0
8.77	6.0
8.784	6.0
8.799	7.0
8.814	14.0
8.828	10.0
8.843	6.0
8.858	7.0
8.872	13.0
8.887	9.0
8.902	10.0
8.916	9.0
8.931	4.0
8.946	5.0
8.96	6.0
8.975	5.0
8.99	8.0
9.004	8.0
9.019	10.0
9.034	6.0
9.048	13.0
9.063	13.0
9.077	7.0
9.092	11.0
9.107	6.0
9.121	6.0
9.136	3.0
9.151	9.0
9.165	8.0
9.18	7.0
9.195	12.0
9.209	10.0
9.224	11.0
9.239	13.0
9.253	8.0
9.268	14.0
9.283	7.0
9.297	8.0
9.312	9.0
9.327	12.0
9.341	9.0
9.356	2.0
9.371	11.0
9.385	2.0
9.4	9.0
9.415	11.0
9.429	7.0
9.444	9.0
9.458	15.0
9.473	7.0
9.488	11.0
9.502	11.0
9.517	4.0
9.532	7.0
9.546	10.0
9.561	7.0
9.576	7.0
9.59	12.0
9.605	8.0
9.62	10.0
9.635	7.0
9.649	9.0
9.664	8.0
9.679	4.0
9.693	8.0
9.708	7.0
9.723	10.0
9.737	15.0
9.752	10.0
9.767	8.0
9.781	11.0
9.796	11.0
9.811	12.0
9.825	11.0
9.84	9.0
9.855	7.0
9.87	13.0
9.884	4.0
9.899	6.0
9.914	8.0
9.928	7.0
9.943	9.0
9.958	7.0
9.973	8.0
9.987	9.0
10.002	8.0
10.017	12.0
10.031	6.0
10.046	10.0
10.061	11.0
10.076	4.0
10.09	9.0
10.105	8.0
10.12	7.0
10.135	11.0
10.149	4.0
10.164	10.0
10.179	8.0
10.194	6.0
10.208	6.0
10.223	11.0
10.238	6.0
10.253	6.0
10.267	5.0
10.282	5.0
10.297	12.0
10.312	12.0
10.326	14.0
10.341	12.0
10.356	5.0
10.371	11.0
10.386	10.0
10.4	5.0
10.415	7.0
10.43	5.0
10.445	11.0
10.46	7.0
10.474	12.0
10.489	10.0
10.504	4.0
10.519	2.0
10.533	8.0
10.548	9.0
10.563	1.0
10.578	15.0
10.593	9.0
10.608	2.0
10.622	5.0
10.637	10.0
10.652	13.0
10.667	6.0
10.682	8.0
10.696	5.0
10.711	7.0
10.726	2.0
10.741	8.0
10.756	8.0
10.771	7.0
10.785	5.0
10.8	4.0
10.815	10.0
10.83	9.0
10.845	9.0
10.86	8.0
10.874	3.0
10.889	11.0
10.904	11.0
10.919	11.0
10.934	6.0
10.949	4.0
10.963	9.0
10.978	6.0
10.993	12.0
11.008	3.0
11.023	15.0
11.038	6.0
11.053	6.0
11.067	8.0
11.082	9.0
11.097	6.0
11.112	9.0
11.127	9.0
11.142	11.0
11.157	11.0
11.172	1.0
11.186	4.0
11.201	9.0
11.216	7.0
11.231	8.0
11.246	7.0
11.261	9.0
11.276	11.0
11.291	4.0
11.305	10.0
11.32	5.0
11.335	8.0
11.35	7.0
11.365	11.0
11.38	10.0
11.395	8.0
11.41	6.0
11.424	5.0
11.439	7.0
11.454	5.0
11.469	9.0
11.484	13.0
11.499	7.0
11.514	7.0
11.529	4.0
11.544	10.0
11.558	7.0
11.573	8.0
11.588	5.0
11.603	6.0
11.618	9.0
11.633	9.0
11.648	11.0
11.663	9.0
11.678	11.0
11.693	6.0
11.707	12.0
11.722	8.0
11.737	11.0
11.752	10.0
11.767	9.0
11.782	5.0
11.797	6.0
11.812	6.0
11.827	7.0
11.842	9.0
11.856	10.0
11.871	6.0
11.886	12.0
11.901	8.0
11.916	8.0
11.931	7.0
11.946	6.0
11.961	11.0
11.976	10.0
11.991	10.0
12.006	12.0
12.02	13.0
12.035	8.0
12.05	9.0
12.065	10.0
12.08	9.0
12.095	9.0
12.11	5.0
12.125	12.0
12.14	9.0
12.155	12.0
12.17	10.0
12.184	9.0
12.199	7.0
12.214	11.0
12.229	11.0
12.244	8.0
12.259	8.0
12.274	8.0
12.289	10.0
12.304	16.0
12.319	10.0
12.334	4.0
12.348	11.0
12.363	16.0
12.378	7.0
12.393	12.0
12.408	12.0
12.423	10.0
12.438	14.0
12.453	12.0
12.468	10.0
12.483	18.0
12.498	13.0
12.513	12.0
12.527	13.0
12.542	11.0
12.557	13.0
12.572	9.0
12.587	13.0
12.602	12.0
12.617	16.0
12.632	13.0
12.647	15.0
12.662	14.0
12.677	18.0
12.692	12.0
12.707	11.0
12.721	14.0
12.736	8.0
12.751	17.0
12.766	20.0
12.781	12.0
12.796	12.0
12.811	15.0
12.826	16.0
12.841	6.0
12.856	8.0
12.871	20.0
12.886	15.0
12.9	15.0
12.915	14.0
12.93	11.0
12.945	14.0
12.96	21.0
12.975	21.0
12.99	18.0
13.005	17.0
13.02	18.0
13.035	14.0
13.05	9.0
13.065	19.0
13.08	24.0
13.094	13.0
13.109	17.0
13.124	18.0
13.139	18.0
13.154	19.0
13.169	15.0
13.184	18.0
13.199	25.0
13.214	22.0
13.229	20.0
13.244	25.0
13.259	26.0
13.274	16.0
13.288	20.0
13.303	17.0
13.318	18.0
13.333	23.0
13.348	22.0
13.363	21.0
13.378	23.0
13.393	27.0
13.408	35.0
13.423	20.0
13.438	25.0
13.453	29.0
13.468	34.0
13.482	39.0
13.497	41.0
13.512	35.0
13.527	40.0
13.542	44.0
13.557	44.0
13.572	46.0
13.587	59.0
13.602	60.0
13.617	66.0
13.632	76.0
13.647	69.0
13.662	66.0
13.677	95.0
13.691	77.0
13.706	84.0
13.721	93.0
13.736	109.0
13.751	114.0
13.766	111.0
13.781	124.0
13.796	130.0
13.811	131.0
13.826	128.0
13.841	121.0
13.856	116.0
13.871	103.0
13.885	103.0
13.9	100.0
13.915	80.0
13.93	61.0
13.945	58.0
13.96	45.0
13.975	42.0
13.99	31.0
14.005	31.0
14.02	46.0
14.035	32.0
14.05	32.0
14.065	18.0
14.08	30.0
14.094	23.0
14.109	16.0
14.124	28.0
14.139	19.0
14.154	23.0
14.169	23.0
14.184	12.0
14.199	20.0
14.214	21.0
14.229	26.0
14.244	20.0
14.259	19.0
14.274	18.0
14.288	21.0
14.303	25.0
14.318	28.0
14.333	20.0
14.348	22.0
14.363	25.0
14.378	24.0
14.393	26.0
14.408	18.0
14.423	11.0
14.438	21.0
14.453	13.0
14.468	18.0
14.482	16.0
14.497	18.0
14.512	13.0
14.527	14.0
14.542	18.0
14.557	25.0
14.572	16.0
14.587	12.0
14.602	21.0
14.617	15.0
14.632	22.0
14.647	11.0
14.661	21.0
14.676	17.0
14.691	19.0
14.706	16.0
14.721	17.0
14.736	15.0
14.751	15.0
14.766	9.0
14.781	11.0
14.796	12.0
14.811	15.0
14.826	14.0
14.84	16.0
14.855	9.0
14.87	17.0
14.885	19.0
14.9	17.0
14.915	17.0
14.93	17.0
14.945	15.0
14.96	9.0
14.975	25.0
14.989	14.0
15.004	14.0
15.019	23.0
15.034	18.0
15.049	18.0
15.064	13.0
15.079	7.0
15.094	19.0
15.109	19.0
15.124	15.0
15.138	16.0
15.153	18.0
15.168	11.0
15.183	13.0
15.198	16.0
15.213	18.0
15.228	20.0
15.243	21.0
15.258	14.0
15.272	13.0
15.287	11.0
15.302	19.0
15.317	17.0
15.332	7.0
15.347	11.0
15.362	12.0
15.377	20.0
15.391	18.0
15.406	16.0
15.421	17.0
15.436	11.0
15.451	16.0
15.466	21.0
15.481	19.0
15.496	18.0
15.51	10.0
15.525	13.0
15.54	16.0
15.555	15.0
15.57	10.0
15.585	13.0
15.6	17.0
15.614	15.0
15.629	12.0
15.644	19.0
15.659	19.0
15.674	11.0
15.689	21.0
15.704	20.0
15.718	20.0
15.733	10.0
15.748	15.0
15.763	9.0
15.778	9.0
15.793	8.0
15.808	12.0
15.822	10.0
15.837	20.0
15.852	15.0
15.867	16.0
15.882	17.0
15.897	18.0
15.911	11.0
15.926	14.0
15.941	13.0
15.956	12.0
15.971	13.0
15.986	16.0
16.0	20.0
16.015	17.0
16.03	14.0
16.045	13.0
16.06	10.0
16.074	14.0
16.089	8.0
16.104	14.0
16.119	11.0
16.134	15.0
16.149	13.0
16.163	16.0
16.178	10.0
16.193	13.0
16.208	11.0
16.223	16.0
16.237	14.0
16.252	16.0
16.267	15.0
16.282	11.0
16.297	11.0
16.311	10.0
16.326	11.0
16.341	22.0
16.356	17.0
16.37	16.0
16.385	11.0
16.4	17.0
16.415	19.0
16.43	12.0
16.444	9.0
16.459	19.0
16.474	10.0
16.489	11.0
16.504	16.0
16.518	20.0
16.533	13.0
16.548	18.0
16.563	21.0
16.577	16.0
16.592	18.0
16.607	17.0
16.622	20.0
16.637	18.0
16.651	12.0
16.666	22.0
16.681	24.0
16.696	31.0
16.71	27.0
16.725	21.0
16.74	24.0
16.755	36.0
16.77	29.0
16.784	40.0
16.799	25.0
16.814	43.0
16.829	38.0
16.843	51.0
16.858	44.0
16.873	53.0
16.888	56.0
16.902	61.0
16.917	65.0
16.932	55.0
16.947	69.0
16.961	67.0
16.976	80.0
16.991	50.0
17.006	58.0
17.021	60.0
17.035	51.0
17.05	53.0
17.065	48.0
17.08	50.0
17.094	30.0
17.109	31.0
17.124	28.0
17.139	21.0
17.153	22.0
17.168	31.0
17.183	18.0
17.198	13.0
17.212	14.0
17.227	9.0
17.242	18.0
17.257	21.0
17.271	12.0
17.286	18.0
17.301	12.0
17.316	9.0
17.33	8.0
17.345	19.0
17.36	9.0
17.375	9.0
17.39	18.0
17.404	10.0
17.419	20.0
17.434	12.0
17.449	8.0
17.463	13.0
17.478	13.0
17.493	16.0
17.508	16.0
17.522	10.0
17.537	15.0
17.552	13.0
17.567	16.0
17.581	17.0
17.596	14.0
17.611	10.0
17.626	11.0
17.641	11.0
17.655	11.0
17.67	11.0
17.685	14.0
17.7	14.0
17.714	11.0
17.729	14.0
17.744	8.0
17.759	11.0
17.773	15.0
17.788	11.0
17.803	22.0
17.818	9.0
17.833	12.0
17.847	16.0
17.862	15.0
17.877	15.0
17.892	11.0
17.906	20.0
17.921	14.0
17.936	8.0
17.951	16.0
17.966	10.0
17.98	13.0
17.995	11.0
18.01	9.0
18.025	13.0
18.04	7.0
18.054	15.0
18.069	15.0
18.084	7.0
18.099	16.0
18.114	12.0
18.128	9.0
18.143	11.0
18.158	12.0
18.173	11.0
18.188	4.0
18.202	14.0
18.217	5.0
18.232	14.0
18.247	16.0
18.262	8.0
18.276	11.0
18.291	9.0
18.306	15.0
18.321	11.0
18.336	9.0
18.35	15.0
18.365	7.0
18.38	7.0
18.395	11.0
18.41	18.0
18.424	11.0
18.439	10.0
18.454	9.0
18.469	13.0
18.484	13.0
18.498	12.0
18.513	12.0
18.528	19.0
18.543	11.0
18.558	11.0
18.573	19.0
18.587	13.0
18.602	17.0
18.617	10.0
18.632	9.0
18.647	21.0
18.661	8.0
18.676	11.0
18.691	15.0
18.706	14.0
18.721	8.0
18.736	15.0
18.75	8.0
18.765	15.0
18.78	6.0
18.795	10.0
18.81	10.0
18.825	9.0
18.839	7.0
18.854	15.0
18.869	10.0
18.884	9.0
18.899	10.0
18.913	10.0
18.928	15.0
18.943	10.0
18.958	9.0
18.973	17.0
18.988	15.0
19.002	11.0
19.017	6.0
19.032	17.0
19.047	10.0
19.062	7.0
19.077	9.0
19.091	16.0
19.106	12.0
19.121	11.0
19.136	7.0
19.151	9.0
19.165	12.0
19.18	8.0
19.195	14.0
19.21	12.0
19.225	11.0
19.24	14.0
19.254	20.0
19.269	15.0
19.284	21.0
19.299	14.0
19.314	17.0
19.329	20.0
19.343	11.0
19.358	22.0
19.373	19.0
19.388	15.0
19.403	18.0
19.417	21.0
19.432	19.0
19.447	27.0
19.462	23.0
19.477	30.0
19.492	32.0
19.506	35.0
19.521	37.0
19.536	38.0
19.551	41.0
19.566	35.0
19.58	43.0
19.595	45.0
19.61	55.0
19.625	50.0
19.64	51.0
19.655	29.0
19.669	22.0
19.684	34.0
19.699	35.0
19.714	32.0
19.729	34.0
19.743	21.0
19.758	26.0
19.773	22.0
19.788	24.0
19.803	22.0
19.817	19.0
19.832	22.0
19.847	15.0
19.862	13.0
19.877	13.0
19.891	16.0
19.906	16.0
19.921	16.0
19.936	14.0
19.951	14.0
19.965	12.0
19.98	13.0
19.995	15.0
20.01	13.0
20.025	16.0
20.039	11.0
20.054	12.0
20.069	12.0
20.084	10.0
20.099	6.0
20.113	8.0
20.128	17.0
20.143	14.0
20.158	9.0
20.173	13.0
20.187	18.0
20.202	11.0
20.217	14.0
20.232	5.0
20.246	12.0
20.261	9.0
20.276	15.0
20.291	11.0
20.306	8.0
20.32	6.0
20.335	17.0
20.35	10.0
20.365	11.0
20.38	13.0
20.394	18.0
20.409	13.0
20.424	10.0
20.439	12.0
20.453	9.0
20.468	7.0
20.483	10.0
20.498	12.0
20.513	14.0
20.527	13.0
20.542	16.0
20.557	5.0
20.572	16.0
20.586	8.0
20.601	10.0
20.616	9.0
20.631	7.0
20.646	15.0
20.66	14.0
20.675	8.0
20.69	7.0
20.705	19.0
20.719	11.0
20.734	13.0
20.749	16.0
20.764	15.0
20.779	13.0
20.793	8.0
20.808	7.0
20.823	10.0
20.838	8.0
20.853	15.0
20.867	11.0
20.882	13.0
20.897	12.0
20.912	10.0
20.926	12.0
20.941	13.0
20.956	9.0
20.971	10.0
20.986	15.0
21.0	15.0
21.015	12.0
21.03	16.0
21.045	9.0
21.06	17.0
21.074	15.0
21.089	10.0
21.104	7.0
21.119	11.0
21.134	13.0
21.148	9.0
21.163	11.0
21.178	8.0
21.193	11.0
21.208	15.0
21.222	9.0
21.237	14.0
21.252	13.0
21.267	12.0
21.282	9.0
21.296	11.0
21.311	8.0
21.326	12.0
21.341	8.0
21.356	16.0
21.37	6.0
21.385	8.0
21.4	13.0
21.415	12.0
21.43	16.0
21.444	10.0
21.459	15.0
21.474	11.0
21.489	14.0
21.504	8.0
21.519	9.0
21.533	17.0
21.548	9.0
21.563	10.0
21.578	20.0
21.593	18.0
21.608	16.0
21.622	22.0
21.637	10.0
21.652	18.0
21.667	20.0
21.682	16.0
21.697	26.0
21.712	13.0
21.726	18.0
21.741	31.0
21.756	29.0
21.771	29.0
21.786	36.0
21.801	40.0
21.816	27.0
21.83	47.0
21.845	43.0
21.86	55.0
21.875	68.0
21.89	58.0
21.905	82.0
21.92	76.0
21.935	92.0
21.949	87.0
21.964	74.0
21.979	79.0
21.994	83.0
22.009	82.0
22.024	74.0
22.039	71.0
22.054	57.0
22.069	61.0
22.083	44.0
22.098	43.0
22.113	38.0
22.128	30.0
22.143	29.0
22.158	24.0
22.173	25.0
22.188	18.0
22.203	23.0
22.218	21.0
22.233	21.0
22.248	12.0
22.262	11.0
22.277	19.0
22.292	16.0
22.307	18.0
22.322	12.0
22.337	11.0
22.352	12.0
22.367	11.0
22.382	16.0
22.397	12.0
22.412	13.0
22.427	9.0
22.442	7.0
22.457	11.0
22.472	18.0
22.487	13.0
22.502	10.0
22.516	12.0
22.531	15.0
22.546	9.0
22.561	19.0
22.576	11.0
22.591	9.0
22.606	10.0
22.621	11.0
22.636	15.0
22.651	9.0
22.666	9.0
22.681	12.0
22.696	13.0
22.711	8.0
22.726	6.0
22.741	8.0
22.756	11.0
22.771	12.0
22.786	12.0
22.801	12.0
22.816	9.0
22.831	11.0
22.846	15.0
22.861	15.0
22.876	11.0
22.891	16.0
22.906	16.0
22.92	18.0
22.935	7.0
22.95	17.0
22.965	14.0
22.98	11.0
22.995	11.0
23.01	13.0
23.025	10.0
23.04	12.0
23.055	10.0
23.07	7.0
23.085	15.0
23.1	6.0
23.115	7.0
23.13	10.0
23.145	5.0
23.16	9.0
23.175	7.0
23.19	13.0
23.205	9.0
23.22	9.0
23.235	14.0
23.25	12.0
23.265	12.0
23.28	9.0
23.295	12.0
23.31	17.0
23.325	12.0
23.34	10.0
23.355	11.0
23.37	13.0
23.384	10.0
23.399	17.0
23.414	16.0
23.429	9.0
23.444	7.0
23.459	10.0
23.474	9.0
23.489	17.0
23.504	10.0
23.519	8.0
23.534	6.0
23.549	8.0
23.564	15.0
23.579	14.0
23.594	14.0
23.609	18.0
23.624	14.0
23.639	11.0
23.654	11.0
23.668	13.0
23.683	12.0
23.698	9.0
23.713	10.0
23.728	11.0
23.743	12.0
23.758	19.0
23.773	7.0
23.788	17.0
23.803	12.0
23.818	15.0
23.833	11.0
23.848	6.0
23.862	21.0
23.877	19.0
23.892	28.0
23.907	24.0
23.922	17.0
23.937	24.0
23.952	34.0
23.967	23.0
23.982	44.0
23.997	47.0
24.011	31.0
24.026	46.0
24.041	48.0
24.056	45.0
24.071	45.0
24.086	65.0
24.101	46.0
24.116	60.0
24.131	49.0
24.145	37.0
24.16	53.0
24.175	43.0
24.19	34.0
24.205	37.0
24.22	35.0
24.235	36.0
24.249	24.0
24.264	21.0
24.279	17.0
24.294	18.0
24.309	19.0
24.324	19.0
24.338	19.0
24.353	18.0
24.368	15.0
24.383	11.0
24.398	14.0
24.413	6.0
24.428	17.0
24.442	9.0
24.457	8.0
24.472	9.0
24.487	8.0
24.502	6.0
24.516	15.0
24.531	14.0
24.546	7.0
24.561	6.0
24.576	11.0
24.591	7.0
24.605	17.0
24.62	8.0
24.635	8.0
24.65	11.0
24.665	14.0
24.679	11.0
24.694	13.0
24.709	15.0
24.724	9.0
24.739	10.0
24.753	7.0
24.768	19.0
24.783	13.0
24.798	13.0
24.813	8.0
24.827	9.0
24.842	13.0
24.857	14.0
24.872	6.0
24.886	9.0
24.901	12.0
24.916	8.0
24.931	7.0
24.946	13.0
24.96	7.0
24.975	9.0
24.99	12.0
25.005	17.0
25.019	7.0
25.034	11.0
25.049	16.0
25.064	6.0
25.078	10.0
25.093	8.0
25.108	12.0
25.123	21.0
25.138	10.0
25.152	12.0
25.167	6.0
25.182	14.0
25.197	13.0
25.211	13.0
25.226	11.0
25.241	6.0
25.256	4.0
25.27	11.0
25.285	7.0
25.3	10.0
25.315	11.0
25.329	11.0
25.344	13.0
25.359	9.0
25.374	9.0
25.388	10.0
25.403	7.0
25.418	14.0
25.433	11.0
25.447	16.0
25.462	8.0
25.477	13.0
25.492	11.0
25.506	7.0
25.521	10.0
25.536	8.0
25.55	15.0
25.565	3.0
25.58	5.0
25.595	13.0
25.609	9.0
25.624	12.0
25.639	14.0
25.654	6.0
25.668	11.0
25.683	6.0
25.698	3.0
25.713	8.0
25.727	9.0
25.742	8.0
25.757	13.0
25.772	13.0
25.786	15.0
25.801	10.0
25.816	12.0
25.83	7.0
25.845	8.0
25.86	9.0
25.875	8.0
25.889	10.0
25.904	13.0
25.919	10.0
25.934	15.0
25.948	12.0
25.963	7.0
25.978	13.0
25.992	20.0
26.007	10.0
26.022	16.0
26.037	12.0
26.051	7.0
26.066	7.0
26.081	15.0
26.096	11.0
26.11	9.0
26.125	6.0
26.14	6.0
26.155	8.0
26.169	13.0
26.184	14.0
26.199	15.0
26.213	9.0
26.228	8.0
26.243	9.0
26.258	13.0
26.272	12.0
26.287	4.0
26.302	10.0
26.317	5.0
26.331	7.0
26.346	17.0
26.361	6.0
26.376	13.0
26.39	12.0
26.405	10.0
26.42	8.0
26.434	5.0
26.449	8.0
26.464	15.0
26.479	9.0
26.493	10.0
26.508	8.0
26.523	11.0
26.538	12.0
26.552	11.0
26.567	7.0
26.582	9.0
26.597	16.0
26.611	9.0
26.626	7.0
26.641	15.0
26.656	14.0
26.67	5.0
26.685	5.0
26.7	7.0
26.715	14.0
26.729	7.0
26.744	9.0
26.759	5.0
26.773	9.0
26.788	10.0
26.803	7.0
26.818	12.0
26.832	10.0
26.847	14.0
26.862	10.0
26.877	9.0
26.891	6.0
26.906	9.0
26.921	10.0
26.936	8.0
26.95	13.0
26.965	8.0
26.98	15.0
26.995	12.0
27.01	11.0
27.024	9.0
27.039	9.0
27.054	16.0
27.069	11.0
27.083	6.0
27.098	13.0
27.113	13.0
27.128	11.0
27.142	10.0
27.157	13.0
27.172	9.0
27.187	6.0
27.201	7.0
27.216	7.0
27.231	10.0
27.246	9.0
27.261	11.0
27.275	9.0
27.29	5.0
27.305	11.0
27.32	11.0
27.334	14.0
27.349	8.0
27.364	5.0
27.379	12.0
27.394	7.0
27.408	10.0
27.423	9.0
27.438	9.0
27.453	10.0
27.467	8.0
27.482	10.0
27.497	16.0
27.512	10.0
27.527	11.0
27.541	9.0
27.556	6.0
27.571	9.0
27.586	12.0
27.601	11.0
27.615	5.0
27.63	13.0
27.645	6.0
27.66	13.0
27.675	9.0
27.689	15.0
27.704	9.0
27.719	16.0
27.734	26.0
27.749	10.0
27.763	29.0
27.778	13.0
27.793	18.0
27.808	16.0
27.823	29.0
27.838	20.0
27.852	18.0
27.867	22.0
27.882	20.0
27.897	28.0
27.912	17.0
27.926	17.0
27.941	26.0
27.956	25.0
27.971	23.0
27.986	23.0
28.001	22.0
28.015	24.0
28.03	19.0
28.045	28.0
28.06	22.0
28.075	22.0
28.09	18.0
28.105	15.0
28.119	15.0
28.134	16.0
28.149	16.0
28.164	12.0
28.179	15.0
28.194	10.0
28.208	15.0
28.223	7.0
28.238	11.0
28.253	10.0
28.268	12.0
28.283	13.0
28.298	12.0
28.312	16.0
28.327	11.0
28.342	15.0
28.357	4.0
28.372	13.0
28.387	19.0
28.402	13.0
28.417	9.0
28.431	9.0
28.446	13.0
28.461	17.0
28.476	10.0
28.491	9.0
28.506	7.0
28.521	11.0
28.536	5.0
28.55	6.0
28.565	11.0
28.58	17.0
28.595	9.0
28.61	14.0
28.625	11.0
28.64	5.0
28.655	7.0
28.669	14.0
28.684	9.0
28.699	12.0
28.714	17.0
28.729	12.0
28.744	15.0
28.759	18.0
28.774	10.0
28.788	10.0
28.803	15.0
28.818	17.0
28.833	10.0
28.848	13.0
28.863	14.0
28.878	5.0
28.893	8.0
28.908	11.0
28.922	12.0
28.937	14.0
28.952	4.0
28.967	6.0
28.982	11.0
28.997	12.0
29.012	13.0
29.027	8.0
29.041	5.0
29.056	10.0
29.071	12.0
29.086	10.0
29.101	12.0
29.116	8.0
29.131	9.0
29.146	11.0
29.16	9.0
29.175	13.0
29.19	11.0
29.205	16.0
29.22	7.0
29.235	13.0
29.25	10.0
29.265	11.0
29.279	23.0
29.294	14.0
29.309	10.0
29.324	5.0
29.339	18.0
29.354	16.0
29.369	11.0
29.384	10.0
29.398	10.0
29.413	17.0
29.428	18.0
29.443	15.0
29.458	21.0
29.473	23.0
29.488	17.0
29.502	37.0
29.517	41.0
29.532	39.0
29.547	41.0
29.562	47.0
29.577	56.0
29.592	48.0
29.606	56.0
29.621	55.0
29.636	47.0
29.651	53.0
29.666	47.0
29.681	44.0
29.695	45.0
29.71	34.0
29.725	35.0
29.74	27.0
29.755	33.0
29.77	32.0
29.784	26.0
29.799	34.0
29.814	25.0
29.829	18.0
29.844	31.0
29.859	18.0
29.873	28.0
29.888	16.0
29.903	27.0
29.918	11.0
29.933	13.0
29.947	20.0
29.962	9.0
29.977	8.0
29.992	5.0
30.007	9.0
30.021	9.0
30.036	8.0
30.051	14.0
30.066	17.0
30.081	15.0
30.095	13.0
30.11	20.0
30.125	15.0
30.14	17.0
30.155	7.0
30.169	9.0
30.184	9.0
30.199	7.0
30.214	12.0
30.228	15.0
30.243	8.0
30.258	8.0
30.273	13.0
30.288	2.0
30.302	11.0
30.317	12.0
30.332	18.0
30.347	13.0
30.361	10.0
30.376	11.0
30.391	12.0
30.406	8.0
30.42	13.0
30.435	10.0
30.45	13.0
30.465	10.0
30.479	8.0
30.494	10.0
30.509	9.0
30.524	11.0
30.538	13.0
30.553	13.0
30.568	17.0
30.583	15.0
30.597	9.0
30.612	9.0
30.627	11.0
30.641	13.0
30.656	10.0
30.671	8.0
30.686	7.0
30.7	10.0
30.715	6.0
30.73	11.0
30.745	12.0
30.759	10.0
30.774	10.0
30.789	8.0
30.803	12.0
30.818	14.0
30.833	9.0
30.848	13.0
30.862	9.0
30.877	11.0
30.892	13.0
30.906	16.0
30.921	10.0
30.936	15.0
30.951	9.0
30.965	5.0
30.98	11.0
30.995	14.0
31.009	13.0
31.024	14.0
31.039	11.0
31.053	10.0
31.068	17.0
31.083	17.0
31.098	24.0
31.112	12.0
31.127	22.0
31.142	20.0
31.156	21.0
31.171	33.0
31.186	31.0
31.2	35.0
31.215	27.0
31.23	44.0
31.245	41.0
31.259	46.0
31.274	39.0
31.289	35.0
31.303	28.0
31.318	37.0
31.333	31.0
31.347	27.0
31.362	31.0
31.377	28.0
31.392	19.0
31.406	13.0
31.421	26.0
31.436	32.0
31.45	29.0
31.465	19.0
31.48	33.0
31.494	21.0
31.509	15.0
31.524	24.0
31.538	16.0
31.553	12.0
31.568	18.0
31.583	12.0
31.597	6.0
31.612	9.0
31.627	12.0
31.641	12.0
31.656	8.0
31.671	10.0
31.685	12.0
31.7	10.0
31.715	17.0
31.729	9.0
31.744	7.0
31.759	8.0
31.774	11.0
31.788	11.0
31.803	8.0
31.818	6.0
31.832	11.0
31.847	10.0
31.862	14.0
31.876	14.0
31.891	17.0
31.906	12.0
31.92	10.0
31.935	5.0
31.95	12.0
31.965	7.0
31.979	10.0
31.994	13.0
32.009	16.0
32.023	11.0
32.038	9.0
32.053	8.0
32.067	9.0
32.082	9.0
32.097	4.0
32.112	9.0
32.126	11.0
32.141	9.0
32.156	13.0
32.17	14.0
32.185	9.0
32.2	15.0
32.214	15.0
32.229	12.0
32.244	5.0
32.259	10.0
32.273	11.0
32.288	2.0
32.303	8.0
32.317	10.0
32.332	11.0
32.347	10.0
32.362	8.0
32.376	13.0
32.391	10.0
32.406	16.0
32.42	14.0
32.435	11.0
32.45	14.0
32.465	7.0
32.479	11.0
32.494	10.0
32.509	10.0
32.523	8.0
32.538	10.0
32.553	13.0
32.568	7.0
32.582	12.0
32.597	12.0
32.612	10.0
32.627	8.0
32.641	10.0
32.656	16.0
32.671	8.0
32.685	15.0
32.7	18.0
32.715	17.0
32.73	26.0
32.744	20.0
32.759	18.0
32.774	26.0
32.788	24.0
32.803	25.0
32.818	29.0
32.833	28.0
32.847	36.0
32.862	29.0
32.877	25.0
32.892	24.0
32.906	20.0
32.921	13.0
32.936	14.0
32.951	24.0
32.965	26.0
32.98	25.0
32.995	18.0
33.009	15.0
33.024	16.0
33.039	16.0
33.054	15.0
33.068	30.0
33.083	22.0
33.098	15.0
33.113	15.0
33.127	21.0
33.142	13.0
33.157	3.0
33.172	12.0
33.186	13.0
33.201	16.0
33.216	8.0
33.231	10.0
33.245	7.0
33.26	12.0
33.275	11.0
33.29	12.0
33.304	9.0
33.319	9.0
33.334	15.0
33.349	12.0
33.363	12.0
33.378	10.0
33.393	7.0
33.408	16.0
33.422	6.0
33.437	5.0
33.452	12.0
33.467	15.0
33.481	9.0
33.496	11.0
33.511	8.0
33.526	7.0
33.54	15.0
33.555	8.0
33.57	11.0
33.585	8.0
33.599	14.0
33.614	11.0
33.629	8.0
33.644	10.0
33.658	7.0
33.673	9.0
33.688	8.0
33.703	16.0
33.718	9.0
33.732	13.0
33.747	12.0
33.762	15.0
33.777	8.0
33.791	16.0
33.806	15.0
33.821	10.0
33.836	9.0
33.85	11.0
33.865	8.0
33.88	10.0
33.895	13.0
33.91	4.0
33.924	6.0
33.939	9.0
33.954	15.0
33.969	9.0
33.983	11.0
33.998	3.0
34.013	8.0
34.028	11.0
34.042	10.0
34.057	12.0
34.072	9.0
34.087	14.0
34.102	15.0
34.116	11.0
34.131	9.0
34.146	6.0
34.161	20.0
34.175	14.0
34.19	10.0
34.205	18.0
34.22	12.0
34.235	11.0
34.249	8.0
34.264	10.0
34.279	16.0
34.294	14.0
34.309	19.0
34.323	9.0
34.338	16.0
34.353	12.0
34.368	12.0
34.382	9.0
34.397	10.0
34.412	17.0
34.427	9.0
34.442	16.0
34.456	11.0
34.471	15.0
34.486	11.0
34.501	12.0
34.516	10.0
34.53	13.0
34.545	13.0
34.56	20.0
34.575	15.0
34.59	13.0
34.604	10.0
34.619	12.0
34.634	6.0
34.649	5.0
34.664	9.0
34.678	9.0
34.693	9.0
34.708	10.0
34.723	11.0
34.738	12.0
34.752	6.0
34.767	10.0
34.782	10.0
34.797	6.0
34.812	6.0
34.826	14.0
34.841	8.0
34.856	8.0
34.871	11.0
34.886	9.0
34.9	11.0
34.915	6.0
34.93	9.0
34.945	9.0
34.96	5.0
34.974	9.0
34.989	12.0
35.004	10.0
35.019	14.0
35.034	7.0
35.048	8.0
35.063	17.0
35.078	7.0
35.093	13.0
35.108	6.0
35.122	8.0
35.137	7.0
35.152	13.0
35.167	11.0
35.182	6.0
35.196	8.0
35.211	10.0
35.226	15.0
35.241	6.0
35.256	6.0
35.27	11.0
35.285	9.0
35.3	9.0
35.315	10.0
35.33	7.0
35.344	11.0
35.359	7.0
35.374	14.0
35.389	7.0
35.404	11.0
35.418	10.0
35.433	9.0
35.448	5.0
35.463	15.0
35.478	7.0
35.493	6.0
35.507	13.0
35.522	15.0
35.537	11.0
35.552	6.0
35.567	8.0
35.581	12.0
35.596	10.0
35.611	8.0
35.626	14.0
35.641	11.0
35.655	12.0
35.67	17.0
35.685	12.0
35.7	13.0
35.715	14.0
35.729	18.0
35.744	18.0
35.759	20.0
35.774	26.0
35.789	36.0
35.804	22.0
35.818	22.0
35.833	20.0
35.848	21.0
35.863	19.0
35.878	16.0
35.892	10.0
35.907	11.0
35.922	13.0
35.937	19.0
35.952	21.0
35.966	10.0
35.981	13.0
35.996	11.0
36.011	13.0
36.026	14.0
36.04	5.0
36.055	12.0
36.07	22.0
36.085	8.0
36.1	11.0
36.114	6.0
36.129	12.0
36.144	12.0
36.159	1.0
36.174	9.0
36.189	9.0
36.203	12.0
36.218	15.0
36.233	7.0
36.248	15.0
36.263	7.0
36.277	9.0
36.292	6.0
36.307	14.0
36.322	8.0
36.337	10.0
36.351	7.0
36.366	6.0
36.381	6.0
36.396	6.0
36.411	6.0
36.426	2.0
36.44	13.0
36.455	10.0
36.47	8.0
36.485	8.0
36.5	8.0
36.514	8.0
36.529	9.0
36.544	9.0
36.559	7.0
36.574	4.0
36.589	4.0
36.603	14.0
36.618	5.0
36.633	7.0
36.648	11.0
36.663	6.0
36.677	8.0
36.692	9.0
36.707	10.0
36.722	7.0
36.737	7.0
36.752	4.0
36.766	7.0
36.781	9.0
36.796	9.0
36.811	7.0
36.826	11.0
36.841	10.0
36.855	7.0
36.87	5.0
36.885	6.0
36.9	10.0
36.915	14.0
36.93	6.0
36.944	6.0
36.959	11.0
36.974	10.0
36.989	5.0
37.004	11.0
37.019	12.0
37.033	13.0
37.048	20.0
37.063	9.0
37.078	21.0
37.093	17.0
37.108	23.0
37.123	13.0
37.137	32.0
37.152	19.0
37.167	30.0
37.182	23.0
37.197	26.0
37.212	32.0
37.226	18.0
37.241	22.0
37.256	16.0
37.271	23.0
37.286	10.0
37.301	23.0
37.316	16.0
37.331	21.0
37.345	22.0
37.36	11.0
37.375	21.0
37.39	17.0
37.405	26.0
37.42	17.0
37.435	14.0
37.45	20.0
37.464	23.0
37.479	12.0
37.494	5.0
37.509	14.0
37.524	6.0
37.539	13.0
37.554	14.0
37.569	7.0
37.583	11.0
37.598	3.0
37.613	6.0
37.628	8.0
37.643	9.0
37.658	9.0
37.673	6.0
37.688	6.0
37.703	5.0
37.718	8.0
37.733	12.0
37.747	7.0
37.762	8.0
37.777	6.0
37.792	6.0
37.807	7.0
37.822	12.0
37.837	10.0
37.852	11.0
37.867	7.0
37.882	7.0
37.897	4.0
37.912	6.0
37.927	9.0
37.941	9.0
37.956	9.0
37.971	9.0
37.986	3.0
38.001	8.0
38.016	8.0
38.031	5.0
38.046	8.0
38.061	7.0
38.076	10.0
38.091	8.0
38.106	6.0
38.121	10.0
38.136	3.0
38.151	4.0
38.166	3.0
38.181	5.0
38.196	4.0
38.211	7.0
38.226	9.0
38.241	5.0
38.256	7.0
38.271	10.0
38.285	8.0
38.3	6.0
38.315	7.0
38.33	3.0
38.345	7.0
38.36	8.0
38.375	4.0
38.39	7.0
38.405	8.0
38.42	6.0
38.435	5.0
38.45	4.0
38.465	5.0
38.48	13.0
38.495	2.0
38.51	6.0
38.525	7.0
38.54	1.0
38.555	7.0
38.57	7.0
38.585	8.0
38.6	6.0
38.615	5.0
38.63	6.0
38.645	5.0
38.66	7.0
38.675	4.0
38.69	3.0
38.705	10.0
38.72	10.0
38.735	8.0
38.75	4.0
38.765	10.0
38.78	4.0
38.795	6.0
38.81	5.0
38.825	8.0
38.84	12.0
38.855	5.0
38.87	4.0
38.885	5.0
38.9	10.0
38.915	9.0
38.93	3.0
38.945	5.0
38.96	5.0
38.975	9.0
38.99	5.0
39.005	7.0
39.02	4.0
39.035	10.0
39.05	4.0
39.065	5.0
39.08	8.0
39.095	6.0
39.11	6.0
39.125	4.0
39.14	3.0
39.155	10.0
39.17	9.0
39.185	10.0
39.2	5.0
39.215	8.0
39.23	11.0
39.245	5.0
39.26	9.0
39.275	4.0
39.29	6.0
39.305	3.0
39.32	6.0
39.335	5.0
39.35	5.0
39.365	8.0
39.38	3.0
39.395	6.0
39.409	7.0
39.424	6.0
39.439	10.0
39.454	5.0
39.469	1.0
39.484	5.0
39.499	9.0
39.514	5.0
39.529	5.0
39.544	4.0
39.559	5.0
39.574	10.0
39.589	6.0
39.604	5.0
39.619	12.0
39.634	8.0
39.649	9.0
39.664	8.0
39.678	7.0
39.693	4.0
39.708	9.0
39.723	7.0
39.738	6.0
39.753	8.0
39.768	8.0
39.783	4.0
39.798	7.0
39.813	10.0
39.827	5.0
39.842	6.0
39.857	10.0
39.872	11.0
39.887	11.0
39.902	8.0
39.917	7.0
39.932	5.0
39.947	5.0
39.961	7.0
39.976	8.0
39.991	7.0
40.006	9.0
40.021	2.0
40.036	14.0
40.051	7.0
40.065	12.0
40.08	8.0
40.095	6.0
40.11	8.0
40.125	7.0
40.14	9.0
40.154	11.0
40.169	13.0
40.184	6.0
40.199	0.0
40.214	5.0
40.228	5.0
40.243	6.0
40.258	8.0
40.273	10.0
40.288	7.0
40.302	10.0
40.317	13.0
40.332	6.0
40.347	3.0
40.362	5.0
40.376	6.0
40.391	9.0
40.406	2.0
40.421	9.0
40.436	7.0
40.45	3.0
40.465	10.0
40.48	7.0
40.495	4.0
40.509	9.0
40.524	5.0
40.539	4.0
40.554	7.0
40.568	8.0
40.583	4.0
40.598	6.0
40.613	7.0
40.627	4.0
40.642	4.0
40.657	5.0
40.672	5.0
40.686	9.0
40.701	6.0
40.716	6.0
40.731	9.0
40.745	7.0
40.76	4.0
40.775	2.0
40.79	6.0
40.804	5.0
40.819	5.0
40.834	9.0
40.849	2.0
40.863	9.0
40.878	8.0
40.893	5.0
40.907	6.0
40.922	7.0
40.937	9.0
40.952	8.0
40.966	12.0
40.981	9.0
40.996	6.0
41.011	9.0
41.025	8.0
41.04	12.0
41.055	9.0
41.069	13.0
41.084	18.0
41.099	19.0
41.114	19.0
41.128	15.0
41.143	17.0
41.158	20.0
41.173	13.0
41.187	14.0
41.202	11.0
41.217	20.0
41.231	18.0
41.246	12.0
41.261	13.0
41.276	15.0
41.29	3.0
41.305	12.0
41.32	15.0
41.335	13.0
41.349	15.0
41.364	14.0
41.379	17.0
41.393	16.0
41.408	18.0
41.423	15.0
41.438	9.0
41.452	12.0
41.467	6.0
41.482	11.0
41.497	7.0
41.511	10.0
41.526	6.0
41.541	2.0
41.556	11.0
41.57	9.0
41.585	6.0
41.6	2.0
41.615	9.0
41.629	8.0
41.644	4.0
41.659	6.0
41.674	4.0
41.688	4.0
41.703	8.0
41.718	6.0
41.733	8.0
41.747	6.0
41.762	7.0
41.777	6.0
41.792	8.0
41.806	4.0
41.821	6.0
41.836	6.0
41.851	12.0
41.866	11.0
41.88	5.0
41.895	3.0
41.91	6.0
41.925	3.0
41.939	4.0
41.954	8.0
41.969	8.0
41.984	0.0
41.999	3.0
42.013	2.0
42.028	6.0
42.043	7.0
42.058	3.0
42.073	1.0
42.088	7.0
42.102	6.0
42.117	4.0
42.132	6.0
42.147	6.0
42.162	6.0
42.176	4.0
42.191	6.0
42.206	8.0
42.221	7.0
42.236	5.0
42.251	8.0
42.266	7.0
42.28	12.0
42.295	7.0
42.31	9.0
42.325	20.0
42.34	13.0
42.355	10.0
42.369	16.0
42.384	19.0
42.399	19.0
42.414	17.0
42.429	13.0
42.444	13.0
42.459	20.0
42.474	14.0
42.488	8.0
42.503	13.0
42.518	6.0
42.533	12.0
42.548	14.0
42.563	5.0
42.578	11.0
42.593	8.0
42.608	13.0
42.622	14.0
42.637	9.0
42.652	18.0
42.667	9.0
42.682	13.0
42.697	16.0
42.712	19.0
42.727	11.0
42.742	10.0
42.757	10.0
42.772	6.0
42.786	8.0
42.801	5.0
42.816	6.0
42.831	8.0
42.846	6.0
42.861	8.0
42.876	4.0
42.891	8.0
42.906	8.0
42.921	9.0
42.936	5.0
42.951	1.0
42.966	6.0
42.981	7.0
42.996	5.0
43.011	5.0
43.025	7.0
43.04	3.0
43.055	3.0
43.07	8.0
43.085	4.0
43.1	3.0
43.115	4.0
43.13	10.0
43.145	1.0
43.16	3.0
43.175	6.0
43.19	4.0
43.205	5.0
43.22	8.0
43.235	5.0
43.25	3.0
43.265	2.0
43.28	8.0
43.295	5.0
43.31	2.0
43.325	7.0
43.34	7.0
43.355	3.0
43.37	5.0
43.385	7.0
43.4	3.0
43.415	5.0
43.43	5.0
43.445	9.0
43.46	3.0
43.475	3.0
43.49	3.0
43.505	9.0
43.52	3.0
43.535	6.0
43.55	7.0
43.565	9.0
43.58	18.0
43.595	9.0
43.61	8.0
43.625	7.0
43.64	4.0
43.655	9.0
43.67	5.0
43.685	5.0
43.7	8.0
43.715	6.0
43.73	4.0
43.745	7.0
43.76	4.0
43.775	7.0
43.79	5.0
43.805	10.0
43.82	3.0
43.835	6.0
43.85	10.0
43.865	10.0
43.88	9.0
43.895	6.0
43.91	4.0
43.925	9.0
43.94	3.0
43.955	7.0
43.97	4.0
43.985	9.0
44.0	7.0
44.015	7.0
44.03	7.0
44.045	2.0
44.061	5.0
44.076	4.0
44.091	6.0
44.106	10.0
44.121	4.0
44.136	7.0
44.151	5.0
44.166	3.0
44.181	4.0
44.196	8.0
44.211	8.0
44.226	6.0
44.241	7.0
44.256	8.0
44.271	9.0
44.286	6.0
44.301	8.0
44.316	3.0
44.331	7.0
44.346	2.0
44.361	4.0
44.377	3.0
44.392	1.0
44.407	8.0
44.422	7.0
44.437	7.0
44.452	4.0
44.467	9.0
44.482	10.0
44.497	7.0
44.512	8.0
44.527	7.0
44.542	2.0
44.557	7.0
44.572	8.0
44.587	5.0
44.602	5.0
44.617	6.0
44.632	8.0
44.647	3.0
44.663	4.0
44.678	7.0
44.693	6.0
44.708	10.0
44.723	13.0
44.738	12.0
44.753	9.0
44.768	10.0
44.783	18.0
44.798	8.0
44.813	17.0
44.828	14.0
44.843	17.0
44.858	7.0
44.873	10.0
44.888	9.0
44.903	7.0
44.918	7.0
44.933	6.0
44.948	10.0
44.964	7.0
44.979	8.0
44.994	12.0
45.009	4.0
45.024	10.0
45.039	11.0
45.054	5.0
45.069	13.0
45.084	10.0
45.099	4.0
45.114	4.0
45.129	9.0
45.144	7.0
45.159	7.0
45.174	4.0
45.189	6.0
45.204	5.0
45.219	12.0
45.234	8.0
45.249	3.0
45.264	9.0
45.279	8.0
45.294	4.0
45.309	9.0
45.324	6.0
45.339	4.0
45.354	2.0
45.369	6.0
45.384	2.0
45.399	8.0
45.414	6.0
45.429	6.0
45.444	6.0
45.459	5.0
45.474	8.0
45.489	2.0
45.504	1.0
45.519	5.0
45.534	7.0
45.549	6.0
45.564	5.0
45.579	8.0
45.594	4.0
45.609	9.0
45.624	4.0
45.639	3.0
45.654	2.0
45.669	5.0
45.684	2.0
45.699	5.0
45.714	4.0
45.729	5.0
45.744	7.0
45.759	6.0
45.774	9.0
45.789	6.0
45.804	5.0
45.819	9.0
45.834	6.0
45.849	7.0
45.864	7.0
45.879	13.0
45.894	12.0
45.909	11.0
45.924	16.0
45.939	14.0
45.954	14.0
45.969	18.0
45.984	16.0
45.998	16.0
46.013	19.0
46.028	12.0
46.043	17.0
46.058	7.0
46.073	8.0
46.088	9.0
46.103	7.0
46.118	5.0
46.133	3.0
46.148	3.0
46.163	5.0
46.178	4.0
46.192	5.0
46.207	6.0
46.222	8.0
46.237	11.0
46.252	11.0
46.267	14.0
46.282	8.0
46.297	9.0
46.312	9.0
46.327	8.0
46.341	3.0
46.356	9.0
46.371	3.0
46.386	2.0
46.401	2.0
46.416	6.0
46.431	14.0
46.446	5.0
46.46	6.0
46.475	8.0
46.49	9.0
46.505	3.0
46.52	5.0
46.535	1.0
46.55	4.0
46.564	7.0
46.579	3.0
46.594	11.0
46.609	7.0
46.624	6.0
46.639	5.0
46.654	4.0
46.668	7.0
46.683	2.0
46.698	2.0
46.713	9.0
46.728	6.0
46.743	4.0
46.758	3.0
46.772	2.0
46.787	6.0
46.802	2.0
46.817	8.0
46.832	4.0
46.847	6.0
46.861	3.0
46.876	5.0
46.891	3.0
46.906	3.0
46.921	7.0
46.936	4.0
46.95	5.0
46.965	3.0
46.98	5.0
46.995	3.0
47.01	9.0
47.025	7.0
47.039	10.0
47.054	10.0
47.069	9.0
47.084	13.0
47.099	11.0
47.113	7.0
47.128	13.0
47.143	9.0
47.158	4.0
47.173	11.0
47.188	9.0
47.202	8.0
47.217	9.0
47.232	4.0
47.247	9.0
47.262	6.0
47.277	3.0
47.291	8.0
47.306	3.0
47.321	6.0
47.336	6.0
47.351	4.0
47.365	6.0
47.38	6.0
47.395	7.0
47.41	3.0
47.425	7.0
47.44	9.0
47.454	5.0
47.469	9.0
47.484	5.0
47.499	8.0
47.514	1.0
47.528	4.0
47.543	6.0
47.558	5.0
47.573	2.0
47.588	3.0
47.603	7.0
47.617	3.0
47.632	3.0
47.647	3.0
47.662	5.0
47.677	1.0
47.691	4.0
47.706	6.0
47.721	4.0
47.736	4.0
47.751	4.0
47.766	5.0
47.78	4.0
47.795	4.0
47.81	3.0
47.825	4.0
47.84	2.0
47.855	3.0
47.869	7.0
47.884	4.0
47.899	12.0
47.914	2.0
47.929	5.0
47.944	3.0
47.958	3.0
47.973	7.0
47.988	4.0
48.003	5.0
48.018	5.0
48.033	2.0
48.047	5.0
48.062	3.0
48.077	6.0
48.092	7.0
48.107	9.0
48.122	6.0
48.137	2.0
48.151	6.0
48.166	1.0
48.181	5.0
48.196	5.0
48.211	5.0
48.226	5.0
48.241	4.0
48.255	5.0
48.27	7.0
48.285	7.0
48.3	6.0
48.315	1.0
48.33	7.0
48.345	6.0
48.359	3.0
48.374	6.0
48.389	6.0
48.404	4.0
48.419	6.0
48.434	1.0
48.449	9.0
48.464	2.0
48.478	1.0
48.493	2.0
48.508	7.0
48.523	5.0
48.538	3.0
48.553	3.0
48.568	7.0
48.583	5.0
48.597	7.0
48.612	2.0
48.627	7.0
48.642	6.0
48.657	6.0
48.672	1.0
48.687	4.0
48.702	3.0
48.717	7.0
48.731	4.0
48.746	7.0
48.761	5.0
48.776	6.0
48.791	6.0
48.806	4.0
48.821	4.0
48.836	7.0
48.851	4.0
48.866	4.0
48.88	3.0
48.895	3.0
48.91	3.0
48.925	3.0
48.94	1.0
48.955	3.0
48.97	3.0
48.985	7.0
49.0	4.0
49.015	7.0
49.03	4.0
49.044	8.0
49.059	0.0
49.074	8.0
49.089	4.0
49.104	5.0
49.119	3.0
49.134	2.0
49.149	4.0
49.164	5.0
49.179	6.0
49.194	3.0
49.209	5.0
49.224	10.0
49.238	13.0
49.253	6.0
49.268	8.0
49.283	3.0
49.298	3.0
49.313	10.0
49.328	8.0
49.343	5.0
49.358	12.0
49.373	9.0
49.388	8.0
49.403	4.0
49.418	5.0
49.433	4.0
49.448	2.0
49.463	3.0
49.478	5.0
49.492	2.0
49.507	3.0
49.522	5.0
49.537	3.0
49.552	4.0
49.567	10.0
49.582	1.0
49.597	6.0
49.612	7.0
49.627	3.0
49.642	8.0
49.657	3.0
49.672	11.0
49.687	5.0
49.702	5.0
49.717	6.0
49.732	3.0
49.747	5.0
49.762	6.0
49.777	2.0
49.792	5.0
49.807	6.0
49.822	8.0
49.837	6.0
49.852	7.0
49.867	4.0
49.882	7.0
49.897	7.0
49.912	5.0
49.927	5.0
49.942	8.0
49.957	7.0
49.971	5.0
49.986	4.0
50.001	3.0
50.016	4.0
50.031	5.0
50.046	3.0
50.061	3.0
50.076	8.0
50.091	3.0
50.106	6.0
50.121	3.0
50.136	8.0
50.151	3.0
50.166	5.0
50.181	8.0
50.196	6.0
50.211	8.0
50.226	3.0
50.241	10.0
50.256	3.0
50.271	5.0
50.286	4.0
50.302	5.0
50.317	5.0
50.332	4.0
50.347	3.0
50.362	8.0
50.377	5.0
50.392	3.0
50.407	6.0
50.422	7.0
50.437	8.0
50.452	15.0
50.467	11.0
50.482	10.0
50.497	7.0
50.512	7.0
50.527	4.0
50.542	7.0
50.557	2.0
50.572	10.0
50.587	5.0
50.602	9.0
50.617	5.0
50.632	4.0
50.647	2.0
50.662	2.0
50.677	7.0
50.692	5.0
50.707	4.0
50.722	4.0
50.737	8.0
50.752	7.0
50.767	8.0
50.782	8.0
50.797	7.0
50.812	6.0
50.828	4.0
50.843	4.0
50.858	6.0
50.873	5.0
50.888	7.0
50.903	0.0
50.918	7.0
50.933	3.0
50.948	6.0
50.963	3.0
50.978	4.0
50.993	4.0
51.008	10.0
51.023	6.0
51.038	4.0
51.053	6.0
51.068	11.0
51.083	6.0
51.098	1.0
51.114	4.0
51.129	3.0
51.144	4.0
51.159	7.0
51.174	6.0
51.189	4.0
51.204	4.0
51.219	7.0
51.234	3.0
51.249	5.0
51.264	6.0
51.279	4.0
51.294	4.0
51.309	2.0
51.324	2.0
51.34	5.0
51.355	5.0
51.37	8.0
51.385	11.0
51.4	13.0
51.415	3.0
51.43	11.0
51.445	11.0
51.46	13.0
51.475	12.0
51.49	18.0
51.505	13.0
51.52	18.0
51.535	12.0
51.551	14.0
51.566	15.0
51.581	4.0
51.596	13.0
51.611	8.0
51.626	14.0
51.641	11.0
51.656	6.0
51.671	7.0
51.686	3.0
51.701	9.0
51.716	9.0
51.732	7.0
51.747	10.0
51.762	7.0
51.777	12.0
51.792	6.0
51.807	11.0
51.822	8.0
51.837	9.0
51.852	13.0
51.867	5.0
51.882	12.0
51.898	7.0
51.913	1.0
51.928	16.0
51.943	6.0
51.958	3.0
51.973	5.0
51.988	7.0
52.003	4.0
52.018	10.0
52.033	3.0
52.048	4.0
52.064	6.0
52.079	8.0
52.094	5.0
52.109	7.0
52.124	4.0
52.139	6.0
52.154	2.0
52.169	6.0
52.184	8.0
52.199	7.0
52.215	3.0
52.23	7.0
52.245	1.0
52.26	3.0
52.275	3.0
52.29	9.0
52.305	5.0
52.32	7.0
52.335	4.0
52.35	9.0
52.366	3.0
52.381	4.0
52.396	5.0
52.411	4.0
52.426	5.0
52.441	5.0
52.456	5.0
52.471	4.0
52.486	6.0
52.502	7.0
52.517	9.0
52.532	5.0
52.547	7.0
52.562	10.0
52.577	10.0
52.592	14.0
52.607	2.0
52.622	12.0
52.637	9.0
52.653	7.0
52.668	5.0
52.683	2.0
52.698	12.0
52.713	2.0
52.728	8.0
52.743	5.0
52.758	4.0
52.774	4.0
52.789	9.0
52.804	10.0
52.819	5.0
52.834	7.0
52.849	8.0
52.864	7.0
52.879	14.0
52.894	7.0
52.91	6.0
52.925	4.0
52.94	2.0
52.955	6.0
52.97	8.0
52.985	4.0
53.0	3.0
53.015	10.0
53.031	5.0
53.046	2.0
53.061	4.0
53.076	8.0
53.091	5.0
53.106	6.0
53.121	1.0
53.136	6.0
53.152	10.0
53.167	3.0
53.182	6.0
53.197	1.0
53.212	4.0
53.227	4.0
53.242	2.0
53.257	6.0
53.273	0.0
53.288	3.0
53.303	5.0
53.318	2.0
53.333	6.0
53.348	4.0
53.363	4.0
53.379	6.0
53.394	5.0
53.409	4.0
53.424	3.0
53.439	7.0
53.454	7.0
53.469	8.0
53.484	1.0
53.5	6.0
53.515	9.0
53.53	7.0
53.545	4.0
53.56	4.0
53.575	3.0
53.59	3.0
53.606	3.0
53.621	3.0
53.636	3.0
53.651	5.0
53.666	4.0
53.681	7.0
53.696	2.0
53.712	4.0
53.727	7.0
53.742	4.0
53.757	5.0
53.772	3.0
53.787	6.0
53.802	4.0
53.818	2.0
53.833	5.0
53.848	6.0
53.863	9.0
53.878	4.0
53.893	6.0
53.909	5.0
53.924	5.0
53.939	6.0
53.954	3.0
53.969	4.0
53.984	4.0
53.999	5.0
54.015	5.0
54.03	10.0
54.045	4.0
54.06	6.0
54.075	3.0
54.09	4.0
54.106	3.0
54.121	4.0
54.136	3.0
54.151	6.0
54.166	4.0
54.181	7.0
54.197	5.0
54.212	5.0
54.227	5.0
54.242	8.0
54.257	2.0
54.272	2.0
54.288	4.0
54.303	4.0
54.318	5.0
54.333	8.0
54.348	7.0
54.363	2.0
54.379	3.0
54.394	4.0
54.409	4.0
54.424	4.0
54.439	3.0
54.454	7.0
54.47	3.0
54.485	6.0
54.5	7.0
54.515	4.0
54.53	5.0
54.545	7.0
54.561	5.0
54.576	11.0
54.591	13.0
54.606	10.0
54.621	12.0
54.636	7.0
54.652	13.0
54.667	9.0
54.682	14.0
54.697	9.0
54.712	11.0
54.727	7.0
54.743	8.0
54.758	12.0
54.773	3.0
54.788	8.0
54.803	5.0
54.819	8.0
54.834	7.0
54.849	5.0
54.864	10.0
54.879	5.0
54.894	10.0
54.91	6.0
54.925	3.0
54.94	6.0
54.955	6.0
54.97	6.0
54.985	6.0
55.001	12.0
55.016	6.0
55.031	13.0
55.046	10.0
55.061	8.0
55.077	9.0
55.092	6.0
55.107	10.0
55.122	2.0
55.137	6.0
55.152	8.0
55.168	5.0
55.183	6.0
55.198	5.0
55.213	5.0
55.228	4.0
55.243	4.0
55.259	7.0
55.274	4.0
55.289	2.0
55.304	6.0
55.319	6.0
55.335	4.0
55.35	4.0
55.365	2.0
55.38	5.0
55.395	5.0
55.41	6.0
55.426	3.0
55.441	4.0
55.456	3.0
55.471	4.0
55.486	7.0
55.501	6.0
55.517	2.0
55.532	4.0
55.547	3.0
55.562	2.0
55.577	3.0
55.592	9.0
55.608	4.0
55.623	3.0
55.638	3.0
55.653	15.0
55.668	6.0
55.683	12.0
55.699	13.0
55.714	11.0
55.729	3.0
55.744	3.0
55.759	8.0
55.774	10.0
55.79	6.0
55.805	1.0
55.82	3.0
55.835	5.0
55.85	6.0
55.865	5.0
55.881	3.0
55.896	4.0
55.911	7.0
55.926	5.0
55.941	4.0
55.956	6.0
55.972	9.0
55.987	4.0
56.002	8.0
56.017	7.0
56.032	4.0
56.047	2.0
56.063	5.0
56.078	4.0
56.093	4.0
56.108	4.0
56.123	9.0
56.138	7.0
56.154	8.0
56.169	4.0
56.184	5.0
56.199	8.0
56.214	3.0
56.229	4.0
56.244	3.0
56.26	4.0
56.275	3.0
56.29	7.0
56.305	3.0
56.32	9.0
56.335	4.0
56.351	6.0
56.366	6.0
56.381	6.0
56.396	5.0
56.411	3.0
56.426	2.0
56.441	2.0
56.457	3.0
56.472	3.0
56.487	2.0
56.502	5.0
56.517	3.0
56.532	5.0
56.547	4.0
56.563	2.0
56.578	0.0
56.593	0.0
56.608	4.0
56.623	2.0
56.638	4.0
56.653	10.0
56.668	2.0
56.684	0.0
56.699	5.0
56.714	4.0
56.729	4.0
56.744	6.0
56.759	3.0
56.774	4.0
56.79	5.0
56.805	3.0
56.82	7.0
56.835	5.0
56.85	7.0
56.865	6.0
56.88	6.0
56.895	7.0
56.911	5.0
56.926	2.0
56.941	2.0
56.956	1.0
56.971	4.0
56.986	7.0
57.001	2.0
57.016	4.0
57.031	5.0
57.047	5.0
57.062	2.0
57.077	5.0
57.092	2.0
57.107	3.0
57.122	7.0
57.137	6.0
57.152	4.0
57.167	1.0
57.183	2.0
57.198	5.0
57.213	3.0
57.228	3.0
57.243	3.0
57.258	6.0
57.273	3.0
57.288	4.0
57.303	5.0
57.318	7.0
57.334	5.0
57.349	7.0
57.364	4.0
57.379	3.0
57.394	4.0
57.409	3.0
57.424	9.0
57.439	4.0
57.454	3.0
57.469	6.0
57.484	7.0
57.5	2.0
57.515	1.0
57.53	6.0
57.545	4.0
57.56	4.0
57.575	2.0
57.59	4.0
57.605	3.0
57.62	8.0
57.635	6.0
57.65	4.0
57.665	2.0
57.68	6.0
57.696	3.0
57.711	6.0
57.726	5.0
57.741	4.0
57.756	6.0
57.771	5.0
57.786	2.0
57.801	5.0
57.816	4.0
57.831	5.0
57.846	5.0
57.861	8.0
57.876	4.0
57.891	2.0
57.906	9.0
57.921	4.0
57.937	4.0
57.952	9.0
57.967	3.0
57.982	4.0
57.997	2.0
58.012	1.0
58.027	6.0
58.042	7.0
58.057	8.0
58.072	5.0
58.087	4.0
58.102	6.0
58.117	4.0
58.132	4.0
58.147	3.0
58.162	7.0
58.177	4.0
58.192	5.0
58.207	5.0
58.222	4.0
58.237	9.0
58.252	6.0
58.267	2.0
58.282	5.0
58.297	5.0
58.312	2.0
58.327	1.0
58.342	2.0
58.357	2.0
58.372	5.0
58.387	5.0
58.402	2.0
58.418	5.0
58.433	4.0
58.448	5.0
58.463	7.0
58.478	9.0
58.493	2.0
58.508	5.0
58.523	3.0
58.538	8.0
58.553	6.0
58.568	7.0
58.583	7.0
58.598	6.0
58.613	6.0
58.628	11.0
58.643	11.0
58.658	4.0
58.673	5.0
58.688	6.0
58.703	7.0
58.718	8.0
58.733	5.0
58.748	7.0
58.763	4.0
58.778	14.0
58.793	6.0
58.808	3.0
58.823	3.0
58.838	8.0
58.853	6.0
58.868	2.0
58.883	2.0
58.898	4.0
58.913	5.0
58.928	6.0
58.942	1.0
58.957	4.0
58.972	11.0
58.987	10.0
59.002	5.0
59.017	8.0
59.032	9.0
59.047	3.0
59.062	7.0
59.077	6.0
59.092	5.0
59.107	8.0
59.122	5.0
59.137	9.0
59.152	5.0
59.167	5.0
59.182	3.0
59.197	3.0
59.212	3.0
59.227	5.0
59.242	3.0
59.257	3.0
59.272	1.0
59.287	2.0
59.302	3.0
59.317	1.0
59.332	6.0
59.347	1.0
59.362	3.0
59.377	3.0
59.392	3.0
59.407	8.0
59.422	4.0
59.437	2.0
59.452	4.0
59.467	4.0
59.482	4.0
59.497	3.0
59.512	3.0
59.527	10.0
59.542	7.0
59.557	3.0
59.572	3.0
59.587	8.0
59.602	12.0
59.617	8.0
59.632	12.0
59.647	11.0
59.661	7.0
59.676	8.0
59.691	7.0
59.706	5.0
59.721	6.0
59.736	2.0
59.751	5.0
59.766	5.0
59.781	5.0
59.796	2.0
59.811	5.0
59.826	3.0
59.841	2.0
59.856	4.0
59.871	3.0
59.886	3.0
59.901	5.0
59.916	4.0
59.931	2.0
59.946	9.0
59.961	5.0
59.976	9.0
59.991	4.0
60.006	2.0
60.021	11.0
60.036	5.0
60.051	7.0
60.066	5.0
60.081	4.0
60.096	5.0
60.111	6.0
60.126	5.0
60.141	7.0
60.156	3.0
60.171	7.0
60.186	3.0
60.201	3.0
60.216	8.0
60.231	5.0
60.246	4.0
60.261	5.0
60.276	5.0
60.291	7.0
60.306	5.0
60.321	5.0
60.336	4.0
60.35	4.0
60.365	2.0
60.38	4.0
60.395	2.0
60.41	6.0
60.425	3.0
60.44	7.0
60.455	3.0
60.47	4.0
60.485	6.0
60.5	6.0
60.515	6.0
60.53	8.0
60.545	10.0
60.56	9.0
60.575	7.0
60.59	6.0
60.605	10.0
60.62	10.0
60.635	7.0
60.65	3.0
60.665	8.0
60.68	6.0
60.695	1.0
60.71	5.0
60.725	6.0
60.74	5.0
60.755	4.0
60.77	6.0
60.785	6.0
60.8	1.0
60.815	2.0
60.83	2.0
60.845	7.0
60.86	5.0
60.875	3.0
60.89	3.0
60.905	7.0
60.92	4.0
60.935	6.0
60.95	6.0
60.965	14.0
60.98	6.0
60.995	8.0
61.01	8.0
61.025	3.0
61.04	3.0
61.055	7.0
61.07	3.0
61.085	6.0
61.1	6.0
61.115	7.0
61.13	0.0
61.145	7.0
61.16	6.0
61.175	5.0
61.191	3.0
61.206	3.0
61.221	3.0
61.236	7.0
61.251	3.0
61.266	5.0
61.281	2.0
61.296	1.0
61.311	2.0
61.326	4.0
61.341	5.0
61.356	9.0
61.371	4.0
61.386	5.0
61.401	0.0
61.416	3.0
61.431	10.0
61.446	5.0
61.461	1.0
61.476	3.0
61.491	9.0
61.506	5.0
61.521	9.0
61.536	6.0
61.551	4.0
61.566	4.0
61.581	7.0
61.596	5.0
61.611	5.0
61.626	5.0
61.641	3.0
61.656	5.0
61.672	4.0
61.687	7.0
61.702	3.0
61.717	2.0
61.732	2.0
61.747	4.0
61.762	7.0
61.777	5.0
61.792	5.0
61.807	5.0
61.822	7.0
61.837	4.0
61.852	2.0
61.867	6.0
61.882	6.0
61.897	2.0
61.912	4.0
61.927	3.0
61.943	7.0
61.958	3.0
61.973	8.0
61.988	4.0
62.003	4.0
62.018	4.0
62.033	4.0
62.048	7.0
62.063	5.0
62.078	4.0
62.093	3.0
62.108	6.0
62.123	5.0
62.138	3.0
62.153	4.0
62.169	4.0
62.184	5.0
62.199	2.0
62.214	5.0
62.229	2.0
62.244	2.0
62.259	6.0
62.274	9.0
62.289	4.0
62.304	5.0
62.319	3.0
62.335	5.0
62.35	5.0
62.365	3.0
62.38	4.0
62.395	5.0
62.41	8.0
62.425	2.0
62.44	5.0
62.455	7.0
62.47	11.0
62.485	7.0
62.501	4.0
62.516	6.0
62.531	7.0
62.546	5.0
62.561	3.0
62.576	2.0
62.591	5.0
62.606	9.0
62.621	6.0
62.636	5.0
62.652	0.0
62.667	2.0
62.682	5.0
62.697	1.0
62.712	3.0
62.727	3.0
62.742	4.0
62.757	4.0
62.772	5.0
62.787	4.0
62.803	5.0
62.818	5.0
62.833	4.0
62.848	11.0
62.863	7.0
62.878	7.0
62.893	3.0
62.908	3.0
62.923	4.0
62.939	4.0
62.954	1.0
62.969	4.0
62.984	7.0
62.999	5.0
63.014	2.0
63.029	4.0
63.044	2.0
63.059	5.0
63.074	4.0
63.09	3.0
63.105	6.0
63.12	6.0
63.135	5.0
63.15	4.0
63.165	5.0
63.18	3.0
63.195	5.0
63.21	2.0
63.226	3.0
63.241	2.0
63.256	4.0
63.271	5.0
63.286	5.0
63.301	4.0
63.316	0.0
63.331	8.0
63.346	4.0
63.362	3.0
63.377	8.0
63.392	7.0
63.407	10.0
63.422	8.0
63.437	9.0
63.452	9.0
63.467	6.0
63.482	3.0
63.497	7.0
63.513	6.0
63.528	2.0
63.543	3.0
63.558	1.0
63.573	5.0
63.588	2.0
63.603	3.0
63.618	3.0
63.633	7.0
63.648	5.0
63.664	7.0
63.679	5.0
63.694	7.0
63.709	5.0
63.724	1.0
63.739	5.0
63.754	3.0
63.769	3.0
63.784	5.0
63.799	7.0
63.814	6.0
63.83	5.0
63.845	4.0
63.86	6.0
63.875	6.0
63.89	3.0
63.905	8.0
63.92	7.0
63.935	6.0
63.95	3.0
63.965	7.0
63.98	6.0
63.996	4.0
64.011	4.0
64.026	4.0
64.041	5.0
64.056	4.0
64.071	2.0
64.086	3.0
64.101	6.0
64.116	2.0
64.131	5.0
64.146	9.0
64.161	2.0
64.176	8.0
64.191	3.0
64.207	6.0
64.222	5.0
64.237	5.0
64.252	2.0
64.267	3.0
64.282	2.0
64.297	6.0
64.312	4.0
64.327	3.0
64.342	7.0
64.357	4.0
64.372	4.0
64.387	3.0
64.402	2.0
64.417	4.0
64.433	5.0
64.448	4.0
64.463	4.0
64.478	4.0
64.493	3.0
64.508	2.0
64.523	3.0
64.538	3.0
64.553	6.0
64.568	9.0
64.583	3.0
64.598	3.0
64.613	2.0
64.628	5.0
64.643	3.0
64.658	2.0
64.673	4.0
64.688	4.0
64.703	4.0
64.718	1.0
64.734	2.0
64.749	5.0
64.764	4.0
64.779	5.0
64.794	2.0
64.809	5.0
64.824	7.0
64.839	5.0
64.854	0.0
64.869	2.0
64.884	4.0
64.899	2.0
64.914	2.0
64.929	2.0
64.944	6.0
64.959	5.0
64.974	3.0
64.989	2.0
65.004	1.0
65.019	5.0
65.034	2.0
65.049	4.0
65.064	3.0
65.079	5.0
65.094	4.0
65.109	7.0
65.125	3.0
65.14	4.0
65.155	4.0
65.17	4.0
65.185	3.0
65.2	3.0
65.215	2.0
65.23	7.0
65.245	2.0
65.26	2.0
65.275	4.0
65.29	8.0
65.305	8.0
65.32	4.0
65.335	6.0
65.35	1.0
65.365	2.0
65.38	6.0
65.395	3.0
65.41	3.0
65.425	4.0
65.44	2.0
65.455	4.0
65.47	3.0
65.485	4.0
65.5	5.0
65.515	5.0
65.53	3.0
65.545	5.0
65.56	2.0
65.575	2.0
65.59	4.0
65.605	2.0
65.62	5.0
65.635	2.0
65.65	4.0
65.666	4.0
65.681	6.0
65.696	9.0
65.711	5.0
65.726	5.0
65.741	4.0
65.756	5.0
65.771	7.0
65.786	2.0
65.801	3.0
65.816	4.0
65.831	5.0
65.846	0.0
65.861	4.0
65.876	2.0
65.891	2.0
65.906	2.0
65.921	2.0
65.936	5.0
65.951	2.0
65.966	6.0
65.981	2.0
65.996	3.0
66.011	4.0
66.026	4.0
66.041	6.0
66.056	6.0
66.071	5.0
66.086	6.0
66.101	5.0
66.116	4.0
66.131	6.0
66.146	8.0
66.161	8.0
66.176	13.0
66.191	9.0
66.206	10.0
66.221	4.0
66.236	11.0
66.251	4.0
66.266	6.0
66.281	5.0
66.296	6.0
66.311	6.0
66.327	2.0
66.342	4.0
66.357	5.0
66.372	2.0
66.387	5.0
66.402	4.0
66.417	1.0
66.432	3.0
66.447	6.0
66.462	5.0
66.477	6.0
66.492	5.0
66.507	2.0
66.522	5.0
66.537	4.0
66.552	4.0
66.567	6.0
66.582	6.0
66.597	8.0
66.612	5.0
66.627	4.0
66.642	6.0
66.657	5.0
66.672	5.0
66.687	8.0
66.702	7.0
66.717	6.0
66.732	7.0
66.747	5.0
66.762	8.0
66.777	1.0
66.792	3.0
66.807	5.0
66.822	9.0
66.837	6.0
66.853	5.0
66.868	1.0
66.883	2.0
66.898	1.0
66.913	3.0
66.928	3.0
66.943	5.0
66.958	7.0
66.973	3.0
66.988	5.0
67.003	3.0
67.018	2.0
67.033	6.0
67.048	4.0
67.063	3.0
67.078	1.0
67.093	5.0
67.108	2.0
67.123	6.0
67.138	8.0
67.153	7.0
67.168	6.0
67.183	6.0
67.198	3.0
67.214	1.0
67.229	8.0
67.244	3.0
67.259	7.0
67.274	2.0
67.289	7.0
67.304	3.0
67.319	1.0
67.334	4.0
67.349	3.0
67.364	3.0
67.379	4.0
67.394	4.0
67.409	2.0
67.424	3.0
67.439	1.0
67.454	2.0
67.469	3.0
67.484	5.0
67.5	4.0
67.515	1.0
67.53	3.0
67.545	3.0
67.56	8.0
67.575	3.0
67.59	2.0
67.605	3.0
67.62	3.0
67.635	3.0
67.65	6.0
67.665	3.0
67.68	3.0
67.695	6.0
67.71	3.0
67.726	3.0
67.741	3.0
67.756	4.0
67.771	3.0
67.786	4.0
67.801	4.0
67.816	1.0
67.831	3.0
67.846	3.0
67.861	4.0
67.876	1.0
67.891	5.0
67.906	4.0
67.922	7.0
67.937	3.0
67.952	5.0
67.967	9.0
67.982	5.0
67.997	1.0
68.012	7.0
68.027	3.0
68.042	4.0
68.057	2.0
68.072	5.0
68.087	8.0
68.103	2.0
68.118	2.0
68.133	3.0
68.148	3.0
68.163	4.0
68.178	2.0
68.193	7.0
68.208	4.0
68.223	4.0
68.238	3.0
68.254	5.0
68.269	7.0
68.284	4.0
68.299	5.0
68.314	2.0
68.329	3.0
68.344	4.0
68.359	6.0
68.374	4.0
68.389	3.0
68.405	4.0
68.42	1.0
68.435	1.0
68.45	2.0
68.465	4.0
68.48	5.0
68.495	2.0
68.51	4.0
68.525	5.0
68.54	2.0
68.556	6.0
68.571	3.0
68.586	4.0
68.601	5.0
68.616	3.0
68.631	4.0
68.646	1.0
68.661	5.0
68.676	4.0
68.691	1.0
68.707	3.0
68.722	7.0
68.737	5.0
68.752	4.0
68.767	2.0
68.782	3.0
68.797	7.0
68.812	2.0
68.827	5.0
68.842	6.0
68.857	2.0
68.873	6.0
68.888	6.0
68.903	3.0
68.918	4.0
68.933	0.0
68.948	6.0
68.963	3.0
68.978	6.0
68.993	5.0
69.008	4.0
69.023	3.0
69.038	4.0
69.054	4.0
69.069	3.0
69.084	1.0
69.099	1.0
69.114	6.0
69.129	3.0
69.144	2.0
69.159	3.0
69.174	7.0
69.189	4.0
69.204	4.0
69.219	3.0
69.234	4.0
69.249	1.0
69.264	4.0
69.279	5.0
69.295	1.0
69.31	5.0
69.325	3.0
69.34	6.0
69.355	4.0
69.37	5.0
69.385	3.0
69.4	4.0
69.415	4.0
69.43	7.0
69.445	5.0
69.46	3.0
69.475	1.0
69.49	4.0
69.505	8.0
69.52	2.0
69.535	7.0
69.55	2.0
69.565	8.0
69.58	5.0
69.595	0.0
69.61	3.0
69.625	2.0
69.64	2.0
69.655	4.0
69.67	5.0
69.685	4.0
69.7	4.0
69.715	2.0
69.73	5.0
69.745	5.0
69.76	6.0
69.775	8.0
69.79	3.0
69.805	7.0
69.82	4.0
69.835	9.0
69.85	4.0
69.865	3.0
69.88	2.0
69.895	4.0
69.909	3.0
69.924	3.0
69.939	3.0
69.954	3.0
69.969	2.0
69.984	2.0
69.999	1.0
70.014	6.0
70.029	6.0
70.044	7.0
70.059	5.0
70.074	3.0
70.088	3.0
70.103	3.0
70.118	1.0
70.133	5.0
70.148	3.0
70.163	3.0
70.178	2.0
70.193	2.0
70.208	4.0
70.222	6.0
70.237	4.0
70.252	9.0
70.267	5.0
70.282	5.0
70.297	5.0
70.312	3.0
70.327	4.0
70.341	6.0
70.356	6.0
70.371	7.0
70.386	4.0
70.401	3.0
70.416	1.0
70.43	4.0
70.445	3.0
70.46	3.0
70.475	6.0
70.49	5.0
70.505	2.0
70.519	4.0
70.534	8.0
70.549	4.0
70.564	3.0
70.579	6.0
70.594	3.0
70.608	4.0
70.623	3.0
70.638	7.0
70.653	5.0
70.668	7.0
70.683	3.0
70.697	7.0
70.712	7.0
70.727	3.0
70.742	4.0
70.757	2.0
70.771	5.0
70.786	1.0
70.801	5.0
70.816	1.0
70.831	9.0
70.845	3.0
70.86	4.0
70.875	3.0
70.89	2.0
70.905	4.0
70.92	2.0
70.934	2.0
70.949	2.0
70.964	2.0
70.979	1.0
70.994	3.0
71.008	4.0
71.023	4.0
71.038	5.0
71.053	2.0
71.068	5.0
71.082	3.0
71.097	8.0
71.112	2.0
71.127	7.0
71.142	2.0
71.156	2.0
71.171	2.0
71.186	6.0
71.201	10.0
71.216	0.0
71.231	5.0
71.245	4.0
71.26	8.0
71.275	2.0
71.29	3.0
71.305	3.0
71.319	1.0
71.334	4.0
71.349	3.0
71.364	4.0
71.379	7.0
71.394	2.0
71.408	3.0
71.423	4.0
71.438	5.0
71.453	7.0
71.468	4.0
71.483	3.0
71.497	1.0
71.512	4.0
71.527	4.0
71.542	6.0
71.557	2.0
71.572	5.0
71.586	3.0
71.601	1.0
71.616	4.0
71.631	4.0
71.646	6.0
71.661	4.0
71.676	1.0
71.69	5.0
71.705	5.0
71.72	3.0
71.735	2.0
71.75	3.0
71.765	4.0
71.78	4.0
71.795	2.0
71.81	5.0
71.824	5.0
71.839	5.0
71.854	4.0
71.869	3.0
71.884	2.0
71.899	7.0
71.914	2.0
71.929	6.0
71.944	2.0
71.959	1.0
71.974	3.0
71.988	4.0
72.003	5.0
72.018	5.0
72.033	3.0
72.048	3.0
72.063	6.0
72.078	4.0
72.093	1.0
72.108	5.0
72.123	5.0
72.138	5.0
72.153	4.0
72.168	1.0
72.183	2.0
72.198	5.0
72.213	7.0
72.228	2.0
72.243	2.0
72.258	4.0
72.273	1.0
72.288	6.0
72.303	2.0
72.318	2.0
72.333	1.0
72.348	5.0
72.363	6.0
72.378	3.0
72.393	1.0
72.408	3.0
72.423	3.0
72.438	4.0
72.453	4.0
72.468	0.0
72.483	10.0
72.498	2.0
72.513	3.0
72.528	3.0
72.543	5.0
72.558	9.0
72.573	3.0
72.588	1.0
72.603	6.0
72.618	3.0
72.633	4.0
72.649	3.0
72.664	3.0
72.679	3.0
72.694	6.0
72.709	3.0
72.724	2.0
72.739	1.0
72.754	0.0
72.769	5.0
72.784	1.0
72.799	3.0
72.814	1.0
72.829	1.0
72.845	4.0
72.86	3.0
72.875	1.0
72.89	1.0
72.905	2.0
72.92	2.0
72.935	4.0
72.95	6.0
72.965	6.0
72.98	3.0
72.996	7.0
73.011	4.0
73.026	4.0
73.041	2.0
73.056	0.0
73.071	4.0
73.086	2.0
73.101	1.0
73.117	1.0
73.132	2.0
73.147	2.0
73.162	3.0
73.177	7.0
73.192	6.0
73.207	2.0
73.222	6.0
73.238	2.0
73.253	1.0
73.268	3.0
73.283	9.0
73.298	5.0
73.313	3.0
73.328	3.0
73.343	2.0
73.359	6.0
73.374	6.0
73.389	6.0
73.404	2.0
73.419	6.0
73.434	1.0
73.449	4.0
73.465	3.0
73.48	1.0
73.495	4.0
73.51	2.0
73.525	4.0
73.54	3.0
73.556	3.0
73.571	3.0
73.586	3.0
73.601	1.0
73.616	2.0
73.631	3.0
73.646	1.0
73.662	3.0
73.677	2.0
73.692	2.0
73.707	3.0
73.722	0.0
73.737	1.0
73.752	3.0
73.768	3.0
73.783	4.0
73.798	3.0
73.813	1.0
73.828	5.0
73.843	8.0
73.859	5.0
73.874	4.0
73.889	3.0
73.904	4.0
73.919	4.0
73.934	3.0
73.949	5.0
73.965	5.0
73.98	3.0
73.995	1.0
74.01	2.0
74.025	7.0
74.04	8.0
74.056	3.0
74.071	5.0
74.086	3.0
74.101	3.0
74.116	5.0
74.131	7.0
74.146	4.0
74.162	6.0
74.177	9.0
74.192	3.0
74.207	6.0
74.222	6.0
74.237	9.0
74.252	1.0
74.268	7.0
74.283	8.0
74.298	4.0
74.313	2.0
74.328	3.0
74.343	0.0
74.358	2.0
74.374	4.0
74.389	6.0
74.404	0.0
74.419	5.0
74.434	5.0
74.449	1.0
74.464	5.0
74.48	2.0
74.495	4.0
74.51	1.0
74.525	2.0
74.54	2.0
74.555	4.0
74.57	4.0
74.586	3.0
74.601	3.0
74.616	7.0
74.631	2.0
74.646	4.0
74.661	6.0
74.676	6.0
74.691	7.0
74.707	7.0
74.722	2.0
74.737	4.0
74.752	5.0
74.767	3.0
74.782	1.0
74.797	4.0
74.813	2.0
74.828	6.0
74.843	6.0
74.858	2.0
74.873	3.0
74.888	7.0
74.903	3.0
74.918	3.0
74.934	3.0
74.949	3.0
74.964	3.0
74.979	4.0
74.994	3.0
75.009	3.0
75.024	2.0
75.04	9.0
75.055	5.0
75.07	3.0
75.085	6.0
75.1	3.0
75.115	6.0
75.13	3.0
75.145	3.0
75.161	3.0
75.176	3.0
75.191	3.0
75.206	0.0
75.221	3.0
75.236	3.0
75.251	3.0
75.266	4.0
75.282	6.0
75.297	2.0
75.312	3.0
75.327	0.0
75.342	3.0
75.357	4.0
75.372	3.0
75.387	2.0
75.403	3.0
75.418	3.0
75.433	7.0
75.448	5.0
75.463	3.0
75.478	4.0
75.493	4.0
75.509	3.0
75.524	7.0
75.539	2.0
75.554	2.0
75.569	4.0
75.584	6.0
75.599	1.0
75.614	5.0
75.63	3.0
75.645	3.0
75.66	2.0
75.675	9.0
75.69	0.0
75.705	4.0
75.72	1.0
75.735	4.0
75.751	4.0
75.766	1.0
75.781	0.0
75.796	7.0
75.811	2.0
75.826	6.0
75.841	4.0
75.856	4.0
75.872	5.0
75.887	4.0
75.902	4.0
75.917	4.0
75.932	3.0
75.947	5.0
75.962	6.0
75.977	3.0
75.993	2.0
76.008	1.0
76.023	3.0
76.038	2.0
76.053	2.0
76.068	4.0
76.083	3.0
76.098	5.0
76.114	3.0
76.129	1.0
76.144	1.0
76.159	3.0
76.174	3.0
76.189	2.0
76.204	2.0
76.22	2.0
76.235	4.0
76.25	7.0
76.265	2.0
76.28	5.0
76.295	2.0
76.31	1.0
76.325	3.0
76.341	2.0
76.356	6.0
76.371	1.0
76.386	1.0
76.401	1.0
76.416	2.0
76.431	2.0
76.446	4.0
76.462	3.0
76.477	5.0
76.492	9.0
76.507	2.0
76.522	5.0
76.537	5.0
76.552	1.0
76.567	3.0
76.583	1.0
76.598	2.0
76.613	2.0
76.628	1.0
76.643	2.0
76.658	4.0
76.673	5.0
76.688	3.0
76.704	2.0
76.719	6.0
76.734	6.0
76.749	4.0
76.764	2.0
76.779	6.0
76.794	7.0
76.809	3.0
76.824	6.0
76.84	6.0
76.855	1.0
76.87	1.0
76.885	2.0
76.9	5.0
76.915	3.0
76.93	5.0
76.945	2.0
76.96	3.0
76.976	4.0
76.991	2.0
77.006	4.0
77.021	2.0
77.036	2.0
77.051	2.0
77.066	4.0
77.081	5.0
77.096	1.0
77.112	7.0
77.127	8.0
77.142	5.0
77.157	8.0
77.172	3.0
77.187	3.0
77.202	1.0
77.217	3.0
77.232	4.0
77.247	4.0
77.263	8.0
77.278	3.0
77.293	4.0
77.308	6.0
77.323	1.0
77.338	2.0
77.353	4.0
77.368	4.0
77.383	4.0
77.398	4.0
77.413	7.0
77.428	6.0
77.444	5.0
77.459	7.0
77.474	4.0
77.489	9.0
77.504	9.0
77.519	3.0
77.534	3.0
77.549	3.0
77.564	1.0
77.579	5.0
77.594	5.0
77.609	6.0
77.624	5.0
77.64	8.0
77.655	4.0
77.67	7.0
77.685	5.0
77.7	5.0
77.715	3.0
77.73	3.0
77.745	0.0
77.76	2.0
77.775	2.0
77.79	5.0
77.805	1.0
77.82	2.0
77.835	2.0
77.85	4.0
77.865	2.0
77.88	7.0
77.895	5.0
77.91	3.0
77.926	8.0
77.941	4.0
77.956	2.0
77.971	6.0
77.986	2.0
78.001	3.0
78.016	7.0
78.031	4.0
78.046	1.0
78.061	5.0
78.076	4.0
78.091	6.0
78.106	4.0
78.121	5.0
78.136	6.0
78.151	1.0
78.166	3.0
78.181	3.0
78.196	2.0
78.211	11.0
78.226	2.0
78.241	3.0
78.256	4.0
78.271	5.0
78.286	6.0
78.301	1.0
78.316	6.0
78.331	2.0
78.346	3.0
78.361	3.0
78.376	3.0
78.391	4.0
78.406	2.0
78.421	2.0
78.436	0.0
78.451	6.0
78.466	2.0
78.481	6.0
78.496	2.0
78.511	2.0
78.526	3.0
78.541	2.0
78.556	4.0
78.571	4.0
78.586	3.0
78.601	2.0
78.616	5.0
78.631	8.0
78.646	3.0
78.661	0.0
78.676	4.0
78.691	3.0
78.706	1.0
78.721	2.0
78.736	4.0
78.751	0.0
78.766	3.0
78.781	2.0
78.796	2.0
78.811	2.0
78.826	5.0
78.841	1.0
78.856	5.0
78.871	1.0
78.885	2.0
78.9	3.0
78.915	2.0
78.93	6.0
78.945	4.0
78.96	4.0
78.975	3.0
78.99	4.0
79.005	4.0
79.02	1.0
79.035	1.0
79.05	4.0
79.065	0.0
79.08	4.0
79.095	5.0
79.11	2.0
79.125	4.0
79.14	3.0
79.155	2.0
79.17	5.0
79.185	1.0
79.2	1.0
79.215	3.0
79.23	0.0
79.245	5.0
79.26	6.0
79.275	1.0
79.29	2.0
79.304	4.0
79.319	2.0
79.334	9.0
79.349	3.0
79.364	4.0
79.379	7.0
79.394	2.0
79.409	4.0
79.424	1.0
79.439	2.0
79.454	2.0
79.469	2.0
79.484	3.0
79.499	3.0
79.514	7.0
79.529	4.0
79.544	2.0
79.559	3.0
79.574	2.0
79.589	4.0
79.604	4.0
79.619	4.0
79.634	4.0
79.649	4.0
79.664	2.0
79.679	4.0
79.693	7.0
79.708	2.0
79.723	4.0
79.738	0.0
79.753	3.0
79.768	3.0
79.783	2.0
79.798	4.0
79.813	3.0
79.828	1.0
79.843	3.0
79.858	4.0
79.873	2.0
79.888	6.0
79.903	2.0
79.918	7.0
79.933	3.0
79.948	6.0
79.963	3.0
79.978	4.0
79.993	3.0
80.008	2.0
80.023	7.0
80.038	3.0
80.053	1.0
80.068	4.0
80.083	5.0
80.098	4.0
80.113	4.0
80.128	5.0
80.143	8.0
80.158	2.0
80.173	4.0
80.188	4.0
80.202	3.0
80.217	1.0
80.232	8.0
80.247	1.0
80.262	1.0
80.277	6.0
80.292	8.0
80.307	2.0
80.322	3.0
80.337	3.0
80.352	2.0
80.367	1.0
80.382	4.0
80.397	3.0
80.412	4.0
80.427	0.0
80.442	3.0
80.457	2.0
80.472	2.0
80.487	2.0
80.502	1.0
80.517	3.0
80.532	2.0
80.547	0.0
80.562	6.0
80.577	1.0
80.592	5.0
80.607	2.0
80.622	4.0
80.637	4.0
80.652	3.0
80.667	4.0
80.682	6.0
80.697	0.0
80.712	6.0
80.727	4.0
80.742	6.0
80.757	2.0
80.772	1.0
80.787	7.0
80.802	4.0
80.817	3.0
80.832	5.0
80.847	2.0
80.862	1.0
80.877	1.0
80.892	1.0
80.907	4.0
80.922	2.0
80.937	5.0
80.952	5.0
80.967	4.0
80.982	3.0
80.997	6.0
81.012	5.0
81.027	2.0
81.042	2.0
81.057	1.0
81.072	2.0
81.087	6.0
81.101	1.0
81.116	1.0
81.131	3.0
81.146	3.0
81.161	2.0
81.176	4.0
81.191	2.0
81.206	5.0
81.221	3.0
81.236	2.0
81.251	0.0
81.266	3.0
81.281	3.0
81.296	3.0
81.311	2.0
81.326	1.0
81.341	8.0
81.356	4.0
81.371	1.0
81.386	1.0
81.401	2.0
81.416	1.0
81.431	1.0
81.446	4.0
81.461	3.0
81.476	3.0
81.491	3.0
81.506	5.0
81.521	5.0
81.536	3.0
81.55	7.0
81.565	3.0
81.58	2.0
81.595	4.0
81.61	3.0
81.625	5.0
81.64	1.0
81.655	6.0
81.67	6.0
81.685	2.0
81.7	3.0
81.715	6.0
81.73	6.0
81.745	3.0
81.76	2.0
81.775	4.0
81.79	1.0
81.805	2.0
81.819	2.0
81.834	1.0
81.849	6.0
81.864	6.0
81.879	1.0
81.894	4.0
81.909	6.0
81.924	1.0
81.939	6.0
81.954	2.0
81.969	1.0
81.984	6.0
81.999	4.0
82.013	5.0
82.028	3.0
82.043	3.0
82.058	4.0
82.073	3.0
82.088	8.0
82.103	3.0
82.118	4.0
82.133	3.0
82.148	5.0
82.163	5.0
82.177	2.0
82.192	2.0
82.207	2.0
82.222	2.0
82.237	0.0
82.252	2.0
82.267	1.0
82.282	3.0
82.297	3.0
82.312	4.0
82.326	3.0
82.341	3.0
82.356	1.0
82.371	1.0
82.386	2.0
82.401	4.0
82.416	4.0
82.431	4.0
82.445	2.0
82.46	3.0
82.475	3.0
82.49	3.0
82.505	3.0
82.52	4.0
82.535	7.0
82.55	5.0
82.565	1.0
82.579	3.0
82.594	0.0
82.609	1.0
82.624	2.0
82.639	6.0
82.654	5.0
82.669	2.0
82.684	2.0
82.698	4.0
82.713	3.0
82.728	1.0
82.743	2.0
82.758	3.0
82.773	5.0
82.788	3.0
82.803	4.0
82.817	2.0
82.832	2.0
82.847	2.0
82.862	4.0
82.877	2.0
82.892	2.0
82.907	3.0
82.922	0.0
82.937	3.0
82.951	2.0
82.966	6.0
82.981	2.0
82.996	3.0
83.011	2.0
83.026	1.0
83.041	2.0
83.056	3.0
83.07	2.0
83.085	2.0
83.1	3.0
83.115	3.0
83.13	4.0
83.145	3.0
83.16	2.0
83.175	5.0
83.19	4.0
83.204	1.0
83.219	7.0
83.234	2.0
83.249	3.0
83.264	1.0
83.279	3.0
83.294	3.0
83.309	2.0
83.324	3.0
83.339	2.0
83.353	6.0
83.368	4.0
83.383	3.0
83.398	3.0
83.413	3.0
83.428	3.0
83.443	3.0
83.458	1.0
83.473	6.0
83.488	4.0
83.503	5.0
83.517	6.0
83.532	5.0
83.547	3.0
83.562	2.0
83.577	5.0
83.592	6.0
83.607	4.0
83.622	5.0
83.637	3.0
83.652	3.0
83.667	3.0
83.682	1.0
83.697	6.0
83.712	3.0
83.727	2.0
83.741	3.0
83.756	6.0
83.771	3.0
83.786	4.0
83.801	2.0
83.816	5.0
83.831	2.0
83.846	2.0
83.861	1.0
83.876	2.0
83.891	1.0
83.906	1.0
83.921	1.0
83.936	5.0
83.951	0.0
83.966	3.0
83.981	2.0
83.996	3.0
84.011	6.0
84.026	2.0
84.041	1.0
84.056	5.0
84.071	1.0
84.086	4.0
84.101	4.0
84.116	2.0
84.131	5.0
84.146	5.0
84.161	2.0
84.176	3.0
84.191	2.0
84.206	2.0
84.221	5.0
84.236	4.0
84.251	3.0
84.266	1.0
84.281	3.0
84.296	7.0
84.311	1.0
84.326	4.0
84.341	3.0
84.356	4.0
84.371	3.0
84.386	9.0
84.401	6.0
84.416	4.0
84.431	3.0
84.446	1.0
84.461	5.0
84.476	5.0
84.492	3.0
84.507	5.0
84.522	1.0
84.537	7.0
84.552	2.0
84.567	3.0
84.582	6.0
84.597	2.0
84.612	2.0
84.627	2.0
84.642	2.0
84.657	1.0
84.672	2.0
84.687	3.0
84.702	5.0
84.717	6.0
84.733	3.0
84.748	4.0
84.763	5.0
84.778	2.0
84.793	3.0
84.808	4.0
84.823	4.0
84.838	6.0
84.853	4.0
84.868	4.0
84.883	5.0
84.898	5.0
84.913	4.0
84.929	2.0
84.944	4.0
84.959	1.0
84.974	6.0
84.989	3.0
85.004	5.0
85.019	4.0
85.034	7.0
85.049	1.0
85.064	0.0
85.079	1.0
85.094	2.0
85.11	3.0
85.125	5.0
85.14	1.0
85.155	1.0
85.17	2.0
85.185	1.0
85.2	3.0
85.215	4.0
85.23	3.0
85.245	6.0
85.26	1.0
85.276	2.0
85.291	2.0
85.306	1.0
85.321	3.0
85.336	4.0
85.351	7.0
85.366	4.0
85.381	4.0
85.396	4.0
85.411	1.0
85.426	0.0
85.441	5.0
85.457	5.0
85.472	2.0
85.487	2.0
85.502	1.0
85.517	4.0
85.532	1.0
85.547	4.0
85.562	3.0
85.577	2.0
85.592	2.0
85.607	0.0
85.622	2.0
85.637	3.0
85.653	1.0
85.668	3.0
85.683	2.0
85.698	1.0
85.713	5.0
85.728	5.0
85.743	2.0
85.758	4.0
85.773	3.0
85.788	3.0
85.803	3.0
85.818	3.0
85.833	2.0
85.848	4.0
85.863	0.0
85.879	6.0
85.894	3.0
85.909	8.0
85.924	2.0
85.939	2.0
85.954	2.0
85.969	4.0
85.984	2.0
85.999	2.0
86.014	2.0
86.029	2.0
86.044	3.0
86.059	3.0
86.074	2.0
86.089	4.0
86.104	1.0
86.119	2.0
86.134	3.0
86.149	2.0
86.164	4.0
86.179	5.0
86.194	1.0
86.209	2.0
86.224	2.0
86.239	4.0
86.254	2.0
86.269	1.0
86.284	3.0
86.299	4.0
86.314	2.0
86.33	2.0
86.345	5.0
86.36	8.0
86.375	2.0
86.39	2.0
86.405	1.0
86.42	4.0
86.435	3.0
86.45	2.0
86.465	4.0
86.48	4.0
86.495	1.0
86.51	2.0
86.525	2.0
86.54	2.0
86.555	3.0
86.57	4.0
86.585	4.0
86.6	3.0
86.615	2.0
86.63	4.0
86.645	4.0
86.659	1.0
86.674	4.0
86.689	4.0
86.704	2.0
86.719	1.0
86.734	4.0
86.749	5.0
86.764	5.0
86.779	5.0
86.794	2.0
86.809	3.0
86.824	2.0
86.839	4.0
86.854	5.0
86.869	1.0
86.884	8.0
86.899	0.0
86.914	7.0
86.929	5.0
86.944	5.0
86.959	5.0
86.974	2.0
86.989	6.0
87.004	3.0
87.019	2.0
87.034	2.0
87.049	5.0
87.064	2.0
87.079	5.0
87.094	2.0
87.109	2.0
87.124	1.0
87.139	3.0
87.154	1.0
87.169	2.0
87.184	3.0
87.199	5.0
87.214	2.0
87.229	2.0
87.244	4.0
87.259	1.0
87.274	4.0
87.289	1.0
87.304	2.0
87.319	3.0
87.334	1.0
87.349	6.0
87.364	3.0
87.379	5.0
87.394	3.0
87.409	2.0
87.424	3.0
87.438	4.0
87.453	3.0
87.468	2.0
87.483	2.0
87.498	6.0
87.513	2.0
87.528	1.0
87.543	5.0
87.558	1.0
87.573	5.0
87.588	3.0
87.603	3.0
87.618	2.0
87.633	4.0
87.648	7.0
87.663	3.0
87.678	3.0
87.693	2.0
87.708	2.0
87.723	3.0
87.738	6.0
87.753	4.0
87.768	6.0
87.783	2.0
87.798	8.0
87.813	6.0
87.828	3.0
87.843	2.0
87.858	2.0
87.873	3.0
87.888	3.0
87.903	3.0
87.918	3.0
87.933	3.0
87.948	1.0
87.963	3.0
87.978	2.0
87.993	1.0
88.008	3.0
88.023	1.0
88.038	0.0
88.053	4.0
88.068	6.0
88.083	1.0
88.098	2.0
88.113	1.0
88.128	4.0
88.143	0.0
88.158	1.0
88.174	4.0
88.189	2.0
88.204	1.0
88.219	8.0
88.234	1.0
88.249	4.0
88.264	5.0
88.279	3.0
88.294	4.0
88.309	2.0
88.324	7.0
88.339	3.0
88.354	4.0
88.369	2.0
88.384	3.0
88.399	6.0
88.414	0.0
88.429	5.0
88.444	4.0
88.459	3.0
88.474	4.0
88.489	8.0
88.504	1.0
88.519	3.0
88.534	4.0
88.549	3.0
88.564	6.0
88.58	7.0
88.595	2.0
88.61	4.0
88.625	3.0
88.64	3.0
88.655	5.0
88.67	2.0
88.685	2.0
88.7	3.0
88.715	2.0
88.73	5.0
88.745	6.0
88.76	3.0
88.775	5.0
88.79	2.0
88.805	2.0
88.82	3.0
88.835	2.0
88.85	3.0
88.865	1.0
88.88	2.0
88.895	1.0
88.911	3.0
88.926	4.0
88.941	1.0
88.956	6.0
88.971	1.0
88.986	2.0
89.001	2.0
89.016	5.0
89.031	4.0
89.046	2.0
89.061	4.0
89.076	3.0
89.091	2.0
89.106	4.0
89.121	2.0
89.136	4.0
89.151	4.0
89.166	0.0
89.181	1.0
89.196	2.0
89.211	3.0
89.227	3.0
89.242	2.0
89.257	1.0
89.272	7.0
89.287	3.0
89.302	2.0
89.317	3.0
89.332	2.0
89.347	4.0
89.362	8.0
89.377	1.0
89.392	1.0
89.407	3.0
89.422	1.0
89.437	1.0
89.452	3.0
89.467	2.0
89.482	3.0
89.497	2.0
89.512	2.0
89.527	6.0
89.542	6.0
89.557	5.0
89.572	2.0
89.587	2.0
89.602	2.0
89.617	3.0
89.632	4.0
89.647	4.0
89.662	4.0
89.677	4.0
89.693	4.0
89.708	5.0
89.723	1.0
89.738	2.0
89.753	2.0
89.768	1.0
89.783	10.0
89.798	3.0
89.813	5.0
89.828	0.0
89.843	3.0
89.858	2.0
89.873	5.0
89.888	3.0
89.903	8.0
89.918	6.0
89.933	2.0
89.948	2.0
89.963	2.0
89.978	6.0
89.993	3.0
90.008	5.0
90.023	4.0
90.038	5.0
90.053	2.0
90.068	2.0
90.083	4.0
90.097	3.0
90.112	2.0
90.127	4.0
90.142	6.0
90.157	5.0
90.172	3.0
90.187	4.0
90.202	1.0
90.217	4.0
90.232	2.0
90.247	8.0
90.262	7.0
90.277	5.0
90.292	5.0
90.307	3.0
90.322	4.0
90.337	3.0
90.352	1.0
90.367	3.0
90.382	2.0
90.397	3.0
90.412	2.0
90.427	2.0
90.442	1.0
90.457	4.0
90.472	4.0
90.487	3.0
90.501	5.0
90.516	4.0
90.531	2.0
90.546	4.0
90.561	4.0
90.576	3.0
90.591	4.0
90.606	5.0
90.621	4.0
90.636	3.0
90.651	1.0
90.666	3.0
90.681	3.0
90.696	2.0
90.711	2.0
90.726	3.0
90.741	2.0
90.755	3.0
90.77	4.0
90.785	3.0
90.8	4.0
90.815	3.0
90.83	1.0
90.845	1.0
90.86	2.0
90.875	4.0
90.89	1.0
90.905	3.0
90.92	2.0
90.935	7.0
90.95	4.0
90.965	2.0
90.979	2.0
90.994	7.0
91.009	3.0
91.024	5.0
91.039	1.0
91.054	4.0
91.069	3.0
91.084	4.0
91.099	6.0
91.114	3.0
91.129	1.0
91.144	4.0
91.159	2.0
91.174	1.0
91.188	3.0
91.203	2.0
91.218	0.0
91.233	5.0
91.248	3.0
91.263	3.0
91.278	5.0
91.293	4.0
91.308	4.0
91.323	0.0
91.338	3.0
91.353	3.0
91.368	2.0
91.383	6.0
91.398	2.0
91.412	4.0
91.427	3.0
91.442	3.0
91.457	7.0
91.472	5.0
91.487	2.0
91.502	3.0
91.517	6.0
91.532	3.0
91.547	2.0
91.562	1.0
91.577	3.0
91.592	2.0
91.607	2.0
91.622	4.0
91.637	0.0
91.652	4.0
91.666	4.0
91.681	3.0
91.696	4.0
91.711	2.0
91.726	4.0
91.741	1.0
91.756	3.0
91.771	6.0
91.786	3.0
91.801	4.0
91.816	6.0
91.831	6.0
91.846	5.0
91.861	4.0
91.876	1.0
91.891	1.0
91.906	2.0
91.921	1.0
91.936	1.0
91.951	6.0
91.966	4.0
91.981	1.0
91.995	5.0
92.01	4.0
92.025	1.0
92.04	2.0
92.055	5.0
92.07	4.0
92.085	4.0
92.1	4.0
92.115	4.0
92.13	3.0
92.145	4.0
92.16	4.0
92.175	6.0
92.19	5.0
92.205	4.0
92.22	2.0
92.235	4.0
92.25	2.0
92.265	8.0
92.28	2.0
92.295	3.0
92.31	6.0
92.325	2.0
92.34	5.0
92.355	2.0
92.37	1.0
92.385	3.0
92.4	6.0
92.415	4.0
92.43	2.0
92.445	2.0
92.46	4.0
92.475	3.0
92.49	7.0
92.505	3.0
92.52	3.0
92.535	2.0
92.55	7.0
92.565	2.0
92.58	2.0
92.595	4.0
92.61	4.0
92.625	4.0
92.64	1.0
92.655	3.0
92.67	4.0
92.685	1.0
92.7	4.0
92.715	3.0
92.73	3.0
92.745	3.0
92.76	2.0
92.775	2.0
92.79	3.0
92.805	7.0
92.82	6.0
92.835	2.0
92.85	6.0
92.865	7.0
92.88	1.0
92.895	1.0
92.91	0.0
92.925	1.0
92.94	3.0
92.955	3.0
92.97	1.0
92.985	5.0
93.0	3.0
93.015	0.0
93.03	5.0
93.045	2.0
93.06	2.0
93.075	9.0
93.09	3.0
93.105	3.0
93.12	6.0
93.135	4.0
93.15	3.0
93.165	7.0
93.18	4.0
93.195	1.0
93.21	6.0
93.225	3.0
93.24	1.0
93.255	1.0
93.27	0.0
93.285	1.0
93.3	2.0
93.315	5.0
93.33	1.0
93.345	2.0
93.36	3.0
93.375	5.0
93.39	3.0
93.405	2.0
93.42	1.0
93.435	4.0
93.45	1.0
93.465	4.0
93.48	4.0
93.495	1.0
93.51	4.0
93.525	3.0
93.54	1.0
93.555	4.0
93.57	2.0
93.585	3.0
93.6	3.0
93.615	4.0
93.63	6.0
93.645	3.0
93.66	3.0
93.675	7.0
93.69	2.0
93.705	3.0
93.72	4.0
93.735	0.0
93.75	2.0
93.765	2.0
93.78	5.0
93.795	2.0
93.81	6.0
93.824	4.0
93.839	5.0
93.854	3.0
93.869	1.0
93.884	7.0
93.899	3.0
93.914	6.0
93.929	3.0
93.944	3.0
93.959	4.0
93.974	3.0
93.989	4.0
94.004	2.0
94.019	4.0
94.034	2.0
94.049	0.0
94.064	5.0
94.079	2.0
94.094	1.0
94.108	4.0
94.123	3.0
94.138	2.0
94.153	1.0
94.168	3.0
94.183	3.0
94.198	4.0
94.213	5.0
94.228	4.0
94.243	3.0
94.258	3.0
94.273	2.0
94.288	1.0
94.302	1.0
94.317	5.0
94.332	2.0
94.347	5.0
94.362	3.0
94.377	3.0
94.392	3.0
94.407	6.0
94.422	7.0
94.437	5.0
94.452	2.0
94.466	8.0
94.481	4.0
94.496	1.0
94.511	3.0
94.526	4.0
94.541	3.0
94.556	5.0
94.571	5.0
94.586	1.0
94.601	1.0
94.615	7.0
94.63	3.0
94.645	3.0
94.66	2.0
94.675	5.0
94.69	5.0
94.705	5.0
94.72	3.0
94.735	0.0
94.749	3.0
94.764	6.0
94.779	2.0
94.794	1.0
94.809	4.0
94.824	2.0
94.839	5.0
94.854	4.0
94.868	0.0
94.883	2.0
94.898	4.0
94.913	3.0
94.928	6.0
94.943	3.0
94.958	3.0
94.973	5.0
94.987	1.0
95.002	3.0
95.017	2.0
95.032	2.0
95.047	3.0
95.062	3.0
95.077	5.0
95.092	1.0
95.106	3.0
95.121	4.0
95.136	5.0
95.151	6.0
95.166	2.0
95.181	3.0
95.196	7.0
95.211	6.0
95.226	7.0
95.24	3.0
95.255	6.0
95.27	3.0
95.285	6.0
95.3	2.0
95.315	1.0
95.33	3.0
95.345	3.0
95.359	3.0
95.374	4.0
95.389	5.0
95.404	3.0
95.419	3.0
95.434	5.0
95.449	5.0
95.464	1.0
95.478	2.0
95.493	2.0
95.508	6.0
95.523	6.0
95.538	4.0
95.553	4.0
95.568	2.0
95.583	5.0
95.597	1.0
95.612	2.0
95.627	6.0
95.642	2.0
95.657	2.0
95.672	2.0
95.687	2.0
95.702	5.0
95.717	3.0
95.731	2.0
95.746	1.0
95.761	4.0
95.776	3.0
95.791	3.0
95.806	1.0
95.821	3.0
95.836	1.0
95.851	6.0
95.866	3.0
95.88	5.0
95.895	4.0
95.91	2.0
95.925	4.0
95.94	4.0
95.955	3.0
95.97	6.0
95.985	3.0
96.0	6.0
96.015	2.0
96.029	0.0
96.044	4.0
96.059	4.0
96.074	6.0
96.089	2.0
96.104	3.0
96.119	4.0
96.134	5.0
96.149	5.0
96.164	6.0
96.179	5.0
96.194	5.0
96.208	3.0
96.223	4.0
96.238	1.0
96.253	2.0
96.268	2.0
96.283	7.0
96.298	4.0
96.313	4.0
96.328	3.0
96.343	6.0
96.358	5.0
96.373	0.0
96.388	2.0
96.403	4.0
96.417	3.0
96.432	3.0
96.447	3.0
96.462	2.0
96.477	3.0
96.492	4.0
96.507	0.0
96.522	3.0
96.537	4.0
96.552	5.0
96.567	2.0
96.582	5.0
96.597	3.0
96.612	2.0
96.627	4.0
96.642	2.0
96.656	2.0
96.671	4.0
96.686	3.0
96.701	4.0
96.716	4.0
96.731	1.0
96.746	5.0
96.761	4.0
96.776	3.0
96.791	4.0
96.806	2.0
96.821	5.0
96.836	5.0
96.851	7.0
96.866	3.0
96.881	1.0
96.896	2.0
96.911	7.0
96.926	4.0
96.94	1.0
96.955	5.0
96.97	3.0
96.985	5.0
97.0	4.0
97.015	1.0
97.03	7.0
97.045	6.0
97.06	6.0
97.075	4.0
97.09	2.0
97.105	3.0
97.12	3.0
97.135	3.0
97.15	4.0
97.165	1.0
97.18	3.0
97.195	2.0
97.21	4.0
97.225	7.0
97.239	3.0
97.254	2.0
97.269	4.0
97.284	8.0
97.299	2.0
97.314	3.0
97.329	3.0
97.344	8.0
97.359	2.0
97.374	2.0
97.389	3.0
97.404	2.0
97.419	3.0
97.434	2.0
97.449	1.0
97.464	4.0
97.479	7.0
97.494	2.0
97.509	7.0
97.524	5.0
97.538	4.0
97.553	2.0
97.568	7.0
97.583	1.0
97.598	4.0
97.613	3.0
97.628	2.0
97.643	4.0
97.658	5.0
97.673	4.0
97.688	4.0
97.703	6.0
97.718	4.0
97.733	2.0
97.748	4.0
97.763	3.0
97.778	6.0
97.792	1.0
97.807	3.0
97.822	2.0
97.837	2.0
97.852	4.0
97.867	1.0
97.882	9.0
97.897	2.0
97.912	4.0
97.927	3.0
97.942	1.0
97.957	2.0
97.972	2.0
97.987	5.0
98.001	5.0
98.016	5.0
98.031	7.0
98.046	3.0
98.061	4.0
98.076	3.0
98.091	0.0
98.106	4.0
98.121	2.0
98.136	4.0
98.151	7.0
98.166	2.0
98.181	2.0
98.195	4.0
98.21	3.0
98.225	0.0
98.24	1.0
98.255	4.0
98.27	3.0
98.285	4.0
98.3	1.0
98.315	4.0
98.33	3.0
98.345	2.0
98.359	1.0
98.374	3.0
98.389	2.0
98.404	2.0
98.419	2.0
98.434	5.0
98.449	3.0
98.464	2.0
98.479	2.0
98.494	4.0
98.508	4.0
98.523	1.0
98.538	7.0
98.553	3.0
98.568	1.0
98.583	2.0
98.598	3.0
98.613	3.0
98.628	1.0
98.642	3.0
98.657	6.0
98.672	6.0
98.687	2.0
98.702	1.0
98.717	2.0
98.732	5.0
98.747	3.0
98.762	0.0
98.776	2.0
98.791	2.0
98.806	5.0
98.821	2.0
98.836	7.0
98.851	2.0
98.866	5.0
98.881	7.0
98.896	1.0
98.91	5.0
98.925	2.0
98.94	0.0
98.955	4.0
98.97	3.0
98.985	2.0
99.0	4.0
99.015	1.0
99.029	4.0
99.044	5.0
99.059	6.0
99.074	2.0
99.089	0.0
99.104	2.0
99.119	2.0
99.133	4.0
99.148	1.0
99.163	1.0
99.178	4.0
99.193	1.0
99.208	6.0
99.223	1.0
99.238	4.0
99.252	3.0
99.267	3.0
99.282	2.0
99.297	7.0
99.312	4.0
99.327	1.0
99.342	3.0
99.356	1.0
99.371	4.0
99.386	1.0
99.401	3.0
99.416	3.0
99.431	3.0
99.446	8.0
99.461	1.0
99.475	3.0
99.49	3.0
99.505	2.0
99.52	5.0
99.535	3.0
99.55	3.0
99.565	2.0
99.579	0.0
99.594	3.0
99.609	4.0
99.624	2.0
99.639	5.0
99.654	1.0
99.669	4.0
99.683	3.0
99.698	3.0
99.713	2.0
99.728	3.0
99.743	1.0
99.758	4.0
99.772	0.0
99.787	1.0
99.802	4.0
99.817	3.0
99.832	2.0
99.847	5.0
99.862	3.0
99.876	3.0
99.891	4.0
99.906	3.0
99.921	3.0
99.936	4.0
99.951	3.0
99.966	3.0
99.98	3.0
99.995	1.0
100.01	2.0
100.025	4.0
100.04	1.0
100.055	5.0
100.069	5.0
100.084	2.0
100.099	1.0
100.114	3.0
100.129	2.0
100.144	3.0
100.159	5.0
100.173	7.0
100.188	3.0
100.203	7.0
100.218	1.0
100.233	3.0
100.248	3.0
100.262	4.0
100.277	5.0
100.292	0.0
100.307	2.0
100.322	6.0
100.337	4.0
100.351	3.0
100.366	6.0
100.381	4.0
100.396	1.0
100.411	3.0
100.426	2.0
100.441	4.0
100.455	4.0
100.47	2.0
100.485	6.0
100.5	4.0
100.515	3.0
100.53	2.0
100.544	3.0
100.559	1.0
100.574	3.0
100.589	4.0
100.604	5.0
100.619	6.0
100.633	2.0
100.648	3.0
100.663	2.0
100.678	2.0
100.693	4.0
100.708	2.0
100.722	1.0
100.737	6.0
100.752	3.0
100.767	6.0
100.782	4.0
100.796	4.0
100.811	6.0
100.826	6.0
100.841	5.0
100.856	2.0
100.871	4.0
100.885	3.0
100.9	3.0
100.915	3.0
100.93	0.0
100.945	4.0
100.96	4.0
100.974	3.0
100.989	7.0
101.004	5.0
101.019	2.0
101.034	3.0
101.048	3.0
101.063	1.0
101.078	3.0
101.093	2.0
101.108	5.0
101.123	3.0
101.137	4.0
101.152	1.0
101.167	6.0
101.182	3.0
101.197	4.0
101.211	1.0
101.226	4.0
101.241	2.0
101.256	5.0
101.271	5.0
101.285	3.0
101.3	7.0
101.315	2.0
101.33	5.0
101.345	1.0
101.359	1.0
101.374	2.0
101.389	0.0
101.404	4.0
101.419	4.0
101.433	3.0
101.448	2.0
101.463	1.0
101.478	4.0
101.493	3.0
101.507	7.0
101.522	2.0
101.537	3.0
101.552	2.0
101.567	5.0
101.581	0.0
101.596	1.0
101.611	1.0
101.626	2.0
101.64	4.0
101.655	1.0
101.67	4.0
101.685	4.0
101.7	4.0
101.714	3.0
101.729	0.0
101.744	4.0
101.759	0.0
101.773	2.0
101.788	2.0
101.803	4.0
101.818	4.0
101.833	0.0
101.847	0.0
101.862	4.0
101.877	7.0
101.892	2.0
101.906	2.0
101.921	2.0
101.936	6.0
101.951	1.0
101.965	2.0
101.98	3.0
101.995	2.0
102.01	1.0
102.025	2.0
102.039	5.0
102.054	4.0
102.069	3.0
102.084	3.0
102.098	2.0
102.113	2.0
102.128	1.0
102.143	4.0
102.157	4.0
102.172	4.0
102.187	7.0
102.202	2.0
102.216	2.0
102.231	4.0
102.246	3.0
102.261	1.0
102.275	2.0
102.29	3.0
102.305	1.0
102.32	7.0
102.334	4.0
102.349	3.0
102.364	2.0
102.378	4.0
102.393	5.0
102.408	3.0
102.423	3.0
102.437	0.0
102.452	5.0
102.467	6.0
102.482	2.0
102.496	4.0
102.511	5.0
102.526	0.0
102.541	5.0
102.555	2.0
102.57	1.0
102.585	5.0
102.6	0.0
102.614	1.0
102.629	4.0
102.644	2.0
102.659	0.0
102.673	2.0
102.688	2.0
102.703	4.0
102.717	5.0
102.732	5.0
102.747	2.0
102.762	2.0
102.776	4.0
102.791	4.0
102.806	2.0
102.821	4.0
102.835	1.0
102.85	5.0
102.865	5.0
102.88	1.0
102.894	6.0
102.909	1.0
102.924	3.0
102.938	4.0
102.953	3.0
102.968	1.0
102.983	1.0
102.997	4.0
103.012	2.0
103.027	4.0
103.042	4.0
103.056	4.0
103.071	4.0
103.086	1.0
103.101	7.0
103.115	3.0
103.13	6.0
103.145	0.0
103.16	3.0
103.174	5.0
103.189	3.0
103.204	2.0
103.219	2.0
103.233	3.0
103.248	2.0
103.263	1.0
103.278	3.0
103.292	3.0
103.307	4.0
103.322	2.0
103.337	4.0
103.351	3.0
103.366	3.0
103.381	5.0
103.396	0.0
103.41	3.0
103.425	4.0
103.44	1.0
103.455	3.0
103.469	2.0
103.484	2.0
103.499	5.0
103.514	3.0
103.529	2.0
103.543	6.0
103.558	1.0
103.573	3.0
103.588	3.0
103.602	6.0
103.617	1.0
103.632	7.0
103.647	4.0
103.661	3.0
103.676	1.0
103.691	4.0
103.706	3.0
103.721	5.0
103.735	1.0
103.75	4.0
103.765	6.0
103.78	3.0
103.795	3.0
103.809	3.0
103.824	3.0
103.839	1.0
103.854	2.0
103.869	6.0
103.883	3.0
103.898	3.0
103.913	5.0
103.928	7.0
103.943	5.0
103.957	3.0
103.972	1.0
103.987	0.0
104.002	4.0
104.017	4.0
104.031	3.0
104.046	4.0
104.061	5.0
104.076	3.0
104.091	4.0
104.106	3.0
104.12	6.0
104.135	2.0
104.15	4.0
104.165	3.0
104.18	4.0
104.195	3.0
104.209	7.0
104.224	3.0
104.239	4.0
104.254	2.0
104.269	1.0
104.284	3.0
104.299	0.0
104.313	6.0
104.328	4.0
104.343	4.0
104.358	0.0
104.373	0.0
104.388	6.0
104.403	8.0
104.417	4.0
104.432	5.0
104.447	5.0
104.462	5.0
104.477	4.0
104.492	4.0
104.507	6.0
104.522	6.0
104.536	3.0
104.551	5.0
104.566	3.0
104.581	6.0
104.596	5.0
104.611	2.0
104.626	3.0
104.641	3.0
104.656	9.0
104.67	4.0
104.685	5.0
104.7	3.0
104.715	8.0
104.73	6.0
104.745	2.0
104.76	2.0
104.775	1.0
104.79	2.0
104.804	2.0
104.819	5.0
104.834	4.0
104.849	3.0
104.864	3.0
104.879	5.0
104.894	3.0
104.909	2.0
104.924	2.0
104.939	2.0
104.954	2.0
104.968	5.0
104.983	2.0
104.998	3.0
105.013	6.0
105.028	5.0
105.043	1.0
105.058	4.0
105.073	4.0
105.088	5.0
105.103	1.0
105.118	6.0
105.133	1.0
105.147	7.0
105.162	1.0
105.177	5.0
105.192	2.0
105.207	5.0
105.222	3.0
105.237	4.0
105.252	4.0
105.267	3.0
105.282	6.0
105.297	1.0
105.312	6.0
105.327	1.0
105.342	7.0
105.356	4.0
105.371	3.0
105.386	6.0
105.401	3.0
105.416	2.0
105.431	5.0
105.446	7.0
105.461	2.0
105.476	2.0
105.491	3.0
105.506	3.0
105.521	4.0
105.536	3.0
105.551	3.0
105.566	2.0
105.581	6.0
105.595	6.0
105.61	4.0
105.625	3.0
105.64	4.0
105.655	7.0
105.67	4.0
105.685	3.0
105.7	5.0
105.715	2.0
105.73	6.0
105.745	2.0
105.76	5.0
105.775	0.0
105.79	1.0
105.805	2.0
105.82	4.0
105.835	1.0
105.85	1.0
105.864	5.0
105.879	2.0
105.894	5.0
105.909	4.0
105.924	4.0
105.939	1.0
105.954	3.0
105.969	4.0
105.984	3.0
105.999	1.0
106.014	1.0
106.029	4.0
106.044	4.0
106.059	2.0
106.074	2.0
106.089	2.0
106.104	3.0
106.119	1.0
106.134	2.0
106.148	3.0
106.163	7.0
106.178	5.0
106.193	0.0
106.208	4.0
106.223	0.0
106.238	2.0
106.253	4.0
106.268	4.0
106.283	1.0
106.298	3.0
106.313	1.0
106.328	3.0
106.343	3.0
106.358	3.0
106.373	4.0
106.388	2.0
106.403	6.0
106.418	3.0
106.432	3.0
106.447	3.0
106.462	0.0
106.477	6.0
106.492	3.0
106.507	4.0
106.522	4.0
106.537	1.0
106.552	4.0
106.567	3.0
106.582	5.0
106.597	2.0
106.612	1.0
106.627	2.0
106.642	0.0
106.657	1.0
106.672	2.0
106.687	3.0
106.701	4.0
106.716	5.0
106.731	2.0
106.746	3.0
106.761	4.0
106.776	6.0
106.791	2.0
106.806	4.0
106.821	3.0
106.836	4.0
106.851	7.0
106.866	1.0
106.881	4.0
106.896	1.0
106.911	2.0
106.926	6.0
106.941	4.0
106.955	4.0
106.97	0.0
106.985	0.0
107.0	0.0
107.015	5.0
107.03	2.0
107.045	5.0
107.06	4.0
107.075	8.0
107.09	5.0
107.105	4.0
107.12	5.0
107.135	3.0
107.15	4.0
107.165	1.0
107.18	0.0
107.194	3.0
107.209	13.0
107.224	4.0
107.239	3.0
107.254	3.0
107.269	4.0
107.284	8.0
107.299	2.0
107.314	8.0
107.329	2.0
107.344	2.0
107.359	2.0
107.374	3.0
107.389	2.0
107.404	3.0
107.418	1.0
107.433	2.0
107.448	3.0
107.463	3.0
107.478	2.0
107.493	6.0
107.508	2.0
107.523	2.0
107.538	3.0
107.553	4.0
107.568	3.0
107.583	7.0
107.598	1.0
107.613	3.0
107.627	0.0
107.642	0.0
107.657	2.0
107.672	6.0
107.687	7.0
107.702	8.0
107.717	2.0
107.732	9.0
107.747	2.0
107.762	1.0
107.777	4.0
107.792	4.0
107.807	0.0
107.821	3.0
107.836	2.0
107.851	3.0
107.866	2.0
107.881	5.0
107.896	2.0
107.911	5.0
107.926	1.0
107.941	5.0
107.956	3.0
107.971	5.0
107.986	4.0
108.0	5.0
108.015	4.0
108.03	4.0
108.045	5.0
108.06	4.0
108.075	1.0
108.09	2.0
108.105	5.0
108.12	5.0
108.135	1.0
108.15	4.0
108.164	5.0
108.179	7.0
108.194	8.0
108.209	1.0
108.224	7.0
108.239	0.0
108.254	3.0
108.269	4.0
108.284	1.0
108.299	3.0
108.313	6.0
108.328	4.0
108.343	0.0
108.358	3.0
108.373	1.0
108.388	3.0
108.403	5.0
108.418	3.0
108.433	4.0
108.448	2.0
108.462	3.0
108.477	4.0
108.492	0.0
108.507	6.0
108.522	7.0
108.537	3.0
108.552	3.0
108.567	4.0
108.582	4.0
108.597	4.0
108.611	4.0
108.626	4.0
108.641	7.0
108.656	5.0
108.671	4.0
108.686	3.0
108.701	5.0
108.716	4.0
108.731	3.0
108.745	4.0
108.76	4.0
108.775	2.0
108.79	2.0
108.805	1.0
108.82	1.0
108.835	8.0
108.85	1.0
108.865	0.0
108.879	3.0
108.894	3.0
108.909	3.0
108.924	6.0
108.939	8.0
108.954	5.0
108.969	8.0
108.984	4.0
108.999	10.0
109.013	1.0
109.028	2.0
109.043	0.0
109.058	2.0
109.073	2.0
109.088	6.0
109.103	3.0
109.118	1.0
109.133	3.0
109.147	3.0
109.162	5.0
109.177	6.0
109.192	2.0
109.207	4.0
109.222	3.0
109.237	1.0
109.252	5.0
109.267	2.0
109.281	2.0
109.296	4.0
109.311	6.0
109.326	2.0
109.341	6.0
109.356	2.0
109.371	2.0
109.386	6.0
109.4	1.0
109.415	5.0
109.43	3.0
109.445	1.0
109.46	7.0
109.475	6.0
109.49	3.0
109.505	5.0
109.52	5.0
109.534	2.0
109.549	4.0
109.564	2.0
109.579	3.0
109.594	3.0
109.609	3.0
109.624	2.0
109.639	3.0
109.653	4.0
109.668	1.0
109.683	1.0
109.698	6.0
109.713	4.0
109.728	2.0
109.743	1.0
109.758	5.0
109.773	2.0
109.787	2.0
109.802	1.0
109.817	5.0
109.832	4.0
109.847	5.0
109.862	3.0
109.877	2.0
109.892	4.0
109.907	3.0
109.921	3.0
109.936	2.0
109.951	3.0
109.966	6.0
109.981	6.0
109.996	2.0
110.011	0.0
110.026	4.0
110.04	3.0
110.055	5.0
110.07	3.0
110.085	4.0
110.1	0.0
110.115	5.0
110.13	1.0
110.145	3.0
110.16	4.0
110.174	8.0
110.189	2.0
110.204	1.0
110.219	2.0
110.234	4.0
110.249	4.0
110.264	2.0
110.279	0.0
110.294	4.0
110.308	2.0
110.323	6.0
110.338	4.0
110.353	5.0
110.368	3.0
110.383	1.0
110.398	3.0
110.413	5.0
110.428	5.0
110.442	3.0
110.457	5.0
110.472	2.0
110.487	4.0
110.502	2.0
110.517	7.0
110.532	2.0
110.547	5.0
110.561	5.0
110.576	4.0
110.591	2.0
110.606	1.0
110.621	1.0
110.636	9.0
110.651	3.0
110.666	8.0
110.681	1.0
110.695	1.0
110.71	7.0
110.725	3.0
110.74	4.0
110.755	3.0
110.77	2.0
110.785	2.0
110.8	4.0
110.815	5.0
110.829	4.0
110.844	4.0
110.859	1.0
110.874	4.0
110.889	3.0
110.904	4.0
110.919	3.0
110.934	2.0
110.948	5.0
110.963	4.0
110.978	1.0
110.993	5.0
111.008	2.0
111.023	2.0
111.038	5.0
111.053	2.0
111.067	2.0
111.082	7.0
111.097	2.0
111.112	2.0
111.127	3.0
111.142	2.0
111.157	6.0
111.172	6.0
111.186	6.0
111.201	3.0
111.216	5.0
111.231	5.0
111.246	3.0
111.261	5.0
111.276	5.0
111.291	5.0
111.305	4.0
111.32	2.0
111.335	0.0
111.35	3.0
111.365	1.0
111.38	4.0
111.395	1.0
111.41	1.0
111.424	3.0
111.439	2.0
111.454	1.0
111.469	4.0
111.484	2.0
111.499	4.0
111.514	4.0
111.528	3.0
111.543	5.0
111.558	2.0
111.573	1.0
111.588	2.0
111.603	1.0
111.618	2.0
111.633	4.0
111.647	5.0
111.662	6.0
111.677	5.0
111.692	4.0
111.707	3.0
111.722	3.0
111.737	6.0
111.751	2.0
111.766	3.0
111.781	4.0
111.796	5.0
111.811	2.0
111.826	1.0
111.84	3.0
111.855	2.0
111.87	3.0
111.885	8.0
111.9	2.0
111.915	5.0
111.93	5.0
111.944	5.0
111.959	4.0
111.974	4.0
111.989	0.0
112.004	1.0
112.019	3.0
112.033	6.0
112.048	3.0
112.063	2.0
112.078	3.0
112.093	3.0
112.108	0.0
112.123	4.0
112.137	3.0
112.152	3.0
112.167	3.0
112.182	2.0
112.197	8.0
112.212	4.0
112.226	1.0
112.241	0.0
112.256	2.0
112.271	1.0
112.286	2.0
112.301	3.0
112.315	5.0
112.33	7.0
112.345	5.0
112.36	4.0
112.375	5.0
112.389	4.0
112.404	3.0
112.419	2.0
112.434	1.0
112.449	3.0
112.464	2.0
112.478	2.0
112.493	2.0
112.508	4.0
112.523	3.0
112.538	7.0
112.553	6.0
112.567	7.0
112.582	3.0
112.597	3.0
112.612	4.0
112.627	2.0
112.642	4.0
112.656	7.0
112.671	1.0
112.686	5.0
112.701	3.0
112.716	2.0
112.73	4.0
112.745	4.0
112.76	4.0
112.775	1.0
112.79	0.0
112.805	5.0
112.819	2.0
112.834	4.0
112.849	3.0
112.864	4.0
112.879	4.0
112.894	1.0
112.908	4.0
112.923	4.0
112.938	3.0
112.953	4.0
112.968	3.0
112.983	3.0
112.997	4.0
113.012	5.0
113.027	5.0
113.042	2.0
113.057	5.0
113.072	2.0
113.086	1.0
113.101	3.0
113.116	1.0
113.131	1.0
113.146	2.0
113.161	4.0
113.175	0.0
113.19	7.0
113.205	4.0
113.22	2.0
113.235	1.0
113.25	11.0
113.265	3.0
113.279	4.0
113.294	2.0
113.309	4.0
113.324	1.0
113.339	3.0
113.354	3.0
113.368	7.0
113.383	1.0
113.398	3.0
113.413	3.0
113.428	5.0
113.443	0.0
113.458	4.0
113.472	2.0
113.487	4.0
113.502	8.0
113.517	2.0
113.532	6.0
113.547	3.0
113.562	3.0
113.576	4.0
113.591	2.0
113.606	2.0
113.621	2.0
113.636	3.0
113.651	3.0
113.666	3.0
113.681	4.0
113.695	4.0
113.71	2.0
113.725	2.0
113.74	7.0
113.755	5.0
113.77	3.0
113.785	4.0
113.8	5.0
113.814	5.0
113.829	3.0
113.844	5.0
113.859	3.0
113.874	6.0
113.889	4.0
113.904	7.0
113.919	5.0
113.934	1.0
113.949	6.0
113.963	2.0
113.978	3.0
113.993	5.0
114.008	4.0
114.023	3.0
114.038	8.0
114.053	5.0
114.068	9.0
114.083	6.0
114.098	2.0
114.113	1.0
114.127	7.0
114.142	4.0
114.157	1.0
114.172	5.0
114.187	1.0
114.202	2.0
114.217	3.0
114.232	4.0
114.247	4.0
114.262	7.0
114.277	1.0
114.292	5.0
114.307	6.0
114.322	4.0
114.337	5.0
114.351	5.0
114.366	4.0
114.381	4.0
114.396	4.0
114.411	4.0
114.426	3.0
114.441	2.0
114.456	6.0
114.471	5.0
114.486	1.0
114.501	3.0
114.516	4.0
114.531	4.0
114.546	2.0
114.561	0.0
114.576	5.0
114.591	3.0
114.606	2.0
114.621	4.0
114.636	6.0
114.65	4.0
114.665	3.0
114.68	4.0
114.695	5.0
114.71	3.0
114.725	2.0
114.74	4.0
114.755	3.0
114.77	3.0
114.785	3.0
114.8	4.0
114.815	3.0
114.83	1.0
114.845	6.0
114.86	6.0
114.875	2.0
114.89	4.0
114.905	3.0
114.92	4.0
114.935	2.0
114.95	2.0
114.965	1.0
114.98	1.0
114.995	1.0
115.009	4.0
115.024	3.0
115.039	3.0
115.054	1.0
115.069	3.0
115.084	3.0
115.099	4.0
115.114	7.0
115.129	2.0
115.144	5.0
115.159	0.0
115.174	7.0
115.189	4.0
115.204	8.0
115.219	6.0
115.234	2.0
115.249	2.0
115.264	1.0
115.279	7.0
115.294	4.0
115.309	8.0
115.323	6.0
115.338	0.0
115.353	2.0
115.368	4.0
115.383	4.0
115.398	1.0
115.413	5.0
115.428	4.0
115.443	4.0
115.458	5.0
115.473	5.0
115.488	2.0
115.503	7.0
115.518	4.0
115.533	1.0
115.548	5.0
115.562	1.0
115.577	1.0
115.592	3.0
115.607	2.0
115.622	3.0
115.637	5.0
115.652	1.0
115.667	4.0
115.682	2.0
115.697	6.0
115.712	5.0
115.727	1.0
115.741	0.0
115.756	4.0
115.771	7.0
115.786	3.0
115.801	5.0
115.816	3.0
115.831	5.0
115.846	4.0
115.861	2.0
115.875	5.0
115.89	4.0
115.905	5.0
115.92	0.0
115.935	1.0
115.95	2.0
115.965	2.0
115.98	5.0
115.995	5.0
116.009	1.0
116.024	2.0
116.039	4.0
116.054	6.0
116.069	3.0
116.084	1.0
116.099	3.0
116.113	4.0
116.128	3.0
116.143	4.0
116.158	5.0
116.173	3.0
116.188	2.0
116.202	1.0
116.217	2.0
116.232	1.0
116.247	2.0
116.262	1.0
116.277	6.0
116.291	4.0
116.306	5.0
116.321	3.0
116.336	7.0
116.351	4.0
116.366	5.0
116.38	7.0
116.395	4.0
116.41	2.0
116.425	1.0
116.44	6.0
116.454	5.0
116.469	4.0
116.484	4.0
116.499	7.0
116.514	3.0
116.528	5.0
116.543	2.0
116.558	5.0
116.573	2.0
116.588	2.0
116.602	1.0
116.617	2.0
116.632	2.0
116.647	4.0
116.662	2.0
116.676	2.0
116.691	3.0
116.706	3.0
116.721	4.0
116.735	3.0
116.75	4.0
116.765	1.0
116.78	5.0
116.795	4.0
116.809	0.0
116.824	7.0
116.839	1.0
116.854	5.0
116.868	1.0
116.883	2.0
116.898	1.0
116.913	4.0
116.927	4.0
116.942	4.0
116.957	5.0
116.972	2.0
116.986	4.0
117.001	1.0
117.016	4.0
117.031	5.0
117.045	5.0
117.06	4.0
117.075	4.0
117.09	3.0
117.104	1.0
117.119	2.0
117.134	3.0
117.149	3.0
117.163	2.0
117.178	3.0
117.193	5.0
117.208	4.0
117.222	3.0
117.237	5.0
117.252	3.0
117.267	3.0
117.281	1.0
117.296	2.0
117.311	2.0
117.325	4.0
117.34	2.0
117.355	2.0
117.37	3.0
117.384	5.0
117.399	2.0
117.414	3.0
117.429	7.0
117.443	4.0
117.458	0.0
117.473	4.0
117.487	4.0
117.502	4.0
117.517	3.0
117.532	1.0
117.546	2.0
117.561	3.0
117.576	4.0
117.59	2.0
117.605	5.0
117.62	4.0
117.635	7.0
117.649	3.0
117.664	6.0
117.679	5.0
117.693	3.0
117.708	2.0
117.723	3.0
117.738	3.0
117.752	3.0
117.767	7.0
117.782	5.0
117.796	3.0
117.811	3.0
117.826	2.0
117.841	0.0
117.855	3.0
117.87	7.0
117.885	4.0
117.899	2.0
117.914	5.0
117.929	4.0
117.944	7.0
117.958	4.0
117.973	4.0
117.988	4.0
118.002	7.0
118.017	5.0
118.032	4.0
118.047	2.0
118.062	6.0
118.077	5.0
118.092	3.0
118.107	6.0
118.121	6.0
118.136	6.0
118.151	3.0
118.166	5.0
118.181	4.0
118.196	3.0
118.211	3.0
118.225	6.0
118.24	2.0
118.255	4.0
118.27	3.0
118.285	1.0
118.3	4.0
118.315	5.0
118.33	5.0
118.344	6.0
118.359	4.0
118.374	2.0
118.389	5.0
118.404	5.0
118.419	2.0
118.434	2.0
118.449	5.0
118.463	3.0
118.478	1.0
118.493	3.0
118.508	3.0
118.523	2.0
118.538	1.0
118.553	3.0
118.567	3.0
118.582	2.0
118.597	3.0
118.612	3.0
118.627	9.0
118.642	2.0
118.657	3.0
118.672	3.0
118.686	1.0
118.701	2.0
118.716	3.0
118.731	1.0
118.746	5.0
118.761	6.0
118.776	3.0
118.791	4.0
118.805	5.0
118.82	3.0
118.835	3.0
118.85	1.0
118.865	5.0
118.88	2.0
118.895	2.0
118.909	7.0
118.924	1.0
118.939	2.0
118.954	3.0
118.969	4.0
118.984	5.0
118.999	4.0
119.014	5.0
119.028	3.0
119.043	3.0
119.058	1.0
119.073	7.0
119.088	5.0
119.103	4.0
119.118	3.0
119.133	7.0
119.147	0.0
119.162	5.0
119.177	6.0
119.192	3.0
119.207	1.0
119.222	6.0
119.237	8.0
119.251	1.0
119.266	4.0
119.281	3.0
119.296	1.0
119.311	6.0
119.326	6.0
119.341	4.0
119.356	5.0
119.37	4.0
119.385	0.0
119.4	5.0
119.415	2.0
119.43	1.0
119.445	4.0
119.46	2.0
119.475	2.0
119.489	3.0
119.504	4.0
119.519	2.0
119.534	2.0
119.549	0.0
119.564	6.0
119.579	3.0
119.593	3.0
119.608	3.0
119.623	4.0
119.638	1.0
119.653	3.0
119.668	3.0
119.683	3.0
119.698	5.0
119.712	4.0
119.727	2.0
119.742	2.0
119.757	4.0
119.772	4.0
119.787	2.0
119.802	5.0
119.817	1.0
119.831	1.0
119.846	1.0
119.861	1.0
119.876	3.0
119.891	2.0
119.906	3.0
119.921	2.0
119.935	2.0
119.95	0.0
119.965	5.0
119.98	2.0
119.995	1.0
120.01	2.0
120.025	1.0
120.04	4.0
120.054	4.0
120.069	2.0
120.084	0.0
120.099	3.0
120.114	2.0
120.129	1.0
120.144	1.0
120.159	2.0
120.173	3.0
120.188	1.0
120.203	1.0
120.218	3.0
120.233	0.0
120.248	1.0
120.263	2.0
120.277	1.0
120.292	2.0
120.307	0.0
120.322	0.0
120.337	1.0
120.352	2.0
120.367	0.0
120.382	0.0
120.396	0.0
120.411	0.0
120.426	0.0
120.441	0.0
120.456	0.0
120.471	0.0
120.486	1.0
120.501	0.0
120.515	0.0
120.53	1.0
120.545	0.0
120.56	0.0
120.575	0.0
120.59	0.0
120.605	1.0
120.619	0.0
120.634	0.0
120.649	0.0
120.664	0.0
120.679	0.0
120.694	0.0
120.709	0.0
120.724	0.0
120.738	0.0
120.753	0.0
120.768	0.0
120.783	0.0
120.798	0.0
120.813	0.0
120.828	0.0
120.843	0.0
120.857	0.0
120.872	0.0
120.887	0.0
120.902	0.0
120.917	0.0
120.932	0.0
120.947	0.0
120.961	0.0
120.976	0.0
