-1.217	0.0
-1.202	0.0
-1.187	0.0
-1.172	0.0
-1.157	0.0
-1.142	0.0
-1.128	0.0
-1.113	0.0
-1.098	0.0
-1.083	0.0
-1.068	0.0
-1.054	1.0
-1.039	0.0
-1.024	0.0
-1.009	0.0
-0.994	0.0
-0.979	0.0
-0.965	0.0
-0.95	0.0
-0.935	0.0
-0.92	0.0
-0.905	0.0
-0.891	0.0
-0.876	0.0
-0.861	0.0
-0.846	0.0
-0.831	0.0
-0.816	0.0
-0.802	0.0
-0.787	0.0
-0.772	0.0
-0.757	0.0
-0.742	0.0
-0.728	0.0
-0.713	0.0
-0.698	0.0
-0.683	0.0
-0.668	0.0
-0.653	0.0
-0.639	0.0
-0.624	0.0
-0.609	0.0
-0.594	0.0
-0.579	0.0
-0.565	0.0
-0.55	0.0
-0.535	0.0
-0.52	0.0
-0.505	0.0
-0.49	0.0
-0.476	0.0
-0.461	0.0
-0.446	1.0
-0.431	0.0
-0.416	0.0
-0.401	0.0
-0.387	0.0
-0.372	0.0
-0.357	0.0
-0.342	1.0
-0.327	0.0
-0.313	0.0
-0.298	0.0
-0.283	0.0
-0.268	0.0
-0.253	0.0
-0.238	0.0
-0.224	0.0
-0.209	0.0
-0.194	0.0
-0.179	0.0
-0.164	0.0
-0.15	0.0
-0.135	0.0
-0.12	0.0
-0.105	0.0
-0.09	0.0
-0.075	0.0
-0.061	0.0
-0.046	0.0
-0.031	0.0
-0.016	0.0
-0.001	0.0
0.013	0.0
0.028	1.0
0.043	0.0
0.058	0.0
0.073	0.0
0.088	0.0
0.102	0.0
0.117	0.0
0.132	0.0
0.147	0.0
0.162	0.0
0.176	0.0
0.191	0.0
0.206	0.0
0.221	0.0
0.236	0.0
0.251	0.0
0.265	0.0
0.28	0.0
0.295	0.0
0.31	0.0
0.325	0.0
0.339	0.0
0.354	0.0
0.369	0.0
0.384	0.0
0.399	1.0
0.414	0.0
0.428	0.0
0.443	0.0
0.458	0.0
0.473	0.0
0.488	0.0
0.502	0.0
0.517	0.0
0.532	0.0
0.547	0.0
0.562	0.0
0.577	0.0
0.591	0.0
0.606	0.0
0.621	0.0
0.636	0.0
0.651	0.0
0.665	0.0
0.68	0.0
0.695	0.0
0.71	0.0
0.725	0.0
0.74	0.0
0.754	0.0
0.769	0.0
0.784	0.0
0.799	0.0
0.814	0.0
0.828	0.0
0.843	0.0
0.858	0.0
0.873	0.0
0.888	0.0
0.903	0.0
0.917	0.0
0.932	0.0
0.947	0.0
0.962	0.0
0.977	0.0
0.991	0.0
1.006	0.0
1.021	0.0
1.036	0.0
1.051	0.0
1.065	0.0
1.08	0.0
1.095	0.0
1.11	0.0
1.125	0.0
1.14	0.0
1.154	0.0
1.169	0.0
1.184	0.0
1.199	0.0
1.214	0.0
1.228	0.0
1.243	0.0
1.258	0.0
1.273	0.0
1.288	0.0
1.302	0.0
1.317	0.0
1.332	0.0
1.347	0.0
1.362	0.0
1.376	0.0
1.391	0.0
1.406	0.0
1.421	1.0
1.436	0.0
1.45	0.0
1.465	0.0
1.48	0.0
1.495	0.0
1.51	0.0
1.524	0.0
1.539	0.0
1.554	0.0
1.569	0.0
1.584	0.0
1.598	0.0
1.613	0.0
1.628	0.0
1.643	0.0
1.658	1.0
1.672	0.0
1.687	0.0
1.702	1.0
1.717	0.0
1.732	0.0
1.746	0.0
1.761	0.0
1.776	0.0
1.791	0.0
1.806	1.0
1.82	0.0
1.835	1.0
1.85	0.0
1.865	0.0
1.88	0.0
1.894	0.0
1.909	0.0
1.924	0.0
1.939	0.0
1.954	0.0
1.968	1.0
1.983	2.0
1.998	0.0
2.013	0.0
2.028	0.0
2.042	0.0
2.057	0.0
2.072	0.0
2.087	1.0
2.101	1.0
2.116	1.0
2.131	0.0
2.146	0.0
2.161	0.0
2.175	0.0
2.19	0.0
2.205	0.0
2.22	0.0
2.235	0.0
2.249	1.0
2.264	1.0
2.279	0.0
2.294	0.0
2.308	0.0
2.323	1.0
2.338	1.0
2.353	1.0
2.368	0.0
2.382	2.0
2.397	2.0
2.412	3.0
2.427	3.0
2.442	2.0
2.456	2.0
2.471	1.0
2.486	1.0
2.501	2.0
2.515	1.0
2.53	6.0
2.545	2.0
2.56	2.0
2.575	1.0
2.589	0.0
2.604	2.0
2.619	2.0
2.634	1.0
2.649	1.0
2.663	4.0
2.678	2.0
2.693	5.0
2.708	1.0
2.722	4.0
2.737	4.0
2.752	5.0
2.767	3.0
2.782	3.0
2.796	4.0
2.811	1.0
2.826	3.0
2.841	3.0
2.856	3.0
2.87	5.0
2.885	4.0
2.9	3.0
2.915	4.0
2.93	0.0
2.944	4.0
2.959	3.0
2.974	6.0
2.989	4.0
3.004	3.0
3.018	4.0
3.033	5.0
3.048	5.0
3.063	3.0
3.078	5.0
3.092	9.0
3.107	6.0
3.122	1.0
3.137	5.0
3.152	7.0
3.166	7.0
3.181	4.0
3.196	3.0
3.211	8.0
3.226	6.0
3.24	7.0
3.255	5.0
3.27	2.0
3.285	1.0
3.3	3.0
3.315	10.0
3.329	2.0
3.344	6.0
3.359	2.0
3.374	6.0
3.389	4.0
3.403	6.0
3.418	3.0
3.433	5.0
3.448	6.0
3.463	5.0
3.478	6.0
3.492	6.0
3.507	3.0
3.522	12.0
3.537	2.0
3.552	7.0
3.567	9.0
3.581	8.0
3.596	6.0
3.611	5.0
3.626	3.0
3.641	7.0
3.656	5.0
3.671	5.0
3.685	7.0
3.7	5.0
3.715	7.0
3.73	3.0
3.745	5.0
3.76	7.0
3.775	2.0
3.789	5.0
3.804	11.0
3.819	6.0
3.834	5.0
3.849	5.0
3.864	5.0
3.879	7.0
3.894	7.0
3.908	8.0
3.923	5.0
3.938	5.0
3.953	4.0
3.968	7.0
3.983	7.0
3.998	5.0
4.013	5.0
4.027	8.0
4.042	7.0
4.057	8.0
4.072	6.0
4.087	7.0
4.102	4.0
4.117	6.0
4.132	5.0
4.147	7.0
4.162	7.0
4.176	6.0
4.191	5.0
4.206	8.0
4.221	5.0
4.236	4.0
4.251	7.0
4.266	4.0
4.281	5.0
4.296	3.0
4.311	7.0
4.326	10.0
4.341	4.0
4.356	9.0
4.37	6.0
4.385	5.0
4.4	4.0
4.415	3.0
4.43	6.0
4.445	4.0
4.46	6.0
4.475	8.0
4.49	4.0
4.505	14.0
4.52	10.0
4.535	3.0
4.55	14.0
4.565	11.0
4.58	4.0
4.595	8.0
4.61	4.0
4.625	4.0
4.639	9.0
4.654	10.0
4.669	10.0
4.684	3.0
4.699	11.0
4.714	10.0
4.729	3.0
4.744	8.0
4.759	4.0
4.774	13.0
4.789	4.0
4.804	16.0
4.819	11.0
4.834	5.0
4.849	8.0
4.864	5.0
4.879	10.0
4.894	12.0
4.909	10.0
4.924	10.0
4.939	6.0
4.954	8.0
4.969	6.0
4.984	9.0
4.999	12.0
5.014	9.0
5.029	8.0
5.044	10.0
5.059	5.0
5.074	11.0
5.089	10.0
5.104	8.0
5.119	11.0
5.134	4.0
5.149	6.0
5.164	13.0
5.179	8.0
5.194	4.0
5.209	10.0
5.224	5.0
5.239	7.0
5.254	14.0
5.269	4.0
5.284	8.0
5.299	7.0
5.314	6.0
5.329	6.0
5.344	10.0
5.359	5.0
5.374	5.0
5.389	9.0
5.404	10.0
5.419	7.0
5.434	4.0
5.449	10.0
5.464	8.0
5.479	8.0
5.494	9.0
5.509	7.0
5.524	7.0
5.539	4.0
5.554	11.0
5.569	12.0
5.584	8.0
5.599	8.0
5.614	12.0
5.629	3.0
5.644	11.0
5.659	7.0
5.674	6.0
5.689	6.0
5.704	8.0
5.719	10.0
5.734	9.0
5.749	10.0
5.764	9.0
5.779	10.0
5.794	14.0
5.809	11.0
5.824	7.0
5.839	7.0
5.854	9.0
5.869	10.0
5.884	9.0
5.899	16.0
5.914	4.0
5.929	10.0
5.944	10.0
5.959	9.0
5.974	13.0
5.989	6.0
6.004	7.0
6.019	7.0
6.034	10.0
6.049	14.0
6.064	9.0
6.079	6.0
6.094	7.0
6.109	7.0
6.124	14.0
6.139	14.0
6.154	8.0
6.169	8.0
6.184	8.0
6.199	8.0
6.214	10.0
6.229	6.0
6.244	10.0
6.259	9.0
6.274	11.0
6.289	7.0
6.304	7.0
6.319	7.0
6.334	3.0
6.349	12.0
6.364	7.0
6.379	12.0
6.394	7.0
6.409	6.0
6.424	7.0
6.439	9.0
6.454	7.0
6.469	8.0
6.484	3.0
6.499	8.0
6.514	7.0
6.529	10.0
6.544	12.0
6.559	8.0
6.574	10.0
6.589	5.0
6.604	14.0
6.619	6.0
6.634	9.0
6.649	11.0
6.664	6.0
6.679	7.0
6.694	8.0
6.709	14.0
6.724	9.0
6.739	10.0
6.754	12.0
6.769	5.0
6.784	13.0
6.799	5.0
6.814	7.0
6.829	6.0
6.844	9.0
6.859	9.0
6.873	7.0
6.888	11.0
6.903	11.0
6.918	10.0
6.933	12.0
6.948	5.0
6.963	8.0
6.978	13.0
6.993	12.0
7.008	5.0
7.023	10.0
7.038	10.0
7.053	3.0
7.068	8.0
7.083	5.0
7.098	7.0
7.113	9.0
7.128	10.0
7.143	8.0
7.157	10.0
7.172	8.0
7.187	8.0
7.202	6.0
7.217	5.0
7.232	8.0
7.247	10.0
7.262	12.0
7.277	5.0
7.292	5.0
7.307	7.0
7.322	10.0
7.336	6.0
7.351	5.0
7.366	7.0
7.381	7.0
7.396	6.0
7.411	11.0
7.426	9.0
7.441	6.0
7.456	8.0
7.471	8.0
7.485	12.0
7.5	15.0
7.515	6.0
7.53	8.0
7.545	10.0
7.56	7.0
7.575	11.0
7.59	8.0
7.604	9.0
7.619	7.0
7.634	9.0
7.649	10.0
7.664	9.0
7.679	8.0
7.693	14.0
7.708	15.0
7.723	9.0
7.738	10.0
7.753	9.0
7.768	10.0
7.783	6.0
7.797	15.0
7.812	9.0
7.827	12.0
7.842	8.0
7.857	8.0
7.871	6.0
7.886	14.0
7.901	7.0
7.916	8.0
7.931	8.0
7.945	13.0
7.96	8.0
7.975	5.0
7.99	10.0
8.005	10.0
8.019	1.0
8.034	7.0
8.049	7.0
8.064	11.0
8.078	11.0
8.093	4.0
8.108	4.0
8.123	11.0
8.137	8.0
8.152	7.0
8.167	8.0
8.182	10.0
8.196	7.0
8.211	6.0
8.226	11.0
8.241	2.0
8.255	15.0
8.27	8.0
8.285	6.0
8.3	10.0
8.314	5.0
8.329	5.0
8.344	10.0
8.358	10.0
8.373	6.0
8.388	9.0
8.403	12.0
8.417	9.0
8.432	8.0
8.447	10.0
8.461	4.0
8.476	9.0
8.491	11.0
8.505	12.0
8.52	4.0
8.535	8.0
8.55	11.0
8.564	7.0
8.579	8.0
8.594	8.0
8.608	9.0
8.623	9.0
8.638	2.0
8.652	9.0
8.667	9.0
8.682	13.0
8.696	11.0
8.711	6.0
8.726	6.0
8.74	5.0
8.755	10.0
8.77	7.0
8.784	17.0
8.799	6.0
8.814	7.0
8.828	11.0
8.843	8.0
8.858	13.0
8.872	11.0
8.887	11.0
8.902	7.0
8.916	11.0
8.931	9.0
8.946	4.0
8.96	4.0
8.975	8.0
8.99	10.0
9.004	9.0
9.019	6.0
9.034	6.0
9.048	13.0
9.063	7.0
9.077	9.0
9.092	1.0
9.107	4.0
9.121	9.0
9.136	7.0
9.151	9.0
9.165	9.0
9.18	16.0
9.195	9.0
9.209	7.0
9.224	9.0
9.239	8.0
9.253	9.0
9.268	5.0
9.283	9.0
9.297	12.0
9.312	8.0
9.327	12.0
9.341	6.0
9.356	1.0
9.371	14.0
9.385	8.0
9.4	9.0
9.415	10.0
9.429	4.0
9.444	6.0
9.458	5.0
9.473	10.0
9.488	12.0
9.502	10.0
9.517	9.0
9.532	9.0
9.546	6.0
9.561	8.0
9.576	4.0
9.59	14.0
9.605	11.0
9.62	13.0
9.635	6.0
9.649	8.0
9.664	8.0
9.679	16.0
9.693	8.0
9.708	8.0
9.723	10.0
9.737	8.0
9.752	17.0
9.767	6.0
9.781	6.0
9.796	9.0
9.811	16.0
9.825	11.0
9.84	11.0
9.855	6.0
9.87	6.0
9.884	5.0
9.899	10.0
9.914	11.0
9.928	8.0
9.943	14.0
9.958	13.0
9.973	10.0
9.987	8.0
10.002	13.0
10.017	5.0
10.031	5.0
10.046	6.0
10.061	12.0
10.076	9.0
10.09	10.0
10.105	14.0
10.12	12.0
10.135	10.0
10.149	9.0
10.164	8.0
10.179	5.0
10.194	9.0
10.208	4.0
10.223	7.0
10.238	6.0
10.253	8.0
10.267	10.0
10.282	9.0
10.297	8.0
10.312	8.0
10.326	10.0
10.341	6.0
10.356	8.0
10.371	6.0
10.386	12.0
10.4	9.0
10.415	10.0
10.43	3.0
10.445	9.0
10.46	5.0
10.474	6.0
10.489	8.0
10.504	11.0
10.519	10.0
10.533	9.0
10.548	14.0
10.563	5.0
10.578	7.0
10.593	12.0
10.608	11.0
10.622	7.0
10.637	5.0
10.652	14.0
10.667	4.0
10.682	7.0
10.696	9.0
10.711	8.0
10.726	5.0
10.741	10.0
10.756	5.0
10.771	10.0
10.785	10.0
10.8	4.0
10.815	9.0
10.83	5.0
10.845	8.0
10.86	7.0
10.874	9.0
10.889	9.0
10.904	7.0
10.919	4.0
10.934	11.0
10.949	7.0
10.963	6.0
10.978	11.0
10.993	3.0
11.008	7.0
11.023	7.0
11.038	6.0
11.053	9.0
11.067	7.0
11.082	11.0
11.097	10.0
11.112	6.0
11.127	4.0
11.142	6.0
11.157	9.0
11.172	10.0
11.186	11.0
11.201	4.0
11.216	6.0
11.231	9.0
11.246	10.0
11.261	10.0
11.276	13.0
11.291	4.0
11.305	7.0
11.32	5.0
11.335	7.0
11.35	4.0
11.365	13.0
11.38	11.0
11.395	12.0
11.41	8.0
11.424	8.0
11.439	12.0
11.454	9.0
11.469	5.0
11.484	10.0
11.499	16.0
11.514	8.0
11.529	7.0
11.544	8.0
11.558	6.0
11.573	7.0
11.588	6.0
11.603	8.0
11.618	8.0
11.633	4.0
11.648	4.0
11.663	8.0
11.678	11.0
11.693	14.0
11.707	10.0
11.722	8.0
11.737	10.0
11.752	10.0
11.767	7.0
11.782	8.0
11.797	7.0
11.812	9.0
11.827	12.0
11.842	7.0
11.856	8.0
11.871	14.0
11.886	9.0
11.901	7.0
11.916	4.0
11.931	10.0
11.946	6.0
11.961	12.0
11.976	11.0
11.991	9.0
12.006	4.0
12.02	9.0
12.035	13.0
12.05	7.0
12.065	6.0
12.08	5.0
12.095	8.0
12.11	8.0
12.125	9.0
12.14	9.0
12.155	8.0
12.17	13.0
12.184	7.0
12.199	13.0
12.214	7.0
12.229	13.0
12.244	3.0
12.259	6.0
12.274	13.0
12.289	8.0
12.304	8.0
12.319	8.0
12.334	11.0
12.348	15.0
12.363	11.0
12.378	10.0
12.393	10.0
12.408	8.0
12.423	5.0
12.438	13.0
12.453	13.0
12.468	4.0
12.483	10.0
12.498	11.0
12.513	6.0
12.527	13.0
12.542	1.0
12.557	13.0
12.572	15.0
12.587	15.0
12.602	11.0
12.617	10.0
12.632	14.0
12.647	13.0
12.662	8.0
12.677	14.0
12.692	13.0
12.707	15.0
12.721	12.0
12.736	12.0
12.751	20.0
12.766	16.0
12.781	18.0
12.796	14.0
12.811	23.0
12.826	13.0
12.841	11.0
12.856	12.0
12.871	21.0
12.886	16.0
12.9	14.0
12.915	15.0
12.93	14.0
12.945	17.0
12.96	14.0
12.975	17.0
12.99	23.0
13.005	18.0
13.02	22.0
13.035	13.0
13.05	11.0
13.065	9.0
13.08	20.0
13.094	17.0
13.109	14.0
13.124	15.0
13.139	15.0
13.154	15.0
13.169	14.0
13.184	23.0
13.199	22.0
13.214	21.0
13.229	18.0
13.244	20.0
13.259	16.0
13.274	14.0
13.288	29.0
13.303	20.0
13.318	19.0
13.333	18.0
13.348	20.0
13.363	19.0
13.378	22.0
13.393	21.0
13.408	30.0
13.423	24.0
13.438	24.0
13.453	30.0
13.468	36.0
13.482	22.0
13.497	33.0
13.512	33.0
13.527	46.0
13.542	46.0
13.557	58.0
13.572	51.0
13.587	37.0
13.602	66.0
13.617	49.0
13.632	60.0
13.647	72.0
13.662	76.0
13.677	75.0
13.691	81.0
13.706	110.0
13.721	88.0
13.736	91.0
13.751	123.0
13.766	131.0
13.781	119.0
13.796	123.0
13.811	129.0
13.826	131.0
13.841	136.0
13.856	134.0
13.871	120.0
13.885	107.0
13.9	94.0
13.915	97.0
13.93	67.0
13.945	59.0
13.96	37.0
13.975	41.0
13.99	41.0
14.005	41.0
14.02	33.0
14.035	27.0
14.05	35.0
14.065	20.0
14.08	33.0
14.094	27.0
14.109	26.0
14.124	24.0
14.139	29.0
14.154	16.0
14.169	21.0
14.184	19.0
14.199	13.0
14.214	25.0
14.229	24.0
14.244	23.0
14.259	22.0
14.274	16.0
14.288	22.0
14.303	29.0
14.318	23.0
14.333	17.0
14.348	23.0
14.363	19.0
14.378	27.0
14.393	18.0
14.408	14.0
14.423	19.0
14.438	19.0
14.453	15.0
14.468	25.0
14.482	16.0
14.497	19.0
14.512	22.0
14.527	9.0
14.542	14.0
14.557	18.0
14.572	18.0
14.587	22.0
14.602	19.0
14.617	17.0
14.632	16.0
14.647	17.0
14.661	15.0
14.676	15.0
14.691	23.0
14.706	12.0
14.721	11.0
14.736	27.0
14.751	24.0
14.766	11.0
14.781	14.0
14.796	21.0
14.811	11.0
14.826	22.0
14.84	23.0
14.855	14.0
14.87	19.0
14.885	10.0
14.9	18.0
14.915	14.0
14.93	14.0
14.945	15.0
14.96	17.0
14.975	14.0
14.989	15.0
15.004	15.0
15.019	14.0
15.034	13.0
15.049	21.0
15.064	17.0
15.079	11.0
15.094	12.0
15.109	13.0
15.124	22.0
15.138	15.0
15.153	13.0
15.168	16.0
15.183	21.0
15.198	17.0
15.213	12.0
15.228	15.0
15.243	18.0
15.258	8.0
15.272	15.0
15.287	14.0
15.302	19.0
15.317	18.0
15.332	15.0
15.347	19.0
15.362	10.0
15.377	18.0
15.391	11.0
15.406	14.0
15.421	21.0
15.436	17.0
15.451	12.0
15.466	16.0
15.481	12.0
15.496	16.0
15.51	12.0
15.525	10.0
15.54	16.0
15.555	8.0
15.57	21.0
15.585	17.0
15.6	15.0
15.614	13.0
15.629	16.0
15.644	13.0
15.659	15.0
15.674	13.0
15.689	18.0
15.704	7.0
15.718	12.0
15.733	14.0
15.748	16.0
15.763	17.0
15.778	22.0
15.793	18.0
15.808	22.0
15.822	19.0
15.837	12.0
15.852	12.0
15.867	17.0
15.882	8.0
15.897	14.0
15.911	12.0
15.926	12.0
15.941	20.0
15.956	19.0
15.971	19.0
15.986	12.0
16.0	11.0
16.015	10.0
16.03	15.0
16.045	8.0
16.06	8.0
16.074	16.0
16.089	14.0
16.104	15.0
16.119	13.0
16.134	15.0
16.149	12.0
16.163	22.0
16.178	14.0
16.193	12.0
16.208	11.0
16.223	18.0
16.237	13.0
16.252	9.0
16.267	15.0
16.282	11.0
16.297	18.0
16.311	13.0
16.326	14.0
16.341	13.0
16.356	19.0
16.37	9.0
16.385	21.0
16.4	12.0
16.415	9.0
16.43	18.0
16.444	9.0
16.459	10.0
16.474	13.0
16.489	16.0
16.504	14.0
16.518	16.0
16.533	18.0
16.548	16.0
16.563	20.0
16.577	13.0
16.592	16.0
16.607	16.0
16.622	29.0
16.637	20.0
16.651	22.0
16.666	20.0
16.681	20.0
16.696	24.0
16.71	25.0
16.725	34.0
16.74	24.0
16.755	24.0
16.77	36.0
16.784	45.0
16.799	38.0
16.814	35.0
16.829	30.0
16.843	46.0
16.858	61.0
16.873	63.0
16.888	63.0
16.902	55.0
16.917	50.0
16.932	68.0
16.947	65.0
16.961	89.0
16.976	78.0
16.991	69.0
17.006	72.0
17.021	69.0
17.035	50.0
17.05	53.0
17.065	42.0
17.08	40.0
17.094	42.0
17.109	26.0
17.124	27.0
17.139	31.0
17.153	13.0
17.168	20.0
17.183	20.0
17.198	10.0
17.212	20.0
17.227	12.0
17.242	20.0
17.257	16.0
17.271	15.0
17.286	19.0
17.301	17.0
17.316	15.0
17.33	18.0
17.345	15.0
17.36	6.0
17.375	15.0
17.39	21.0
17.404	15.0
17.419	12.0
17.434	15.0
17.449	13.0
17.463	14.0
17.478	8.0
17.493	14.0
17.508	15.0
17.522	10.0
17.537	13.0
17.552	15.0
17.567	15.0
17.581	18.0
17.596	7.0
17.611	18.0
17.626	10.0
17.641	11.0
17.655	7.0
17.67	13.0
17.685	16.0
17.7	9.0
17.714	14.0
17.729	17.0
17.744	21.0
17.759	11.0
17.773	10.0
17.788	8.0
17.803	8.0
17.818	15.0
17.833	8.0
17.847	15.0
17.862	16.0
17.877	16.0
17.892	6.0
17.906	6.0
17.921	10.0
17.936	10.0
17.951	6.0
17.966	12.0
17.98	9.0
17.995	17.0
18.01	9.0
18.025	13.0
18.04	13.0
18.054	10.0
18.069	13.0
18.084	13.0
18.099	17.0
18.114	14.0
18.128	12.0
18.143	14.0
18.158	9.0
18.173	13.0
18.188	10.0
18.202	12.0
18.217	7.0
18.232	14.0
18.247	12.0
18.262	11.0
18.276	9.0
18.291	20.0
18.306	13.0
18.321	9.0
18.336	11.0
18.35	14.0
18.365	10.0
18.38	11.0
18.395	10.0
18.41	7.0
18.424	14.0
18.439	15.0
18.454	10.0
18.469	11.0
18.484	13.0
18.498	7.0
18.513	12.0
18.528	13.0
18.543	16.0
18.558	10.0
18.573	13.0
18.587	13.0
18.602	13.0
18.617	14.0
18.632	6.0
18.647	9.0
18.661	12.0
18.676	16.0
18.691	10.0
18.706	10.0
18.721	13.0
18.736	18.0
18.75	12.0
18.765	6.0
18.78	12.0
18.795	5.0
18.81	9.0
18.825	12.0
18.839	9.0
18.854	4.0
18.869	10.0
18.884	13.0
18.899	10.0
18.913	14.0
18.928	10.0
18.943	14.0
18.958	13.0
18.973	11.0
18.988	13.0
19.002	15.0
19.017	12.0
19.032	11.0
19.047	17.0
19.062	7.0
19.077	12.0
19.091	12.0
19.106	12.0
19.121	7.0
19.136	13.0
19.151	16.0
19.165	11.0
19.18	9.0
19.195	13.0
19.21	14.0
19.225	11.0
19.24	15.0
19.254	20.0
19.269	14.0
19.284	14.0
19.299	11.0
19.314	9.0
19.329	18.0
19.343	21.0
19.358	18.0
19.373	16.0
19.388	11.0
19.403	23.0
19.417	15.0
19.432	15.0
19.447	22.0
19.462	30.0
19.477	30.0
19.492	43.0
19.506	43.0
19.521	31.0
19.536	33.0
19.551	35.0
19.566	46.0
19.58	37.0
19.595	49.0
19.61	40.0
19.625	48.0
19.64	41.0
19.655	42.0
19.669	34.0
19.684	30.0
19.699	40.0
19.714	25.0
19.729	31.0
19.743	19.0
19.758	26.0
19.773	26.0
19.788	22.0
19.803	18.0
19.817	15.0
19.832	17.0
19.847	10.0
19.862	15.0
19.877	13.0
19.891	16.0
19.906	15.0
19.921	15.0
19.936	16.0
19.951	16.0
19.965	17.0
19.98	14.0
19.995	14.0
20.01	11.0
20.025	15.0
20.039	16.0
20.054	14.0
20.069	12.0
20.084	6.0
20.099	12.0
20.113	12.0
20.128	11.0
20.143	14.0
20.158	11.0
20.173	14.0
20.187	8.0
20.202	9.0
20.217	17.0
20.232	9.0
20.246	13.0
20.261	20.0
20.276	16.0
20.291	17.0
20.306	15.0
20.32	8.0
20.335	9.0
20.35	9.0
20.365	14.0
20.38	6.0
20.394	6.0
20.409	9.0
20.424	18.0
20.439	8.0
20.453	14.0
20.468	7.0
20.483	16.0
20.498	12.0
20.513	15.0
20.527	12.0
20.542	8.0
20.557	16.0
20.572	11.0
20.586	6.0
20.601	11.0
20.616	13.0
20.631	10.0
20.646	10.0
20.66	9.0
20.675	9.0
20.69	10.0
20.705	4.0
20.719	9.0
20.734	11.0
20.749	17.0
20.764	5.0
20.779	10.0
20.793	9.0
20.808	11.0
20.823	11.0
20.838	14.0
20.853	14.0
20.867	10.0
20.882	12.0
20.897	10.0
20.912	6.0
20.926	15.0
20.941	10.0
20.956	10.0
20.971	14.0
20.986	13.0
21.0	13.0
21.015	11.0
21.03	12.0
21.045	8.0
21.06	9.0
21.074	10.0
21.089	15.0
21.104	13.0
21.119	12.0
21.134	12.0
21.148	11.0
21.163	10.0
21.178	12.0
21.193	14.0
21.208	7.0
21.222	11.0
21.237	19.0
21.252	9.0
21.267	11.0
21.282	13.0
21.296	14.0
21.311	6.0
21.326	10.0
21.341	17.0
21.356	14.0
21.37	10.0
21.385	18.0
21.4	10.0
21.415	10.0
21.43	13.0
21.444	7.0
21.459	9.0
21.474	12.0
21.489	12.0
21.504	12.0
21.519	13.0
21.533	10.0
21.548	9.0
21.563	11.0
21.578	19.0
21.593	15.0
21.608	14.0
21.622	13.0
21.637	23.0
21.652	15.0
21.667	23.0
21.682	12.0
21.697	18.0
21.712	17.0
21.726	22.0
21.741	20.0
21.756	34.0
21.771	31.0
21.786	43.0
21.801	40.0
21.816	41.0
21.83	57.0
21.845	46.0
21.86	70.0
21.875	75.0
21.89	60.0
21.905	61.0
21.92	64.0
21.935	90.0
21.949	92.0
21.964	74.0
21.979	84.0
21.994	77.0
22.009	65.0
22.024	68.0
22.039	45.0
22.054	52.0
22.069	48.0
22.083	49.0
22.098	40.0
22.113	33.0
22.128	32.0
22.143	31.0
22.158	23.0
22.173	20.0
22.188	27.0
22.203	14.0
22.218	13.0
22.233	11.0
22.248	16.0
22.262	12.0
22.277	11.0
22.292	17.0
22.307	13.0
22.322	11.0
22.337	12.0
22.352	15.0
22.367	10.0
22.382	10.0
22.397	15.0
22.412	9.0
22.427	12.0
22.442	14.0
22.457	8.0
22.472	14.0
22.487	7.0
22.502	7.0
22.516	3.0
22.531	17.0
22.546	11.0
22.561	12.0
22.576	7.0
22.591	10.0
22.606	18.0
22.621	4.0
22.636	9.0
22.651	12.0
22.666	8.0
22.681	12.0
22.696	11.0
22.711	7.0
22.726	9.0
22.741	9.0
22.756	8.0
22.771	9.0
22.786	9.0
22.801	13.0
22.816	13.0
22.831	13.0
22.846	11.0
22.861	13.0
22.876	8.0
22.891	8.0
22.906	13.0
22.92	14.0
22.935	12.0
22.95	8.0
22.965	12.0
22.98	11.0
22.995	11.0
23.01	11.0
23.025	13.0
23.04	10.0
23.055	5.0
23.07	9.0
23.085	12.0
23.1	7.0
23.115	10.0
23.13	10.0
23.145	10.0
23.16	6.0
23.175	13.0
23.19	9.0
23.205	12.0
23.22	7.0
23.235	11.0
23.25	19.0
23.265	11.0
23.28	14.0
23.295	7.0
23.31	7.0
23.325	15.0
23.34	8.0
23.355	8.0
23.37	18.0
23.384	11.0
23.399	10.0
23.414	7.0
23.429	6.0
23.444	13.0
23.459	11.0
23.474	8.0
23.489	6.0
23.504	9.0
23.519	8.0
23.534	15.0
23.549	9.0
23.564	13.0
23.579	18.0
23.594	11.0
23.609	11.0
23.624	9.0
23.639	17.0
23.654	10.0
23.668	7.0
23.683	9.0
23.698	5.0
23.713	14.0
23.728	7.0
23.743	8.0
23.758	7.0
23.773	11.0
23.788	8.0
23.803	6.0
23.818	13.0
23.833	8.0
23.848	18.0
23.862	18.0
23.877	15.0
23.892	21.0
23.907	17.0
23.922	25.0
23.937	26.0
23.952	42.0
23.967	31.0
23.982	21.0
23.997	35.0
24.011	46.0
24.026	45.0
24.041	35.0
24.056	51.0
24.071	47.0
24.086	55.0
24.101	50.0
24.116	52.0
24.131	54.0
24.145	44.0
24.16	50.0
24.175	35.0
24.19	39.0
24.205	29.0
24.22	35.0
24.235	27.0
24.249	21.0
24.264	23.0
24.279	28.0
24.294	17.0
24.309	16.0
24.324	21.0
24.338	20.0
24.353	16.0
24.368	20.0
24.383	16.0
24.398	9.0
24.413	11.0
24.428	12.0
24.442	11.0
24.457	7.0
24.472	15.0
24.487	10.0
24.502	11.0
24.516	12.0
24.531	11.0
24.546	5.0
24.561	9.0
24.576	11.0
24.591	14.0
24.605	9.0
24.62	13.0
24.635	14.0
24.65	16.0
24.665	11.0
24.679	6.0
24.694	11.0
24.709	12.0
24.724	12.0
24.739	10.0
24.753	7.0
24.768	7.0
24.783	7.0
24.798	16.0
24.813	11.0
24.827	16.0
24.842	11.0
24.857	6.0
24.872	8.0
24.886	15.0
24.901	8.0
24.916	13.0
24.931	6.0
24.946	12.0
24.96	12.0
24.975	11.0
24.99	10.0
25.005	8.0
25.019	15.0
25.034	17.0
25.049	8.0
25.064	9.0
25.078	10.0
25.093	7.0
25.108	8.0
25.123	12.0
25.138	11.0
25.152	9.0
25.167	9.0
25.182	9.0
25.197	12.0
25.211	11.0
25.226	14.0
25.241	15.0
25.256	8.0
25.27	14.0
25.285	13.0
25.3	9.0
25.315	7.0
25.329	11.0
25.344	5.0
25.359	10.0
25.374	7.0
25.388	13.0
25.403	10.0
25.418	10.0
25.433	15.0
25.447	15.0
25.462	14.0
25.477	9.0
25.492	14.0
25.506	11.0
25.521	11.0
25.536	4.0
25.55	9.0
25.565	12.0
25.58	7.0
25.595	7.0
25.609	9.0
25.624	12.0
25.639	15.0
25.654	11.0
25.668	11.0
25.683	13.0
25.698	16.0
25.713	11.0
25.727	4.0
25.742	12.0
25.757	12.0
25.772	9.0
25.786	11.0
25.801	14.0
25.816	7.0
25.83	9.0
25.845	9.0
25.86	5.0
25.875	9.0
25.889	6.0
25.904	12.0
25.919	11.0
25.934	5.0
25.948	8.0
25.963	8.0
25.978	8.0
25.992	10.0
26.007	10.0
26.022	9.0
26.037	8.0
26.051	9.0
26.066	16.0
26.081	5.0
26.096	10.0
26.11	7.0
26.125	6.0
26.14	8.0
26.155	2.0
26.169	11.0
26.184	10.0
26.199	11.0
26.213	8.0
26.228	14.0
26.243	11.0
26.258	16.0
26.272	10.0
26.287	10.0
26.302	6.0
26.317	5.0
26.331	11.0
26.346	11.0
26.361	14.0
26.376	10.0
26.39	10.0
26.405	11.0
26.42	10.0
26.434	11.0
26.449	11.0
26.464	9.0
26.479	12.0
26.493	13.0
26.508	17.0
26.523	10.0
26.538	8.0
26.552	12.0
26.567	7.0
26.582	13.0
26.597	8.0
26.611	14.0
26.626	15.0
26.641	16.0
26.656	9.0
26.67	10.0
26.685	11.0
26.7	5.0
26.715	9.0
26.729	11.0
26.744	7.0
26.759	9.0
26.773	12.0
26.788	9.0
26.803	16.0
26.818	7.0
26.832	10.0
26.847	10.0
26.862	8.0
26.877	10.0
26.891	9.0
26.906	6.0
26.921	14.0
26.936	7.0
26.95	7.0
26.965	12.0
26.98	13.0
26.995	11.0
27.01	13.0
27.024	8.0
27.039	13.0
27.054	11.0
27.069	12.0
27.083	8.0
27.098	7.0
27.113	12.0
27.128	7.0
27.142	15.0
27.157	8.0
27.172	13.0
27.187	12.0
27.201	7.0
27.216	10.0
27.231	13.0
27.246	10.0
27.261	10.0
27.275	16.0
27.29	3.0
27.305	10.0
27.32	8.0
27.334	10.0
27.349	15.0
27.364	15.0
27.379	20.0
27.394	13.0
27.408	10.0
27.423	10.0
27.438	8.0
27.453	13.0
27.467	13.0
27.482	5.0
27.497	11.0
27.512	11.0
27.527	13.0
27.541	13.0
27.556	9.0
27.571	12.0
27.586	7.0
27.601	14.0
27.615	12.0
27.63	14.0
27.645	10.0
27.66	9.0
27.675	12.0
27.689	6.0
27.704	9.0
27.719	12.0
27.734	14.0
27.749	21.0
27.763	20.0
27.778	14.0
27.793	13.0
27.808	18.0
27.823	33.0
27.838	23.0
27.852	33.0
27.867	28.0
27.882	27.0
27.897	23.0
27.912	17.0
27.926	15.0
27.941	29.0
27.956	20.0
27.971	9.0
27.986	20.0
28.001	17.0
28.015	16.0
28.03	14.0
28.045	22.0
28.06	19.0
28.075	12.0
28.09	17.0
28.105	13.0
28.119	15.0
28.134	8.0
28.149	10.0
28.164	12.0
28.179	7.0
28.194	14.0
28.208	8.0
28.223	11.0
28.238	10.0
28.253	5.0
28.268	11.0
28.283	10.0
28.298	8.0
28.312	18.0
28.327	17.0
28.342	10.0
28.357	6.0
28.372	7.0
28.387	11.0
28.402	12.0
28.417	13.0
28.431	8.0
28.446	7.0
28.461	12.0
28.476	19.0
28.491	13.0
28.506	15.0
28.521	13.0
28.536	5.0
28.55	10.0
28.565	13.0
28.58	11.0
28.595	8.0
28.61	11.0
28.625	10.0
28.64	6.0
28.655	7.0
28.669	15.0
28.684	9.0
28.699	12.0
28.714	7.0
28.729	15.0
28.744	11.0
28.759	4.0
28.774	9.0
28.788	11.0
28.803	11.0
28.818	18.0
28.833	13.0
28.848	14.0
28.863	13.0
28.878	8.0
28.893	11.0
28.908	22.0
28.922	12.0
28.937	14.0
28.952	14.0
28.967	10.0
28.982	11.0
28.997	7.0
29.012	14.0
29.027	7.0
29.041	10.0
29.056	8.0
29.071	10.0
29.086	7.0
29.101	7.0
29.116	5.0
29.131	5.0
29.146	13.0
29.16	6.0
29.175	14.0
29.19	6.0
29.205	14.0
29.22	8.0
29.235	14.0
29.25	14.0
29.265	12.0
29.279	14.0
29.294	16.0
29.309	10.0
29.324	15.0
29.339	12.0
29.354	13.0
29.369	23.0
29.384	14.0
29.398	11.0
29.413	12.0
29.428	22.0
29.443	15.0
29.458	19.0
29.473	22.0
29.488	26.0
29.502	32.0
29.517	31.0
29.532	35.0
29.547	37.0
29.562	39.0
29.577	41.0
29.592	53.0
29.606	55.0
29.621	52.0
29.636	54.0
29.651	46.0
29.666	40.0
29.681	28.0
29.695	38.0
29.71	42.0
29.725	30.0
29.74	34.0
29.755	30.0
29.77	25.0
29.784	38.0
29.799	42.0
29.814	27.0
29.829	25.0
29.844	22.0
29.859	15.0
29.873	20.0
29.888	17.0
29.903	19.0
29.918	11.0
29.933	13.0
29.947	20.0
29.962	11.0
29.977	13.0
29.992	5.0
30.007	16.0
30.021	11.0
30.036	12.0
30.051	10.0
30.066	15.0
30.081	13.0
30.095	12.0
30.11	13.0
30.125	13.0
30.14	10.0
30.155	14.0
30.169	16.0
30.184	13.0
30.199	9.0
30.214	12.0
30.228	16.0
30.243	6.0
30.258	10.0
30.273	13.0
30.288	11.0
30.302	11.0
30.317	9.0
30.332	14.0
30.347	13.0
30.361	15.0
30.376	15.0
30.391	11.0
30.406	8.0
30.42	12.0
30.435	15.0
30.45	6.0
30.465	4.0
30.479	10.0
30.494	7.0
30.509	15.0
30.524	10.0
30.538	8.0
30.553	14.0
30.568	10.0
30.583	10.0
30.597	12.0
30.612	12.0
30.627	12.0
30.641	15.0
30.656	12.0
30.671	14.0
30.686	14.0
30.7	14.0
30.715	14.0
30.73	15.0
30.745	15.0
30.759	11.0
30.774	10.0
30.789	13.0
30.803	12.0
30.818	9.0
30.833	16.0
30.848	11.0
30.862	8.0
30.877	16.0
30.892	7.0
30.906	16.0
30.921	9.0
30.936	6.0
30.951	10.0
30.965	14.0
30.98	8.0
30.995	16.0
31.009	11.0
31.024	9.0
31.039	14.0
31.053	19.0
31.068	12.0
31.083	18.0
31.098	16.0
31.112	19.0
31.127	22.0
31.142	21.0
31.156	18.0
31.171	13.0
31.186	35.0
31.2	37.0
31.215	39.0
31.23	33.0
31.245	31.0
31.259	41.0
31.274	38.0
31.289	36.0
31.303	31.0
31.318	31.0
31.333	32.0
31.347	30.0
31.362	27.0
31.377	37.0
31.392	22.0
31.406	31.0
31.421	31.0
31.436	18.0
31.45	26.0
31.465	17.0
31.48	14.0
31.494	23.0
31.509	17.0
31.524	18.0
31.538	16.0
31.553	12.0
31.568	11.0
31.583	13.0
31.597	7.0
31.612	8.0
31.627	11.0
31.641	16.0
31.656	16.0
31.671	12.0
31.685	10.0
31.7	12.0
31.715	6.0
31.729	4.0
31.744	9.0
31.759	14.0
31.774	9.0
31.788	5.0
31.803	14.0
31.818	11.0
31.832	11.0
31.847	10.0
31.862	12.0
31.876	11.0
31.891	20.0
31.906	13.0
31.92	11.0
31.935	15.0
31.95	10.0
31.965	13.0
31.979	12.0
31.994	13.0
32.009	9.0
32.023	6.0
32.038	9.0
32.053	10.0
32.067	9.0
32.082	13.0
32.097	14.0
32.112	11.0
32.126	13.0
32.141	7.0
32.156	16.0
32.17	8.0
32.185	10.0
32.2	6.0
32.214	11.0
32.229	13.0
32.244	13.0
32.259	7.0
32.273	9.0
32.288	12.0
32.303	6.0
32.317	8.0
32.332	15.0
32.347	6.0
32.362	15.0
32.376	7.0
32.391	12.0
32.406	5.0
32.42	12.0
32.435	15.0
32.45	9.0
32.465	9.0
32.479	7.0
32.494	7.0
32.509	13.0
32.523	9.0
32.538	10.0
32.553	11.0
32.568	12.0
32.582	10.0
32.597	11.0
32.612	11.0
32.627	14.0
32.641	11.0
32.656	11.0
32.671	9.0
32.685	11.0
32.7	11.0
32.715	21.0
32.73	15.0
32.744	25.0
32.759	19.0
32.774	20.0
32.788	31.0
32.803	27.0
32.818	29.0
32.833	26.0
32.847	35.0
32.862	31.0
32.877	18.0
32.892	18.0
32.906	19.0
32.921	19.0
32.936	29.0
32.951	21.0
32.965	17.0
32.98	24.0
32.995	15.0
33.009	19.0
33.024	13.0
33.039	29.0
33.054	17.0
33.068	15.0
33.083	14.0
33.098	15.0
33.113	5.0
33.127	13.0
33.142	13.0
33.157	9.0
33.172	12.0
33.186	15.0
33.201	11.0
33.216	9.0
33.231	9.0
33.245	12.0
33.26	9.0
33.275	7.0
33.29	11.0
33.304	5.0
33.319	9.0
33.334	12.0
33.349	7.0
33.363	10.0
33.378	11.0
33.393	8.0
33.408	10.0
33.422	8.0
33.437	4.0
33.452	17.0
33.467	5.0
33.481	9.0
33.496	8.0
33.511	7.0
33.526	11.0
33.54	13.0
33.555	9.0
33.57	16.0
33.585	7.0
33.599	9.0
33.614	10.0
33.629	6.0
33.644	15.0
33.658	12.0
33.673	9.0
33.688	11.0
33.703	16.0
33.718	12.0
33.732	8.0
33.747	9.0
33.762	8.0
33.777	10.0
33.791	12.0
33.806	12.0
33.821	13.0
33.836	8.0
33.85	13.0
33.865	11.0
33.88	11.0
33.895	8.0
33.91	11.0
33.924	11.0
33.939	7.0
33.954	9.0
33.969	8.0
33.983	13.0
33.998	7.0
34.013	9.0
34.028	5.0
34.042	8.0
34.057	13.0
34.072	11.0
34.087	10.0
34.102	13.0
34.116	8.0
34.131	24.0
34.146	10.0
34.161	15.0
34.175	12.0
34.19	12.0
34.205	11.0
34.22	13.0
34.235	11.0
34.249	10.0
34.264	9.0
34.279	13.0
34.294	17.0
34.309	6.0
34.323	10.0
34.338	12.0
34.353	16.0
34.368	10.0
34.382	6.0
34.397	12.0
34.412	13.0
34.427	17.0
34.442	10.0
34.456	13.0
34.471	11.0
34.486	5.0
34.501	8.0
34.516	16.0
34.53	7.0
34.545	9.0
34.56	8.0
34.575	12.0
34.59	9.0
34.604	14.0
34.619	11.0
34.634	11.0
34.649	13.0
34.664	17.0
34.678	7.0
34.693	11.0
34.708	10.0
34.723	6.0
34.738	8.0
34.752	16.0
34.767	8.0
34.782	9.0
34.797	14.0
34.812	8.0
34.826	8.0
34.841	10.0
34.856	9.0
34.871	8.0
34.886	8.0
34.9	16.0
34.915	9.0
34.93	8.0
34.945	6.0
34.96	7.0
34.974	16.0
34.989	7.0
35.004	12.0
35.019	8.0
35.034	12.0
35.048	9.0
35.063	9.0
35.078	10.0
35.093	9.0
35.108	1.0
35.122	7.0
35.137	9.0
35.152	10.0
35.167	12.0
35.182	12.0
35.196	6.0
35.211	10.0
35.226	7.0
35.241	12.0
35.256	7.0
35.27	7.0
35.285	9.0
35.3	14.0
35.315	10.0
35.33	11.0
35.344	5.0
35.359	7.0
35.374	15.0
35.389	9.0
35.404	8.0
35.418	12.0
35.433	13.0
35.448	9.0
35.463	6.0
35.478	8.0
35.493	3.0
35.507	9.0
35.522	10.0
35.537	9.0
35.552	7.0
35.567	6.0
35.581	8.0
35.596	10.0
35.611	6.0
35.626	7.0
35.641	11.0
35.655	7.0
35.67	17.0
35.685	18.0
35.7	10.0
35.715	13.0
35.729	15.0
35.744	14.0
35.759	19.0
35.774	19.0
35.789	14.0
35.804	16.0
35.818	19.0
35.833	8.0
35.848	15.0
35.863	16.0
35.878	17.0
35.892	18.0
35.907	8.0
35.922	14.0
35.937	9.0
35.952	12.0
35.966	16.0
35.981	13.0
35.996	5.0
36.011	16.0
36.026	11.0
36.04	13.0
36.055	13.0
36.07	13.0
36.085	16.0
36.1	9.0
36.114	7.0
36.129	6.0
36.144	9.0
36.159	8.0
36.174	10.0
36.189	6.0
36.203	12.0
36.218	12.0
36.233	4.0
36.248	9.0
36.263	9.0
36.277	16.0
36.292	9.0
36.307	5.0
36.322	11.0
36.337	5.0
36.351	6.0
36.366	5.0
36.381	10.0
36.396	11.0
36.411	8.0
36.426	7.0
36.44	12.0
36.455	6.0
36.47	7.0
36.485	3.0
36.5	7.0
36.514	8.0
36.529	13.0
36.544	7.0
36.559	7.0
36.574	6.0
36.589	8.0
36.603	10.0
36.618	8.0
36.633	6.0
36.648	11.0
36.663	7.0
36.677	9.0
36.692	10.0
36.707	7.0
36.722	10.0
36.737	8.0
36.752	6.0
36.766	9.0
36.781	13.0
36.796	12.0
36.811	9.0
36.826	11.0
36.841	6.0
36.855	8.0
36.87	6.0
36.885	7.0
36.9	6.0
36.915	5.0
36.93	11.0
36.944	11.0
36.959	7.0
36.974	7.0
36.989	9.0
37.004	6.0
37.019	16.0
37.033	16.0
37.048	17.0
37.063	10.0
37.078	17.0
37.093	23.0
37.108	27.0
37.123	28.0
37.137	28.0
37.152	27.0
37.167	34.0
37.182	35.0
37.197	29.0
37.212	25.0
37.226	32.0
37.241	22.0
37.256	29.0
37.271	22.0
37.286	14.0
37.301	23.0
37.316	20.0
37.331	20.0
37.345	22.0
37.36	30.0
37.375	27.0
37.39	14.0
37.405	15.0
37.42	16.0
37.435	16.0
37.45	14.0
37.464	22.0
37.479	15.0
37.494	15.0
37.509	9.0
37.524	10.0
37.539	7.0
37.554	14.0
37.569	9.0
37.583	6.0
37.598	9.0
37.613	3.0
37.628	7.0
37.643	11.0
37.658	9.0
37.673	5.0
37.688	5.0
37.703	6.0
37.718	6.0
37.733	5.0
37.747	9.0
37.762	11.0
37.777	12.0
37.792	12.0
37.807	5.0
37.822	8.0
37.837	3.0
37.852	4.0
37.867	13.0
37.882	10.0
37.897	10.0
37.912	5.0
37.927	10.0
37.941	11.0
37.956	6.0
37.971	7.0
37.986	6.0
38.001	8.0
38.016	12.0
38.031	8.0
38.046	8.0
38.061	8.0
38.076	7.0
38.091	8.0
38.106	11.0
38.121	10.0
38.136	5.0
38.151	2.0
38.166	8.0
38.181	7.0
38.196	3.0
38.211	5.0
38.226	9.0
38.241	5.0
38.256	6.0
38.271	11.0
38.285	2.0
38.3	9.0
38.315	7.0
38.33	10.0
38.345	2.0
38.36	16.0
38.375	6.0
38.39	8.0
38.405	7.0
38.42	8.0
38.435	6.0
38.45	6.0
38.465	7.0
38.48	8.0
38.495	8.0
38.51	7.0
38.525	5.0
38.54	11.0
38.555	8.0
38.57	10.0
38.585	2.0
38.6	6.0
38.615	8.0
38.63	8.0
38.645	7.0
38.66	10.0
38.675	10.0
38.69	6.0
38.705	6.0
38.72	7.0
38.735	10.0
38.75	6.0
38.765	8.0
38.78	8.0
38.795	4.0
38.81	7.0
38.825	6.0
38.84	3.0
38.855	6.0
38.87	1.0
38.885	5.0
38.9	4.0
38.915	5.0
38.93	4.0
38.945	2.0
38.96	7.0
38.975	5.0
38.99	3.0
39.005	5.0
39.02	7.0
39.035	4.0
39.05	6.0
39.065	11.0
39.08	6.0
39.095	8.0
39.11	4.0
39.125	6.0
39.14	8.0
39.155	3.0
39.17	16.0
39.185	5.0
39.2	4.0
39.215	2.0
39.23	3.0
39.245	7.0
39.26	9.0
39.275	13.0
39.29	7.0
39.305	3.0
39.32	8.0
39.335	5.0
39.35	4.0
39.365	6.0
39.38	7.0
39.395	8.0
39.409	5.0
39.424	6.0
39.439	7.0
39.454	2.0
39.469	4.0
39.484	5.0
39.499	5.0
39.514	1.0
39.529	9.0
39.544	5.0
39.559	6.0
39.574	5.0
39.589	9.0
39.604	5.0
39.619	4.0
39.634	6.0
39.649	6.0
39.664	4.0
39.678	7.0
39.693	5.0
39.708	7.0
39.723	8.0
39.738	9.0
39.753	6.0
39.768	4.0
39.783	8.0
39.798	11.0
39.813	6.0
39.827	8.0
39.842	9.0
39.857	5.0
39.872	5.0
39.887	12.0
39.902	8.0
39.917	7.0
39.932	7.0
39.947	5.0
39.961	8.0
39.976	6.0
39.991	4.0
40.006	7.0
40.021	7.0
40.036	3.0
40.051	5.0
40.065	10.0
40.08	2.0
40.095	10.0
40.11	7.0
40.125	6.0
40.14	13.0
40.154	5.0
40.169	5.0
40.184	11.0
40.199	10.0
40.214	9.0
40.228	6.0
40.243	10.0
40.258	5.0
40.273	6.0
40.288	10.0
40.302	7.0
40.317	3.0
40.332	5.0
40.347	7.0
40.362	3.0
40.376	6.0
40.391	4.0
40.406	2.0
40.421	6.0
40.436	4.0
40.45	6.0
40.465	8.0
40.48	7.0
40.495	3.0
40.509	7.0
40.524	3.0
40.539	7.0
40.554	4.0
40.568	8.0
40.583	5.0
40.598	1.0
40.613	5.0
40.627	9.0
40.642	6.0
40.657	5.0
40.672	5.0
40.686	6.0
40.701	3.0
40.716	7.0
40.731	9.0
40.745	4.0
40.76	7.0
40.775	8.0
40.79	6.0
40.804	3.0
40.819	3.0
40.834	5.0
40.849	4.0
40.863	6.0
40.878	6.0
40.893	11.0
40.907	6.0
40.922	11.0
40.937	6.0
40.952	11.0
40.966	9.0
40.981	10.0
40.996	12.0
41.011	8.0
41.025	5.0
41.04	13.0
41.055	12.0
41.069	17.0
41.084	15.0
41.099	24.0
41.114	23.0
41.128	26.0
41.143	18.0
41.158	18.0
41.173	22.0
41.187	20.0
41.202	14.0
41.217	11.0
41.231	23.0
41.246	13.0
41.261	12.0
41.276	8.0
41.29	12.0
41.305	8.0
41.32	15.0
41.335	12.0
41.349	10.0
41.364	7.0
41.379	13.0
41.393	11.0
41.408	17.0
41.423	11.0
41.438	12.0
41.452	11.0
41.467	15.0
41.482	10.0
41.497	12.0
41.511	9.0
41.526	6.0
41.541	7.0
41.556	6.0
41.57	8.0
41.585	6.0
41.6	7.0
41.615	5.0
41.629	8.0
41.644	7.0
41.659	5.0
41.674	5.0
41.688	5.0
41.703	7.0
41.718	8.0
41.733	5.0
41.747	8.0
41.762	4.0
41.777	6.0
41.792	5.0
41.806	5.0
41.821	6.0
41.836	9.0
41.851	5.0
41.866	5.0
41.88	7.0
41.895	9.0
41.91	5.0
41.925	5.0
41.939	5.0
41.954	5.0
41.969	8.0
41.984	5.0
41.999	10.0
42.013	9.0
42.028	3.0
42.043	7.0
42.058	5.0
42.073	7.0
42.088	3.0
42.102	8.0
42.117	3.0
42.132	3.0
42.147	5.0
42.162	6.0
42.176	12.0
42.191	4.0
42.206	7.0
42.221	5.0
42.236	6.0
42.251	9.0
42.266	11.0
42.28	12.0
42.295	9.0
42.31	11.0
42.325	14.0
42.34	9.0
42.355	16.0
42.369	20.0
42.384	15.0
42.399	17.0
42.414	19.0
42.429	19.0
42.444	13.0
42.459	10.0
42.474	13.0
42.488	11.0
42.503	5.0
42.518	9.0
42.533	13.0
42.548	5.0
42.563	8.0
42.578	12.0
42.593	4.0
42.608	12.0
42.622	9.0
42.637	12.0
42.652	11.0
42.667	5.0
42.682	15.0
42.697	15.0
42.712	12.0
42.727	8.0
42.742	12.0
42.757	7.0
42.772	4.0
42.786	5.0
42.801	10.0
42.816	9.0
42.831	9.0
42.846	4.0
42.861	5.0
42.876	6.0
42.891	7.0
42.906	7.0
42.921	5.0
42.936	6.0
42.951	2.0
42.966	5.0
42.981	7.0
42.996	10.0
43.011	4.0
43.025	13.0
43.04	9.0
43.055	6.0
43.07	3.0
43.085	4.0
43.1	6.0
43.115	5.0
43.13	8.0
43.145	7.0
43.16	6.0
43.175	6.0
43.19	4.0
43.205	5.0
43.22	7.0
43.235	5.0
43.25	1.0
43.265	5.0
43.28	2.0
43.295	4.0
43.31	9.0
43.325	5.0
43.34	8.0
43.355	6.0
43.37	6.0
43.385	10.0
43.4	6.0
43.415	3.0
43.43	6.0
43.445	6.0
43.46	3.0
43.475	4.0
43.49	4.0
43.505	13.0
43.52	10.0
43.535	12.0
43.55	5.0
43.565	6.0
43.58	11.0
43.595	12.0
43.61	8.0
43.625	9.0
43.64	8.0
43.655	9.0
43.67	9.0
43.685	12.0
43.7	7.0
43.715	6.0
43.73	7.0
43.745	9.0
43.76	9.0
43.775	7.0
43.79	9.0
43.805	5.0
43.82	11.0
43.835	8.0
43.85	9.0
43.865	12.0
43.88	5.0
43.895	11.0
43.91	10.0
43.925	7.0
43.94	12.0
43.955	11.0
43.97	6.0
43.985	7.0
44.0	5.0
44.015	5.0
44.03	5.0
44.045	8.0
44.061	5.0
44.076	5.0
44.091	7.0
44.106	5.0
44.121	6.0
44.136	3.0
44.151	5.0
44.166	3.0
44.181	6.0
44.196	6.0
44.211	3.0
44.226	5.0
44.241	6.0
44.256	6.0
44.271	6.0
44.286	5.0
44.301	5.0
44.316	4.0
44.331	7.0
44.346	4.0
44.361	9.0
44.377	5.0
44.392	6.0
44.407	7.0
44.422	3.0
44.437	8.0
44.452	5.0
44.467	4.0
44.482	5.0
44.497	7.0
44.512	4.0
44.527	3.0
44.542	5.0
44.557	5.0
44.572	8.0
44.587	9.0
44.602	7.0
44.617	6.0
44.632	3.0
44.647	5.0
44.663	5.0
44.678	5.0
44.693	9.0
44.708	2.0
44.723	9.0
44.738	10.0
44.753	8.0
44.768	10.0
44.783	11.0
44.798	10.0
44.813	14.0
44.828	11.0
44.843	11.0
44.858	7.0
44.873	9.0
44.888	11.0
44.903	10.0
44.918	7.0
44.933	8.0
44.948	7.0
44.964	6.0
44.979	9.0
44.994	11.0
45.009	2.0
45.024	8.0
45.039	10.0
45.054	8.0
45.069	14.0
45.084	6.0
45.099	7.0
45.114	6.0
45.129	6.0
45.144	9.0
45.159	5.0
45.174	9.0
45.189	7.0
45.204	4.0
45.219	5.0
45.234	6.0
45.249	6.0
45.264	5.0
45.279	3.0
45.294	2.0
45.309	6.0
45.324	6.0
45.339	5.0
45.354	8.0
45.369	5.0
45.384	4.0
45.399	3.0
45.414	4.0
45.429	6.0
45.444	7.0
45.459	8.0
45.474	7.0
45.489	6.0
45.504	6.0
45.519	6.0
45.534	4.0
45.549	5.0
45.564	5.0
45.579	8.0
45.594	5.0
45.609	5.0
45.624	4.0
45.639	8.0
45.654	3.0
45.669	9.0
45.684	5.0
45.699	9.0
45.714	1.0
45.729	8.0
45.744	8.0
45.759	7.0
45.774	10.0
45.789	7.0
45.804	6.0
45.819	5.0
45.834	2.0
45.849	7.0
45.864	3.0
45.879	14.0
45.894	14.0
45.909	10.0
45.924	13.0
45.939	13.0
45.954	18.0
45.969	18.0
45.984	15.0
45.998	16.0
46.013	16.0
46.028	14.0
46.043	16.0
46.058	15.0
46.073	11.0
46.088	14.0
46.103	10.0
46.118	3.0
46.133	11.0
46.148	8.0
46.163	6.0
46.178	6.0
46.192	10.0
46.207	13.0
46.222	10.0
46.237	14.0
46.252	11.0
46.267	13.0
46.282	7.0
46.297	16.0
46.312	13.0
46.327	10.0
46.341	10.0
46.356	13.0
46.371	11.0
46.386	9.0
46.401	5.0
46.416	4.0
46.431	7.0
46.446	5.0
46.46	4.0
46.475	0.0
46.49	5.0
46.505	4.0
46.52	3.0
46.535	2.0
46.55	3.0
46.564	4.0
46.579	4.0
46.594	8.0
46.609	4.0
46.624	4.0
46.639	5.0
46.654	2.0
46.668	5.0
46.683	8.0
46.698	2.0
46.713	9.0
46.728	3.0
46.743	2.0
46.758	4.0
46.772	5.0
46.787	3.0
46.802	5.0
46.817	7.0
46.832	6.0
46.847	4.0
46.861	5.0
46.876	3.0
46.891	7.0
46.906	5.0
46.921	2.0
46.936	5.0
46.95	4.0
46.965	4.0
46.98	6.0
46.995	6.0
47.01	5.0
47.025	6.0
47.039	4.0
47.054	9.0
47.069	7.0
47.084	11.0
47.099	12.0
47.113	9.0
47.128	10.0
47.143	12.0
47.158	11.0
47.173	9.0
47.188	8.0
47.202	8.0
47.217	10.0
47.232	8.0
47.247	9.0
47.262	5.0
47.277	3.0
47.291	9.0
47.306	7.0
47.321	3.0
47.336	5.0
47.351	3.0
47.365	9.0
47.38	3.0
47.395	7.0
47.41	8.0
47.425	5.0
47.44	6.0
47.454	4.0
47.469	7.0
47.484	4.0
47.499	4.0
47.514	5.0
47.528	3.0
47.543	11.0
47.558	3.0
47.573	4.0
47.588	3.0
47.603	5.0
47.617	6.0
47.632	3.0
47.647	5.0
47.662	5.0
47.677	6.0
47.691	4.0
47.706	5.0
47.721	7.0
47.736	5.0
47.751	4.0
47.766	6.0
47.78	6.0
47.795	6.0
47.81	3.0
47.825	3.0
47.84	4.0
47.855	1.0
47.869	2.0
47.884	1.0
47.899	7.0
47.914	4.0
47.929	5.0
47.944	6.0
47.958	4.0
47.973	5.0
47.988	7.0
48.003	9.0
48.018	2.0
48.033	5.0
48.047	5.0
48.062	5.0
48.077	6.0
48.092	6.0
48.107	5.0
48.122	6.0
48.137	5.0
48.151	8.0
48.166	3.0
48.181	6.0
48.196	7.0
48.211	6.0
48.226	6.0
48.241	4.0
48.255	9.0
48.27	3.0
48.285	4.0
48.3	6.0
48.315	5.0
48.33	7.0
48.345	6.0
48.359	3.0
48.374	5.0
48.389	3.0
48.404	1.0
48.419	5.0
48.434	6.0
48.449	8.0
48.464	4.0
48.478	5.0
48.493	1.0
48.508	8.0
48.523	11.0
48.538	3.0
48.553	0.0
48.568	4.0
48.583	3.0
48.597	5.0
48.612	4.0
48.627	5.0
48.642	8.0
48.657	6.0
48.672	2.0
48.687	5.0
48.702	4.0
48.717	4.0
48.731	8.0
48.746	1.0
48.761	5.0
48.776	9.0
48.791	4.0
48.806	2.0
48.821	7.0
48.836	3.0
48.851	8.0
48.866	6.0
48.88	5.0
48.895	7.0
48.91	10.0
48.925	5.0
48.94	2.0
48.955	9.0
48.97	9.0
48.985	5.0
49.0	5.0
49.015	10.0
49.03	3.0
49.044	8.0
49.059	2.0
49.074	2.0
49.089	5.0
49.104	5.0
49.119	7.0
49.134	4.0
49.149	4.0
49.164	0.0
49.179	2.0
49.194	2.0
49.209	3.0
49.224	5.0
49.238	7.0
49.253	6.0
49.268	6.0
49.283	8.0
49.298	5.0
49.313	6.0
49.328	4.0
49.343	6.0
49.358	12.0
49.373	2.0
49.388	4.0
49.403	9.0
49.418	8.0
49.433	15.0
49.448	4.0
49.463	10.0
49.478	8.0
49.492	9.0
49.507	6.0
49.522	7.0
49.537	4.0
49.552	7.0
49.567	4.0
49.582	7.0
49.597	5.0
49.612	5.0
49.627	4.0
49.642	7.0
49.657	10.0
49.672	8.0
49.687	3.0
49.702	4.0
49.717	12.0
49.732	9.0
49.747	7.0
49.762	7.0
49.777	7.0
49.792	5.0
49.807	3.0
49.822	5.0
49.837	3.0
49.852	4.0
49.867	2.0
49.882	7.0
49.897	4.0
49.912	4.0
49.927	6.0
49.942	4.0
49.957	4.0
49.971	7.0
49.986	4.0
50.001	9.0
50.016	5.0
50.031	3.0
50.046	5.0
50.061	7.0
50.076	7.0
50.091	9.0
50.106	4.0
50.121	9.0
50.136	4.0
50.151	7.0
50.166	1.0
50.181	5.0
50.196	4.0
50.211	6.0
50.226	3.0
50.241	8.0
50.256	9.0
50.271	3.0
50.286	3.0
50.302	3.0
50.317	5.0
50.332	4.0
50.347	8.0
50.362	4.0
50.377	7.0
50.392	7.0
50.407	7.0
50.422	5.0
50.437	11.0
50.452	8.0
50.467	5.0
50.482	5.0
50.497	7.0
50.512	6.0
50.527	7.0
50.542	9.0
50.557	4.0
50.572	4.0
50.587	10.0
50.602	4.0
50.617	5.0
50.632	5.0
50.647	7.0
50.662	6.0
50.677	5.0
50.692	7.0
50.707	7.0
50.722	7.0
50.737	6.0
50.752	2.0
50.767	5.0
50.782	10.0
50.797	8.0
50.812	8.0
50.828	7.0
50.843	8.0
50.858	5.0
50.873	6.0
50.888	7.0
50.903	4.0
50.918	5.0
50.933	3.0
50.948	6.0
50.963	5.0
50.978	6.0
50.993	3.0
51.008	5.0
51.023	3.0
51.038	4.0
51.053	5.0
51.068	4.0
51.083	2.0
51.098	8.0
51.114	7.0
51.129	2.0
51.144	0.0
51.159	4.0
51.174	4.0
51.189	7.0
51.204	5.0
51.219	8.0
51.234	9.0
51.249	6.0
51.264	4.0
51.279	5.0
51.294	4.0
51.309	5.0
51.324	4.0
51.34	5.0
51.355	5.0
51.37	6.0
51.385	7.0
51.4	9.0
51.415	4.0
51.43	14.0
51.445	15.0
51.46	12.0
51.475	15.0
51.49	29.0
51.505	19.0
51.52	15.0
51.535	13.0
51.551	16.0
51.566	16.0
51.581	16.0
51.596	10.0
51.611	8.0
51.626	8.0
51.641	12.0
51.656	8.0
51.671	3.0
51.686	5.0
51.701	7.0
51.716	1.0
51.732	8.0
51.747	7.0
51.762	9.0
51.777	11.0
51.792	9.0
51.807	7.0
51.822	8.0
51.837	11.0
51.852	11.0
51.867	7.0
51.882	10.0
51.898	10.0
51.913	8.0
51.928	9.0
51.943	8.0
51.958	9.0
51.973	6.0
51.988	5.0
52.003	7.0
52.018	1.0
52.033	4.0
52.048	2.0
52.064	5.0
52.079	3.0
52.094	9.0
52.109	4.0
52.124	6.0
52.139	5.0
52.154	2.0
52.169	3.0
52.184	6.0
52.199	5.0
52.215	5.0
52.23	3.0
52.245	7.0
52.26	9.0
52.275	6.0
52.29	4.0
52.305	8.0
52.32	3.0
52.335	9.0
52.35	5.0
52.366	6.0
52.381	4.0
52.396	4.0
52.411	1.0
52.426	5.0
52.441	4.0
52.456	6.0
52.471	7.0
52.486	4.0
52.502	4.0
52.517	8.0
52.532	12.0
52.547	5.0
52.562	13.0
52.577	10.0
52.592	9.0
52.607	5.0
52.622	4.0
52.637	6.0
52.653	11.0
52.668	6.0
52.683	5.0
52.698	2.0
52.713	5.0
52.728	10.0
52.743	4.0
52.758	7.0
52.774	7.0
52.789	3.0
52.804	4.0
52.819	4.0
52.834	5.0
52.849	8.0
52.864	9.0
52.879	7.0
52.894	3.0
52.91	6.0
52.925	7.0
52.94	9.0
52.955	9.0
52.97	7.0
52.985	8.0
53.0	4.0
53.015	5.0
53.031	5.0
53.046	4.0
53.061	2.0
53.076	5.0
53.091	6.0
53.106	5.0
53.121	3.0
53.136	6.0
53.152	1.0
53.167	6.0
53.182	6.0
53.197	5.0
53.212	4.0
53.227	4.0
53.242	3.0
53.257	2.0
53.273	7.0
53.288	7.0
53.303	5.0
53.318	5.0
53.333	8.0
53.348	2.0
53.363	4.0
53.379	5.0
53.394	4.0
53.409	4.0
53.424	5.0
53.439	8.0
53.454	3.0
53.469	7.0
53.484	3.0
53.5	6.0
53.515	3.0
53.53	6.0
53.545	4.0
53.56	4.0
53.575	3.0
53.59	7.0
53.606	10.0
53.621	3.0
53.636	6.0
53.651	7.0
53.666	2.0
53.681	4.0
53.696	2.0
53.712	5.0
53.727	3.0
53.742	5.0
53.757	5.0
53.772	4.0
53.787	6.0
53.802	5.0
53.818	3.0
53.833	5.0
53.848	4.0
53.863	7.0
53.878	8.0
53.893	4.0
53.909	4.0
53.924	1.0
53.939	2.0
53.954	6.0
53.969	10.0
53.984	4.0
53.999	3.0
54.015	6.0
54.03	3.0
54.045	5.0
54.06	3.0
54.075	7.0
54.09	3.0
54.106	9.0
54.121	3.0
54.136	5.0
54.151	8.0
54.166	4.0
54.181	5.0
54.197	8.0
54.212	3.0
54.227	4.0
54.242	3.0
54.257	3.0
54.272	5.0
54.288	3.0
54.303	6.0
54.318	2.0
54.333	5.0
54.348	3.0
54.363	8.0
54.379	3.0
54.394	1.0
54.409	3.0
54.424	4.0
54.439	5.0
54.454	7.0
54.47	8.0
54.485	4.0
54.5	8.0
54.515	4.0
54.53	6.0
54.545	8.0
54.561	9.0
54.576	4.0
54.591	8.0
54.606	10.0
54.621	5.0
54.636	12.0
54.652	18.0
54.667	10.0
54.682	16.0
54.697	13.0
54.712	13.0
54.727	10.0
54.743	8.0
54.758	5.0
54.773	10.0
54.788	3.0
54.803	6.0
54.819	8.0
54.834	9.0
54.849	3.0
54.864	6.0
54.879	4.0
54.894	6.0
54.91	9.0
54.925	9.0
54.94	8.0
54.955	5.0
54.97	9.0
54.985	11.0
55.001	11.0
55.016	9.0
55.031	10.0
55.046	14.0
55.061	6.0
55.077	6.0
55.092	8.0
55.107	10.0
55.122	8.0
55.137	6.0
55.152	1.0
55.168	6.0
55.183	3.0
55.198	8.0
55.213	3.0
55.228	6.0
55.243	7.0
55.259	4.0
55.274	4.0
55.289	6.0
55.304	9.0
55.319	8.0
55.335	6.0
55.35	3.0
55.365	3.0
55.38	7.0
55.395	6.0
55.41	5.0
55.426	5.0
55.441	7.0
55.456	4.0
55.471	5.0
55.486	5.0
55.501	5.0
55.517	3.0
55.532	5.0
55.547	3.0
55.562	5.0
55.577	5.0
55.592	3.0
55.608	10.0
55.623	8.0
55.638	6.0
55.653	7.0
55.668	5.0
55.683	5.0
55.699	8.0
55.714	7.0
55.729	7.0
55.744	8.0
55.759	5.0
55.774	7.0
55.79	6.0
55.805	3.0
55.82	2.0
55.835	7.0
55.85	3.0
55.865	4.0
55.881	2.0
55.896	3.0
55.911	5.0
55.926	1.0
55.941	6.0
55.956	7.0
55.972	3.0
55.987	7.0
56.002	2.0
56.017	4.0
56.032	5.0
56.047	5.0
56.063	12.0
56.078	11.0
56.093	5.0
56.108	8.0
56.123	8.0
56.138	3.0
56.154	4.0
56.169	3.0
56.184	5.0
56.199	4.0
56.214	5.0
56.229	8.0
56.244	8.0
56.26	3.0
56.275	1.0
56.29	4.0
56.305	5.0
56.32	6.0
56.335	5.0
56.351	9.0
56.366	4.0
56.381	6.0
56.396	6.0
56.411	2.0
56.426	9.0
56.441	2.0
56.457	3.0
56.472	0.0
56.487	1.0
56.502	5.0
56.517	6.0
56.532	2.0
56.547	8.0
56.563	6.0
56.578	2.0
56.593	3.0
56.608	6.0
56.623	7.0
56.638	2.0
56.653	8.0
56.668	6.0
56.684	5.0
56.699	8.0
56.714	2.0
56.729	3.0
56.744	6.0
56.759	6.0
56.774	1.0
56.79	6.0
56.805	5.0
56.82	1.0
56.835	3.0
56.85	2.0
56.865	4.0
56.88	5.0
56.895	3.0
56.911	0.0
56.926	5.0
56.941	5.0
56.956	3.0
56.971	5.0
56.986	5.0
57.001	1.0
57.016	2.0
57.031	9.0
57.047	9.0
57.062	3.0
57.077	7.0
57.092	6.0
57.107	2.0
57.122	6.0
57.137	8.0
57.152	3.0
57.167	5.0
57.183	8.0
57.198	6.0
57.213	5.0
57.228	5.0
57.243	7.0
57.258	3.0
57.273	4.0
57.288	7.0
57.303	1.0
57.318	1.0
57.334	5.0
57.349	4.0
57.364	5.0
57.379	4.0
57.394	5.0
57.409	7.0
57.424	3.0
57.439	1.0
57.454	2.0
57.469	8.0
57.484	7.0
57.5	5.0
57.515	8.0
57.53	6.0
57.545	1.0
57.56	4.0
57.575	5.0
57.59	4.0
57.605	5.0
57.62	5.0
57.635	3.0
57.65	3.0
57.665	1.0
57.68	6.0
57.696	4.0
57.711	1.0
57.726	6.0
57.741	11.0
57.756	5.0
57.771	2.0
57.786	7.0
57.801	6.0
57.816	3.0
57.831	4.0
57.846	4.0
57.861	3.0
57.876	3.0
57.891	5.0
57.906	4.0
57.921	9.0
57.937	2.0
57.952	8.0
57.967	7.0
57.982	8.0
57.997	3.0
58.012	7.0
58.027	6.0
58.042	4.0
58.057	4.0
58.072	3.0
58.087	2.0
58.102	4.0
58.117	2.0
58.132	7.0
58.147	5.0
58.162	3.0
58.177	6.0
58.192	4.0
58.207	9.0
58.222	1.0
58.237	8.0
58.252	5.0
58.267	4.0
58.282	4.0
58.297	2.0
58.312	4.0
58.327	6.0
58.342	1.0
58.357	2.0
58.372	1.0
58.387	3.0
58.402	6.0
58.418	2.0
58.433	5.0
58.448	8.0
58.463	6.0
58.478	9.0
58.493	7.0
58.508	3.0
58.523	6.0
58.538	8.0
58.553	6.0
58.568	8.0
58.583	8.0
58.598	10.0
58.613	4.0
58.628	11.0
58.643	9.0
58.658	13.0
58.673	13.0
58.688	14.0
58.703	11.0
58.718	6.0
58.733	7.0
58.748	10.0
58.763	6.0
58.778	7.0
58.793	3.0
58.808	6.0
58.823	6.0
58.838	6.0
58.853	6.0
58.868	4.0
58.883	4.0
58.898	6.0
58.913	7.0
58.928	6.0
58.942	7.0
58.957	6.0
58.972	3.0
58.987	5.0
59.002	4.0
59.017	9.0
59.032	10.0
59.047	5.0
59.062	8.0
59.077	3.0
59.092	8.0
59.107	8.0
59.122	9.0
59.137	6.0
59.152	4.0
59.167	5.0
59.182	7.0
59.197	12.0
59.212	3.0
59.227	5.0
59.242	4.0
59.257	2.0
59.272	2.0
59.287	4.0
59.302	8.0
59.317	4.0
59.332	7.0
59.347	4.0
59.362	1.0
59.377	4.0
59.392	4.0
59.407	6.0
59.422	2.0
59.437	6.0
59.452	4.0
59.467	5.0
59.482	5.0
59.497	3.0
59.512	4.0
59.527	9.0
59.542	13.0
59.557	6.0
59.572	3.0
59.587	5.0
59.602	6.0
59.617	7.0
59.632	9.0
59.647	5.0
59.661	10.0
59.676	8.0
59.691	6.0
59.706	4.0
59.721	5.0
59.736	5.0
59.751	1.0
59.766	4.0
59.781	4.0
59.796	6.0
59.811	1.0
59.826	5.0
59.841	3.0
59.856	4.0
59.871	4.0
59.886	8.0
59.901	8.0
59.916	9.0
59.931	5.0
59.946	5.0
59.961	12.0
59.976	5.0
59.991	8.0
60.006	10.0
60.021	5.0
60.036	7.0
60.051	10.0
60.066	10.0
60.081	6.0
60.096	5.0
60.111	7.0
60.126	2.0
60.141	6.0
60.156	2.0
60.171	5.0
60.186	2.0
60.201	5.0
60.216	2.0
60.231	2.0
60.246	2.0
60.261	4.0
60.276	5.0
60.291	4.0
60.306	5.0
60.321	5.0
60.336	3.0
60.35	4.0
60.365	8.0
60.38	0.0
60.395	5.0
60.41	3.0
60.425	3.0
60.44	6.0
60.455	1.0
60.47	7.0
60.485	12.0
60.5	9.0
60.515	6.0
60.53	4.0
60.545	8.0
60.56	6.0
60.575	3.0
60.59	8.0
60.605	11.0
60.62	7.0
60.635	7.0
60.65	6.0
60.665	3.0
60.68	6.0
60.695	3.0
60.71	7.0
60.725	1.0
60.74	6.0
60.755	1.0
60.77	4.0
60.785	5.0
60.8	5.0
60.815	5.0
60.83	1.0
60.845	4.0
60.86	9.0
60.875	9.0
60.89	2.0
60.905	7.0
60.92	3.0
60.935	5.0
60.95	7.0
60.965	4.0
60.98	6.0
60.995	6.0
61.01	4.0
61.025	9.0
61.04	5.0
61.055	5.0
61.07	4.0
61.085	5.0
61.1	4.0
61.115	5.0
61.13	2.0
61.145	2.0
61.16	6.0
61.175	7.0
61.191	1.0
61.206	5.0
61.221	1.0
61.236	4.0
61.251	3.0
61.266	1.0
61.281	5.0
61.296	6.0
61.311	4.0
61.326	4.0
61.341	7.0
61.356	4.0
61.371	2.0
61.386	3.0
61.401	2.0
61.416	4.0
61.431	7.0
61.446	3.0
61.461	3.0
61.476	1.0
61.491	8.0
61.506	9.0
61.521	9.0
61.536	3.0
61.551	4.0
61.566	6.0
61.581	7.0
61.596	6.0
61.611	3.0
61.626	5.0
61.641	2.0
61.656	1.0
61.672	4.0
61.687	3.0
61.702	2.0
61.717	6.0
61.732	4.0
61.747	3.0
61.762	5.0
61.777	5.0
61.792	5.0
61.807	4.0
61.822	4.0
61.837	1.0
61.852	4.0
61.867	7.0
61.882	4.0
61.897	6.0
61.912	6.0
61.927	3.0
61.943	6.0
61.958	5.0
61.973	5.0
61.988	6.0
62.003	6.0
62.018	0.0
62.033	4.0
62.048	5.0
62.063	3.0
62.078	4.0
62.093	6.0
62.108	6.0
62.123	3.0
62.138	2.0
62.153	1.0
62.169	4.0
62.184	7.0
62.199	9.0
62.214	3.0
62.229	5.0
62.244	2.0
62.259	3.0
62.274	5.0
62.289	1.0
62.304	4.0
62.319	3.0
62.335	5.0
62.35	5.0
62.365	4.0
62.38	4.0
62.395	3.0
62.41	2.0
62.425	5.0
62.44	2.0
62.455	3.0
62.47	5.0
62.485	5.0
62.501	1.0
62.516	7.0
62.531	5.0
62.546	6.0
62.561	3.0
62.576	7.0
62.591	6.0
62.606	5.0
62.621	7.0
62.636	3.0
62.652	5.0
62.667	1.0
62.682	4.0
62.697	4.0
62.712	3.0
62.727	4.0
62.742	1.0
62.757	2.0
62.772	5.0
62.787	6.0
62.803	2.0
62.818	0.0
62.833	3.0
62.848	2.0
62.863	5.0
62.878	5.0
62.893	2.0
62.908	2.0
62.923	2.0
62.939	5.0
62.954	5.0
62.969	7.0
62.984	5.0
62.999	3.0
63.014	5.0
63.029	3.0
63.044	1.0
63.059	6.0
63.074	1.0
63.09	5.0
63.105	3.0
63.12	4.0
63.135	4.0
63.15	5.0
63.165	4.0
63.18	3.0
63.195	3.0
63.21	7.0
63.226	3.0
63.241	4.0
63.256	5.0
63.271	3.0
63.286	6.0
63.301	1.0
63.316	3.0
63.331	6.0
63.346	10.0
63.362	6.0
63.377	6.0
63.392	4.0
63.407	12.0
63.422	11.0
63.437	6.0
63.452	7.0
63.467	5.0
63.482	8.0
63.497	4.0
63.513	6.0
63.528	6.0
63.543	8.0
63.558	1.0
63.573	5.0
63.588	4.0
63.603	2.0
63.618	3.0
63.633	4.0
63.648	3.0
63.664	1.0
63.679	1.0
63.694	7.0
63.709	1.0
63.724	8.0
63.739	1.0
63.754	3.0
63.769	7.0
63.784	2.0
63.799	4.0
63.814	3.0
63.83	7.0
63.845	8.0
63.86	7.0
63.875	9.0
63.89	6.0
63.905	5.0
63.92	12.0
63.935	4.0
63.95	3.0
63.965	9.0
63.98	7.0
63.996	3.0
64.011	1.0
64.026	7.0
64.041	3.0
64.056	8.0
64.071	2.0
64.086	6.0
64.101	4.0
64.116	5.0
64.131	4.0
64.146	2.0
64.161	2.0
64.176	3.0
64.191	5.0
64.207	4.0
64.222	4.0
64.237	1.0
64.252	3.0
64.267	2.0
64.282	6.0
64.297	4.0
64.312	2.0
64.327	6.0
64.342	3.0
64.357	2.0
64.372	3.0
64.387	6.0
64.402	5.0
64.417	5.0
64.433	3.0
64.448	1.0
64.463	2.0
64.478	4.0
64.493	2.0
64.508	7.0
64.523	4.0
64.538	1.0
64.553	3.0
64.568	2.0
64.583	4.0
64.598	6.0
64.613	5.0
64.628	3.0
64.643	2.0
64.658	4.0
64.673	6.0
64.688	5.0
64.703	3.0
64.718	4.0
64.734	4.0
64.749	2.0
64.764	4.0
64.779	1.0
64.794	2.0
64.809	4.0
64.824	4.0
64.839	2.0
64.854	8.0
64.869	7.0
64.884	4.0
64.899	6.0
64.914	6.0
64.929	8.0
64.944	5.0
64.959	6.0
64.974	6.0
64.989	4.0
65.004	5.0
65.019	5.0
65.034	7.0
65.049	4.0
65.064	6.0
65.079	7.0
65.094	4.0
65.109	5.0
65.125	5.0
65.14	2.0
65.155	2.0
65.17	3.0
65.185	4.0
65.2	1.0
65.215	4.0
65.23	2.0
65.245	3.0
65.26	1.0
65.275	8.0
65.29	5.0
65.305	5.0
65.32	4.0
65.335	5.0
65.35	7.0
65.365	3.0
65.38	3.0
65.395	4.0
65.41	3.0
65.425	1.0
65.44	3.0
65.455	3.0
65.47	5.0
65.485	3.0
65.5	2.0
65.515	2.0
65.53	4.0
65.545	2.0
65.56	3.0
65.575	4.0
65.59	3.0
65.605	4.0
65.62	4.0
65.635	4.0
65.65	6.0
65.666	2.0
65.681	4.0
65.696	4.0
65.711	3.0
65.726	5.0
65.741	4.0
65.756	3.0
65.771	2.0
65.786	2.0
65.801	4.0
65.816	5.0
65.831	3.0
65.846	3.0
65.861	8.0
65.876	1.0
65.891	3.0
65.906	5.0
65.921	3.0
65.936	2.0
65.951	3.0
65.966	0.0
65.981	6.0
65.996	5.0
66.011	3.0
66.026	5.0
66.041	2.0
66.056	3.0
66.071	2.0
66.086	3.0
66.101	4.0
66.116	11.0
66.131	6.0
66.146	7.0
66.161	8.0
66.176	10.0
66.191	5.0
66.206	9.0
66.221	7.0
66.236	12.0
66.251	12.0
66.266	8.0
66.281	10.0
66.296	8.0
66.311	5.0
66.327	4.0
66.342	4.0
66.357	8.0
66.372	3.0
66.387	3.0
66.402	5.0
66.417	4.0
66.432	3.0
66.447	4.0
66.462	4.0
66.477	3.0
66.492	6.0
66.507	6.0
66.522	4.0
66.537	4.0
66.552	4.0
66.567	4.0
66.582	2.0
66.597	10.0
66.612	5.0
66.627	5.0
66.642	3.0
66.657	5.0
66.672	6.0
66.687	4.0
66.702	7.0
66.717	4.0
66.732	7.0
66.747	2.0
66.762	1.0
66.777	4.0
66.792	6.0
66.807	8.0
66.822	5.0
66.837	6.0
66.853	2.0
66.868	3.0
66.883	6.0
66.898	1.0
66.913	2.0
66.928	5.0
66.943	2.0
66.958	4.0
66.973	1.0
66.988	4.0
67.003	6.0
67.018	6.0
67.033	4.0
67.048	8.0
67.063	4.0
67.078	3.0
67.093	3.0
67.108	3.0
67.123	14.0
67.138	9.0
67.153	2.0
67.168	3.0
67.183	3.0
67.198	1.0
67.214	5.0
67.229	6.0
67.244	1.0
67.259	2.0
67.274	2.0
67.289	4.0
67.304	3.0
67.319	7.0
67.334	2.0
67.349	3.0
67.364	4.0
67.379	3.0
67.394	2.0
67.409	1.0
67.424	3.0
67.439	2.0
67.454	5.0
67.469	3.0
67.484	6.0
67.5	8.0
67.515	7.0
67.53	5.0
67.545	8.0
67.56	8.0
67.575	4.0
67.59	2.0
67.605	2.0
67.62	1.0
67.635	3.0
67.65	2.0
67.665	6.0
67.68	4.0
67.695	0.0
67.71	4.0
67.726	5.0
67.741	6.0
67.756	2.0
67.771	4.0
67.786	6.0
67.801	3.0
67.816	3.0
67.831	4.0
67.846	5.0
67.861	7.0
67.876	0.0
67.891	5.0
67.906	3.0
67.922	5.0
67.937	6.0
67.952	4.0
67.967	2.0
67.982	6.0
67.997	2.0
68.012	0.0
68.027	6.0
68.042	5.0
68.057	4.0
68.072	3.0
68.087	2.0
68.103	4.0
68.118	4.0
68.133	2.0
68.148	3.0
68.163	4.0
68.178	4.0
68.193	4.0
68.208	3.0
68.223	2.0
68.238	5.0
68.254	5.0
68.269	0.0
68.284	2.0
68.299	6.0
68.314	3.0
68.329	4.0
68.344	2.0
68.359	6.0
68.374	4.0
68.389	6.0
68.405	5.0
68.42	3.0
68.435	1.0
68.45	3.0
68.465	5.0
68.48	2.0
68.495	5.0
68.51	0.0
68.525	7.0
68.54	3.0
68.556	2.0
68.571	2.0
68.586	0.0
68.601	3.0
68.616	4.0
68.631	7.0
68.646	2.0
68.661	2.0
68.676	3.0
68.691	5.0
68.707	2.0
68.722	5.0
68.737	1.0
68.752	6.0
68.767	1.0
68.782	4.0
68.797	4.0
68.812	1.0
68.827	4.0
68.842	6.0
68.857	6.0
68.873	3.0
68.888	3.0
68.903	2.0
68.918	2.0
68.933	3.0
68.948	5.0
68.963	6.0
68.978	7.0
68.993	5.0
69.008	4.0
69.023	4.0
69.038	3.0
69.054	5.0
69.069	3.0
69.084	4.0
69.099	3.0
69.114	4.0
69.129	5.0
69.144	8.0
69.159	3.0
69.174	2.0
69.189	1.0
69.204	3.0
69.219	2.0
69.234	1.0
69.249	4.0
69.264	3.0
69.279	4.0
69.295	4.0
69.31	6.0
69.325	6.0
69.34	6.0
69.355	6.0
69.37	3.0
69.385	4.0
69.4	7.0
69.415	2.0
69.43	2.0
69.445	2.0
69.46	1.0
69.475	8.0
69.49	4.0
69.505	5.0
69.52	3.0
69.535	5.0
69.55	6.0
69.565	3.0
69.58	6.0
69.595	6.0
69.61	0.0
69.625	2.0
69.64	3.0
69.655	7.0
69.67	1.0
69.685	4.0
69.7	5.0
69.715	10.0
69.73	2.0
69.745	6.0
69.76	7.0
69.775	5.0
69.79	5.0
69.805	3.0
69.82	7.0
69.835	4.0
69.85	9.0
69.865	4.0
69.88	6.0
69.895	2.0
69.909	6.0
69.924	7.0
69.939	3.0
69.954	4.0
69.969	3.0
69.984	4.0
69.999	2.0
70.014	3.0
70.029	5.0
70.044	5.0
70.059	4.0
70.074	5.0
70.088	2.0
70.103	1.0
70.118	3.0
70.133	5.0
70.148	4.0
70.163	6.0
70.178	1.0
70.193	2.0
70.208	3.0
70.222	6.0
70.237	5.0
70.252	0.0
70.267	5.0
70.282	5.0
70.297	4.0
70.312	3.0
70.327	4.0
70.341	3.0
70.356	3.0
70.371	8.0
70.386	1.0
70.401	2.0
70.416	2.0
70.43	3.0
70.445	4.0
70.46	3.0
70.475	4.0
70.49	7.0
70.505	1.0
70.519	6.0
70.534	3.0
70.549	2.0
70.564	7.0
70.579	5.0
70.594	7.0
70.608	2.0
70.623	3.0
70.638	4.0
70.653	1.0
70.668	4.0
70.683	13.0
70.697	3.0
70.712	1.0
70.727	5.0
70.742	4.0
70.757	5.0
70.771	3.0
70.786	5.0
70.801	9.0
70.816	6.0
70.831	1.0
70.845	3.0
70.86	3.0
70.875	2.0
70.89	5.0
70.905	4.0
70.92	1.0
70.934	4.0
70.949	7.0
70.964	5.0
70.979	3.0
70.994	6.0
71.008	6.0
71.023	5.0
71.038	2.0
71.053	4.0
71.068	6.0
71.082	5.0
71.097	4.0
71.112	1.0
71.127	3.0
71.142	3.0
71.156	2.0
71.171	3.0
71.186	4.0
71.201	4.0
71.216	4.0
71.231	4.0
71.245	0.0
71.26	4.0
71.275	4.0
71.29	3.0
71.305	8.0
71.319	6.0
71.334	0.0
71.349	3.0
71.364	4.0
71.379	3.0
71.394	5.0
71.408	5.0
71.423	1.0
71.438	2.0
71.453	3.0
71.468	2.0
71.483	7.0
71.497	3.0
71.512	2.0
71.527	2.0
71.542	5.0
71.557	4.0
71.572	3.0
71.586	2.0
71.601	4.0
71.616	5.0
71.631	4.0
71.646	3.0
71.661	1.0
71.676	4.0
71.69	1.0
71.705	5.0
71.72	4.0
71.735	3.0
71.75	0.0
71.765	2.0
71.78	4.0
71.795	3.0
71.81	2.0
71.824	4.0
71.839	2.0
71.854	2.0
71.869	4.0
71.884	3.0
71.899	2.0
71.914	3.0
71.929	5.0
71.944	5.0
71.959	6.0
71.974	1.0
71.988	3.0
72.003	1.0
72.018	3.0
72.033	1.0
72.048	1.0
72.063	2.0
72.078	2.0
72.093	5.0
72.108	0.0
72.123	6.0
72.138	4.0
72.153	2.0
72.168	0.0
72.183	9.0
72.198	2.0
72.213	2.0
72.228	2.0
72.243	2.0
72.258	3.0
72.273	8.0
72.288	3.0
72.303	1.0
72.318	3.0
72.333	0.0
72.348	2.0
72.363	4.0
72.378	2.0
72.393	4.0
72.408	5.0
72.423	5.0
72.438	6.0
72.453	4.0
72.468	4.0
72.483	2.0
72.498	3.0
72.513	2.0
72.528	3.0
72.543	2.0
72.558	2.0
72.573	3.0
72.588	1.0
72.603	2.0
72.618	1.0
72.633	4.0
72.649	3.0
72.664	7.0
72.679	3.0
72.694	7.0
72.709	5.0
72.724	0.0
72.739	4.0
72.754	2.0
72.769	3.0
72.784	4.0
72.799	3.0
72.814	2.0
72.829	1.0
72.845	3.0
72.86	2.0
72.875	1.0
72.89	3.0
72.905	3.0
72.92	4.0
72.935	3.0
72.95	5.0
72.965	3.0
72.98	4.0
72.996	3.0
73.011	5.0
73.026	6.0
73.041	6.0
73.056	2.0
73.071	3.0
73.086	4.0
73.101	3.0
73.117	4.0
73.132	4.0
73.147	3.0
73.162	1.0
73.177	4.0
73.192	3.0
73.207	4.0
73.222	3.0
73.238	6.0
73.253	4.0
73.268	3.0
73.283	3.0
73.298	7.0
73.313	2.0
73.328	7.0
73.343	3.0
73.359	4.0
73.374	6.0
73.389	7.0
73.404	1.0
73.419	5.0
73.434	5.0
73.449	3.0
73.465	3.0
73.48	2.0
73.495	2.0
73.51	2.0
73.525	2.0
73.54	4.0
73.556	4.0
73.571	3.0
73.586	4.0
73.601	2.0
73.616	1.0
73.631	2.0
73.646	5.0
73.662	3.0
73.677	6.0
73.692	5.0
73.707	3.0
73.722	8.0
73.737	4.0
73.752	6.0
73.768	1.0
73.783	2.0
73.798	1.0
73.813	2.0
73.828	2.0
73.843	4.0
73.859	2.0
73.874	3.0
73.889	4.0
73.904	2.0
73.919	10.0
73.934	3.0
73.949	1.0
73.965	4.0
73.98	6.0
73.995	1.0
74.01	4.0
74.025	5.0
74.04	5.0
74.056	6.0
74.071	0.0
74.086	6.0
74.101	2.0
74.116	4.0
74.131	13.0
74.146	8.0
74.162	9.0
74.177	5.0
74.192	7.0
74.207	12.0
74.222	5.0
74.237	5.0
74.252	7.0
74.268	3.0
74.283	9.0
74.298	5.0
74.313	8.0
74.328	6.0
74.343	6.0
74.358	2.0
74.374	5.0
74.389	6.0
74.404	4.0
74.419	4.0
74.434	8.0
74.449	3.0
74.464	1.0
74.48	4.0
74.495	3.0
74.51	4.0
74.525	5.0
74.54	2.0
74.555	1.0
74.57	2.0
74.586	5.0
74.601	1.0
74.616	3.0
74.631	6.0
74.646	1.0
74.661	1.0
74.676	2.0
74.691	6.0
74.707	9.0
74.722	5.0
74.737	12.0
74.752	6.0
74.767	3.0
74.782	4.0
74.797	5.0
74.813	1.0
74.828	2.0
74.843	0.0
74.858	3.0
74.873	2.0
74.888	5.0
74.903	3.0
74.918	2.0
74.934	4.0
74.949	4.0
74.964	4.0
74.979	4.0
74.994	3.0
75.009	8.0
75.024	7.0
75.04	3.0
75.055	2.0
75.07	7.0
75.085	8.0
75.1	5.0
75.115	7.0
75.13	7.0
75.145	3.0
75.161	5.0
75.176	2.0
75.191	6.0
75.206	2.0
75.221	7.0
75.236	4.0
75.251	1.0
75.266	5.0
75.282	1.0
75.297	5.0
75.312	3.0
75.327	2.0
75.342	2.0
75.357	4.0
75.372	5.0
75.387	3.0
75.403	6.0
75.418	4.0
75.433	4.0
75.448	1.0
75.463	3.0
75.478	6.0
75.493	4.0
75.509	2.0
75.524	6.0
75.539	4.0
75.554	3.0
75.569	1.0
75.584	5.0
75.599	4.0
75.614	2.0
75.63	3.0
75.645	2.0
75.66	3.0
75.675	3.0
75.69	2.0
75.705	3.0
75.72	4.0
75.735	5.0
75.751	2.0
75.766	5.0
75.781	5.0
75.796	4.0
75.811	5.0
75.826	3.0
75.841	3.0
75.856	4.0
75.872	2.0
75.887	3.0
75.902	6.0
75.917	3.0
75.932	11.0
75.947	3.0
75.962	1.0
75.977	3.0
75.993	5.0
76.008	4.0
76.023	3.0
76.038	2.0
76.053	1.0
76.068	2.0
76.083	1.0
76.098	2.0
76.114	2.0
76.129	1.0
76.144	2.0
76.159	3.0
76.174	4.0
76.189	2.0
76.204	5.0
76.22	4.0
76.235	7.0
76.25	3.0
76.265	4.0
76.28	3.0
76.295	6.0
76.31	5.0
76.325	4.0
76.341	3.0
76.356	2.0
76.371	5.0
76.386	6.0
76.401	4.0
76.416	1.0
76.431	7.0
76.446	4.0
76.462	2.0
76.477	3.0
76.492	2.0
76.507	4.0
76.522	2.0
76.537	4.0
76.552	0.0
76.567	2.0
76.583	4.0
76.598	4.0
76.613	1.0
76.628	3.0
76.643	8.0
76.658	4.0
76.673	3.0
76.688	5.0
76.704	1.0
76.719	4.0
76.734	3.0
76.749	10.0
76.764	6.0
76.779	7.0
76.794	5.0
76.809	2.0
76.824	3.0
76.84	2.0
76.855	1.0
76.87	6.0
76.885	3.0
76.9	2.0
76.915	1.0
76.93	3.0
76.945	4.0
76.96	3.0
76.976	2.0
76.991	5.0
77.006	3.0
77.021	2.0
77.036	3.0
77.051	3.0
77.066	1.0
77.081	5.0
77.096	3.0
77.112	1.0
77.127	4.0
77.142	1.0
77.157	2.0
77.172	5.0
77.187	4.0
77.202	3.0
77.217	3.0
77.232	0.0
77.247	3.0
77.263	3.0
77.278	0.0
77.293	6.0
77.308	5.0
77.323	3.0
77.338	4.0
77.353	4.0
77.368	9.0
77.383	4.0
77.398	4.0
77.413	2.0
77.428	2.0
77.444	4.0
77.459	2.0
77.474	2.0
77.489	2.0
77.504	3.0
77.519	1.0
77.534	4.0
77.549	5.0
77.564	3.0
77.579	3.0
77.594	3.0
77.609	2.0
77.624	5.0
77.64	5.0
77.655	3.0
77.67	7.0
77.685	5.0
77.7	3.0
77.715	6.0
77.73	3.0
77.745	3.0
77.76	6.0
77.775	4.0
77.79	5.0
77.805	5.0
77.82	1.0
77.835	5.0
77.85	3.0
77.865	2.0
77.88	2.0
77.895	3.0
77.91	0.0
77.926	4.0
77.941	3.0
77.956	5.0
77.971	3.0
77.986	3.0
78.001	1.0
78.016	1.0
78.031	2.0
78.046	2.0
78.061	5.0
78.076	7.0
78.091	4.0
78.106	3.0
78.121	6.0
78.136	2.0
78.151	5.0
78.166	6.0
78.181	5.0
78.196	2.0
78.211	5.0
78.226	1.0
78.241	3.0
78.256	2.0
78.271	7.0
78.286	5.0
78.301	4.0
78.316	5.0
78.331	4.0
78.346	1.0
78.361	1.0
78.376	4.0
78.391	7.0
78.406	6.0
78.421	4.0
78.436	0.0
78.451	4.0
78.466	4.0
78.481	4.0
78.496	2.0
78.511	2.0
78.526	4.0
78.541	2.0
78.556	5.0
78.571	5.0
78.586	6.0
78.601	3.0
78.616	2.0
78.631	3.0
78.646	1.0
78.661	3.0
78.676	4.0
78.691	2.0
78.706	4.0
78.721	2.0
78.736	0.0
78.751	7.0
78.766	2.0
78.781	2.0
78.796	1.0
78.811	2.0
78.826	1.0
78.841	8.0
78.856	5.0
78.871	5.0
78.885	1.0
78.9	6.0
78.915	3.0
78.93	2.0
78.945	1.0
78.96	9.0
78.975	5.0
78.99	2.0
79.005	2.0
79.02	4.0
79.035	5.0
79.05	1.0
79.065	4.0
79.08	1.0
79.095	4.0
79.11	3.0
79.125	5.0
79.14	3.0
79.155	1.0
79.17	1.0
79.185	3.0
79.2	0.0
79.215	2.0
79.23	2.0
79.245	1.0
79.26	2.0
79.275	3.0
79.29	4.0
79.304	2.0
79.319	2.0
79.334	5.0
79.349	4.0
79.364	2.0
79.379	2.0
79.394	7.0
79.409	3.0
79.424	4.0
79.439	4.0
79.454	5.0
79.469	4.0
79.484	4.0
79.499	2.0
79.514	4.0
79.529	3.0
79.544	1.0
79.559	4.0
79.574	2.0
79.589	1.0
79.604	2.0
79.619	1.0
79.634	2.0
79.649	5.0
79.664	3.0
79.679	4.0
79.693	3.0
79.708	4.0
79.723	5.0
79.738	2.0
79.753	5.0
79.768	5.0
79.783	5.0
79.798	3.0
79.813	1.0
79.828	2.0
79.843	1.0
79.858	7.0
79.873	4.0
79.888	1.0
79.903	2.0
79.918	1.0
79.933	4.0
79.948	3.0
79.963	3.0
79.978	5.0
79.993	2.0
80.008	3.0
80.023	0.0
80.038	2.0
80.053	0.0
80.068	2.0
80.083	1.0
80.098	3.0
80.113	3.0
80.128	6.0
80.143	3.0
80.158	2.0
80.173	2.0
80.188	6.0
80.202	2.0
80.217	2.0
80.232	5.0
80.247	6.0
80.262	3.0
80.277	2.0
80.292	3.0
80.307	0.0
80.322	5.0
80.337	5.0
80.352	6.0
80.367	4.0
80.382	3.0
80.397	2.0
80.412	3.0
80.427	3.0
80.442	4.0
80.457	2.0
80.472	2.0
80.487	5.0
80.502	2.0
80.517	0.0
80.532	4.0
80.547	5.0
80.562	5.0
80.577	1.0
80.592	3.0
80.607	2.0
80.622	2.0
80.637	1.0
80.652	4.0
80.667	2.0
80.682	5.0
80.697	5.0
80.712	3.0
80.727	1.0
80.742	2.0
80.757	1.0
80.772	7.0
80.787	2.0
80.802	2.0
80.817	2.0
80.832	4.0
80.847	3.0
80.862	6.0
80.877	3.0
80.892	3.0
80.907	3.0
80.922	3.0
80.937	2.0
80.952	2.0
80.967	1.0
80.982	5.0
80.997	3.0
81.012	5.0
81.027	4.0
81.042	2.0
81.057	3.0
81.072	4.0
81.087	2.0
81.101	8.0
81.116	3.0
81.131	1.0
81.146	4.0
81.161	5.0
81.176	2.0
81.191	4.0
81.206	4.0
81.221	4.0
81.236	4.0
81.251	2.0
81.266	6.0
81.281	5.0
81.296	3.0
81.311	2.0
81.326	3.0
81.341	2.0
81.356	1.0
81.371	2.0
81.386	3.0
81.401	8.0
81.416	2.0
81.431	2.0
81.446	1.0
81.461	4.0
81.476	0.0
81.491	0.0
81.506	2.0
81.521	5.0
81.536	3.0
81.55	3.0
81.565	2.0
81.58	2.0
81.595	3.0
81.61	2.0
81.625	8.0
81.64	3.0
81.655	1.0
81.67	3.0
81.685	4.0
81.7	4.0
81.715	7.0
81.73	4.0
81.745	3.0
81.76	3.0
81.775	5.0
81.79	4.0
81.805	9.0
81.819	2.0
81.834	2.0
81.849	5.0
81.864	4.0
81.879	3.0
81.894	6.0
81.909	3.0
81.924	3.0
81.939	3.0
81.954	2.0
81.969	6.0
81.984	7.0
81.999	0.0
82.013	5.0
82.028	3.0
82.043	5.0
82.058	5.0
82.073	2.0
82.088	3.0
82.103	2.0
82.118	2.0
82.133	2.0
82.148	2.0
82.163	5.0
82.177	4.0
82.192	5.0
82.207	2.0
82.222	3.0
82.237	1.0
82.252	3.0
82.267	4.0
82.282	5.0
82.297	3.0
82.312	1.0
82.326	5.0
82.341	1.0
82.356	4.0
82.371	5.0
82.386	5.0
82.401	3.0
82.416	2.0
82.431	2.0
82.445	3.0
82.46	2.0
82.475	5.0
82.49	7.0
82.505	4.0
82.52	3.0
82.535	5.0
82.55	2.0
82.565	3.0
82.579	3.0
82.594	1.0
82.609	4.0
82.624	2.0
82.639	6.0
82.654	2.0
82.669	3.0
82.684	3.0
82.698	2.0
82.713	1.0
82.728	3.0
82.743	2.0
82.758	2.0
82.773	2.0
82.788	6.0
82.803	3.0
82.817	5.0
82.832	4.0
82.847	2.0
82.862	3.0
82.877	6.0
82.892	3.0
82.907	4.0
82.922	3.0
82.937	4.0
82.951	4.0
82.966	2.0
82.981	4.0
82.996	4.0
83.011	1.0
83.026	3.0
83.041	2.0
83.056	1.0
83.07	1.0
83.085	0.0
83.1	0.0
83.115	4.0
83.13	2.0
83.145	5.0
83.16	5.0
83.175	1.0
83.19	2.0
83.204	2.0
83.219	2.0
83.234	4.0
83.249	4.0
83.264	2.0
83.279	2.0
83.294	4.0
83.309	4.0
83.324	4.0
83.339	5.0
83.353	4.0
83.368	2.0
83.383	4.0
83.398	2.0
83.413	5.0
83.428	3.0
83.443	2.0
83.458	6.0
83.473	0.0
83.488	2.0
83.503	4.0
83.517	4.0
83.532	2.0
83.547	2.0
83.562	3.0
83.577	2.0
83.592	3.0
83.607	7.0
83.622	3.0
83.637	2.0
83.652	0.0
83.667	1.0
83.682	1.0
83.697	3.0
83.712	1.0
83.727	2.0
83.741	3.0
83.756	2.0
83.771	3.0
83.786	2.0
83.801	5.0
83.816	1.0
83.831	3.0
83.846	5.0
83.861	2.0
83.876	3.0
83.891	4.0
83.906	3.0
83.921	3.0
83.936	1.0
83.951	4.0
83.966	4.0
83.981	0.0
83.996	2.0
84.011	3.0
84.026	4.0
84.041	1.0
84.056	2.0
84.071	6.0
84.086	2.0
84.101	3.0
84.116	6.0
84.131	5.0
84.146	2.0
84.161	3.0
84.176	5.0
84.191	1.0
84.206	3.0
84.221	6.0
84.236	5.0
84.251	2.0
84.266	6.0
84.281	2.0
84.296	6.0
84.311	3.0
84.326	3.0
84.341	3.0
84.356	0.0
84.371	4.0
84.386	7.0
84.401	1.0
84.416	4.0
84.431	5.0
84.446	5.0
84.461	1.0
84.476	6.0
84.492	2.0
84.507	5.0
84.522	5.0
84.537	2.0
84.552	2.0
84.567	2.0
84.582	2.0
84.597	3.0
84.612	2.0
84.627	5.0
84.642	1.0
84.657	2.0
84.672	1.0
84.687	6.0
84.702	3.0
84.717	3.0
84.733	4.0
84.748	2.0
84.763	2.0
84.778	3.0
84.793	5.0
84.808	2.0
84.823	4.0
84.838	1.0
84.853	3.0
84.868	5.0
84.883	2.0
84.898	5.0
84.913	3.0
84.929	5.0
84.944	3.0
84.959	6.0
84.974	4.0
84.989	4.0
85.004	3.0
85.019	6.0
85.034	1.0
85.049	3.0
85.064	2.0
85.079	3.0
85.094	3.0
85.11	0.0
85.125	5.0
85.14	5.0
85.155	2.0
85.17	3.0
85.185	4.0
85.2	0.0
85.215	2.0
85.23	3.0
85.245	4.0
85.26	3.0
85.276	2.0
85.291	3.0
85.306	2.0
85.321	1.0
85.336	3.0
85.351	4.0
85.366	3.0
85.381	1.0
85.396	2.0
85.411	4.0
85.426	3.0
85.441	1.0
85.457	1.0
85.472	5.0
85.487	0.0
85.502	4.0
85.517	3.0
85.532	2.0
85.547	1.0
85.562	5.0
85.577	7.0
85.592	2.0
85.607	2.0
85.622	3.0
85.637	9.0
85.653	4.0
85.668	0.0
85.683	2.0
85.698	5.0
85.713	3.0
85.728	4.0
85.743	2.0
85.758	2.0
85.773	3.0
85.788	5.0
85.803	5.0
85.818	3.0
85.833	4.0
85.848	3.0
85.863	1.0
85.879	1.0
85.894	3.0
85.909	4.0
85.924	1.0
85.939	4.0
85.954	3.0
85.969	1.0
85.984	0.0
85.999	3.0
86.014	2.0
86.029	2.0
86.044	3.0
86.059	5.0
86.074	3.0
86.089	4.0
86.104	4.0
86.119	0.0
86.134	4.0
86.149	6.0
86.164	3.0
86.179	0.0
86.194	2.0
86.209	2.0
86.224	5.0
86.239	4.0
86.254	5.0
86.269	1.0
86.284	4.0
86.299	4.0
86.314	3.0
86.33	1.0
86.345	2.0
86.36	4.0
86.375	4.0
86.39	1.0
86.405	3.0
86.42	4.0
86.435	1.0
86.45	4.0
86.465	4.0
86.48	2.0
86.495	2.0
86.51	3.0
86.525	1.0
86.54	11.0
86.555	0.0
86.57	2.0
86.585	3.0
86.6	2.0
86.615	1.0
86.63	3.0
86.645	2.0
86.659	6.0
86.674	2.0
86.689	5.0
86.704	2.0
86.719	3.0
86.734	0.0
86.749	3.0
86.764	3.0
86.779	7.0
86.794	2.0
86.809	4.0
86.824	7.0
86.839	3.0
86.854	4.0
86.869	3.0
86.884	5.0
86.899	7.0
86.914	6.0
86.929	12.0
86.944	7.0
86.959	3.0
86.974	2.0
86.989	10.0
87.004	4.0
87.019	5.0
87.034	5.0
87.049	6.0
87.064	3.0
87.079	6.0
87.094	3.0
87.109	3.0
87.124	2.0
87.139	6.0
87.154	2.0
87.169	4.0
87.184	4.0
87.199	0.0
87.214	4.0
87.229	3.0
87.244	2.0
87.259	6.0
87.274	4.0
87.289	4.0
87.304	3.0
87.319	3.0
87.334	3.0
87.349	1.0
87.364	3.0
87.379	7.0
87.394	3.0
87.409	3.0
87.424	5.0
87.438	1.0
87.453	2.0
87.468	2.0
87.483	4.0
87.498	3.0
87.513	6.0
87.528	4.0
87.543	2.0
87.558	3.0
87.573	7.0
87.588	1.0
87.603	5.0
87.618	3.0
87.633	6.0
87.648	5.0
87.663	5.0
87.678	3.0
87.693	6.0
87.708	3.0
87.723	4.0
87.738	4.0
87.753	5.0
87.768	6.0
87.783	3.0
87.798	4.0
87.813	5.0
87.828	2.0
87.843	1.0
87.858	5.0
87.873	1.0
87.888	7.0
87.903	2.0
87.918	1.0
87.933	1.0
87.948	4.0
87.963	1.0
87.978	3.0
87.993	0.0
88.008	4.0
88.023	1.0
88.038	2.0
88.053	1.0
88.068	2.0
88.083	3.0
88.098	1.0
88.113	8.0
88.128	1.0
88.143	3.0
88.158	2.0
88.174	3.0
88.189	1.0
88.204	1.0
88.219	4.0
88.234	5.0
88.249	4.0
88.264	1.0
88.279	1.0
88.294	4.0
88.309	4.0
88.324	3.0
88.339	3.0
88.354	5.0
88.369	0.0
88.384	0.0
88.399	2.0
88.414	7.0
88.429	2.0
88.444	5.0
88.459	2.0
88.474	4.0
88.489	1.0
88.504	2.0
88.519	1.0
88.534	5.0
88.549	2.0
88.564	1.0
88.58	2.0
88.595	5.0
88.61	5.0
88.625	2.0
88.64	5.0
88.655	8.0
88.67	3.0
88.685	3.0
88.7	5.0
88.715	3.0
88.73	4.0
88.745	5.0
88.76	4.0
88.775	2.0
88.79	2.0
88.805	2.0
88.82	2.0
88.835	3.0
88.85	1.0
88.865	3.0
88.88	2.0
88.895	5.0
88.911	2.0
88.926	4.0
88.941	0.0
88.956	4.0
88.971	1.0
88.986	2.0
89.001	3.0
89.016	4.0
89.031	3.0
89.046	2.0
89.061	7.0
89.076	4.0
89.091	0.0
89.106	5.0
89.121	5.0
89.136	4.0
89.151	5.0
89.166	1.0
89.181	3.0
89.196	5.0
89.211	4.0
89.227	1.0
89.242	1.0
89.257	3.0
89.272	1.0
89.287	5.0
89.302	3.0
89.317	3.0
89.332	5.0
89.347	3.0
89.362	5.0
89.377	4.0
89.392	3.0
89.407	2.0
89.422	5.0
89.437	6.0
89.452	5.0
89.467	2.0
89.482	4.0
89.497	3.0
89.512	5.0
89.527	3.0
89.542	1.0
89.557	1.0
89.572	1.0
89.587	5.0
89.602	3.0
89.617	1.0
89.632	2.0
89.647	3.0
89.662	3.0
89.677	4.0
89.693	4.0
89.708	2.0
89.723	1.0
89.738	2.0
89.753	6.0
89.768	1.0
89.783	4.0
89.798	2.0
89.813	2.0
89.828	3.0
89.843	3.0
89.858	2.0
89.873	3.0
89.888	4.0
89.903	2.0
89.918	3.0
89.933	1.0
89.948	3.0
89.963	1.0
89.978	5.0
89.993	2.0
90.008	2.0
90.023	4.0
90.038	3.0
90.053	2.0
90.068	6.0
90.083	4.0
90.097	6.0
90.112	2.0
90.127	4.0
90.142	5.0
90.157	1.0
90.172	4.0
90.187	4.0
90.202	6.0
90.217	4.0
90.232	4.0
90.247	2.0
90.262	3.0
90.277	4.0
90.292	3.0
90.307	5.0
90.322	1.0
90.337	2.0
90.352	0.0
90.367	4.0
90.382	2.0
90.397	2.0
90.412	3.0
90.427	1.0
90.442	1.0
90.457	6.0
90.472	0.0
90.487	5.0
90.501	3.0
90.516	4.0
90.531	6.0
90.546	3.0
90.561	1.0
90.576	3.0
90.591	5.0
90.606	4.0
90.621	2.0
90.636	3.0
90.651	4.0
90.666	2.0
90.681	3.0
90.696	6.0
90.711	2.0
90.726	2.0
90.741	3.0
90.755	4.0
90.77	3.0
90.785	1.0
90.8	4.0
90.815	3.0
90.83	6.0
90.845	5.0
90.86	6.0
90.875	6.0
90.89	2.0
90.905	4.0
90.92	1.0
90.935	5.0
90.95	3.0
90.965	2.0
90.979	2.0
90.994	3.0
91.009	4.0
91.024	3.0
91.039	1.0
91.054	5.0
91.069	4.0
91.084	4.0
91.099	0.0
91.114	5.0
91.129	6.0
91.144	3.0
91.159	4.0
91.174	4.0
91.188	1.0
91.203	4.0
91.218	0.0
91.233	5.0
91.248	2.0
91.263	2.0
91.278	4.0
91.293	5.0
91.308	3.0
91.323	2.0
91.338	8.0
91.353	2.0
91.368	4.0
91.383	5.0
91.398	3.0
91.412	3.0
91.427	3.0
91.442	5.0
91.457	4.0
91.472	1.0
91.487	2.0
91.502	1.0
91.517	5.0
91.532	4.0
91.547	3.0
91.562	2.0
91.577	2.0
91.592	2.0
91.607	2.0
91.622	3.0
91.637	3.0
91.652	4.0
91.666	7.0
91.681	1.0
91.696	0.0
91.711	3.0
91.726	3.0
91.741	2.0
91.756	4.0
91.771	3.0
91.786	3.0
91.801	1.0
91.816	1.0
91.831	4.0
91.846	1.0
91.861	4.0
91.876	5.0
91.891	0.0
91.906	2.0
91.921	1.0
91.936	2.0
91.951	4.0
91.966	1.0
91.981	5.0
91.995	6.0
92.01	5.0
92.025	1.0
92.04	1.0
92.055	1.0
92.07	4.0
92.085	0.0
92.1	2.0
92.115	2.0
92.13	3.0
92.145	1.0
92.16	5.0
92.175	3.0
92.19	0.0
92.205	3.0
92.22	3.0
92.235	5.0
92.25	3.0
92.265	4.0
92.28	4.0
92.295	0.0
92.31	1.0
92.325	4.0
92.34	5.0
92.355	2.0
92.37	2.0
92.385	4.0
92.4	5.0
92.415	5.0
92.43	2.0
92.445	1.0
92.46	1.0
92.475	5.0
92.49	3.0
92.505	2.0
92.52	3.0
92.535	2.0
92.55	2.0
92.565	5.0
92.58	2.0
92.595	2.0
92.61	4.0
92.625	1.0
92.64	4.0
92.655	6.0
92.67	2.0
92.685	0.0
92.7	4.0
92.715	7.0
92.73	2.0
92.745	3.0
92.76	3.0
92.775	3.0
92.79	6.0
92.805	1.0
92.82	5.0
92.835	1.0
92.85	2.0
92.865	0.0
92.88	8.0
92.895	3.0
92.91	3.0
92.925	0.0
92.94	6.0
92.955	1.0
92.97	1.0
92.985	3.0
93.0	1.0
93.015	4.0
93.03	3.0
93.045	1.0
93.06	4.0
93.075	5.0
93.09	5.0
93.105	6.0
93.12	3.0
93.135	4.0
93.15	4.0
93.165	2.0
93.18	4.0
93.195	2.0
93.21	3.0
93.225	5.0
93.24	2.0
93.255	3.0
93.27	4.0
93.285	4.0
93.3	1.0
93.315	1.0
93.33	1.0
93.345	8.0
93.36	3.0
93.375	4.0
93.39	2.0
93.405	1.0
93.42	1.0
93.435	5.0
93.45	5.0
93.465	2.0
93.48	6.0
93.495	3.0
93.51	8.0
93.525	0.0
93.54	3.0
93.555	5.0
93.57	2.0
93.585	0.0
93.6	3.0
93.615	3.0
93.63	4.0
93.645	3.0
93.66	2.0
93.675	3.0
93.69	4.0
93.705	5.0
93.72	2.0
93.735	3.0
93.75	2.0
93.765	6.0
93.78	6.0
93.795	3.0
93.81	2.0
93.824	5.0
93.839	2.0
93.854	4.0
93.869	3.0
93.884	2.0
93.899	8.0
93.914	3.0
93.929	2.0
93.944	1.0
93.959	3.0
93.974	3.0
93.989	4.0
94.004	2.0
94.019	7.0
94.034	3.0
94.049	4.0
94.064	2.0
94.079	1.0
94.094	6.0
94.108	3.0
94.123	3.0
94.138	2.0
94.153	2.0
94.168	2.0
94.183	5.0
94.198	5.0
94.213	1.0
94.228	3.0
94.243	4.0
94.258	4.0
94.273	5.0
94.288	5.0
94.302	3.0
94.317	7.0
94.332	1.0
94.347	3.0
94.362	1.0
94.377	4.0
94.392	7.0
94.407	3.0
94.422	6.0
94.437	5.0
94.452	2.0
94.466	5.0
94.481	0.0
94.496	7.0
94.511	5.0
94.526	2.0
94.541	4.0
94.556	2.0
94.571	1.0
94.586	3.0
94.601	4.0
94.615	3.0
94.63	2.0
94.645	3.0
94.66	3.0
94.675	5.0
94.69	4.0
94.705	1.0
94.72	4.0
94.735	7.0
94.749	4.0
94.764	4.0
94.779	2.0
94.794	2.0
94.809	4.0
94.824	3.0
94.839	3.0
94.854	6.0
94.868	3.0
94.883	2.0
94.898	3.0
94.913	1.0
94.928	3.0
94.943	5.0
94.958	3.0
94.973	3.0
94.987	4.0
95.002	2.0
95.017	2.0
95.032	2.0
95.047	5.0
95.062	5.0
95.077	2.0
95.092	1.0
95.106	1.0
95.121	5.0
95.136	1.0
95.151	3.0
95.166	6.0
95.181	3.0
95.196	3.0
95.211	3.0
95.226	4.0
95.24	7.0
95.255	7.0
95.27	4.0
95.285	5.0
95.3	6.0
95.315	1.0
95.33	4.0
95.345	1.0
95.359	5.0
95.374	3.0
95.389	4.0
95.404	1.0
95.419	7.0
95.434	3.0
95.449	4.0
95.464	6.0
95.478	0.0
95.493	4.0
95.508	1.0
95.523	4.0
95.538	2.0
95.553	4.0
95.568	2.0
95.583	3.0
95.597	1.0
95.612	3.0
95.627	3.0
95.642	2.0
95.657	0.0
95.672	3.0
95.687	1.0
95.702	4.0
95.717	7.0
95.731	2.0
95.746	1.0
95.761	2.0
95.776	4.0
95.791	6.0
95.806	5.0
95.821	3.0
95.836	6.0
95.851	4.0
95.866	5.0
95.88	3.0
95.895	1.0
95.91	6.0
95.925	4.0
95.94	3.0
95.955	4.0
95.97	5.0
95.985	5.0
96.0	1.0
96.015	2.0
96.029	6.0
96.044	3.0
96.059	4.0
96.074	4.0
96.089	3.0
96.104	5.0
96.119	5.0
96.134	4.0
96.149	4.0
96.164	4.0
96.179	3.0
96.194	6.0
96.208	4.0
96.223	6.0
96.238	4.0
96.253	3.0
96.268	6.0
96.283	0.0
96.298	4.0
96.313	2.0
96.328	3.0
96.343	2.0
96.358	3.0
96.373	4.0
96.388	6.0
96.403	0.0
96.417	5.0
96.432	3.0
96.447	4.0
96.462	3.0
96.477	3.0
96.492	4.0
96.507	2.0
96.522	2.0
96.537	3.0
96.552	1.0
96.567	6.0
96.582	5.0
96.597	0.0
96.612	5.0
96.627	3.0
96.642	5.0
96.656	3.0
96.671	4.0
96.686	9.0
96.701	3.0
96.716	2.0
96.731	2.0
96.746	3.0
96.761	2.0
96.776	3.0
96.791	3.0
96.806	6.0
96.821	5.0
96.836	4.0
96.851	4.0
96.866	0.0
96.881	5.0
96.896	2.0
96.911	1.0
96.926	6.0
96.94	4.0
96.955	4.0
96.97	3.0
96.985	2.0
97.0	6.0
97.015	4.0
97.03	3.0
97.045	0.0
97.06	1.0
97.075	4.0
97.09	3.0
97.105	5.0
97.12	4.0
97.135	2.0
97.15	4.0
97.165	5.0
97.18	4.0
97.195	2.0
97.21	3.0
97.225	3.0
97.239	3.0
97.254	2.0
97.269	3.0
97.284	5.0
97.299	1.0
97.314	8.0
97.329	1.0
97.344	2.0
97.359	1.0
97.374	6.0
97.389	2.0
97.404	4.0
97.419	3.0
97.434	2.0
97.449	3.0
97.464	1.0
97.479	3.0
97.494	4.0
97.509	7.0
97.524	5.0
97.538	4.0
97.553	3.0
97.568	1.0
97.583	2.0
97.598	5.0
97.613	2.0
97.628	2.0
97.643	5.0
97.658	7.0
97.673	4.0
97.688	5.0
97.703	4.0
97.718	4.0
97.733	7.0
97.748	6.0
97.763	4.0
97.778	8.0
97.792	4.0
97.807	3.0
97.822	5.0
97.837	3.0
97.852	4.0
97.867	2.0
97.882	3.0
97.897	3.0
97.912	4.0
97.927	1.0
97.942	2.0
97.957	6.0
97.972	0.0
97.987	4.0
98.001	2.0
98.016	4.0
98.031	3.0
98.046	6.0
98.061	4.0
98.076	3.0
98.091	2.0
98.106	2.0
98.121	4.0
98.136	6.0
98.151	3.0
98.166	1.0
98.181	0.0
98.195	3.0
98.21	3.0
98.225	3.0
98.24	3.0
98.255	2.0
98.27	2.0
98.285	3.0
98.3	6.0
98.315	2.0
98.33	3.0
98.345	6.0
98.359	4.0
98.374	4.0
98.389	2.0
98.404	4.0
98.419	2.0
98.434	2.0
98.449	3.0
98.464	1.0
98.479	5.0
98.494	3.0
98.508	3.0
98.523	3.0
98.538	2.0
98.553	6.0
98.568	3.0
98.583	4.0
98.598	4.0
98.613	3.0
98.628	3.0
98.642	2.0
98.657	3.0
98.672	3.0
98.687	2.0
98.702	1.0
98.717	6.0
98.732	2.0
98.747	4.0
98.762	1.0
98.776	1.0
98.791	0.0
98.806	1.0
98.821	2.0
98.836	7.0
98.851	4.0
98.866	2.0
98.881	5.0
98.896	2.0
98.91	4.0
98.925	3.0
98.94	4.0
98.955	5.0
98.97	4.0
98.985	7.0
99.0	4.0
99.015	6.0
99.029	3.0
99.044	2.0
99.059	2.0
99.074	6.0
99.089	4.0
99.104	3.0
99.119	5.0
99.133	3.0
99.148	0.0
99.163	0.0
99.178	4.0
99.193	2.0
99.208	2.0
99.223	1.0
99.238	3.0
99.252	3.0
99.267	3.0
99.282	3.0
99.297	3.0
99.312	5.0
99.327	2.0
99.342	2.0
99.356	1.0
99.371	3.0
99.386	7.0
99.401	6.0
99.416	6.0
99.431	3.0
99.446	5.0
99.461	4.0
99.475	3.0
99.49	7.0
99.505	3.0
99.52	2.0
99.535	4.0
99.55	5.0
99.565	4.0
99.579	2.0
99.594	2.0
99.609	1.0
99.624	4.0
99.639	5.0
99.654	2.0
99.669	1.0
99.683	6.0
99.698	3.0
99.713	2.0
99.728	0.0
99.743	9.0
99.758	5.0
99.772	5.0
99.787	3.0
99.802	2.0
99.817	3.0
99.832	3.0
99.847	1.0
99.862	3.0
99.876	2.0
99.891	5.0
99.906	3.0
99.921	0.0
99.936	4.0
99.951	4.0
99.966	1.0
99.98	4.0
99.995	3.0
100.01	1.0
100.025	3.0
100.04	4.0
100.055	3.0
100.069	2.0
100.084	4.0
100.099	0.0
100.114	6.0
100.129	3.0
100.144	4.0
100.159	4.0
100.173	3.0
100.188	2.0
100.203	5.0
100.218	4.0
100.233	0.0
100.248	2.0
100.262	7.0
100.277	3.0
100.292	3.0
100.307	3.0
100.322	5.0
100.337	5.0
100.351	1.0
100.366	2.0
100.381	11.0
100.396	7.0
100.411	6.0
100.426	6.0
100.441	2.0
100.455	4.0
100.47	2.0
100.485	1.0
100.5	4.0
100.515	4.0
100.53	6.0
100.544	3.0
100.559	3.0
100.574	3.0
100.589	2.0
100.604	3.0
100.619	8.0
100.633	4.0
100.648	3.0
100.663	3.0
100.678	2.0
100.693	1.0
100.708	2.0
100.722	1.0
100.737	4.0
100.752	4.0
100.767	4.0
100.782	6.0
100.796	3.0
100.811	3.0
100.826	5.0
100.841	1.0
100.856	4.0
100.871	0.0
100.885	0.0
100.9	0.0
100.915	3.0
100.93	4.0
100.945	4.0
100.96	6.0
100.974	5.0
100.989	1.0
101.004	5.0
101.019	2.0
101.034	4.0
101.048	3.0
101.063	3.0
101.078	2.0
101.093	1.0
101.108	3.0
101.123	2.0
101.137	5.0
101.152	3.0
101.167	5.0
101.182	6.0
101.197	5.0
101.211	6.0
101.226	0.0
101.241	4.0
101.256	7.0
101.271	2.0
101.285	4.0
101.3	2.0
101.315	2.0
101.33	4.0
101.345	2.0
101.359	3.0
101.374	2.0
101.389	1.0
101.404	3.0
101.419	4.0
101.433	3.0
101.448	3.0
101.463	5.0
101.478	5.0
101.493	3.0
101.507	5.0
101.522	2.0
101.537	2.0
101.552	2.0
101.567	2.0
101.581	2.0
101.596	3.0
101.611	2.0
101.626	2.0
101.64	2.0
101.655	2.0
101.67	1.0
101.685	3.0
101.7	2.0
101.714	5.0
101.729	1.0
101.744	1.0
101.759	2.0
101.773	6.0
101.788	2.0
101.803	4.0
101.818	5.0
101.833	4.0
101.847	2.0
101.862	1.0
101.877	4.0
101.892	1.0
101.906	0.0
101.921	5.0
101.936	1.0
101.951	2.0
101.965	2.0
101.98	2.0
101.995	5.0
102.01	8.0
102.025	4.0
102.039	3.0
102.054	3.0
102.069	5.0
102.084	3.0
102.098	6.0
102.113	4.0
102.128	2.0
102.143	6.0
102.157	1.0
102.172	3.0
102.187	2.0
102.202	2.0
102.216	2.0
102.231	4.0
102.246	3.0
102.261	3.0
102.275	2.0
102.29	2.0
102.305	4.0
102.32	4.0
102.334	5.0
102.349	3.0
102.364	3.0
102.378	2.0
102.393	5.0
102.408	3.0
102.423	2.0
102.437	1.0
102.452	5.0
102.467	2.0
102.482	5.0
102.496	2.0
102.511	3.0
102.526	1.0
102.541	0.0
102.555	2.0
102.57	2.0
102.585	2.0
102.6	3.0
102.614	4.0
102.629	3.0
102.644	3.0
102.659	2.0
102.673	4.0
102.688	0.0
102.703	3.0
102.717	5.0
102.732	5.0
102.747	1.0
102.762	5.0
102.776	3.0
102.791	1.0
102.806	2.0
102.821	5.0
102.835	3.0
102.85	3.0
102.865	4.0
102.88	2.0
102.894	3.0
102.909	3.0
102.924	2.0
102.938	3.0
102.953	3.0
102.968	0.0
102.983	3.0
102.997	3.0
103.012	3.0
103.027	5.0
103.042	1.0
103.056	0.0
103.071	2.0
103.086	3.0
103.101	4.0
103.115	1.0
103.13	2.0
103.145	7.0
103.16	3.0
103.174	1.0
103.189	4.0
103.204	6.0
103.219	4.0
103.233	4.0
103.248	5.0
103.263	4.0
103.278	3.0
103.292	2.0
103.307	2.0
103.322	5.0
103.337	2.0
103.351	6.0
103.366	3.0
103.381	5.0
103.396	5.0
103.41	6.0
103.425	2.0
103.44	3.0
103.455	1.0
103.469	2.0
103.484	4.0
103.499	1.0
103.514	3.0
103.529	1.0
103.543	0.0
103.558	3.0
103.573	1.0
103.588	4.0
103.602	1.0
103.617	1.0
103.632	4.0
103.647	4.0
103.661	5.0
103.676	3.0
103.691	2.0
103.706	6.0
103.721	3.0
103.735	8.0
103.75	4.0
103.765	4.0
103.78	4.0
103.795	9.0
103.809	1.0
103.824	1.0
103.839	2.0
103.854	5.0
103.869	2.0
103.883	3.0
103.898	2.0
103.913	7.0
103.928	6.0
103.943	5.0
103.957	1.0
103.972	6.0
103.987	3.0
104.002	3.0
104.017	3.0
104.031	6.0
104.046	4.0
104.061	1.0
104.076	4.0
104.091	3.0
104.106	4.0
104.12	1.0
104.135	5.0
104.15	4.0
104.165	1.0
104.18	0.0
104.195	6.0
104.209	1.0
104.224	3.0
104.239	3.0
104.254	1.0
104.269	5.0
104.284	2.0
104.299	2.0
104.313	4.0
104.328	3.0
104.343	2.0
104.358	1.0
104.373	3.0
104.388	3.0
104.403	1.0
104.417	8.0
104.432	0.0
104.447	3.0
104.462	4.0
104.477	3.0
104.492	2.0
104.507	6.0
104.522	2.0
104.536	3.0
104.551	6.0
104.566	3.0
104.581	6.0
104.596	3.0
104.611	6.0
104.626	7.0
104.641	7.0
104.656	3.0
104.67	1.0
104.685	2.0
104.7	0.0
104.715	3.0
104.73	6.0
104.745	2.0
104.76	4.0
104.775	3.0
104.79	2.0
104.804	0.0
104.819	5.0
104.834	7.0
104.849	3.0
104.864	4.0
104.879	1.0
104.894	2.0
104.909	3.0
104.924	3.0
104.939	2.0
104.954	4.0
104.968	6.0
104.983	3.0
104.998	4.0
105.013	5.0
105.028	2.0
105.043	1.0
105.058	5.0
105.073	4.0
105.088	5.0
105.103	2.0
105.118	5.0
105.133	4.0
105.147	2.0
105.162	3.0
105.177	2.0
105.192	4.0
105.207	2.0
105.222	0.0
105.237	1.0
105.252	6.0
105.267	2.0
105.282	6.0
105.297	6.0
105.312	3.0
105.327	3.0
105.342	4.0
105.356	5.0
105.371	3.0
105.386	2.0
105.401	5.0
105.416	1.0
105.431	4.0
105.446	2.0
105.461	3.0
105.476	4.0
105.491	2.0
105.506	5.0
105.521	2.0
105.536	2.0
105.551	4.0
105.566	6.0
105.581	2.0
105.595	5.0
105.61	1.0
105.625	2.0
105.64	6.0
105.655	2.0
105.67	1.0
105.685	6.0
105.7	4.0
105.715	1.0
105.73	0.0
105.745	6.0
105.76	2.0
105.775	2.0
105.79	3.0
105.805	0.0
105.82	5.0
105.835	2.0
105.85	2.0
105.864	2.0
105.879	2.0
105.894	4.0
105.909	3.0
105.924	1.0
105.939	1.0
105.954	2.0
105.969	1.0
105.984	3.0
105.999	3.0
106.014	3.0
106.029	7.0
106.044	2.0
106.059	2.0
106.074	2.0
106.089	8.0
106.104	1.0
106.119	3.0
106.134	4.0
106.148	1.0
106.163	1.0
106.178	5.0
106.193	7.0
106.208	4.0
106.223	2.0
106.238	2.0
106.253	4.0
106.268	3.0
106.283	4.0
106.298	2.0
106.313	8.0
106.328	5.0
106.343	3.0
106.358	0.0
106.373	2.0
106.388	3.0
106.403	1.0
106.418	2.0
106.432	7.0
106.447	4.0
106.462	6.0
106.477	3.0
106.492	3.0
106.507	2.0
106.522	4.0
106.537	1.0
106.552	3.0
106.567	2.0
106.582	0.0
106.597	4.0
106.612	3.0
106.627	0.0
106.642	4.0
106.657	8.0
106.672	1.0
106.687	4.0
106.701	3.0
106.716	6.0
106.731	6.0
106.746	4.0
106.761	2.0
106.776	4.0
106.791	2.0
106.806	6.0
106.821	2.0
106.836	2.0
106.851	3.0
106.866	3.0
106.881	4.0
106.896	2.0
106.911	5.0
106.926	3.0
106.941	1.0
106.955	2.0
106.97	2.0
106.985	4.0
107.0	3.0
107.015	4.0
107.03	4.0
107.045	3.0
107.06	1.0
107.075	2.0
107.09	4.0
107.105	1.0
107.12	4.0
107.135	5.0
107.15	2.0
107.165	4.0
107.18	9.0
107.194	7.0
107.209	5.0
107.224	1.0
107.239	6.0
107.254	8.0
107.269	7.0
107.284	6.0
107.299	6.0
107.314	5.0
107.329	6.0
107.344	5.0
107.359	5.0
107.374	3.0
107.389	2.0
107.404	3.0
107.418	3.0
107.433	0.0
107.448	3.0
107.463	1.0
107.478	4.0
107.493	4.0
107.508	2.0
107.523	2.0
107.538	3.0
107.553	3.0
107.568	2.0
107.583	2.0
107.598	2.0
107.613	5.0
107.627	5.0
107.642	6.0
107.657	2.0
107.672	4.0
107.687	4.0
107.702	3.0
107.717	1.0
107.732	2.0
107.747	0.0
107.762	1.0
107.777	8.0
107.792	8.0
107.807	0.0
107.821	3.0
107.836	0.0
107.851	4.0
107.866	1.0
107.881	4.0
107.896	7.0
107.911	6.0
107.926	8.0
107.941	3.0
107.956	1.0
107.971	2.0
107.986	7.0
108.0	3.0
108.015	5.0
108.03	2.0
108.045	3.0
108.06	5.0
108.075	7.0
108.09	13.0
108.105	7.0
108.12	8.0
108.135	5.0
108.15	10.0
108.164	5.0
108.179	3.0
108.194	3.0
108.209	2.0
108.224	5.0
108.239	5.0
108.254	4.0
108.269	3.0
108.284	3.0
108.299	4.0
108.313	4.0
108.328	2.0
108.343	4.0
108.358	2.0
108.373	2.0
108.388	2.0
108.403	4.0
108.418	5.0
108.433	4.0
108.448	1.0
108.462	3.0
108.477	2.0
108.492	1.0
108.507	3.0
108.522	3.0
108.537	10.0
108.552	0.0
108.567	4.0
108.582	6.0
108.597	2.0
108.611	3.0
108.626	6.0
108.641	5.0
108.656	2.0
108.671	6.0
108.686	4.0
108.701	7.0
108.716	1.0
108.731	2.0
108.745	2.0
108.76	3.0
108.775	4.0
108.79	1.0
108.805	2.0
108.82	4.0
108.835	1.0
108.85	3.0
108.865	6.0
108.879	2.0
108.894	5.0
108.909	2.0
108.924	0.0
108.939	3.0
108.954	5.0
108.969	4.0
108.984	5.0
108.999	3.0
109.013	4.0
109.028	3.0
109.043	3.0
109.058	2.0
109.073	0.0
109.088	5.0
109.103	4.0
109.118	3.0
109.133	5.0
109.147	5.0
109.162	5.0
109.177	3.0
109.192	3.0
109.207	2.0
109.222	3.0
109.237	6.0
109.252	4.0
109.267	1.0
109.281	4.0
109.296	3.0
109.311	5.0
109.326	3.0
109.341	4.0
109.356	3.0
109.371	3.0
109.386	1.0
109.4	5.0
109.415	1.0
109.43	3.0
109.445	3.0
109.46	4.0
109.475	6.0
109.49	4.0
109.505	2.0
109.52	4.0
109.534	2.0
109.549	4.0
109.564	2.0
109.579	4.0
109.594	1.0
109.609	3.0
109.624	5.0
109.639	6.0
109.653	3.0
109.668	4.0
109.683	3.0
109.698	3.0
109.713	2.0
109.728	2.0
109.743	2.0
109.758	4.0
109.773	1.0
109.787	3.0
109.802	1.0
109.817	2.0
109.832	2.0
109.847	1.0
109.862	1.0
109.877	2.0
109.892	5.0
109.907	3.0
109.921	0.0
109.936	2.0
109.951	2.0
109.966	4.0
109.981	4.0
109.996	0.0
110.011	3.0
110.026	5.0
110.04	7.0
110.055	4.0
110.07	5.0
110.085	5.0
110.1	4.0
110.115	4.0
110.13	2.0
110.145	5.0
110.16	7.0
110.174	4.0
110.189	2.0
110.204	4.0
110.219	5.0
110.234	2.0
110.249	7.0
110.264	3.0
110.279	6.0
110.294	1.0
110.308	3.0
110.323	4.0
110.338	7.0
110.353	2.0
110.368	4.0
110.383	8.0
110.398	2.0
110.413	2.0
110.428	2.0
110.442	1.0
110.457	4.0
110.472	1.0
110.487	5.0
110.502	9.0
110.517	6.0
110.532	3.0
110.547	2.0
110.561	3.0
110.576	0.0
110.591	3.0
110.606	3.0
110.621	2.0
110.636	6.0
110.651	6.0
110.666	5.0
110.681	4.0
110.695	3.0
110.71	0.0
110.725	0.0
110.74	7.0
110.755	4.0
110.77	2.0
110.785	4.0
110.8	6.0
110.815	2.0
110.829	6.0
110.844	3.0
110.859	4.0
110.874	1.0
110.889	5.0
110.904	2.0
110.919	2.0
110.934	0.0
110.948	6.0
110.963	1.0
110.978	3.0
110.993	2.0
111.008	3.0
111.023	5.0
111.038	3.0
111.053	5.0
111.067	3.0
111.082	2.0
111.097	5.0
111.112	4.0
111.127	1.0
111.142	3.0
111.157	6.0
111.172	5.0
111.186	4.0
111.201	2.0
111.216	3.0
111.231	1.0
111.246	3.0
111.261	1.0
111.276	2.0
111.291	3.0
111.305	6.0
111.32	5.0
111.335	2.0
111.35	4.0
111.365	6.0
111.38	3.0
111.395	3.0
111.41	3.0
111.424	3.0
111.439	0.0
111.454	6.0
111.469	0.0
111.484	2.0
111.499	2.0
111.514	2.0
111.528	4.0
111.543	3.0
111.558	6.0
111.573	4.0
111.588	3.0
111.603	3.0
111.618	7.0
111.633	6.0
111.647	2.0
111.662	3.0
111.677	4.0
111.692	12.0
111.707	5.0
111.722	2.0
111.737	4.0
111.751	5.0
111.766	8.0
111.781	0.0
111.796	2.0
111.811	2.0
111.826	1.0
111.84	7.0
111.855	1.0
111.87	3.0
111.885	4.0
111.9	4.0
111.915	3.0
111.93	6.0
111.944	5.0
111.959	2.0
111.974	6.0
111.989	4.0
112.004	2.0
112.019	2.0
112.033	5.0
112.048	2.0
112.063	2.0
112.078	4.0
112.093	3.0
112.108	2.0
112.123	6.0
112.137	4.0
112.152	5.0
112.167	1.0
112.182	2.0
112.197	2.0
112.212	6.0
112.226	4.0
112.241	1.0
112.256	1.0
112.271	5.0
112.286	4.0
112.301	4.0
112.315	3.0
112.33	3.0
112.345	5.0
112.36	4.0
112.375	6.0
112.389	3.0
112.404	0.0
112.419	2.0
112.434	1.0
112.449	3.0
112.464	4.0
112.478	3.0
112.493	5.0
112.508	3.0
112.523	5.0
112.538	4.0
112.553	3.0
112.567	0.0
112.582	3.0
112.597	1.0
112.612	3.0
112.627	3.0
112.642	5.0
112.656	5.0
112.671	4.0
112.686	2.0
112.701	3.0
112.716	7.0
112.73	5.0
112.745	2.0
112.76	1.0
112.775	2.0
112.79	2.0
112.805	2.0
112.819	6.0
112.834	3.0
112.849	3.0
112.864	3.0
112.879	2.0
112.894	3.0
112.908	6.0
112.923	3.0
112.938	4.0
112.953	2.0
112.968	3.0
112.983	2.0
112.997	2.0
113.012	3.0
113.027	4.0
113.042	2.0
113.057	1.0
113.072	4.0
113.086	6.0
113.101	1.0
113.116	2.0
113.131	2.0
113.146	5.0
113.161	2.0
113.175	6.0
113.19	7.0
113.205	4.0
113.22	4.0
113.235	1.0
113.25	8.0
113.265	2.0
113.279	1.0
113.294	0.0
113.309	2.0
113.324	2.0
113.339	4.0
113.354	2.0
113.368	3.0
113.383	0.0
113.398	4.0
113.413	2.0
113.428	5.0
113.443	5.0
113.458	1.0
113.472	4.0
113.487	3.0
113.502	2.0
113.517	3.0
113.532	4.0
113.547	3.0
113.562	0.0
113.576	5.0
113.591	3.0
113.606	3.0
113.621	5.0
113.636	3.0
113.651	3.0
113.666	7.0
113.681	3.0
113.695	2.0
113.71	6.0
113.725	2.0
113.74	1.0
113.755	2.0
113.77	1.0
113.785	3.0
113.8	4.0
113.814	4.0
113.829	2.0
113.844	4.0
113.859	1.0
113.874	4.0
113.889	5.0
113.904	5.0
113.919	7.0
113.934	2.0
113.949	5.0
113.963	2.0
113.978	0.0
113.993	3.0
114.008	3.0
114.023	3.0
114.038	3.0
114.053	4.0
114.068	4.0
114.083	4.0
114.098	2.0
114.113	6.0
114.127	3.0
114.142	3.0
114.157	3.0
114.172	4.0
114.187	4.0
114.202	3.0
114.217	0.0
114.232	5.0
114.247	5.0
114.262	0.0
114.277	5.0
114.292	1.0
114.307	2.0
114.322	3.0
114.337	3.0
114.351	4.0
114.366	3.0
114.381	1.0
114.396	6.0
114.411	4.0
114.426	2.0
114.441	4.0
114.456	3.0
114.471	6.0
114.486	5.0
114.501	6.0
114.516	2.0
114.531	3.0
114.546	2.0
114.561	5.0
114.576	0.0
114.591	2.0
114.606	2.0
114.621	5.0
114.636	4.0
114.65	3.0
114.665	5.0
114.68	3.0
114.695	1.0
114.71	1.0
114.725	3.0
114.74	3.0
114.755	1.0
114.77	3.0
114.785	3.0
114.8	2.0
114.815	5.0
114.83	3.0
114.845	3.0
114.86	5.0
114.875	5.0
114.89	5.0
114.905	3.0
114.92	4.0
114.935	7.0
114.95	1.0
114.965	4.0
114.98	5.0
114.995	2.0
115.009	5.0
115.024	5.0
115.039	4.0
115.054	1.0
115.069	1.0
115.084	5.0
115.099	1.0
115.114	3.0
115.129	6.0
115.144	1.0
115.159	8.0
115.174	5.0
115.189	3.0
115.204	5.0
115.219	1.0
115.234	6.0
115.249	5.0
115.264	3.0
115.279	6.0
115.294	9.0
115.309	6.0
115.323	3.0
115.338	7.0
115.353	4.0
115.368	5.0
115.383	5.0
115.398	7.0
115.413	4.0
115.428	9.0
115.443	3.0
115.458	3.0
115.473	4.0
115.488	2.0
115.503	3.0
115.518	3.0
115.533	4.0
115.548	5.0
115.562	3.0
115.577	3.0
115.592	4.0
115.607	0.0
115.622	4.0
115.637	5.0
115.652	4.0
115.667	2.0
115.682	3.0
115.697	3.0
115.712	3.0
115.727	2.0
115.741	1.0
115.756	5.0
115.771	3.0
115.786	0.0
115.801	4.0
115.816	3.0
115.831	8.0
115.846	2.0
115.861	3.0
115.875	2.0
115.89	2.0
115.905	8.0
115.92	5.0
115.935	3.0
115.95	2.0
115.965	4.0
115.98	2.0
115.995	3.0
116.009	5.0
116.024	2.0
116.039	7.0
116.054	4.0
116.069	4.0
116.084	2.0
116.099	6.0
116.113	3.0
116.128	4.0
116.143	3.0
116.158	3.0
116.173	4.0
116.188	6.0
116.202	1.0
116.217	8.0
116.232	7.0
116.247	7.0
116.262	5.0
116.277	7.0
116.291	3.0
116.306	1.0
116.321	4.0
116.336	1.0
116.351	9.0
116.366	1.0
116.38	0.0
116.395	2.0
116.41	4.0
116.425	5.0
116.44	2.0
116.454	2.0
116.469	2.0
116.484	6.0
116.499	1.0
116.514	3.0
116.528	3.0
116.543	2.0
116.558	3.0
116.573	4.0
116.588	0.0
116.602	4.0
116.617	4.0
116.632	2.0
116.647	3.0
116.662	3.0
116.676	4.0
116.691	3.0
116.706	3.0
116.721	2.0
116.735	4.0
116.75	2.0
116.765	2.0
116.78	3.0
116.795	3.0
116.809	4.0
116.824	6.0
116.839	3.0
116.854	4.0
116.868	4.0
116.883	3.0
116.898	3.0
116.913	3.0
116.927	5.0
116.942	2.0
116.957	3.0
116.972	8.0
116.986	1.0
117.001	2.0
117.016	6.0
117.031	3.0
117.045	1.0
117.06	5.0
117.075	2.0
117.09	2.0
117.104	3.0
117.119	5.0
117.134	3.0
117.149	5.0
117.163	1.0
117.178	1.0
117.193	1.0
117.208	1.0
117.222	4.0
117.237	5.0
117.252	1.0
117.267	0.0
117.281	2.0
117.296	9.0
117.311	2.0
117.325	7.0
117.34	2.0
117.355	5.0
117.37	5.0
117.384	4.0
117.399	3.0
117.414	6.0
117.429	4.0
117.443	5.0
117.458	4.0
117.473	1.0
117.487	5.0
117.502	4.0
117.517	0.0
117.532	2.0
117.546	3.0
117.561	3.0
117.576	9.0
117.59	4.0
117.605	3.0
117.62	2.0
117.635	4.0
117.649	2.0
117.664	4.0
117.679	1.0
117.693	6.0
117.708	3.0
117.723	1.0
117.738	4.0
117.752	5.0
117.767	3.0
117.782	0.0
117.796	5.0
117.811	5.0
117.826	6.0
117.841	4.0
117.855	3.0
117.87	4.0
117.885	5.0
117.899	5.0
117.914	3.0
117.929	2.0
117.944	1.0
117.958	3.0
117.973	3.0
117.988	5.0
118.002	1.0
118.017	5.0
118.032	3.0
118.047	10.0
118.062	1.0
118.077	4.0
118.092	4.0
118.107	3.0
118.121	7.0
118.136	1.0
118.151	4.0
118.166	3.0
118.181	7.0
118.196	3.0
118.211	5.0
118.225	10.0
118.24	2.0
118.255	4.0
118.27	8.0
118.285	1.0
118.3	1.0
118.315	3.0
118.33	2.0
118.344	3.0
118.359	1.0
118.374	3.0
118.389	7.0
118.404	6.0
118.419	10.0
118.434	4.0
118.449	4.0
118.463	4.0
118.478	5.0
118.493	5.0
118.508	2.0
118.523	2.0
118.538	2.0
118.553	3.0
118.567	2.0
118.582	2.0
118.597	2.0
118.612	5.0
118.627	2.0
118.642	1.0
118.657	0.0
118.672	4.0
118.686	4.0
118.701	6.0
118.716	6.0
118.731	5.0
118.746	5.0
118.761	3.0
118.776	4.0
118.791	5.0
118.805	2.0
118.82	2.0
118.835	4.0
118.85	3.0
118.865	3.0
118.88	2.0
118.895	5.0
118.909	2.0
118.924	2.0
118.939	0.0
118.954	4.0
118.969	3.0
118.984	5.0
118.999	4.0
119.014	2.0
119.028	4.0
119.043	5.0
119.058	5.0
119.073	5.0
119.088	1.0
119.103	2.0
119.118	8.0
119.133	8.0
119.147	7.0
119.162	3.0
119.177	6.0
119.192	3.0
119.207	2.0
119.222	4.0
119.237	2.0
119.251	3.0
119.266	2.0
119.281	3.0
119.296	4.0
119.311	3.0
119.326	5.0
119.341	5.0
119.356	4.0
119.37	7.0
119.385	2.0
119.4	1.0
119.415	7.0
119.43	5.0
119.445	3.0
119.46	4.0
119.475	2.0
119.489	4.0
119.504	3.0
119.519	5.0
119.534	5.0
119.549	0.0
119.564	2.0
119.579	3.0
119.593	2.0
119.608	1.0
119.623	4.0
119.638	0.0
119.653	1.0
119.668	1.0
119.683	0.0
119.698	3.0
119.712	4.0
119.727	4.0
119.742	1.0
119.757	2.0
119.772	2.0
119.787	3.0
119.802	4.0
119.817	3.0
119.831	4.0
119.846	2.0
119.861	1.0
119.876	1.0
119.891	6.0
119.906	1.0
119.921	5.0
119.935	8.0
119.95	3.0
119.965	0.0
119.98	2.0
119.995	1.0
120.01	4.0
120.025	2.0
120.04	2.0
120.054	3.0
120.069	1.0
120.084	5.0
120.099	4.0
120.114	3.0
120.129	2.0
120.144	2.0
120.159	2.0
120.173	2.0
120.188	3.0
120.203	4.0
120.218	1.0
120.233	1.0
120.248	1.0
120.263	1.0
120.277	1.0
120.292	1.0
120.307	1.0
120.322	0.0
120.337	0.0
120.352	0.0
120.367	0.0
120.382	0.0
120.396	1.0
120.411	0.0
120.426	0.0
120.441	0.0
120.456	0.0
120.471	0.0
120.486	0.0
120.501	0.0
120.515	0.0
120.53	1.0
120.545	0.0
120.56	0.0
120.575	0.0
120.59	0.0
120.605	0.0
120.619	0.0
120.634	0.0
120.649	0.0
120.664	0.0
120.679	0.0
120.694	0.0
120.709	0.0
120.724	0.0
120.738	0.0
120.753	0.0
120.768	0.0
120.783	1.0
120.798	0.0
120.813	0.0
120.828	0.0
120.843	0.0
120.857	0.0
120.872	1.0
120.887	0.0
120.902	0.0
120.917	0.0
120.932	0.0
120.947	0.0
120.961	0.0
120.976	0.0
