-1.217	0.0
-1.202	0.0
-1.187	0.0
-1.172	0.0
-1.157	0.0
-1.142	0.0
-1.128	0.0
-1.113	0.0
-1.098	0.0
-1.083	0.0
-1.068	0.0
-1.054	0.0
-1.039	0.0
-1.024	1.0
-1.009	0.0
-0.994	0.0
-0.979	0.0
-0.965	0.0
-0.95	0.0
-0.935	0.0
-0.92	0.0
-0.905	0.0
-0.891	0.0
-0.876	0.0
-0.861	0.0
-0.846	0.0
-0.831	0.0
-0.816	0.0
-0.802	0.0
-0.787	0.0
-0.772	0.0
-0.757	0.0
-0.742	0.0
-0.728	0.0
-0.713	0.0
-0.698	0.0
-0.683	0.0
-0.668	0.0
-0.653	0.0
-0.639	1.0
-0.624	0.0
-0.609	0.0
-0.594	0.0
-0.579	0.0
-0.565	0.0
-0.55	0.0
-0.535	0.0
-0.52	0.0
-0.505	0.0
-0.49	0.0
-0.476	0.0
-0.461	0.0
-0.446	0.0
-0.431	0.0
-0.416	0.0
-0.401	0.0
-0.387	0.0
-0.372	0.0
-0.357	0.0
-0.342	0.0
-0.327	0.0
-0.313	0.0
-0.298	0.0
-0.283	1.0
-0.268	0.0
-0.253	0.0
-0.238	0.0
-0.224	0.0
-0.209	0.0
-0.194	0.0
-0.179	0.0
-0.164	0.0
-0.15	0.0
-0.135	0.0
-0.12	0.0
-0.105	0.0
-0.09	0.0
-0.075	0.0
-0.061	0.0
-0.046	0.0
-0.031	0.0
-0.016	0.0
-0.001	0.0
0.013	0.0
0.028	0.0
0.043	0.0
0.058	0.0
0.073	0.0
0.088	0.0
0.102	0.0
0.117	0.0
0.132	0.0
0.147	0.0
0.162	0.0
0.176	0.0
0.191	0.0
0.206	0.0
0.221	0.0
0.236	0.0
0.251	0.0
0.265	1.0
0.28	0.0
0.295	0.0
0.31	0.0
0.325	0.0
0.339	0.0
0.354	0.0
0.369	0.0
0.384	1.0
0.399	0.0
0.414	0.0
0.428	0.0
0.443	0.0
0.458	0.0
0.473	0.0
0.488	0.0
0.502	0.0
0.517	0.0
0.532	0.0
0.547	0.0
0.562	0.0
0.577	0.0
0.591	0.0
0.606	0.0
0.621	0.0
0.636	0.0
0.651	0.0
0.665	0.0
0.68	0.0
0.695	0.0
0.71	0.0
0.725	0.0
0.74	0.0
0.754	0.0
0.769	0.0
0.784	0.0
0.799	0.0
0.814	0.0
0.828	0.0
0.843	0.0
0.858	0.0
0.873	0.0
0.888	0.0
0.903	1.0
0.917	0.0
0.932	0.0
0.947	0.0
0.962	0.0
0.977	0.0
0.991	0.0
1.006	0.0
1.021	0.0
1.036	0.0
1.051	0.0
1.065	0.0
1.08	0.0
1.095	0.0
1.11	0.0
1.125	0.0
1.14	0.0
1.154	0.0
1.169	0.0
1.184	0.0
1.199	0.0
1.214	0.0
1.228	0.0
1.243	0.0
1.258	1.0
1.273	0.0
1.288	0.0
1.302	1.0
1.317	1.0
1.332	0.0
1.347	0.0
1.362	0.0
1.376	0.0
1.391	0.0
1.406	0.0
1.421	0.0
1.436	0.0
1.45	0.0
1.465	0.0
1.48	0.0
1.495	0.0
1.51	0.0
1.524	0.0
1.539	0.0
1.554	0.0
1.569	0.0
1.584	0.0
1.598	0.0
1.613	0.0
1.628	0.0
1.643	0.0
1.658	0.0
1.672	0.0
1.687	0.0
1.702	1.0
1.717	0.0
1.732	0.0
1.746	0.0
1.761	0.0
1.776	0.0
1.791	0.0
1.806	0.0
1.82	0.0
1.835	0.0
1.85	0.0
1.865	0.0
1.88	0.0
1.894	0.0
1.909	1.0
1.924	0.0
1.939	0.0
1.954	1.0
1.968	0.0
1.983	1.0
1.998	0.0
2.013	1.0
2.028	0.0
2.042	0.0
2.057	0.0
2.072	1.0
2.087	0.0
2.101	0.0
2.116	0.0
2.131	1.0
2.146	0.0
2.161	0.0
2.175	0.0
2.19	0.0
2.205	0.0
2.22	1.0
2.235	0.0
2.249	0.0
2.264	1.0
2.279	1.0
2.294	1.0
2.308	1.0
2.323	1.0
2.338	0.0
2.353	0.0
2.368	1.0
2.382	1.0
2.397	1.0
2.412	2.0
2.427	1.0
2.442	1.0
2.456	1.0
2.471	1.0
2.486	1.0
2.501	2.0
2.515	1.0
2.53	0.0
2.545	2.0
2.56	2.0
2.575	1.0
2.589	4.0
2.604	1.0
2.619	2.0
2.634	1.0
2.649	2.0
2.663	1.0
2.678	1.0
2.693	5.0
2.708	0.0
2.722	0.0
2.737	0.0
2.752	1.0
2.767	4.0
2.782	1.0
2.796	6.0
2.811	3.0
2.826	2.0
2.841	2.0
2.856	1.0
2.87	3.0
2.885	6.0
2.9	4.0
2.915	3.0
2.93	2.0
2.944	1.0
2.959	6.0
2.974	5.0
2.989	4.0
3.004	1.0
3.018	4.0
3.033	2.0
3.048	6.0
3.063	4.0
3.078	3.0
3.092	1.0
3.107	7.0
3.122	1.0
3.137	1.0
3.152	4.0
3.166	3.0
3.181	8.0
3.196	2.0
3.211	3.0
3.226	5.0
3.24	5.0
3.255	5.0
3.27	5.0
3.285	4.0
3.3	6.0
3.315	2.0
3.329	5.0
3.344	3.0
3.359	0.0
3.374	9.0
3.389	1.0
3.403	5.0
3.418	4.0
3.433	3.0
3.448	3.0
3.463	6.0
3.478	6.0
3.492	9.0
3.507	7.0
3.522	7.0
3.537	4.0
3.552	3.0
3.567	5.0
3.581	9.0
3.596	3.0
3.611	5.0
3.626	5.0
3.641	6.0
3.656	5.0
3.671	5.0
3.685	4.0
3.7	7.0
3.715	7.0
3.73	4.0
3.745	7.0
3.76	6.0
3.775	7.0
3.789	6.0
3.804	5.0
3.819	5.0
3.834	5.0
3.849	4.0
3.864	8.0
3.879	9.0
3.894	8.0
3.908	4.0
3.923	5.0
3.938	6.0
3.953	7.0
3.968	6.0
3.983	7.0
3.998	7.0
4.013	10.0
4.027	6.0
4.042	2.0
4.057	3.0
4.072	7.0
4.087	6.0
4.102	5.0
4.117	6.0
4.132	6.0
4.147	5.0
4.162	5.0
4.176	2.0
4.191	7.0
4.206	10.0
4.221	9.0
4.236	0.0
4.251	12.0
4.266	6.0
4.281	5.0
4.296	5.0
4.311	4.0
4.326	7.0
4.341	6.0
4.356	9.0
4.37	9.0
4.385	12.0
4.4	7.0
4.415	4.0
4.43	7.0
4.445	9.0
4.46	1.0
4.475	3.0
4.49	3.0
4.505	11.0
4.52	8.0
4.535	6.0
4.55	5.0
4.565	6.0
4.58	6.0
4.595	5.0
4.61	5.0
4.625	10.0
4.639	5.0
4.654	9.0
4.669	6.0
4.684	14.0
4.699	7.0
4.714	5.0
4.729	10.0
4.744	5.0
4.759	7.0
4.774	8.0
4.789	8.0
4.804	8.0
4.819	10.0
4.834	8.0
4.849	6.0
4.864	5.0
4.879	5.0
4.894	6.0
4.909	11.0
4.924	6.0
4.939	8.0
4.954	9.0
4.969	7.0
4.984	8.0
4.999	7.0
5.014	7.0
5.029	4.0
5.044	11.0
5.059	6.0
5.074	7.0
5.089	6.0
5.104	5.0
5.119	17.0
5.134	3.0
5.149	5.0
5.164	5.0
5.179	8.0
5.194	7.0
5.209	6.0
5.224	4.0
5.239	6.0
5.254	5.0
5.269	5.0
5.284	5.0
5.299	9.0
5.314	4.0
5.329	8.0
5.344	7.0
5.359	2.0
5.374	8.0
5.389	13.0
5.404	9.0
5.419	7.0
5.434	10.0
5.449	6.0
5.464	7.0
5.479	10.0
5.494	4.0
5.509	9.0
5.524	6.0
5.539	10.0
5.554	6.0
5.569	6.0
5.584	15.0
5.599	9.0
5.614	6.0
5.629	6.0
5.644	7.0
5.659	9.0
5.674	7.0
5.689	12.0
5.704	11.0
5.719	6.0
5.734	7.0
5.749	6.0
5.764	10.0
5.779	7.0
5.794	11.0
5.809	6.0
5.824	10.0
5.839	11.0
5.854	5.0
5.869	3.0
5.884	10.0
5.899	7.0
5.914	6.0
5.929	11.0
5.944	10.0
5.959	5.0
5.974	5.0
5.989	10.0
6.004	11.0
6.019	8.0
6.034	11.0
6.049	4.0
6.064	11.0
6.079	11.0
6.094	6.0
6.109	11.0
6.124	6.0
6.139	4.0
6.154	6.0
6.169	5.0
6.184	3.0
6.199	6.0
6.214	12.0
6.229	10.0
6.244	12.0
6.259	8.0
6.274	5.0
6.289	8.0
6.304	12.0
6.319	7.0
6.334	10.0
6.349	10.0
6.364	9.0
6.379	14.0
6.394	8.0
6.409	7.0
6.424	12.0
6.439	13.0
6.454	11.0
6.469	9.0
6.484	11.0
6.499	12.0
6.514	8.0
6.529	17.0
6.544	9.0
6.559	12.0
6.574	7.0
6.589	5.0
6.604	9.0
6.619	4.0
6.634	6.0
6.649	5.0
6.664	7.0
6.679	4.0
6.694	1.0
6.709	8.0
6.724	13.0
6.739	8.0
6.754	6.0
6.769	10.0
6.784	12.0
6.799	9.0
6.814	8.0
6.829	8.0
6.844	6.0
6.859	8.0
6.873	9.0
6.888	10.0
6.903	6.0
6.918	7.0
6.933	8.0
6.948	3.0
6.963	12.0
6.978	12.0
6.993	5.0
7.008	5.0
7.023	10.0
7.038	11.0
7.053	8.0
7.068	5.0
7.083	9.0
7.098	15.0
7.113	9.0
7.128	10.0
7.143	13.0
7.157	10.0
7.172	12.0
7.187	6.0
7.202	16.0
7.217	13.0
7.232	9.0
7.247	8.0
7.262	8.0
7.277	12.0
7.292	10.0
7.307	9.0
7.322	14.0
7.336	10.0
7.351	10.0
7.366	8.0
7.381	8.0
7.396	9.0
7.411	9.0
7.426	11.0
7.441	7.0
7.456	7.0
7.471	9.0
7.485	8.0
7.5	6.0
7.515	9.0
7.53	8.0
7.545	6.0
7.56	3.0
7.575	9.0
7.59	7.0
7.604	9.0
7.619	5.0
7.634	5.0
7.649	5.0
7.664	12.0
7.679	8.0
7.693	6.0
7.708	9.0
7.723	7.0
7.738	13.0
7.753	9.0
7.768	9.0
7.783	8.0
7.797	12.0
7.812	6.0
7.827	8.0
7.842	9.0
7.857	8.0
7.871	2.0
7.886	8.0
7.901	12.0
7.916	8.0
7.931	2.0
7.945	7.0
7.96	5.0
7.975	16.0
7.99	9.0
8.005	10.0
8.019	15.0
8.034	8.0
8.049	7.0
8.064	7.0
8.078	11.0
8.093	10.0
8.108	14.0
8.123	9.0
8.137	7.0
8.152	5.0
8.167	14.0
8.182	7.0
8.196	5.0
8.211	10.0
8.226	7.0
8.241	11.0
8.255	7.0
8.27	9.0
8.285	9.0
8.3	14.0
8.314	7.0
8.329	10.0
8.344	12.0
8.358	11.0
8.373	6.0
8.388	5.0
8.403	8.0
8.417	7.0
8.432	8.0
8.447	9.0
8.461	12.0
8.476	6.0
8.491	6.0
8.505	7.0
8.52	6.0
8.535	15.0
8.55	14.0
8.564	8.0
8.579	6.0
8.594	12.0
8.608	5.0
8.623	6.0
8.638	9.0
8.652	12.0
8.667	6.0
8.682	7.0
8.696	9.0
8.711	14.0
8.726	5.0
8.74	12.0
8.755	9.0
8.77	8.0
8.784	9.0
8.799	5.0
8.814	6.0
8.828	12.0
8.843	11.0
8.858	6.0
8.872	5.0
8.887	13.0
8.902	11.0
8.916	6.0
8.931	10.0
8.946	8.0
8.96	13.0
8.975	12.0
8.99	7.0
9.004	6.0
9.019	5.0
9.034	6.0
9.048	6.0
9.063	6.0
9.077	2.0
9.092	9.0
9.107	12.0
9.121	11.0
9.136	12.0
9.151	5.0
9.165	4.0
9.18	6.0
9.195	16.0
9.209	8.0
9.224	11.0
9.239	5.0
9.253	7.0
9.268	10.0
9.283	6.0
9.297	11.0
9.312	11.0
9.327	6.0
9.341	10.0
9.356	6.0
9.371	12.0
9.385	9.0
9.4	8.0
9.415	6.0
9.429	11.0
9.444	4.0
9.458	9.0
9.473	12.0
9.488	7.0
9.502	7.0
9.517	7.0
9.532	5.0
9.546	8.0
9.561	4.0
9.576	4.0
9.59	6.0
9.605	7.0
9.62	6.0
9.635	11.0
9.649	7.0
9.664	9.0
9.679	5.0
9.693	5.0
9.708	15.0
9.723	7.0
9.737	11.0
9.752	8.0
9.767	9.0
9.781	11.0
9.796	11.0
9.811	13.0
9.825	4.0
9.84	9.0
9.855	7.0
9.87	10.0
9.884	7.0
9.899	6.0
9.914	6.0
9.928	1.0
9.943	11.0
9.958	10.0
9.973	9.0
9.987	11.0
10.002	8.0
10.017	16.0
10.031	10.0
10.046	6.0
10.061	2.0
10.076	6.0
10.09	6.0
10.105	8.0
10.12	6.0
10.135	6.0
10.149	6.0
10.164	10.0
10.179	14.0
10.194	4.0
10.208	11.0
10.223	6.0
10.238	6.0
10.253	6.0
10.267	8.0
10.282	6.0
10.297	8.0
10.312	7.0
10.326	9.0
10.341	6.0
10.356	11.0
10.371	6.0
10.386	5.0
10.4	6.0
10.415	7.0
10.43	5.0
10.445	3.0
10.46	8.0
10.474	8.0
10.489	7.0
10.504	8.0
10.519	11.0
10.533	7.0
10.548	5.0
10.563	5.0
10.578	10.0
10.593	9.0
10.608	8.0
10.622	11.0
10.637	5.0
10.652	9.0
10.667	8.0
10.682	5.0
10.696	5.0
10.711	11.0
10.726	6.0
10.741	7.0
10.756	4.0
10.771	7.0
10.785	9.0
10.8	8.0
10.815	7.0
10.83	11.0
10.845	6.0
10.86	7.0
10.874	10.0
10.889	8.0
10.904	8.0
10.919	10.0
10.934	8.0
10.949	11.0
10.963	7.0
10.978	4.0
10.993	7.0
11.008	5.0
11.023	13.0
11.038	11.0
11.053	11.0
11.067	9.0
11.082	9.0
11.097	8.0
11.112	7.0
11.127	12.0
11.142	6.0
11.157	5.0
11.172	4.0
11.186	6.0
11.201	7.0
11.216	4.0
11.231	6.0
11.246	7.0
11.261	14.0
11.276	9.0
11.291	7.0
11.305	4.0
11.32	7.0
11.335	13.0
11.35	9.0
11.365	8.0
11.38	8.0
11.395	7.0
11.41	13.0
11.424	8.0
11.439	8.0
11.454	10.0
11.469	13.0
11.484	9.0
11.499	10.0
11.514	10.0
11.529	8.0
11.544	10.0
11.558	4.0
11.573	12.0
11.588	11.0
11.603	7.0
11.618	6.0
11.633	10.0
11.648	6.0
11.663	4.0
11.678	7.0
11.693	9.0
11.707	8.0
11.722	11.0
11.737	9.0
11.752	8.0
11.767	4.0
11.782	10.0
11.797	6.0
11.812	10.0
11.827	7.0
11.842	5.0
11.856	8.0
11.871	10.0
11.886	11.0
11.901	9.0
11.916	10.0
11.931	10.0
11.946	6.0
11.961	11.0
11.976	5.0
11.991	11.0
12.006	11.0
12.02	11.0
12.035	9.0
12.05	9.0
12.065	12.0
12.08	13.0
12.095	9.0
12.11	6.0
12.125	13.0
12.14	13.0
12.155	9.0
12.17	11.0
12.184	9.0
12.199	7.0
12.214	7.0
12.229	8.0
12.244	12.0
12.259	11.0
12.274	10.0
12.289	15.0
12.304	6.0
12.319	14.0
12.334	17.0
12.348	7.0
12.363	11.0
12.378	9.0
12.393	9.0
12.408	12.0
12.423	10.0
12.438	11.0
12.453	12.0
12.468	14.0
12.483	9.0
12.498	9.0
12.513	10.0
12.527	9.0
12.542	14.0
12.557	11.0
12.572	13.0
12.587	18.0
12.602	11.0
12.617	8.0
12.632	12.0
12.647	13.0
12.662	14.0
12.677	11.0
12.692	17.0
12.707	17.0
12.721	13.0
12.736	15.0
12.751	14.0
12.766	16.0
12.781	16.0
12.796	20.0
12.811	15.0
12.826	15.0
12.841	11.0
12.856	13.0
12.871	7.0
12.886	14.0
12.9	14.0
12.915	15.0
12.93	22.0
12.945	12.0
12.96	15.0
12.975	14.0
12.99	11.0
13.005	12.0
13.02	20.0
13.035	19.0
13.05	14.0
13.065	18.0
13.08	13.0
13.094	20.0
13.109	15.0
13.124	21.0
13.139	16.0
13.154	18.0
13.169	14.0
13.184	20.0
13.199	13.0
13.214	18.0
13.229	21.0
13.244	18.0
13.259	20.0
13.274	21.0
13.288	16.0
13.303	14.0
13.318	14.0
13.333	19.0
13.348	21.0
13.363	23.0
13.378	20.0
13.393	23.0
13.408	19.0
13.423	35.0
13.438	27.0
13.453	23.0
13.468	43.0
13.482	30.0
13.497	24.0
13.512	36.0
13.527	42.0
13.542	54.0
13.557	39.0
13.572	37.0
13.587	43.0
13.602	58.0
13.617	53.0
13.632	71.0
13.647	83.0
13.662	73.0
13.677	68.0
13.691	83.0
13.706	80.0
13.721	79.0
13.736	96.0
13.751	103.0
13.766	88.0
13.781	116.0
13.796	122.0
13.811	136.0
13.826	122.0
13.841	125.0
13.856	100.0
13.871	102.0
13.885	101.0
13.9	102.0
13.915	91.0
13.93	76.0
13.945	60.0
13.96	51.0
13.975	48.0
13.99	30.0
14.005	43.0
14.02	27.0
14.035	29.0
14.05	20.0
14.065	23.0
14.08	23.0
14.094	25.0
14.109	30.0
14.124	18.0
14.139	17.0
14.154	27.0
14.169	19.0
14.184	13.0
14.199	22.0
14.214	26.0
14.229	21.0
14.244	20.0
14.259	20.0
14.274	23.0
14.288	27.0
14.303	22.0
14.318	20.0
14.333	7.0
14.348	24.0
14.363	19.0
14.378	23.0
14.393	14.0
14.408	16.0
14.423	14.0
14.438	10.0
14.453	24.0
14.468	10.0
14.482	18.0
14.497	17.0
14.512	23.0
14.527	19.0
14.542	22.0
14.557	16.0
14.572	16.0
14.587	21.0
14.602	11.0
14.617	19.0
14.632	20.0
14.647	16.0
14.661	15.0
14.676	18.0
14.691	13.0
14.706	14.0
14.721	18.0
14.736	18.0
14.751	12.0
14.766	8.0
14.781	19.0
14.796	14.0
14.811	25.0
14.826	17.0
14.84	13.0
14.855	15.0
14.87	13.0
14.885	20.0
14.9	16.0
14.915	18.0
14.93	18.0
14.945	17.0
14.96	21.0
14.975	8.0
14.989	22.0
15.004	22.0
15.019	17.0
15.034	18.0
15.049	16.0
15.064	14.0
15.079	18.0
15.094	11.0
15.109	7.0
15.124	14.0
15.138	11.0
15.153	18.0
15.168	17.0
15.183	12.0
15.198	10.0
15.213	10.0
15.228	18.0
15.243	12.0
15.258	16.0
15.272	10.0
15.287	17.0
15.302	16.0
15.317	18.0
15.332	11.0
15.347	13.0
15.362	12.0
15.377	15.0
15.391	12.0
15.406	19.0
15.421	18.0
15.436	9.0
15.451	17.0
15.466	15.0
15.481	13.0
15.496	10.0
15.51	18.0
15.525	9.0
15.54	12.0
15.555	11.0
15.57	14.0
15.585	7.0
15.6	27.0
15.614	12.0
15.629	8.0
15.644	18.0
15.659	18.0
15.674	19.0
15.689	11.0
15.704	8.0
15.718	13.0
15.733	21.0
15.748	9.0
15.763	10.0
15.778	14.0
15.793	14.0
15.808	10.0
15.822	14.0
15.837	18.0
15.852	10.0
15.867	17.0
15.882	18.0
15.897	16.0
15.911	9.0
15.926	11.0
15.941	22.0
15.956	16.0
15.971	14.0
15.986	17.0
16.0	12.0
16.015	18.0
16.03	8.0
16.045	16.0
16.06	13.0
16.074	11.0
16.089	10.0
16.104	14.0
16.119	17.0
16.134	11.0
16.149	10.0
16.163	12.0
16.178	20.0
16.193	17.0
16.208	12.0
16.223	16.0
16.237	10.0
16.252	8.0
16.267	15.0
16.282	9.0
16.297	12.0
16.311	12.0
16.326	14.0
16.341	12.0
16.356	13.0
16.37	18.0
16.385	27.0
16.4	17.0
16.415	19.0
16.43	11.0
16.444	9.0
16.459	17.0
16.474	14.0
16.489	15.0
16.504	7.0
16.518	12.0
16.533	15.0
16.548	18.0
16.563	14.0
16.577	17.0
16.592	12.0
16.607	9.0
16.622	18.0
16.637	16.0
16.651	21.0
16.666	12.0
16.681	22.0
16.696	18.0
16.71	22.0
16.725	34.0
16.74	24.0
16.755	33.0
16.77	35.0
16.784	29.0
16.799	39.0
16.814	43.0
16.829	46.0
16.843	35.0
16.858	40.0
16.873	54.0
16.888	49.0
16.902	70.0
16.917	65.0
16.932	80.0
16.947	85.0
16.961	69.0
16.976	62.0
16.991	53.0
17.006	70.0
17.021	70.0
17.035	54.0
17.05	62.0
17.065	41.0
17.08	36.0
17.094	30.0
17.109	31.0
17.124	24.0
17.139	24.0
17.153	19.0
17.168	28.0
17.183	16.0
17.198	12.0
17.212	14.0
17.227	15.0
17.242	15.0
17.257	16.0
17.271	18.0
17.286	17.0
17.301	11.0
17.316	20.0
17.33	10.0
17.345	12.0
17.36	9.0
17.375	13.0
17.39	17.0
17.404	16.0
17.419	20.0
17.434	16.0
17.449	13.0
17.463	14.0
17.478	17.0
17.493	17.0
17.508	12.0
17.522	13.0
17.537	13.0
17.552	13.0
17.567	12.0
17.581	10.0
17.596	14.0
17.611	4.0
17.626	10.0
17.641	12.0
17.655	20.0
17.67	8.0
17.685	18.0
17.7	10.0
17.714	12.0
17.729	13.0
17.744	16.0
17.759	16.0
17.773	13.0
17.788	13.0
17.803	7.0
17.818	9.0
17.833	11.0
17.847	6.0
17.862	9.0
17.877	23.0
17.892	12.0
17.906	12.0
17.921	6.0
17.936	10.0
17.951	14.0
17.966	16.0
17.98	12.0
17.995	14.0
18.01	12.0
18.025	9.0
18.04	15.0
18.054	14.0
18.069	9.0
18.084	13.0
18.099	9.0
18.114	19.0
18.128	15.0
18.143	11.0
18.158	7.0
18.173	13.0
18.188	11.0
18.202	10.0
18.217	15.0
18.232	5.0
18.247	5.0
18.262	19.0
18.276	13.0
18.291	12.0
18.306	3.0
18.321	11.0
18.336	8.0
18.35	12.0
18.365	12.0
18.38	10.0
18.395	6.0
18.41	8.0
18.424	18.0
18.439	9.0
18.454	11.0
18.469	11.0
18.484	13.0
18.498	10.0
18.513	9.0
18.528	12.0
18.543	11.0
18.558	10.0
18.573	9.0
18.587	12.0
18.602	11.0
18.617	9.0
18.632	13.0
18.647	12.0
18.661	18.0
18.676	9.0
18.691	8.0
18.706	11.0
18.721	13.0
18.736	7.0
18.75	9.0
18.765	12.0
18.78	17.0
18.795	14.0
18.81	6.0
18.825	15.0
18.839	16.0
18.854	15.0
18.869	10.0
18.884	9.0
18.899	11.0
18.913	10.0
18.928	6.0
18.943	14.0
18.958	16.0
18.973	7.0
18.988	12.0
19.002	14.0
19.017	12.0
19.032	14.0
19.047	7.0
19.062	6.0
19.077	6.0
19.091	10.0
19.106	14.0
19.121	11.0
19.136	12.0
19.151	13.0
19.165	13.0
19.18	7.0
19.195	17.0
19.21	15.0
19.225	15.0
19.24	15.0
19.254	14.0
19.269	10.0
19.284	15.0
19.299	12.0
19.314	10.0
19.329	14.0
19.343	16.0
19.358	17.0
19.373	22.0
19.388	20.0
19.403	20.0
19.417	29.0
19.432	13.0
19.447	18.0
19.462	24.0
19.477	21.0
19.492	32.0
19.506	33.0
19.521	31.0
19.536	37.0
19.551	41.0
19.566	35.0
19.58	44.0
19.595	23.0
19.61	36.0
19.625	38.0
19.64	49.0
19.655	42.0
19.669	29.0
19.684	36.0
19.699	27.0
19.714	31.0
19.729	30.0
19.743	29.0
19.758	27.0
19.773	19.0
19.788	29.0
19.803	10.0
19.817	14.0
19.832	10.0
19.847	16.0
19.862	19.0
19.877	12.0
19.891	11.0
19.906	11.0
19.921	13.0
19.936	11.0
19.951	12.0
19.965	7.0
19.98	13.0
19.995	11.0
20.01	11.0
20.025	9.0
20.039	10.0
20.054	14.0
20.069	16.0
20.084	11.0
20.099	9.0
20.113	10.0
20.128	19.0
20.143	8.0
20.158	8.0
20.173	13.0
20.187	17.0
20.202	11.0
20.217	9.0
20.232	7.0
20.246	8.0
20.261	7.0
20.276	10.0
20.291	10.0
20.306	8.0
20.32	11.0
20.335	8.0
20.35	10.0
20.365	9.0
20.38	8.0
20.394	11.0
20.409	13.0
20.424	13.0
20.439	12.0
20.453	9.0
20.468	9.0
20.483	9.0
20.498	10.0
20.513	9.0
20.527	12.0
20.542	14.0
20.557	9.0
20.572	11.0
20.586	7.0
20.601	8.0
20.616	6.0
20.631	15.0
20.646	9.0
20.66	8.0
20.675	12.0
20.69	13.0
20.705	9.0
20.719	9.0
20.734	19.0
20.749	11.0
20.764	6.0
20.779	14.0
20.793	13.0
20.808	21.0
20.823	8.0
20.838	7.0
20.853	7.0
20.867	14.0
20.882	12.0
20.897	10.0
20.912	13.0
20.926	12.0
20.941	9.0
20.956	10.0
20.971	16.0
20.986	12.0
21.0	9.0
21.015	10.0
21.03	13.0
21.045	11.0
21.06	5.0
21.074	10.0
21.089	10.0
21.104	7.0
21.119	10.0
21.134	9.0
21.148	9.0
21.163	7.0
21.178	14.0
21.193	12.0
21.208	12.0
21.222	7.0
21.237	11.0
21.252	9.0
21.267	11.0
21.282	12.0
21.296	17.0
21.311	8.0
21.326	10.0
21.341	7.0
21.356	11.0
21.37	10.0
21.385	8.0
21.4	8.0
21.415	10.0
21.43	13.0
21.444	10.0
21.459	9.0
21.474	11.0
21.489	16.0
21.504	12.0
21.519	12.0
21.533	15.0
21.548	13.0
21.563	20.0
21.578	14.0
21.593	6.0
21.608	18.0
21.622	14.0
21.637	17.0
21.652	17.0
21.667	17.0
21.682	15.0
21.697	18.0
21.712	16.0
21.726	21.0
21.741	22.0
21.756	24.0
21.771	34.0
21.786	38.0
21.801	38.0
21.816	41.0
21.83	38.0
21.845	43.0
21.86	50.0
21.875	55.0
21.89	51.0
21.905	63.0
21.92	64.0
21.935	93.0
21.949	91.0
21.964	77.0
21.979	79.0
21.994	77.0
22.009	64.0
22.024	63.0
22.039	55.0
22.054	65.0
22.069	49.0
22.083	48.0
22.098	34.0
22.113	37.0
22.128	34.0
22.143	30.0
22.158	22.0
22.173	25.0
22.188	21.0
22.203	19.0
22.218	16.0
22.233	10.0
22.248	17.0
22.262	11.0
22.277	18.0
22.292	14.0
22.307	18.0
22.322	12.0
22.337	17.0
22.352	10.0
22.367	13.0
22.382	12.0
22.397	14.0
22.412	5.0
22.427	8.0
22.442	11.0
22.457	10.0
22.472	9.0
22.487	12.0
22.502	9.0
22.516	15.0
22.531	13.0
22.546	18.0
22.561	14.0
22.576	5.0
22.591	16.0
22.606	19.0
22.621	15.0
22.636	10.0
22.651	12.0
22.666	8.0
22.681	9.0
22.696	14.0
22.711	13.0
22.726	9.0
22.741	11.0
22.756	8.0
22.771	10.0
22.786	17.0
22.801	14.0
22.816	9.0
22.831	9.0
22.846	5.0
22.861	7.0
22.876	17.0
22.891	10.0
22.906	8.0
22.92	10.0
22.935	4.0
22.95	13.0
22.965	8.0
22.98	14.0
22.995	17.0
23.01	14.0
23.025	11.0
23.04	10.0
23.055	12.0
23.07	7.0
23.085	11.0
23.1	7.0
23.115	9.0
23.13	9.0
23.145	11.0
23.16	9.0
23.175	7.0
23.19	11.0
23.205	10.0
23.22	10.0
23.235	7.0
23.25	10.0
23.265	9.0
23.28	3.0
23.295	7.0
23.31	17.0
23.325	7.0
23.34	9.0
23.355	12.0
23.37	10.0
23.384	9.0
23.399	11.0
23.414	7.0
23.429	7.0
23.444	8.0
23.459	14.0
23.474	8.0
23.489	11.0
23.504	19.0
23.519	10.0
23.534	10.0
23.549	13.0
23.564	13.0
23.579	11.0
23.594	11.0
23.609	15.0
23.624	16.0
23.639	14.0
23.654	16.0
23.668	6.0
23.683	6.0
23.698	11.0
23.713	9.0
23.728	10.0
23.743	6.0
23.758	10.0
23.773	9.0
23.788	18.0
23.803	11.0
23.818	15.0
23.833	18.0
23.848	16.0
23.862	17.0
23.877	20.0
23.892	21.0
23.907	22.0
23.922	16.0
23.937	21.0
23.952	30.0
23.967	35.0
23.982	34.0
23.997	37.0
24.011	42.0
24.026	53.0
24.041	50.0
24.056	47.0
24.071	49.0
24.086	43.0
24.101	51.0
24.116	45.0
24.131	49.0
24.145	45.0
24.16	29.0
24.175	43.0
24.19	48.0
24.205	35.0
24.22	33.0
24.235	28.0
24.249	30.0
24.264	23.0
24.279	27.0
24.294	21.0
24.309	20.0
24.324	14.0
24.338	13.0
24.353	18.0
24.368	13.0
24.383	9.0
24.398	10.0
24.413	14.0
24.428	9.0
24.442	8.0
24.457	11.0
24.472	13.0
24.487	16.0
24.502	11.0
24.516	10.0
24.531	17.0
24.546	10.0
24.561	10.0
24.576	13.0
24.591	12.0
24.605	9.0
24.62	10.0
24.635	9.0
24.65	12.0
24.665	12.0
24.679	12.0
24.694	11.0
24.709	9.0
24.724	5.0
24.739	9.0
24.753	8.0
24.768	13.0
24.783	7.0
24.798	8.0
24.813	11.0
24.827	13.0
24.842	6.0
24.857	10.0
24.872	10.0
24.886	10.0
24.901	4.0
24.916	10.0
24.931	9.0
24.946	17.0
24.96	9.0
24.975	11.0
24.99	11.0
25.005	6.0
25.019	11.0
25.034	14.0
25.049	18.0
25.064	8.0
25.078	8.0
25.093	3.0
25.108	12.0
25.123	6.0
25.138	7.0
25.152	10.0
25.167	12.0
25.182	9.0
25.197	7.0
25.211	15.0
25.226	17.0
25.241	10.0
25.256	9.0
25.27	9.0
25.285	10.0
25.3	7.0
25.315	12.0
25.329	14.0
25.344	11.0
25.359	13.0
25.374	12.0
25.388	9.0
25.403	13.0
25.418	14.0
25.433	12.0
25.447	5.0
25.462	5.0
25.477	8.0
25.492	3.0
25.506	4.0
25.521	10.0
25.536	13.0
25.55	13.0
25.565	9.0
25.58	8.0
25.595	12.0
25.609	9.0
25.624	6.0
25.639	10.0
25.654	15.0
25.668	4.0
25.683	9.0
25.698	5.0
25.713	7.0
25.727	15.0
25.742	11.0
25.757	13.0
25.772	8.0
25.786	7.0
25.801	10.0
25.816	13.0
25.83	9.0
25.845	4.0
25.86	8.0
25.875	9.0
25.889	11.0
25.904	15.0
25.919	7.0
25.934	12.0
25.948	9.0
25.963	8.0
25.978	8.0
25.992	11.0
26.007	5.0
26.022	6.0
26.037	9.0
26.051	14.0
26.066	8.0
26.081	15.0
26.096	7.0
26.11	11.0
26.125	12.0
26.14	4.0
26.155	10.0
26.169	7.0
26.184	10.0
26.199	8.0
26.213	11.0
26.228	11.0
26.243	7.0
26.258	10.0
26.272	13.0
26.287	7.0
26.302	11.0
26.317	8.0
26.331	3.0
26.346	11.0
26.361	14.0
26.376	6.0
26.39	11.0
26.405	7.0
26.42	12.0
26.434	8.0
26.449	6.0
26.464	5.0
26.479	9.0
26.493	10.0
26.508	5.0
26.523	7.0
26.538	14.0
26.552	9.0
26.567	9.0
26.582	5.0
26.597	4.0
26.611	5.0
26.626	6.0
26.641	8.0
26.656	9.0
26.67	11.0
26.685	6.0
26.7	15.0
26.715	8.0
26.729	14.0
26.744	16.0
26.759	4.0
26.773	10.0
26.788	16.0
26.803	7.0
26.818	8.0
26.832	7.0
26.847	10.0
26.862	7.0
26.877	11.0
26.891	11.0
26.906	11.0
26.921	9.0
26.936	9.0
26.95	9.0
26.965	6.0
26.98	14.0
26.995	13.0
27.01	8.0
27.024	12.0
27.039	12.0
27.054	3.0
27.069	12.0
27.083	7.0
27.098	18.0
27.113	10.0
27.128	9.0
27.142	4.0
27.157	10.0
27.172	10.0
27.187	7.0
27.201	15.0
27.216	12.0
27.231	14.0
27.246	13.0
27.261	7.0
27.275	9.0
27.29	10.0
27.305	10.0
27.32	11.0
27.334	6.0
27.349	8.0
27.364	6.0
27.379	15.0
27.394	8.0
27.408	10.0
27.423	11.0
27.438	9.0
27.453	7.0
27.467	14.0
27.482	9.0
27.497	11.0
27.512	8.0
27.527	13.0
27.541	15.0
27.556	4.0
27.571	13.0
27.586	12.0
27.601	7.0
27.615	6.0
27.63	13.0
27.645	8.0
27.66	9.0
27.675	19.0
27.689	8.0
27.704	12.0
27.719	19.0
27.734	16.0
27.749	16.0
27.763	18.0
27.778	14.0
27.793	21.0
27.808	18.0
27.823	26.0
27.838	20.0
27.852	19.0
27.867	19.0
27.882	14.0
27.897	20.0
27.912	21.0
27.926	19.0
27.941	16.0
27.956	15.0
27.971	21.0
27.986	23.0
28.001	16.0
28.015	20.0
28.03	17.0
28.045	15.0
28.06	18.0
28.075	23.0
28.09	8.0
28.105	11.0
28.119	17.0
28.134	13.0
28.149	12.0
28.164	8.0
28.179	9.0
28.194	16.0
28.208	10.0
28.223	6.0
28.238	15.0
28.253	9.0
28.268	11.0
28.283	10.0
28.298	12.0
28.312	5.0
28.327	8.0
28.342	12.0
28.357	9.0
28.372	12.0
28.387	7.0
28.402	8.0
28.417	8.0
28.431	14.0
28.446	6.0
28.461	6.0
28.476	10.0
28.491	17.0
28.506	15.0
28.521	7.0
28.536	10.0
28.55	8.0
28.565	14.0
28.58	19.0
28.595	10.0
28.61	9.0
28.625	9.0
28.64	12.0
28.655	10.0
28.669	8.0
28.684	7.0
28.699	17.0
28.714	8.0
28.729	10.0
28.744	10.0
28.759	17.0
28.774	11.0
28.788	6.0
28.803	11.0
28.818	4.0
28.833	6.0
28.848	14.0
28.863	8.0
28.878	14.0
28.893	10.0
28.908	9.0
28.922	12.0
28.937	9.0
28.952	14.0
28.967	6.0
28.982	11.0
28.997	7.0
29.012	12.0
29.027	10.0
29.041	12.0
29.056	12.0
29.071	13.0
29.086	14.0
29.101	8.0
29.116	17.0
29.131	4.0
29.146	13.0
29.16	9.0
29.175	9.0
29.19	8.0
29.205	9.0
29.22	13.0
29.235	13.0
29.25	8.0
29.265	14.0
29.279	13.0
29.294	9.0
29.309	9.0
29.324	10.0
29.339	11.0
29.354	15.0
29.369	13.0
29.384	14.0
29.398	13.0
29.413	14.0
29.428	20.0
29.443	19.0
29.458	20.0
29.473	17.0
29.488	17.0
29.502	28.0
29.517	30.0
29.532	30.0
29.547	29.0
29.562	47.0
29.577	43.0
29.592	57.0
29.606	45.0
29.621	68.0
29.636	49.0
29.651	39.0
29.666	43.0
29.681	34.0
29.695	37.0
29.71	41.0
29.725	37.0
29.74	41.0
29.755	38.0
29.77	37.0
29.784	29.0
29.799	34.0
29.814	33.0
29.829	22.0
29.844	24.0
29.859	17.0
29.873	27.0
29.888	16.0
29.903	11.0
29.918	14.0
29.933	8.0
29.947	11.0
29.962	12.0
29.977	18.0
29.992	12.0
30.007	9.0
30.021	14.0
30.036	11.0
30.051	14.0
30.066	10.0
30.081	14.0
30.095	7.0
30.11	14.0
30.125	11.0
30.14	7.0
30.155	9.0
30.169	10.0
30.184	11.0
30.199	7.0
30.214	13.0
30.228	9.0
30.243	13.0
30.258	8.0
30.273	6.0
30.288	9.0
30.302	19.0
30.317	11.0
30.332	10.0
30.347	7.0
30.361	13.0
30.376	9.0
30.391	9.0
30.406	9.0
30.42	15.0
30.435	12.0
30.45	12.0
30.465	9.0
30.479	10.0
30.494	14.0
30.509	11.0
30.524	5.0
30.538	9.0
30.553	17.0
30.568	7.0
30.583	18.0
30.597	11.0
30.612	5.0
30.627	9.0
30.641	14.0
30.656	11.0
30.671	11.0
30.686	9.0
30.7	13.0
30.715	5.0
30.73	9.0
30.745	12.0
30.759	9.0
30.774	8.0
30.789	9.0
30.803	14.0
30.818	9.0
30.833	8.0
30.848	14.0
30.862	10.0
30.877	12.0
30.892	14.0
30.906	9.0
30.921	13.0
30.936	8.0
30.951	10.0
30.965	10.0
30.98	14.0
30.995	11.0
31.009	14.0
31.024	11.0
31.039	7.0
31.053	14.0
31.068	18.0
31.083	17.0
31.098	17.0
31.112	15.0
31.127	26.0
31.142	17.0
31.156	23.0
31.171	26.0
31.186	31.0
31.2	37.0
31.215	33.0
31.23	43.0
31.245	40.0
31.259	45.0
31.274	38.0
31.289	26.0
31.303	38.0
31.318	28.0
31.333	33.0
31.347	28.0
31.362	26.0
31.377	22.0
31.392	26.0
31.406	27.0
31.421	22.0
31.436	27.0
31.45	19.0
31.465	24.0
31.48	18.0
31.494	24.0
31.509	17.0
31.524	17.0
31.538	18.0
31.553	10.0
31.568	15.0
31.583	9.0
31.597	6.0
31.612	11.0
31.627	10.0
31.641	17.0
31.656	15.0
31.671	10.0
31.685	13.0
31.7	10.0
31.715	15.0
31.729	14.0
31.744	9.0
31.759	14.0
31.774	11.0
31.788	7.0
31.803	8.0
31.818	10.0
31.832	10.0
31.847	12.0
31.862	18.0
31.876	6.0
31.891	8.0
31.906	8.0
31.92	12.0
31.935	12.0
31.95	11.0
31.965	8.0
31.979	6.0
31.994	12.0
32.009	10.0
32.023	10.0
32.038	11.0
32.053	7.0
32.067	5.0
32.082	12.0
32.097	8.0
32.112	11.0
32.126	9.0
32.141	9.0
32.156	12.0
32.17	8.0
32.185	4.0
32.2	5.0
32.214	11.0
32.229	9.0
32.244	8.0
32.259	15.0
32.273	12.0
32.288	6.0
32.303	8.0
32.317	4.0
32.332	6.0
32.347	11.0
32.362	9.0
32.376	11.0
32.391	12.0
32.406	8.0
32.42	13.0
32.435	12.0
32.45	10.0
32.465	8.0
32.479	14.0
32.494	11.0
32.509	10.0
32.523	9.0
32.538	7.0
32.553	6.0
32.568	11.0
32.582	12.0
32.597	12.0
32.612	17.0
32.627	15.0
32.641	17.0
32.656	12.0
32.671	16.0
32.685	21.0
32.7	15.0
32.715	17.0
32.73	19.0
32.744	15.0
32.759	25.0
32.774	30.0
32.788	17.0
32.803	29.0
32.818	27.0
32.833	30.0
32.847	30.0
32.862	22.0
32.877	25.0
32.892	23.0
32.906	20.0
32.921	25.0
32.936	23.0
32.951	20.0
32.965	22.0
32.98	22.0
32.995	20.0
33.009	17.0
33.024	19.0
33.039	24.0
33.054	17.0
33.068	15.0
33.083	17.0
33.098	7.0
33.113	11.0
33.127	10.0
33.142	7.0
33.157	10.0
33.172	12.0
33.186	9.0
33.201	5.0
33.216	6.0
33.231	10.0
33.245	11.0
33.26	19.0
33.275	5.0
33.29	10.0
33.304	8.0
33.319	11.0
33.334	12.0
33.349	12.0
33.363	7.0
33.378	10.0
33.393	14.0
33.408	11.0
33.422	9.0
33.437	8.0
33.452	8.0
33.467	6.0
33.481	9.0
33.496	10.0
33.511	5.0
33.526	7.0
33.54	7.0
33.555	7.0
33.57	11.0
33.585	9.0
33.599	8.0
33.614	9.0
33.629	11.0
33.644	9.0
33.658	5.0
33.673	11.0
33.688	6.0
33.703	8.0
33.718	7.0
33.732	9.0
33.747	9.0
33.762	13.0
33.777	8.0
33.791	8.0
33.806	11.0
33.821	5.0
33.836	6.0
33.85	13.0
33.865	10.0
33.88	7.0
33.895	8.0
33.91	14.0
33.924	10.0
33.939	9.0
33.954	10.0
33.969	9.0
33.983	4.0
33.998	15.0
34.013	11.0
34.028	10.0
34.042	10.0
34.057	11.0
34.072	15.0
34.087	15.0
34.102	16.0
34.116	8.0
34.131	10.0
34.146	5.0
34.161	8.0
34.175	11.0
34.19	15.0
34.205	15.0
34.22	14.0
34.235	14.0
34.249	8.0
34.264	11.0
34.279	15.0
34.294	15.0
34.309	12.0
34.323	10.0
34.338	16.0
34.353	20.0
34.368	21.0
34.382	15.0
34.397	10.0
34.412	9.0
34.427	12.0
34.442	10.0
34.456	9.0
34.471	10.0
34.486	14.0
34.501	12.0
34.516	5.0
34.53	10.0
34.545	6.0
34.56	10.0
34.575	9.0
34.59	10.0
34.604	12.0
34.619	14.0
34.634	8.0
34.649	10.0
34.664	11.0
34.678	7.0
34.693	11.0
34.708	6.0
34.723	5.0
34.738	13.0
34.752	7.0
34.767	9.0
34.782	7.0
34.797	5.0
34.812	8.0
34.826	3.0
34.841	11.0
34.856	14.0
34.871	11.0
34.886	11.0
34.9	7.0
34.915	15.0
34.93	4.0
34.945	6.0
34.96	13.0
34.974	11.0
34.989	5.0
35.004	9.0
35.019	10.0
35.034	5.0
35.048	9.0
35.063	6.0
35.078	7.0
35.093	12.0
35.108	12.0
35.122	5.0
35.137	7.0
35.152	8.0
35.167	11.0
35.182	7.0
35.196	7.0
35.211	7.0
35.226	7.0
35.241	10.0
35.256	5.0
35.27	11.0
35.285	6.0
35.3	9.0
35.315	11.0
35.33	10.0
35.344	10.0
35.359	7.0
35.374	10.0
35.389	5.0
35.404	11.0
35.418	13.0
35.433	6.0
35.448	8.0
35.463	15.0
35.478	7.0
35.493	4.0
35.507	10.0
35.522	5.0
35.537	10.0
35.552	6.0
35.567	6.0
35.581	8.0
35.596	10.0
35.611	9.0
35.626	9.0
35.641	11.0
35.655	10.0
35.67	11.0
35.685	18.0
35.7	23.0
35.715	20.0
35.729	23.0
35.744	23.0
35.759	19.0
35.774	17.0
35.789	16.0
35.804	18.0
35.818	13.0
35.833	11.0
35.848	10.0
35.863	15.0
35.878	11.0
35.892	20.0
35.907	18.0
35.922	16.0
35.937	12.0
35.952	11.0
35.966	18.0
35.981	19.0
35.996	13.0
36.011	11.0
36.026	10.0
36.04	14.0
36.055	8.0
36.07	14.0
36.085	9.0
36.1	10.0
36.114	6.0
36.129	10.0
36.144	11.0
36.159	7.0
36.174	13.0
36.189	13.0
36.203	17.0
36.218	18.0
36.233	12.0
36.248	10.0
36.263	10.0
36.277	11.0
36.292	5.0
36.307	10.0
36.322	11.0
36.337	5.0
36.351	5.0
36.366	5.0
36.381	5.0
36.396	3.0
36.411	7.0
36.426	10.0
36.44	10.0
36.455	7.0
36.47	9.0
36.485	5.0
36.5	10.0
36.514	7.0
36.529	10.0
36.544	5.0
36.559	9.0
36.574	7.0
36.589	10.0
36.603	7.0
36.618	10.0
36.633	6.0
36.648	9.0
36.663	7.0
36.677	7.0
36.692	10.0
36.707	7.0
36.722	13.0
36.737	8.0
36.752	4.0
36.766	7.0
36.781	6.0
36.796	4.0
36.811	6.0
36.826	13.0
36.841	8.0
36.855	7.0
36.87	15.0
36.885	8.0
36.9	6.0
36.915	10.0
36.93	8.0
36.944	5.0
36.959	7.0
36.974	9.0
36.989	8.0
37.004	8.0
37.019	4.0
37.033	11.0
37.048	12.0
37.063	13.0
37.078	15.0
37.093	15.0
37.108	17.0
37.123	24.0
37.137	24.0
37.152	35.0
37.167	26.0
37.182	31.0
37.197	21.0
37.212	22.0
37.226	23.0
37.241	25.0
37.256	17.0
37.271	25.0
37.286	20.0
37.301	21.0
37.316	19.0
37.331	20.0
37.345	15.0
37.36	18.0
37.375	21.0
37.39	16.0
37.405	13.0
37.42	16.0
37.435	17.0
37.45	21.0
37.464	23.0
37.479	15.0
37.494	20.0
37.509	15.0
37.524	4.0
37.539	4.0
37.554	3.0
37.569	6.0
37.583	9.0
37.598	6.0
37.613	10.0
37.628	10.0
37.643	8.0
37.658	5.0
37.673	7.0
37.688	8.0
37.703	6.0
37.718	11.0
37.733	6.0
37.747	9.0
37.762	7.0
37.777	3.0
37.792	12.0
37.807	7.0
37.822	10.0
37.837	10.0
37.852	9.0
37.867	6.0
37.882	4.0
37.897	3.0
37.912	10.0
37.927	6.0
37.941	8.0
37.956	5.0
37.971	7.0
37.986	7.0
38.001	9.0
38.016	10.0
38.031	8.0
38.046	9.0
38.061	7.0
38.076	6.0
38.091	1.0
38.106	8.0
38.121	9.0
38.136	9.0
38.151	3.0
38.166	5.0
38.181	14.0
38.196	6.0
38.211	11.0
38.226	8.0
38.241	6.0
38.256	8.0
38.271	6.0
38.285	5.0
38.3	8.0
38.315	6.0
38.33	8.0
38.345	11.0
38.36	4.0
38.375	5.0
38.39	8.0
38.405	5.0
38.42	10.0
38.435	8.0
38.45	11.0
38.465	9.0
38.48	7.0
38.495	6.0
38.51	9.0
38.525	2.0
38.54	5.0
38.555	5.0
38.57	5.0
38.585	9.0
38.6	12.0
38.615	6.0
38.63	5.0
38.645	4.0
38.66	4.0
38.675	7.0
38.69	6.0
38.705	5.0
38.72	10.0
38.735	5.0
38.75	5.0
38.765	9.0
38.78	7.0
38.795	7.0
38.81	7.0
38.825	10.0
38.84	6.0
38.855	6.0
38.87	9.0
38.885	7.0
38.9	14.0
38.915	7.0
38.93	9.0
38.945	8.0
38.96	4.0
38.975	3.0
38.99	2.0
39.005	5.0
39.02	4.0
39.035	6.0
39.05	6.0
39.065	6.0
39.08	2.0
39.095	9.0
39.11	5.0
39.125	5.0
39.14	8.0
39.155	4.0
39.17	10.0
39.185	6.0
39.2	8.0
39.215	5.0
39.23	8.0
39.245	6.0
39.26	5.0
39.275	11.0
39.29	5.0
39.305	3.0
39.32	5.0
39.335	5.0
39.35	3.0
39.365	7.0
39.38	5.0
39.395	7.0
39.409	5.0
39.424	5.0
39.439	11.0
39.454	9.0
39.469	5.0
39.484	8.0
39.499	4.0
39.514	10.0
39.529	4.0
39.544	2.0
39.559	5.0
39.574	2.0
39.589	4.0
39.604	5.0
39.619	2.0
39.634	10.0
39.649	5.0
39.664	4.0
39.678	8.0
39.693	3.0
39.708	11.0
39.723	5.0
39.738	9.0
39.753	3.0
39.768	9.0
39.783	3.0
39.798	5.0
39.813	5.0
39.827	8.0
39.842	9.0
39.857	8.0
39.872	6.0
39.887	13.0
39.902	7.0
39.917	8.0
39.932	7.0
39.947	12.0
39.961	13.0
39.976	9.0
39.991	5.0
40.006	6.0
40.021	4.0
40.036	6.0
40.051	7.0
40.065	6.0
40.08	2.0
40.095	10.0
40.11	8.0
40.125	6.0
40.14	8.0
40.154	5.0
40.169	9.0
40.184	9.0
40.199	6.0
40.214	5.0
40.228	7.0
40.243	4.0
40.258	7.0
40.273	6.0
40.288	4.0
40.302	5.0
40.317	6.0
40.332	5.0
40.347	5.0
40.362	3.0
40.376	4.0
40.391	6.0
40.406	6.0
40.421	4.0
40.436	6.0
40.45	5.0
40.465	1.0
40.48	6.0
40.495	7.0
40.509	2.0
40.524	9.0
40.539	5.0
40.554	2.0
40.568	3.0
40.583	7.0
40.598	3.0
40.613	6.0
40.627	5.0
40.642	7.0
40.657	2.0
40.672	6.0
40.686	5.0
40.701	5.0
40.716	6.0
40.731	9.0
40.745	4.0
40.76	3.0
40.775	4.0
40.79	3.0
40.804	4.0
40.819	2.0
40.834	9.0
40.849	4.0
40.863	4.0
40.878	8.0
40.893	5.0
40.907	14.0
40.922	4.0
40.937	4.0
40.952	7.0
40.966	8.0
40.981	7.0
40.996	9.0
41.011	9.0
41.025	4.0
41.04	14.0
41.055	15.0
41.069	18.0
41.084	15.0
41.099	21.0
41.114	20.0
41.128	24.0
41.143	27.0
41.158	22.0
41.173	15.0
41.187	21.0
41.202	16.0
41.217	19.0
41.231	10.0
41.246	13.0
41.261	8.0
41.276	11.0
41.29	9.0
41.305	11.0
41.32	7.0
41.335	10.0
41.349	9.0
41.364	9.0
41.379	16.0
41.393	11.0
41.408	10.0
41.423	13.0
41.438	8.0
41.452	13.0
41.467	16.0
41.482	14.0
41.497	5.0
41.511	7.0
41.526	7.0
41.541	7.0
41.556	9.0
41.57	11.0
41.585	7.0
41.6	6.0
41.615	7.0
41.629	3.0
41.644	8.0
41.659	4.0
41.674	3.0
41.688	5.0
41.703	4.0
41.718	6.0
41.733	5.0
41.747	11.0
41.762	7.0
41.777	9.0
41.792	3.0
41.806	6.0
41.821	4.0
41.836	5.0
41.851	8.0
41.866	5.0
41.88	5.0
41.895	5.0
41.91	9.0
41.925	9.0
41.939	1.0
41.954	2.0
41.969	7.0
41.984	6.0
41.999	9.0
42.013	7.0
42.028	4.0
42.043	6.0
42.058	4.0
42.073	8.0
42.088	3.0
42.102	8.0
42.117	4.0
42.132	3.0
42.147	5.0
42.162	5.0
42.176	9.0
42.191	5.0
42.206	9.0
42.221	5.0
42.236	5.0
42.251	9.0
42.266	6.0
42.28	16.0
42.295	12.0
42.31	10.0
42.325	8.0
42.34	17.0
42.355	16.0
42.369	6.0
42.384	18.0
42.399	22.0
42.414	13.0
42.429	11.0
42.444	15.0
42.459	8.0
42.474	11.0
42.488	6.0
42.503	11.0
42.518	10.0
42.533	10.0
42.548	8.0
42.563	4.0
42.578	11.0
42.593	14.0
42.608	8.0
42.622	9.0
42.637	8.0
42.652	10.0
42.667	10.0
42.682	7.0
42.697	8.0
42.712	10.0
42.727	13.0
42.742	8.0
42.757	8.0
42.772	6.0
42.786	6.0
42.801	11.0
42.816	13.0
42.831	7.0
42.846	4.0
42.861	7.0
42.876	4.0
42.891	3.0
42.906	4.0
42.921	5.0
42.936	5.0
42.951	6.0
42.966	3.0
42.981	5.0
42.996	4.0
43.011	4.0
43.025	2.0
43.04	3.0
43.055	5.0
43.07	7.0
43.085	4.0
43.1	4.0
43.115	2.0
43.13	11.0
43.145	1.0
43.16	7.0
43.175	10.0
43.19	3.0
43.205	1.0
43.22	8.0
43.235	2.0
43.25	4.0
43.265	5.0
43.28	1.0
43.295	7.0
43.31	6.0
43.325	8.0
43.34	9.0
43.355	9.0
43.37	8.0
43.385	8.0
43.4	7.0
43.415	9.0
43.43	7.0
43.445	6.0
43.46	4.0
43.475	6.0
43.49	9.0
43.505	7.0
43.52	14.0
43.535	11.0
43.55	6.0
43.565	5.0
43.58	9.0
43.595	15.0
43.61	8.0
43.625	10.0
43.64	4.0
43.655	9.0
43.67	5.0
43.685	5.0
43.7	8.0
43.715	12.0
43.73	9.0
43.745	8.0
43.76	10.0
43.775	3.0
43.79	10.0
43.805	7.0
43.82	6.0
43.835	5.0
43.85	9.0
43.865	9.0
43.88	9.0
43.895	4.0
43.91	6.0
43.925	9.0
43.94	8.0
43.955	9.0
43.97	11.0
43.985	9.0
44.0	6.0
44.015	4.0
44.03	7.0
44.045	9.0
44.061	5.0
44.076	5.0
44.091	6.0
44.106	4.0
44.121	7.0
44.136	2.0
44.151	4.0
44.166	2.0
44.181	6.0
44.196	6.0
44.211	7.0
44.226	5.0
44.241	5.0
44.256	6.0
44.271	6.0
44.286	2.0
44.301	2.0
44.316	2.0
44.331	6.0
44.346	3.0
44.361	5.0
44.377	4.0
44.392	6.0
44.407	4.0
44.422	3.0
44.437	2.0
44.452	8.0
44.467	7.0
44.482	10.0
44.497	6.0
44.512	5.0
44.527	8.0
44.542	10.0
44.557	4.0
44.572	3.0
44.587	7.0
44.602	7.0
44.617	11.0
44.632	4.0
44.647	6.0
44.663	8.0
44.678	8.0
44.693	4.0
44.708	8.0
44.723	9.0
44.738	6.0
44.753	10.0
44.768	7.0
44.783	12.0
44.798	10.0
44.813	16.0
44.828	8.0
44.843	15.0
44.858	7.0
44.873	13.0
44.888	5.0
44.903	9.0
44.918	5.0
44.933	4.0
44.948	5.0
44.964	6.0
44.979	8.0
44.994	6.0
45.009	8.0
45.024	9.0
45.039	7.0
45.054	7.0
45.069	9.0
45.084	8.0
45.099	12.0
45.114	5.0
45.129	10.0
45.144	7.0
45.159	5.0
45.174	6.0
45.189	8.0
45.204	5.0
45.219	6.0
45.234	3.0
45.249	7.0
45.264	4.0
45.279	9.0
45.294	4.0
45.309	4.0
45.324	3.0
45.339	4.0
45.354	2.0
45.369	5.0
45.384	5.0
45.399	4.0
45.414	11.0
45.429	7.0
45.444	6.0
45.459	9.0
45.474	7.0
45.489	4.0
45.504	3.0
45.519	7.0
45.534	7.0
45.549	4.0
45.564	6.0
45.579	7.0
45.594	6.0
45.609	5.0
45.624	5.0
45.639	9.0
45.654	3.0
45.669	7.0
45.684	5.0
45.699	7.0
45.714	6.0
45.729	5.0
45.744	5.0
45.759	7.0
45.774	9.0
45.789	3.0
45.804	7.0
45.819	5.0
45.834	3.0
45.849	6.0
45.864	11.0
45.879	8.0
45.894	9.0
45.909	14.0
45.924	12.0
45.939	17.0
45.954	11.0
45.969	17.0
45.984	13.0
45.998	17.0
46.013	10.0
46.028	20.0
46.043	5.0
46.058	7.0
46.073	16.0
46.088	8.0
46.103	9.0
46.118	4.0
46.133	6.0
46.148	5.0
46.163	8.0
46.178	8.0
46.192	6.0
46.207	10.0
46.222	11.0
46.237	12.0
46.252	8.0
46.267	9.0
46.282	12.0
46.297	10.0
46.312	9.0
46.327	11.0
46.341	9.0
46.356	12.0
46.371	5.0
46.386	11.0
46.401	6.0
46.416	6.0
46.431	9.0
46.446	5.0
46.46	3.0
46.475	10.0
46.49	4.0
46.505	6.0
46.52	5.0
46.535	5.0
46.55	6.0
46.564	2.0
46.579	4.0
46.594	6.0
46.609	6.0
46.624	3.0
46.639	5.0
46.654	2.0
46.668	6.0
46.683	6.0
46.698	7.0
46.713	11.0
46.728	7.0
46.743	3.0
46.758	5.0
46.772	5.0
46.787	4.0
46.802	5.0
46.817	0.0
46.832	1.0
46.847	3.0
46.861	4.0
46.876	5.0
46.891	1.0
46.906	3.0
46.921	3.0
46.936	5.0
46.95	7.0
46.965	6.0
46.98	7.0
46.995	8.0
47.01	7.0
47.025	9.0
47.039	5.0
47.054	9.0
47.069	8.0
47.084	6.0
47.099	12.0
47.113	10.0
47.128	10.0
47.143	3.0
47.158	8.0
47.173	7.0
47.188	5.0
47.202	11.0
47.217	7.0
47.232	5.0
47.247	5.0
47.262	6.0
47.277	5.0
47.291	7.0
47.306	3.0
47.321	3.0
47.336	5.0
47.351	5.0
47.365	5.0
47.38	7.0
47.395	2.0
47.41	4.0
47.425	2.0
47.44	8.0
47.454	3.0
47.469	6.0
47.484	10.0
47.499	13.0
47.514	4.0
47.528	4.0
47.543	5.0
47.558	2.0
47.573	8.0
47.588	3.0
47.603	1.0
47.617	6.0
47.632	3.0
47.647	4.0
47.662	8.0
47.677	6.0
47.691	6.0
47.706	6.0
47.721	8.0
47.736	2.0
47.751	8.0
47.766	5.0
47.78	5.0
47.795	7.0
47.81	4.0
47.825	2.0
47.84	6.0
47.855	4.0
47.869	4.0
47.884	1.0
47.899	2.0
47.914	5.0
47.929	4.0
47.944	4.0
47.958	2.0
47.973	6.0
47.988	4.0
48.003	3.0
48.018	3.0
48.033	5.0
48.047	2.0
48.062	7.0
48.077	3.0
48.092	3.0
48.107	5.0
48.122	3.0
48.137	2.0
48.151	5.0
48.166	5.0
48.181	5.0
48.196	6.0
48.211	10.0
48.226	6.0
48.241	4.0
48.255	6.0
48.27	2.0
48.285	3.0
48.3	4.0
48.315	4.0
48.33	7.0
48.345	5.0
48.359	4.0
48.374	6.0
48.389	6.0
48.404	3.0
48.419	4.0
48.434	3.0
48.449	4.0
48.464	6.0
48.478	3.0
48.493	3.0
48.508	5.0
48.523	4.0
48.538	8.0
48.553	4.0
48.568	2.0
48.583	3.0
48.597	2.0
48.612	9.0
48.627	6.0
48.642	5.0
48.657	7.0
48.672	8.0
48.687	7.0
48.702	7.0
48.717	4.0
48.731	8.0
48.746	4.0
48.761	7.0
48.776	2.0
48.791	3.0
48.806	7.0
48.821	8.0
48.836	6.0
48.851	7.0
48.866	9.0
48.88	8.0
48.895	2.0
48.91	3.0
48.925	7.0
48.94	7.0
48.955	5.0
48.97	6.0
48.985	6.0
49.0	6.0
49.015	2.0
49.03	2.0
49.044	7.0
49.059	7.0
49.074	7.0
49.089	7.0
49.104	4.0
49.119	5.0
49.134	8.0
49.149	3.0
49.164	7.0
49.179	6.0
49.194	4.0
49.209	3.0
49.224	4.0
49.238	8.0
49.253	7.0
49.268	4.0
49.283	10.0
49.298	4.0
49.313	5.0
49.328	8.0
49.343	9.0
49.358	6.0
49.373	3.0
49.388	8.0
49.403	7.0
49.418	11.0
49.433	7.0
49.448	9.0
49.463	2.0
49.478	7.0
49.492	8.0
49.507	4.0
49.522	7.0
49.537	6.0
49.552	5.0
49.567	5.0
49.582	6.0
49.597	3.0
49.612	3.0
49.627	5.0
49.642	4.0
49.657	8.0
49.672	6.0
49.687	6.0
49.702	2.0
49.717	5.0
49.732	4.0
49.747	10.0
49.762	6.0
49.777	7.0
49.792	4.0
49.807	6.0
49.822	4.0
49.837	6.0
49.852	4.0
49.867	4.0
49.882	5.0
49.897	4.0
49.912	6.0
49.927	3.0
49.942	5.0
49.957	5.0
49.971	5.0
49.986	5.0
50.001	3.0
50.016	8.0
50.031	6.0
50.046	8.0
50.061	5.0
50.076	2.0
50.091	5.0
50.106	2.0
50.121	5.0
50.136	3.0
50.151	8.0
50.166	3.0
50.181	5.0
50.196	1.0
50.211	7.0
50.226	6.0
50.241	6.0
50.256	4.0
50.271	5.0
50.286	5.0
50.302	4.0
50.317	7.0
50.332	7.0
50.347	9.0
50.362	4.0
50.377	5.0
50.392	10.0
50.407	11.0
50.422	8.0
50.437	6.0
50.452	6.0
50.467	11.0
50.482	13.0
50.497	8.0
50.512	4.0
50.527	10.0
50.542	6.0
50.557	8.0
50.572	7.0
50.587	5.0
50.602	6.0
50.617	7.0
50.632	5.0
50.647	9.0
50.662	3.0
50.677	9.0
50.692	5.0
50.707	4.0
50.722	4.0
50.737	9.0
50.752	5.0
50.767	7.0
50.782	10.0
50.797	3.0
50.812	9.0
50.828	6.0
50.843	7.0
50.858	8.0
50.873	5.0
50.888	6.0
50.903	7.0
50.918	3.0
50.933	2.0
50.948	4.0
50.963	2.0
50.978	5.0
50.993	4.0
51.008	2.0
51.023	5.0
51.038	2.0
51.053	7.0
51.068	2.0
51.083	2.0
51.098	1.0
51.114	6.0
51.129	2.0
51.144	4.0
51.159	4.0
51.174	5.0
51.189	2.0
51.204	3.0
51.219	5.0
51.234	2.0
51.249	8.0
51.264	6.0
51.279	4.0
51.294	6.0
51.309	9.0
51.324	5.0
51.34	10.0
51.355	4.0
51.37	7.0
51.385	6.0
51.4	6.0
51.415	7.0
51.43	10.0
51.445	16.0
51.46	6.0
51.475	13.0
51.49	13.0
51.505	12.0
51.52	14.0
51.535	13.0
51.551	14.0
51.566	11.0
51.581	11.0
51.596	11.0
51.611	13.0
51.626	10.0
51.641	2.0
51.656	5.0
51.671	10.0
51.686	10.0
51.701	5.0
51.716	8.0
51.732	3.0
51.747	5.0
51.762	6.0
51.777	9.0
51.792	9.0
51.807	13.0
51.822	14.0
51.837	6.0
51.852	9.0
51.867	15.0
51.882	17.0
51.898	13.0
51.913	8.0
51.928	9.0
51.943	11.0
51.958	12.0
51.973	4.0
51.988	5.0
52.003	4.0
52.018	3.0
52.033	6.0
52.048	4.0
52.064	4.0
52.079	5.0
52.094	5.0
52.109	7.0
52.124	1.0
52.139	5.0
52.154	6.0
52.169	8.0
52.184	9.0
52.199	4.0
52.215	6.0
52.23	8.0
52.245	6.0
52.26	3.0
52.275	3.0
52.29	5.0
52.305	9.0
52.32	6.0
52.335	6.0
52.35	8.0
52.366	3.0
52.381	6.0
52.396	1.0
52.411	5.0
52.426	4.0
52.441	4.0
52.456	9.0
52.471	5.0
52.486	8.0
52.502	8.0
52.517	10.0
52.532	8.0
52.547	11.0
52.562	9.0
52.577	7.0
52.592	7.0
52.607	5.0
52.622	7.0
52.637	8.0
52.653	11.0
52.668	3.0
52.683	10.0
52.698	8.0
52.713	3.0
52.728	5.0
52.743	7.0
52.758	2.0
52.774	3.0
52.789	1.0
52.804	5.0
52.819	4.0
52.834	4.0
52.849	11.0
52.864	12.0
52.879	5.0
52.894	8.0
52.91	4.0
52.925	7.0
52.94	9.0
52.955	7.0
52.97	5.0
52.985	4.0
53.0	5.0
53.015	5.0
53.031	8.0
53.046	5.0
53.061	9.0
53.076	6.0
53.091	8.0
53.106	2.0
53.121	5.0
53.136	5.0
53.152	8.0
53.167	5.0
53.182	4.0
53.197	3.0
53.212	6.0
53.227	6.0
53.242	4.0
53.257	4.0
53.273	5.0
53.288	3.0
53.303	6.0
53.318	1.0
53.333	1.0
53.348	3.0
53.363	4.0
53.379	5.0
53.394	5.0
53.409	5.0
53.424	3.0
53.439	6.0
53.454	5.0
53.469	2.0
53.484	5.0
53.5	2.0
53.515	9.0
53.53	5.0
53.545	8.0
53.56	2.0
53.575	1.0
53.59	5.0
53.606	4.0
53.621	9.0
53.636	6.0
53.651	5.0
53.666	2.0
53.681	2.0
53.696	1.0
53.712	4.0
53.727	7.0
53.742	2.0
53.757	5.0
53.772	7.0
53.787	4.0
53.802	4.0
53.818	5.0
53.833	1.0
53.848	4.0
53.863	4.0
53.878	8.0
53.893	7.0
53.909	3.0
53.924	5.0
53.939	6.0
53.954	4.0
53.969	3.0
53.984	8.0
53.999	3.0
54.015	5.0
54.03	5.0
54.045	5.0
54.06	4.0
54.075	2.0
54.09	3.0
54.106	2.0
54.121	3.0
54.136	7.0
54.151	6.0
54.166	4.0
54.181	4.0
54.197	6.0
54.212	3.0
54.227	6.0
54.242	7.0
54.257	4.0
54.272	4.0
54.288	7.0
54.303	1.0
54.318	5.0
54.333	2.0
54.348	4.0
54.363	4.0
54.379	5.0
54.394	2.0
54.409	6.0
54.424	2.0
54.439	7.0
54.454	10.0
54.47	7.0
54.485	5.0
54.5	7.0
54.515	8.0
54.53	10.0
54.545	13.0
54.561	8.0
54.576	9.0
54.591	7.0
54.606	9.0
54.621	11.0
54.636	11.0
54.652	13.0
54.667	14.0
54.682	12.0
54.697	12.0
54.712	5.0
54.727	11.0
54.743	5.0
54.758	7.0
54.773	7.0
54.788	6.0
54.803	5.0
54.819	7.0
54.834	2.0
54.849	9.0
54.864	6.0
54.879	3.0
54.894	1.0
54.91	4.0
54.925	8.0
54.94	10.0
54.955	9.0
54.97	7.0
54.985	8.0
55.001	9.0
55.016	10.0
55.031	9.0
55.046	14.0
55.061	10.0
55.077	8.0
55.092	8.0
55.107	9.0
55.122	4.0
55.137	7.0
55.152	3.0
55.168	3.0
55.183	5.0
55.198	11.0
55.213	7.0
55.228	7.0
55.243	5.0
55.259	4.0
55.274	6.0
55.289	5.0
55.304	1.0
55.319	4.0
55.335	5.0
55.35	3.0
55.365	5.0
55.38	4.0
55.395	4.0
55.41	6.0
55.426	5.0
55.441	2.0
55.456	2.0
55.471	5.0
55.486	6.0
55.501	6.0
55.517	5.0
55.532	5.0
55.547	5.0
55.562	2.0
55.577	9.0
55.592	7.0
55.608	9.0
55.623	4.0
55.638	3.0
55.653	4.0
55.668	12.0
55.683	3.0
55.699	6.0
55.714	11.0
55.729	7.0
55.744	6.0
55.759	5.0
55.774	7.0
55.79	2.0
55.805	4.0
55.82	0.0
55.835	4.0
55.85	2.0
55.865	8.0
55.881	3.0
55.896	7.0
55.911	3.0
55.926	5.0
55.941	6.0
55.956	7.0
55.972	8.0
55.987	5.0
56.002	5.0
56.017	7.0
56.032	6.0
56.047	5.0
56.063	7.0
56.078	7.0
56.093	4.0
56.108	4.0
56.123	10.0
56.138	6.0
56.154	4.0
56.169	3.0
56.184	5.0
56.199	5.0
56.214	6.0
56.229	5.0
56.244	3.0
56.26	9.0
56.275	3.0
56.29	3.0
56.305	4.0
56.32	4.0
56.335	6.0
56.351	3.0
56.366	6.0
56.381	3.0
56.396	2.0
56.411	5.0
56.426	4.0
56.441	2.0
56.457	8.0
56.472	3.0
56.487	8.0
56.502	2.0
56.517	6.0
56.532	5.0
56.547	5.0
56.563	3.0
56.578	3.0
56.593	4.0
56.608	6.0
56.623	4.0
56.638	2.0
56.653	0.0
56.668	2.0
56.684	3.0
56.699	4.0
56.714	3.0
56.729	1.0
56.744	5.0
56.759	5.0
56.774	3.0
56.79	7.0
56.805	6.0
56.82	6.0
56.835	5.0
56.85	8.0
56.865	3.0
56.88	2.0
56.895	2.0
56.911	6.0
56.926	4.0
56.941	4.0
56.956	2.0
56.971	6.0
56.986	6.0
57.001	1.0
57.016	9.0
57.031	3.0
57.047	2.0
57.062	4.0
57.077	7.0
57.092	5.0
57.107	6.0
57.122	1.0
57.137	4.0
57.152	2.0
57.167	8.0
57.183	2.0
57.198	3.0
57.213	4.0
57.228	11.0
57.243	2.0
57.258	4.0
57.273	3.0
57.288	5.0
57.303	6.0
57.318	4.0
57.334	4.0
57.349	5.0
57.364	3.0
57.379	2.0
57.394	3.0
57.409	0.0
57.424	8.0
57.439	8.0
57.454	5.0
57.469	12.0
57.484	5.0
57.5	9.0
57.515	2.0
57.53	3.0
57.545	4.0
57.56	2.0
57.575	7.0
57.59	4.0
57.605	4.0
57.62	7.0
57.635	13.0
57.65	7.0
57.665	6.0
57.68	10.0
57.696	4.0
57.711	6.0
57.726	8.0
57.741	5.0
57.756	4.0
57.771	6.0
57.786	7.0
57.801	3.0
57.816	2.0
57.831	10.0
57.846	5.0
57.861	5.0
57.876	5.0
57.891	7.0
57.906	9.0
57.921	3.0
57.937	3.0
57.952	0.0
57.967	4.0
57.982	4.0
57.997	2.0
58.012	7.0
58.027	6.0
58.042	7.0
58.057	3.0
58.072	5.0
58.087	1.0
58.102	4.0
58.117	4.0
58.132	4.0
58.147	6.0
58.162	3.0
58.177	3.0
58.192	3.0
58.207	3.0
58.222	3.0
58.237	5.0
58.252	3.0
58.267	6.0
58.282	8.0
58.297	3.0
58.312	5.0
58.327	5.0
58.342	2.0
58.357	5.0
58.372	8.0
58.387	5.0
58.402	8.0
58.418	4.0
58.433	4.0
58.448	6.0
58.463	6.0
58.478	6.0
58.493	3.0
58.508	7.0
58.523	6.0
58.538	7.0
58.553	4.0
58.568	10.0
58.583	8.0
58.598	7.0
58.613	7.0
58.628	5.0
58.643	8.0
58.658	4.0
58.673	9.0
58.688	12.0
58.703	14.0
58.718	8.0
58.733	7.0
58.748	9.0
58.763	6.0
58.778	4.0
58.793	5.0
58.808	8.0
58.823	2.0
58.838	6.0
58.853	3.0
58.868	6.0
58.883	2.0
58.898	6.0
58.913	4.0
58.928	8.0
58.942	5.0
58.957	3.0
58.972	8.0
58.987	6.0
59.002	4.0
59.017	9.0
59.032	9.0
59.047	12.0
59.062	5.0
59.077	11.0
59.092	6.0
59.107	4.0
59.122	8.0
59.137	8.0
59.152	1.0
59.167	4.0
59.182	2.0
59.197	5.0
59.212	2.0
59.227	3.0
59.242	8.0
59.257	1.0
59.272	4.0
59.287	4.0
59.302	6.0
59.317	4.0
59.332	3.0
59.347	4.0
59.362	5.0
59.377	2.0
59.392	3.0
59.407	3.0
59.422	11.0
59.437	5.0
59.452	3.0
59.467	10.0
59.482	9.0
59.497	5.0
59.512	2.0
59.527	7.0
59.542	6.0
59.557	6.0
59.572	7.0
59.587	6.0
59.602	10.0
59.617	8.0
59.632	9.0
59.647	8.0
59.661	10.0
59.676	10.0
59.691	7.0
59.706	9.0
59.721	5.0
59.736	3.0
59.751	3.0
59.766	7.0
59.781	4.0
59.796	4.0
59.811	5.0
59.826	5.0
59.841	8.0
59.856	6.0
59.871	1.0
59.886	2.0
59.901	2.0
59.916	4.0
59.931	4.0
59.946	4.0
59.961	4.0
59.976	10.0
59.991	7.0
60.006	5.0
60.021	8.0
60.036	3.0
60.051	9.0
60.066	10.0
60.081	10.0
60.096	7.0
60.111	5.0
60.126	4.0
60.141	9.0
60.156	3.0
60.171	6.0
60.186	6.0
60.201	1.0
60.216	5.0
60.231	6.0
60.246	3.0
60.261	2.0
60.276	7.0
60.291	3.0
60.306	6.0
60.321	7.0
60.336	3.0
60.35	7.0
60.365	3.0
60.38	0.0
60.395	2.0
60.41	8.0
60.425	4.0
60.44	1.0
60.455	3.0
60.47	4.0
60.485	2.0
60.5	2.0
60.515	6.0
60.53	4.0
60.545	9.0
60.56	11.0
60.575	10.0
60.59	6.0
60.605	5.0
60.62	8.0
60.635	3.0
60.65	6.0
60.665	11.0
60.68	4.0
60.695	3.0
60.71	3.0
60.725	6.0
60.74	2.0
60.755	6.0
60.77	5.0
60.785	1.0
60.8	5.0
60.815	6.0
60.83	4.0
60.845	4.0
60.86	4.0
60.875	3.0
60.89	8.0
60.905	4.0
60.92	2.0
60.935	1.0
60.95	3.0
60.965	3.0
60.98	8.0
60.995	6.0
61.01	8.0
61.025	5.0
61.04	6.0
61.055	6.0
61.07	7.0
61.085	11.0
61.1	6.0
61.115	4.0
61.13	3.0
61.145	2.0
61.16	4.0
61.175	4.0
61.191	5.0
61.206	5.0
61.221	3.0
61.236	5.0
61.251	3.0
61.266	2.0
61.281	3.0
61.296	3.0
61.311	7.0
61.326	3.0
61.341	1.0
61.356	7.0
61.371	0.0
61.386	5.0
61.401	4.0
61.416	5.0
61.431	1.0
61.446	4.0
61.461	6.0
61.476	5.0
61.491	3.0
61.506	5.0
61.521	5.0
61.536	8.0
61.551	4.0
61.566	3.0
61.581	7.0
61.596	8.0
61.611	7.0
61.626	5.0
61.641	5.0
61.656	8.0
61.672	1.0
61.687	5.0
61.702	6.0
61.717	4.0
61.732	1.0
61.747	4.0
61.762	3.0
61.777	2.0
61.792	3.0
61.807	3.0
61.822	1.0
61.837	4.0
61.852	5.0
61.867	4.0
61.882	6.0
61.897	2.0
61.912	5.0
61.927	3.0
61.943	7.0
61.958	4.0
61.973	11.0
61.988	3.0
62.003	7.0
62.018	3.0
62.033	4.0
62.048	5.0
62.063	5.0
62.078	1.0
62.093	5.0
62.108	5.0
62.123	1.0
62.138	4.0
62.153	0.0
62.169	5.0
62.184	2.0
62.199	5.0
62.214	4.0
62.229	2.0
62.244	4.0
62.259	2.0
62.274	4.0
62.289	6.0
62.304	7.0
62.319	4.0
62.335	8.0
62.35	5.0
62.365	4.0
62.38	2.0
62.395	4.0
62.41	7.0
62.425	7.0
62.44	5.0
62.455	6.0
62.47	3.0
62.485	5.0
62.501	5.0
62.516	2.0
62.531	2.0
62.546	5.0
62.561	1.0
62.576	3.0
62.591	7.0
62.606	5.0
62.621	4.0
62.636	3.0
62.652	2.0
62.667	9.0
62.682	6.0
62.697	4.0
62.712	4.0
62.727	2.0
62.742	3.0
62.757	4.0
62.772	6.0
62.787	5.0
62.803	2.0
62.818	7.0
62.833	5.0
62.848	6.0
62.863	5.0
62.878	3.0
62.893	4.0
62.908	6.0
62.923	3.0
62.939	1.0
62.954	3.0
62.969	2.0
62.984	7.0
62.999	5.0
63.014	4.0
63.029	8.0
63.044	2.0
63.059	2.0
63.074	3.0
63.09	4.0
63.105	7.0
63.12	2.0
63.135	3.0
63.15	4.0
63.165	3.0
63.18	4.0
63.195	2.0
63.21	6.0
63.226	5.0
63.241	7.0
63.256	2.0
63.271	3.0
63.286	7.0
63.301	2.0
63.316	8.0
63.331	6.0
63.346	4.0
63.362	9.0
63.377	5.0
63.392	10.0
63.407	5.0
63.422	6.0
63.437	12.0
63.452	4.0
63.467	7.0
63.482	7.0
63.497	3.0
63.513	4.0
63.528	6.0
63.543	0.0
63.558	1.0
63.573	6.0
63.588	7.0
63.603	4.0
63.618	5.0
63.633	7.0
63.648	2.0
63.664	5.0
63.679	2.0
63.694	3.0
63.709	5.0
63.724	3.0
63.739	5.0
63.754	2.0
63.769	3.0
63.784	8.0
63.799	2.0
63.814	3.0
63.83	2.0
63.845	4.0
63.86	6.0
63.875	7.0
63.89	3.0
63.905	2.0
63.92	4.0
63.935	5.0
63.95	9.0
63.965	2.0
63.98	6.0
63.996	3.0
64.011	5.0
64.026	0.0
64.041	4.0
64.056	4.0
64.071	6.0
64.086	2.0
64.101	5.0
64.116	1.0
64.131	0.0
64.146	4.0
64.161	4.0
64.176	0.0
64.191	3.0
64.207	6.0
64.222	6.0
64.237	3.0
64.252	4.0
64.267	2.0
64.282	6.0
64.297	4.0
64.312	5.0
64.327	1.0
64.342	5.0
64.357	5.0
64.372	2.0
64.387	5.0
64.402	3.0
64.417	3.0
64.433	2.0
64.448	4.0
64.463	7.0
64.478	5.0
64.493	8.0
64.508	3.0
64.523	5.0
64.538	4.0
64.553	4.0
64.568	1.0
64.583	3.0
64.598	4.0
64.613	5.0
64.628	5.0
64.643	7.0
64.658	3.0
64.673	0.0
64.688	4.0
64.703	2.0
64.718	3.0
64.734	3.0
64.749	3.0
64.764	4.0
64.779	5.0
64.794	2.0
64.809	2.0
64.824	5.0
64.839	3.0
64.854	5.0
64.869	5.0
64.884	3.0
64.899	5.0
64.914	9.0
64.929	5.0
64.944	3.0
64.959	2.0
64.974	5.0
64.989	3.0
65.004	5.0
65.019	4.0
65.034	4.0
65.049	3.0
65.064	6.0
65.079	2.0
65.094	6.0
65.109	3.0
65.125	5.0
65.14	3.0
65.155	3.0
65.17	6.0
65.185	4.0
65.2	2.0
65.215	3.0
65.23	3.0
65.245	2.0
65.26	7.0
65.275	3.0
65.29	5.0
65.305	4.0
65.32	8.0
65.335	3.0
65.35	9.0
65.365	3.0
65.38	1.0
65.395	3.0
65.41	2.0
65.425	7.0
65.44	6.0
65.455	4.0
65.47	5.0
65.485	4.0
65.5	3.0
65.515	1.0
65.53	3.0
65.545	3.0
65.56	1.0
65.575	5.0
65.59	3.0
65.605	0.0
65.62	4.0
65.635	1.0
65.65	8.0
65.666	5.0
65.681	4.0
65.696	3.0
65.711	3.0
65.726	2.0
65.741	5.0
65.756	4.0
65.771	7.0
65.786	4.0
65.801	8.0
65.816	2.0
65.831	1.0
65.846	3.0
65.861	2.0
65.876	2.0
65.891	8.0
65.906	1.0
65.921	5.0
65.936	2.0
65.951	1.0
65.966	7.0
65.981	2.0
65.996	4.0
66.011	4.0
66.026	4.0
66.041	7.0
66.056	2.0
66.071	3.0
66.086	2.0
66.101	6.0
66.116	2.0
66.131	6.0
66.146	7.0
66.161	5.0
66.176	9.0
66.191	5.0
66.206	9.0
66.221	7.0
66.236	9.0
66.251	1.0
66.266	10.0
66.281	6.0
66.296	6.0
66.311	3.0
66.327	3.0
66.342	3.0
66.357	4.0
66.372	3.0
66.387	4.0
66.402	2.0
66.417	4.0
66.432	4.0
66.447	6.0
66.462	4.0
66.477	2.0
66.492	3.0
66.507	7.0
66.522	1.0
66.537	3.0
66.552	6.0
66.567	4.0
66.582	2.0
66.597	6.0
66.612	8.0
66.627	6.0
66.642	6.0
66.657	6.0
66.672	5.0
66.687	7.0
66.702	5.0
66.717	8.0
66.732	5.0
66.747	3.0
66.762	4.0
66.777	4.0
66.792	1.0
66.807	6.0
66.822	5.0
66.837	2.0
66.853	4.0
66.868	3.0
66.883	4.0
66.898	2.0
66.913	2.0
66.928	3.0
66.943	2.0
66.958	2.0
66.973	7.0
66.988	1.0
67.003	5.0
67.018	7.0
67.033	1.0
67.048	5.0
67.063	4.0
67.078	6.0
67.093	7.0
67.108	4.0
67.123	1.0
67.138	7.0
67.153	6.0
67.168	8.0
67.183	2.0
67.198	1.0
67.214	2.0
67.229	4.0
67.244	2.0
67.259	3.0
67.274	6.0
67.289	4.0
67.304	4.0
67.319	3.0
67.334	2.0
67.349	3.0
67.364	4.0
67.379	4.0
67.394	5.0
67.409	2.0
67.424	5.0
67.439	5.0
67.454	4.0
67.469	4.0
67.484	5.0
67.5	3.0
67.515	4.0
67.53	3.0
67.545	4.0
67.56	2.0
67.575	4.0
67.59	3.0
67.605	3.0
67.62	5.0
67.635	2.0
67.65	4.0
67.665	5.0
67.68	3.0
67.695	3.0
67.71	3.0
67.726	3.0
67.741	5.0
67.756	1.0
67.771	2.0
67.786	4.0
67.801	2.0
67.816	5.0
67.831	4.0
67.846	2.0
67.861	3.0
67.876	5.0
67.891	4.0
67.906	2.0
67.922	4.0
67.937	1.0
67.952	6.0
67.967	8.0
67.982	3.0
67.997	6.0
68.012	2.0
68.027	2.0
68.042	4.0
68.057	2.0
68.072	7.0
68.087	3.0
68.103	6.0
68.118	4.0
68.133	3.0
68.148	0.0
68.163	2.0
68.178	5.0
68.193	2.0
68.208	3.0
68.223	6.0
68.238	5.0
68.254	3.0
68.269	6.0
68.284	7.0
68.299	5.0
68.314	0.0
68.329	1.0
68.344	8.0
68.359	3.0
68.374	2.0
68.389	6.0
68.405	5.0
68.42	2.0
68.435	4.0
68.45	1.0
68.465	3.0
68.48	6.0
68.495	6.0
68.51	6.0
68.525	7.0
68.54	2.0
68.556	1.0
68.571	5.0
68.586	7.0
68.601	1.0
68.616	2.0
68.631	4.0
68.646	1.0
68.661	4.0
68.676	7.0
68.691	4.0
68.707	2.0
68.722	4.0
68.737	2.0
68.752	3.0
68.767	5.0
68.782	6.0
68.797	2.0
68.812	0.0
68.827	5.0
68.842	4.0
68.857	4.0
68.873	5.0
68.888	5.0
68.903	4.0
68.918	5.0
68.933	3.0
68.948	4.0
68.963	1.0
68.978	5.0
68.993	3.0
69.008	4.0
69.023	1.0
69.038	2.0
69.054	1.0
69.069	5.0
69.084	5.0
69.099	4.0
69.114	3.0
69.129	5.0
69.144	2.0
69.159	5.0
69.174	2.0
69.189	6.0
69.204	7.0
69.219	1.0
69.234	3.0
69.249	3.0
69.264	3.0
69.279	5.0
69.295	5.0
69.31	3.0
69.325	1.0
69.34	4.0
69.355	2.0
69.37	4.0
69.385	6.0
69.4	5.0
69.415	5.0
69.43	6.0
69.445	2.0
69.46	5.0
69.475	3.0
69.49	5.0
69.505	3.0
69.52	6.0
69.535	3.0
69.55	2.0
69.565	3.0
69.58	2.0
69.595	3.0
69.61	1.0
69.625	5.0
69.64	2.0
69.655	5.0
69.67	5.0
69.685	4.0
69.7	5.0
69.715	6.0
69.73	1.0
69.745	9.0
69.76	10.0
69.775	8.0
69.79	7.0
69.805	7.0
69.82	4.0
69.835	4.0
69.85	6.0
69.865	8.0
69.88	7.0
69.895	4.0
69.909	8.0
69.924	3.0
69.939	6.0
69.954	3.0
69.969	4.0
69.984	10.0
69.999	3.0
70.014	3.0
70.029	3.0
70.044	4.0
70.059	6.0
70.074	2.0
70.088	6.0
70.103	7.0
70.118	3.0
70.133	2.0
70.148	0.0
70.163	3.0
70.178	5.0
70.193	3.0
70.208	4.0
70.222	4.0
70.237	4.0
70.252	4.0
70.267	4.0
70.282	2.0
70.297	3.0
70.312	7.0
70.327	8.0
70.341	10.0
70.356	5.0
70.371	4.0
70.386	1.0
70.401	6.0
70.416	2.0
70.43	2.0
70.445	5.0
70.46	2.0
70.475	5.0
70.49	5.0
70.505	2.0
70.519	3.0
70.534	3.0
70.549	2.0
70.564	4.0
70.579	4.0
70.594	1.0
70.608	5.0
70.623	6.0
70.638	4.0
70.653	6.0
70.668	3.0
70.683	7.0
70.697	4.0
70.712	4.0
70.727	7.0
70.742	7.0
70.757	3.0
70.771	2.0
70.786	2.0
70.801	1.0
70.816	5.0
70.831	4.0
70.845	3.0
70.86	3.0
70.875	2.0
70.89	1.0
70.905	3.0
70.92	1.0
70.934	1.0
70.949	5.0
70.964	4.0
70.979	0.0
70.994	1.0
71.008	1.0
71.023	4.0
71.038	6.0
71.053	10.0
71.068	2.0
71.082	1.0
71.097	5.0
71.112	2.0
71.127	4.0
71.142	3.0
71.156	5.0
71.171	3.0
71.186	2.0
71.201	7.0
71.216	7.0
71.231	5.0
71.245	2.0
71.26	2.0
71.275	4.0
71.29	4.0
71.305	2.0
71.319	1.0
71.334	5.0
71.349	3.0
71.364	2.0
71.379	6.0
71.394	6.0
71.408	3.0
71.423	1.0
71.438	2.0
71.453	4.0
71.468	4.0
71.483	3.0
71.497	7.0
71.512	3.0
71.527	7.0
71.542	4.0
71.557	3.0
71.572	3.0
71.586	2.0
71.601	2.0
71.616	3.0
71.631	4.0
71.646	2.0
71.661	4.0
71.676	2.0
71.69	2.0
71.705	3.0
71.72	3.0
71.735	3.0
71.75	3.0
71.765	3.0
71.78	2.0
71.795	4.0
71.81	3.0
71.824	2.0
71.839	3.0
71.854	2.0
71.869	6.0
71.884	1.0
71.899	1.0
71.914	3.0
71.929	6.0
71.944	0.0
71.959	1.0
71.974	3.0
71.988	2.0
72.003	3.0
72.018	3.0
72.033	3.0
72.048	4.0
72.063	4.0
72.078	6.0
72.093	1.0
72.108	3.0
72.123	5.0
72.138	1.0
72.153	3.0
72.168	1.0
72.183	2.0
72.198	0.0
72.213	2.0
72.228	2.0
72.243	1.0
72.258	4.0
72.273	7.0
72.288	2.0
72.303	4.0
72.318	6.0
72.333	5.0
72.348	3.0
72.363	5.0
72.378	3.0
72.393	2.0
72.408	2.0
72.423	2.0
72.438	5.0
72.453	3.0
72.468	5.0
72.483	3.0
72.498	2.0
72.513	3.0
72.528	2.0
72.543	3.0
72.558	2.0
72.573	2.0
72.588	3.0
72.603	3.0
72.618	2.0
72.633	0.0
72.649	2.0
72.664	3.0
72.679	4.0
72.694	0.0
72.709	3.0
72.724	1.0
72.739	4.0
72.754	5.0
72.769	4.0
72.784	0.0
72.799	1.0
72.814	0.0
72.829	2.0
72.845	2.0
72.86	4.0
72.875	7.0
72.89	4.0
72.905	1.0
72.92	4.0
72.935	6.0
72.95	5.0
72.965	4.0
72.98	3.0
72.996	7.0
73.011	6.0
73.026	5.0
73.041	4.0
73.056	2.0
73.071	4.0
73.086	1.0
73.101	0.0
73.117	2.0
73.132	2.0
73.147	1.0
73.162	2.0
73.177	5.0
73.192	4.0
73.207	3.0
73.222	7.0
73.238	5.0
73.253	7.0
73.268	4.0
73.283	4.0
73.298	5.0
73.313	3.0
73.328	6.0
73.343	3.0
73.359	6.0
73.374	2.0
73.389	1.0
73.404	2.0
73.419	0.0
73.434	2.0
73.449	2.0
73.465	4.0
73.48	3.0
73.495	5.0
73.51	2.0
73.525	3.0
73.54	1.0
73.556	7.0
73.571	3.0
73.586	4.0
73.601	2.0
73.616	9.0
73.631	4.0
73.646	0.0
73.662	2.0
73.677	4.0
73.692	4.0
73.707	0.0
73.722	8.0
73.737	4.0
73.752	4.0
73.768	5.0
73.783	5.0
73.798	3.0
73.813	8.0
73.828	4.0
73.843	4.0
73.859	2.0
73.874	2.0
73.889	8.0
73.904	3.0
73.919	3.0
73.934	1.0
73.949	3.0
73.965	7.0
73.98	2.0
73.995	3.0
74.01	4.0
74.025	2.0
74.04	3.0
74.056	5.0
74.071	5.0
74.086	3.0
74.101	2.0
74.116	5.0
74.131	5.0
74.146	4.0
74.162	4.0
74.177	4.0
74.192	8.0
74.207	11.0
74.222	8.0
74.237	8.0
74.252	7.0
74.268	4.0
74.283	2.0
74.298	1.0
74.313	3.0
74.328	5.0
74.343	3.0
74.358	5.0
74.374	1.0
74.389	4.0
74.404	3.0
74.419	6.0
74.434	2.0
74.449	1.0
74.464	2.0
74.48	2.0
74.495	2.0
74.51	2.0
74.525	8.0
74.54	3.0
74.555	3.0
74.57	3.0
74.586	1.0
74.601	4.0
74.616	2.0
74.631	5.0
74.646	4.0
74.661	5.0
74.676	5.0
74.691	5.0
74.707	9.0
74.722	3.0
74.737	11.0
74.752	7.0
74.767	7.0
74.782	4.0
74.797	2.0
74.813	4.0
74.828	5.0
74.843	3.0
74.858	3.0
74.873	3.0
74.888	0.0
74.903	1.0
74.918	2.0
74.934	5.0
74.949	0.0
74.964	3.0
74.979	5.0
74.994	1.0
75.009	8.0
75.024	6.0
75.04	6.0
75.055	2.0
75.07	7.0
75.085	3.0
75.1	4.0
75.115	3.0
75.13	4.0
75.145	2.0
75.161	2.0
75.176	1.0
75.191	2.0
75.206	1.0
75.221	5.0
75.236	2.0
75.251	5.0
75.266	1.0
75.282	1.0
75.297	2.0
75.312	3.0
75.327	4.0
75.342	1.0
75.357	6.0
75.372	3.0
75.387	3.0
75.403	4.0
75.418	5.0
75.433	7.0
75.448	4.0
75.463	0.0
75.478	3.0
75.493	1.0
75.509	4.0
75.524	6.0
75.539	2.0
75.554	4.0
75.569	4.0
75.584	3.0
75.599	12.0
75.614	7.0
75.63	2.0
75.645	2.0
75.66	6.0
75.675	2.0
75.69	2.0
75.705	7.0
75.72	2.0
75.735	2.0
75.751	3.0
75.766	4.0
75.781	1.0
75.796	2.0
75.811	4.0
75.826	3.0
75.841	2.0
75.856	5.0
75.872	2.0
75.887	4.0
75.902	2.0
75.917	7.0
75.932	3.0
75.947	4.0
75.962	5.0
75.977	4.0
75.993	3.0
76.008	1.0
76.023	2.0
76.038	3.0
76.053	0.0
76.068	2.0
76.083	3.0
76.098	3.0
76.114	5.0
76.129	2.0
76.144	1.0
76.159	6.0
76.174	5.0
76.189	2.0
76.204	7.0
76.22	1.0
76.235	4.0
76.25	3.0
76.265	2.0
76.28	5.0
76.295	4.0
76.31	4.0
76.325	2.0
76.341	2.0
76.356	2.0
76.371	0.0
76.386	2.0
76.401	8.0
76.416	3.0
76.431	3.0
76.446	2.0
76.462	3.0
76.477	4.0
76.492	4.0
76.507	6.0
76.522	4.0
76.537	2.0
76.552	3.0
76.567	4.0
76.583	2.0
76.598	4.0
76.613	2.0
76.628	5.0
76.643	6.0
76.658	1.0
76.673	4.0
76.688	3.0
76.704	1.0
76.719	4.0
76.734	2.0
76.749	6.0
76.764	2.0
76.779	2.0
76.794	4.0
76.809	2.0
76.824	8.0
76.84	3.0
76.855	2.0
76.87	3.0
76.885	6.0
76.9	1.0
76.915	3.0
76.93	3.0
76.945	2.0
76.96	3.0
76.976	3.0
76.991	4.0
77.006	2.0
77.021	2.0
77.036	4.0
77.051	1.0
77.066	3.0
77.081	3.0
77.096	3.0
77.112	2.0
77.127	2.0
77.142	5.0
77.157	4.0
77.172	3.0
77.187	4.0
77.202	3.0
77.217	5.0
77.232	5.0
77.247	2.0
77.263	2.0
77.278	5.0
77.293	1.0
77.308	4.0
77.323	8.0
77.338	3.0
77.353	2.0
77.368	2.0
77.383	6.0
77.398	1.0
77.413	4.0
77.428	6.0
77.444	3.0
77.459	3.0
77.474	3.0
77.489	6.0
77.504	1.0
77.519	2.0
77.534	3.0
77.549	5.0
77.564	3.0
77.579	6.0
77.594	10.0
77.609	5.0
77.624	6.0
77.64	5.0
77.655	2.0
77.67	5.0
77.685	7.0
77.7	9.0
77.715	3.0
77.73	4.0
77.745	2.0
77.76	1.0
77.775	3.0
77.79	3.0
77.805	3.0
77.82	7.0
77.835	2.0
77.85	4.0
77.865	5.0
77.88	2.0
77.895	5.0
77.91	3.0
77.926	2.0
77.941	4.0
77.956	2.0
77.971	6.0
77.986	5.0
78.001	3.0
78.016	0.0
78.031	3.0
78.046	7.0
78.061	4.0
78.076	3.0
78.091	4.0
78.106	2.0
78.121	1.0
78.136	4.0
78.151	2.0
78.166	2.0
78.181	3.0
78.196	8.0
78.211	2.0
78.226	4.0
78.241	3.0
78.256	0.0
78.271	3.0
78.286	0.0
78.301	1.0
78.316	5.0
78.331	1.0
78.346	1.0
78.361	3.0
78.376	2.0
78.391	3.0
78.406	4.0
78.421	5.0
78.436	5.0
78.451	1.0
78.466	3.0
78.481	3.0
78.496	2.0
78.511	2.0
78.526	3.0
78.541	2.0
78.556	4.0
78.571	2.0
78.586	2.0
78.601	0.0
78.616	3.0
78.631	3.0
78.646	4.0
78.661	3.0
78.676	2.0
78.691	2.0
78.706	5.0
78.721	4.0
78.736	3.0
78.751	3.0
78.766	2.0
78.781	3.0
78.796	6.0
78.811	2.0
78.826	5.0
78.841	3.0
78.856	6.0
78.871	4.0
78.885	1.0
78.9	5.0
78.915	3.0
78.93	0.0
78.945	2.0
78.96	1.0
78.975	4.0
78.99	4.0
79.005	3.0
79.02	1.0
79.035	4.0
79.05	2.0
79.065	3.0
79.08	3.0
79.095	3.0
79.11	2.0
79.125	2.0
79.14	4.0
79.155	1.0
79.17	1.0
79.185	3.0
79.2	5.0
79.215	3.0
79.23	5.0
79.245	3.0
79.26	5.0
79.275	3.0
79.29	4.0
79.304	3.0
79.319	3.0
79.334	4.0
79.349	5.0
79.364	4.0
79.379	3.0
79.394	6.0
79.409	3.0
79.424	2.0
79.439	5.0
79.454	0.0
79.469	0.0
79.484	4.0
79.499	5.0
79.514	2.0
79.529	3.0
79.544	1.0
79.559	3.0
79.574	2.0
79.589	1.0
79.604	0.0
79.619	1.0
79.634	6.0
79.649	2.0
79.664	4.0
79.679	4.0
79.693	1.0
79.708	3.0
79.723	0.0
79.738	3.0
79.753	1.0
79.768	4.0
79.783	0.0
79.798	2.0
79.813	1.0
79.828	0.0
79.843	2.0
79.858	2.0
79.873	4.0
79.888	1.0
79.903	7.0
79.918	4.0
79.933	4.0
79.948	3.0
79.963	5.0
79.978	3.0
79.993	0.0
80.008	2.0
80.023	0.0
80.038	3.0
80.053	4.0
80.068	3.0
80.083	5.0
80.098	5.0
80.113	3.0
80.128	5.0
80.143	4.0
80.158	4.0
80.173	4.0
80.188	3.0
80.202	5.0
80.217	6.0
80.232	8.0
80.247	6.0
80.262	3.0
80.277	4.0
80.292	3.0
80.307	4.0
80.322	3.0
80.337	3.0
80.352	4.0
80.367	1.0
80.382	3.0
80.397	4.0
80.412	6.0
80.427	3.0
80.442	6.0
80.457	3.0
80.472	2.0
80.487	4.0
80.502	4.0
80.517	2.0
80.532	2.0
80.547	5.0
80.562	1.0
80.577	4.0
80.592	2.0
80.607	2.0
80.622	4.0
80.637	4.0
80.652	2.0
80.667	1.0
80.682	1.0
80.697	6.0
80.712	4.0
80.727	1.0
80.742	3.0
80.757	2.0
80.772	4.0
80.787	3.0
80.802	9.0
80.817	2.0
80.832	2.0
80.847	4.0
80.862	2.0
80.877	6.0
80.892	4.0
80.907	3.0
80.922	5.0
80.937	4.0
80.952	3.0
80.967	3.0
80.982	7.0
80.997	1.0
81.012	4.0
81.027	5.0
81.042	1.0
81.057	5.0
81.072	2.0
81.087	1.0
81.101	6.0
81.116	7.0
81.131	4.0
81.146	2.0
81.161	4.0
81.176	4.0
81.191	1.0
81.206	1.0
81.221	7.0
81.236	3.0
81.251	2.0
81.266	5.0
81.281	4.0
81.296	2.0
81.311	5.0
81.326	2.0
81.341	3.0
81.356	4.0
81.371	6.0
81.386	1.0
81.401	2.0
81.416	3.0
81.431	1.0
81.446	2.0
81.461	1.0
81.476	1.0
81.491	2.0
81.506	4.0
81.521	8.0
81.536	3.0
81.55	1.0
81.565	7.0
81.58	1.0
81.595	4.0
81.61	4.0
81.625	5.0
81.64	5.0
81.655	7.0
81.67	4.0
81.685	2.0
81.7	5.0
81.715	2.0
81.73	3.0
81.745	2.0
81.76	5.0
81.775	7.0
81.79	4.0
81.805	3.0
81.819	1.0
81.834	6.0
81.849	1.0
81.864	3.0
81.879	7.0
81.894	4.0
81.909	6.0
81.924	6.0
81.939	4.0
81.954	5.0
81.969	4.0
81.984	5.0
81.999	6.0
82.013	5.0
82.028	3.0
82.043	3.0
82.058	4.0
82.073	2.0
82.088	4.0
82.103	4.0
82.118	2.0
82.133	3.0
82.148	0.0
82.163	2.0
82.177	3.0
82.192	3.0
82.207	5.0
82.222	5.0
82.237	3.0
82.252	0.0
82.267	5.0
82.282	0.0
82.297	1.0
82.312	3.0
82.326	1.0
82.341	2.0
82.356	2.0
82.371	3.0
82.386	4.0
82.401	3.0
82.416	2.0
82.431	3.0
82.445	2.0
82.46	3.0
82.475	2.0
82.49	4.0
82.505	3.0
82.52	4.0
82.535	6.0
82.55	5.0
82.565	2.0
82.579	1.0
82.594	3.0
82.609	5.0
82.624	6.0
82.639	0.0
82.654	3.0
82.669	3.0
82.684	2.0
82.698	4.0
82.713	2.0
82.728	3.0
82.743	1.0
82.758	3.0
82.773	3.0
82.788	2.0
82.803	1.0
82.817	3.0
82.832	1.0
82.847	4.0
82.862	3.0
82.877	1.0
82.892	0.0
82.907	3.0
82.922	0.0
82.937	5.0
82.951	2.0
82.966	1.0
82.981	3.0
82.996	1.0
83.011	6.0
83.026	1.0
83.041	1.0
83.056	2.0
83.07	3.0
83.085	4.0
83.1	1.0
83.115	3.0
83.13	2.0
83.145	4.0
83.16	2.0
83.175	5.0
83.19	0.0
83.204	5.0
83.219	7.0
83.234	1.0
83.249	4.0
83.264	0.0
83.279	6.0
83.294	4.0
83.309	5.0
83.324	3.0
83.339	1.0
83.353	2.0
83.368	2.0
83.383	4.0
83.398	2.0
83.413	1.0
83.428	7.0
83.443	4.0
83.458	4.0
83.473	5.0
83.488	3.0
83.503	3.0
83.517	3.0
83.532	5.0
83.547	1.0
83.562	2.0
83.577	5.0
83.592	3.0
83.607	7.0
83.622	2.0
83.637	3.0
83.652	2.0
83.667	1.0
83.682	2.0
83.697	3.0
83.712	1.0
83.727	1.0
83.741	3.0
83.756	1.0
83.771	7.0
83.786	1.0
83.801	7.0
83.816	4.0
83.831	1.0
83.846	1.0
83.861	7.0
83.876	0.0
83.891	4.0
83.906	5.0
83.921	3.0
83.936	5.0
83.951	2.0
83.966	2.0
83.981	4.0
83.996	5.0
84.011	1.0
84.026	1.0
84.041	3.0
84.056	4.0
84.071	5.0
84.086	4.0
84.101	3.0
84.116	0.0
84.131	4.0
84.146	1.0
84.161	1.0
84.176	5.0
84.191	2.0
84.206	2.0
84.221	3.0
84.236	6.0
84.251	4.0
84.266	2.0
84.281	2.0
84.296	5.0
84.311	1.0
84.326	3.0
84.341	5.0
84.356	5.0
84.371	3.0
84.386	6.0
84.401	4.0
84.416	4.0
84.431	2.0
84.446	6.0
84.461	2.0
84.476	4.0
84.492	5.0
84.507	3.0
84.522	5.0
84.537	0.0
84.552	3.0
84.567	4.0
84.582	5.0
84.597	4.0
84.612	4.0
84.627	4.0
84.642	1.0
84.657	1.0
84.672	8.0
84.687	3.0
84.702	3.0
84.717	1.0
84.733	4.0
84.748	1.0
84.763	2.0
84.778	2.0
84.793	4.0
84.808	3.0
84.823	6.0
84.838	5.0
84.853	3.0
84.868	5.0
84.883	4.0
84.898	1.0
84.913	5.0
84.929	2.0
84.944	2.0
84.959	5.0
84.974	6.0
84.989	3.0
85.004	7.0
85.019	4.0
85.034	2.0
85.049	3.0
85.064	2.0
85.079	3.0
85.094	5.0
85.11	2.0
85.125	2.0
85.14	3.0
85.155	3.0
85.17	1.0
85.185	2.0
85.2	3.0
85.215	1.0
85.23	3.0
85.245	2.0
85.26	6.0
85.276	4.0
85.291	3.0
85.306	4.0
85.321	0.0
85.336	5.0
85.351	4.0
85.366	1.0
85.381	3.0
85.396	2.0
85.411	1.0
85.426	4.0
85.441	3.0
85.457	4.0
85.472	1.0
85.487	1.0
85.502	0.0
85.517	3.0
85.532	5.0
85.547	4.0
85.562	4.0
85.577	5.0
85.592	2.0
85.607	2.0
85.622	0.0
85.637	3.0
85.653	2.0
85.668	4.0
85.683	5.0
85.698	4.0
85.713	6.0
85.728	8.0
85.743	2.0
85.758	1.0
85.773	2.0
85.788	5.0
85.803	2.0
85.818	2.0
85.833	1.0
85.848	7.0
85.863	1.0
85.879	2.0
85.894	3.0
85.909	2.0
85.924	1.0
85.939	5.0
85.954	1.0
85.969	4.0
85.984	3.0
85.999	3.0
86.014	3.0
86.029	2.0
86.044	0.0
86.059	0.0
86.074	4.0
86.089	7.0
86.104	2.0
86.119	3.0
86.134	5.0
86.149	2.0
86.164	8.0
86.179	4.0
86.194	6.0
86.209	3.0
86.224	1.0
86.239	4.0
86.254	3.0
86.269	0.0
86.284	2.0
86.299	3.0
86.314	3.0
86.33	0.0
86.345	1.0
86.36	0.0
86.375	2.0
86.39	3.0
86.405	3.0
86.42	2.0
86.435	4.0
86.45	3.0
86.465	2.0
86.48	4.0
86.495	0.0
86.51	1.0
86.525	2.0
86.54	4.0
86.555	0.0
86.57	1.0
86.585	4.0
86.6	1.0
86.615	2.0
86.63	2.0
86.645	1.0
86.659	1.0
86.674	3.0
86.689	4.0
86.704	5.0
86.719	2.0
86.734	4.0
86.749	3.0
86.764	3.0
86.779	8.0
86.794	3.0
86.809	4.0
86.824	4.0
86.839	3.0
86.854	5.0
86.869	6.0
86.884	7.0
86.899	5.0
86.914	4.0
86.929	4.0
86.944	1.0
86.959	3.0
86.974	3.0
86.989	3.0
87.004	5.0
87.019	1.0
87.034	7.0
87.049	1.0
87.064	3.0
87.079	7.0
87.094	7.0
87.109	1.0
87.124	4.0
87.139	2.0
87.154	4.0
87.169	3.0
87.184	2.0
87.199	1.0
87.214	0.0
87.229	3.0
87.244	3.0
87.259	1.0
87.274	2.0
87.289	4.0
87.304	3.0
87.319	0.0
87.334	4.0
87.349	3.0
87.364	1.0
87.379	1.0
87.394	2.0
87.409	1.0
87.424	4.0
87.438	2.0
87.453	2.0
87.468	3.0
87.483	5.0
87.498	4.0
87.513	3.0
87.528	6.0
87.543	6.0
87.558	1.0
87.573	3.0
87.588	3.0
87.603	5.0
87.618	1.0
87.633	2.0
87.648	6.0
87.663	3.0
87.678	5.0
87.693	4.0
87.708	3.0
87.723	3.0
87.738	7.0
87.753	5.0
87.768	3.0
87.783	7.0
87.798	4.0
87.813	4.0
87.828	1.0
87.843	2.0
87.858	5.0
87.873	2.0
87.888	3.0
87.903	3.0
87.918	4.0
87.933	0.0
87.948	3.0
87.963	3.0
87.978	2.0
87.993	1.0
88.008	2.0
88.023	1.0
88.038	1.0
88.053	3.0
88.068	5.0
88.083	2.0
88.098	3.0
88.113	0.0
88.128	1.0
88.143	4.0
88.158	2.0
88.174	2.0
88.189	1.0
88.204	4.0
88.219	3.0
88.234	0.0
88.249	4.0
88.264	4.0
88.279	4.0
88.294	2.0
88.309	2.0
88.324	6.0
88.339	3.0
88.354	2.0
88.369	2.0
88.384	2.0
88.399	4.0
88.414	2.0
88.429	3.0
88.444	5.0
88.459	4.0
88.474	4.0
88.489	5.0
88.504	4.0
88.519	4.0
88.534	3.0
88.549	3.0
88.564	3.0
88.58	3.0
88.595	2.0
88.61	3.0
88.625	6.0
88.64	5.0
88.655	1.0
88.67	6.0
88.685	4.0
88.7	4.0
88.715	3.0
88.73	3.0
88.745	1.0
88.76	3.0
88.775	4.0
88.79	2.0
88.805	5.0
88.82	1.0
88.835	7.0
88.85	0.0
88.865	2.0
88.88	4.0
88.895	1.0
88.911	0.0
88.926	2.0
88.941	0.0
88.956	2.0
88.971	3.0
88.986	1.0
89.001	0.0
89.016	2.0
89.031	1.0
89.046	4.0
89.061	3.0
89.076	5.0
89.091	4.0
89.106	5.0
89.121	2.0
89.136	4.0
89.151	4.0
89.166	2.0
89.181	1.0
89.196	0.0
89.211	3.0
89.227	0.0
89.242	4.0
89.257	2.0
89.272	1.0
89.287	2.0
89.302	3.0
89.317	6.0
89.332	4.0
89.347	0.0
89.362	3.0
89.377	3.0
89.392	0.0
89.407	5.0
89.422	5.0
89.437	5.0
89.452	5.0
89.467	5.0
89.482	8.0
89.497	3.0
89.512	4.0
89.527	2.0
89.542	2.0
89.557	4.0
89.572	2.0
89.587	2.0
89.602	2.0
89.617	6.0
89.632	3.0
89.647	2.0
89.662	2.0
89.677	4.0
89.693	1.0
89.708	1.0
89.723	2.0
89.738	3.0
89.753	4.0
89.768	0.0
89.783	6.0
89.798	5.0
89.813	5.0
89.828	4.0
89.843	4.0
89.858	1.0
89.873	7.0
89.888	6.0
89.903	5.0
89.918	0.0
89.933	2.0
89.948	3.0
89.963	1.0
89.978	3.0
89.993	1.0
90.008	4.0
90.023	8.0
90.038	3.0
90.053	2.0
90.068	3.0
90.083	5.0
90.097	6.0
90.112	2.0
90.127	4.0
90.142	5.0
90.157	3.0
90.172	5.0
90.187	6.0
90.202	6.0
90.217	8.0
90.232	6.0
90.247	4.0
90.262	4.0
90.277	5.0
90.292	5.0
90.307	1.0
90.322	2.0
90.337	2.0
90.352	2.0
90.367	1.0
90.382	2.0
90.397	8.0
90.412	2.0
90.427	4.0
90.442	3.0
90.457	8.0
90.472	2.0
90.487	0.0
90.501	2.0
90.516	3.0
90.531	4.0
90.546	1.0
90.561	3.0
90.576	4.0
90.591	3.0
90.606	4.0
90.621	7.0
90.636	5.0
90.651	6.0
90.666	4.0
90.681	4.0
90.696	4.0
90.711	3.0
90.726	2.0
90.741	3.0
90.755	4.0
90.77	2.0
90.785	3.0
90.8	4.0
90.815	5.0
90.83	1.0
90.845	3.0
90.86	3.0
90.875	1.0
90.89	3.0
90.905	5.0
90.92	4.0
90.935	4.0
90.95	3.0
90.965	3.0
90.979	3.0
90.994	2.0
91.009	4.0
91.024	2.0
91.039	5.0
91.054	1.0
91.069	2.0
91.084	5.0
91.099	4.0
91.114	2.0
91.129	2.0
91.144	3.0
91.159	7.0
91.174	2.0
91.188	4.0
91.203	2.0
91.218	1.0
91.233	2.0
91.248	2.0
91.263	6.0
91.278	5.0
91.293	2.0
91.308	3.0
91.323	0.0
91.338	2.0
91.353	7.0
91.368	3.0
91.383	2.0
91.398	3.0
91.412	3.0
91.427	5.0
91.442	3.0
91.457	3.0
91.472	4.0
91.487	0.0
91.502	7.0
91.517	3.0
91.532	5.0
91.547	6.0
91.562	3.0
91.577	1.0
91.592	3.0
91.607	1.0
91.622	4.0
91.637	3.0
91.652	3.0
91.666	4.0
91.681	1.0
91.696	1.0
91.711	2.0
91.726	3.0
91.741	4.0
91.756	0.0
91.771	3.0
91.786	6.0
91.801	7.0
91.816	2.0
91.831	2.0
91.846	1.0
91.861	3.0
91.876	0.0
91.891	3.0
91.906	2.0
91.921	4.0
91.936	0.0
91.951	3.0
91.966	6.0
91.981	5.0
91.995	1.0
92.01	2.0
92.025	1.0
92.04	4.0
92.055	0.0
92.07	0.0
92.085	2.0
92.1	2.0
92.115	1.0
92.13	2.0
92.145	2.0
92.16	5.0
92.175	3.0
92.19	2.0
92.205	3.0
92.22	4.0
92.235	2.0
92.25	0.0
92.265	1.0
92.28	3.0
92.295	2.0
92.31	2.0
92.325	3.0
92.34	3.0
92.355	3.0
92.37	1.0
92.385	7.0
92.4	1.0
92.415	1.0
92.43	1.0
92.445	4.0
92.46	4.0
92.475	2.0
92.49	2.0
92.505	2.0
92.52	6.0
92.535	2.0
92.55	3.0
92.565	2.0
92.58	4.0
92.595	2.0
92.61	2.0
92.625	6.0
92.64	2.0
92.655	5.0
92.67	3.0
92.685	4.0
92.7	4.0
92.715	1.0
92.73	6.0
92.745	3.0
92.76	3.0
92.775	6.0
92.79	2.0
92.805	4.0
92.82	4.0
92.835	4.0
92.85	4.0
92.865	2.0
92.88	2.0
92.895	2.0
92.91	1.0
92.925	1.0
92.94	5.0
92.955	0.0
92.97	0.0
92.985	2.0
93.0	0.0
93.015	3.0
93.03	0.0
93.045	7.0
93.06	4.0
93.075	3.0
93.09	3.0
93.105	2.0
93.12	6.0
93.135	3.0
93.15	3.0
93.165	3.0
93.18	3.0
93.195	2.0
93.21	2.0
93.225	1.0
93.24	4.0
93.255	3.0
93.27	5.0
93.285	6.0
93.3	4.0
93.315	4.0
93.33	8.0
93.345	4.0
93.36	4.0
93.375	5.0
93.39	3.0
93.405	2.0
93.42	4.0
93.435	2.0
93.45	5.0
93.465	2.0
93.48	1.0
93.495	5.0
93.51	0.0
93.525	3.0
93.54	5.0
93.555	2.0
93.57	1.0
93.585	5.0
93.6	1.0
93.615	3.0
93.63	4.0
93.645	11.0
93.66	5.0
93.675	5.0
93.69	2.0
93.705	4.0
93.72	5.0
93.735	5.0
93.75	6.0
93.765	1.0
93.78	1.0
93.795	6.0
93.81	6.0
93.824	7.0
93.839	1.0
93.854	3.0
93.869	1.0
93.884	2.0
93.899	6.0
93.914	2.0
93.929	1.0
93.944	2.0
93.959	3.0
93.974	4.0
93.989	2.0
94.004	1.0
94.019	5.0
94.034	2.0
94.049	3.0
94.064	4.0
94.079	1.0
94.094	7.0
94.108	0.0
94.123	4.0
94.138	1.0
94.153	4.0
94.168	6.0
94.183	3.0
94.198	5.0
94.213	2.0
94.228	4.0
94.243	7.0
94.258	2.0
94.273	3.0
94.288	3.0
94.302	3.0
94.317	8.0
94.332	6.0
94.347	3.0
94.362	5.0
94.377	3.0
94.392	4.0
94.407	3.0
94.422	3.0
94.437	3.0
94.452	1.0
94.466	5.0
94.481	6.0
94.496	3.0
94.511	3.0
94.526	1.0
94.541	5.0
94.556	3.0
94.571	6.0
94.586	1.0
94.601	2.0
94.615	9.0
94.63	3.0
94.645	2.0
94.66	5.0
94.675	3.0
94.69	6.0
94.705	2.0
94.72	4.0
94.735	1.0
94.749	5.0
94.764	5.0
94.779	2.0
94.794	2.0
94.809	3.0
94.824	6.0
94.839	4.0
94.854	5.0
94.868	1.0
94.883	4.0
94.898	3.0
94.913	2.0
94.928	2.0
94.943	2.0
94.958	4.0
94.973	4.0
94.987	3.0
95.002	4.0
95.017	4.0
95.032	2.0
95.047	4.0
95.062	0.0
95.077	1.0
95.092	2.0
95.106	2.0
95.121	3.0
95.136	4.0
95.151	3.0
95.166	6.0
95.181	1.0
95.196	2.0
95.211	1.0
95.226	1.0
95.24	5.0
95.255	4.0
95.27	6.0
95.285	1.0
95.3	3.0
95.315	4.0
95.33	6.0
95.345	4.0
95.359	5.0
95.374	3.0
95.389	0.0
95.404	4.0
95.419	1.0
95.434	2.0
95.449	2.0
95.464	6.0
95.478	2.0
95.493	4.0
95.508	1.0
95.523	3.0
95.538	3.0
95.553	4.0
95.568	3.0
95.583	6.0
95.597	5.0
95.612	5.0
95.627	1.0
95.642	4.0
95.657	2.0
95.672	4.0
95.687	3.0
95.702	4.0
95.717	5.0
95.731	2.0
95.746	4.0
95.761	4.0
95.776	3.0
95.791	7.0
95.806	4.0
95.821	2.0
95.836	4.0
95.851	6.0
95.866	3.0
95.88	0.0
95.895	5.0
95.91	2.0
95.925	1.0
95.94	6.0
95.955	1.0
95.97	5.0
95.985	0.0
96.0	2.0
96.015	3.0
96.029	2.0
96.044	6.0
96.059	2.0
96.074	4.0
96.089	5.0
96.104	6.0
96.119	4.0
96.134	1.0
96.149	3.0
96.164	2.0
96.179	5.0
96.194	7.0
96.208	1.0
96.223	6.0
96.238	3.0
96.253	4.0
96.268	7.0
96.283	2.0
96.298	3.0
96.313	2.0
96.328	2.0
96.343	4.0
96.358	6.0
96.373	0.0
96.388	4.0
96.403	4.0
96.417	3.0
96.432	5.0
96.447	4.0
96.462	3.0
96.477	2.0
96.492	7.0
96.507	3.0
96.522	3.0
96.537	4.0
96.552	3.0
96.567	4.0
96.582	4.0
96.597	2.0
96.612	3.0
96.627	5.0
96.642	1.0
96.656	0.0
96.671	3.0
96.686	4.0
96.701	2.0
96.716	4.0
96.731	5.0
96.746	1.0
96.761	6.0
96.776	3.0
96.791	7.0
96.806	5.0
96.821	5.0
96.836	3.0
96.851	4.0
96.866	2.0
96.881	3.0
96.896	8.0
96.911	1.0
96.926	7.0
96.94	6.0
96.955	3.0
96.97	3.0
96.985	3.0
97.0	3.0
97.015	0.0
97.03	5.0
97.045	3.0
97.06	2.0
97.075	2.0
97.09	1.0
97.105	2.0
97.12	5.0
97.135	4.0
97.15	4.0
97.165	1.0
97.18	0.0
97.195	4.0
97.21	3.0
97.225	6.0
97.239	8.0
97.254	6.0
97.269	4.0
97.284	1.0
97.299	2.0
97.314	0.0
97.329	1.0
97.344	5.0
97.359	5.0
97.374	3.0
97.389	0.0
97.404	2.0
97.419	4.0
97.434	3.0
97.449	6.0
97.464	1.0
97.479	2.0
97.494	3.0
97.509	1.0
97.524	4.0
97.538	3.0
97.553	1.0
97.568	1.0
97.583	2.0
97.598	2.0
97.613	2.0
97.628	5.0
97.643	2.0
97.658	4.0
97.673	6.0
97.688	7.0
97.703	0.0
97.718	2.0
97.733	3.0
97.748	6.0
97.763	3.0
97.778	3.0
97.792	6.0
97.807	6.0
97.822	3.0
97.837	1.0
97.852	4.0
97.867	2.0
97.882	3.0
97.897	2.0
97.912	0.0
97.927	5.0
97.942	3.0
97.957	5.0
97.972	4.0
97.987	4.0
98.001	2.0
98.016	2.0
98.031	1.0
98.046	1.0
98.061	4.0
98.076	3.0
98.091	6.0
98.106	1.0
98.121	2.0
98.136	2.0
98.151	2.0
98.166	3.0
98.181	3.0
98.195	2.0
98.21	2.0
98.225	2.0
98.24	3.0
98.255	5.0
98.27	6.0
98.285	5.0
98.3	4.0
98.315	4.0
98.33	5.0
98.345	1.0
98.359	2.0
98.374	2.0
98.389	0.0
98.404	5.0
98.419	5.0
98.434	1.0
98.449	1.0
98.464	6.0
98.479	2.0
98.494	4.0
98.508	3.0
98.523	3.0
98.538	6.0
98.553	4.0
98.568	2.0
98.583	4.0
98.598	3.0
98.613	5.0
98.628	4.0
98.642	1.0
98.657	4.0
98.672	2.0
98.687	7.0
98.702	4.0
98.717	4.0
98.732	4.0
98.747	3.0
98.762	2.0
98.776	2.0
98.791	2.0
98.806	2.0
98.821	3.0
98.836	3.0
98.851	2.0
98.866	1.0
98.881	5.0
98.896	1.0
98.91	1.0
98.925	2.0
98.94	3.0
98.955	3.0
98.97	2.0
98.985	3.0
99.0	3.0
99.015	5.0
99.029	1.0
99.044	4.0
99.059	1.0
99.074	3.0
99.089	4.0
99.104	5.0
99.119	8.0
99.133	3.0
99.148	2.0
99.163	4.0
99.178	2.0
99.193	3.0
99.208	4.0
99.223	1.0
99.238	8.0
99.252	2.0
99.267	2.0
99.282	3.0
99.297	2.0
99.312	2.0
99.327	1.0
99.342	3.0
99.356	1.0
99.371	1.0
99.386	3.0
99.401	4.0
99.416	1.0
99.431	3.0
99.446	2.0
99.461	4.0
99.475	4.0
99.49	4.0
99.505	0.0
99.52	3.0
99.535	1.0
99.55	1.0
99.565	1.0
99.579	4.0
99.594	3.0
99.609	2.0
99.624	4.0
99.639	3.0
99.654	1.0
99.669	2.0
99.683	3.0
99.698	3.0
99.713	3.0
99.728	2.0
99.743	3.0
99.758	1.0
99.772	4.0
99.787	2.0
99.802	4.0
99.817	4.0
99.832	1.0
99.847	3.0
99.862	2.0
99.876	2.0
99.891	7.0
99.906	1.0
99.921	3.0
99.936	3.0
99.951	3.0
99.966	2.0
99.98	0.0
99.995	5.0
100.01	4.0
100.025	4.0
100.04	2.0
100.055	0.0
100.069	2.0
100.084	0.0
100.099	1.0
100.114	1.0
100.129	3.0
100.144	6.0
100.159	0.0
100.173	4.0
100.188	6.0
100.203	1.0
100.218	2.0
100.233	3.0
100.248	4.0
100.262	4.0
100.277	5.0
100.292	6.0
100.307	4.0
100.322	5.0
100.337	2.0
100.351	5.0
100.366	3.0
100.381	3.0
100.396	7.0
100.411	4.0
100.426	2.0
100.441	4.0
100.455	1.0
100.47	4.0
100.485	2.0
100.5	4.0
100.515	2.0
100.53	2.0
100.544	3.0
100.559	1.0
100.574	2.0
100.589	7.0
100.604	6.0
100.619	3.0
100.633	2.0
100.648	3.0
100.663	0.0
100.678	4.0
100.693	2.0
100.708	0.0
100.722	6.0
100.737	4.0
100.752	5.0
100.767	3.0
100.782	6.0
100.796	8.0
100.811	3.0
100.826	1.0
100.841	0.0
100.856	3.0
100.871	5.0
100.885	1.0
100.9	6.0
100.915	5.0
100.93	8.0
100.945	3.0
100.96	4.0
100.974	0.0
100.989	1.0
101.004	2.0
101.019	5.0
101.034	5.0
101.048	2.0
101.063	3.0
101.078	4.0
101.093	5.0
101.108	2.0
101.123	8.0
101.137	6.0
101.152	3.0
101.167	3.0
101.182	2.0
101.197	6.0
101.211	4.0
101.226	3.0
101.241	2.0
101.256	2.0
101.271	6.0
101.285	3.0
101.3	1.0
101.315	2.0
101.33	1.0
101.345	2.0
101.359	5.0
101.374	1.0
101.389	3.0
101.404	4.0
101.419	2.0
101.433	2.0
101.448	3.0
101.463	2.0
101.478	1.0
101.493	1.0
101.507	3.0
101.522	3.0
101.537	2.0
101.552	2.0
101.567	2.0
101.581	2.0
101.596	7.0
101.611	3.0
101.626	2.0
101.64	2.0
101.655	1.0
101.67	1.0
101.685	5.0
101.7	5.0
101.714	4.0
101.729	4.0
101.744	1.0
101.759	2.0
101.773	5.0
101.788	3.0
101.803	1.0
101.818	4.0
101.833	1.0
101.847	2.0
101.862	5.0
101.877	4.0
101.892	2.0
101.906	3.0
101.921	3.0
101.936	3.0
101.951	4.0
101.965	2.0
101.98	9.0
101.995	4.0
102.01	1.0
102.025	3.0
102.039	1.0
102.054	4.0
102.069	5.0
102.084	7.0
102.098	4.0
102.113	4.0
102.128	1.0
102.143	2.0
102.157	0.0
102.172	3.0
102.187	3.0
102.202	4.0
102.216	2.0
102.231	3.0
102.246	2.0
102.261	4.0
102.275	6.0
102.29	3.0
102.305	4.0
102.32	0.0
102.334	0.0
102.349	1.0
102.364	5.0
102.378	5.0
102.393	6.0
102.408	4.0
102.423	6.0
102.437	2.0
102.452	3.0
102.467	3.0
102.482	2.0
102.496	3.0
102.511	1.0
102.526	3.0
102.541	1.0
102.555	0.0
102.57	2.0
102.585	2.0
102.6	1.0
102.614	1.0
102.629	2.0
102.644	3.0
102.659	4.0
102.673	4.0
102.688	5.0
102.703	5.0
102.717	4.0
102.732	4.0
102.747	5.0
102.762	4.0
102.776	0.0
102.791	5.0
102.806	4.0
102.821	1.0
102.835	3.0
102.85	8.0
102.865	5.0
102.88	5.0
102.894	8.0
102.909	4.0
102.924	5.0
102.938	6.0
102.953	0.0
102.968	4.0
102.983	1.0
102.997	3.0
103.012	6.0
103.027	3.0
103.042	5.0
103.056	5.0
103.071	4.0
103.086	4.0
103.101	2.0
103.115	3.0
103.13	2.0
103.145	4.0
103.16	2.0
103.174	6.0
103.189	2.0
103.204	2.0
103.219	1.0
103.233	4.0
103.248	1.0
103.263	4.0
103.278	3.0
103.292	3.0
103.307	1.0
103.322	5.0
103.337	2.0
103.351	3.0
103.366	2.0
103.381	2.0
103.396	7.0
103.41	4.0
103.425	3.0
103.44	3.0
103.455	2.0
103.469	2.0
103.484	3.0
103.499	1.0
103.514	5.0
103.529	2.0
103.543	2.0
103.558	1.0
103.573	3.0
103.588	0.0
103.602	1.0
103.617	6.0
103.632	2.0
103.647	0.0
103.661	4.0
103.676	1.0
103.691	8.0
103.706	4.0
103.721	5.0
103.735	2.0
103.75	1.0
103.765	2.0
103.78	2.0
103.795	5.0
103.809	2.0
103.824	3.0
103.839	0.0
103.854	0.0
103.869	3.0
103.883	1.0
103.898	4.0
103.913	3.0
103.928	4.0
103.943	3.0
103.957	4.0
103.972	2.0
103.987	3.0
104.002	2.0
104.017	1.0
104.031	1.0
104.046	3.0
104.061	2.0
104.076	4.0
104.091	4.0
104.106	3.0
104.12	5.0
104.135	4.0
104.15	4.0
104.165	2.0
104.18	2.0
104.195	1.0
104.209	4.0
104.224	3.0
104.239	2.0
104.254	4.0
104.269	2.0
104.284	2.0
104.299	0.0
104.313	4.0
104.328	6.0
104.343	4.0
104.358	2.0
104.373	3.0
104.388	0.0
104.403	4.0
104.417	2.0
104.432	3.0
104.447	0.0
104.462	3.0
104.477	4.0
104.492	4.0
104.507	3.0
104.522	3.0
104.536	3.0
104.551	5.0
104.566	3.0
104.581	5.0
104.596	5.0
104.611	2.0
104.626	3.0
104.641	3.0
104.656	2.0
104.67	2.0
104.685	3.0
104.7	2.0
104.715	6.0
104.73	4.0
104.745	4.0
104.76	3.0
104.775	3.0
104.79	1.0
104.804	6.0
104.819	5.0
104.834	7.0
104.849	2.0
104.864	3.0
104.879	3.0
104.894	1.0
104.909	1.0
104.924	3.0
104.939	2.0
104.954	3.0
104.968	2.0
104.983	1.0
104.998	1.0
105.013	3.0
105.028	3.0
105.043	3.0
105.058	0.0
105.073	1.0
105.088	3.0
105.103	3.0
105.118	5.0
105.133	1.0
105.147	2.0
105.162	2.0
105.177	5.0
105.192	4.0
105.207	9.0
105.222	4.0
105.237	4.0
105.252	0.0
105.267	2.0
105.282	0.0
105.297	4.0
105.312	2.0
105.327	2.0
105.342	5.0
105.356	4.0
105.371	4.0
105.386	6.0
105.401	6.0
105.416	2.0
105.431	3.0
105.446	6.0
105.461	0.0
105.476	1.0
105.491	2.0
105.506	1.0
105.521	3.0
105.536	4.0
105.551	5.0
105.566	5.0
105.581	3.0
105.595	4.0
105.61	0.0
105.625	3.0
105.64	0.0
105.655	0.0
105.67	1.0
105.685	1.0
105.7	0.0
105.715	3.0
105.73	2.0
105.745	1.0
105.76	2.0
105.775	6.0
105.79	3.0
105.805	4.0
105.82	2.0
105.835	2.0
105.85	2.0
105.864	5.0
105.879	5.0
105.894	4.0
105.909	0.0
105.924	3.0
105.939	3.0
105.954	0.0
105.969	1.0
105.984	1.0
105.999	5.0
106.014	3.0
106.029	3.0
106.044	3.0
106.059	4.0
106.074	3.0
106.089	0.0
106.104	1.0
106.119	1.0
106.134	1.0
106.148	3.0
106.163	3.0
106.178	1.0
106.193	7.0
106.208	5.0
106.223	6.0
106.238	4.0
106.253	1.0
106.268	5.0
106.283	3.0
106.298	2.0
106.313	3.0
106.328	6.0
106.343	1.0
106.358	2.0
106.373	2.0
106.388	0.0
106.403	5.0
106.418	4.0
106.432	6.0
106.447	4.0
106.462	2.0
106.477	1.0
106.492	4.0
106.507	3.0
106.522	2.0
106.537	1.0
106.552	2.0
106.567	1.0
106.582	3.0
106.597	5.0
106.612	1.0
106.627	2.0
106.642	3.0
106.657	2.0
106.672	3.0
106.687	5.0
106.701	8.0
106.716	3.0
106.731	3.0
106.746	6.0
106.761	3.0
106.776	1.0
106.791	4.0
106.806	2.0
106.821	1.0
106.836	4.0
106.851	6.0
106.866	3.0
106.881	2.0
106.896	1.0
106.911	5.0
106.926	2.0
106.941	5.0
106.955	4.0
106.97	4.0
106.985	4.0
107.0	2.0
107.015	1.0
107.03	3.0
107.045	2.0
107.06	3.0
107.075	1.0
107.09	1.0
107.105	4.0
107.12	12.0
107.135	6.0
107.15	2.0
107.165	3.0
107.18	3.0
107.194	4.0
107.209	6.0
107.224	6.0
107.239	4.0
107.254	9.0
107.269	3.0
107.284	6.0
107.299	6.0
107.314	5.0
107.329	4.0
107.344	3.0
107.359	2.0
107.374	0.0
107.389	5.0
107.404	2.0
107.418	3.0
107.433	2.0
107.448	4.0
107.463	6.0
107.478	6.0
107.493	3.0
107.508	2.0
107.523	5.0
107.538	4.0
107.553	1.0
107.568	5.0
107.583	3.0
107.598	2.0
107.613	8.0
107.627	5.0
107.642	3.0
107.657	2.0
107.672	2.0
107.687	2.0
107.702	3.0
107.717	3.0
107.732	6.0
107.747	3.0
107.762	3.0
107.777	5.0
107.792	2.0
107.807	0.0
107.821	9.0
107.836	4.0
107.851	2.0
107.866	3.0
107.881	2.0
107.896	5.0
107.911	1.0
107.926	4.0
107.941	6.0
107.956	3.0
107.971	3.0
107.986	2.0
108.0	2.0
108.015	5.0
108.03	3.0
108.045	3.0
108.06	1.0
108.075	1.0
108.09	3.0
108.105	2.0
108.12	5.0
108.135	2.0
108.15	5.0
108.164	4.0
108.179	2.0
108.194	6.0
108.209	3.0
108.224	6.0
108.239	6.0
108.254	5.0
108.269	2.0
108.284	2.0
108.299	6.0
108.313	4.0
108.328	3.0
108.343	2.0
108.358	4.0
108.373	4.0
108.388	1.0
108.403	3.0
108.418	2.0
108.433	5.0
108.448	3.0
108.462	2.0
108.477	0.0
108.492	3.0
108.507	5.0
108.522	1.0
108.537	3.0
108.552	6.0
108.567	3.0
108.582	2.0
108.597	2.0
108.611	3.0
108.626	2.0
108.641	1.0
108.656	2.0
108.671	6.0
108.686	3.0
108.701	2.0
108.716	4.0
108.731	1.0
108.745	3.0
108.76	5.0
108.775	2.0
108.79	3.0
108.805	0.0
108.82	2.0
108.835	1.0
108.85	1.0
108.865	1.0
108.879	7.0
108.894	0.0
108.909	2.0
108.924	6.0
108.939	2.0
108.954	2.0
108.969	3.0
108.984	7.0
108.999	4.0
109.013	3.0
109.028	2.0
109.043	4.0
109.058	3.0
109.073	2.0
109.088	1.0
109.103	1.0
109.118	4.0
109.133	3.0
109.147	4.0
109.162	4.0
109.177	1.0
109.192	3.0
109.207	2.0
109.222	3.0
109.237	2.0
109.252	2.0
109.267	4.0
109.281	8.0
109.296	5.0
109.311	5.0
109.326	2.0
109.341	5.0
109.356	2.0
109.371	2.0
109.386	2.0
109.4	2.0
109.415	5.0
109.43	4.0
109.445	4.0
109.46	4.0
109.475	3.0
109.49	4.0
109.505	1.0
109.52	2.0
109.534	3.0
109.549	5.0
109.564	2.0
109.579	7.0
109.594	0.0
109.609	4.0
109.624	3.0
109.639	4.0
109.653	5.0
109.668	1.0
109.683	1.0
109.698	2.0
109.713	1.0
109.728	7.0
109.743	3.0
109.758	6.0
109.773	3.0
109.787	0.0
109.802	1.0
109.817	1.0
109.832	2.0
109.847	5.0
109.862	0.0
109.877	4.0
109.892	5.0
109.907	5.0
109.921	1.0
109.936	4.0
109.951	4.0
109.966	1.0
109.981	2.0
109.996	9.0
110.011	5.0
110.026	5.0
110.04	1.0
110.055	2.0
110.07	4.0
110.085	1.0
110.1	2.0
110.115	2.0
110.13	1.0
110.145	1.0
110.16	2.0
110.174	6.0
110.189	6.0
110.204	3.0
110.219	4.0
110.234	1.0
110.249	3.0
110.264	2.0
110.279	2.0
110.294	3.0
110.308	3.0
110.323	1.0
110.338	2.0
110.353	2.0
110.368	3.0
110.383	7.0
110.398	0.0
110.413	3.0
110.428	2.0
110.442	2.0
110.457	5.0
110.472	2.0
110.487	3.0
110.502	8.0
110.517	4.0
110.532	5.0
110.547	4.0
110.561	4.0
110.576	2.0
110.591	2.0
110.606	5.0
110.621	2.0
110.636	3.0
110.651	3.0
110.666	3.0
110.681	3.0
110.695	3.0
110.71	5.0
110.725	4.0
110.74	2.0
110.755	3.0
110.77	2.0
110.785	2.0
110.8	2.0
110.815	4.0
110.829	3.0
110.844	2.0
110.859	1.0
110.874	6.0
110.889	4.0
110.904	6.0
110.919	9.0
110.934	5.0
110.948	3.0
110.963	7.0
110.978	1.0
110.993	4.0
111.008	3.0
111.023	5.0
111.038	3.0
111.053	3.0
111.067	1.0
111.082	2.0
111.097	5.0
111.112	5.0
111.127	2.0
111.142	5.0
111.157	5.0
111.172	2.0
111.186	7.0
111.201	4.0
111.216	3.0
111.231	4.0
111.246	5.0
111.261	4.0
111.276	2.0
111.291	2.0
111.305	2.0
111.32	3.0
111.335	9.0
111.35	3.0
111.365	1.0
111.38	2.0
111.395	2.0
111.41	2.0
111.424	1.0
111.439	0.0
111.454	1.0
111.469	2.0
111.484	1.0
111.499	4.0
111.514	4.0
111.528	4.0
111.543	2.0
111.558	3.0
111.573	3.0
111.588	1.0
111.603	7.0
111.618	3.0
111.633	2.0
111.647	4.0
111.662	1.0
111.677	8.0
111.692	4.0
111.707	4.0
111.722	5.0
111.737	0.0
111.751	0.0
111.766	2.0
111.781	9.0
111.796	2.0
111.811	4.0
111.826	6.0
111.84	4.0
111.855	1.0
111.87	3.0
111.885	2.0
111.9	6.0
111.915	1.0
111.93	3.0
111.944	5.0
111.959	4.0
111.974	3.0
111.989	0.0
112.004	5.0
112.019	2.0
112.033	3.0
112.048	4.0
112.063	3.0
112.078	2.0
112.093	5.0
112.108	2.0
112.123	1.0
112.137	5.0
112.152	2.0
112.167	1.0
112.182	4.0
112.197	5.0
112.212	3.0
112.226	3.0
112.241	1.0
112.256	3.0
112.271	3.0
112.286	3.0
112.301	2.0
112.315	3.0
112.33	3.0
112.345	5.0
112.36	4.0
112.375	3.0
112.389	2.0
112.404	3.0
112.419	1.0
112.434	4.0
112.449	1.0
112.464	3.0
112.478	6.0
112.493	3.0
112.508	1.0
112.523	4.0
112.538	5.0
112.553	3.0
112.567	1.0
112.582	5.0
112.597	3.0
112.612	1.0
112.627	3.0
112.642	4.0
112.656	6.0
112.671	3.0
112.686	2.0
112.701	6.0
112.716	1.0
112.73	4.0
112.745	2.0
112.76	3.0
112.775	3.0
112.79	0.0
112.805	0.0
112.819	1.0
112.834	1.0
112.849	7.0
112.864	5.0
112.879	5.0
112.894	4.0
112.908	3.0
112.923	9.0
112.938	3.0
112.953	2.0
112.968	6.0
112.983	1.0
112.997	5.0
113.012	3.0
113.027	1.0
113.042	2.0
113.057	5.0
113.072	0.0
113.086	2.0
113.101	1.0
113.116	3.0
113.131	5.0
113.146	2.0
113.161	4.0
113.175	2.0
113.19	7.0
113.205	3.0
113.22	6.0
113.235	2.0
113.25	2.0
113.265	1.0
113.279	6.0
113.294	2.0
113.309	0.0
113.324	1.0
113.339	3.0
113.354	3.0
113.368	4.0
113.383	3.0
113.398	5.0
113.413	4.0
113.428	5.0
113.443	2.0
113.458	5.0
113.472	3.0
113.487	3.0
113.502	3.0
113.517	4.0
113.532	2.0
113.547	1.0
113.562	4.0
113.576	4.0
113.591	2.0
113.606	2.0
113.621	8.0
113.636	3.0
113.651	5.0
113.666	3.0
113.681	6.0
113.695	5.0
113.71	2.0
113.725	3.0
113.74	2.0
113.755	5.0
113.77	5.0
113.785	2.0
113.8	1.0
113.814	1.0
113.829	1.0
113.844	3.0
113.859	4.0
113.874	4.0
113.889	2.0
113.904	4.0
113.919	3.0
113.934	2.0
113.949	4.0
113.963	3.0
113.978	3.0
113.993	2.0
114.008	3.0
114.023	2.0
114.038	3.0
114.053	0.0
114.068	4.0
114.083	4.0
114.098	4.0
114.113	3.0
114.127	0.0
114.142	4.0
114.157	5.0
114.172	5.0
114.187	3.0
114.202	3.0
114.217	4.0
114.232	3.0
114.247	1.0
114.262	5.0
114.277	4.0
114.292	1.0
114.307	4.0
114.322	1.0
114.337	5.0
114.351	2.0
114.366	1.0
114.381	5.0
114.396	5.0
114.411	1.0
114.426	4.0
114.441	3.0
114.456	1.0
114.471	5.0
114.486	5.0
114.501	0.0
114.516	1.0
114.531	4.0
114.546	3.0
114.561	1.0
114.576	2.0
114.591	2.0
114.606	4.0
114.621	6.0
114.636	1.0
114.65	1.0
114.665	1.0
114.68	5.0
114.695	2.0
114.71	4.0
114.725	4.0
114.74	5.0
114.755	4.0
114.77	4.0
114.785	5.0
114.8	7.0
114.815	5.0
114.83	1.0
114.845	6.0
114.86	4.0
114.875	6.0
114.89	3.0
114.905	1.0
114.92	3.0
114.935	5.0
114.95	2.0
114.965	1.0
114.98	2.0
114.995	4.0
115.009	2.0
115.024	0.0
115.039	5.0
115.054	4.0
115.069	3.0
115.084	6.0
115.099	9.0
115.114	3.0
115.129	6.0
115.144	6.0
115.159	3.0
115.174	4.0
115.189	4.0
115.204	5.0
115.219	2.0
115.234	4.0
115.249	7.0
115.264	2.0
115.279	4.0
115.294	4.0
115.309	4.0
115.323	5.0
115.338	3.0
115.353	3.0
115.368	6.0
115.383	5.0
115.398	2.0
115.413	2.0
115.428	4.0
115.443	0.0
115.458	7.0
115.473	2.0
115.488	5.0
115.503	6.0
115.518	1.0
115.533	5.0
115.548	2.0
115.562	5.0
115.577	5.0
115.592	6.0
115.607	2.0
115.622	1.0
115.637	6.0
115.652	2.0
115.667	1.0
115.682	5.0
115.697	2.0
115.712	3.0
115.727	8.0
115.741	3.0
115.756	2.0
115.771	2.0
115.786	3.0
115.801	5.0
115.816	4.0
115.831	6.0
115.846	1.0
115.861	4.0
115.875	1.0
115.89	3.0
115.905	2.0
115.92	6.0
115.935	3.0
115.95	4.0
115.965	5.0
115.98	2.0
115.995	3.0
116.009	5.0
116.024	4.0
116.039	2.0
116.054	7.0
116.069	3.0
116.084	3.0
116.099	1.0
116.113	3.0
116.128	2.0
116.143	5.0
116.158	4.0
116.173	3.0
116.188	4.0
116.202	4.0
116.217	6.0
116.232	3.0
116.247	5.0
116.262	3.0
116.277	4.0
116.291	4.0
116.306	3.0
116.321	4.0
116.336	6.0
116.351	2.0
116.366	4.0
116.38	4.0
116.395	3.0
116.41	3.0
116.425	1.0
116.44	6.0
116.454	1.0
116.469	2.0
116.484	1.0
116.499	2.0
116.514	5.0
116.528	4.0
116.543	5.0
116.558	6.0
116.573	5.0
116.588	1.0
116.602	1.0
116.617	4.0
116.632	4.0
116.647	3.0
116.662	6.0
116.676	4.0
116.691	1.0
116.706	3.0
116.721	2.0
116.735	2.0
116.75	2.0
116.765	8.0
116.78	1.0
116.795	3.0
116.809	1.0
116.824	6.0
116.839	5.0
116.854	2.0
116.868	5.0
116.883	6.0
116.898	4.0
116.913	1.0
116.927	2.0
116.942	3.0
116.957	2.0
116.972	3.0
116.986	1.0
117.001	1.0
117.016	2.0
117.031	3.0
117.045	6.0
117.06	3.0
117.075	8.0
117.09	0.0
117.104	6.0
117.119	5.0
117.134	3.0
117.149	4.0
117.163	2.0
117.178	1.0
117.193	2.0
117.208	2.0
117.222	4.0
117.237	5.0
117.252	3.0
117.267	3.0
117.281	2.0
117.296	4.0
117.311	3.0
117.325	2.0
117.34	4.0
117.355	6.0
117.37	4.0
117.384	5.0
117.399	7.0
117.414	0.0
117.429	3.0
117.443	6.0
117.458	0.0
117.473	4.0
117.487	4.0
117.502	2.0
117.517	4.0
117.532	5.0
117.546	2.0
117.561	3.0
117.576	4.0
117.59	4.0
117.605	6.0
117.62	4.0
117.635	1.0
117.649	8.0
117.664	4.0
117.679	3.0
117.693	5.0
117.708	3.0
117.723	5.0
117.738	2.0
117.752	3.0
117.767	3.0
117.782	5.0
117.796	5.0
117.811	5.0
117.826	1.0
117.841	4.0
117.855	4.0
117.87	4.0
117.885	3.0
117.899	4.0
117.914	1.0
117.929	3.0
117.944	3.0
117.958	5.0
117.973	5.0
117.988	5.0
118.002	8.0
118.017	6.0
118.032	6.0
118.047	5.0
118.062	8.0
118.077	7.0
118.092	8.0
118.107	5.0
118.121	5.0
118.136	9.0
118.151	2.0
118.166	4.0
118.181	1.0
118.196	10.0
118.211	7.0
118.225	3.0
118.24	3.0
118.255	3.0
118.27	2.0
118.285	2.0
118.3	0.0
118.315	4.0
118.33	6.0
118.344	3.0
118.359	4.0
118.374	4.0
118.389	3.0
118.404	6.0
118.419	1.0
118.434	3.0
118.449	1.0
118.463	6.0
118.478	7.0
118.493	4.0
118.508	2.0
118.523	3.0
118.538	1.0
118.553	4.0
118.567	4.0
118.582	4.0
118.597	2.0
118.612	4.0
118.627	0.0
118.642	4.0
118.657	3.0
118.672	1.0
118.686	3.0
118.701	6.0
118.716	3.0
118.731	2.0
118.746	3.0
118.761	5.0
118.776	5.0
118.791	4.0
118.805	4.0
118.82	1.0
118.835	3.0
118.85	4.0
118.865	2.0
118.88	5.0
118.895	5.0
118.909	2.0
118.924	3.0
118.939	3.0
118.954	2.0
118.969	5.0
118.984	1.0
118.999	1.0
119.014	6.0
119.028	2.0
119.043	1.0
119.058	4.0
119.073	4.0
119.088	3.0
119.103	4.0
119.118	6.0
119.133	4.0
119.147	7.0
119.162	7.0
119.177	4.0
119.192	2.0
119.207	1.0
119.222	5.0
119.237	4.0
119.251	3.0
119.266	4.0
119.281	2.0
119.296	6.0
119.311	2.0
119.326	5.0
119.341	4.0
119.356	3.0
119.37	4.0
119.385	6.0
119.4	2.0
119.415	5.0
119.43	2.0
119.445	5.0
119.46	7.0
119.475	3.0
119.489	5.0
119.504	4.0
119.519	1.0
119.534	3.0
119.549	4.0
119.564	1.0
119.579	1.0
119.593	3.0
119.608	3.0
119.623	1.0
119.638	3.0
119.653	5.0
119.668	3.0
119.683	3.0
119.698	3.0
119.712	3.0
119.727	2.0
119.742	4.0
119.757	5.0
119.772	1.0
119.787	0.0
119.802	6.0
119.817	5.0
119.831	5.0
119.846	5.0
119.861	1.0
119.876	3.0
119.891	0.0
119.906	2.0
119.921	2.0
119.935	1.0
119.95	2.0
119.965	6.0
119.98	0.0
119.995	3.0
120.01	1.0
120.025	5.0
120.04	5.0
120.054	1.0
120.069	2.0
120.084	3.0
120.099	2.0
120.114	1.0
120.129	2.0
120.144	3.0
120.159	2.0
120.173	3.0
120.188	0.0
120.203	3.0
120.218	0.0
120.233	0.0
120.248	2.0
120.263	1.0
120.277	2.0
120.292	3.0
120.307	1.0
120.322	0.0
120.337	0.0
120.352	0.0
120.367	0.0
120.382	0.0
120.396	0.0
120.411	0.0
120.426	1.0
120.441	0.0
120.456	0.0
120.471	0.0
120.486	0.0
120.501	0.0
120.515	0.0
120.53	0.0
120.545	1.0
120.56	0.0
120.575	1.0
120.59	0.0
120.605	0.0
120.619	0.0
120.634	0.0
120.649	0.0
120.664	0.0
120.679	0.0
120.694	0.0
120.709	0.0
120.724	0.0
120.738	0.0
120.753	0.0
120.768	0.0
120.783	0.0
120.798	0.0
120.813	0.0
120.828	0.0
120.843	0.0
120.857	0.0
120.872	0.0
120.887	0.0
120.902	0.0
120.917	1.0
120.932	1.0
120.947	0.0
120.961	0.0
120.976	0.0
