-1.217	0.0
-1.202	0.0
-1.187	0.0
-1.172	0.0
-1.157	0.0
-1.142	0.0
-1.128	0.0
-1.113	0.0
-1.098	0.0
-1.083	0.0
-1.068	0.0
-1.054	0.0
-1.039	0.0
-1.024	0.0
-1.009	0.0
-0.994	1.0
-0.979	0.0
-0.965	0.0
-0.95	0.0
-0.935	0.0
-0.92	0.0
-0.905	0.0
-0.891	0.0
-0.876	0.0
-0.861	0.0
-0.846	0.0
-0.831	0.0
-0.816	0.0
-0.802	0.0
-0.787	0.0
-0.772	0.0
-0.757	0.0
-0.742	0.0
-0.728	0.0
-0.713	0.0
-0.698	0.0
-0.683	0.0
-0.668	0.0
-0.653	0.0
-0.639	0.0
-0.624	0.0
-0.609	0.0
-0.594	0.0
-0.579	0.0
-0.565	0.0
-0.55	0.0
-0.535	0.0
-0.52	0.0
-0.505	0.0
-0.49	0.0
-0.476	0.0
-0.461	0.0
-0.446	0.0
-0.431	0.0
-0.416	0.0
-0.401	0.0
-0.387	0.0
-0.372	0.0
-0.357	0.0
-0.342	0.0
-0.327	0.0
-0.313	0.0
-0.298	0.0
-0.283	0.0
-0.268	0.0
-0.253	0.0
-0.238	0.0
-0.224	0.0
-0.209	0.0
-0.194	0.0
-0.179	0.0
-0.164	0.0
-0.15	0.0
-0.135	0.0
-0.12	0.0
-0.105	0.0
-0.09	0.0
-0.075	0.0
-0.061	0.0
-0.046	0.0
-0.031	0.0
-0.016	0.0
-0.001	0.0
0.013	0.0
0.028	0.0
0.043	0.0
0.058	0.0
0.073	0.0
0.088	0.0
0.102	0.0
0.117	0.0
0.132	0.0
0.147	0.0
0.162	0.0
0.176	0.0
0.191	0.0
0.206	0.0
0.221	0.0
0.236	0.0
0.251	0.0
0.265	0.0
0.28	0.0
0.295	0.0
0.31	0.0
0.325	0.0
0.339	0.0
0.354	0.0
0.369	0.0
0.384	0.0
0.399	0.0
0.414	0.0
0.428	0.0
0.443	0.0
0.458	0.0
0.473	1.0
0.488	0.0
0.502	0.0
0.517	0.0
0.532	0.0
0.547	0.0
0.562	0.0
0.577	0.0
0.591	0.0
0.606	0.0
0.621	0.0
0.636	0.0
0.651	0.0
0.665	0.0
0.68	0.0
0.695	0.0
0.71	0.0
0.725	0.0
0.74	0.0
0.754	0.0
0.769	0.0
0.784	0.0
0.799	0.0
0.814	0.0
0.828	0.0
0.843	0.0
0.858	0.0
0.873	0.0
0.888	0.0
0.903	0.0
0.917	0.0
0.932	0.0
0.947	0.0
0.962	0.0
0.977	0.0
0.991	0.0
1.006	0.0
1.021	0.0
1.036	0.0
1.051	0.0
1.065	0.0
1.08	1.0
1.095	0.0
1.11	0.0
1.125	0.0
1.14	0.0
1.154	0.0
1.169	0.0
1.184	0.0
1.199	1.0
1.214	0.0
1.228	0.0
1.243	0.0
1.258	0.0
1.273	0.0
1.288	0.0
1.302	0.0
1.317	0.0
1.332	0.0
1.347	0.0
1.362	0.0
1.376	0.0
1.391	0.0
1.406	0.0
1.421	0.0
1.436	0.0
1.45	0.0
1.465	0.0
1.48	0.0
1.495	0.0
1.51	0.0
1.524	0.0
1.539	0.0
1.554	0.0
1.569	1.0
1.584	0.0
1.598	0.0
1.613	0.0
1.628	0.0
1.643	0.0
1.658	0.0
1.672	0.0
1.687	0.0
1.702	0.0
1.717	1.0
1.732	0.0
1.746	0.0
1.761	0.0
1.776	0.0
1.791	0.0
1.806	0.0
1.82	0.0
1.835	0.0
1.85	0.0
1.865	0.0
1.88	0.0
1.894	1.0
1.909	0.0
1.924	0.0
1.939	0.0
1.954	0.0
1.968	0.0
1.983	0.0
1.998	0.0
2.013	0.0
2.028	0.0
2.042	0.0
2.057	0.0
2.072	0.0
2.087	0.0
2.101	0.0
2.116	1.0
2.131	0.0
2.146	0.0
2.161	0.0
2.175	0.0
2.19	1.0
2.205	0.0
2.22	0.0
2.235	0.0
2.249	1.0
2.264	1.0
2.279	2.0
2.294	0.0
2.308	1.0
2.323	1.0
2.338	0.0
2.353	1.0
2.368	2.0
2.382	1.0
2.397	1.0
2.412	1.0
2.427	0.0
2.442	0.0
2.456	0.0
2.471	2.0
2.486	3.0
2.501	2.0
2.515	3.0
2.53	2.0
2.545	0.0
2.56	3.0
2.575	1.0
2.589	2.0
2.604	2.0
2.619	1.0
2.634	3.0
2.649	0.0
2.663	0.0
2.678	1.0
2.693	2.0
2.708	2.0
2.722	1.0
2.737	2.0
2.752	3.0
2.767	3.0
2.782	4.0
2.796	3.0
2.811	4.0
2.826	4.0
2.841	7.0
2.856	4.0
2.87	0.0
2.885	7.0
2.9	4.0
2.915	1.0
2.93	6.0
2.944	2.0
2.959	2.0
2.974	2.0
2.989	2.0
3.004	5.0
3.018	6.0
3.033	2.0
3.048	3.0
3.063	3.0
3.078	1.0
3.092	2.0
3.107	5.0
3.122	5.0
3.137	3.0
3.152	4.0
3.166	5.0
3.181	1.0
3.196	7.0
3.211	2.0
3.226	7.0
3.24	1.0
3.255	7.0
3.27	3.0
3.285	9.0
3.3	6.0
3.315	4.0
3.329	2.0
3.344	3.0
3.359	7.0
3.374	6.0
3.389	5.0
3.403	4.0
3.418	11.0
3.433	6.0
3.448	5.0
3.463	8.0
3.478	3.0
3.492	5.0
3.507	3.0
3.522	3.0
3.537	3.0
3.552	3.0
3.567	3.0
3.581	2.0
3.596	4.0
3.611	5.0
3.626	7.0
3.641	5.0
3.656	2.0
3.671	3.0
3.685	6.0
3.7	3.0
3.715	6.0
3.73	4.0
3.745	8.0
3.76	4.0
3.775	10.0
3.789	3.0
3.804	10.0
3.819	7.0
3.834	6.0
3.849	5.0
3.864	7.0
3.879	5.0
3.894	3.0
3.908	10.0
3.923	5.0
3.938	5.0
3.953	10.0
3.968	1.0
3.983	12.0
3.998	10.0
4.013	3.0
4.027	6.0
4.042	9.0
4.057	4.0
4.072	4.0
4.087	6.0
4.102	5.0
4.117	5.0
4.132	5.0
4.147	5.0
4.162	4.0
4.176	4.0
4.191	6.0
4.206	3.0
4.221	6.0
4.236	8.0
4.251	7.0
4.266	6.0
4.281	4.0
4.296	6.0
4.311	16.0
4.326	4.0
4.341	4.0
4.356	7.0
4.37	6.0
4.385	8.0
4.4	9.0
4.415	6.0
4.43	7.0
4.445	7.0
4.46	5.0
4.475	12.0
4.49	6.0
4.505	9.0
4.52	3.0
4.535	5.0
4.55	3.0
4.565	2.0
4.58	5.0
4.595	9.0
4.61	6.0
4.625	10.0
4.639	7.0
4.654	11.0
4.669	4.0
4.684	6.0
4.699	6.0
4.714	7.0
4.729	10.0
4.744	10.0
4.759	6.0
4.774	6.0
4.789	4.0
4.804	3.0
4.819	9.0
4.834	13.0
4.849	4.0
4.864	6.0
4.879	7.0
4.894	3.0
4.909	8.0
4.924	6.0
4.939	13.0
4.954	6.0
4.969	10.0
4.984	6.0
4.999	2.0
5.014	7.0
5.029	6.0
5.044	10.0
5.059	7.0
5.074	7.0
5.089	6.0
5.104	9.0
5.119	8.0
5.134	5.0
5.149	5.0
5.164	9.0
5.179	2.0
5.194	5.0
5.209	8.0
5.224	5.0
5.239	10.0
5.254	13.0
5.269	10.0
5.284	8.0
5.299	9.0
5.314	5.0
5.329	4.0
5.344	8.0
5.359	6.0
5.374	9.0
5.389	11.0
5.404	12.0
5.419	7.0
5.434	9.0
5.449	5.0
5.464	8.0
5.479	12.0
5.494	6.0
5.509	6.0
5.524	7.0
5.539	3.0
5.554	9.0
5.569	9.0
5.584	8.0
5.599	9.0
5.614	6.0
5.629	12.0
5.644	6.0
5.659	11.0
5.674	9.0
5.689	11.0
5.704	11.0
5.719	6.0
5.734	5.0
5.749	10.0
5.764	12.0
5.779	13.0
5.794	3.0
5.809	8.0
5.824	4.0
5.839	6.0
5.854	9.0
5.869	9.0
5.884	8.0
5.899	15.0
5.914	2.0
5.929	5.0
5.944	6.0
5.959	9.0
5.974	7.0
5.989	8.0
6.004	12.0
6.019	5.0
6.034	8.0
6.049	7.0
6.064	5.0
6.079	8.0
6.094	9.0
6.109	9.0
6.124	7.0
6.139	5.0
6.154	12.0
6.169	7.0
6.184	9.0
6.199	4.0
6.214	6.0
6.229	7.0
6.244	14.0
6.259	5.0
6.274	6.0
6.289	5.0
6.304	5.0
6.319	5.0
6.334	5.0
6.349	5.0
6.364	10.0
6.379	11.0
6.394	10.0
6.409	8.0
6.424	6.0
6.439	6.0
6.454	9.0
6.469	12.0
6.484	11.0
6.499	14.0
6.514	5.0
6.529	10.0
6.544	8.0
6.559	8.0
6.574	10.0
6.589	11.0
6.604	8.0
6.619	7.0
6.634	11.0
6.649	9.0
6.664	3.0
6.679	4.0
6.694	5.0
6.709	5.0
6.724	9.0
6.739	8.0
6.754	9.0
6.769	12.0
6.784	5.0
6.799	10.0
6.814	9.0
6.829	10.0
6.844	8.0
6.859	13.0
6.873	7.0
6.888	11.0
6.903	7.0
6.918	4.0
6.933	8.0
6.948	3.0
6.963	14.0
6.978	5.0
6.993	8.0
7.008	11.0
7.023	8.0
7.038	8.0
7.053	8.0
7.068	15.0
7.083	13.0
7.098	3.0
7.113	12.0
7.128	4.0
7.143	9.0
7.157	13.0
7.172	8.0
7.187	6.0
7.202	12.0
7.217	14.0
7.232	4.0
7.247	5.0
7.262	15.0
7.277	12.0
7.292	11.0
7.307	3.0
7.322	1.0
7.336	6.0
7.351	7.0
7.366	11.0
7.381	5.0
7.396	10.0
7.411	5.0
7.426	13.0
7.441	11.0
7.456	5.0
7.471	8.0
7.485	4.0
7.5	5.0
7.515	6.0
7.53	8.0
7.545	17.0
7.56	6.0
7.575	9.0
7.59	4.0
7.604	6.0
7.619	5.0
7.634	10.0
7.649	3.0
7.664	11.0
7.679	12.0
7.693	12.0
7.708	10.0
7.723	16.0
7.738	7.0
7.753	8.0
7.768	8.0
7.783	11.0
7.797	7.0
7.812	14.0
7.827	5.0
7.842	7.0
7.857	5.0
7.871	7.0
7.886	10.0
7.901	6.0
7.916	5.0
7.931	9.0
7.945	3.0
7.96	9.0
7.975	9.0
7.99	10.0
8.005	10.0
8.019	5.0
8.034	9.0
8.049	10.0
8.064	7.0
8.078	8.0
8.093	10.0
8.108	13.0
8.123	6.0
8.137	10.0
8.152	5.0
8.167	10.0
8.182	8.0
8.196	7.0
8.211	13.0
8.226	10.0
8.241	15.0
8.255	8.0
8.27	12.0
8.285	11.0
8.3	13.0
8.314	11.0
8.329	10.0
8.344	8.0
8.358	10.0
8.373	12.0
8.388	10.0
8.403	11.0
8.417	15.0
8.432	14.0
8.447	8.0
8.461	10.0
8.476	7.0
8.491	7.0
8.505	7.0
8.52	4.0
8.535	4.0
8.55	9.0
8.564	13.0
8.579	7.0
8.594	6.0
8.608	9.0
8.623	13.0
8.638	5.0
8.652	9.0
8.667	7.0
8.682	3.0
8.696	5.0
8.711	10.0
8.726	10.0
8.74	10.0
8.755	8.0
8.77	4.0
8.784	10.0
8.799	2.0
8.814	6.0
8.828	4.0
8.843	17.0
8.858	13.0
8.872	8.0
8.887	9.0
8.902	11.0
8.916	13.0
8.931	11.0
8.946	14.0
8.96	6.0
8.975	5.0
8.99	4.0
9.004	3.0
9.019	8.0
9.034	5.0
9.048	7.0
9.063	8.0
9.077	12.0
9.092	14.0
9.107	10.0
9.121	5.0
9.136	11.0
9.151	9.0
9.165	2.0
9.18	13.0
9.195	12.0
9.209	12.0
9.224	11.0
9.239	10.0
9.253	9.0
9.268	4.0
9.283	9.0
9.297	14.0
9.312	8.0
9.327	6.0
9.341	6.0
9.356	9.0
9.371	8.0
9.385	5.0
9.4	2.0
9.415	10.0
9.429	5.0
9.444	10.0
9.458	4.0
9.473	13.0
9.488	9.0
9.502	14.0
9.517	11.0
9.532	6.0
9.546	9.0
9.561	7.0
9.576	7.0
9.59	10.0
9.605	8.0
9.62	10.0
9.635	7.0
9.649	8.0
9.664	9.0
9.679	10.0
9.693	14.0
9.708	8.0
9.723	5.0
9.737	8.0
9.752	9.0
9.767	6.0
9.781	9.0
9.796	10.0
9.811	7.0
9.825	7.0
9.84	4.0
9.855	4.0
9.87	6.0
9.884	15.0
9.899	7.0
9.914	11.0
9.928	5.0
9.943	5.0
9.958	7.0
9.973	7.0
9.987	4.0
10.002	1.0
10.017	9.0
10.031	3.0
10.046	13.0
10.061	8.0
10.076	9.0
10.09	6.0
10.105	12.0
10.12	5.0
10.135	14.0
10.149	14.0
10.164	6.0
10.179	4.0
10.194	10.0
10.208	8.0
10.223	10.0
10.238	6.0
10.253	11.0
10.267	10.0
10.282	5.0
10.297	9.0
10.312	9.0
10.326	10.0
10.341	4.0
10.356	5.0
10.371	5.0
10.386	7.0
10.4	10.0
10.415	6.0
10.43	10.0
10.445	7.0
10.46	7.0
10.474	8.0
10.489	12.0
10.504	6.0
10.519	10.0
10.533	6.0
10.548	8.0
10.563	5.0
10.578	9.0
10.593	12.0
10.608	4.0
10.622	7.0
10.637	7.0
10.652	6.0
10.667	8.0
10.682	10.0
10.696	5.0
10.711	3.0
10.726	5.0
10.741	10.0
10.756	3.0
10.771	10.0
10.785	5.0
10.8	7.0
10.815	11.0
10.83	3.0
10.845	8.0
10.86	8.0
10.874	12.0
10.889	4.0
10.904	6.0
10.919	6.0
10.934	13.0
10.949	7.0
10.963	7.0
10.978	5.0
10.993	10.0
11.008	10.0
11.023	11.0
11.038	8.0
11.053	12.0
11.067	11.0
11.082	7.0
11.097	10.0
11.112	6.0
11.127	7.0
11.142	9.0
11.157	7.0
11.172	12.0
11.186	5.0
11.201	9.0
11.216	10.0
11.231	9.0
11.246	8.0
11.261	11.0
11.276	7.0
11.291	8.0
11.305	9.0
11.32	6.0
11.335	7.0
11.35	7.0
11.365	6.0
11.38	10.0
11.395	4.0
11.41	10.0
11.424	7.0
11.439	11.0
11.454	12.0
11.469	10.0
11.484	12.0
11.499	6.0
11.514	6.0
11.529	8.0
11.544	11.0
11.558	4.0
11.573	4.0
11.588	3.0
11.603	5.0
11.618	7.0
11.633	6.0
11.648	10.0
11.663	6.0
11.678	10.0
11.693	11.0
11.707	8.0
11.722	12.0
11.737	11.0
11.752	6.0
11.767	6.0
11.782	5.0
11.797	12.0
11.812	11.0
11.827	7.0
11.842	10.0
11.856	7.0
11.871	7.0
11.886	3.0
11.901	16.0
11.916	11.0
11.931	10.0
11.946	12.0
11.961	10.0
11.976	12.0
11.991	6.0
12.006	10.0
12.02	3.0
12.035	11.0
12.05	10.0
12.065	14.0
12.08	9.0
12.095	8.0
12.11	9.0
12.125	12.0
12.14	13.0
12.155	10.0
12.17	7.0
12.184	9.0
12.199	7.0
12.214	6.0
12.229	11.0
12.244	5.0
12.259	8.0
12.274	6.0
12.289	14.0
12.304	17.0
12.319	12.0
12.334	13.0
12.348	9.0
12.363	9.0
12.378	11.0
12.393	7.0
12.408	10.0
12.423	13.0
12.438	13.0
12.453	8.0
12.468	9.0
12.483	8.0
12.498	13.0
12.513	11.0
12.527	11.0
12.542	11.0
12.557	7.0
12.572	8.0
12.587	17.0
12.602	6.0
12.617	11.0
12.632	8.0
12.647	15.0
12.662	16.0
12.677	12.0
12.692	13.0
12.707	16.0
12.721	8.0
12.736	16.0
12.751	13.0
12.766	15.0
12.781	16.0
12.796	18.0
12.811	18.0
12.826	14.0
12.841	18.0
12.856	15.0
12.871	18.0
12.886	9.0
12.9	14.0
12.915	18.0
12.93	21.0
12.945	11.0
12.96	13.0
12.975	23.0
12.99	16.0
13.005	18.0
13.02	17.0
13.035	19.0
13.05	21.0
13.065	18.0
13.08	14.0
13.094	22.0
13.109	14.0
13.124	12.0
13.139	17.0
13.154	14.0
13.169	23.0
13.184	22.0
13.199	13.0
13.214	19.0
13.229	21.0
13.244	12.0
13.259	14.0
13.274	17.0
13.288	20.0
13.303	21.0
13.318	26.0
13.333	19.0
13.348	16.0
13.363	20.0
13.378	26.0
13.393	23.0
13.408	23.0
13.423	27.0
13.438	31.0
13.453	38.0
13.468	36.0
13.482	27.0
13.497	36.0
13.512	49.0
13.527	38.0
13.542	35.0
13.557	53.0
13.572	60.0
13.587	42.0
13.602	66.0
13.617	77.0
13.632	73.0
13.647	60.0
13.662	84.0
13.677	87.0
13.691	84.0
13.706	91.0
13.721	78.0
13.736	106.0
13.751	116.0
13.766	108.0
13.781	117.0
13.796	150.0
13.811	111.0
13.826	112.0
13.841	149.0
13.856	134.0
13.871	121.0
13.885	99.0
13.9	83.0
13.915	99.0
13.93	70.0
13.945	72.0
13.96	63.0
13.975	40.0
13.99	41.0
14.005	30.0
14.02	25.0
14.035	30.0
14.05	21.0
14.065	29.0
14.08	23.0
14.094	25.0
14.109	28.0
14.124	25.0
14.139	18.0
14.154	23.0
14.169	16.0
14.184	21.0
14.199	17.0
14.214	19.0
14.229	17.0
14.244	21.0
14.259	12.0
14.274	19.0
14.288	15.0
14.303	23.0
14.318	21.0
14.333	14.0
14.348	21.0
14.363	15.0
14.378	23.0
14.393	14.0
14.408	15.0
14.423	22.0
14.438	16.0
14.453	25.0
14.468	20.0
14.482	13.0
14.497	21.0
14.512	11.0
14.527	16.0
14.542	25.0
14.557	17.0
14.572	19.0
14.587	19.0
14.602	14.0
14.617	36.0
14.632	10.0
14.647	16.0
14.661	19.0
14.676	17.0
14.691	17.0
14.706	16.0
14.721	27.0
14.736	13.0
14.751	12.0
14.766	19.0
14.781	15.0
14.796	18.0
14.811	19.0
14.826	18.0
14.84	7.0
14.855	24.0
14.87	16.0
14.885	11.0
14.9	16.0
14.915	18.0
14.93	15.0
14.945	19.0
14.96	20.0
14.975	14.0
14.989	17.0
15.004	15.0
15.019	9.0
15.034	18.0
15.049	7.0
15.064	12.0
15.079	12.0
15.094	19.0
15.109	14.0
15.124	18.0
15.138	16.0
15.153	11.0
15.168	21.0
15.183	14.0
15.198	9.0
15.213	20.0
15.228	7.0
15.243	15.0
15.258	13.0
15.272	14.0
15.287	16.0
15.302	10.0
15.317	12.0
15.332	14.0
15.347	8.0
15.362	14.0
15.377	10.0
15.391	9.0
15.406	22.0
15.421	16.0
15.436	18.0
15.451	19.0
15.466	10.0
15.481	16.0
15.496	13.0
15.51	12.0
15.525	12.0
15.54	15.0
15.555	15.0
15.57	11.0
15.585	13.0
15.6	14.0
15.614	21.0
15.629	11.0
15.644	19.0
15.659	10.0
15.674	11.0
15.689	11.0
15.704	16.0
15.718	19.0
15.733	11.0
15.748	12.0
15.763	6.0
15.778	10.0
15.793	14.0
15.808	7.0
15.822	13.0
15.837	15.0
15.852	19.0
15.867	13.0
15.882	11.0
15.897	18.0
15.911	14.0
15.926	18.0
15.941	18.0
15.956	17.0
15.971	12.0
15.986	12.0
16.0	14.0
16.015	20.0
16.03	13.0
16.045	12.0
16.06	14.0
16.074	7.0
16.089	17.0
16.104	3.0
16.119	11.0
16.134	13.0
16.149	10.0
16.163	16.0
16.178	10.0
16.193	19.0
16.208	4.0
16.223	9.0
16.237	13.0
16.252	18.0
16.267	15.0
16.282	13.0
16.297	16.0
16.311	21.0
16.326	11.0
16.341	19.0
16.356	8.0
16.37	13.0
16.385	12.0
16.4	15.0
16.415	20.0
16.43	13.0
16.444	20.0
16.459	11.0
16.474	14.0
16.489	11.0
16.504	12.0
16.518	17.0
16.533	11.0
16.548	14.0
16.563	13.0
16.577	19.0
16.592	22.0
16.607	15.0
16.622	12.0
16.637	22.0
16.651	14.0
16.666	24.0
16.681	19.0
16.696	17.0
16.71	18.0
16.725	24.0
16.74	27.0
16.755	42.0
16.77	26.0
16.784	35.0
16.799	48.0
16.814	45.0
16.829	42.0
16.843	42.0
16.858	50.0
16.873	56.0
16.888	54.0
16.902	57.0
16.917	51.0
16.932	82.0
16.947	97.0
16.961	76.0
16.976	73.0
16.991	75.0
17.006	74.0
17.021	41.0
17.035	48.0
17.05	51.0
17.065	43.0
17.08	31.0
17.094	31.0
17.109	32.0
17.124	25.0
17.139	25.0
17.153	17.0
17.168	23.0
17.183	12.0
17.198	12.0
17.212	14.0
17.227	18.0
17.242	14.0
17.257	19.0
17.271	16.0
17.286	13.0
17.301	21.0
17.316	17.0
17.33	16.0
17.345	18.0
17.36	14.0
17.375	13.0
17.39	12.0
17.404	15.0
17.419	17.0
17.434	10.0
17.449	14.0
17.463	16.0
17.478	7.0
17.493	9.0
17.508	22.0
17.522	14.0
17.537	7.0
17.552	10.0
17.567	16.0
17.581	9.0
17.596	10.0
17.611	14.0
17.626	13.0
17.641	12.0
17.655	12.0
17.67	13.0
17.685	13.0
17.7	7.0
17.714	17.0
17.729	15.0
17.744	6.0
17.759	10.0
17.773	12.0
17.788	16.0
17.803	20.0
17.818	19.0
17.833	10.0
17.847	5.0
17.862	13.0
17.877	9.0
17.892	9.0
17.906	12.0
17.921	8.0
17.936	15.0
17.951	19.0
17.966	13.0
17.98	8.0
17.995	9.0
18.01	7.0
18.025	9.0
18.04	10.0
18.054	11.0
18.069	15.0
18.084	9.0
18.099	10.0
18.114	10.0
18.128	12.0
18.143	7.0
18.158	11.0
18.173	12.0
18.188	10.0
18.202	13.0
18.217	12.0
18.232	12.0
18.247	11.0
18.262	7.0
18.276	15.0
18.291	16.0
18.306	18.0
18.321	10.0
18.336	18.0
18.35	14.0
18.365	14.0
18.38	8.0
18.395	14.0
18.41	13.0
18.424	12.0
18.439	11.0
18.454	20.0
18.469	9.0
18.484	9.0
18.498	15.0
18.513	5.0
18.528	12.0
18.543	12.0
18.558	11.0
18.573	14.0
18.587	11.0
18.602	15.0
18.617	9.0
18.632	17.0
18.647	7.0
18.661	16.0
18.676	7.0
18.691	9.0
18.706	11.0
18.721	20.0
18.736	13.0
18.75	13.0
18.765	12.0
18.78	9.0
18.795	8.0
18.81	13.0
18.825	13.0
18.839	12.0
18.854	10.0
18.869	15.0
18.884	17.0
18.899	7.0
18.913	14.0
18.928	15.0
18.943	11.0
18.958	12.0
18.973	14.0
18.988	8.0
19.002	20.0
19.017	13.0
19.032	16.0
19.047	13.0
19.062	13.0
19.077	12.0
19.091	16.0
19.106	13.0
19.121	17.0
19.136	10.0
19.151	16.0
19.165	17.0
19.18	11.0
19.195	11.0
19.21	12.0
19.225	8.0
19.24	14.0
19.254	17.0
19.269	8.0
19.284	14.0
19.299	14.0
19.314	10.0
19.329	15.0
19.343	12.0
19.358	23.0
19.373	22.0
19.388	21.0
19.403	18.0
19.417	22.0
19.432	24.0
19.447	13.0
19.462	28.0
19.477	23.0
19.492	33.0
19.506	34.0
19.521	35.0
19.536	38.0
19.551	41.0
19.566	45.0
19.58	29.0
19.595	47.0
19.61	34.0
19.625	36.0
19.64	38.0
19.655	44.0
19.669	38.0
19.684	24.0
19.699	28.0
19.714	26.0
19.729	24.0
19.743	16.0
19.758	21.0
19.773	20.0
19.788	19.0
19.803	18.0
19.817	22.0
19.832	12.0
19.847	15.0
19.862	10.0
19.877	6.0
19.891	6.0
19.906	12.0
19.921	10.0
19.936	14.0
19.951	19.0
19.965	9.0
19.98	12.0
19.995	13.0
20.01	10.0
20.025	14.0
20.039	11.0
20.054	12.0
20.069	9.0
20.084	12.0
20.099	7.0
20.113	13.0
20.128	6.0
20.143	10.0
20.158	10.0
20.173	15.0
20.187	11.0
20.202	7.0
20.217	14.0
20.232	12.0
20.246	18.0
20.261	20.0
20.276	17.0
20.291	7.0
20.306	5.0
20.32	13.0
20.335	5.0
20.35	22.0
20.365	8.0
20.38	8.0
20.394	10.0
20.409	9.0
20.424	11.0
20.439	13.0
20.453	15.0
20.468	7.0
20.483	6.0
20.498	14.0
20.513	9.0
20.527	11.0
20.542	12.0
20.557	9.0
20.572	12.0
20.586	14.0
20.601	9.0
20.616	11.0
20.631	5.0
20.646	12.0
20.66	11.0
20.675	9.0
20.69	12.0
20.705	10.0
20.719	10.0
20.734	7.0
20.749	12.0
20.764	15.0
20.779	10.0
20.793	8.0
20.808	9.0
20.823	5.0
20.838	18.0
20.853	12.0
20.867	6.0
20.882	9.0
20.897	6.0
20.912	11.0
20.926	13.0
20.941	12.0
20.956	13.0
20.971	15.0
20.986	15.0
21.0	10.0
21.015	5.0
21.03	10.0
21.045	11.0
21.06	3.0
21.074	9.0
21.089	9.0
21.104	15.0
21.119	13.0
21.134	15.0
21.148	14.0
21.163	13.0
21.178	13.0
21.193	12.0
21.208	11.0
21.222	9.0
21.237	15.0
21.252	11.0
21.267	9.0
21.282	9.0
21.296	17.0
21.311	11.0
21.326	15.0
21.341	12.0
21.356	9.0
21.37	13.0
21.385	12.0
21.4	8.0
21.415	13.0
21.43	17.0
21.444	12.0
21.459	15.0
21.474	12.0
21.489	14.0
21.504	16.0
21.519	11.0
21.533	12.0
21.548	12.0
21.563	12.0
21.578	5.0
21.593	16.0
21.608	11.0
21.622	19.0
21.637	17.0
21.652	19.0
21.667	20.0
21.682	13.0
21.697	14.0
21.712	31.0
21.726	24.0
21.741	30.0
21.756	21.0
21.771	23.0
21.786	30.0
21.801	36.0
21.816	31.0
21.83	40.0
21.845	53.0
21.86	53.0
21.875	50.0
21.89	75.0
21.905	61.0
21.92	76.0
21.935	76.0
21.949	78.0
21.964	77.0
21.979	86.0
21.994	68.0
22.009	72.0
22.024	63.0
22.039	62.0
22.054	54.0
22.069	51.0
22.083	47.0
22.098	42.0
22.113	44.0
22.128	36.0
22.143	28.0
22.158	24.0
22.173	28.0
22.188	21.0
22.203	15.0
22.218	14.0
22.233	10.0
22.248	15.0
22.262	19.0
22.277	9.0
22.292	16.0
22.307	15.0
22.322	14.0
22.337	9.0
22.352	8.0
22.367	11.0
22.382	17.0
22.397	12.0
22.412	12.0
22.427	10.0
22.442	13.0
22.457	8.0
22.472	19.0
22.487	12.0
22.502	13.0
22.516	13.0
22.531	12.0
22.546	13.0
22.561	13.0
22.576	13.0
22.591	12.0
22.606	9.0
22.621	7.0
22.636	17.0
22.651	6.0
22.666	10.0
22.681	10.0
22.696	10.0
22.711	6.0
22.726	11.0
22.741	11.0
22.756	17.0
22.771	6.0
22.786	10.0
22.801	12.0
22.816	9.0
22.831	11.0
22.846	9.0
22.861	13.0
22.876	12.0
22.891	10.0
22.906	8.0
22.92	6.0
22.935	13.0
22.95	13.0
22.965	14.0
22.98	13.0
22.995	8.0
23.01	7.0
23.025	15.0
23.04	13.0
23.055	9.0
23.07	12.0
23.085	7.0
23.1	9.0
23.115	5.0
23.13	17.0
23.145	11.0
23.16	9.0
23.175	10.0
23.19	17.0
23.205	14.0
23.22	12.0
23.235	11.0
23.25	7.0
23.265	9.0
23.28	14.0
23.295	11.0
23.31	17.0
23.325	10.0
23.34	11.0
23.355	10.0
23.37	10.0
23.384	8.0
23.399	7.0
23.414	9.0
23.429	14.0
23.444	11.0
23.459	14.0
23.474	11.0
23.489	11.0
23.504	16.0
23.519	12.0
23.534	15.0
23.549	9.0
23.564	13.0
23.579	12.0
23.594	11.0
23.609	14.0
23.624	13.0
23.639	14.0
23.654	7.0
23.668	8.0
23.683	11.0
23.698	13.0
23.713	9.0
23.728	8.0
23.743	12.0
23.758	7.0
23.773	13.0
23.788	18.0
23.803	20.0
23.818	16.0
23.833	18.0
23.848	7.0
23.862	14.0
23.877	18.0
23.892	17.0
23.907	22.0
23.922	24.0
23.937	29.0
23.952	31.0
23.967	32.0
23.982	33.0
23.997	27.0
24.011	43.0
24.026	37.0
24.041	40.0
24.056	64.0
24.071	50.0
24.086	37.0
24.101	48.0
24.116	62.0
24.131	54.0
24.145	49.0
24.16	38.0
24.175	41.0
24.19	40.0
24.205	36.0
24.22	35.0
24.235	33.0
24.249	19.0
24.264	33.0
24.279	24.0
24.294	22.0
24.309	20.0
24.324	18.0
24.338	19.0
24.353	13.0
24.368	15.0
24.383	12.0
24.398	12.0
24.413	8.0
24.428	10.0
24.442	13.0
24.457	13.0
24.472	14.0
24.487	13.0
24.502	10.0
24.516	10.0
24.531	12.0
24.546	13.0
24.561	11.0
24.576	12.0
24.591	8.0
24.605	12.0
24.62	8.0
24.635	12.0
24.65	9.0
24.665	13.0
24.679	13.0
24.694	10.0
24.709	10.0
24.724	9.0
24.739	12.0
24.753	10.0
24.768	6.0
24.783	14.0
24.798	11.0
24.813	9.0
24.827	11.0
24.842	9.0
24.857	9.0
24.872	10.0
24.886	10.0
24.901	10.0
24.916	8.0
24.931	14.0
24.946	12.0
24.96	11.0
24.975	6.0
24.99	5.0
25.005	14.0
25.019	7.0
25.034	7.0
25.049	13.0
25.064	21.0
25.078	7.0
25.093	10.0
25.108	9.0
25.123	6.0
25.138	10.0
25.152	8.0
25.167	19.0
25.182	7.0
25.197	10.0
25.211	9.0
25.226	15.0
25.241	6.0
25.256	6.0
25.27	8.0
25.285	9.0
25.3	15.0
25.315	5.0
25.329	12.0
25.344	9.0
25.359	10.0
25.374	9.0
25.388	10.0
25.403	10.0
25.418	16.0
25.433	8.0
25.447	16.0
25.462	7.0
25.477	12.0
25.492	7.0
25.506	9.0
25.521	6.0
25.536	14.0
25.55	9.0
25.565	14.0
25.58	9.0
25.595	3.0
25.609	8.0
25.624	8.0
25.639	8.0
25.654	7.0
25.668	4.0
25.683	5.0
25.698	10.0
25.713	13.0
25.727	5.0
25.742	10.0
25.757	8.0
25.772	9.0
25.786	8.0
25.801	4.0
25.816	11.0
25.83	8.0
25.845	5.0
25.86	7.0
25.875	5.0
25.889	10.0
25.904	8.0
25.919	6.0
25.934	6.0
25.948	17.0
25.963	8.0
25.978	7.0
25.992	15.0
26.007	10.0
26.022	9.0
26.037	5.0
26.051	11.0
26.066	9.0
26.081	8.0
26.096	11.0
26.11	11.0
26.125	9.0
26.14	10.0
26.155	7.0
26.169	8.0
26.184	6.0
26.199	9.0
26.213	10.0
26.228	7.0
26.243	9.0
26.258	9.0
26.272	6.0
26.287	9.0
26.302	8.0
26.317	10.0
26.331	6.0
26.346	7.0
26.361	4.0
26.376	7.0
26.39	9.0
26.405	6.0
26.42	5.0
26.434	8.0
26.449	3.0
26.464	9.0
26.479	11.0
26.493	13.0
26.508	5.0
26.523	9.0
26.538	14.0
26.552	8.0
26.567	8.0
26.582	7.0
26.597	13.0
26.611	7.0
26.626	12.0
26.641	10.0
26.656	9.0
26.67	6.0
26.685	15.0
26.7	9.0
26.715	12.0
26.729	10.0
26.744	10.0
26.759	8.0
26.773	8.0
26.788	6.0
26.803	13.0
26.818	13.0
26.832	13.0
26.847	4.0
26.862	10.0
26.877	12.0
26.891	6.0
26.906	8.0
26.921	9.0
26.936	5.0
26.95	8.0
26.965	7.0
26.98	10.0
26.995	11.0
27.01	8.0
27.024	12.0
27.039	12.0
27.054	11.0
27.069	12.0
27.083	8.0
27.098	5.0
27.113	9.0
27.128	10.0
27.142	15.0
27.157	10.0
27.172	5.0
27.187	9.0
27.201	7.0
27.216	16.0
27.231	7.0
27.246	9.0
27.261	10.0
27.275	8.0
27.29	8.0
27.305	7.0
27.32	10.0
27.334	12.0
27.349	8.0
27.364	11.0
27.379	8.0
27.394	6.0
27.408	9.0
27.423	15.0
27.438	8.0
27.453	10.0
27.467	12.0
27.482	6.0
27.497	11.0
27.512	15.0
27.527	11.0
27.541	11.0
27.556	14.0
27.571	16.0
27.586	15.0
27.601	14.0
27.615	11.0
27.63	13.0
27.645	10.0
27.66	12.0
27.675	13.0
27.689	13.0
27.704	7.0
27.719	15.0
27.734	15.0
27.749	10.0
27.763	15.0
27.778	18.0
27.793	20.0
27.808	25.0
27.823	15.0
27.838	26.0
27.852	22.0
27.867	16.0
27.882	18.0
27.897	24.0
27.912	21.0
27.926	28.0
27.941	16.0
27.956	22.0
27.971	24.0
27.986	23.0
28.001	22.0
28.015	13.0
28.03	19.0
28.045	19.0
28.06	15.0
28.075	12.0
28.09	9.0
28.105	13.0
28.119	12.0
28.134	12.0
28.149	16.0
28.164	10.0
28.179	5.0
28.194	11.0
28.208	14.0
28.223	7.0
28.238	12.0
28.253	10.0
28.268	11.0
28.283	12.0
28.298	14.0
28.312	19.0
28.327	10.0
28.342	9.0
28.357	9.0
28.372	8.0
28.387	9.0
28.402	8.0
28.417	9.0
28.431	13.0
28.446	12.0
28.461	11.0
28.476	14.0
28.491	16.0
28.506	12.0
28.521	11.0
28.536	10.0
28.55	9.0
28.565	6.0
28.58	8.0
28.595	8.0
28.61	5.0
28.625	11.0
28.64	10.0
28.655	11.0
28.669	4.0
28.684	10.0
28.699	10.0
28.714	10.0
28.729	6.0
28.744	12.0
28.759	9.0
28.774	9.0
28.788	6.0
28.803	8.0
28.818	11.0
28.833	15.0
28.848	12.0
28.863	9.0
28.878	6.0
28.893	14.0
28.908	12.0
28.922	14.0
28.937	5.0
28.952	13.0
28.967	7.0
28.982	6.0
28.997	9.0
29.012	10.0
29.027	10.0
29.041	15.0
29.056	12.0
29.071	9.0
29.086	12.0
29.101	15.0
29.116	9.0
29.131	10.0
29.146	14.0
29.16	8.0
29.175	12.0
29.19	7.0
29.205	14.0
29.22	17.0
29.235	9.0
29.25	10.0
29.265	14.0
29.279	6.0
29.294	13.0
29.309	15.0
29.324	9.0
29.339	11.0
29.354	22.0
29.369	20.0
29.384	15.0
29.398	10.0
29.413	10.0
29.428	16.0
29.443	20.0
29.458	17.0
29.473	29.0
29.488	22.0
29.502	38.0
29.517	22.0
29.532	33.0
29.547	39.0
29.562	49.0
29.577	46.0
29.592	58.0
29.606	39.0
29.621	42.0
29.636	45.0
29.651	40.0
29.666	45.0
29.681	43.0
29.695	35.0
29.71	35.0
29.725	26.0
29.74	31.0
29.755	26.0
29.77	31.0
29.784	30.0
29.799	34.0
29.814	36.0
29.829	20.0
29.844	17.0
29.859	26.0
29.873	28.0
29.888	15.0
29.903	13.0
29.918	19.0
29.933	15.0
29.947	12.0
29.962	24.0
29.977	13.0
29.992	11.0
30.007	10.0
30.021	11.0
30.036	13.0
30.051	11.0
30.066	14.0
30.081	7.0
30.095	13.0
30.11	13.0
30.125	12.0
30.14	7.0
30.155	8.0
30.169	14.0
30.184	9.0
30.199	13.0
30.214	11.0
30.228	7.0
30.243	15.0
30.258	6.0
30.273	14.0
30.288	14.0
30.302	7.0
30.317	11.0
30.332	13.0
30.347	11.0
30.361	14.0
30.376	6.0
30.391	9.0
30.406	7.0
30.42	9.0
30.435	5.0
30.45	10.0
30.465	9.0
30.479	9.0
30.494	13.0
30.509	11.0
30.524	4.0
30.538	12.0
30.553	13.0
30.568	14.0
30.583	10.0
30.597	14.0
30.612	6.0
30.627	15.0
30.641	7.0
30.656	7.0
30.671	12.0
30.686	9.0
30.7	16.0
30.715	7.0
30.73	10.0
30.745	10.0
30.759	7.0
30.774	4.0
30.789	12.0
30.803	8.0
30.818	7.0
30.833	7.0
30.848	14.0
30.862	17.0
30.877	9.0
30.892	12.0
30.906	17.0
30.921	7.0
30.936	8.0
30.951	16.0
30.965	18.0
30.98	11.0
30.995	13.0
31.009	9.0
31.024	11.0
31.039	18.0
31.053	17.0
31.068	20.0
31.083	17.0
31.098	18.0
31.112	13.0
31.127	16.0
31.142	20.0
31.156	21.0
31.171	31.0
31.186	32.0
31.2	41.0
31.215	32.0
31.23	43.0
31.245	37.0
31.259	39.0
31.274	43.0
31.289	44.0
31.303	44.0
31.318	34.0
31.333	37.0
31.347	26.0
31.362	36.0
31.377	24.0
31.392	25.0
31.406	36.0
31.421	17.0
31.436	14.0
31.45	21.0
31.465	24.0
31.48	24.0
31.494	24.0
31.509	15.0
31.524	18.0
31.538	12.0
31.553	17.0
31.568	16.0
31.583	14.0
31.597	9.0
31.612	12.0
31.627	9.0
31.641	15.0
31.656	8.0
31.671	9.0
31.685	15.0
31.7	10.0
31.715	7.0
31.729	6.0
31.744	7.0
31.759	9.0
31.774	16.0
31.788	12.0
31.803	15.0
31.818	10.0
31.832	6.0
31.847	12.0
31.862	9.0
31.876	9.0
31.891	18.0
31.906	9.0
31.92	5.0
31.935	11.0
31.95	11.0
31.965	10.0
31.979	7.0
31.994	11.0
32.009	8.0
32.023	11.0
32.038	9.0
32.053	10.0
32.067	6.0
32.082	12.0
32.097	9.0
32.112	5.0
32.126	11.0
32.141	10.0
32.156	4.0
32.17	16.0
32.185	7.0
32.2	9.0
32.214	9.0
32.229	9.0
32.244	6.0
32.259	2.0
32.273	10.0
32.288	7.0
32.303	13.0
32.317	9.0
32.332	5.0
32.347	5.0
32.362	8.0
32.376	7.0
32.391	10.0
32.406	8.0
32.42	3.0
32.435	7.0
32.45	12.0
32.465	12.0
32.479	6.0
32.494	9.0
32.509	5.0
32.523	10.0
32.538	11.0
32.553	11.0
32.568	12.0
32.582	7.0
32.597	11.0
32.612	8.0
32.627	15.0
32.641	12.0
32.656	8.0
32.671	12.0
32.685	12.0
32.7	16.0
32.715	16.0
32.73	14.0
32.744	20.0
32.759	19.0
32.774	21.0
32.788	28.0
32.803	24.0
32.818	26.0
32.833	25.0
32.847	31.0
32.862	27.0
32.877	23.0
32.892	20.0
32.906	23.0
32.921	20.0
32.936	20.0
32.951	17.0
32.965	22.0
32.98	21.0
32.995	21.0
33.009	23.0
33.024	20.0
33.039	17.0
33.054	17.0
33.068	20.0
33.083	19.0
33.098	11.0
33.113	12.0
33.127	15.0
33.142	16.0
33.157	15.0
33.172	11.0
33.186	8.0
33.201	14.0
33.216	13.0
33.231	11.0
33.245	8.0
33.26	12.0
33.275	8.0
33.29	14.0
33.304	7.0
33.319	9.0
33.334	10.0
33.349	7.0
33.363	12.0
33.378	14.0
33.393	9.0
33.408	8.0
33.422	12.0
33.437	13.0
33.452	10.0
33.467	7.0
33.481	13.0
33.496	12.0
33.511	8.0
33.526	12.0
33.54	14.0
33.555	12.0
33.57	7.0
33.585	9.0
33.599	8.0
33.614	7.0
33.629	6.0
33.644	7.0
33.658	8.0
33.673	11.0
33.688	8.0
33.703	7.0
33.718	9.0
33.732	4.0
33.747	14.0
33.762	5.0
33.777	8.0
33.791	3.0
33.806	10.0
33.821	12.0
33.836	10.0
33.85	14.0
33.865	16.0
33.88	10.0
33.895	8.0
33.91	12.0
33.924	10.0
33.939	10.0
33.954	12.0
33.969	6.0
33.983	9.0
33.998	13.0
34.013	7.0
34.028	13.0
34.042	11.0
34.057	12.0
34.072	9.0
34.087	13.0
34.102	12.0
34.116	9.0
34.131	10.0
34.146	5.0
34.161	12.0
34.175	8.0
34.19	14.0
34.205	9.0
34.22	13.0
34.235	14.0
34.249	11.0
34.264	15.0
34.279	12.0
34.294	11.0
34.309	5.0
34.323	20.0
34.338	15.0
34.353	12.0
34.368	10.0
34.382	10.0
34.397	8.0
34.412	12.0
34.427	15.0
34.442	15.0
34.456	15.0
34.471	16.0
34.486	15.0
34.501	13.0
34.516	12.0
34.53	12.0
34.545	18.0
34.56	11.0
34.575	13.0
34.59	7.0
34.604	17.0
34.619	6.0
34.634	19.0
34.649	8.0
34.664	5.0
34.678	11.0
34.693	14.0
34.708	8.0
34.723	8.0
34.738	9.0
34.752	7.0
34.767	8.0
34.782	9.0
34.797	7.0
34.812	6.0
34.826	7.0
34.841	10.0
34.856	6.0
34.871	1.0
34.886	13.0
34.9	4.0
34.915	4.0
34.93	12.0
34.945	5.0
34.96	10.0
34.974	7.0
34.989	5.0
35.004	13.0
35.019	10.0
35.034	8.0
35.048	7.0
35.063	4.0
35.078	8.0
35.093	11.0
35.108	3.0
35.122	10.0
35.137	5.0
35.152	8.0
35.167	15.0
35.182	10.0
35.196	8.0
35.211	8.0
35.226	11.0
35.241	3.0
35.256	7.0
35.27	10.0
35.285	5.0
35.3	6.0
35.315	10.0
35.33	6.0
35.344	6.0
35.359	10.0
35.374	12.0
35.389	10.0
35.404	3.0
35.418	8.0
35.433	13.0
35.448	9.0
35.463	9.0
35.478	5.0
35.493	5.0
35.507	5.0
35.522	10.0
35.537	13.0
35.552	11.0
35.567	11.0
35.581	6.0
35.596	10.0
35.611	12.0
35.626	12.0
35.641	7.0
35.655	6.0
35.67	8.0
35.685	10.0
35.7	20.0
35.715	14.0
35.729	12.0
35.744	14.0
35.759	22.0
35.774	20.0
35.789	21.0
35.804	20.0
35.818	18.0
35.833	15.0
35.848	16.0
35.863	15.0
35.878	12.0
35.892	9.0
35.907	15.0
35.922	16.0
35.937	12.0
35.952	19.0
35.966	12.0
35.981	12.0
35.996	12.0
36.011	7.0
36.026	13.0
36.04	4.0
36.055	10.0
36.07	5.0
36.085	15.0
36.1	17.0
36.114	12.0
36.129	3.0
36.144	11.0
36.159	12.0
36.174	8.0
36.189	9.0
36.203	8.0
36.218	9.0
36.233	16.0
36.248	6.0
36.263	10.0
36.277	9.0
36.292	12.0
36.307	7.0
36.322	6.0
36.337	9.0
36.351	11.0
36.366	8.0
36.381	9.0
36.396	11.0
36.411	10.0
36.426	7.0
36.44	8.0
36.455	6.0
36.47	5.0
36.485	13.0
36.5	17.0
36.514	3.0
36.529	10.0
36.544	7.0
36.559	9.0
36.574	8.0
36.589	10.0
36.603	8.0
36.618	9.0
36.633	2.0
36.648	6.0
36.663	7.0
36.677	9.0
36.692	8.0
36.707	4.0
36.722	9.0
36.737	8.0
36.752	7.0
36.766	7.0
36.781	4.0
36.796	12.0
36.811	6.0
36.826	10.0
36.841	7.0
36.855	9.0
36.87	11.0
36.885	6.0
36.9	9.0
36.915	13.0
36.93	11.0
36.944	4.0
36.959	7.0
36.974	8.0
36.989	12.0
37.004	6.0
37.019	13.0
37.033	8.0
37.048	11.0
37.063	16.0
37.078	13.0
37.093	19.0
37.108	20.0
37.123	19.0
37.137	25.0
37.152	29.0
37.167	29.0
37.182	26.0
37.197	23.0
37.212	24.0
37.226	22.0
37.241	16.0
37.256	19.0
37.271	17.0
37.286	17.0
37.301	14.0
37.316	24.0
37.331	20.0
37.345	18.0
37.36	16.0
37.375	24.0
37.39	15.0
37.405	11.0
37.42	21.0
37.435	17.0
37.45	13.0
37.464	8.0
37.479	14.0
37.494	16.0
37.509	13.0
37.524	11.0
37.539	11.0
37.554	4.0
37.569	8.0
37.583	9.0
37.598	7.0
37.613	8.0
37.628	10.0
37.643	7.0
37.658	5.0
37.673	4.0
37.688	9.0
37.703	8.0
37.718	4.0
37.733	1.0
37.747	12.0
37.762	8.0
37.777	6.0
37.792	7.0
37.807	4.0
37.822	7.0
37.837	8.0
37.852	3.0
37.867	5.0
37.882	5.0
37.897	4.0
37.912	6.0
37.927	5.0
37.941	5.0
37.956	11.0
37.971	8.0
37.986	7.0
38.001	7.0
38.016	6.0
38.031	3.0
38.046	7.0
38.061	7.0
38.076	3.0
38.091	10.0
38.106	3.0
38.121	2.0
38.136	6.0
38.151	4.0
38.166	4.0
38.181	3.0
38.196	2.0
38.211	6.0
38.226	5.0
38.241	8.0
38.256	9.0
38.271	4.0
38.285	6.0
38.3	10.0
38.315	6.0
38.33	8.0
38.345	11.0
38.36	5.0
38.375	4.0
38.39	6.0
38.405	7.0
38.42	7.0
38.435	8.0
38.45	1.0
38.465	2.0
38.48	7.0
38.495	3.0
38.51	7.0
38.525	6.0
38.54	4.0
38.555	8.0
38.57	3.0
38.585	6.0
38.6	5.0
38.615	7.0
38.63	4.0
38.645	1.0
38.66	8.0
38.675	5.0
38.69	4.0
38.705	5.0
38.72	7.0
38.735	4.0
38.75	4.0
38.765	5.0
38.78	5.0
38.795	6.0
38.81	12.0
38.825	11.0
38.84	7.0
38.855	4.0
38.87	3.0
38.885	8.0
38.9	4.0
38.915	3.0
38.93	4.0
38.945	6.0
38.96	4.0
38.975	2.0
38.99	5.0
39.005	2.0
39.02	6.0
39.035	3.0
39.05	4.0
39.065	6.0
39.08	9.0
39.095	7.0
39.11	8.0
39.125	10.0
39.14	6.0
39.155	5.0
39.17	4.0
39.185	10.0
39.2	8.0
39.215	5.0
39.23	3.0
39.245	4.0
39.26	5.0
39.275	6.0
39.29	3.0
39.305	5.0
39.32	3.0
39.335	8.0
39.35	7.0
39.365	7.0
39.38	4.0
39.395	5.0
39.409	2.0
39.424	3.0
39.439	6.0
39.454	8.0
39.469	5.0
39.484	8.0
39.499	4.0
39.514	4.0
39.529	1.0
39.544	6.0
39.559	7.0
39.574	8.0
39.589	5.0
39.604	6.0
39.619	3.0
39.634	2.0
39.649	6.0
39.664	9.0
39.678	4.0
39.693	6.0
39.708	4.0
39.723	6.0
39.738	3.0
39.753	7.0
39.768	10.0
39.783	8.0
39.798	5.0
39.813	8.0
39.827	7.0
39.842	10.0
39.857	11.0
39.872	7.0
39.887	8.0
39.902	5.0
39.917	7.0
39.932	7.0
39.947	4.0
39.961	9.0
39.976	5.0
39.991	11.0
40.006	6.0
40.021	3.0
40.036	5.0
40.051	6.0
40.065	9.0
40.08	9.0
40.095	7.0
40.11	5.0
40.125	7.0
40.14	4.0
40.154	4.0
40.169	5.0
40.184	3.0
40.199	4.0
40.214	4.0
40.228	8.0
40.243	7.0
40.258	3.0
40.273	8.0
40.288	6.0
40.302	2.0
40.317	5.0
40.332	5.0
40.347	3.0
40.362	6.0
40.376	7.0
40.391	3.0
40.406	3.0
40.421	5.0
40.436	6.0
40.45	4.0
40.465	9.0
40.48	6.0
40.495	5.0
40.509	4.0
40.524	6.0
40.539	5.0
40.554	7.0
40.568	7.0
40.583	9.0
40.598	7.0
40.613	6.0
40.627	6.0
40.642	4.0
40.657	5.0
40.672	7.0
40.686	3.0
40.701	7.0
40.716	1.0
40.731	8.0
40.745	8.0
40.76	3.0
40.775	5.0
40.79	6.0
40.804	5.0
40.819	3.0
40.834	9.0
40.849	7.0
40.863	5.0
40.878	0.0
40.893	3.0
40.907	4.0
40.922	9.0
40.937	6.0
40.952	3.0
40.966	6.0
40.981	11.0
40.996	11.0
41.011	3.0
41.025	5.0
41.04	12.0
41.055	12.0
41.069	10.0
41.084	21.0
41.099	19.0
41.114	17.0
41.128	10.0
41.143	22.0
41.158	20.0
41.173	17.0
41.187	18.0
41.202	12.0
41.217	12.0
41.231	8.0
41.246	9.0
41.261	9.0
41.276	8.0
41.29	8.0
41.305	6.0
41.32	10.0
41.335	15.0
41.349	9.0
41.364	19.0
41.379	20.0
41.393	6.0
41.408	11.0
41.423	17.0
41.438	15.0
41.452	13.0
41.467	11.0
41.482	10.0
41.497	7.0
41.511	6.0
41.526	6.0
41.541	4.0
41.556	9.0
41.57	10.0
41.585	8.0
41.6	3.0
41.615	4.0
41.629	6.0
41.644	5.0
41.659	5.0
41.674	5.0
41.688	7.0
41.703	3.0
41.718	4.0
41.733	6.0
41.747	6.0
41.762	8.0
41.777	9.0
41.792	5.0
41.806	5.0
41.821	7.0
41.836	12.0
41.851	6.0
41.866	8.0
41.88	10.0
41.895	6.0
41.91	2.0
41.925	7.0
41.939	7.0
41.954	7.0
41.969	3.0
41.984	3.0
41.999	8.0
42.013	6.0
42.028	6.0
42.043	2.0
42.058	5.0
42.073	7.0
42.088	5.0
42.102	3.0
42.117	5.0
42.132	2.0
42.147	4.0
42.162	7.0
42.176	6.0
42.191	5.0
42.206	7.0
42.221	8.0
42.236	7.0
42.251	1.0
42.266	8.0
42.28	8.0
42.295	8.0
42.31	10.0
42.325	11.0
42.34	18.0
42.355	16.0
42.369	8.0
42.384	19.0
42.399	23.0
42.414	10.0
42.429	12.0
42.444	11.0
42.459	16.0
42.474	14.0
42.488	9.0
42.503	11.0
42.518	10.0
42.533	6.0
42.548	8.0
42.563	6.0
42.578	10.0
42.593	9.0
42.608	11.0
42.622	8.0
42.637	9.0
42.652	9.0
42.667	9.0
42.682	12.0
42.697	7.0
42.712	12.0
42.727	7.0
42.742	5.0
42.757	6.0
42.772	5.0
42.786	3.0
42.801	6.0
42.816	2.0
42.831	10.0
42.846	4.0
42.861	2.0
42.876	7.0
42.891	4.0
42.906	4.0
42.921	5.0
42.936	4.0
42.951	5.0
42.966	5.0
42.981	8.0
42.996	6.0
43.011	5.0
43.025	3.0
43.04	2.0
43.055	6.0
43.07	3.0
43.085	2.0
43.1	3.0
43.115	3.0
43.13	5.0
43.145	10.0
43.16	6.0
43.175	5.0
43.19	7.0
43.205	4.0
43.22	10.0
43.235	3.0
43.25	2.0
43.265	5.0
43.28	3.0
43.295	2.0
43.31	6.0
43.325	9.0
43.34	5.0
43.355	6.0
43.37	9.0
43.385	3.0
43.4	6.0
43.415	4.0
43.43	5.0
43.445	10.0
43.46	9.0
43.475	4.0
43.49	14.0
43.505	1.0
43.52	6.0
43.535	6.0
43.55	5.0
43.565	10.0
43.58	5.0
43.595	9.0
43.61	13.0
43.625	14.0
43.64	10.0
43.655	15.0
43.67	14.0
43.685	8.0
43.7	7.0
43.715	7.0
43.73	4.0
43.745	5.0
43.76	11.0
43.775	3.0
43.79	2.0
43.805	8.0
43.82	4.0
43.835	11.0
43.85	7.0
43.865	7.0
43.88	10.0
43.895	4.0
43.91	7.0
43.925	8.0
43.94	5.0
43.955	6.0
43.97	4.0
43.985	7.0
44.0	10.0
44.015	3.0
44.03	6.0
44.045	4.0
44.061	4.0
44.076	6.0
44.091	6.0
44.106	4.0
44.121	7.0
44.136	7.0
44.151	5.0
44.166	4.0
44.181	10.0
44.196	6.0
44.211	3.0
44.226	7.0
44.241	6.0
44.256	5.0
44.271	4.0
44.286	9.0
44.301	4.0
44.316	5.0
44.331	4.0
44.346	3.0
44.361	7.0
44.377	7.0
44.392	6.0
44.407	2.0
44.422	7.0
44.437	4.0
44.452	3.0
44.467	3.0
44.482	3.0
44.497	4.0
44.512	6.0
44.527	5.0
44.542	6.0
44.557	2.0
44.572	10.0
44.587	4.0
44.602	8.0
44.617	6.0
44.632	7.0
44.647	6.0
44.663	8.0
44.678	5.0
44.693	5.0
44.708	6.0
44.723	8.0
44.738	3.0
44.753	8.0
44.768	8.0
44.783	12.0
44.798	7.0
44.813	9.0
44.828	11.0
44.843	12.0
44.858	9.0
44.873	8.0
44.888	9.0
44.903	11.0
44.918	5.0
44.933	2.0
44.948	9.0
44.964	4.0
44.979	5.0
44.994	4.0
45.009	8.0
45.024	8.0
45.039	8.0
45.054	9.0
45.069	5.0
45.084	6.0
45.099	8.0
45.114	7.0
45.129	5.0
45.144	10.0
45.159	5.0
45.174	4.0
45.189	8.0
45.204	5.0
45.219	4.0
45.234	8.0
45.249	4.0
45.264	4.0
45.279	4.0
45.294	8.0
45.309	5.0
45.324	4.0
45.339	9.0
45.354	4.0
45.369	5.0
45.384	4.0
45.399	9.0
45.414	5.0
45.429	5.0
45.444	8.0
45.459	4.0
45.474	5.0
45.489	6.0
45.504	4.0
45.519	5.0
45.534	2.0
45.549	2.0
45.564	4.0
45.579	4.0
45.594	6.0
45.609	5.0
45.624	3.0
45.639	2.0
45.654	5.0
45.669	4.0
45.684	6.0
45.699	4.0
45.714	7.0
45.729	2.0
45.744	9.0
45.759	10.0
45.774	9.0
45.789	6.0
45.804	8.0
45.819	3.0
45.834	6.0
45.849	7.0
45.864	7.0
45.879	8.0
45.894	7.0
45.909	13.0
45.924	18.0
45.939	16.0
45.954	27.0
45.969	17.0
45.984	16.0
45.998	15.0
46.013	13.0
46.028	17.0
46.043	14.0
46.058	11.0
46.073	7.0
46.088	12.0
46.103	8.0
46.118	9.0
46.133	4.0
46.148	6.0
46.163	8.0
46.178	10.0
46.192	5.0
46.207	11.0
46.222	10.0
46.237	11.0
46.252	11.0
46.267	13.0
46.282	10.0
46.297	11.0
46.312	12.0
46.327	8.0
46.341	4.0
46.356	4.0
46.371	10.0
46.386	8.0
46.401	3.0
46.416	2.0
46.431	8.0
46.446	7.0
46.46	5.0
46.475	5.0
46.49	5.0
46.505	10.0
46.52	5.0
46.535	4.0
46.55	8.0
46.564	4.0
46.579	2.0
46.594	6.0
46.609	10.0
46.624	5.0
46.639	4.0
46.654	6.0
46.668	5.0
46.683	2.0
46.698	7.0
46.713	5.0
46.728	5.0
46.743	5.0
46.758	6.0
46.772	2.0
46.787	8.0
46.802	7.0
46.817	6.0
46.832	7.0
46.847	3.0
46.861	4.0
46.876	4.0
46.891	3.0
46.906	4.0
46.921	8.0
46.936	5.0
46.95	5.0
46.965	7.0
46.98	5.0
46.995	7.0
47.01	7.0
47.025	8.0
47.039	5.0
47.054	6.0
47.069	14.0
47.084	11.0
47.099	8.0
47.113	14.0
47.128	11.0
47.143	7.0
47.158	6.0
47.173	12.0
47.188	7.0
47.202	6.0
47.217	6.0
47.232	6.0
47.247	8.0
47.262	9.0
47.277	5.0
47.291	5.0
47.306	11.0
47.321	6.0
47.336	4.0
47.351	8.0
47.365	5.0
47.38	4.0
47.395	5.0
47.41	8.0
47.425	5.0
47.44	7.0
47.454	8.0
47.469	10.0
47.484	5.0
47.499	3.0
47.514	10.0
47.528	5.0
47.543	5.0
47.558	6.0
47.573	5.0
47.588	4.0
47.603	7.0
47.617	2.0
47.632	3.0
47.647	2.0
47.662	3.0
47.677	7.0
47.691	6.0
47.706	2.0
47.721	4.0
47.736	1.0
47.751	4.0
47.766	3.0
47.78	9.0
47.795	0.0
47.81	3.0
47.825	8.0
47.84	7.0
47.855	4.0
47.869	6.0
47.884	5.0
47.899	4.0
47.914	1.0
47.929	5.0
47.944	2.0
47.958	2.0
47.973	5.0
47.988	1.0
48.003	4.0
48.018	5.0
48.033	4.0
48.047	3.0
48.062	7.0
48.077	6.0
48.092	6.0
48.107	5.0
48.122	9.0
48.137	3.0
48.151	2.0
48.166	3.0
48.181	9.0
48.196	1.0
48.211	1.0
48.226	6.0
48.241	2.0
48.255	4.0
48.27	4.0
48.285	6.0
48.3	7.0
48.315	1.0
48.33	3.0
48.345	5.0
48.359	4.0
48.374	5.0
48.389	6.0
48.404	6.0
48.419	6.0
48.434	2.0
48.449	4.0
48.464	8.0
48.478	3.0
48.493	3.0
48.508	3.0
48.523	6.0
48.538	8.0
48.553	8.0
48.568	2.0
48.583	5.0
48.597	8.0
48.612	5.0
48.627	6.0
48.642	5.0
48.657	4.0
48.672	10.0
48.687	5.0
48.702	4.0
48.717	6.0
48.731	2.0
48.746	4.0
48.761	6.0
48.776	2.0
48.791	2.0
48.806	8.0
48.821	2.0
48.836	4.0
48.851	1.0
48.866	2.0
48.88	7.0
48.895	5.0
48.91	5.0
48.925	3.0
48.94	4.0
48.955	4.0
48.97	3.0
48.985	4.0
49.0	5.0
49.015	5.0
49.03	3.0
49.044	3.0
49.059	6.0
49.074	5.0
49.089	4.0
49.104	1.0
49.119	4.0
49.134	2.0
49.149	3.0
49.164	1.0
49.179	3.0
49.194	3.0
49.209	4.0
49.224	3.0
49.238	4.0
49.253	7.0
49.268	8.0
49.283	6.0
49.298	6.0
49.313	10.0
49.328	2.0
49.343	7.0
49.358	4.0
49.373	7.0
49.388	10.0
49.403	5.0
49.418	3.0
49.433	2.0
49.448	6.0
49.463	10.0
49.478	7.0
49.492	8.0
49.507	5.0
49.522	6.0
49.537	5.0
49.552	5.0
49.567	5.0
49.582	2.0
49.597	6.0
49.612	2.0
49.627	8.0
49.642	8.0
49.657	8.0
49.672	7.0
49.687	7.0
49.702	8.0
49.717	2.0
49.732	5.0
49.747	6.0
49.762	8.0
49.777	7.0
49.792	4.0
49.807	8.0
49.822	4.0
49.837	5.0
49.852	6.0
49.867	3.0
49.882	4.0
49.897	5.0
49.912	2.0
49.927	5.0
49.942	4.0
49.957	2.0
49.971	4.0
49.986	4.0
50.001	7.0
50.016	11.0
50.031	6.0
50.046	5.0
50.061	4.0
50.076	3.0
50.091	5.0
50.106	5.0
50.121	3.0
50.136	3.0
50.151	3.0
50.166	5.0
50.181	1.0
50.196	3.0
50.211	4.0
50.226	5.0
50.241	7.0
50.256	1.0
50.271	4.0
50.286	2.0
50.302	4.0
50.317	4.0
50.332	3.0
50.347	3.0
50.362	9.0
50.377	6.0
50.392	10.0
50.407	11.0
50.422	8.0
50.437	9.0
50.452	3.0
50.467	6.0
50.482	4.0
50.497	5.0
50.512	4.0
50.527	5.0
50.542	6.0
50.557	5.0
50.572	9.0
50.587	7.0
50.602	3.0
50.617	7.0
50.632	4.0
50.647	0.0
50.662	8.0
50.677	5.0
50.692	2.0
50.707	8.0
50.722	8.0
50.737	3.0
50.752	8.0
50.767	10.0
50.782	5.0
50.797	8.0
50.812	8.0
50.828	7.0
50.843	3.0
50.858	13.0
50.873	5.0
50.888	4.0
50.903	4.0
50.918	2.0
50.933	1.0
50.948	4.0
50.963	6.0
50.978	2.0
50.993	7.0
51.008	2.0
51.023	5.0
51.038	5.0
51.053	8.0
51.068	7.0
51.083	4.0
51.098	5.0
51.114	5.0
51.129	3.0
51.144	3.0
51.159	3.0
51.174	4.0
51.189	3.0
51.204	5.0
51.219	5.0
51.234	5.0
51.249	1.0
51.264	8.0
51.279	6.0
51.294	5.0
51.309	4.0
51.324	7.0
51.34	7.0
51.355	5.0
51.37	2.0
51.385	7.0
51.4	7.0
51.415	5.0
51.43	2.0
51.445	4.0
51.46	17.0
51.475	12.0
51.49	20.0
51.505	11.0
51.52	10.0
51.535	13.0
51.551	17.0
51.566	13.0
51.581	11.0
51.596	12.0
51.611	11.0
51.626	13.0
51.641	4.0
51.656	9.0
51.671	11.0
51.686	4.0
51.701	4.0
51.716	11.0
51.732	8.0
51.747	5.0
51.762	9.0
51.777	3.0
51.792	7.0
51.807	11.0
51.822	14.0
51.837	14.0
51.852	12.0
51.867	15.0
51.882	11.0
51.898	10.0
51.913	12.0
51.928	4.0
51.943	13.0
51.958	9.0
51.973	6.0
51.988	6.0
52.003	7.0
52.018	7.0
52.033	4.0
52.048	4.0
52.064	4.0
52.079	5.0
52.094	5.0
52.109	5.0
52.124	3.0
52.139	3.0
52.154	2.0
52.169	4.0
52.184	10.0
52.199	0.0
52.215	5.0
52.23	5.0
52.245	3.0
52.26	5.0
52.275	5.0
52.29	4.0
52.305	3.0
52.32	3.0
52.335	2.0
52.35	2.0
52.366	3.0
52.381	6.0
52.396	1.0
52.411	3.0
52.426	4.0
52.441	5.0
52.456	8.0
52.471	7.0
52.486	8.0
52.502	10.0
52.517	6.0
52.532	7.0
52.547	9.0
52.562	7.0
52.577	10.0
52.592	9.0
52.607	12.0
52.622	13.0
52.637	11.0
52.653	5.0
52.668	10.0
52.683	6.0
52.698	10.0
52.713	5.0
52.728	6.0
52.743	7.0
52.758	7.0
52.774	5.0
52.789	4.0
52.804	3.0
52.819	3.0
52.834	6.0
52.849	5.0
52.864	9.0
52.879	5.0
52.894	9.0
52.91	6.0
52.925	5.0
52.94	6.0
52.955	8.0
52.97	8.0
52.985	5.0
53.0	4.0
53.015	5.0
53.031	2.0
53.046	3.0
53.061	3.0
53.076	1.0
53.091	4.0
53.106	2.0
53.121	3.0
53.136	8.0
53.152	5.0
53.167	3.0
53.182	12.0
53.197	4.0
53.212	4.0
53.227	4.0
53.242	8.0
53.257	3.0
53.273	6.0
53.288	3.0
53.303	3.0
53.318	3.0
53.333	0.0
53.348	4.0
53.363	4.0
53.379	6.0
53.394	6.0
53.409	4.0
53.424	3.0
53.439	7.0
53.454	11.0
53.469	3.0
53.484	5.0
53.5	3.0
53.515	7.0
53.53	4.0
53.545	4.0
53.56	3.0
53.575	5.0
53.59	4.0
53.606	3.0
53.621	6.0
53.636	4.0
53.651	6.0
53.666	4.0
53.681	5.0
53.696	4.0
53.712	6.0
53.727	4.0
53.742	3.0
53.757	1.0
53.772	3.0
53.787	2.0
53.802	5.0
53.818	4.0
53.833	4.0
53.848	7.0
53.863	5.0
53.878	3.0
53.893	7.0
53.909	2.0
53.924	5.0
53.939	6.0
53.954	1.0
53.969	2.0
53.984	2.0
53.999	7.0
54.015	3.0
54.03	6.0
54.045	1.0
54.06	5.0
54.075	4.0
54.09	3.0
54.106	3.0
54.121	5.0
54.136	3.0
54.151	6.0
54.166	5.0
54.181	3.0
54.197	2.0
54.212	2.0
54.227	3.0
54.242	10.0
54.257	3.0
54.272	2.0
54.288	4.0
54.303	4.0
54.318	4.0
54.333	5.0
54.348	8.0
54.363	4.0
54.379	2.0
54.394	6.0
54.409	2.0
54.424	4.0
54.439	7.0
54.454	8.0
54.47	7.0
54.485	1.0
54.5	6.0
54.515	2.0
54.53	7.0
54.545	5.0
54.561	7.0
54.576	0.0
54.591	10.0
54.606	10.0
54.621	8.0
54.636	13.0
54.652	16.0
54.667	17.0
54.682	8.0
54.697	11.0
54.712	10.0
54.727	7.0
54.743	12.0
54.758	10.0
54.773	12.0
54.788	5.0
54.803	10.0
54.819	9.0
54.834	7.0
54.849	3.0
54.864	9.0
54.879	9.0
54.894	10.0
54.91	3.0
54.925	7.0
54.94	6.0
54.955	8.0
54.97	7.0
54.985	6.0
55.001	14.0
55.016	12.0
55.031	7.0
55.046	5.0
55.061	6.0
55.077	4.0
55.092	9.0
55.107	7.0
55.122	3.0
55.137	2.0
55.152	5.0
55.168	7.0
55.183	8.0
55.198	3.0
55.213	6.0
55.228	5.0
55.243	8.0
55.259	6.0
55.274	7.0
55.289	8.0
55.304	6.0
55.319	6.0
55.335	2.0
55.35	5.0
55.365	4.0
55.38	4.0
55.395	4.0
55.41	6.0
55.426	4.0
55.441	3.0
55.456	2.0
55.471	6.0
55.486	5.0
55.501	3.0
55.517	7.0
55.532	8.0
55.547	5.0
55.562	6.0
55.577	1.0
55.592	4.0
55.608	4.0
55.623	12.0
55.638	5.0
55.653	4.0
55.668	8.0
55.683	4.0
55.699	9.0
55.714	8.0
55.729	5.0
55.744	5.0
55.759	12.0
55.774	9.0
55.79	1.0
55.805	3.0
55.82	6.0
55.835	3.0
55.85	4.0
55.865	7.0
55.881	5.0
55.896	4.0
55.911	6.0
55.926	8.0
55.941	5.0
55.956	7.0
55.972	2.0
55.987	4.0
56.002	4.0
56.017	6.0
56.032	8.0
56.047	6.0
56.063	5.0
56.078	1.0
56.093	3.0
56.108	6.0
56.123	8.0
56.138	9.0
56.154	2.0
56.169	3.0
56.184	7.0
56.199	4.0
56.214	5.0
56.229	5.0
56.244	6.0
56.26	1.0
56.275	5.0
56.29	4.0
56.305	5.0
56.32	4.0
56.335	4.0
56.351	8.0
56.366	4.0
56.381	4.0
56.396	2.0
56.411	3.0
56.426	6.0
56.441	4.0
56.457	6.0
56.472	5.0
56.487	1.0
56.502	6.0
56.517	2.0
56.532	7.0
56.547	2.0
56.563	2.0
56.578	3.0
56.593	6.0
56.608	2.0
56.623	3.0
56.638	3.0
56.653	5.0
56.668	2.0
56.684	4.0
56.699	3.0
56.714	5.0
56.729	4.0
56.744	5.0
56.759	3.0
56.774	7.0
56.79	4.0
56.805	4.0
56.82	6.0
56.835	7.0
56.85	6.0
56.865	4.0
56.88	4.0
56.895	4.0
56.911	4.0
56.926	8.0
56.941	3.0
56.956	5.0
56.971	3.0
56.986	5.0
57.001	1.0
57.016	3.0
57.031	6.0
57.047	6.0
57.062	2.0
57.077	2.0
57.092	2.0
57.107	3.0
57.122	5.0
57.137	1.0
57.152	13.0
57.167	3.0
57.183	5.0
57.198	5.0
57.213	6.0
57.228	7.0
57.243	3.0
57.258	6.0
57.273	6.0
57.288	4.0
57.303	2.0
57.318	3.0
57.334	6.0
57.349	4.0
57.364	5.0
57.379	5.0
57.394	2.0
57.409	5.0
57.424	8.0
57.439	8.0
57.454	5.0
57.469	2.0
57.484	5.0
57.5	3.0
57.515	4.0
57.53	5.0
57.545	4.0
57.56	7.0
57.575	6.0
57.59	3.0
57.605	9.0
57.62	7.0
57.635	6.0
57.65	3.0
57.665	6.0
57.68	4.0
57.696	4.0
57.711	4.0
57.726	5.0
57.741	4.0
57.756	5.0
57.771	2.0
57.786	1.0
57.801	3.0
57.816	3.0
57.831	3.0
57.846	5.0
57.861	1.0
57.876	2.0
57.891	6.0
57.906	3.0
57.921	1.0
57.937	3.0
57.952	2.0
57.967	6.0
57.982	1.0
57.997	8.0
58.012	1.0
58.027	5.0
58.042	3.0
58.057	3.0
58.072	3.0
58.087	8.0
58.102	3.0
58.117	2.0
58.132	3.0
58.147	2.0
58.162	7.0
58.177	6.0
58.192	4.0
58.207	6.0
58.222	1.0
58.237	1.0
58.252	6.0
58.267	3.0
58.282	6.0
58.297	4.0
58.312	3.0
58.327	8.0
58.342	1.0
58.357	2.0
58.372	4.0
58.387	6.0
58.402	3.0
58.418	3.0
58.433	6.0
58.448	2.0
58.463	2.0
58.478	2.0
58.493	3.0
58.508	6.0
58.523	3.0
58.538	7.0
58.553	9.0
58.568	4.0
58.583	9.0
58.598	10.0
58.613	4.0
58.628	10.0
58.643	9.0
58.658	5.0
58.673	8.0
58.688	4.0
58.703	7.0
58.718	4.0
58.733	7.0
58.748	5.0
58.763	4.0
58.778	5.0
58.793	8.0
58.808	7.0
58.823	4.0
58.838	5.0
58.853	7.0
58.868	9.0
58.883	4.0
58.898	5.0
58.913	3.0
58.928	1.0
58.942	1.0
58.957	8.0
58.972	11.0
58.987	6.0
59.002	8.0
59.017	9.0
59.032	12.0
59.047	4.0
59.062	5.0
59.077	10.0
59.092	7.0
59.107	4.0
59.122	6.0
59.137	4.0
59.152	5.0
59.167	3.0
59.182	1.0
59.197	2.0
59.212	2.0
59.227	2.0
59.242	3.0
59.257	7.0
59.272	8.0
59.287	3.0
59.302	4.0
59.317	4.0
59.332	7.0
59.347	4.0
59.362	4.0
59.377	8.0
59.392	7.0
59.407	3.0
59.422	8.0
59.437	5.0
59.452	6.0
59.467	2.0
59.482	6.0
59.497	4.0
59.512	3.0
59.527	6.0
59.542	6.0
59.557	5.0
59.572	5.0
59.587	12.0
59.602	10.0
59.617	9.0
59.632	6.0
59.647	6.0
59.661	8.0
59.676	9.0
59.691	7.0
59.706	7.0
59.721	10.0
59.736	10.0
59.751	6.0
59.766	6.0
59.781	7.0
59.796	4.0
59.811	4.0
59.826	7.0
59.841	6.0
59.856	6.0
59.871	5.0
59.886	9.0
59.901	5.0
59.916	6.0
59.931	2.0
59.946	5.0
59.961	7.0
59.976	6.0
59.991	9.0
60.006	7.0
60.021	10.0
60.036	5.0
60.051	9.0
60.066	5.0
60.081	5.0
60.096	4.0
60.111	12.0
60.126	9.0
60.141	4.0
60.156	4.0
60.171	5.0
60.186	2.0
60.201	4.0
60.216	4.0
60.231	2.0
60.246	4.0
60.261	1.0
60.276	5.0
60.291	0.0
60.306	3.0
60.321	2.0
60.336	2.0
60.35	2.0
60.365	1.0
60.38	6.0
60.395	2.0
60.41	7.0
60.425	3.0
60.44	8.0
60.455	4.0
60.47	8.0
60.485	4.0
60.5	6.0
60.515	9.0
60.53	8.0
60.545	6.0
60.56	5.0
60.575	8.0
60.59	11.0
60.605	6.0
60.62	11.0
60.635	6.0
60.65	5.0
60.665	4.0
60.68	1.0
60.695	5.0
60.71	5.0
60.725	2.0
60.74	4.0
60.755	2.0
60.77	1.0
60.785	7.0
60.8	4.0
60.815	7.0
60.83	1.0
60.845	0.0
60.86	6.0
60.875	3.0
60.89	3.0
60.905	9.0
60.92	3.0
60.935	1.0
60.95	4.0
60.965	4.0
60.98	3.0
60.995	8.0
61.01	13.0
61.025	4.0
61.04	9.0
61.055	5.0
61.07	2.0
61.085	7.0
61.1	4.0
61.115	7.0
61.13	3.0
61.145	6.0
61.16	2.0
61.175	2.0
61.191	1.0
61.206	6.0
61.221	5.0
61.236	4.0
61.251	3.0
61.266	3.0
61.281	6.0
61.296	6.0
61.311	1.0
61.326	3.0
61.341	3.0
61.356	2.0
61.371	4.0
61.386	5.0
61.401	6.0
61.416	4.0
61.431	7.0
61.446	2.0
61.461	4.0
61.476	5.0
61.491	3.0
61.506	3.0
61.521	3.0
61.536	6.0
61.551	7.0
61.566	9.0
61.581	5.0
61.596	3.0
61.611	5.0
61.626	2.0
61.641	4.0
61.656	6.0
61.672	6.0
61.687	2.0
61.702	4.0
61.717	0.0
61.732	5.0
61.747	3.0
61.762	0.0
61.777	5.0
61.792	3.0
61.807	2.0
61.822	3.0
61.837	4.0
61.852	5.0
61.867	5.0
61.882	6.0
61.897	5.0
61.912	5.0
61.927	5.0
61.943	4.0
61.958	5.0
61.973	5.0
61.988	1.0
62.003	1.0
62.018	4.0
62.033	4.0
62.048	2.0
62.063	6.0
62.078	5.0
62.093	7.0
62.108	4.0
62.123	5.0
62.138	3.0
62.153	4.0
62.169	1.0
62.184	4.0
62.199	6.0
62.214	5.0
62.229	3.0
62.244	5.0
62.259	4.0
62.274	5.0
62.289	5.0
62.304	4.0
62.319	8.0
62.335	3.0
62.35	4.0
62.365	2.0
62.38	7.0
62.395	3.0
62.41	4.0
62.425	6.0
62.44	4.0
62.455	2.0
62.47	9.0
62.485	5.0
62.501	4.0
62.516	5.0
62.531	6.0
62.546	6.0
62.561	7.0
62.576	5.0
62.591	9.0
62.606	3.0
62.621	5.0
62.636	5.0
62.652	5.0
62.667	4.0
62.682	4.0
62.697	7.0
62.712	5.0
62.727	1.0
62.742	1.0
62.757	3.0
62.772	3.0
62.787	3.0
62.803	3.0
62.818	7.0
62.833	1.0
62.848	5.0
62.863	5.0
62.878	5.0
62.893	2.0
62.908	6.0
62.923	4.0
62.939	1.0
62.954	3.0
62.969	6.0
62.984	9.0
62.999	2.0
63.014	1.0
63.029	1.0
63.044	4.0
63.059	3.0
63.074	6.0
63.09	1.0
63.105	6.0
63.12	3.0
63.135	6.0
63.15	1.0
63.165	4.0
63.18	1.0
63.195	2.0
63.21	3.0
63.226	3.0
63.241	6.0
63.256	3.0
63.271	4.0
63.286	4.0
63.301	2.0
63.316	3.0
63.331	8.0
63.346	5.0
63.362	7.0
63.377	9.0
63.392	10.0
63.407	6.0
63.422	7.0
63.437	4.0
63.452	8.0
63.467	7.0
63.482	5.0
63.497	3.0
63.513	5.0
63.528	1.0
63.543	5.0
63.558	2.0
63.573	4.0
63.588	4.0
63.603	4.0
63.618	8.0
63.633	4.0
63.648	3.0
63.664	0.0
63.679	4.0
63.694	5.0
63.709	2.0
63.724	5.0
63.739	3.0
63.754	3.0
63.769	3.0
63.784	3.0
63.799	3.0
63.814	4.0
63.83	5.0
63.845	7.0
63.86	6.0
63.875	5.0
63.89	8.0
63.905	5.0
63.92	6.0
63.935	6.0
63.95	2.0
63.965	2.0
63.98	2.0
63.996	2.0
64.011	4.0
64.026	0.0
64.041	5.0
64.056	6.0
64.071	1.0
64.086	7.0
64.101	3.0
64.116	3.0
64.131	4.0
64.146	8.0
64.161	3.0
64.176	3.0
64.191	5.0
64.207	3.0
64.222	4.0
64.237	2.0
64.252	3.0
64.267	4.0
64.282	6.0
64.297	2.0
64.312	4.0
64.327	3.0
64.342	8.0
64.357	5.0
64.372	5.0
64.387	3.0
64.402	3.0
64.417	2.0
64.433	3.0
64.448	3.0
64.463	4.0
64.478	4.0
64.493	5.0
64.508	3.0
64.523	3.0
64.538	2.0
64.553	2.0
64.568	5.0
64.583	7.0
64.598	3.0
64.613	7.0
64.628	1.0
64.643	4.0
64.658	1.0
64.673	2.0
64.688	10.0
64.703	2.0
64.718	1.0
64.734	7.0
64.749	1.0
64.764	7.0
64.779	4.0
64.794	2.0
64.809	3.0
64.824	2.0
64.839	5.0
64.854	3.0
64.869	6.0
64.884	3.0
64.899	6.0
64.914	7.0
64.929	3.0
64.944	3.0
64.959	3.0
64.974	5.0
64.989	3.0
65.004	4.0
65.019	1.0
65.034	6.0
65.049	3.0
65.064	4.0
65.079	5.0
65.094	1.0
65.109	5.0
65.125	8.0
65.14	5.0
65.155	6.0
65.17	3.0
65.185	2.0
65.2	5.0
65.215	3.0
65.23	6.0
65.245	5.0
65.26	4.0
65.275	3.0
65.29	8.0
65.305	5.0
65.32	2.0
65.335	7.0
65.35	2.0
65.365	6.0
65.38	2.0
65.395	5.0
65.41	4.0
65.425	4.0
65.44	5.0
65.455	2.0
65.47	2.0
65.485	3.0
65.5	4.0
65.515	5.0
65.53	3.0
65.545	4.0
65.56	2.0
65.575	4.0
65.59	6.0
65.605	4.0
65.62	4.0
65.635	3.0
65.65	5.0
65.666	5.0
65.681	5.0
65.696	7.0
65.711	4.0
65.726	6.0
65.741	6.0
65.756	7.0
65.771	5.0
65.786	7.0
65.801	6.0
65.816	3.0
65.831	5.0
65.846	3.0
65.861	3.0
65.876	5.0
65.891	4.0
65.906	2.0
65.921	6.0
65.936	5.0
65.951	6.0
65.966	3.0
65.981	3.0
65.996	3.0
66.011	6.0
66.026	2.0
66.041	5.0
66.056	3.0
66.071	5.0
66.086	5.0
66.101	4.0
66.116	6.0
66.131	8.0
66.146	4.0
66.161	8.0
66.176	10.0
66.191	5.0
66.206	8.0
66.221	9.0
66.236	12.0
66.251	5.0
66.266	5.0
66.281	8.0
66.296	2.0
66.311	5.0
66.327	7.0
66.342	2.0
66.357	1.0
66.372	5.0
66.387	1.0
66.402	2.0
66.417	8.0
66.432	5.0
66.447	4.0
66.462	4.0
66.477	2.0
66.492	2.0
66.507	4.0
66.522	4.0
66.537	3.0
66.552	4.0
66.567	4.0
66.582	4.0
66.597	4.0
66.612	4.0
66.627	5.0
66.642	6.0
66.657	1.0
66.672	5.0
66.687	5.0
66.702	8.0
66.717	6.0
66.732	7.0
66.747	3.0
66.762	5.0
66.777	4.0
66.792	4.0
66.807	4.0
66.822	3.0
66.837	1.0
66.853	2.0
66.868	4.0
66.883	3.0
66.898	3.0
66.913	4.0
66.928	4.0
66.943	5.0
66.958	5.0
66.973	7.0
66.988	3.0
67.003	4.0
67.018	2.0
67.033	5.0
67.048	6.0
67.063	7.0
67.078	9.0
67.093	4.0
67.108	6.0
67.123	5.0
67.138	2.0
67.153	4.0
67.168	3.0
67.183	4.0
67.198	1.0
67.214	4.0
67.229	6.0
67.244	8.0
67.259	4.0
67.274	4.0
67.289	3.0
67.304	2.0
67.319	4.0
67.334	1.0
67.349	6.0
67.364	2.0
67.379	2.0
67.394	4.0
67.409	1.0
67.424	3.0
67.439	5.0
67.454	2.0
67.469	4.0
67.484	3.0
67.5	2.0
67.515	6.0
67.53	1.0
67.545	5.0
67.56	7.0
67.575	3.0
67.59	4.0
67.605	1.0
67.62	1.0
67.635	3.0
67.65	4.0
67.665	4.0
67.68	2.0
67.695	3.0
67.71	5.0
67.726	6.0
67.741	2.0
67.756	2.0
67.771	5.0
67.786	2.0
67.801	2.0
67.816	11.0
67.831	2.0
67.846	5.0
67.861	2.0
67.876	3.0
67.891	6.0
67.906	2.0
67.922	6.0
67.937	3.0
67.952	4.0
67.967	2.0
67.982	0.0
67.997	5.0
68.012	6.0
68.027	4.0
68.042	2.0
68.057	7.0
68.072	3.0
68.087	4.0
68.103	5.0
68.118	4.0
68.133	4.0
68.148	4.0
68.163	2.0
68.178	2.0
68.193	7.0
68.208	2.0
68.223	7.0
68.238	0.0
68.254	2.0
68.269	3.0
68.284	4.0
68.299	5.0
68.314	3.0
68.329	5.0
68.344	9.0
68.359	5.0
68.374	1.0
68.389	3.0
68.405	2.0
68.42	4.0
68.435	4.0
68.45	8.0
68.465	4.0
68.48	2.0
68.495	9.0
68.51	2.0
68.525	1.0
68.54	1.0
68.556	3.0
68.571	5.0
68.586	2.0
68.601	4.0
68.616	5.0
68.631	4.0
68.646	2.0
68.661	3.0
68.676	6.0
68.691	5.0
68.707	1.0
68.722	1.0
68.737	5.0
68.752	1.0
68.767	7.0
68.782	2.0
68.797	2.0
68.812	6.0
68.827	4.0
68.842	2.0
68.857	5.0
68.873	5.0
68.888	3.0
68.903	6.0
68.918	2.0
68.933	2.0
68.948	3.0
68.963	3.0
68.978	2.0
68.993	2.0
69.008	5.0
69.023	1.0
69.038	3.0
69.054	6.0
69.069	3.0
69.084	3.0
69.099	4.0
69.114	4.0
69.129	6.0
69.144	3.0
69.159	6.0
69.174	3.0
69.189	1.0
69.204	6.0
69.219	1.0
69.234	10.0
69.249	6.0
69.264	2.0
69.279	2.0
69.295	1.0
69.31	3.0
69.325	3.0
69.34	1.0
69.355	3.0
69.37	1.0
69.385	3.0
69.4	2.0
69.415	5.0
69.43	2.0
69.445	7.0
69.46	0.0
69.475	2.0
69.49	4.0
69.505	0.0
69.52	5.0
69.535	6.0
69.55	6.0
69.565	2.0
69.58	4.0
69.595	4.0
69.61	3.0
69.625	4.0
69.64	6.0
69.655	3.0
69.67	4.0
69.685	6.0
69.7	7.0
69.715	5.0
69.73	3.0
69.745	2.0
69.76	2.0
69.775	5.0
69.79	6.0
69.805	8.0
69.82	4.0
69.835	8.0
69.85	8.0
69.865	1.0
69.88	6.0
69.895	5.0
69.909	3.0
69.924	4.0
69.939	5.0
69.954	5.0
69.969	2.0
69.984	3.0
69.999	6.0
70.014	4.0
70.029	4.0
70.044	2.0
70.059	4.0
70.074	4.0
70.088	3.0
70.103	1.0
70.118	2.0
70.133	1.0
70.148	1.0
70.163	1.0
70.178	4.0
70.193	2.0
70.208	9.0
70.222	4.0
70.237	6.0
70.252	6.0
70.267	3.0
70.282	4.0
70.297	3.0
70.312	2.0
70.327	4.0
70.341	2.0
70.356	4.0
70.371	2.0
70.386	2.0
70.401	3.0
70.416	1.0
70.43	2.0
70.445	4.0
70.46	2.0
70.475	2.0
70.49	4.0
70.505	0.0
70.519	5.0
70.534	7.0
70.549	3.0
70.564	4.0
70.579	1.0
70.594	4.0
70.608	7.0
70.623	1.0
70.638	9.0
70.653	5.0
70.668	7.0
70.683	1.0
70.697	4.0
70.712	6.0
70.727	4.0
70.742	8.0
70.757	9.0
70.771	5.0
70.786	3.0
70.801	2.0
70.816	3.0
70.831	4.0
70.845	2.0
70.86	6.0
70.875	4.0
70.89	4.0
70.905	3.0
70.92	2.0
70.934	4.0
70.949	4.0
70.964	4.0
70.979	5.0
70.994	7.0
71.008	4.0
71.023	5.0
71.038	4.0
71.053	2.0
71.068	2.0
71.082	5.0
71.097	6.0
71.112	5.0
71.127	3.0
71.142	4.0
71.156	7.0
71.171	1.0
71.186	7.0
71.201	0.0
71.216	5.0
71.231	3.0
71.245	6.0
71.26	0.0
71.275	1.0
71.29	7.0
71.305	2.0
71.319	4.0
71.334	2.0
71.349	3.0
71.364	5.0
71.379	1.0
71.394	0.0
71.408	5.0
71.423	3.0
71.438	3.0
71.453	1.0
71.468	6.0
71.483	6.0
71.497	5.0
71.512	7.0
71.527	3.0
71.542	6.0
71.557	2.0
71.572	3.0
71.586	3.0
71.601	4.0
71.616	0.0
71.631	3.0
71.646	3.0
71.661	1.0
71.676	0.0
71.69	3.0
71.705	5.0
71.72	3.0
71.735	2.0
71.75	6.0
71.765	5.0
71.78	3.0
71.795	1.0
71.81	3.0
71.824	5.0
71.839	6.0
71.854	3.0
71.869	2.0
71.884	2.0
71.899	2.0
71.914	2.0
71.929	4.0
71.944	2.0
71.959	5.0
71.974	3.0
71.988	1.0
72.003	5.0
72.018	2.0
72.033	2.0
72.048	2.0
72.063	1.0
72.078	4.0
72.093	7.0
72.108	3.0
72.123	3.0
72.138	4.0
72.153	0.0
72.168	2.0
72.183	4.0
72.198	5.0
72.213	7.0
72.228	6.0
72.243	1.0
72.258	4.0
72.273	2.0
72.288	2.0
72.303	3.0
72.318	6.0
72.333	4.0
72.348	6.0
72.363	4.0
72.378	2.0
72.393	6.0
72.408	5.0
72.423	6.0
72.438	5.0
72.453	4.0
72.468	1.0
72.483	4.0
72.498	4.0
72.513	4.0
72.528	1.0
72.543	0.0
72.558	3.0
72.573	2.0
72.588	2.0
72.603	3.0
72.618	4.0
72.633	3.0
72.649	4.0
72.664	3.0
72.679	4.0
72.694	2.0
72.709	1.0
72.724	4.0
72.739	1.0
72.754	3.0
72.769	6.0
72.784	2.0
72.799	6.0
72.814	3.0
72.829	4.0
72.845	4.0
72.86	1.0
72.875	4.0
72.89	2.0
72.905	1.0
72.92	1.0
72.935	3.0
72.95	5.0
72.965	3.0
72.98	3.0
72.996	2.0
73.011	6.0
73.026	5.0
73.041	1.0
73.056	3.0
73.071	5.0
73.086	3.0
73.101	2.0
73.117	4.0
73.132	2.0
73.147	4.0
73.162	3.0
73.177	2.0
73.192	3.0
73.207	4.0
73.222	3.0
73.238	5.0
73.253	2.0
73.268	2.0
73.283	5.0
73.298	2.0
73.313	3.0
73.328	3.0
73.343	6.0
73.359	5.0
73.374	2.0
73.389	4.0
73.404	5.0
73.419	3.0
73.434	6.0
73.449	2.0
73.465	2.0
73.48	2.0
73.495	4.0
73.51	2.0
73.525	2.0
73.54	1.0
73.556	1.0
73.571	2.0
73.586	4.0
73.601	1.0
73.616	4.0
73.631	2.0
73.646	5.0
73.662	7.0
73.677	2.0
73.692	5.0
73.707	6.0
73.722	3.0
73.737	1.0
73.752	1.0
73.768	6.0
73.783	0.0
73.798	1.0
73.813	5.0
73.828	6.0
73.843	2.0
73.859	4.0
73.874	4.0
73.889	3.0
73.904	4.0
73.919	9.0
73.934	6.0
73.949	3.0
73.965	2.0
73.98	7.0
73.995	3.0
74.01	6.0
74.025	5.0
74.04	1.0
74.056	2.0
74.071	7.0
74.086	3.0
74.101	2.0
74.116	3.0
74.131	7.0
74.146	2.0
74.162	4.0
74.177	9.0
74.192	9.0
74.207	8.0
74.222	3.0
74.237	7.0
74.252	1.0
74.268	3.0
74.283	4.0
74.298	2.0
74.313	4.0
74.328	1.0
74.343	5.0
74.358	4.0
74.374	2.0
74.389	5.0
74.404	3.0
74.419	6.0
74.434	2.0
74.449	4.0
74.464	4.0
74.48	2.0
74.495	2.0
74.51	4.0
74.525	2.0
74.54	4.0
74.555	1.0
74.57	6.0
74.586	4.0
74.601	3.0
74.616	2.0
74.631	5.0
74.646	4.0
74.661	3.0
74.676	4.0
74.691	5.0
74.707	5.0
74.722	4.0
74.737	3.0
74.752	3.0
74.767	5.0
74.782	2.0
74.797	5.0
74.813	7.0
74.828	5.0
74.843	2.0
74.858	3.0
74.873	4.0
74.888	4.0
74.903	2.0
74.918	4.0
74.934	2.0
74.949	2.0
74.964	0.0
74.979	2.0
74.994	4.0
75.009	2.0
75.024	6.0
75.04	5.0
75.055	3.0
75.07	3.0
75.085	3.0
75.1	3.0
75.115	3.0
75.13	1.0
75.145	2.0
75.161	5.0
75.176	3.0
75.191	4.0
75.206	2.0
75.221	3.0
75.236	5.0
75.251	4.0
75.266	1.0
75.282	3.0
75.297	0.0
75.312	4.0
75.327	2.0
75.342	2.0
75.357	3.0
75.372	0.0
75.387	1.0
75.403	2.0
75.418	2.0
75.433	1.0
75.448	4.0
75.463	2.0
75.478	3.0
75.493	3.0
75.509	1.0
75.524	5.0
75.539	2.0
75.554	2.0
75.569	2.0
75.584	4.0
75.599	5.0
75.614	2.0
75.63	0.0
75.645	1.0
75.66	8.0
75.675	3.0
75.69	3.0
75.705	2.0
75.72	6.0
75.735	2.0
75.751	3.0
75.766	3.0
75.781	2.0
75.796	3.0
75.811	1.0
75.826	2.0
75.841	7.0
75.856	7.0
75.872	3.0
75.887	2.0
75.902	5.0
75.917	3.0
75.932	7.0
75.947	1.0
75.962	4.0
75.977	3.0
75.993	0.0
76.008	3.0
76.023	1.0
76.038	2.0
76.053	4.0
76.068	5.0
76.083	1.0
76.098	2.0
76.114	1.0
76.129	2.0
76.144	5.0
76.159	3.0
76.174	4.0
76.189	4.0
76.204	0.0
76.22	5.0
76.235	1.0
76.25	2.0
76.265	2.0
76.28	6.0
76.295	2.0
76.31	6.0
76.325	2.0
76.341	5.0
76.356	1.0
76.371	5.0
76.386	3.0
76.401	3.0
76.416	4.0
76.431	4.0
76.446	2.0
76.462	4.0
76.477	1.0
76.492	2.0
76.507	3.0
76.522	5.0
76.537	3.0
76.552	7.0
76.567	2.0
76.583	0.0
76.598	4.0
76.613	3.0
76.628	3.0
76.643	3.0
76.658	7.0
76.673	7.0
76.688	4.0
76.704	4.0
76.719	2.0
76.734	3.0
76.749	8.0
76.764	1.0
76.779	5.0
76.794	4.0
76.809	6.0
76.824	7.0
76.84	4.0
76.855	7.0
76.87	5.0
76.885	4.0
76.9	2.0
76.915	1.0
76.93	1.0
76.945	5.0
76.96	5.0
76.976	1.0
76.991	1.0
77.006	6.0
77.021	3.0
77.036	2.0
77.051	4.0
77.066	3.0
77.081	0.0
77.096	6.0
77.112	5.0
77.127	0.0
77.142	2.0
77.157	0.0
77.172	2.0
77.187	4.0
77.202	5.0
77.217	3.0
77.232	3.0
77.247	4.0
77.263	1.0
77.278	2.0
77.293	4.0
77.308	2.0
77.323	4.0
77.338	6.0
77.353	5.0
77.368	2.0
77.383	0.0
77.398	4.0
77.413	3.0
77.428	6.0
77.444	4.0
77.459	0.0
77.474	2.0
77.489	7.0
77.504	3.0
77.519	2.0
77.534	4.0
77.549	4.0
77.564	6.0
77.579	5.0
77.594	2.0
77.609	3.0
77.624	2.0
77.64	8.0
77.655	2.0
77.67	8.0
77.685	4.0
77.7	3.0
77.715	4.0
77.73	2.0
77.745	3.0
77.76	2.0
77.775	4.0
77.79	6.0
77.805	4.0
77.82	3.0
77.835	0.0
77.85	2.0
77.865	3.0
77.88	4.0
77.895	3.0
77.91	4.0
77.926	0.0
77.941	1.0
77.956	5.0
77.971	4.0
77.986	3.0
78.001	3.0
78.016	8.0
78.031	5.0
78.046	3.0
78.061	0.0
78.076	4.0
78.091	3.0
78.106	4.0
78.121	1.0
78.136	3.0
78.151	8.0
78.166	3.0
78.181	6.0
78.196	6.0
78.211	0.0
78.226	5.0
78.241	4.0
78.256	3.0
78.271	2.0
78.286	5.0
78.301	5.0
78.316	1.0
78.331	3.0
78.346	2.0
78.361	3.0
78.376	3.0
78.391	4.0
78.406	3.0
78.421	3.0
78.436	3.0
78.451	3.0
78.466	10.0
78.481	6.0
78.496	4.0
78.511	2.0
78.526	2.0
78.541	4.0
78.556	7.0
78.571	1.0
78.586	4.0
78.601	3.0
78.616	0.0
78.631	1.0
78.646	2.0
78.661	4.0
78.676	0.0
78.691	5.0
78.706	7.0
78.721	2.0
78.736	3.0
78.751	1.0
78.766	5.0
78.781	2.0
78.796	1.0
78.811	3.0
78.826	0.0
78.841	3.0
78.856	3.0
78.871	0.0
78.885	3.0
78.9	5.0
78.915	1.0
78.93	1.0
78.945	4.0
78.96	3.0
78.975	3.0
78.99	1.0
79.005	1.0
79.02	1.0
79.035	1.0
79.05	1.0
79.065	2.0
79.08	6.0
79.095	3.0
79.11	3.0
79.125	1.0
79.14	4.0
79.155	5.0
79.17	7.0
79.185	2.0
79.2	4.0
79.215	1.0
79.23	1.0
79.245	5.0
79.26	6.0
79.275	2.0
79.29	4.0
79.304	4.0
79.319	3.0
79.334	0.0
79.349	2.0
79.364	2.0
79.379	6.0
79.394	3.0
79.409	4.0
79.424	3.0
79.439	9.0
79.454	3.0
79.469	2.0
79.484	3.0
79.499	5.0
79.514	3.0
79.529	2.0
79.544	0.0
79.559	5.0
79.574	2.0
79.589	2.0
79.604	3.0
79.619	1.0
79.634	4.0
79.649	1.0
79.664	2.0
79.679	5.0
79.693	2.0
79.708	3.0
79.723	7.0
79.738	4.0
79.753	3.0
79.768	5.0
79.783	3.0
79.798	0.0
79.813	3.0
79.828	3.0
79.843	5.0
79.858	5.0
79.873	4.0
79.888	3.0
79.903	4.0
79.918	3.0
79.933	3.0
79.948	5.0
79.963	1.0
79.978	4.0
79.993	1.0
80.008	3.0
80.023	3.0
80.038	4.0
80.053	0.0
80.068	1.0
80.083	1.0
80.098	3.0
80.113	2.0
80.128	6.0
80.143	6.0
80.158	3.0
80.173	10.0
80.188	2.0
80.202	2.0
80.217	3.0
80.232	6.0
80.247	6.0
80.262	2.0
80.277	4.0
80.292	5.0
80.307	5.0
80.322	5.0
80.337	0.0
80.352	2.0
80.367	5.0
80.382	0.0
80.397	3.0
80.412	4.0
80.427	1.0
80.442	3.0
80.457	4.0
80.472	4.0
80.487	4.0
80.502	5.0
80.517	5.0
80.532	2.0
80.547	2.0
80.562	2.0
80.577	5.0
80.592	4.0
80.607	6.0
80.622	4.0
80.637	2.0
80.652	1.0
80.667	5.0
80.682	2.0
80.697	2.0
80.712	1.0
80.727	3.0
80.742	6.0
80.757	3.0
80.772	3.0
80.787	2.0
80.802	5.0
80.817	2.0
80.832	2.0
80.847	3.0
80.862	3.0
80.877	2.0
80.892	4.0
80.907	2.0
80.922	3.0
80.937	3.0
80.952	3.0
80.967	1.0
80.982	4.0
80.997	3.0
81.012	4.0
81.027	3.0
81.042	2.0
81.057	4.0
81.072	2.0
81.087	7.0
81.101	0.0
81.116	3.0
81.131	2.0
81.146	2.0
81.161	2.0
81.176	4.0
81.191	2.0
81.206	1.0
81.221	1.0
81.236	9.0
81.251	0.0
81.266	7.0
81.281	4.0
81.296	1.0
81.311	4.0
81.326	2.0
81.341	2.0
81.356	1.0
81.371	4.0
81.386	5.0
81.401	2.0
81.416	7.0
81.431	5.0
81.446	2.0
81.461	2.0
81.476	0.0
81.491	1.0
81.506	1.0
81.521	2.0
81.536	5.0
81.55	1.0
81.565	1.0
81.58	1.0
81.595	3.0
81.61	3.0
81.625	7.0
81.64	5.0
81.655	2.0
81.67	2.0
81.685	2.0
81.7	4.0
81.715	1.0
81.73	6.0
81.745	1.0
81.76	4.0
81.775	5.0
81.79	0.0
81.805	4.0
81.819	1.0
81.834	5.0
81.849	1.0
81.864	7.0
81.879	3.0
81.894	5.0
81.909	2.0
81.924	2.0
81.939	6.0
81.954	2.0
81.969	3.0
81.984	4.0
81.999	1.0
82.013	5.0
82.028	1.0
82.043	2.0
82.058	3.0
82.073	5.0
82.088	3.0
82.103	1.0
82.118	4.0
82.133	3.0
82.148	3.0
82.163	3.0
82.177	4.0
82.192	5.0
82.207	3.0
82.222	1.0
82.237	1.0
82.252	0.0
82.267	3.0
82.282	2.0
82.297	1.0
82.312	0.0
82.326	5.0
82.341	3.0
82.356	6.0
82.371	4.0
82.386	2.0
82.401	3.0
82.416	6.0
82.431	1.0
82.445	3.0
82.46	1.0
82.475	4.0
82.49	3.0
82.505	4.0
82.52	3.0
82.535	1.0
82.55	1.0
82.565	4.0
82.579	2.0
82.594	4.0
82.609	7.0
82.624	5.0
82.639	10.0
82.654	0.0
82.669	6.0
82.684	3.0
82.698	4.0
82.713	0.0
82.728	3.0
82.743	6.0
82.758	5.0
82.773	3.0
82.788	0.0
82.803	1.0
82.817	4.0
82.832	3.0
82.847	3.0
82.862	3.0
82.877	3.0
82.892	4.0
82.907	1.0
82.922	3.0
82.937	4.0
82.951	1.0
82.966	4.0
82.981	2.0
82.996	0.0
83.011	2.0
83.026	3.0
83.041	3.0
83.056	1.0
83.07	2.0
83.085	4.0
83.1	4.0
83.115	1.0
83.13	7.0
83.145	2.0
83.16	3.0
83.175	4.0
83.19	1.0
83.204	6.0
83.219	0.0
83.234	4.0
83.249	3.0
83.264	5.0
83.279	1.0
83.294	1.0
83.309	1.0
83.324	1.0
83.339	1.0
83.353	3.0
83.368	4.0
83.383	2.0
83.398	3.0
83.413	2.0
83.428	6.0
83.443	2.0
83.458	3.0
83.473	2.0
83.488	4.0
83.503	4.0
83.517	5.0
83.532	1.0
83.547	4.0
83.562	6.0
83.577	2.0
83.592	4.0
83.607	4.0
83.622	4.0
83.637	1.0
83.652	3.0
83.667	2.0
83.682	5.0
83.697	3.0
83.712	1.0
83.727	3.0
83.741	4.0
83.756	2.0
83.771	3.0
83.786	3.0
83.801	3.0
83.816	1.0
83.831	1.0
83.846	3.0
83.861	4.0
83.876	4.0
83.891	2.0
83.906	1.0
83.921	1.0
83.936	0.0
83.951	5.0
83.966	4.0
83.981	2.0
83.996	7.0
84.011	1.0
84.026	3.0
84.041	0.0
84.056	3.0
84.071	4.0
84.086	3.0
84.101	5.0
84.116	2.0
84.131	4.0
84.146	3.0
84.161	4.0
84.176	4.0
84.191	6.0
84.206	4.0
84.221	1.0
84.236	1.0
84.251	2.0
84.266	3.0
84.281	4.0
84.296	0.0
84.311	5.0
84.326	1.0
84.341	6.0
84.356	5.0
84.371	5.0
84.386	5.0
84.401	7.0
84.416	3.0
84.431	6.0
84.446	0.0
84.461	4.0
84.476	7.0
84.492	4.0
84.507	3.0
84.522	5.0
84.537	2.0
84.552	2.0
84.567	1.0
84.582	3.0
84.597	3.0
84.612	5.0
84.627	0.0
84.642	2.0
84.657	2.0
84.672	3.0
84.687	3.0
84.702	3.0
84.717	1.0
84.733	3.0
84.748	2.0
84.763	2.0
84.778	1.0
84.793	4.0
84.808	6.0
84.823	2.0
84.838	2.0
84.853	2.0
84.868	5.0
84.883	1.0
84.898	3.0
84.913	2.0
84.929	4.0
84.944	3.0
84.959	6.0
84.974	1.0
84.989	2.0
85.004	5.0
85.019	5.0
85.034	3.0
85.049	4.0
85.064	2.0
85.079	3.0
85.094	7.0
85.11	4.0
85.125	5.0
85.14	2.0
85.155	2.0
85.17	2.0
85.185	2.0
85.2	5.0
85.215	5.0
85.23	2.0
85.245	1.0
85.26	4.0
85.276	6.0
85.291	4.0
85.306	1.0
85.321	2.0
85.336	5.0
85.351	3.0
85.366	3.0
85.381	2.0
85.396	4.0
85.411	3.0
85.426	0.0
85.441	2.0
85.457	3.0
85.472	2.0
85.487	3.0
85.502	4.0
85.517	2.0
85.532	1.0
85.547	2.0
85.562	5.0
85.577	2.0
85.592	4.0
85.607	2.0
85.622	1.0
85.637	3.0
85.653	4.0
85.668	1.0
85.683	2.0
85.698	3.0
85.713	2.0
85.728	6.0
85.743	2.0
85.758	2.0
85.773	3.0
85.788	2.0
85.803	4.0
85.818	5.0
85.833	1.0
85.848	2.0
85.863	3.0
85.879	0.0
85.894	5.0
85.909	3.0
85.924	3.0
85.939	3.0
85.954	0.0
85.969	2.0
85.984	0.0
85.999	4.0
86.014	2.0
86.029	1.0
86.044	2.0
86.059	0.0
86.074	3.0
86.089	4.0
86.104	6.0
86.119	3.0
86.134	4.0
86.149	5.0
86.164	0.0
86.179	6.0
86.194	2.0
86.209	4.0
86.224	3.0
86.239	2.0
86.254	2.0
86.269	2.0
86.284	4.0
86.299	1.0
86.314	3.0
86.33	4.0
86.345	4.0
86.36	3.0
86.375	1.0
86.39	4.0
86.405	3.0
86.42	2.0
86.435	4.0
86.45	6.0
86.465	4.0
86.48	4.0
86.495	4.0
86.51	3.0
86.525	0.0
86.54	2.0
86.555	4.0
86.57	2.0
86.585	4.0
86.6	0.0
86.615	3.0
86.63	2.0
86.645	3.0
86.659	1.0
86.674	6.0
86.689	5.0
86.704	2.0
86.719	5.0
86.734	3.0
86.749	4.0
86.764	4.0
86.779	2.0
86.794	2.0
86.809	5.0
86.824	5.0
86.839	5.0
86.854	2.0
86.869	4.0
86.884	3.0
86.899	7.0
86.914	1.0
86.929	4.0
86.944	1.0
86.959	5.0
86.974	3.0
86.989	4.0
87.004	4.0
87.019	4.0
87.034	3.0
87.049	2.0
87.064	1.0
87.079	2.0
87.094	3.0
87.109	2.0
87.124	4.0
87.139	3.0
87.154	1.0
87.169	1.0
87.184	4.0
87.199	2.0
87.214	6.0
87.229	1.0
87.244	2.0
87.259	6.0
87.274	3.0
87.289	4.0
87.304	2.0
87.319	3.0
87.334	2.0
87.349	4.0
87.364	1.0
87.379	3.0
87.394	7.0
87.409	4.0
87.424	2.0
87.438	1.0
87.453	3.0
87.468	3.0
87.483	4.0
87.498	3.0
87.513	3.0
87.528	4.0
87.543	2.0
87.558	3.0
87.573	3.0
87.588	2.0
87.603	3.0
87.618	2.0
87.633	5.0
87.648	4.0
87.663	4.0
87.678	7.0
87.693	6.0
87.708	3.0
87.723	3.0
87.738	4.0
87.753	4.0
87.768	11.0
87.783	3.0
87.798	3.0
87.813	3.0
87.828	1.0
87.843	6.0
87.858	3.0
87.873	5.0
87.888	1.0
87.903	3.0
87.918	1.0
87.933	3.0
87.948	3.0
87.963	2.0
87.978	2.0
87.993	2.0
88.008	3.0
88.023	1.0
88.038	3.0
88.053	3.0
88.068	2.0
88.083	2.0
88.098	2.0
88.113	1.0
88.128	1.0
88.143	2.0
88.158	1.0
88.174	3.0
88.189	5.0
88.204	2.0
88.219	1.0
88.234	1.0
88.249	2.0
88.264	2.0
88.279	5.0
88.294	4.0
88.309	6.0
88.324	6.0
88.339	4.0
88.354	1.0
88.369	4.0
88.384	3.0
88.399	2.0
88.414	2.0
88.429	4.0
88.444	5.0
88.459	3.0
88.474	4.0
88.489	4.0
88.504	3.0
88.519	1.0
88.534	1.0
88.549	3.0
88.564	4.0
88.58	4.0
88.595	0.0
88.61	1.0
88.625	4.0
88.64	2.0
88.655	3.0
88.67	3.0
88.685	7.0
88.7	2.0
88.715	2.0
88.73	9.0
88.745	2.0
88.76	5.0
88.775	1.0
88.79	3.0
88.805	2.0
88.82	6.0
88.835	1.0
88.85	4.0
88.865	5.0
88.88	3.0
88.895	2.0
88.911	0.0
88.926	2.0
88.941	4.0
88.956	3.0
88.971	5.0
88.986	3.0
89.001	7.0
89.016	1.0
89.031	3.0
89.046	2.0
89.061	5.0
89.076	1.0
89.091	4.0
89.106	4.0
89.121	5.0
89.136	3.0
89.151	4.0
89.166	4.0
89.181	3.0
89.196	5.0
89.211	5.0
89.227	1.0
89.242	4.0
89.257	5.0
89.272	4.0
89.287	3.0
89.302	4.0
89.317	4.0
89.332	2.0
89.347	1.0
89.362	4.0
89.377	2.0
89.392	2.0
89.407	2.0
89.422	8.0
89.437	0.0
89.452	4.0
89.467	0.0
89.482	2.0
89.497	1.0
89.512	1.0
89.527	3.0
89.542	4.0
89.557	1.0
89.572	5.0
89.587	2.0
89.602	2.0
89.617	3.0
89.632	6.0
89.647	0.0
89.662	3.0
89.677	5.0
89.693	2.0
89.708	2.0
89.723	0.0
89.738	1.0
89.753	5.0
89.768	2.0
89.783	1.0
89.798	0.0
89.813	3.0
89.828	3.0
89.843	3.0
89.858	1.0
89.873	1.0
89.888	2.0
89.903	3.0
89.918	3.0
89.933	7.0
89.948	1.0
89.963	4.0
89.978	0.0
89.993	1.0
90.008	3.0
90.023	1.0
90.038	2.0
90.053	4.0
90.068	2.0
90.083	3.0
90.097	1.0
90.112	3.0
90.127	7.0
90.142	2.0
90.157	3.0
90.172	1.0
90.187	3.0
90.202	1.0
90.217	4.0
90.232	6.0
90.247	10.0
90.262	1.0
90.277	5.0
90.292	4.0
90.307	3.0
90.322	2.0
90.337	1.0
90.352	5.0
90.367	4.0
90.382	2.0
90.397	4.0
90.412	5.0
90.427	5.0
90.442	1.0
90.457	3.0
90.472	2.0
90.487	2.0
90.501	3.0
90.516	2.0
90.531	3.0
90.546	2.0
90.561	5.0
90.576	1.0
90.591	5.0
90.606	2.0
90.621	4.0
90.636	4.0
90.651	0.0
90.666	1.0
90.681	5.0
90.696	3.0
90.711	1.0
90.726	0.0
90.741	4.0
90.755	2.0
90.77	4.0
90.785	5.0
90.8	2.0
90.815	6.0
90.83	2.0
90.845	3.0
90.86	3.0
90.875	5.0
90.89	2.0
90.905	3.0
90.92	1.0
90.935	1.0
90.95	6.0
90.965	4.0
90.979	4.0
90.994	2.0
91.009	6.0
91.024	3.0
91.039	8.0
91.054	3.0
91.069	1.0
91.084	3.0
91.099	6.0
91.114	2.0
91.129	5.0
91.144	1.0
91.159	1.0
91.174	3.0
91.188	8.0
91.203	3.0
91.218	4.0
91.233	2.0
91.248	0.0
91.263	0.0
91.278	8.0
91.293	2.0
91.308	1.0
91.323	1.0
91.338	1.0
91.353	2.0
91.368	4.0
91.383	1.0
91.398	4.0
91.412	2.0
91.427	4.0
91.442	4.0
91.457	4.0
91.472	1.0
91.487	1.0
91.502	0.0
91.517	1.0
91.532	1.0
91.547	4.0
91.562	5.0
91.577	2.0
91.592	3.0
91.607	6.0
91.622	2.0
91.637	4.0
91.652	0.0
91.666	3.0
91.681	3.0
91.696	0.0
91.711	3.0
91.726	1.0
91.741	4.0
91.756	2.0
91.771	3.0
91.786	5.0
91.801	3.0
91.816	8.0
91.831	3.0
91.846	0.0
91.861	0.0
91.876	3.0
91.891	4.0
91.906	2.0
91.921	1.0
91.936	3.0
91.951	4.0
91.966	3.0
91.981	9.0
91.995	0.0
92.01	1.0
92.025	0.0
92.04	1.0
92.055	5.0
92.07	7.0
92.085	3.0
92.1	6.0
92.115	1.0
92.13	2.0
92.145	4.0
92.16	1.0
92.175	2.0
92.19	1.0
92.205	5.0
92.22	3.0
92.235	4.0
92.25	0.0
92.265	5.0
92.28	2.0
92.295	5.0
92.31	1.0
92.325	2.0
92.34	3.0
92.355	4.0
92.37	5.0
92.385	1.0
92.4	3.0
92.415	3.0
92.43	2.0
92.445	0.0
92.46	4.0
92.475	1.0
92.49	2.0
92.505	3.0
92.52	5.0
92.535	4.0
92.55	5.0
92.565	2.0
92.58	4.0
92.595	5.0
92.61	7.0
92.625	3.0
92.64	1.0
92.655	2.0
92.67	2.0
92.685	4.0
92.7	3.0
92.715	7.0
92.73	1.0
92.745	2.0
92.76	5.0
92.775	4.0
92.79	4.0
92.805	3.0
92.82	3.0
92.835	0.0
92.85	5.0
92.865	1.0
92.88	3.0
92.895	1.0
92.91	6.0
92.925	3.0
92.94	5.0
92.955	4.0
92.97	2.0
92.985	2.0
93.0	2.0
93.015	4.0
93.03	1.0
93.045	2.0
93.06	2.0
93.075	5.0
93.09	1.0
93.105	2.0
93.12	2.0
93.135	1.0
93.15	4.0
93.165	2.0
93.18	1.0
93.195	2.0
93.21	2.0
93.225	2.0
93.24	4.0
93.255	1.0
93.27	3.0
93.285	5.0
93.3	6.0
93.315	3.0
93.33	4.0
93.345	5.0
93.36	4.0
93.375	3.0
93.39	5.0
93.405	1.0
93.42	4.0
93.435	2.0
93.45	2.0
93.465	7.0
93.48	2.0
93.495	1.0
93.51	8.0
93.525	2.0
93.54	4.0
93.555	2.0
93.57	7.0
93.585	3.0
93.6	2.0
93.615	4.0
93.63	3.0
93.645	2.0
93.66	1.0
93.675	4.0
93.69	2.0
93.705	4.0
93.72	3.0
93.735	6.0
93.75	4.0
93.765	1.0
93.78	3.0
93.795	0.0
93.81	4.0
93.824	5.0
93.839	1.0
93.854	2.0
93.869	4.0
93.884	4.0
93.899	6.0
93.914	6.0
93.929	2.0
93.944	5.0
93.959	1.0
93.974	3.0
93.989	2.0
94.004	2.0
94.019	2.0
94.034	3.0
94.049	4.0
94.064	4.0
94.079	1.0
94.094	1.0
94.108	5.0
94.123	1.0
94.138	0.0
94.153	3.0
94.168	3.0
94.183	4.0
94.198	3.0
94.213	1.0
94.228	1.0
94.243	4.0
94.258	5.0
94.273	6.0
94.288	2.0
94.302	7.0
94.317	3.0
94.332	7.0
94.347	5.0
94.362	5.0
94.377	5.0
94.392	4.0
94.407	3.0
94.422	3.0
94.437	3.0
94.452	6.0
94.466	7.0
94.481	4.0
94.496	5.0
94.511	4.0
94.526	4.0
94.541	7.0
94.556	3.0
94.571	2.0
94.586	4.0
94.601	2.0
94.615	5.0
94.63	4.0
94.645	5.0
94.66	2.0
94.675	2.0
94.69	7.0
94.705	4.0
94.72	4.0
94.735	2.0
94.749	4.0
94.764	6.0
94.779	1.0
94.794	1.0
94.809	3.0
94.824	0.0
94.839	2.0
94.854	4.0
94.868	5.0
94.883	4.0
94.898	5.0
94.913	2.0
94.928	1.0
94.943	1.0
94.958	3.0
94.973	3.0
94.987	3.0
95.002	6.0
95.017	4.0
95.032	4.0
95.047	6.0
95.062	5.0
95.077	1.0
95.092	1.0
95.106	5.0
95.121	4.0
95.136	3.0
95.151	2.0
95.166	1.0
95.181	4.0
95.196	8.0
95.211	5.0
95.226	5.0
95.24	4.0
95.255	3.0
95.27	2.0
95.285	5.0
95.3	4.0
95.315	5.0
95.33	3.0
95.345	4.0
95.359	4.0
95.374	3.0
95.389	3.0
95.404	2.0
95.419	5.0
95.434	4.0
95.449	0.0
95.464	4.0
95.478	6.0
95.493	2.0
95.508	1.0
95.523	4.0
95.538	3.0
95.553	5.0
95.568	1.0
95.583	1.0
95.597	2.0
95.612	1.0
95.627	1.0
95.642	3.0
95.657	4.0
95.672	6.0
95.687	2.0
95.702	2.0
95.717	4.0
95.731	2.0
95.746	3.0
95.761	3.0
95.776	3.0
95.791	1.0
95.806	1.0
95.821	6.0
95.836	5.0
95.851	4.0
95.866	1.0
95.88	6.0
95.895	2.0
95.91	7.0
95.925	1.0
95.94	4.0
95.955	2.0
95.97	4.0
95.985	4.0
96.0	2.0
96.015	3.0
96.029	1.0
96.044	4.0
96.059	1.0
96.074	4.0
96.089	4.0
96.104	3.0
96.119	3.0
96.134	1.0
96.149	2.0
96.164	3.0
96.179	3.0
96.194	4.0
96.208	5.0
96.223	2.0
96.238	6.0
96.253	3.0
96.268	4.0
96.283	5.0
96.298	1.0
96.313	2.0
96.328	1.0
96.343	1.0
96.358	3.0
96.373	5.0
96.388	6.0
96.403	0.0
96.417	4.0
96.432	5.0
96.447	0.0
96.462	2.0
96.477	1.0
96.492	4.0
96.507	5.0
96.522	6.0
96.537	5.0
96.552	1.0
96.567	4.0
96.582	3.0
96.597	2.0
96.612	4.0
96.627	5.0
96.642	5.0
96.656	3.0
96.671	4.0
96.686	1.0
96.701	5.0
96.716	1.0
96.731	2.0
96.746	3.0
96.761	2.0
96.776	4.0
96.791	4.0
96.806	4.0
96.821	6.0
96.836	4.0
96.851	4.0
96.866	3.0
96.881	3.0
96.896	3.0
96.911	2.0
96.926	2.0
96.94	5.0
96.955	4.0
96.97	3.0
96.985	3.0
97.0	6.0
97.015	4.0
97.03	1.0
97.045	3.0
97.06	3.0
97.075	3.0
97.09	5.0
97.105	5.0
97.12	3.0
97.135	2.0
97.15	3.0
97.165	3.0
97.18	4.0
97.195	4.0
97.21	4.0
97.225	4.0
97.239	3.0
97.254	1.0
97.269	0.0
97.284	3.0
97.299	1.0
97.314	1.0
97.329	3.0
97.344	4.0
97.359	1.0
97.374	2.0
97.389	3.0
97.404	4.0
97.419	2.0
97.434	3.0
97.449	2.0
97.464	2.0
97.479	7.0
97.494	2.0
97.509	2.0
97.524	6.0
97.538	1.0
97.553	3.0
97.568	4.0
97.583	5.0
97.598	3.0
97.613	1.0
97.628	2.0
97.643	5.0
97.658	1.0
97.673	4.0
97.688	4.0
97.703	0.0
97.718	2.0
97.733	3.0
97.748	3.0
97.763	4.0
97.778	3.0
97.792	7.0
97.807	6.0
97.822	1.0
97.837	2.0
97.852	7.0
97.867	3.0
97.882	5.0
97.897	3.0
97.912	3.0
97.927	5.0
97.942	0.0
97.957	2.0
97.972	4.0
97.987	2.0
98.001	7.0
98.016	4.0
98.031	3.0
98.046	1.0
98.061	2.0
98.076	3.0
98.091	3.0
98.106	0.0
98.121	4.0
98.136	1.0
98.151	2.0
98.166	1.0
98.181	0.0
98.195	3.0
98.21	5.0
98.225	5.0
98.24	3.0
98.255	5.0
98.27	2.0
98.285	4.0
98.3	2.0
98.315	1.0
98.33	1.0
98.345	5.0
98.359	4.0
98.374	3.0
98.389	2.0
98.404	3.0
98.419	7.0
98.434	2.0
98.449	1.0
98.464	2.0
98.479	5.0
98.494	3.0
98.508	1.0
98.523	5.0
98.538	1.0
98.553	2.0
98.568	5.0
98.583	3.0
98.598	5.0
98.613	1.0
98.628	1.0
98.642	2.0
98.657	5.0
98.672	5.0
98.687	3.0
98.702	3.0
98.717	0.0
98.732	0.0
98.747	2.0
98.762	2.0
98.776	4.0
98.791	4.0
98.806	3.0
98.821	5.0
98.836	4.0
98.851	1.0
98.866	0.0
98.881	1.0
98.896	4.0
98.91	4.0
98.925	4.0
98.94	6.0
98.955	0.0
98.97	1.0
98.985	2.0
99.0	2.0
99.015	3.0
99.029	0.0
99.044	0.0
99.059	0.0
99.074	2.0
99.089	3.0
99.104	2.0
99.119	1.0
99.133	5.0
99.148	6.0
99.163	2.0
99.178	0.0
99.193	3.0
99.208	0.0
99.223	4.0
99.238	5.0
99.252	0.0
99.267	3.0
99.282	3.0
99.297	1.0
99.312	1.0
99.327	4.0
99.342	2.0
99.356	1.0
99.371	2.0
99.386	5.0
99.401	3.0
99.416	2.0
99.431	8.0
99.446	4.0
99.461	5.0
99.475	4.0
99.49	3.0
99.505	0.0
99.52	3.0
99.535	2.0
99.55	5.0
99.565	2.0
99.579	2.0
99.594	2.0
99.609	5.0
99.624	4.0
99.639	6.0
99.654	4.0
99.669	1.0
99.683	2.0
99.698	3.0
99.713	2.0
99.728	1.0
99.743	6.0
99.758	3.0
99.772	4.0
99.787	4.0
99.802	0.0
99.817	1.0
99.832	3.0
99.847	3.0
99.862	5.0
99.876	6.0
99.891	2.0
99.906	5.0
99.921	5.0
99.936	3.0
99.951	3.0
99.966	3.0
99.98	2.0
99.995	1.0
100.01	1.0
100.025	2.0
100.04	1.0
100.055	3.0
100.069	3.0
100.084	1.0
100.099	7.0
100.114	3.0
100.129	5.0
100.144	4.0
100.159	5.0
100.173	7.0
100.188	4.0
100.203	1.0
100.218	3.0
100.233	2.0
100.248	6.0
100.262	2.0
100.277	4.0
100.292	3.0
100.307	6.0
100.322	5.0
100.337	4.0
100.351	2.0
100.366	1.0
100.381	5.0
100.396	5.0
100.411	0.0
100.426	5.0
100.441	2.0
100.455	1.0
100.47	1.0
100.485	4.0
100.5	5.0
100.515	1.0
100.53	4.0
100.544	5.0
100.559	2.0
100.574	3.0
100.589	0.0
100.604	5.0
100.619	2.0
100.633	1.0
100.648	4.0
100.663	4.0
100.678	3.0
100.693	1.0
100.708	1.0
100.722	2.0
100.737	3.0
100.752	5.0
100.767	4.0
100.782	2.0
100.796	3.0
100.811	0.0
100.826	1.0
100.841	3.0
100.856	0.0
100.871	0.0
100.885	1.0
100.9	2.0
100.915	2.0
100.93	1.0
100.945	2.0
100.96	4.0
100.974	3.0
100.989	2.0
101.004	5.0
101.019	6.0
101.034	1.0
101.048	2.0
101.063	1.0
101.078	1.0
101.093	5.0
101.108	7.0
101.123	4.0
101.137	3.0
101.152	5.0
101.167	5.0
101.182	3.0
101.197	6.0
101.211	1.0
101.226	6.0
101.241	3.0
101.256	3.0
101.271	7.0
101.285	5.0
101.3	3.0
101.315	5.0
101.33	6.0
101.345	1.0
101.359	2.0
101.374	2.0
101.389	4.0
101.404	6.0
101.419	3.0
101.433	2.0
101.448	0.0
101.463	0.0
101.478	2.0
101.493	2.0
101.507	5.0
101.522	2.0
101.537	5.0
101.552	7.0
101.567	4.0
101.581	4.0
101.596	6.0
101.611	2.0
101.626	1.0
101.64	1.0
101.655	3.0
101.67	7.0
101.685	2.0
101.7	1.0
101.714	3.0
101.729	2.0
101.744	5.0
101.759	1.0
101.773	4.0
101.788	2.0
101.803	0.0
101.818	1.0
101.833	2.0
101.847	2.0
101.862	5.0
101.877	3.0
101.892	1.0
101.906	2.0
101.921	5.0
101.936	2.0
101.951	4.0
101.965	3.0
101.98	8.0
101.995	5.0
102.01	3.0
102.025	1.0
102.039	7.0
102.054	4.0
102.069	3.0
102.084	3.0
102.098	6.0
102.113	4.0
102.128	4.0
102.143	3.0
102.157	3.0
102.172	1.0
102.187	2.0
102.202	3.0
102.216	2.0
102.231	1.0
102.246	3.0
102.261	3.0
102.275	3.0
102.29	4.0
102.305	5.0
102.32	6.0
102.334	2.0
102.349	1.0
102.364	3.0
102.378	5.0
102.393	3.0
102.408	1.0
102.423	4.0
102.437	3.0
102.452	0.0
102.467	2.0
102.482	3.0
102.496	0.0
102.511	1.0
102.526	1.0
102.541	0.0
102.555	2.0
102.57	2.0
102.585	7.0
102.6	3.0
102.614	1.0
102.629	3.0
102.644	5.0
102.659	1.0
102.673	4.0
102.688	5.0
102.703	0.0
102.717	3.0
102.732	1.0
102.747	2.0
102.762	3.0
102.776	5.0
102.791	2.0
102.806	4.0
102.821	3.0
102.835	6.0
102.85	3.0
102.865	3.0
102.88	2.0
102.894	4.0
102.909	1.0
102.924	2.0
102.938	4.0
102.953	2.0
102.968	3.0
102.983	1.0
102.997	1.0
103.012	0.0
103.027	2.0
103.042	3.0
103.056	3.0
103.071	5.0
103.086	1.0
103.101	2.0
103.115	3.0
103.13	5.0
103.145	3.0
103.16	1.0
103.174	3.0
103.189	3.0
103.204	3.0
103.219	1.0
103.233	0.0
103.248	7.0
103.263	3.0
103.278	3.0
103.292	1.0
103.307	2.0
103.322	4.0
103.337	6.0
103.351	4.0
103.366	4.0
103.381	1.0
103.396	1.0
103.41	2.0
103.425	4.0
103.44	2.0
103.455	7.0
103.469	0.0
103.484	1.0
103.499	2.0
103.514	4.0
103.529	3.0
103.543	0.0
103.558	3.0
103.573	4.0
103.588	1.0
103.602	2.0
103.617	2.0
103.632	2.0
103.647	4.0
103.661	3.0
103.676	1.0
103.691	5.0
103.706	4.0
103.721	5.0
103.735	3.0
103.75	3.0
103.765	7.0
103.78	4.0
103.795	2.0
103.809	2.0
103.824	2.0
103.839	3.0
103.854	2.0
103.869	6.0
103.883	4.0
103.898	2.0
103.913	5.0
103.928	5.0
103.943	8.0
103.957	8.0
103.972	5.0
103.987	5.0
104.002	1.0
104.017	5.0
104.031	6.0
104.046	2.0
104.061	4.0
104.076	2.0
104.091	3.0
104.106	6.0
104.12	2.0
104.135	2.0
104.15	0.0
104.165	3.0
104.18	2.0
104.195	3.0
104.209	3.0
104.224	3.0
104.239	4.0
104.254	1.0
104.269	1.0
104.284	3.0
104.299	2.0
104.313	6.0
104.328	2.0
104.343	2.0
104.358	6.0
104.373	9.0
104.388	2.0
104.403	4.0
104.417	1.0
104.432	2.0
104.447	7.0
104.462	4.0
104.477	7.0
104.492	4.0
104.507	3.0
104.522	5.0
104.536	2.0
104.551	5.0
104.566	2.0
104.581	1.0
104.596	1.0
104.611	2.0
104.626	4.0
104.641	3.0
104.656	2.0
104.67	4.0
104.685	5.0
104.7	2.0
104.715	1.0
104.73	3.0
104.745	2.0
104.76	2.0
104.775	2.0
104.79	4.0
104.804	1.0
104.819	4.0
104.834	4.0
104.849	5.0
104.864	0.0
104.879	3.0
104.894	4.0
104.909	2.0
104.924	1.0
104.939	2.0
104.954	3.0
104.968	3.0
104.983	3.0
104.998	2.0
105.013	3.0
105.028	4.0
105.043	1.0
105.058	5.0
105.073	1.0
105.088	5.0
105.103	3.0
105.118	6.0
105.133	2.0
105.147	2.0
105.162	3.0
105.177	2.0
105.192	5.0
105.207	1.0
105.222	4.0
105.237	5.0
105.252	1.0
105.267	2.0
105.282	4.0
105.297	1.0
105.312	2.0
105.327	2.0
105.342	2.0
105.356	6.0
105.371	4.0
105.386	2.0
105.401	3.0
105.416	4.0
105.431	7.0
105.446	7.0
105.461	6.0
105.476	8.0
105.491	4.0
105.506	4.0
105.521	3.0
105.536	2.0
105.551	5.0
105.566	6.0
105.581	3.0
105.595	7.0
105.61	1.0
105.625	2.0
105.64	4.0
105.655	1.0
105.67	4.0
105.685	0.0
105.7	6.0
105.715	6.0
105.73	3.0
105.745	2.0
105.76	0.0
105.775	4.0
105.79	3.0
105.805	3.0
105.82	4.0
105.835	7.0
105.85	5.0
105.864	1.0
105.879	2.0
105.894	3.0
105.909	3.0
105.924	4.0
105.939	2.0
105.954	3.0
105.969	5.0
105.984	8.0
105.999	2.0
106.014	1.0
106.029	2.0
106.044	1.0
106.059	6.0
106.074	2.0
106.089	4.0
106.104	4.0
106.119	3.0
106.134	3.0
106.148	1.0
106.163	5.0
106.178	5.0
106.193	2.0
106.208	5.0
106.223	4.0
106.238	2.0
106.253	6.0
106.268	4.0
106.283	1.0
106.298	5.0
106.313	0.0
106.328	5.0
106.343	2.0
106.358	1.0
106.373	0.0
106.388	2.0
106.403	3.0
106.418	2.0
106.432	2.0
106.447	2.0
106.462	3.0
106.477	3.0
106.492	6.0
106.507	3.0
106.522	1.0
106.537	1.0
106.552	4.0
106.567	4.0
106.582	0.0
106.597	3.0
106.612	2.0
106.627	3.0
106.642	2.0
106.657	3.0
106.672	5.0
106.687	4.0
106.701	4.0
106.716	2.0
106.731	5.0
106.746	1.0
106.761	2.0
106.776	1.0
106.791	4.0
106.806	0.0
106.821	1.0
106.836	2.0
106.851	1.0
106.866	1.0
106.881	4.0
106.896	0.0
106.911	4.0
106.926	5.0
106.941	5.0
106.955	2.0
106.97	2.0
106.985	5.0
107.0	1.0
107.015	4.0
107.03	1.0
107.045	2.0
107.06	1.0
107.075	2.0
107.09	7.0
107.105	2.0
107.12	3.0
107.135	8.0
107.15	3.0
107.165	5.0
107.18	4.0
107.194	3.0
107.209	6.0
107.224	4.0
107.239	7.0
107.254	3.0
107.269	6.0
107.284	3.0
107.299	7.0
107.314	3.0
107.329	2.0
107.344	1.0
107.359	3.0
107.374	6.0
107.389	5.0
107.404	3.0
107.418	4.0
107.433	1.0
107.448	2.0
107.463	3.0
107.478	3.0
107.493	2.0
107.508	4.0
107.523	1.0
107.538	1.0
107.553	5.0
107.568	3.0
107.583	2.0
107.598	5.0
107.613	5.0
107.627	3.0
107.642	5.0
107.657	4.0
107.672	1.0
107.687	3.0
107.702	7.0
107.717	7.0
107.732	1.0
107.747	3.0
107.762	1.0
107.777	4.0
107.792	2.0
107.807	1.0
107.821	2.0
107.836	3.0
107.851	4.0
107.866	3.0
107.881	4.0
107.896	4.0
107.911	2.0
107.926	4.0
107.941	1.0
107.956	4.0
107.971	6.0
107.986	6.0
108.0	3.0
108.015	6.0
108.03	5.0
108.045	2.0
108.06	4.0
108.075	3.0
108.09	3.0
108.105	2.0
108.12	2.0
108.135	5.0
108.15	2.0
108.164	3.0
108.179	3.0
108.194	2.0
108.209	5.0
108.224	4.0
108.239	2.0
108.254	4.0
108.269	2.0
108.284	1.0
108.299	4.0
108.313	1.0
108.328	2.0
108.343	0.0
108.358	5.0
108.373	1.0
108.388	5.0
108.403	2.0
108.418	7.0
108.433	3.0
108.448	3.0
108.462	4.0
108.477	5.0
108.492	0.0
108.507	2.0
108.522	2.0
108.537	4.0
108.552	2.0
108.567	3.0
108.582	2.0
108.597	4.0
108.611	2.0
108.626	3.0
108.641	4.0
108.656	4.0
108.671	3.0
108.686	4.0
108.701	2.0
108.716	1.0
108.731	4.0
108.745	8.0
108.76	5.0
108.775	1.0
108.79	3.0
108.805	1.0
108.82	3.0
108.835	3.0
108.85	3.0
108.865	3.0
108.879	9.0
108.894	2.0
108.909	7.0
108.924	3.0
108.939	1.0
108.954	5.0
108.969	2.0
108.984	7.0
108.999	3.0
109.013	6.0
109.028	6.0
109.043	3.0
109.058	6.0
109.073	3.0
109.088	4.0
109.103	4.0
109.118	6.0
109.133	2.0
109.147	3.0
109.162	4.0
109.177	5.0
109.192	1.0
109.207	1.0
109.222	1.0
109.237	6.0
109.252	3.0
109.267	2.0
109.281	1.0
109.296	2.0
109.311	5.0
109.326	2.0
109.341	3.0
109.356	6.0
109.371	3.0
109.386	2.0
109.4	1.0
109.415	5.0
109.43	3.0
109.445	3.0
109.46	6.0
109.475	3.0
109.49	4.0
109.505	2.0
109.52	3.0
109.534	7.0
109.549	4.0
109.564	1.0
109.579	2.0
109.594	5.0
109.609	1.0
109.624	3.0
109.639	6.0
109.653	0.0
109.668	3.0
109.683	0.0
109.698	4.0
109.713	2.0
109.728	4.0
109.743	2.0
109.758	2.0
109.773	6.0
109.787	3.0
109.802	1.0
109.817	1.0
109.832	2.0
109.847	3.0
109.862	2.0
109.877	4.0
109.892	3.0
109.907	3.0
109.921	2.0
109.936	2.0
109.951	3.0
109.966	5.0
109.981	3.0
109.996	2.0
110.011	6.0
110.026	3.0
110.04	4.0
110.055	2.0
110.07	4.0
110.085	3.0
110.1	2.0
110.115	3.0
110.13	0.0
110.145	0.0
110.16	1.0
110.174	3.0
110.189	5.0
110.204	1.0
110.219	0.0
110.234	3.0
110.249	1.0
110.264	1.0
110.279	3.0
110.294	3.0
110.308	0.0
110.323	4.0
110.338	3.0
110.353	2.0
110.368	3.0
110.383	5.0
110.398	4.0
110.413	2.0
110.428	3.0
110.442	2.0
110.457	1.0
110.472	3.0
110.487	4.0
110.502	2.0
110.517	5.0
110.532	4.0
110.547	3.0
110.561	2.0
110.576	2.0
110.591	3.0
110.606	1.0
110.621	3.0
110.636	4.0
110.651	2.0
110.666	4.0
110.681	3.0
110.695	5.0
110.71	4.0
110.725	3.0
110.74	3.0
110.755	2.0
110.77	3.0
110.785	4.0
110.8	5.0
110.815	1.0
110.829	3.0
110.844	3.0
110.859	4.0
110.874	6.0
110.889	0.0
110.904	3.0
110.919	5.0
110.934	1.0
110.948	4.0
110.963	2.0
110.978	0.0
110.993	2.0
111.008	3.0
111.023	3.0
111.038	0.0
111.053	4.0
111.067	3.0
111.082	7.0
111.097	2.0
111.112	3.0
111.127	8.0
111.142	2.0
111.157	2.0
111.172	4.0
111.186	4.0
111.201	2.0
111.216	7.0
111.231	3.0
111.246	3.0
111.261	2.0
111.276	1.0
111.291	5.0
111.305	4.0
111.32	4.0
111.335	2.0
111.35	2.0
111.365	5.0
111.38	2.0
111.395	4.0
111.41	3.0
111.424	3.0
111.439	2.0
111.454	6.0
111.469	6.0
111.484	1.0
111.499	3.0
111.514	4.0
111.528	2.0
111.543	5.0
111.558	2.0
111.573	3.0
111.588	5.0
111.603	1.0
111.618	3.0
111.633	7.0
111.647	5.0
111.662	5.0
111.677	2.0
111.692	1.0
111.707	7.0
111.722	1.0
111.737	3.0
111.751	5.0
111.766	4.0
111.781	6.0
111.796	6.0
111.811	3.0
111.826	2.0
111.84	6.0
111.855	2.0
111.87	3.0
111.885	3.0
111.9	4.0
111.915	1.0
111.93	4.0
111.944	3.0
111.959	6.0
111.974	2.0
111.989	6.0
112.004	6.0
112.019	2.0
112.033	4.0
112.048	3.0
112.063	2.0
112.078	5.0
112.093	2.0
112.108	8.0
112.123	3.0
112.137	2.0
112.152	3.0
112.167	2.0
112.182	3.0
112.197	1.0
112.212	5.0
112.226	1.0
112.241	0.0
112.256	3.0
112.271	3.0
112.286	5.0
112.301	2.0
112.315	4.0
112.33	2.0
112.345	5.0
112.36	3.0
112.375	4.0
112.389	3.0
112.404	3.0
112.419	1.0
112.434	1.0
112.449	3.0
112.464	3.0
112.478	1.0
112.493	4.0
112.508	5.0
112.523	6.0
112.538	2.0
112.553	4.0
112.567	3.0
112.582	1.0
112.597	7.0
112.612	1.0
112.627	1.0
112.642	2.0
112.656	3.0
112.671	8.0
112.686	3.0
112.701	5.0
112.716	3.0
112.73	6.0
112.745	4.0
112.76	6.0
112.775	3.0
112.79	3.0
112.805	4.0
112.819	2.0
112.834	2.0
112.849	4.0
112.864	5.0
112.879	4.0
112.894	4.0
112.908	8.0
112.923	4.0
112.938	1.0
112.953	8.0
112.968	4.0
112.983	3.0
112.997	0.0
113.012	3.0
113.027	2.0
113.042	4.0
113.057	4.0
113.072	0.0
113.086	2.0
113.101	4.0
113.116	0.0
113.131	2.0
113.146	5.0
113.161	3.0
113.175	2.0
113.19	1.0
113.205	3.0
113.22	3.0
113.235	3.0
113.25	1.0
113.265	0.0
113.279	3.0
113.294	6.0
113.309	5.0
113.324	6.0
113.339	4.0
113.354	4.0
113.368	3.0
113.383	3.0
113.398	4.0
113.413	0.0
113.428	5.0
113.443	3.0
113.458	5.0
113.472	4.0
113.487	3.0
113.502	5.0
113.517	4.0
113.532	3.0
113.547	3.0
113.562	8.0
113.576	2.0
113.591	4.0
113.606	5.0
113.621	2.0
113.636	2.0
113.651	2.0
113.666	4.0
113.681	2.0
113.695	3.0
113.71	3.0
113.725	2.0
113.74	2.0
113.755	3.0
113.77	1.0
113.785	4.0
113.8	5.0
113.814	2.0
113.829	4.0
113.844	1.0
113.859	2.0
113.874	4.0
113.889	3.0
113.904	2.0
113.919	3.0
113.934	4.0
113.949	3.0
113.963	3.0
113.978	5.0
113.993	7.0
114.008	3.0
114.023	4.0
114.038	8.0
114.053	3.0
114.068	4.0
114.083	3.0
114.098	4.0
114.113	3.0
114.127	5.0
114.142	5.0
114.157	7.0
114.172	3.0
114.187	3.0
114.202	6.0
114.217	5.0
114.232	5.0
114.247	4.0
114.262	5.0
114.277	4.0
114.292	7.0
114.307	2.0
114.322	6.0
114.337	1.0
114.351	6.0
114.366	5.0
114.381	5.0
114.396	2.0
114.411	1.0
114.426	3.0
114.441	7.0
114.456	3.0
114.471	5.0
114.486	3.0
114.501	4.0
114.516	2.0
114.531	0.0
114.546	1.0
114.561	6.0
114.576	6.0
114.591	2.0
114.606	3.0
114.621	3.0
114.636	3.0
114.65	1.0
114.665	4.0
114.68	1.0
114.695	1.0
114.71	3.0
114.725	5.0
114.74	4.0
114.755	2.0
114.77	3.0
114.785	6.0
114.8	3.0
114.815	1.0
114.83	6.0
114.845	3.0
114.86	6.0
114.875	4.0
114.89	1.0
114.905	3.0
114.92	4.0
114.935	3.0
114.95	6.0
114.965	7.0
114.98	2.0
114.995	2.0
115.009	1.0
115.024	3.0
115.039	3.0
115.054	3.0
115.069	1.0
115.084	4.0
115.099	3.0
115.114	4.0
115.129	4.0
115.144	3.0
115.159	3.0
115.174	3.0
115.189	5.0
115.204	5.0
115.219	5.0
115.234	6.0
115.249	3.0
115.264	2.0
115.279	6.0
115.294	5.0
115.309	2.0
115.323	0.0
115.338	5.0
115.353	5.0
115.368	5.0
115.383	5.0
115.398	5.0
115.413	6.0
115.428	1.0
115.443	5.0
115.458	4.0
115.473	5.0
115.488	3.0
115.503	4.0
115.518	1.0
115.533	3.0
115.548	3.0
115.562	4.0
115.577	4.0
115.592	5.0
115.607	6.0
115.622	3.0
115.637	1.0
115.652	5.0
115.667	3.0
115.682	1.0
115.697	3.0
115.712	2.0
115.727	6.0
115.741	9.0
115.756	4.0
115.771	4.0
115.786	1.0
115.801	3.0
115.816	3.0
115.831	4.0
115.846	2.0
115.861	4.0
115.875	2.0
115.89	5.0
115.905	3.0
115.92	3.0
115.935	2.0
115.95	2.0
115.965	0.0
115.98	2.0
115.995	1.0
116.009	3.0
116.024	3.0
116.039	2.0
116.054	2.0
116.069	5.0
116.084	7.0
116.099	3.0
116.113	3.0
116.128	2.0
116.143	2.0
116.158	7.0
116.173	5.0
116.188	3.0
116.202	5.0
116.217	2.0
116.232	2.0
116.247	8.0
116.262	1.0
116.277	1.0
116.291	3.0
116.306	2.0
116.321	4.0
116.336	4.0
116.351	8.0
116.366	11.0
116.38	2.0
116.395	2.0
116.41	1.0
116.425	6.0
116.44	2.0
116.454	7.0
116.469	4.0
116.484	2.0
116.499	1.0
116.514	2.0
116.528	8.0
116.543	2.0
116.558	3.0
116.573	2.0
116.588	4.0
116.602	2.0
116.617	1.0
116.632	3.0
116.647	1.0
116.662	3.0
116.676	1.0
116.691	4.0
116.706	2.0
116.721	3.0
116.735	4.0
116.75	12.0
116.765	4.0
116.78	6.0
116.795	1.0
116.809	3.0
116.824	3.0
116.839	2.0
116.854	8.0
116.868	4.0
116.883	5.0
116.898	1.0
116.913	0.0
116.927	3.0
116.942	0.0
116.957	2.0
116.972	3.0
116.986	3.0
117.001	3.0
117.016	5.0
117.031	2.0
117.045	2.0
117.06	3.0
117.075	3.0
117.09	4.0
117.104	4.0
117.119	5.0
117.134	6.0
117.149	1.0
117.163	2.0
117.178	3.0
117.193	5.0
117.208	4.0
117.222	1.0
117.237	4.0
117.252	4.0
117.267	3.0
117.281	2.0
117.296	3.0
117.311	4.0
117.325	4.0
117.34	3.0
117.355	5.0
117.37	4.0
117.384	4.0
117.399	5.0
117.414	2.0
117.429	5.0
117.443	8.0
117.458	3.0
117.473	4.0
117.487	4.0
117.502	5.0
117.517	1.0
117.532	4.0
117.546	2.0
117.561	2.0
117.576	2.0
117.59	5.0
117.605	1.0
117.62	2.0
117.635	3.0
117.649	5.0
117.664	2.0
117.679	4.0
117.693	4.0
117.708	6.0
117.723	7.0
117.738	2.0
117.752	4.0
117.767	3.0
117.782	4.0
117.796	2.0
117.811	3.0
117.826	3.0
117.841	3.0
117.855	3.0
117.87	1.0
117.885	4.0
117.899	4.0
117.914	4.0
117.929	8.0
117.944	1.0
117.958	4.0
117.973	5.0
117.988	2.0
118.002	5.0
118.017	5.0
118.032	4.0
118.047	7.0
118.062	3.0
118.077	6.0
118.092	5.0
118.107	5.0
118.121	2.0
118.136	5.0
118.151	5.0
118.166	3.0
118.181	7.0
118.196	2.0
118.211	4.0
118.225	3.0
118.24	4.0
118.255	5.0
118.27	5.0
118.285	2.0
118.3	2.0
118.315	3.0
118.33	3.0
118.344	1.0
118.359	5.0
118.374	6.0
118.389	6.0
118.404	2.0
118.419	2.0
118.434	7.0
118.449	5.0
118.463	3.0
118.478	2.0
118.493	5.0
118.508	6.0
118.523	5.0
118.538	3.0
118.553	5.0
118.567	7.0
118.582	0.0
118.597	6.0
118.612	7.0
118.627	3.0
118.642	6.0
118.657	4.0
118.672	5.0
118.686	2.0
118.701	4.0
118.716	4.0
118.731	8.0
118.746	2.0
118.761	5.0
118.776	0.0
118.791	2.0
118.805	6.0
118.82	0.0
118.835	1.0
118.85	3.0
118.865	7.0
118.88	1.0
118.895	6.0
118.909	2.0
118.924	0.0
118.939	3.0
118.954	5.0
118.969	7.0
118.984	4.0
118.999	8.0
119.014	3.0
119.028	2.0
119.043	3.0
119.058	6.0
119.073	8.0
119.088	3.0
119.103	4.0
119.118	2.0
119.133	1.0
119.147	4.0
119.162	1.0
119.177	1.0
119.192	5.0
119.207	3.0
119.222	2.0
119.237	7.0
119.251	6.0
119.266	5.0
119.281	4.0
119.296	6.0
119.311	9.0
119.326	1.0
119.341	2.0
119.356	7.0
119.37	3.0
119.385	3.0
119.4	2.0
119.415	0.0
119.43	1.0
119.445	4.0
119.46	4.0
119.475	2.0
119.489	5.0
119.504	6.0
119.519	4.0
119.534	5.0
119.549	5.0
119.564	4.0
119.579	3.0
119.593	3.0
119.608	4.0
119.623	3.0
119.638	6.0
119.653	5.0
119.668	2.0
119.683	6.0
119.698	7.0
119.712	2.0
119.727	1.0
119.742	2.0
119.757	6.0
119.772	3.0
119.787	1.0
119.802	3.0
119.817	1.0
119.831	5.0
119.846	0.0
119.861	3.0
119.876	4.0
119.891	4.0
119.906	2.0
119.921	4.0
119.935	1.0
119.95	4.0
119.965	1.0
119.98	1.0
119.995	4.0
120.01	0.0
120.025	2.0
120.04	6.0
120.054	5.0
120.069	1.0
120.084	1.0
120.099	2.0
120.114	2.0
120.129	1.0
120.144	2.0
120.159	2.0
120.173	1.0
120.188	1.0
120.203	2.0
120.218	2.0
120.233	0.0
120.248	1.0
120.263	1.0
120.277	0.0
120.292	1.0
120.307	0.0
120.322	0.0
120.337	0.0
120.352	0.0
120.367	1.0
120.382	0.0
120.396	0.0
120.411	0.0
120.426	0.0
120.441	0.0
120.456	0.0
120.471	0.0
120.486	0.0
120.501	0.0
120.515	0.0
120.53	0.0
120.545	0.0
120.56	0.0
120.575	0.0
120.59	0.0
120.605	0.0
120.619	0.0
120.634	0.0
120.649	0.0
120.664	0.0
120.679	2.0
120.694	0.0
120.709	0.0
120.724	0.0
120.738	0.0
120.753	0.0
120.768	0.0
120.783	0.0
120.798	1.0
120.813	0.0
120.828	0.0
120.843	1.0
120.857	0.0
120.872	0.0
120.887	0.0
120.902	0.0
120.917	0.0
120.932	0.0
120.947	0.0
120.961	0.0
120.976	0.0
