-1.217	0.0
-1.202	0.0
-1.187	0.0
-1.172	0.0
-1.157	0.0
-1.142	0.0
-1.128	0.0
-1.113	0.0
-1.098	0.0
-1.083	0.0
-1.068	0.0
-1.054	0.0
-1.039	0.0
-1.024	0.0
-1.009	0.0
-0.994	1.0
-0.979	0.0
-0.965	0.0
-0.95	0.0
-0.935	0.0
-0.92	0.0
-0.905	0.0
-0.891	0.0
-0.876	0.0
-0.861	0.0
-0.846	0.0
-0.831	0.0
-0.816	0.0
-0.802	0.0
-0.787	0.0
-0.772	0.0
-0.757	0.0
-0.742	0.0
-0.728	0.0
-0.713	0.0
-0.698	0.0
-0.683	0.0
-0.668	0.0
-0.653	0.0
-0.639	0.0
-0.624	0.0
-0.609	0.0
-0.594	0.0
-0.579	0.0
-0.565	0.0
-0.55	0.0
-0.535	0.0
-0.52	0.0
-0.505	0.0
-0.49	0.0
-0.476	0.0
-0.461	0.0
-0.446	0.0
-0.431	0.0
-0.416	0.0
-0.401	0.0
-0.387	0.0
-0.372	0.0
-0.357	0.0
-0.342	0.0
-0.327	0.0
-0.313	0.0
-0.298	1.0
-0.283	0.0
-0.268	0.0
-0.253	0.0
-0.238	0.0
-0.224	0.0
-0.209	0.0
-0.194	0.0
-0.179	0.0
-0.164	0.0
-0.15	0.0
-0.135	0.0
-0.12	0.0
-0.105	0.0
-0.09	0.0
-0.075	0.0
-0.061	0.0
-0.046	0.0
-0.031	0.0
-0.016	0.0
-0.001	0.0
0.013	0.0
0.028	0.0
0.043	0.0
0.058	0.0
0.073	0.0
0.088	0.0
0.102	0.0
0.117	0.0
0.132	0.0
0.147	0.0
0.162	0.0
0.176	0.0
0.191	0.0
0.206	0.0
0.221	0.0
0.236	0.0
0.251	0.0
0.265	0.0
0.28	0.0
0.295	0.0
0.31	0.0
0.325	0.0
0.339	0.0
0.354	0.0
0.369	0.0
0.384	0.0
0.399	0.0
0.414	0.0
0.428	1.0
0.443	0.0
0.458	0.0
0.473	0.0
0.488	0.0
0.502	1.0
0.517	0.0
0.532	0.0
0.547	0.0
0.562	0.0
0.577	0.0
0.591	0.0
0.606	0.0
0.621	0.0
0.636	0.0
0.651	0.0
0.665	0.0
0.68	0.0
0.695	0.0
0.71	0.0
0.725	0.0
0.74	0.0
0.754	0.0
0.769	0.0
0.784	0.0
0.799	0.0
0.814	0.0
0.828	0.0
0.843	0.0
0.858	0.0
0.873	0.0
0.888	0.0
0.903	0.0
0.917	0.0
0.932	0.0
0.947	0.0
0.962	0.0
0.977	0.0
0.991	0.0
1.006	0.0
1.021	0.0
1.036	0.0
1.051	0.0
1.065	0.0
1.08	0.0
1.095	0.0
1.11	0.0
1.125	0.0
1.14	0.0
1.154	0.0
1.169	0.0
1.184	0.0
1.199	0.0
1.214	0.0
1.228	0.0
1.243	0.0
1.258	0.0
1.273	0.0
1.288	0.0
1.302	0.0
1.317	0.0
1.332	0.0
1.347	0.0
1.362	0.0
1.376	0.0
1.391	0.0
1.406	0.0
1.421	0.0
1.436	1.0
1.45	0.0
1.465	0.0
1.48	0.0
1.495	0.0
1.51	0.0
1.524	0.0
1.539	0.0
1.554	0.0
1.569	0.0
1.584	0.0
1.598	0.0
1.613	0.0
1.628	0.0
1.643	0.0
1.658	1.0
1.672	0.0
1.687	0.0
1.702	0.0
1.717	0.0
1.732	0.0
1.746	0.0
1.761	0.0
1.776	0.0
1.791	0.0
1.806	0.0
1.82	0.0
1.835	0.0
1.85	0.0
1.865	2.0
1.88	0.0
1.894	0.0
1.909	0.0
1.924	0.0
1.939	0.0
1.954	0.0
1.968	1.0
1.983	0.0
1.998	0.0
2.013	0.0
2.028	0.0
2.042	0.0
2.057	0.0
2.072	0.0
2.087	0.0
2.101	0.0
2.116	0.0
2.131	0.0
2.146	0.0
2.161	0.0
2.175	0.0
2.19	0.0
2.205	1.0
2.22	0.0
2.235	0.0
2.249	0.0
2.264	0.0
2.279	1.0
2.294	0.0
2.308	1.0
2.323	0.0
2.338	1.0
2.353	0.0
2.368	0.0
2.382	3.0
2.397	2.0
2.412	0.0
2.427	2.0
2.442	2.0
2.456	3.0
2.471	3.0
2.486	2.0
2.501	1.0
2.515	4.0
2.53	4.0
2.545	3.0
2.56	1.0
2.575	2.0
2.589	3.0
2.604	2.0
2.619	5.0
2.634	1.0
2.649	2.0
2.663	3.0
2.678	1.0
2.693	4.0
2.708	1.0
2.722	2.0
2.737	1.0
2.752	1.0
2.767	1.0
2.782	3.0
2.796	5.0
2.811	5.0
2.826	5.0
2.841	4.0
2.856	6.0
2.87	3.0
2.885	5.0
2.9	2.0
2.915	3.0
2.93	4.0
2.944	2.0
2.959	4.0
2.974	3.0
2.989	3.0
3.004	6.0
3.018	2.0
3.033	6.0
3.048	6.0
3.063	1.0
3.078	1.0
3.092	4.0
3.107	2.0
3.122	3.0
3.137	0.0
3.152	4.0
3.166	6.0
3.181	6.0
3.196	3.0
3.211	3.0
3.226	5.0
3.24	6.0
3.255	6.0
3.27	5.0
3.285	4.0
3.3	5.0
3.315	7.0
3.329	6.0
3.344	2.0
3.359	7.0
3.374	10.0
3.389	4.0
3.403	6.0
3.418	5.0
3.433	2.0
3.448	6.0
3.463	2.0
3.478	2.0
3.492	4.0
3.507	4.0
3.522	3.0
3.537	2.0
3.552	2.0
3.567	9.0
3.581	3.0
3.596	9.0
3.611	9.0
3.626	3.0
3.641	5.0
3.656	2.0
3.671	6.0
3.685	2.0
3.7	8.0
3.715	12.0
3.73	6.0
3.745	6.0
3.76	11.0
3.775	6.0
3.789	3.0
3.804	4.0
3.819	5.0
3.834	9.0
3.849	5.0
3.864	4.0
3.879	9.0
3.894	7.0
3.908	6.0
3.923	6.0
3.938	6.0
3.953	6.0
3.968	6.0
3.983	4.0
3.998	3.0
4.013	5.0
4.027	8.0
4.042	5.0
4.057	5.0
4.072	6.0
4.087	4.0
4.102	4.0
4.117	8.0
4.132	7.0
4.147	4.0
4.162	7.0
4.176	9.0
4.191	6.0
4.206	5.0
4.221	4.0
4.236	9.0
4.251	8.0
4.266	6.0
4.281	8.0
4.296	3.0
4.311	6.0
4.326	9.0
4.341	4.0
4.356	7.0
4.37	6.0
4.385	7.0
4.4	7.0
4.415	8.0
4.43	10.0
4.445	10.0
4.46	4.0
4.475	7.0
4.49	3.0
4.505	19.0
4.52	6.0
4.535	4.0
4.55	5.0
4.565	11.0
4.58	13.0
4.595	7.0
4.61	11.0
4.625	9.0
4.639	4.0
4.654	7.0
4.669	10.0
4.684	5.0
4.699	5.0
4.714	10.0
4.729	4.0
4.744	7.0
4.759	4.0
4.774	5.0
4.789	6.0
4.804	4.0
4.819	5.0
4.834	5.0
4.849	9.0
4.864	11.0
4.879	8.0
4.894	9.0
4.909	6.0
4.924	8.0
4.939	8.0
4.954	5.0
4.969	7.0
4.984	6.0
4.999	10.0
5.014	8.0
5.029	11.0
5.044	6.0
5.059	6.0
5.074	3.0
5.089	14.0
5.104	7.0
5.119	4.0
5.134	15.0
5.149	9.0
5.164	9.0
5.179	11.0
5.194	7.0
5.209	12.0
5.224	8.0
5.239	7.0
5.254	10.0
5.269	4.0
5.284	10.0
5.299	7.0
5.314	13.0
5.329	9.0
5.344	8.0
5.359	12.0
5.374	10.0
5.389	10.0
5.404	9.0
5.419	8.0
5.434	11.0
5.449	6.0
5.464	10.0
5.479	6.0
5.494	8.0
5.509	6.0
5.524	8.0
5.539	9.0
5.554	8.0
5.569	9.0
5.584	9.0
5.599	11.0
5.614	12.0
5.629	6.0
5.644	6.0
5.659	7.0
5.674	12.0
5.689	12.0
5.704	8.0
5.719	6.0
5.734	8.0
5.749	10.0
5.764	11.0
5.779	10.0
5.794	6.0
5.809	12.0
5.824	12.0
5.839	12.0
5.854	8.0
5.869	8.0
5.884	7.0
5.899	10.0
5.914	13.0
5.929	9.0
5.944	7.0
5.959	5.0
5.974	6.0
5.989	9.0
6.004	13.0
6.019	10.0
6.034	11.0
6.049	12.0
6.064	5.0
6.079	6.0
6.094	10.0
6.109	14.0
6.124	7.0
6.139	5.0
6.154	7.0
6.169	12.0
6.184	5.0
6.199	8.0
6.214	9.0
6.229	10.0
6.244	3.0
6.259	13.0
6.274	8.0
6.289	5.0
6.304	16.0
6.319	12.0
6.334	8.0
6.349	10.0
6.364	5.0
6.379	14.0
6.394	5.0
6.409	7.0
6.424	11.0
6.439	8.0
6.454	2.0
6.469	7.0
6.484	6.0
6.499	9.0
6.514	2.0
6.529	10.0
6.544	3.0
6.559	7.0
6.574	21.0
6.589	5.0
6.604	7.0
6.619	7.0
6.634	3.0
6.649	6.0
6.664	10.0
6.679	6.0
6.694	14.0
6.709	9.0
6.724	13.0
6.739	10.0
6.754	14.0
6.769	8.0
6.784	8.0
6.799	10.0
6.814	8.0
6.829	6.0
6.844	8.0
6.859	7.0
6.873	7.0
6.888	7.0
6.903	14.0
6.918	8.0
6.933	9.0
6.948	7.0
6.963	10.0
6.978	7.0
6.993	8.0
7.008	12.0
7.023	8.0
7.038	15.0
7.053	6.0
7.068	13.0
7.083	10.0
7.098	8.0
7.113	6.0
7.128	5.0
7.143	7.0
7.157	7.0
7.172	15.0
7.187	5.0
7.202	9.0
7.217	4.0
7.232	11.0
7.247	5.0
7.262	7.0
7.277	11.0
7.292	7.0
7.307	12.0
7.322	7.0
7.336	8.0
7.351	9.0
7.366	12.0
7.381	13.0
7.396	12.0
7.411	14.0
7.426	8.0
7.441	16.0
7.456	7.0
7.471	8.0
7.485	7.0
7.5	13.0
7.515	7.0
7.53	8.0
7.545	2.0
7.56	10.0
7.575	12.0
7.59	14.0
7.604	11.0
7.619	8.0
7.634	11.0
7.649	6.0
7.664	9.0
7.679	12.0
7.693	9.0
7.708	10.0
7.723	13.0
7.738	10.0
7.753	11.0
7.768	8.0
7.783	6.0
7.797	7.0
7.812	14.0
7.827	12.0
7.842	8.0
7.857	8.0
7.871	13.0
7.886	6.0
7.901	9.0
7.916	12.0
7.931	6.0
7.945	11.0
7.96	11.0
7.975	5.0
7.99	6.0
8.005	12.0
8.019	4.0
8.034	12.0
8.049	4.0
8.064	15.0
8.078	16.0
8.093	9.0
8.108	5.0
8.123	12.0
8.137	7.0
8.152	13.0
8.167	6.0
8.182	10.0
8.196	8.0
8.211	7.0
8.226	8.0
8.241	9.0
8.255	7.0
8.27	9.0
8.285	15.0
8.3	16.0
8.314	13.0
8.329	13.0
8.344	10.0
8.358	11.0
8.373	7.0
8.388	4.0
8.403	7.0
8.417	5.0
8.432	4.0
8.447	6.0
8.461	6.0
8.476	3.0
8.491	5.0
8.505	12.0
8.52	7.0
8.535	13.0
8.55	8.0
8.564	7.0
8.579	14.0
8.594	13.0
8.608	13.0
8.623	5.0
8.638	9.0
8.652	7.0
8.667	8.0
8.682	11.0
8.696	14.0
8.711	8.0
8.726	5.0
8.74	2.0
8.755	11.0
8.77	2.0
8.784	5.0
8.799	11.0
8.814	8.0
8.828	9.0
8.843	9.0
8.858	9.0
8.872	12.0
8.887	8.0
8.902	7.0
8.916	7.0
8.931	11.0
8.946	14.0
8.96	10.0
8.975	8.0
8.99	9.0
9.004	10.0
9.019	12.0
9.034	9.0
9.048	9.0
9.063	11.0
9.077	7.0
9.092	9.0
9.107	7.0
9.121	8.0
9.136	9.0
9.151	10.0
9.165	10.0
9.18	6.0
9.195	11.0
9.209	7.0
9.224	7.0
9.239	14.0
9.253	10.0
9.268	10.0
9.283	10.0
9.297	8.0
9.312	11.0
9.327	4.0
9.341	10.0
9.356	9.0
9.371	5.0
9.385	9.0
9.4	15.0
9.415	6.0
9.429	5.0
9.444	8.0
9.458	9.0
9.473	6.0
9.488	8.0
9.502	7.0
9.517	6.0
9.532	12.0
9.546	12.0
9.561	7.0
9.576	7.0
9.59	8.0
9.605	4.0
9.62	4.0
9.635	11.0
9.649	13.0
9.664	3.0
9.679	8.0
9.693	7.0
9.708	9.0
9.723	6.0
9.737	8.0
9.752	8.0
9.767	7.0
9.781	6.0
9.796	8.0
9.811	12.0
9.825	11.0
9.84	10.0
9.855	10.0
9.87	13.0
9.884	8.0
9.899	7.0
9.914	12.0
9.928	6.0
9.943	5.0
9.958	10.0
9.973	16.0
9.987	7.0
10.002	8.0
10.017	12.0
10.031	7.0
10.046	9.0
10.061	10.0
10.076	4.0
10.09	10.0
10.105	14.0
10.12	9.0
10.135	8.0
10.149	5.0
10.164	6.0
10.179	8.0
10.194	9.0
10.208	11.0
10.223	8.0
10.238	7.0
10.253	10.0
10.267	11.0
10.282	12.0
10.297	7.0
10.312	8.0
10.326	9.0
10.341	7.0
10.356	8.0
10.371	10.0
10.386	15.0
10.4	4.0
10.415	9.0
10.43	12.0
10.445	4.0
10.46	13.0
10.474	7.0
10.489	6.0
10.504	2.0
10.519	9.0
10.533	6.0
10.548	7.0
10.563	7.0
10.578	10.0
10.593	12.0
10.608	8.0
10.622	14.0
10.637	11.0
10.652	6.0
10.667	10.0
10.682	8.0
10.696	8.0
10.711	5.0
10.726	11.0
10.741	7.0
10.756	9.0
10.771	7.0
10.785	3.0
10.8	5.0
10.815	7.0
10.83	7.0
10.845	6.0
10.86	11.0
10.874	5.0
10.889	7.0
10.904	7.0
10.919	10.0
10.934	7.0
10.949	5.0
10.963	9.0
10.978	8.0
10.993	3.0
11.008	8.0
11.023	12.0
11.038	8.0
11.053	10.0
11.067	6.0
11.082	2.0
11.097	2.0
11.112	4.0
11.127	5.0
11.142	7.0
11.157	5.0
11.172	5.0
11.186	8.0
11.201	9.0
11.216	12.0
11.231	8.0
11.246	4.0
11.261	6.0
11.276	7.0
11.291	6.0
11.305	10.0
11.32	10.0
11.335	10.0
11.35	12.0
11.365	9.0
11.38	9.0
11.395	9.0
11.41	12.0
11.424	9.0
11.439	10.0
11.454	11.0
11.469	6.0
11.484	7.0
11.499	4.0
11.514	10.0
11.529	12.0
11.544	5.0
11.558	10.0
11.573	7.0
11.588	9.0
11.603	10.0
11.618	10.0
11.633	14.0
11.648	7.0
11.663	5.0
11.678	10.0
11.693	10.0
11.707	8.0
11.722	6.0
11.737	9.0
11.752	7.0
11.767	7.0
11.782	8.0
11.797	7.0
11.812	12.0
11.827	13.0
11.842	6.0
11.856	5.0
11.871	14.0
11.886	13.0
11.901	4.0
11.916	5.0
11.931	7.0
11.946	9.0
11.961	12.0
11.976	6.0
11.991	10.0
12.006	4.0
12.02	16.0
12.035	7.0
12.05	7.0
12.065	9.0
12.08	8.0
12.095	8.0
12.11	12.0
12.125	9.0
12.14	16.0
12.155	17.0
12.17	15.0
12.184	9.0
12.199	12.0
12.214	9.0
12.229	9.0
12.244	10.0
12.259	14.0
12.274	9.0
12.289	12.0
12.304	8.0
12.319	11.0
12.334	8.0
12.348	7.0
12.363	11.0
12.378	10.0
12.393	10.0
12.408	18.0
12.423	16.0
12.438	15.0
12.453	19.0
12.468	12.0
12.483	12.0
12.498	6.0
12.513	10.0
12.527	9.0
12.542	13.0
12.557	17.0
12.572	12.0
12.587	13.0
12.602	12.0
12.617	9.0
12.632	13.0
12.647	11.0
12.662	9.0
12.677	14.0
12.692	15.0
12.707	12.0
12.721	16.0
12.736	9.0
12.751	17.0
12.766	15.0
12.781	8.0
12.796	21.0
12.811	16.0
12.826	13.0
12.841	14.0
12.856	16.0
12.871	15.0
12.886	19.0
12.9	16.0
12.915	17.0
12.93	13.0
12.945	12.0
12.96	17.0
12.975	14.0
12.99	16.0
13.005	7.0
13.02	24.0
13.035	17.0
13.05	23.0
13.065	16.0
13.08	27.0
13.094	19.0
13.109	12.0
13.124	16.0
13.139	21.0
13.154	16.0
13.169	14.0
13.184	23.0
13.199	14.0
13.214	19.0
13.229	17.0
13.244	12.0
13.259	29.0
13.274	17.0
13.288	18.0
13.303	26.0
13.318	25.0
13.333	23.0
13.348	21.0
13.363	22.0
13.378	18.0
13.393	25.0
13.408	22.0
13.423	21.0
13.438	28.0
13.453	25.0
13.468	32.0
13.482	40.0
13.497	48.0
13.512	52.0
13.527	44.0
13.542	42.0
13.557	34.0
13.572	78.0
13.587	49.0
13.602	75.0
13.617	68.0
13.632	65.0
13.647	76.0
13.662	78.0
13.677	103.0
13.691	88.0
13.706	79.0
13.721	97.0
13.736	114.0
13.751	96.0
13.766	115.0
13.781	118.0
13.796	134.0
13.811	103.0
13.826	127.0
13.841	100.0
13.856	111.0
13.871	101.0
13.885	114.0
13.9	99.0
13.915	82.0
13.93	75.0
13.945	54.0
13.96	51.0
13.975	49.0
13.99	29.0
14.005	41.0
14.02	26.0
14.035	31.0
14.05	27.0
14.065	27.0
14.08	21.0
14.094	28.0
14.109	32.0
14.124	20.0
14.139	27.0
14.154	16.0
14.169	23.0
14.184	26.0
14.199	24.0
14.214	24.0
14.229	22.0
14.244	23.0
14.259	23.0
14.274	20.0
14.288	21.0
14.303	21.0
14.318	25.0
14.333	16.0
14.348	21.0
14.363	16.0
14.378	21.0
14.393	10.0
14.408	16.0
14.423	16.0
14.438	20.0
14.453	20.0
14.468	23.0
14.482	18.0
14.497	14.0
14.512	15.0
14.527	21.0
14.542	21.0
14.557	17.0
14.572	10.0
14.587	21.0
14.602	22.0
14.617	19.0
14.632	16.0
14.647	21.0
14.661	13.0
14.676	19.0
14.691	16.0
14.706	21.0
14.721	19.0
14.736	19.0
14.751	13.0
14.766	17.0
14.781	11.0
14.796	25.0
14.811	13.0
14.826	24.0
14.84	17.0
14.855	21.0
14.87	20.0
14.885	10.0
14.9	19.0
14.915	24.0
14.93	20.0
14.945	12.0
14.96	18.0
14.975	8.0
14.989	13.0
15.004	13.0
15.019	14.0
15.034	21.0
15.049	15.0
15.064	22.0
15.079	14.0
15.094	13.0
15.109	19.0
15.124	14.0
15.138	10.0
15.153	17.0
15.168	15.0
15.183	21.0
15.198	10.0
15.213	17.0
15.228	18.0
15.243	13.0
15.258	10.0
15.272	12.0
15.287	15.0
15.302	18.0
15.317	18.0
15.332	8.0
15.347	11.0
15.362	16.0
15.377	10.0
15.391	22.0
15.406	20.0
15.421	11.0
15.436	22.0
15.451	12.0
15.466	13.0
15.481	22.0
15.496	15.0
15.51	16.0
15.525	14.0
15.54	10.0
15.555	11.0
15.57	20.0
15.585	17.0
15.6	15.0
15.614	16.0
15.629	15.0
15.644	18.0
15.659	10.0
15.674	12.0
15.689	19.0
15.704	12.0
15.718	15.0
15.733	13.0
15.748	13.0
15.763	22.0
15.778	17.0
15.793	14.0
15.808	28.0
15.822	12.0
15.837	16.0
15.852	12.0
15.867	14.0
15.882	18.0
15.897	13.0
15.911	18.0
15.926	7.0
15.941	17.0
15.956	12.0
15.971	14.0
15.986	21.0
16.0	14.0
16.015	15.0
16.03	10.0
16.045	31.0
16.06	24.0
16.074	16.0
16.089	15.0
16.104	17.0
16.119	11.0
16.134	15.0
16.149	17.0
16.163	20.0
16.178	13.0
16.193	14.0
16.208	16.0
16.223	15.0
16.237	9.0
16.252	9.0
16.267	8.0
16.282	14.0
16.297	18.0
16.311	6.0
16.326	21.0
16.341	17.0
16.356	13.0
16.37	11.0
16.385	13.0
16.4	12.0
16.415	12.0
16.43	16.0
16.444	15.0
16.459	25.0
16.474	22.0
16.489	15.0
16.504	15.0
16.518	19.0
16.533	17.0
16.548	15.0
16.563	27.0
16.577	11.0
16.592	21.0
16.607	18.0
16.622	16.0
16.637	37.0
16.651	14.0
16.666	24.0
16.681	17.0
16.696	26.0
16.71	27.0
16.725	26.0
16.74	29.0
16.755	36.0
16.77	34.0
16.784	35.0
16.799	38.0
16.814	32.0
16.829	42.0
16.843	47.0
16.858	48.0
16.873	58.0
16.888	59.0
16.902	57.0
16.917	73.0
16.932	71.0
16.947	70.0
16.961	73.0
16.976	85.0
16.991	79.0
17.006	63.0
17.021	73.0
17.035	39.0
17.05	30.0
17.065	43.0
17.08	44.0
17.094	44.0
17.109	30.0
17.124	27.0
17.139	23.0
17.153	13.0
17.168	21.0
17.183	17.0
17.198	12.0
17.212	17.0
17.227	11.0
17.242	12.0
17.257	12.0
17.271	20.0
17.286	23.0
17.301	8.0
17.316	12.0
17.33	16.0
17.345	20.0
17.36	14.0
17.375	17.0
17.39	18.0
17.404	19.0
17.419	10.0
17.434	12.0
17.449	7.0
17.463	13.0
17.478	18.0
17.493	16.0
17.508	12.0
17.522	13.0
17.537	14.0
17.552	10.0
17.567	6.0
17.581	7.0
17.596	15.0
17.611	19.0
17.626	21.0
17.641	11.0
17.655	8.0
17.67	10.0
17.685	15.0
17.7	10.0
17.714	15.0
17.729	16.0
17.744	10.0
17.759	13.0
17.773	13.0
17.788	10.0
17.803	15.0
17.818	9.0
17.833	9.0
17.847	16.0
17.862	10.0
17.877	9.0
17.892	7.0
17.906	12.0
17.921	18.0
17.936	10.0
17.951	17.0
17.966	18.0
17.98	10.0
17.995	13.0
18.01	7.0
18.025	8.0
18.04	6.0
18.054	14.0
18.069	16.0
18.084	20.0
18.099	13.0
18.114	12.0
18.128	20.0
18.143	15.0
18.158	17.0
18.173	11.0
18.188	7.0
18.202	19.0
18.217	11.0
18.232	9.0
18.247	16.0
18.262	7.0
18.276	12.0
18.291	10.0
18.306	18.0
18.321	12.0
18.336	12.0
18.35	13.0
18.365	9.0
18.38	9.0
18.395	12.0
18.41	9.0
18.424	15.0
18.439	9.0
18.454	8.0
18.469	12.0
18.484	18.0
18.498	16.0
18.513	14.0
18.528	11.0
18.543	13.0
18.558	17.0
18.573	15.0
18.587	16.0
18.602	12.0
18.617	14.0
18.632	8.0
18.647	10.0
18.661	11.0
18.676	19.0
18.691	11.0
18.706	8.0
18.721	10.0
18.736	16.0
18.75	4.0
18.765	6.0
18.78	11.0
18.795	11.0
18.81	15.0
18.825	12.0
18.839	10.0
18.854	18.0
18.869	12.0
18.884	10.0
18.899	9.0
18.913	15.0
18.928	10.0
18.943	8.0
18.958	13.0
18.973	9.0
18.988	10.0
19.002	11.0
19.017	7.0
19.032	14.0
19.047	6.0
19.062	8.0
19.077	13.0
19.091	15.0
19.106	11.0
19.121	10.0
19.136	14.0
19.151	15.0
19.165	17.0
19.18	17.0
19.195	15.0
19.21	13.0
19.225	15.0
19.24	12.0
19.254	14.0
19.269	15.0
19.284	12.0
19.299	15.0
19.314	9.0
19.329	24.0
19.343	25.0
19.358	15.0
19.373	10.0
19.388	13.0
19.403	16.0
19.417	12.0
19.432	30.0
19.447	28.0
19.462	17.0
19.477	34.0
19.492	29.0
19.506	27.0
19.521	32.0
19.536	37.0
19.551	47.0
19.566	52.0
19.58	40.0
19.595	36.0
19.61	42.0
19.625	42.0
19.64	31.0
19.655	39.0
19.669	34.0
19.684	35.0
19.699	40.0
19.714	36.0
19.729	29.0
19.743	24.0
19.758	22.0
19.773	14.0
19.788	18.0
19.803	15.0
19.817	14.0
19.832	8.0
19.847	8.0
19.862	11.0
19.877	13.0
19.891	12.0
19.906	13.0
19.921	13.0
19.936	14.0
19.951	14.0
19.965	14.0
19.98	9.0
19.995	11.0
20.01	12.0
20.025	6.0
20.039	9.0
20.054	16.0
20.069	17.0
20.084	12.0
20.099	14.0
20.113	11.0
20.128	7.0
20.143	9.0
20.158	11.0
20.173	16.0
20.187	20.0
20.202	11.0
20.217	11.0
20.232	12.0
20.246	16.0
20.261	12.0
20.276	18.0
20.291	14.0
20.306	11.0
20.32	18.0
20.335	11.0
20.35	13.0
20.365	15.0
20.38	13.0
20.394	7.0
20.409	11.0
20.424	4.0
20.439	13.0
20.453	19.0
20.468	12.0
20.483	8.0
20.498	7.0
20.513	12.0
20.527	10.0
20.542	11.0
20.557	14.0
20.572	12.0
20.586	13.0
20.601	9.0
20.616	8.0
20.631	8.0
20.646	8.0
20.66	11.0
20.675	9.0
20.69	18.0
20.705	14.0
20.719	10.0
20.734	12.0
20.749	12.0
20.764	8.0
20.779	13.0
20.793	10.0
20.808	11.0
20.823	18.0
20.838	13.0
20.853	13.0
20.867	17.0
20.882	12.0
20.897	7.0
20.912	12.0
20.926	21.0
20.941	10.0
20.956	10.0
20.971	10.0
20.986	17.0
21.0	11.0
21.015	14.0
21.03	10.0
21.045	4.0
21.06	11.0
21.074	12.0
21.089	7.0
21.104	9.0
21.119	14.0
21.134	11.0
21.148	17.0
21.163	8.0
21.178	10.0
21.193	12.0
21.208	9.0
21.222	14.0
21.237	13.0
21.252	8.0
21.267	19.0
21.282	6.0
21.296	6.0
21.311	16.0
21.326	7.0
21.341	11.0
21.356	6.0
21.37	11.0
21.385	11.0
21.4	15.0
21.415	11.0
21.43	7.0
21.444	11.0
21.459	14.0
21.474	11.0
21.489	15.0
21.504	11.0
21.519	14.0
21.533	13.0
21.548	17.0
21.563	14.0
21.578	25.0
21.593	11.0
21.608	17.0
21.622	19.0
21.637	16.0
21.652	15.0
21.667	11.0
21.682	15.0
21.697	20.0
21.712	22.0
21.726	18.0
21.741	24.0
21.756	32.0
21.771	35.0
21.786	33.0
21.801	45.0
21.816	46.0
21.83	46.0
21.845	59.0
21.86	57.0
21.875	59.0
21.89	80.0
21.905	64.0
21.92	71.0
21.935	94.0
21.949	65.0
21.964	82.0
21.979	89.0
21.994	95.0
22.009	83.0
22.024	65.0
22.039	67.0
22.054	50.0
22.069	61.0
22.083	53.0
22.098	34.0
22.113	38.0
22.128	38.0
22.143	29.0
22.158	18.0
22.173	21.0
22.188	13.0
22.203	16.0
22.218	18.0
22.233	19.0
22.248	16.0
22.262	8.0
22.277	13.0
22.292	8.0
22.307	16.0
22.322	14.0
22.337	14.0
22.352	10.0
22.367	14.0
22.382	9.0
22.397	13.0
22.412	7.0
22.427	10.0
22.442	23.0
22.457	8.0
22.472	11.0
22.487	10.0
22.502	12.0
22.516	10.0
22.531	17.0
22.546	17.0
22.561	13.0
22.576	13.0
22.591	15.0
22.606	8.0
22.621	9.0
22.636	18.0
22.651	22.0
22.666	9.0
22.681	8.0
22.696	11.0
22.711	12.0
22.726	6.0
22.741	17.0
22.756	13.0
22.771	8.0
22.786	20.0
22.801	11.0
22.816	15.0
22.831	12.0
22.846	13.0
22.861	10.0
22.876	13.0
22.891	12.0
22.906	11.0
22.92	15.0
22.935	16.0
22.95	9.0
22.965	9.0
22.98	7.0
22.995	13.0
23.01	12.0
23.025	15.0
23.04	12.0
23.055	13.0
23.07	5.0
23.085	13.0
23.1	8.0
23.115	6.0
23.13	5.0
23.145	12.0
23.16	10.0
23.175	5.0
23.19	13.0
23.205	10.0
23.22	6.0
23.235	9.0
23.25	9.0
23.265	12.0
23.28	9.0
23.295	13.0
23.31	15.0
23.325	16.0
23.34	9.0
23.355	10.0
23.37	8.0
23.384	8.0
23.399	9.0
23.414	13.0
23.429	14.0
23.444	11.0
23.459	10.0
23.474	12.0
23.489	11.0
23.504	17.0
23.519	10.0
23.534	11.0
23.549	10.0
23.564	9.0
23.579	16.0
23.594	11.0
23.609	11.0
23.624	9.0
23.639	12.0
23.654	13.0
23.668	9.0
23.683	13.0
23.698	8.0
23.713	9.0
23.728	15.0
23.743	16.0
23.758	12.0
23.773	14.0
23.788	12.0
23.803	14.0
23.818	12.0
23.833	15.0
23.848	17.0
23.862	17.0
23.877	19.0
23.892	22.0
23.907	24.0
23.922	29.0
23.937	19.0
23.952	32.0
23.967	40.0
23.982	29.0
23.997	40.0
24.011	47.0
24.026	47.0
24.041	52.0
24.056	38.0
24.071	51.0
24.086	52.0
24.101	64.0
24.116	53.0
24.131	42.0
24.145	36.0
24.16	34.0
24.175	41.0
24.19	42.0
24.205	38.0
24.22	34.0
24.235	27.0
24.249	40.0
24.264	23.0
24.279	26.0
24.294	28.0
24.309	20.0
24.324	12.0
24.338	13.0
24.353	20.0
24.368	17.0
24.383	23.0
24.398	10.0
24.413	12.0
24.428	12.0
24.442	24.0
24.457	16.0
24.472	10.0
24.487	17.0
24.502	13.0
24.516	11.0
24.531	5.0
24.546	8.0
24.561	6.0
24.576	10.0
24.591	11.0
24.605	18.0
24.62	8.0
24.635	11.0
24.65	9.0
24.665	15.0
24.679	10.0
24.694	7.0
24.709	7.0
24.724	9.0
24.739	9.0
24.753	7.0
24.768	10.0
24.783	13.0
24.798	14.0
24.813	7.0
24.827	11.0
24.842	9.0
24.857	4.0
24.872	15.0
24.886	10.0
24.901	9.0
24.916	22.0
24.931	10.0
24.946	14.0
24.96	14.0
24.975	9.0
24.99	10.0
25.005	2.0
25.019	10.0
25.034	12.0
25.049	10.0
25.064	6.0
25.078	9.0
25.093	16.0
25.108	8.0
25.123	7.0
25.138	8.0
25.152	13.0
25.167	8.0
25.182	11.0
25.197	11.0
25.211	14.0
25.226	7.0
25.241	10.0
25.256	6.0
25.27	6.0
25.285	8.0
25.3	9.0
25.315	11.0
25.329	12.0
25.344	10.0
25.359	9.0
25.374	7.0
25.388	8.0
25.403	12.0
25.418	12.0
25.433	7.0
25.447	8.0
25.462	12.0
25.477	11.0
25.492	2.0
25.506	13.0
25.521	12.0
25.536	15.0
25.55	9.0
25.565	8.0
25.58	12.0
25.595	13.0
25.609	10.0
25.624	9.0
25.639	11.0
25.654	9.0
25.668	9.0
25.683	6.0
25.698	9.0
25.713	7.0
25.727	11.0
25.742	16.0
25.757	6.0
25.772	11.0
25.786	8.0
25.801	10.0
25.816	14.0
25.83	9.0
25.845	10.0
25.86	19.0
25.875	8.0
25.889	9.0
25.904	9.0
25.919	11.0
25.934	7.0
25.948	16.0
25.963	11.0
25.978	6.0
25.992	11.0
26.007	10.0
26.022	6.0
26.037	8.0
26.051	6.0
26.066	13.0
26.081	9.0
26.096	14.0
26.11	9.0
26.125	15.0
26.14	7.0
26.155	14.0
26.169	6.0
26.184	9.0
26.199	12.0
26.213	5.0
26.228	11.0
26.243	9.0
26.258	11.0
26.272	10.0
26.287	7.0
26.302	7.0
26.317	13.0
26.331	9.0
26.346	11.0
26.361	9.0
26.376	13.0
26.39	10.0
26.405	10.0
26.42	8.0
26.434	5.0
26.449	17.0
26.464	10.0
26.479	11.0
26.493	11.0
26.508	5.0
26.523	12.0
26.538	9.0
26.552	12.0
26.567	17.0
26.582	12.0
26.597	14.0
26.611	14.0
26.626	12.0
26.641	9.0
26.656	10.0
26.67	9.0
26.685	9.0
26.7	7.0
26.715	10.0
26.729	12.0
26.744	8.0
26.759	17.0
26.773	14.0
26.788	10.0
26.803	3.0
26.818	10.0
26.832	11.0
26.847	9.0
26.862	8.0
26.877	15.0
26.891	6.0
26.906	5.0
26.921	4.0
26.936	15.0
26.95	12.0
26.965	9.0
26.98	7.0
26.995	8.0
27.01	10.0
27.024	11.0
27.039	12.0
27.054	10.0
27.069	5.0
27.083	8.0
27.098	12.0
27.113	9.0
27.128	7.0
27.142	6.0
27.157	5.0
27.172	10.0
27.187	7.0
27.201	12.0
27.216	8.0
27.231	16.0
27.246	11.0
27.261	10.0
27.275	7.0
27.29	10.0
27.305	11.0
27.32	9.0
27.334	10.0
27.349	16.0
27.364	11.0
27.379	9.0
27.394	12.0
27.408	8.0
27.423	12.0
27.438	4.0
27.453	6.0
27.467	5.0
27.482	14.0
27.497	12.0
27.512	13.0
27.527	16.0
27.541	12.0
27.556	9.0
27.571	14.0
27.586	8.0
27.601	10.0
27.615	5.0
27.63	11.0
27.645	15.0
27.66	11.0
27.675	9.0
27.689	13.0
27.704	17.0
27.719	16.0
27.734	11.0
27.749	13.0
27.763	25.0
27.778	16.0
27.793	11.0
27.808	19.0
27.823	22.0
27.838	21.0
27.852	21.0
27.867	27.0
27.882	31.0
27.897	16.0
27.912	23.0
27.926	19.0
27.941	16.0
27.956	19.0
27.971	20.0
27.986	17.0
28.001	20.0
28.015	29.0
28.03	13.0
28.045	20.0
28.06	23.0
28.075	20.0
28.09	12.0
28.105	15.0
28.119	9.0
28.134	10.0
28.149	8.0
28.164	11.0
28.179	8.0
28.194	12.0
28.208	16.0
28.223	14.0
28.238	9.0
28.253	12.0
28.268	12.0
28.283	12.0
28.298	14.0
28.312	10.0
28.327	10.0
28.342	14.0
28.357	13.0
28.372	17.0
28.387	14.0
28.402	10.0
28.417	10.0
28.431	6.0
28.446	15.0
28.461	18.0
28.476	12.0
28.491	9.0
28.506	6.0
28.521	9.0
28.536	12.0
28.55	16.0
28.565	9.0
28.58	11.0
28.595	16.0
28.61	8.0
28.625	11.0
28.64	13.0
28.655	11.0
28.669	11.0
28.684	8.0
28.699	10.0
28.714	10.0
28.729	8.0
28.744	9.0
28.759	11.0
28.774	7.0
28.788	6.0
28.803	5.0
28.818	6.0
28.833	9.0
28.848	11.0
28.863	9.0
28.878	6.0
28.893	7.0
28.908	7.0
28.922	8.0
28.937	9.0
28.952	13.0
28.967	11.0
28.982	22.0
28.997	10.0
29.012	17.0
29.027	9.0
29.041	15.0
29.056	7.0
29.071	13.0
29.086	11.0
29.101	19.0
29.116	8.0
29.131	15.0
29.146	10.0
29.16	10.0
29.175	12.0
29.19	8.0
29.205	10.0
29.22	14.0
29.235	8.0
29.25	11.0
29.265	7.0
29.279	15.0
29.294	11.0
29.309	13.0
29.324	13.0
29.339	13.0
29.354	6.0
29.369	16.0
29.384	12.0
29.398	17.0
29.413	17.0
29.428	15.0
29.443	24.0
29.458	18.0
29.473	17.0
29.488	27.0
29.502	35.0
29.517	48.0
29.532	32.0
29.547	39.0
29.562	41.0
29.577	40.0
29.592	44.0
29.606	49.0
29.621	32.0
29.636	61.0
29.651	47.0
29.666	46.0
29.681	34.0
29.695	32.0
29.71	32.0
29.725	36.0
29.74	37.0
29.755	26.0
29.77	46.0
29.784	27.0
29.799	25.0
29.814	30.0
29.829	30.0
29.844	22.0
29.859	37.0
29.873	19.0
29.888	18.0
29.903	23.0
29.918	9.0
29.933	13.0
29.947	11.0
29.962	11.0
29.977	9.0
29.992	14.0
30.007	4.0
30.021	12.0
30.036	15.0
30.051	11.0
30.066	10.0
30.081	12.0
30.095	12.0
30.11	13.0
30.125	8.0
30.14	8.0
30.155	18.0
30.169	14.0
30.184	10.0
30.199	12.0
30.214	12.0
30.228	8.0
30.243	23.0
30.258	13.0
30.273	12.0
30.288	9.0
30.302	12.0
30.317	8.0
30.332	10.0
30.347	9.0
30.361	12.0
30.376	13.0
30.391	12.0
30.406	13.0
30.42	14.0
30.435	8.0
30.45	6.0
30.465	5.0
30.479	10.0
30.494	12.0
30.509	11.0
30.524	21.0
30.538	5.0
30.553	6.0
30.568	9.0
30.583	8.0
30.597	15.0
30.612	9.0
30.627	11.0
30.641	9.0
30.656	4.0
30.671	14.0
30.686	18.0
30.7	11.0
30.715	11.0
30.73	15.0
30.745	12.0
30.759	8.0
30.774	13.0
30.789	14.0
30.803	7.0
30.818	7.0
30.833	11.0
30.848	8.0
30.862	8.0
30.877	13.0
30.892	17.0
30.906	14.0
30.921	10.0
30.936	15.0
30.951	12.0
30.965	11.0
30.98	7.0
30.995	15.0
31.009	14.0
31.024	6.0
31.039	12.0
31.053	13.0
31.068	15.0
31.083	21.0
31.098	23.0
31.112	28.0
31.127	17.0
31.142	20.0
31.156	22.0
31.171	20.0
31.186	33.0
31.2	32.0
31.215	35.0
31.23	38.0
31.245	32.0
31.259	46.0
31.274	36.0
31.289	35.0
31.303	30.0
31.318	29.0
31.333	40.0
31.347	39.0
31.362	33.0
31.377	28.0
31.392	40.0
31.406	19.0
31.421	34.0
31.436	23.0
31.45	22.0
31.465	21.0
31.48	20.0
31.494	33.0
31.509	22.0
31.524	19.0
31.538	20.0
31.553	19.0
31.568	18.0
31.583	12.0
31.597	9.0
31.612	12.0
31.627	17.0
31.641	6.0
31.656	9.0
31.671	11.0
31.685	12.0
31.7	13.0
31.715	20.0
31.729	13.0
31.744	16.0
31.759	10.0
31.774	1.0
31.788	8.0
31.803	12.0
31.818	11.0
31.832	12.0
31.847	15.0
31.862	8.0
31.876	8.0
31.891	15.0
31.906	12.0
31.92	19.0
31.935	21.0
31.95	7.0
31.965	7.0
31.979	11.0
31.994	13.0
32.009	10.0
32.023	11.0
32.038	11.0
32.053	20.0
32.067	7.0
32.082	8.0
32.097	14.0
32.112	10.0
32.126	12.0
32.141	8.0
32.156	7.0
32.17	10.0
32.185	11.0
32.2	10.0
32.214	16.0
32.229	6.0
32.244	13.0
32.259	11.0
32.273	10.0
32.288	6.0
32.303	15.0
32.317	8.0
32.332	12.0
32.347	8.0
32.362	16.0
32.376	16.0
32.391	9.0
32.406	6.0
32.42	14.0
32.435	16.0
32.45	8.0
32.465	11.0
32.479	14.0
32.494	8.0
32.509	5.0
32.523	14.0
32.538	8.0
32.553	10.0
32.568	12.0
32.582	8.0
32.597	7.0
32.612	12.0
32.627	16.0
32.641	12.0
32.656	8.0
32.671	16.0
32.685	13.0
32.7	20.0
32.715	18.0
32.73	14.0
32.744	18.0
32.759	32.0
32.774	14.0
32.788	18.0
32.803	30.0
32.818	29.0
32.833	32.0
32.847	27.0
32.862	29.0
32.877	25.0
32.892	22.0
32.906	18.0
32.921	23.0
32.936	19.0
32.951	15.0
32.965	14.0
32.98	20.0
32.995	13.0
33.009	25.0
33.024	14.0
33.039	17.0
33.054	18.0
33.068	22.0
33.083	21.0
33.098	23.0
33.113	11.0
33.127	12.0
33.142	11.0
33.157	8.0
33.172	11.0
33.186	5.0
33.201	7.0
33.216	12.0
33.231	7.0
33.245	10.0
33.26	10.0
33.275	8.0
33.29	10.0
33.304	5.0
33.319	10.0
33.334	14.0
33.349	8.0
33.363	8.0
33.378	12.0
33.393	7.0
33.408	7.0
33.422	11.0
33.437	5.0
33.452	14.0
33.467	7.0
33.481	9.0
33.496	13.0
33.511	9.0
33.526	11.0
33.54	8.0
33.555	9.0
33.57	8.0
33.585	12.0
33.599	12.0
33.614	9.0
33.629	10.0
33.644	7.0
33.658	10.0
33.673	11.0
33.688	15.0
33.703	10.0
33.718	16.0
33.732	15.0
33.747	10.0
33.762	13.0
33.777	7.0
33.791	6.0
33.806	8.0
33.821	7.0
33.836	8.0
33.85	7.0
33.865	15.0
33.88	8.0
33.895	12.0
33.91	6.0
33.924	9.0
33.939	9.0
33.954	7.0
33.969	14.0
33.983	11.0
33.998	8.0
34.013	11.0
34.028	10.0
34.042	5.0
34.057	10.0
34.072	9.0
34.087	6.0
34.102	14.0
34.116	12.0
34.131	11.0
34.146	10.0
34.161	7.0
34.175	9.0
34.19	13.0
34.205	4.0
34.22	10.0
34.235	14.0
34.249	9.0
34.264	16.0
34.279	11.0
34.294	15.0
34.309	13.0
34.323	11.0
34.338	14.0
34.353	14.0
34.368	13.0
34.382	14.0
34.397	12.0
34.412	14.0
34.427	19.0
34.442	17.0
34.456	7.0
34.471	11.0
34.486	9.0
34.501	12.0
34.516	8.0
34.53	14.0
34.545	14.0
34.56	9.0
34.575	6.0
34.59	5.0
34.604	6.0
34.619	7.0
34.634	9.0
34.649	12.0
34.664	12.0
34.678	9.0
34.693	5.0
34.708	9.0
34.723	5.0
34.738	10.0
34.752	9.0
34.767	7.0
34.782	4.0
34.797	8.0
34.812	12.0
34.826	7.0
34.841	9.0
34.856	7.0
34.871	14.0
34.886	6.0
34.9	7.0
34.915	6.0
34.93	16.0
34.945	13.0
34.96	16.0
34.974	9.0
34.989	7.0
35.004	8.0
35.019	8.0
35.034	8.0
35.048	19.0
35.063	4.0
35.078	11.0
35.093	14.0
35.108	8.0
35.122	8.0
35.137	10.0
35.152	10.0
35.167	11.0
35.182	7.0
35.196	11.0
35.211	12.0
35.226	7.0
35.241	11.0
35.256	16.0
35.27	7.0
35.285	10.0
35.3	8.0
35.315	7.0
35.33	12.0
35.344	7.0
35.359	7.0
35.374	9.0
35.389	16.0
35.404	7.0
35.418	8.0
35.433	10.0
35.448	8.0
35.463	7.0
35.478	8.0
35.493	13.0
35.507	13.0
35.522	11.0
35.537	7.0
35.552	11.0
35.567	6.0
35.581	18.0
35.596	8.0
35.611	11.0
35.626	9.0
35.641	16.0
35.655	10.0
35.67	9.0
35.685	13.0
35.7	11.0
35.715	11.0
35.729	14.0
35.744	16.0
35.759	18.0
35.774	18.0
35.789	20.0
35.804	17.0
35.818	10.0
35.833	20.0
35.848	18.0
35.863	6.0
35.878	16.0
35.892	11.0
35.907	11.0
35.922	9.0
35.937	8.0
35.952	14.0
35.966	20.0
35.981	14.0
35.996	16.0
36.011	14.0
36.026	10.0
36.04	9.0
36.055	15.0
36.07	14.0
36.085	17.0
36.1	10.0
36.114	11.0
36.129	10.0
36.144	9.0
36.159	12.0
36.174	8.0
36.189	9.0
36.203	8.0
36.218	9.0
36.233	8.0
36.248	13.0
36.263	4.0
36.277	7.0
36.292	3.0
36.307	11.0
36.322	12.0
36.337	8.0
36.351	8.0
36.366	13.0
36.381	7.0
36.396	2.0
36.411	4.0
36.426	13.0
36.44	2.0
36.455	12.0
36.47	5.0
36.485	10.0
36.5	10.0
36.514	14.0
36.529	5.0
36.544	5.0
36.559	3.0
36.574	6.0
36.589	10.0
36.603	7.0
36.618	5.0
36.633	10.0
36.648	5.0
36.663	7.0
36.677	9.0
36.692	4.0
36.707	6.0
36.722	9.0
36.737	8.0
36.752	9.0
36.766	9.0
36.781	14.0
36.796	12.0
36.811	9.0
36.826	8.0
36.841	13.0
36.855	7.0
36.87	8.0
36.885	12.0
36.9	6.0
36.915	8.0
36.93	5.0
36.944	9.0
36.959	9.0
36.974	10.0
36.989	8.0
37.004	9.0
37.019	12.0
37.033	13.0
37.048	16.0
37.063	19.0
37.078	19.0
37.093	17.0
37.108	21.0
37.123	20.0
37.137	25.0
37.152	23.0
37.167	29.0
37.182	34.0
37.197	39.0
37.212	23.0
37.226	27.0
37.241	18.0
37.256	22.0
37.271	20.0
37.286	17.0
37.301	21.0
37.316	12.0
37.331	13.0
37.345	15.0
37.36	25.0
37.375	15.0
37.39	20.0
37.405	21.0
37.42	19.0
37.435	17.0
37.45	21.0
37.464	13.0
37.479	12.0
37.494	13.0
37.509	18.0
37.524	10.0
37.539	7.0
37.554	10.0
37.569	11.0
37.583	14.0
37.598	9.0
37.613	12.0
37.628	6.0
37.643	13.0
37.658	9.0
37.673	11.0
37.688	7.0
37.703	7.0
37.718	6.0
37.733	9.0
37.747	9.0
37.762	4.0
37.777	3.0
37.792	4.0
37.807	4.0
37.822	10.0
37.837	7.0
37.852	9.0
37.867	2.0
37.882	4.0
37.897	12.0
37.912	7.0
37.927	9.0
37.941	4.0
37.956	3.0
37.971	6.0
37.986	5.0
38.001	8.0
38.016	6.0
38.031	6.0
38.046	6.0
38.061	4.0
38.076	12.0
38.091	10.0
38.106	8.0
38.121	3.0
38.136	7.0
38.151	5.0
38.166	6.0
38.181	7.0
38.196	5.0
38.211	5.0
38.226	7.0
38.241	6.0
38.256	10.0
38.271	6.0
38.285	9.0
38.3	7.0
38.315	8.0
38.33	7.0
38.345	6.0
38.36	9.0
38.375	5.0
38.39	3.0
38.405	7.0
38.42	6.0
38.435	6.0
38.45	10.0
38.465	7.0
38.48	8.0
38.495	8.0
38.51	4.0
38.525	10.0
38.54	3.0
38.555	4.0
38.57	7.0
38.585	5.0
38.6	9.0
38.615	2.0
38.63	11.0
38.645	6.0
38.66	10.0
38.675	4.0
38.69	5.0
38.705	6.0
38.72	6.0
38.735	9.0
38.75	6.0
38.765	7.0
38.78	8.0
38.795	5.0
38.81	7.0
38.825	6.0
38.84	7.0
38.855	5.0
38.87	9.0
38.885	1.0
38.9	7.0
38.915	6.0
38.93	2.0
38.945	4.0
38.96	7.0
38.975	7.0
38.99	4.0
39.005	6.0
39.02	8.0
39.035	7.0
39.05	6.0
39.065	9.0
39.08	6.0
39.095	5.0
39.11	11.0
39.125	4.0
39.14	5.0
39.155	7.0
39.17	7.0
39.185	4.0
39.2	6.0
39.215	4.0
39.23	9.0
39.245	5.0
39.26	12.0
39.275	6.0
39.29	7.0
39.305	5.0
39.32	10.0
39.335	2.0
39.35	8.0
39.365	5.0
39.38	6.0
39.395	7.0
39.409	4.0
39.424	7.0
39.439	5.0
39.454	3.0
39.469	6.0
39.484	8.0
39.499	6.0
39.514	6.0
39.529	6.0
39.544	4.0
39.559	7.0
39.574	6.0
39.589	3.0
39.604	11.0
39.619	2.0
39.634	7.0
39.649	5.0
39.664	4.0
39.678	4.0
39.693	4.0
39.708	6.0
39.723	7.0
39.738	8.0
39.753	4.0
39.768	5.0
39.783	8.0
39.798	12.0
39.813	7.0
39.827	7.0
39.842	14.0
39.857	6.0
39.872	7.0
39.887	8.0
39.902	6.0
39.917	9.0
39.932	11.0
39.947	3.0
39.961	12.0
39.976	11.0
39.991	6.0
40.006	10.0
40.021	11.0
40.036	16.0
40.051	5.0
40.065	5.0
40.08	10.0
40.095	9.0
40.11	5.0
40.125	6.0
40.14	8.0
40.154	11.0
40.169	5.0
40.184	6.0
40.199	6.0
40.214	6.0
40.228	5.0
40.243	3.0
40.258	8.0
40.273	8.0
40.288	3.0
40.302	3.0
40.317	6.0
40.332	6.0
40.347	5.0
40.362	5.0
40.376	7.0
40.391	7.0
40.406	10.0
40.421	7.0
40.436	5.0
40.45	8.0
40.465	2.0
40.48	8.0
40.495	6.0
40.509	5.0
40.524	3.0
40.539	7.0
40.554	8.0
40.568	6.0
40.583	7.0
40.598	10.0
40.613	9.0
40.627	6.0
40.642	2.0
40.657	6.0
40.672	5.0
40.686	5.0
40.701	5.0
40.716	6.0
40.731	6.0
40.745	9.0
40.76	6.0
40.775	7.0
40.79	7.0
40.804	8.0
40.819	5.0
40.834	6.0
40.849	5.0
40.863	6.0
40.878	3.0
40.893	1.0
40.907	7.0
40.922	11.0
40.937	10.0
40.952	5.0
40.966	10.0
40.981	8.0
40.996	10.0
41.011	6.0
41.025	10.0
41.04	14.0
41.055	13.0
41.069	7.0
41.084	21.0
41.099	19.0
41.114	18.0
41.128	23.0
41.143	26.0
41.158	19.0
41.173	17.0
41.187	18.0
41.202	19.0
41.217	13.0
41.231	11.0
41.246	13.0
41.261	12.0
41.276	7.0
41.29	16.0
41.305	20.0
41.32	11.0
41.335	17.0
41.349	11.0
41.364	12.0
41.379	12.0
41.393	9.0
41.408	16.0
41.423	14.0
41.438	17.0
41.452	9.0
41.467	10.0
41.482	8.0
41.497	13.0
41.511	10.0
41.526	7.0
41.541	9.0
41.556	5.0
41.57	6.0
41.585	4.0
41.6	6.0
41.615	9.0
41.629	7.0
41.644	5.0
41.659	8.0
41.674	2.0
41.688	6.0
41.703	4.0
41.718	5.0
41.733	11.0
41.747	4.0
41.762	8.0
41.777	8.0
41.792	7.0
41.806	7.0
41.821	5.0
41.836	6.0
41.851	9.0
41.866	6.0
41.88	4.0
41.895	4.0
41.91	6.0
41.925	9.0
41.939	3.0
41.954	5.0
41.969	10.0
41.984	1.0
41.999	4.0
42.013	3.0
42.028	3.0
42.043	4.0
42.058	11.0
42.073	4.0
42.088	9.0
42.102	5.0
42.117	9.0
42.132	6.0
42.147	7.0
42.162	7.0
42.176	4.0
42.191	6.0
42.206	9.0
42.221	8.0
42.236	9.0
42.251	3.0
42.266	10.0
42.28	7.0
42.295	4.0
42.31	8.0
42.325	12.0
42.34	13.0
42.355	24.0
42.369	12.0
42.384	12.0
42.399	19.0
42.414	11.0
42.429	20.0
42.444	16.0
42.459	13.0
42.474	15.0
42.488	10.0
42.503	9.0
42.518	12.0
42.533	7.0
42.548	7.0
42.563	6.0
42.578	10.0
42.593	2.0
42.608	9.0
42.622	12.0
42.637	11.0
42.652	16.0
42.667	9.0
42.682	14.0
42.697	14.0
42.712	13.0
42.727	12.0
42.742	12.0
42.757	7.0
42.772	9.0
42.786	8.0
42.801	9.0
42.816	4.0
42.831	9.0
42.846	5.0
42.861	5.0
42.876	3.0
42.891	11.0
42.906	4.0
42.921	3.0
42.936	5.0
42.951	4.0
42.966	6.0
42.981	3.0
42.996	6.0
43.011	5.0
43.025	7.0
43.04	8.0
43.055	3.0
43.07	4.0
43.085	3.0
43.1	5.0
43.115	2.0
43.13	9.0
43.145	3.0
43.16	4.0
43.175	4.0
43.19	5.0
43.205	4.0
43.22	4.0
43.235	6.0
43.25	5.0
43.265	5.0
43.28	4.0
43.295	6.0
43.31	5.0
43.325	8.0
43.34	7.0
43.355	8.0
43.37	7.0
43.385	4.0
43.4	2.0
43.415	6.0
43.43	7.0
43.445	11.0
43.46	7.0
43.475	3.0
43.49	3.0
43.505	7.0
43.52	8.0
43.535	2.0
43.55	8.0
43.565	7.0
43.58	5.0
43.595	12.0
43.61	6.0
43.625	7.0
43.64	13.0
43.655	8.0
43.67	5.0
43.685	6.0
43.7	6.0
43.715	3.0
43.73	7.0
43.745	8.0
43.76	5.0
43.775	10.0
43.79	6.0
43.805	8.0
43.82	9.0
43.835	7.0
43.85	12.0
43.865	7.0
43.88	6.0
43.895	9.0
43.91	12.0
43.925	5.0
43.94	10.0
43.955	3.0
43.97	9.0
43.985	9.0
44.0	9.0
44.015	8.0
44.03	11.0
44.045	2.0
44.061	3.0
44.076	5.0
44.091	9.0
44.106	6.0
44.121	5.0
44.136	1.0
44.151	6.0
44.166	8.0
44.181	4.0
44.196	4.0
44.211	6.0
44.226	4.0
44.241	4.0
44.256	6.0
44.271	4.0
44.286	4.0
44.301	7.0
44.316	7.0
44.331	4.0
44.346	5.0
44.361	7.0
44.377	6.0
44.392	5.0
44.407	3.0
44.422	12.0
44.437	7.0
44.452	7.0
44.467	2.0
44.482	10.0
44.497	6.0
44.512	4.0
44.527	5.0
44.542	2.0
44.557	7.0
44.572	4.0
44.587	4.0
44.602	4.0
44.617	7.0
44.632	3.0
44.647	6.0
44.663	8.0
44.678	2.0
44.693	9.0
44.708	6.0
44.723	9.0
44.738	5.0
44.753	11.0
44.768	7.0
44.783	12.0
44.798	11.0
44.813	9.0
44.828	16.0
44.843	12.0
44.858	12.0
44.873	5.0
44.888	6.0
44.903	10.0
44.918	6.0
44.933	7.0
44.948	8.0
44.964	5.0
44.979	11.0
44.994	9.0
45.009	3.0
45.024	5.0
45.039	7.0
45.054	6.0
45.069	5.0
45.084	7.0
45.099	8.0
45.114	9.0
45.129	12.0
45.144	7.0
45.159	6.0
45.174	13.0
45.189	7.0
45.204	11.0
45.219	6.0
45.234	4.0
45.249	5.0
45.264	2.0
45.279	5.0
45.294	4.0
45.309	3.0
45.324	7.0
45.339	6.0
45.354	4.0
45.369	5.0
45.384	0.0
45.399	3.0
45.414	4.0
45.429	4.0
45.444	3.0
45.459	2.0
45.474	5.0
45.489	7.0
45.504	5.0
45.519	5.0
45.534	10.0
45.549	5.0
45.564	5.0
45.579	1.0
45.594	2.0
45.609	8.0
45.624	4.0
45.639	9.0
45.654	8.0
45.669	12.0
45.684	6.0
45.699	3.0
45.714	6.0
45.729	10.0
45.744	6.0
45.759	2.0
45.774	3.0
45.789	3.0
45.804	6.0
45.819	8.0
45.834	6.0
45.849	11.0
45.864	9.0
45.879	10.0
45.894	11.0
45.909	11.0
45.924	15.0
45.939	9.0
45.954	22.0
45.969	14.0
45.984	19.0
45.998	23.0
46.013	19.0
46.028	14.0
46.043	10.0
46.058	15.0
46.073	7.0
46.088	10.0
46.103	9.0
46.118	12.0
46.133	6.0
46.148	9.0
46.163	8.0
46.178	6.0
46.192	6.0
46.207	11.0
46.222	16.0
46.237	6.0
46.252	16.0
46.267	10.0
46.282	11.0
46.297	12.0
46.312	10.0
46.327	13.0
46.341	11.0
46.356	12.0
46.371	4.0
46.386	6.0
46.401	6.0
46.416	6.0
46.431	4.0
46.446	8.0
46.46	7.0
46.475	5.0
46.49	6.0
46.505	4.0
46.52	10.0
46.535	6.0
46.55	2.0
46.564	3.0
46.579	4.0
46.594	7.0
46.609	4.0
46.624	3.0
46.639	5.0
46.654	8.0
46.668	4.0
46.683	3.0
46.698	3.0
46.713	5.0
46.728	6.0
46.743	3.0
46.758	7.0
46.772	3.0
46.787	6.0
46.802	9.0
46.817	6.0
46.832	3.0
46.847	9.0
46.861	4.0
46.876	7.0
46.891	4.0
46.906	5.0
46.921	4.0
46.936	5.0
46.95	8.0
46.965	3.0
46.98	9.0
46.995	8.0
47.01	4.0
47.025	9.0
47.039	8.0
47.054	8.0
47.069	10.0
47.084	7.0
47.099	12.0
47.113	10.0
47.128	17.0
47.143	4.0
47.158	12.0
47.173	14.0
47.188	10.0
47.202	7.0
47.217	11.0
47.232	6.0
47.247	12.0
47.262	7.0
47.277	7.0
47.291	5.0
47.306	5.0
47.321	8.0
47.336	6.0
47.351	4.0
47.365	5.0
47.38	5.0
47.395	7.0
47.41	9.0
47.425	3.0
47.44	5.0
47.454	9.0
47.469	4.0
47.484	10.0
47.499	6.0
47.514	12.0
47.528	6.0
47.543	3.0
47.558	4.0
47.573	2.0
47.588	6.0
47.603	7.0
47.617	1.0
47.632	6.0
47.647	4.0
47.662	3.0
47.677	8.0
47.691	2.0
47.706	3.0
47.721	3.0
47.736	5.0
47.751	3.0
47.766	3.0
47.78	3.0
47.795	3.0
47.81	4.0
47.825	2.0
47.84	8.0
47.855	4.0
47.869	6.0
47.884	10.0
47.899	2.0
47.914	8.0
47.929	0.0
47.944	7.0
47.958	2.0
47.973	8.0
47.988	4.0
48.003	5.0
48.018	4.0
48.033	7.0
48.047	6.0
48.062	1.0
48.077	3.0
48.092	6.0
48.107	2.0
48.122	6.0
48.137	2.0
48.151	4.0
48.166	5.0
48.181	2.0
48.196	5.0
48.211	8.0
48.226	4.0
48.241	8.0
48.255	2.0
48.27	2.0
48.285	3.0
48.3	4.0
48.315	6.0
48.33	2.0
48.345	4.0
48.359	2.0
48.374	6.0
48.389	4.0
48.404	6.0
48.419	4.0
48.434	8.0
48.449	5.0
48.464	8.0
48.478	2.0
48.493	6.0
48.508	3.0
48.523	4.0
48.538	7.0
48.553	2.0
48.568	5.0
48.583	4.0
48.597	1.0
48.612	5.0
48.627	6.0
48.642	6.0
48.657	3.0
48.672	6.0
48.687	8.0
48.702	4.0
48.717	6.0
48.731	4.0
48.746	3.0
48.761	6.0
48.776	3.0
48.791	1.0
48.806	6.0
48.821	7.0
48.836	6.0
48.851	6.0
48.866	3.0
48.88	5.0
48.895	8.0
48.91	4.0
48.925	1.0
48.94	7.0
48.955	9.0
48.97	7.0
48.985	1.0
49.0	3.0
49.015	10.0
49.03	4.0
49.044	7.0
49.059	7.0
49.074	5.0
49.089	5.0
49.104	2.0
49.119	2.0
49.134	3.0
49.149	9.0
49.164	3.0
49.179	6.0
49.194	4.0
49.209	3.0
49.224	4.0
49.238	5.0
49.253	2.0
49.268	7.0
49.283	9.0
49.298	7.0
49.313	4.0
49.328	10.0
49.343	8.0
49.358	3.0
49.373	7.0
49.388	8.0
49.403	7.0
49.418	3.0
49.433	5.0
49.448	9.0
49.463	3.0
49.478	6.0
49.492	2.0
49.507	3.0
49.522	2.0
49.537	5.0
49.552	7.0
49.567	4.0
49.582	6.0
49.597	10.0
49.612	6.0
49.627	4.0
49.642	8.0
49.657	4.0
49.672	5.0
49.687	5.0
49.702	7.0
49.717	7.0
49.732	4.0
49.747	8.0
49.762	3.0
49.777	7.0
49.792	8.0
49.807	7.0
49.822	1.0
49.837	6.0
49.852	5.0
49.867	6.0
49.882	5.0
49.897	6.0
49.912	6.0
49.927	5.0
49.942	3.0
49.957	4.0
49.971	5.0
49.986	2.0
50.001	1.0
50.016	6.0
50.031	2.0
50.046	3.0
50.061	3.0
50.076	4.0
50.091	3.0
50.106	7.0
50.121	4.0
50.136	5.0
50.151	1.0
50.166	1.0
50.181	4.0
50.196	7.0
50.211	1.0
50.226	3.0
50.241	3.0
50.256	5.0
50.271	4.0
50.286	5.0
50.302	5.0
50.317	7.0
50.332	2.0
50.347	4.0
50.362	4.0
50.377	5.0
50.392	5.0
50.407	4.0
50.422	4.0
50.437	9.0
50.452	8.0
50.467	13.0
50.482	9.0
50.497	7.0
50.512	8.0
50.527	12.0
50.542	6.0
50.557	3.0
50.572	5.0
50.587	7.0
50.602	4.0
50.617	6.0
50.632	6.0
50.647	6.0
50.662	3.0
50.677	0.0
50.692	5.0
50.707	4.0
50.722	3.0
50.737	5.0
50.752	4.0
50.767	10.0
50.782	3.0
50.797	2.0
50.812	7.0
50.828	4.0
50.843	5.0
50.858	7.0
50.873	5.0
50.888	7.0
50.903	3.0
50.918	1.0
50.933	2.0
50.948	4.0
50.963	4.0
50.978	5.0
50.993	4.0
51.008	10.0
51.023	8.0
51.038	8.0
51.053	5.0
51.068	7.0
51.083	2.0
51.098	5.0
51.114	4.0
51.129	5.0
51.144	3.0
51.159	7.0
51.174	5.0
51.189	10.0
51.204	7.0
51.219	3.0
51.234	4.0
51.249	4.0
51.264	3.0
51.279	7.0
51.294	7.0
51.309	6.0
51.324	6.0
51.34	5.0
51.355	6.0
51.37	7.0
51.385	8.0
51.4	13.0
51.415	5.0
51.43	8.0
51.445	4.0
51.46	11.0
51.475	9.0
51.49	19.0
51.505	18.0
51.52	24.0
51.535	19.0
51.551	19.0
51.566	22.0
51.581	12.0
51.596	12.0
51.611	9.0
51.626	14.0
51.641	6.0
51.656	7.0
51.671	8.0
51.686	14.0
51.701	5.0
51.716	5.0
51.732	7.0
51.747	4.0
51.762	9.0
51.777	14.0
51.792	9.0
51.807	13.0
51.822	8.0
51.837	12.0
51.852	10.0
51.867	13.0
51.882	9.0
51.898	7.0
51.913	11.0
51.928	10.0
51.943	10.0
51.958	7.0
51.973	4.0
51.988	7.0
52.003	6.0
52.018	3.0
52.033	7.0
52.048	5.0
52.064	6.0
52.079	7.0
52.094	7.0
52.109	9.0
52.124	4.0
52.139	5.0
52.154	3.0
52.169	4.0
52.184	3.0
52.199	5.0
52.215	5.0
52.23	6.0
52.245	3.0
52.26	2.0
52.275	7.0
52.29	4.0
52.305	5.0
52.32	5.0
52.335	7.0
52.35	1.0
52.366	8.0
52.381	2.0
52.396	4.0
52.411	3.0
52.426	7.0
52.441	2.0
52.456	9.0
52.471	6.0
52.486	6.0
52.502	6.0
52.517	8.0
52.532	6.0
52.547	3.0
52.562	6.0
52.577	9.0
52.592	11.0
52.607	9.0
52.622	9.0
52.637	8.0
52.653	10.0
52.668	9.0
52.683	5.0
52.698	8.0
52.713	3.0
52.728	1.0
52.743	8.0
52.758	5.0
52.774	3.0
52.789	7.0
52.804	6.0
52.819	6.0
52.834	7.0
52.849	6.0
52.864	7.0
52.879	7.0
52.894	8.0
52.91	5.0
52.925	7.0
52.94	7.0
52.955	11.0
52.97	8.0
52.985	9.0
53.0	6.0
53.015	4.0
53.031	4.0
53.046	5.0
53.061	6.0
53.076	5.0
53.091	6.0
53.106	3.0
53.121	9.0
53.136	2.0
53.152	5.0
53.167	9.0
53.182	5.0
53.197	7.0
53.212	6.0
53.227	4.0
53.242	2.0
53.257	0.0
53.273	5.0
53.288	2.0
53.303	5.0
53.318	7.0
53.333	5.0
53.348	1.0
53.363	5.0
53.379	5.0
53.394	5.0
53.409	1.0
53.424	4.0
53.439	3.0
53.454	6.0
53.469	4.0
53.484	4.0
53.5	6.0
53.515	7.0
53.53	5.0
53.545	4.0
53.56	6.0
53.575	1.0
53.59	3.0
53.606	5.0
53.621	3.0
53.636	7.0
53.651	5.0
53.666	4.0
53.681	2.0
53.696	2.0
53.712	5.0
53.727	4.0
53.742	3.0
53.757	3.0
53.772	2.0
53.787	6.0
53.802	5.0
53.818	6.0
53.833	4.0
53.848	9.0
53.863	4.0
53.878	6.0
53.893	12.0
53.909	4.0
53.924	5.0
53.939	3.0
53.954	5.0
53.969	5.0
53.984	6.0
53.999	3.0
54.015	2.0
54.03	2.0
54.045	3.0
54.06	2.0
54.075	4.0
54.09	6.0
54.106	4.0
54.121	2.0
54.136	5.0
54.151	6.0
54.166	8.0
54.181	5.0
54.197	4.0
54.212	7.0
54.227	3.0
54.242	3.0
54.257	4.0
54.272	3.0
54.288	7.0
54.303	3.0
54.318	10.0
54.333	6.0
54.348	6.0
54.363	2.0
54.379	6.0
54.394	8.0
54.409	4.0
54.424	6.0
54.439	4.0
54.454	8.0
54.47	4.0
54.485	5.0
54.5	4.0
54.515	7.0
54.53	8.0
54.545	6.0
54.561	4.0
54.576	6.0
54.591	10.0
54.606	14.0
54.621	13.0
54.636	12.0
54.652	19.0
54.667	17.0
54.682	7.0
54.697	19.0
54.712	8.0
54.727	7.0
54.743	9.0
54.758	7.0
54.773	11.0
54.788	4.0
54.803	5.0
54.819	7.0
54.834	6.0
54.849	4.0
54.864	6.0
54.879	6.0
54.894	6.0
54.91	3.0
54.925	8.0
54.94	7.0
54.955	9.0
54.97	13.0
54.985	10.0
55.001	13.0
55.016	5.0
55.031	9.0
55.046	6.0
55.061	5.0
55.077	7.0
55.092	4.0
55.107	3.0
55.122	5.0
55.137	8.0
55.152	6.0
55.168	6.0
55.183	5.0
55.198	7.0
55.213	3.0
55.228	3.0
55.243	1.0
55.259	5.0
55.274	7.0
55.289	3.0
55.304	4.0
55.319	5.0
55.335	11.0
55.35	4.0
55.365	8.0
55.38	5.0
55.395	5.0
55.41	7.0
55.426	2.0
55.441	5.0
55.456	3.0
55.471	5.0
55.486	5.0
55.501	4.0
55.517	11.0
55.532	8.0
55.547	8.0
55.562	1.0
55.577	9.0
55.592	7.0
55.608	4.0
55.623	5.0
55.638	4.0
55.653	3.0
55.668	6.0
55.683	7.0
55.699	7.0
55.714	4.0
55.729	5.0
55.744	8.0
55.759	10.0
55.774	10.0
55.79	3.0
55.805	7.0
55.82	4.0
55.835	2.0
55.85	4.0
55.865	9.0
55.881	3.0
55.896	6.0
55.911	3.0
55.926	4.0
55.941	2.0
55.956	3.0
55.972	8.0
55.987	12.0
56.002	0.0
56.017	4.0
56.032	7.0
56.047	2.0
56.063	6.0
56.078	7.0
56.093	9.0
56.108	8.0
56.123	2.0
56.138	3.0
56.154	2.0
56.169	6.0
56.184	4.0
56.199	3.0
56.214	5.0
56.229	6.0
56.244	9.0
56.26	5.0
56.275	4.0
56.29	1.0
56.305	3.0
56.32	6.0
56.335	3.0
56.351	5.0
56.366	4.0
56.381	3.0
56.396	6.0
56.411	5.0
56.426	1.0
56.441	2.0
56.457	4.0
56.472	6.0
56.487	4.0
56.502	2.0
56.517	3.0
56.532	5.0
56.547	5.0
56.563	6.0
56.578	6.0
56.593	5.0
56.608	3.0
56.623	1.0
56.638	2.0
56.653	4.0
56.668	7.0
56.684	3.0
56.699	8.0
56.714	0.0
56.729	5.0
56.744	4.0
56.759	3.0
56.774	4.0
56.79	5.0
56.805	6.0
56.82	4.0
56.835	2.0
56.85	4.0
56.865	5.0
56.88	6.0
56.895	1.0
56.911	2.0
56.926	4.0
56.941	2.0
56.956	6.0
56.971	2.0
56.986	6.0
57.001	4.0
57.016	3.0
57.031	1.0
57.047	3.0
57.062	2.0
57.077	5.0
57.092	5.0
57.107	5.0
57.122	4.0
57.137	4.0
57.152	3.0
57.167	7.0
57.183	3.0
57.198	5.0
57.213	6.0
57.228	5.0
57.243	4.0
57.258	2.0
57.273	3.0
57.288	3.0
57.303	2.0
57.318	4.0
57.334	4.0
57.349	5.0
57.364	2.0
57.379	5.0
57.394	7.0
57.409	2.0
57.424	4.0
57.439	7.0
57.454	7.0
57.469	3.0
57.484	6.0
57.5	3.0
57.515	5.0
57.53	5.0
57.545	4.0
57.56	4.0
57.575	5.0
57.59	7.0
57.605	14.0
57.62	3.0
57.635	5.0
57.65	6.0
57.665	4.0
57.68	6.0
57.696	7.0
57.711	7.0
57.726	8.0
57.741	3.0
57.756	5.0
57.771	8.0
57.786	4.0
57.801	1.0
57.816	9.0
57.831	6.0
57.846	5.0
57.861	2.0
57.876	4.0
57.891	7.0
57.906	4.0
57.921	1.0
57.937	1.0
57.952	7.0
57.967	5.0
57.982	3.0
57.997	4.0
58.012	4.0
58.027	6.0
58.042	5.0
58.057	5.0
58.072	3.0
58.087	5.0
58.102	4.0
58.117	4.0
58.132	10.0
58.147	4.0
58.162	6.0
58.177	3.0
58.192	7.0
58.207	2.0
58.222	6.0
58.237	3.0
58.252	5.0
58.267	3.0
58.282	6.0
58.297	3.0
58.312	4.0
58.327	7.0
58.342	5.0
58.357	0.0
58.372	4.0
58.387	2.0
58.402	3.0
58.418	1.0
58.433	4.0
58.448	4.0
58.463	6.0
58.478	2.0
58.493	7.0
58.508	5.0
58.523	8.0
58.538	5.0
58.553	7.0
58.568	3.0
58.583	8.0
58.598	6.0
58.613	10.0
58.628	15.0
58.643	9.0
58.658	7.0
58.673	6.0
58.688	9.0
58.703	9.0
58.718	13.0
58.733	6.0
58.748	7.0
58.763	7.0
58.778	4.0
58.793	3.0
58.808	7.0
58.823	4.0
58.838	5.0
58.853	6.0
58.868	4.0
58.883	5.0
58.898	12.0
58.913	6.0
58.928	2.0
58.942	3.0
58.957	2.0
58.972	8.0
58.987	7.0
59.002	7.0
59.017	8.0
59.032	7.0
59.047	6.0
59.062	8.0
59.077	5.0
59.092	7.0
59.107	5.0
59.122	6.0
59.137	2.0
59.152	8.0
59.167	5.0
59.182	1.0
59.197	4.0
59.212	4.0
59.227	4.0
59.242	2.0
59.257	4.0
59.272	6.0
59.287	4.0
59.302	4.0
59.317	3.0
59.332	4.0
59.347	1.0
59.362	6.0
59.377	2.0
59.392	1.0
59.407	2.0
59.422	3.0
59.437	11.0
59.452	5.0
59.467	3.0
59.482	9.0
59.497	2.0
59.512	5.0
59.527	9.0
59.542	7.0
59.557	9.0
59.572	6.0
59.587	9.0
59.602	9.0
59.617	7.0
59.632	8.0
59.647	8.0
59.661	11.0
59.676	5.0
59.691	6.0
59.706	8.0
59.721	4.0
59.736	3.0
59.751	6.0
59.766	7.0
59.781	7.0
59.796	3.0
59.811	9.0
59.826	6.0
59.841	9.0
59.856	8.0
59.871	7.0
59.886	6.0
59.901	9.0
59.916	4.0
59.931	6.0
59.946	7.0
59.961	6.0
59.976	8.0
59.991	7.0
60.006	8.0
60.021	9.0
60.036	4.0
60.051	12.0
60.066	5.0
60.081	9.0
60.096	3.0
60.111	4.0
60.126	3.0
60.141	2.0
60.156	6.0
60.171	8.0
60.186	3.0
60.201	5.0
60.216	6.0
60.231	7.0
60.246	4.0
60.261	2.0
60.276	3.0
60.291	5.0
60.306	5.0
60.321	2.0
60.336	4.0
60.35	4.0
60.365	2.0
60.38	5.0
60.395	2.0
60.41	4.0
60.425	2.0
60.44	2.0
60.455	5.0
60.47	7.0
60.485	8.0
60.5	5.0
60.515	7.0
60.53	5.0
60.545	7.0
60.56	8.0
60.575	5.0
60.59	10.0
60.605	6.0
60.62	6.0
60.635	8.0
60.65	5.0
60.665	4.0
60.68	5.0
60.695	7.0
60.71	1.0
60.725	8.0
60.74	4.0
60.755	1.0
60.77	5.0
60.785	5.0
60.8	3.0
60.815	2.0
60.83	2.0
60.845	5.0
60.86	8.0
60.875	4.0
60.89	1.0
60.905	3.0
60.92	6.0
60.935	3.0
60.95	3.0
60.965	6.0
60.98	2.0
60.995	4.0
61.01	3.0
61.025	6.0
61.04	7.0
61.055	5.0
61.07	7.0
61.085	6.0
61.1	4.0
61.115	1.0
61.13	5.0
61.145	3.0
61.16	3.0
61.175	5.0
61.191	4.0
61.206	6.0
61.221	7.0
61.236	5.0
61.251	4.0
61.266	4.0
61.281	5.0
61.296	3.0
61.311	0.0
61.326	3.0
61.341	3.0
61.356	9.0
61.371	5.0
61.386	5.0
61.401	3.0
61.416	5.0
61.431	3.0
61.446	7.0
61.461	7.0
61.476	4.0
61.491	3.0
61.506	5.0
61.521	6.0
61.536	3.0
61.551	6.0
61.566	7.0
61.581	8.0
61.596	7.0
61.611	5.0
61.626	4.0
61.641	2.0
61.656	5.0
61.672	3.0
61.687	3.0
61.702	3.0
61.717	3.0
61.732	5.0
61.747	1.0
61.762	2.0
61.777	4.0
61.792	4.0
61.807	2.0
61.822	5.0
61.837	3.0
61.852	8.0
61.867	3.0
61.882	4.0
61.897	7.0
61.912	4.0
61.927	2.0
61.943	7.0
61.958	3.0
61.973	5.0
61.988	2.0
62.003	3.0
62.018	6.0
62.033	7.0
62.048	6.0
62.063	3.0
62.078	5.0
62.093	2.0
62.108	3.0
62.123	4.0
62.138	3.0
62.153	4.0
62.169	2.0
62.184	5.0
62.199	2.0
62.214	5.0
62.229	7.0
62.244	6.0
62.259	3.0
62.274	2.0
62.289	3.0
62.304	2.0
62.319	4.0
62.335	3.0
62.35	2.0
62.365	4.0
62.38	3.0
62.395	5.0
62.41	4.0
62.425	4.0
62.44	5.0
62.455	5.0
62.47	5.0
62.485	3.0
62.501	6.0
62.516	9.0
62.531	7.0
62.546	6.0
62.561	4.0
62.576	5.0
62.591	4.0
62.606	0.0
62.621	3.0
62.636	0.0
62.652	6.0
62.667	1.0
62.682	2.0
62.697	2.0
62.712	3.0
62.727	4.0
62.742	3.0
62.757	4.0
62.772	4.0
62.787	5.0
62.803	3.0
62.818	2.0
62.833	8.0
62.848	3.0
62.863	1.0
62.878	8.0
62.893	6.0
62.908	3.0
62.923	6.0
62.939	5.0
62.954	5.0
62.969	1.0
62.984	2.0
62.999	4.0
63.014	4.0
63.029	6.0
63.044	3.0
63.059	3.0
63.074	3.0
63.09	5.0
63.105	2.0
63.12	8.0
63.135	4.0
63.15	1.0
63.165	3.0
63.18	0.0
63.195	1.0
63.21	4.0
63.226	3.0
63.241	3.0
63.256	8.0
63.271	5.0
63.286	6.0
63.301	3.0
63.316	5.0
63.331	3.0
63.346	4.0
63.362	6.0
63.377	9.0
63.392	6.0
63.407	7.0
63.422	5.0
63.437	7.0
63.452	8.0
63.467	4.0
63.482	5.0
63.497	4.0
63.513	2.0
63.528	5.0
63.543	4.0
63.558	4.0
63.573	7.0
63.588	0.0
63.603	3.0
63.618	5.0
63.633	6.0
63.648	3.0
63.664	7.0
63.679	8.0
63.694	5.0
63.709	3.0
63.724	2.0
63.739	8.0
63.754	4.0
63.769	5.0
63.784	3.0
63.799	6.0
63.814	5.0
63.83	7.0
63.845	2.0
63.86	6.0
63.875	8.0
63.89	5.0
63.905	3.0
63.92	2.0
63.935	4.0
63.95	6.0
63.965	4.0
63.98	2.0
63.996	4.0
64.011	2.0
64.026	4.0
64.041	5.0
64.056	3.0
64.071	4.0
64.086	2.0
64.101	8.0
64.116	5.0
64.131	2.0
64.146	4.0
64.161	2.0
64.176	5.0
64.191	6.0
64.207	5.0
64.222	4.0
64.237	2.0
64.252	1.0
64.267	5.0
64.282	2.0
64.297	2.0
64.312	6.0
64.327	4.0
64.342	4.0
64.357	3.0
64.372	2.0
64.387	6.0
64.402	1.0
64.417	2.0
64.433	3.0
64.448	2.0
64.463	3.0
64.478	7.0
64.493	4.0
64.508	7.0
64.523	5.0
64.538	4.0
64.553	1.0
64.568	4.0
64.583	3.0
64.598	2.0
64.613	5.0
64.628	8.0
64.643	2.0
64.658	4.0
64.673	7.0
64.688	2.0
64.703	6.0
64.718	3.0
64.734	4.0
64.749	5.0
64.764	3.0
64.779	5.0
64.794	6.0
64.809	2.0
64.824	1.0
64.839	3.0
64.854	3.0
64.869	1.0
64.884	4.0
64.899	4.0
64.914	2.0
64.929	5.0
64.944	5.0
64.959	3.0
64.974	3.0
64.989	2.0
65.004	2.0
65.019	4.0
65.034	3.0
65.049	5.0
65.064	3.0
65.079	2.0
65.094	5.0
65.109	3.0
65.125	4.0
65.14	5.0
65.155	3.0
65.17	6.0
65.185	2.0
65.2	4.0
65.215	3.0
65.23	4.0
65.245	6.0
65.26	6.0
65.275	4.0
65.29	10.0
65.305	8.0
65.32	6.0
65.335	6.0
65.35	4.0
65.365	0.0
65.38	4.0
65.395	9.0
65.41	2.0
65.425	3.0
65.44	3.0
65.455	4.0
65.47	1.0
65.485	1.0
65.5	3.0
65.515	2.0
65.53	1.0
65.545	10.0
65.56	4.0
65.575	5.0
65.59	4.0
65.605	3.0
65.62	1.0
65.635	7.0
65.65	6.0
65.666	5.0
65.681	4.0
65.696	8.0
65.711	8.0
65.726	3.0
65.741	3.0
65.756	1.0
65.771	4.0
65.786	4.0
65.801	3.0
65.816	6.0
65.831	1.0
65.846	5.0
65.861	3.0
65.876	3.0
65.891	3.0
65.906	4.0
65.921	7.0
65.936	5.0
65.951	3.0
65.966	5.0
65.981	5.0
65.996	2.0
66.011	6.0
66.026	4.0
66.041	1.0
66.056	9.0
66.071	3.0
66.086	9.0
66.101	2.0
66.116	6.0
66.131	8.0
66.146	9.0
66.161	10.0
66.176	11.0
66.191	9.0
66.206	6.0
66.221	5.0
66.236	2.0
66.251	7.0
66.266	7.0
66.281	6.0
66.296	2.0
66.311	7.0
66.327	6.0
66.342	5.0
66.357	2.0
66.372	5.0
66.387	8.0
66.402	5.0
66.417	2.0
66.432	2.0
66.447	1.0
66.462	2.0
66.477	3.0
66.492	5.0
66.507	2.0
66.522	2.0
66.537	3.0
66.552	5.0
66.567	6.0
66.582	5.0
66.597	3.0
66.612	6.0
66.627	4.0
66.642	8.0
66.657	4.0
66.672	5.0
66.687	4.0
66.702	4.0
66.717	7.0
66.732	6.0
66.747	4.0
66.762	2.0
66.777	0.0
66.792	3.0
66.807	4.0
66.822	4.0
66.837	2.0
66.853	3.0
66.868	2.0
66.883	2.0
66.898	4.0
66.913	5.0
66.928	3.0
66.943	0.0
66.958	5.0
66.973	4.0
66.988	3.0
67.003	4.0
67.018	4.0
67.033	4.0
67.048	5.0
67.063	7.0
67.078	7.0
67.093	5.0
67.108	2.0
67.123	6.0
67.138	3.0
67.153	7.0
67.168	3.0
67.183	4.0
67.198	3.0
67.214	3.0
67.229	4.0
67.244	1.0
67.259	2.0
67.274	4.0
67.289	4.0
67.304	4.0
67.319	5.0
67.334	3.0
67.349	5.0
67.364	3.0
67.379	0.0
67.394	1.0
67.409	1.0
67.424	1.0
67.439	3.0
67.454	4.0
67.469	3.0
67.484	4.0
67.5	6.0
67.515	4.0
67.53	1.0
67.545	2.0
67.56	5.0
67.575	6.0
67.59	2.0
67.605	3.0
67.62	2.0
67.635	0.0
67.65	3.0
67.665	1.0
67.68	1.0
67.695	1.0
67.71	4.0
67.726	5.0
67.741	1.0
67.756	4.0
67.771	5.0
67.786	2.0
67.801	4.0
67.816	4.0
67.831	7.0
67.846	3.0
67.861	3.0
67.876	2.0
67.891	5.0
67.906	6.0
67.922	2.0
67.937	4.0
67.952	3.0
67.967	1.0
67.982	5.0
67.997	3.0
68.012	3.0
68.027	1.0
68.042	2.0
68.057	3.0
68.072	1.0
68.087	4.0
68.103	2.0
68.118	2.0
68.133	6.0
68.148	6.0
68.163	2.0
68.178	4.0
68.193	4.0
68.208	1.0
68.223	1.0
68.238	2.0
68.254	3.0
68.269	5.0
68.284	4.0
68.299	4.0
68.314	2.0
68.329	5.0
68.344	0.0
68.359	5.0
68.374	5.0
68.389	1.0
68.405	4.0
68.42	2.0
68.435	5.0
68.45	2.0
68.465	3.0
68.48	13.0
68.495	3.0
68.51	4.0
68.525	5.0
68.54	5.0
68.556	3.0
68.571	4.0
68.586	8.0
68.601	2.0
68.616	3.0
68.631	4.0
68.646	2.0
68.661	2.0
68.676	3.0
68.691	2.0
68.707	2.0
68.722	8.0
68.737	5.0
68.752	5.0
68.767	4.0
68.782	2.0
68.797	3.0
68.812	0.0
68.827	3.0
68.842	2.0
68.857	3.0
68.873	2.0
68.888	4.0
68.903	7.0
68.918	4.0
68.933	4.0
68.948	1.0
68.963	1.0
68.978	3.0
68.993	1.0
69.008	1.0
69.023	4.0
69.038	6.0
69.054	5.0
69.069	4.0
69.084	3.0
69.099	4.0
69.114	3.0
69.129	1.0
69.144	3.0
69.159	4.0
69.174	2.0
69.189	4.0
69.204	2.0
69.219	5.0
69.234	0.0
69.249	2.0
69.264	7.0
69.279	5.0
69.295	2.0
69.31	2.0
69.325	1.0
69.34	3.0
69.355	5.0
69.37	5.0
69.385	3.0
69.4	3.0
69.415	6.0
69.43	3.0
69.445	3.0
69.46	4.0
69.475	2.0
69.49	3.0
69.505	2.0
69.52	3.0
69.535	2.0
69.55	2.0
69.565	5.0
69.58	3.0
69.595	3.0
69.61	3.0
69.625	1.0
69.64	1.0
69.655	4.0
69.67	4.0
69.685	5.0
69.7	9.0
69.715	5.0
69.73	5.0
69.745	8.0
69.76	5.0
69.775	7.0
69.79	12.0
69.805	4.0
69.82	3.0
69.835	5.0
69.85	9.0
69.865	3.0
69.88	4.0
69.895	3.0
69.909	5.0
69.924	2.0
69.939	3.0
69.954	5.0
69.969	4.0
69.984	5.0
69.999	4.0
70.014	2.0
70.029	2.0
70.044	3.0
70.059	2.0
70.074	2.0
70.088	5.0
70.103	4.0
70.118	3.0
70.133	7.0
70.148	10.0
70.163	5.0
70.178	3.0
70.193	4.0
70.208	1.0
70.222	10.0
70.237	4.0
70.252	4.0
70.267	9.0
70.282	7.0
70.297	5.0
70.312	4.0
70.327	4.0
70.341	3.0
70.356	2.0
70.371	1.0
70.386	4.0
70.401	5.0
70.416	1.0
70.43	3.0
70.445	3.0
70.46	2.0
70.475	4.0
70.49	3.0
70.505	3.0
70.519	2.0
70.534	3.0
70.549	0.0
70.564	1.0
70.579	2.0
70.594	8.0
70.608	6.0
70.623	9.0
70.638	5.0
70.653	8.0
70.668	7.0
70.683	7.0
70.697	5.0
70.712	3.0
70.727	6.0
70.742	5.0
70.757	7.0
70.771	4.0
70.786	3.0
70.801	2.0
70.816	2.0
70.831	4.0
70.845	4.0
70.86	1.0
70.875	2.0
70.89	5.0
70.905	1.0
70.92	0.0
70.934	2.0
70.949	3.0
70.964	3.0
70.979	3.0
70.994	4.0
71.008	5.0
71.023	3.0
71.038	2.0
71.053	6.0
71.068	2.0
71.082	1.0
71.097	4.0
71.112	3.0
71.127	5.0
71.142	4.0
71.156	5.0
71.171	5.0
71.186	4.0
71.201	6.0
71.216	2.0
71.231	2.0
71.245	4.0
71.26	9.0
71.275	3.0
71.29	9.0
71.305	6.0
71.319	4.0
71.334	2.0
71.349	8.0
71.364	6.0
71.379	7.0
71.394	4.0
71.408	3.0
71.423	4.0
71.438	4.0
71.453	4.0
71.468	3.0
71.483	3.0
71.497	4.0
71.512	1.0
71.527	5.0
71.542	2.0
71.557	2.0
71.572	4.0
71.586	5.0
71.601	3.0
71.616	2.0
71.631	2.0
71.646	3.0
71.661	2.0
71.676	4.0
71.69	5.0
71.705	3.0
71.72	4.0
71.735	5.0
71.75	3.0
71.765	7.0
71.78	1.0
71.795	5.0
71.81	4.0
71.824	3.0
71.839	4.0
71.854	1.0
71.869	4.0
71.884	1.0
71.899	7.0
71.914	3.0
71.929	2.0
71.944	4.0
71.959	3.0
71.974	3.0
71.988	2.0
72.003	4.0
72.018	4.0
72.033	10.0
72.048	3.0
72.063	2.0
72.078	4.0
72.093	4.0
72.108	7.0
72.123	1.0
72.138	1.0
72.153	6.0
72.168	1.0
72.183	6.0
72.198	2.0
72.213	5.0
72.228	3.0
72.243	9.0
72.258	5.0
72.273	1.0
72.288	4.0
72.303	6.0
72.318	4.0
72.333	0.0
72.348	6.0
72.363	3.0
72.378	5.0
72.393	4.0
72.408	0.0
72.423	4.0
72.438	5.0
72.453	3.0
72.468	4.0
72.483	5.0
72.498	3.0
72.513	2.0
72.528	2.0
72.543	2.0
72.558	6.0
72.573	5.0
72.588	7.0
72.603	7.0
72.618	4.0
72.633	2.0
72.649	1.0
72.664	3.0
72.679	6.0
72.694	1.0
72.709	3.0
72.724	4.0
72.739	4.0
72.754	0.0
72.769	1.0
72.784	2.0
72.799	4.0
72.814	3.0
72.829	2.0
72.845	4.0
72.86	7.0
72.875	3.0
72.89	1.0
72.905	5.0
72.92	1.0
72.935	2.0
72.95	3.0
72.965	1.0
72.98	0.0
72.996	1.0
73.011	3.0
73.026	3.0
73.041	2.0
73.056	1.0
73.071	8.0
73.086	2.0
73.101	2.0
73.117	2.0
73.132	2.0
73.147	3.0
73.162	4.0
73.177	1.0
73.192	6.0
73.207	4.0
73.222	4.0
73.238	5.0
73.253	3.0
73.268	7.0
73.283	2.0
73.298	6.0
73.313	2.0
73.328	2.0
73.343	5.0
73.359	5.0
73.374	3.0
73.389	3.0
73.404	6.0
73.419	3.0
73.434	2.0
73.449	2.0
73.465	4.0
73.48	6.0
73.495	1.0
73.51	1.0
73.525	2.0
73.54	1.0
73.556	4.0
73.571	2.0
73.586	7.0
73.601	4.0
73.616	2.0
73.631	6.0
73.646	8.0
73.662	3.0
73.677	7.0
73.692	4.0
73.707	5.0
73.722	5.0
73.737	5.0
73.752	2.0
73.768	5.0
73.783	3.0
73.798	6.0
73.813	3.0
73.828	3.0
73.843	4.0
73.859	2.0
73.874	3.0
73.889	5.0
73.904	7.0
73.919	4.0
73.934	3.0
73.949	3.0
73.965	5.0
73.98	5.0
73.995	3.0
74.01	3.0
74.025	4.0
74.04	1.0
74.056	3.0
74.071	8.0
74.086	4.0
74.101	4.0
74.116	3.0
74.131	6.0
74.146	4.0
74.162	3.0
74.177	7.0
74.192	10.0
74.207	2.0
74.222	6.0
74.237	1.0
74.252	5.0
74.268	3.0
74.283	9.0
74.298	3.0
74.313	5.0
74.328	5.0
74.343	4.0
74.358	7.0
74.374	3.0
74.389	2.0
74.404	2.0
74.419	1.0
74.434	4.0
74.449	4.0
74.464	4.0
74.48	5.0
74.495	6.0
74.51	1.0
74.525	3.0
74.54	3.0
74.555	7.0
74.57	10.0
74.586	4.0
74.601	7.0
74.616	4.0
74.631	1.0
74.646	1.0
74.661	4.0
74.676	3.0
74.691	3.0
74.707	2.0
74.722	6.0
74.737	7.0
74.752	4.0
74.767	6.0
74.782	2.0
74.797	6.0
74.813	6.0
74.828	3.0
74.843	3.0
74.858	3.0
74.873	3.0
74.888	4.0
74.903	3.0
74.918	3.0
74.934	6.0
74.949	5.0
74.964	3.0
74.979	4.0
74.994	7.0
75.009	3.0
75.024	5.0
75.04	3.0
75.055	4.0
75.07	2.0
75.085	3.0
75.1	4.0
75.115	3.0
75.13	5.0
75.145	3.0
75.161	4.0
75.176	3.0
75.191	1.0
75.206	5.0
75.221	4.0
75.236	2.0
75.251	4.0
75.266	3.0
75.282	4.0
75.297	2.0
75.312	4.0
75.327	3.0
75.342	5.0
75.357	5.0
75.372	4.0
75.387	2.0
75.403	4.0
75.418	2.0
75.433	2.0
75.448	4.0
75.463	5.0
75.478	4.0
75.493	3.0
75.509	5.0
75.524	8.0
75.539	3.0
75.554	3.0
75.569	2.0
75.584	4.0
75.599	4.0
75.614	3.0
75.63	3.0
75.645	3.0
75.66	2.0
75.675	1.0
75.69	4.0
75.705	1.0
75.72	4.0
75.735	6.0
75.751	2.0
75.766	3.0
75.781	4.0
75.796	3.0
75.811	4.0
75.826	3.0
75.841	7.0
75.856	2.0
75.872	2.0
75.887	2.0
75.902	2.0
75.917	2.0
75.932	3.0
75.947	2.0
75.962	5.0
75.977	1.0
75.993	5.0
76.008	3.0
76.023	0.0
76.038	4.0
76.053	3.0
76.068	2.0
76.083	3.0
76.098	4.0
76.114	3.0
76.129	5.0
76.144	2.0
76.159	2.0
76.174	4.0
76.189	6.0
76.204	2.0
76.22	3.0
76.235	3.0
76.25	6.0
76.265	2.0
76.28	2.0
76.295	3.0
76.31	5.0
76.325	3.0
76.341	2.0
76.356	2.0
76.371	5.0
76.386	4.0
76.401	3.0
76.416	2.0
76.431	6.0
76.446	4.0
76.462	5.0
76.477	4.0
76.492	4.0
76.507	5.0
76.522	4.0
76.537	4.0
76.552	4.0
76.567	3.0
76.583	3.0
76.598	4.0
76.613	2.0
76.628	2.0
76.643	3.0
76.658	5.0
76.673	4.0
76.688	6.0
76.704	4.0
76.719	5.0
76.734	3.0
76.749	6.0
76.764	7.0
76.779	4.0
76.794	4.0
76.809	5.0
76.824	4.0
76.84	5.0
76.855	3.0
76.87	1.0
76.885	3.0
76.9	2.0
76.915	4.0
76.93	5.0
76.945	5.0
76.96	5.0
76.976	3.0
76.991	4.0
77.006	5.0
77.021	4.0
77.036	0.0
77.051	1.0
77.066	3.0
77.081	1.0
77.096	3.0
77.112	4.0
77.127	1.0
77.142	1.0
77.157	0.0
77.172	5.0
77.187	1.0
77.202	2.0
77.217	3.0
77.232	4.0
77.247	3.0
77.263	4.0
77.278	3.0
77.293	1.0
77.308	2.0
77.323	5.0
77.338	3.0
77.353	4.0
77.368	3.0
77.383	9.0
77.398	2.0
77.413	2.0
77.428	4.0
77.444	5.0
77.459	2.0
77.474	2.0
77.489	4.0
77.504	2.0
77.519	3.0
77.534	7.0
77.549	2.0
77.564	5.0
77.579	3.0
77.594	6.0
77.609	6.0
77.624	6.0
77.64	9.0
77.655	9.0
77.67	0.0
77.685	5.0
77.7	5.0
77.715	6.0
77.73	3.0
77.745	2.0
77.76	3.0
77.775	4.0
77.79	2.0
77.805	1.0
77.82	2.0
77.835	2.0
77.85	4.0
77.865	1.0
77.88	0.0
77.895	4.0
77.91	2.0
77.926	4.0
77.941	1.0
77.956	6.0
77.971	4.0
77.986	3.0
78.001	3.0
78.016	4.0
78.031	2.0
78.046	2.0
78.061	4.0
78.076	3.0
78.091	4.0
78.106	6.0
78.121	4.0
78.136	4.0
78.151	3.0
78.166	4.0
78.181	3.0
78.196	4.0
78.211	4.0
78.226	2.0
78.241	11.0
78.256	1.0
78.271	1.0
78.286	7.0
78.301	6.0
78.316	4.0
78.331	2.0
78.346	2.0
78.361	2.0
78.376	9.0
78.391	2.0
78.406	3.0
78.421	1.0
78.436	0.0
78.451	4.0
78.466	1.0
78.481	3.0
78.496	4.0
78.511	5.0
78.526	3.0
78.541	3.0
78.556	3.0
78.571	3.0
78.586	1.0
78.601	6.0
78.616	3.0
78.631	2.0
78.646	4.0
78.661	1.0
78.676	5.0
78.691	1.0
78.706	3.0
78.721	1.0
78.736	1.0
78.751	2.0
78.766	6.0
78.781	0.0
78.796	2.0
78.811	3.0
78.826	4.0
78.841	2.0
78.856	2.0
78.871	5.0
78.885	2.0
78.9	4.0
78.915	2.0
78.93	3.0
78.945	3.0
78.96	0.0
78.975	3.0
78.99	8.0
79.005	2.0
79.02	2.0
79.035	0.0
79.05	5.0
79.065	5.0
79.08	2.0
79.095	4.0
79.11	5.0
79.125	3.0
79.14	1.0
79.155	2.0
79.17	4.0
79.185	2.0
79.2	3.0
79.215	6.0
79.23	7.0
79.245	3.0
79.26	4.0
79.275	5.0
79.29	2.0
79.304	5.0
79.319	4.0
79.334	3.0
79.349	4.0
79.364	6.0
79.379	4.0
79.394	5.0
79.409	3.0
79.424	2.0
79.439	2.0
79.454	2.0
79.469	1.0
79.484	3.0
79.499	5.0
79.514	2.0
79.529	6.0
79.544	3.0
79.559	7.0
79.574	5.0
79.589	3.0
79.604	5.0
79.619	3.0
79.634	3.0
79.649	1.0
79.664	1.0
79.679	2.0
79.693	4.0
79.708	6.0
79.723	1.0
79.738	0.0
79.753	3.0
79.768	3.0
79.783	3.0
79.798	3.0
79.813	2.0
79.828	1.0
79.843	2.0
79.858	4.0
79.873	3.0
79.888	4.0
79.903	3.0
79.918	5.0
79.933	1.0
79.948	4.0
79.963	3.0
79.978	2.0
79.993	5.0
80.008	2.0
80.023	2.0
80.038	7.0
80.053	1.0
80.068	6.0
80.083	1.0
80.098	11.0
80.113	2.0
80.128	3.0
80.143	4.0
80.158	4.0
80.173	5.0
80.188	1.0
80.202	3.0
80.217	5.0
80.232	3.0
80.247	5.0
80.262	3.0
80.277	4.0
80.292	2.0
80.307	4.0
80.322	6.0
80.337	4.0
80.352	1.0
80.367	5.0
80.382	4.0
80.397	4.0
80.412	4.0
80.427	3.0
80.442	2.0
80.457	1.0
80.472	2.0
80.487	4.0
80.502	5.0
80.517	7.0
80.532	1.0
80.547	5.0
80.562	5.0
80.577	3.0
80.592	2.0
80.607	1.0
80.622	3.0
80.637	3.0
80.652	2.0
80.667	5.0
80.682	4.0
80.697	5.0
80.712	1.0
80.727	4.0
80.742	2.0
80.757	4.0
80.772	1.0
80.787	3.0
80.802	6.0
80.817	3.0
80.832	2.0
80.847	2.0
80.862	4.0
80.877	5.0
80.892	4.0
80.907	3.0
80.922	6.0
80.937	7.0
80.952	3.0
80.967	3.0
80.982	2.0
80.997	1.0
81.012	2.0
81.027	4.0
81.042	6.0
81.057	2.0
81.072	1.0
81.087	4.0
81.101	3.0
81.116	1.0
81.131	0.0
81.146	3.0
81.161	1.0
81.176	1.0
81.191	4.0
81.206	6.0
81.221	4.0
81.236	3.0
81.251	1.0
81.266	4.0
81.281	3.0
81.296	3.0
81.311	7.0
81.326	5.0
81.341	2.0
81.356	1.0
81.371	1.0
81.386	3.0
81.401	3.0
81.416	4.0
81.431	1.0
81.446	2.0
81.461	9.0
81.476	3.0
81.491	3.0
81.506	2.0
81.521	4.0
81.536	1.0
81.55	2.0
81.565	3.0
81.58	7.0
81.595	0.0
81.61	2.0
81.625	5.0
81.64	2.0
81.655	4.0
81.67	3.0
81.685	2.0
81.7	1.0
81.715	0.0
81.73	5.0
81.745	3.0
81.76	2.0
81.775	2.0
81.79	4.0
81.805	2.0
81.819	1.0
81.834	5.0
81.849	6.0
81.864	3.0
81.879	7.0
81.894	4.0
81.909	4.0
81.924	7.0
81.939	2.0
81.954	3.0
81.969	4.0
81.984	3.0
81.999	5.0
82.013	10.0
82.028	6.0
82.043	3.0
82.058	3.0
82.073	4.0
82.088	4.0
82.103	3.0
82.118	2.0
82.133	3.0
82.148	5.0
82.163	3.0
82.177	3.0
82.192	4.0
82.207	3.0
82.222	5.0
82.237	3.0
82.252	1.0
82.267	5.0
82.282	1.0
82.297	2.0
82.312	0.0
82.326	3.0
82.341	4.0
82.356	1.0
82.371	3.0
82.386	1.0
82.401	4.0
82.416	3.0
82.431	2.0
82.445	2.0
82.46	3.0
82.475	3.0
82.49	3.0
82.505	7.0
82.52	2.0
82.535	2.0
82.55	3.0
82.565	4.0
82.579	2.0
82.594	2.0
82.609	2.0
82.624	6.0
82.639	1.0
82.654	9.0
82.669	6.0
82.684	2.0
82.698	3.0
82.713	3.0
82.728	3.0
82.743	3.0
82.758	1.0
82.773	0.0
82.788	1.0
82.803	3.0
82.817	3.0
82.832	0.0
82.847	3.0
82.862	4.0
82.877	4.0
82.892	4.0
82.907	2.0
82.922	3.0
82.937	2.0
82.951	2.0
82.966	3.0
82.981	1.0
82.996	3.0
83.011	3.0
83.026	3.0
83.041	1.0
83.056	9.0
83.07	2.0
83.085	1.0
83.1	4.0
83.115	5.0
83.13	0.0
83.145	3.0
83.16	1.0
83.175	3.0
83.19	6.0
83.204	4.0
83.219	1.0
83.234	3.0
83.249	1.0
83.264	1.0
83.279	2.0
83.294	4.0
83.309	2.0
83.324	1.0
83.339	1.0
83.353	3.0
83.368	0.0
83.383	5.0
83.398	1.0
83.413	2.0
83.428	3.0
83.443	6.0
83.458	2.0
83.473	4.0
83.488	5.0
83.503	3.0
83.517	3.0
83.532	4.0
83.547	2.0
83.562	5.0
83.577	3.0
83.592	5.0
83.607	1.0
83.622	6.0
83.637	3.0
83.652	3.0
83.667	1.0
83.682	4.0
83.697	4.0
83.712	1.0
83.727	3.0
83.741	4.0
83.756	2.0
83.771	4.0
83.786	2.0
83.801	3.0
83.816	2.0
83.831	4.0
83.846	2.0
83.861	0.0
83.876	5.0
83.891	2.0
83.906	3.0
83.921	2.0
83.936	2.0
83.951	6.0
83.966	3.0
83.981	1.0
83.996	3.0
84.011	5.0
84.026	2.0
84.041	0.0
84.056	4.0
84.071	5.0
84.086	1.0
84.101	4.0
84.116	7.0
84.131	1.0
84.146	2.0
84.161	9.0
84.176	4.0
84.191	4.0
84.206	3.0
84.221	4.0
84.236	3.0
84.251	3.0
84.266	3.0
84.281	3.0
84.296	4.0
84.311	8.0
84.326	2.0
84.341	7.0
84.356	5.0
84.371	4.0
84.386	4.0
84.401	3.0
84.416	4.0
84.431	7.0
84.446	4.0
84.461	2.0
84.476	6.0
84.492	1.0
84.507	2.0
84.522	2.0
84.537	2.0
84.552	4.0
84.567	3.0
84.582	4.0
84.597	1.0
84.612	4.0
84.627	5.0
84.642	4.0
84.657	4.0
84.672	5.0
84.687	4.0
84.702	1.0
84.717	4.0
84.733	0.0
84.748	3.0
84.763	3.0
84.778	1.0
84.793	2.0
84.808	4.0
84.823	2.0
84.838	2.0
84.853	3.0
84.868	5.0
84.883	3.0
84.898	5.0
84.913	7.0
84.929	1.0
84.944	3.0
84.959	3.0
84.974	2.0
84.989	6.0
85.004	3.0
85.019	2.0
85.034	6.0
85.049	1.0
85.064	2.0
85.079	6.0
85.094	6.0
85.11	3.0
85.125	1.0
85.14	3.0
85.155	2.0
85.17	0.0
85.185	2.0
85.2	4.0
85.215	1.0
85.23	5.0
85.245	2.0
85.26	5.0
85.276	2.0
85.291	0.0
85.306	4.0
85.321	2.0
85.336	2.0
85.351	2.0
85.366	3.0
85.381	8.0
85.396	3.0
85.411	0.0
85.426	4.0
85.441	3.0
85.457	2.0
85.472	2.0
85.487	2.0
85.502	2.0
85.517	5.0
85.532	2.0
85.547	1.0
85.562	4.0
85.577	7.0
85.592	8.0
85.607	1.0
85.622	1.0
85.637	2.0
85.653	3.0
85.668	1.0
85.683	3.0
85.698	4.0
85.713	1.0
85.728	5.0
85.743	2.0
85.758	3.0
85.773	2.0
85.788	2.0
85.803	1.0
85.818	5.0
85.833	6.0
85.848	8.0
85.863	2.0
85.879	4.0
85.894	5.0
85.909	5.0
85.924	1.0
85.939	5.0
85.954	4.0
85.969	1.0
85.984	2.0
85.999	5.0
86.014	3.0
86.029	3.0
86.044	4.0
86.059	0.0
86.074	1.0
86.089	2.0
86.104	5.0
86.119	5.0
86.134	5.0
86.149	5.0
86.164	4.0
86.179	2.0
86.194	3.0
86.209	2.0
86.224	2.0
86.239	3.0
86.254	8.0
86.269	4.0
86.284	1.0
86.299	3.0
86.314	3.0
86.33	3.0
86.345	2.0
86.36	2.0
86.375	1.0
86.39	2.0
86.405	2.0
86.42	7.0
86.435	3.0
86.45	4.0
86.465	2.0
86.48	1.0
86.495	2.0
86.51	3.0
86.525	3.0
86.54	4.0
86.555	3.0
86.57	1.0
86.585	4.0
86.6	3.0
86.615	0.0
86.63	0.0
86.645	6.0
86.659	2.0
86.674	1.0
86.689	3.0
86.704	2.0
86.719	4.0
86.734	2.0
86.749	1.0
86.764	3.0
86.779	5.0
86.794	4.0
86.809	3.0
86.824	2.0
86.839	5.0
86.854	3.0
86.869	3.0
86.884	5.0
86.899	4.0
86.914	10.0
86.929	4.0
86.944	1.0
86.959	7.0
86.974	3.0
86.989	5.0
87.004	3.0
87.019	0.0
87.034	3.0
87.049	1.0
87.064	7.0
87.079	1.0
87.094	3.0
87.109	3.0
87.124	1.0
87.139	2.0
87.154	4.0
87.169	1.0
87.184	0.0
87.199	5.0
87.214	3.0
87.229	4.0
87.244	8.0
87.259	3.0
87.274	1.0
87.289	2.0
87.304	3.0
87.319	3.0
87.334	0.0
87.349	5.0
87.364	3.0
87.379	3.0
87.394	0.0
87.409	1.0
87.424	5.0
87.438	3.0
87.453	2.0
87.468	3.0
87.483	4.0
87.498	3.0
87.513	2.0
87.528	2.0
87.543	8.0
87.558	3.0
87.573	6.0
87.588	1.0
87.603	2.0
87.618	5.0
87.633	4.0
87.648	5.0
87.663	5.0
87.678	3.0
87.693	3.0
87.708	4.0
87.723	3.0
87.738	10.0
87.753	2.0
87.768	1.0
87.783	3.0
87.798	3.0
87.813	2.0
87.828	7.0
87.843	6.0
87.858	4.0
87.873	3.0
87.888	4.0
87.903	2.0
87.918	9.0
87.933	5.0
87.948	7.0
87.963	6.0
87.978	2.0
87.993	4.0
88.008	0.0
88.023	3.0
88.038	1.0
88.053	2.0
88.068	2.0
88.083	1.0
88.098	2.0
88.113	3.0
88.128	3.0
88.143	1.0
88.158	3.0
88.174	1.0
88.189	2.0
88.204	3.0
88.219	0.0
88.234	5.0
88.249	6.0
88.264	4.0
88.279	3.0
88.294	3.0
88.309	3.0
88.324	5.0
88.339	1.0
88.354	2.0
88.369	1.0
88.384	3.0
88.399	5.0
88.414	2.0
88.429	5.0
88.444	5.0
88.459	2.0
88.474	5.0
88.489	2.0
88.504	3.0
88.519	3.0
88.534	4.0
88.549	1.0
88.564	2.0
88.58	3.0
88.595	1.0
88.61	4.0
88.625	5.0
88.64	4.0
88.655	5.0
88.67	3.0
88.685	1.0
88.7	3.0
88.715	4.0
88.73	3.0
88.745	6.0
88.76	4.0
88.775	2.0
88.79	3.0
88.805	4.0
88.82	5.0
88.835	4.0
88.85	4.0
88.865	2.0
88.88	5.0
88.895	3.0
88.911	2.0
88.926	3.0
88.941	2.0
88.956	4.0
88.971	3.0
88.986	2.0
89.001	1.0
89.016	6.0
89.031	3.0
89.046	3.0
89.061	3.0
89.076	6.0
89.091	1.0
89.106	7.0
89.121	6.0
89.136	3.0
89.151	2.0
89.166	0.0
89.181	1.0
89.196	2.0
89.211	3.0
89.227	4.0
89.242	3.0
89.257	2.0
89.272	4.0
89.287	1.0
89.302	2.0
89.317	1.0
89.332	2.0
89.347	3.0
89.362	3.0
89.377	5.0
89.392	2.0
89.407	4.0
89.422	3.0
89.437	3.0
89.452	2.0
89.467	3.0
89.482	6.0
89.497	2.0
89.512	8.0
89.527	3.0
89.542	3.0
89.557	3.0
89.572	6.0
89.587	1.0
89.602	6.0
89.617	5.0
89.632	3.0
89.647	3.0
89.662	3.0
89.677	5.0
89.693	4.0
89.708	0.0
89.723	3.0
89.738	1.0
89.753	3.0
89.768	2.0
89.783	3.0
89.798	5.0
89.813	0.0
89.828	3.0
89.843	4.0
89.858	3.0
89.873	3.0
89.888	8.0
89.903	2.0
89.918	2.0
89.933	4.0
89.948	6.0
89.963	4.0
89.978	5.0
89.993	3.0
90.008	1.0
90.023	2.0
90.038	3.0
90.053	3.0
90.068	4.0
90.083	2.0
90.097	5.0
90.112	1.0
90.127	5.0
90.142	2.0
90.157	4.0
90.172	3.0
90.187	3.0
90.202	6.0
90.217	3.0
90.232	5.0
90.247	6.0
90.262	8.0
90.277	2.0
90.292	3.0
90.307	5.0
90.322	3.0
90.337	7.0
90.352	5.0
90.367	6.0
90.382	5.0
90.397	3.0
90.412	6.0
90.427	5.0
90.442	3.0
90.457	1.0
90.472	4.0
90.487	5.0
90.501	4.0
90.516	6.0
90.531	7.0
90.546	3.0
90.561	2.0
90.576	3.0
90.591	2.0
90.606	5.0
90.621	2.0
90.636	3.0
90.651	1.0
90.666	1.0
90.681	1.0
90.696	2.0
90.711	1.0
90.726	1.0
90.741	2.0
90.755	1.0
90.77	3.0
90.785	2.0
90.8	4.0
90.815	2.0
90.83	1.0
90.845	1.0
90.86	2.0
90.875	2.0
90.89	2.0
90.905	5.0
90.92	0.0
90.935	5.0
90.95	2.0
90.965	2.0
90.979	4.0
90.994	8.0
91.009	6.0
91.024	2.0
91.039	4.0
91.054	2.0
91.069	8.0
91.084	2.0
91.099	0.0
91.114	2.0
91.129	5.0
91.144	3.0
91.159	2.0
91.174	4.0
91.188	4.0
91.203	2.0
91.218	4.0
91.233	4.0
91.248	3.0
91.263	4.0
91.278	2.0
91.293	2.0
91.308	2.0
91.323	4.0
91.338	2.0
91.353	3.0
91.368	2.0
91.383	4.0
91.398	2.0
91.412	2.0
91.427	1.0
91.442	4.0
91.457	3.0
91.472	3.0
91.487	1.0
91.502	4.0
91.517	6.0
91.532	1.0
91.547	4.0
91.562	2.0
91.577	5.0
91.592	4.0
91.607	3.0
91.622	4.0
91.637	3.0
91.652	2.0
91.666	2.0
91.681	4.0
91.696	4.0
91.711	6.0
91.726	1.0
91.741	3.0
91.756	5.0
91.771	4.0
91.786	3.0
91.801	1.0
91.816	3.0
91.831	2.0
91.846	3.0
91.861	2.0
91.876	5.0
91.891	4.0
91.906	6.0
91.921	1.0
91.936	3.0
91.951	2.0
91.966	2.0
91.981	3.0
91.995	2.0
92.01	5.0
92.025	3.0
92.04	2.0
92.055	5.0
92.07	5.0
92.085	5.0
92.1	2.0
92.115	2.0
92.13	4.0
92.145	3.0
92.16	1.0
92.175	3.0
92.19	5.0
92.205	1.0
92.22	4.0
92.235	5.0
92.25	2.0
92.265	7.0
92.28	5.0
92.295	4.0
92.31	1.0
92.325	1.0
92.34	4.0
92.355	3.0
92.37	2.0
92.385	3.0
92.4	2.0
92.415	9.0
92.43	3.0
92.445	1.0
92.46	6.0
92.475	6.0
92.49	5.0
92.505	2.0
92.52	3.0
92.535	0.0
92.55	3.0
92.565	4.0
92.58	0.0
92.595	4.0
92.61	1.0
92.625	2.0
92.64	3.0
92.655	1.0
92.67	2.0
92.685	2.0
92.7	0.0
92.715	3.0
92.73	2.0
92.745	2.0
92.76	3.0
92.775	4.0
92.79	3.0
92.805	3.0
92.82	3.0
92.835	0.0
92.85	2.0
92.865	2.0
92.88	2.0
92.895	5.0
92.91	1.0
92.925	6.0
92.94	3.0
92.955	3.0
92.97	2.0
92.985	3.0
93.0	1.0
93.015	2.0
93.03	5.0
93.045	0.0
93.06	0.0
93.075	1.0
93.09	5.0
93.105	1.0
93.12	4.0
93.135	1.0
93.15	2.0
93.165	2.0
93.18	2.0
93.195	2.0
93.21	1.0
93.225	2.0
93.24	2.0
93.255	2.0
93.27	3.0
93.285	3.0
93.3	2.0
93.315	2.0
93.33	3.0
93.345	2.0
93.36	5.0
93.375	6.0
93.39	4.0
93.405	2.0
93.42	2.0
93.435	4.0
93.45	6.0
93.465	3.0
93.48	4.0
93.495	0.0
93.51	2.0
93.525	3.0
93.54	4.0
93.555	7.0
93.57	3.0
93.585	2.0
93.6	2.0
93.615	2.0
93.63	3.0
93.645	4.0
93.66	1.0
93.675	3.0
93.69	7.0
93.705	5.0
93.72	4.0
93.735	3.0
93.75	5.0
93.765	4.0
93.78	2.0
93.795	2.0
93.81	4.0
93.824	2.0
93.839	1.0
93.854	4.0
93.869	6.0
93.884	1.0
93.899	4.0
93.914	3.0
93.929	3.0
93.944	0.0
93.959	2.0
93.974	0.0
93.989	3.0
94.004	0.0
94.019	1.0
94.034	2.0
94.049	4.0
94.064	0.0
94.079	3.0
94.094	3.0
94.108	3.0
94.123	2.0
94.138	3.0
94.153	2.0
94.168	4.0
94.183	6.0
94.198	3.0
94.213	0.0
94.228	2.0
94.243	5.0
94.258	7.0
94.273	2.0
94.288	7.0
94.302	3.0
94.317	5.0
94.332	1.0
94.347	5.0
94.362	8.0
94.377	7.0
94.392	5.0
94.407	5.0
94.422	5.0
94.437	1.0
94.452	3.0
94.466	1.0
94.481	8.0
94.496	3.0
94.511	1.0
94.526	4.0
94.541	6.0
94.556	4.0
94.571	4.0
94.586	0.0
94.601	5.0
94.615	7.0
94.63	5.0
94.645	6.0
94.66	4.0
94.675	3.0
94.69	2.0
94.705	6.0
94.72	1.0
94.735	2.0
94.749	5.0
94.764	3.0
94.779	3.0
94.794	5.0
94.809	1.0
94.824	2.0
94.839	8.0
94.854	2.0
94.868	4.0
94.883	3.0
94.898	5.0
94.913	3.0
94.928	5.0
94.943	8.0
94.958	2.0
94.973	5.0
94.987	5.0
95.002	2.0
95.017	4.0
95.032	2.0
95.047	3.0
95.062	6.0
95.077	5.0
95.092	1.0
95.106	5.0
95.121	1.0
95.136	5.0
95.151	5.0
95.166	7.0
95.181	3.0
95.196	5.0
95.211	5.0
95.226	6.0
95.24	3.0
95.255	5.0
95.27	7.0
95.285	4.0
95.3	1.0
95.315	1.0
95.33	3.0
95.345	2.0
95.359	2.0
95.374	4.0
95.389	1.0
95.404	1.0
95.419	2.0
95.434	3.0
95.449	1.0
95.464	8.0
95.478	2.0
95.493	0.0
95.508	1.0
95.523	2.0
95.538	2.0
95.553	2.0
95.568	2.0
95.583	4.0
95.597	4.0
95.612	4.0
95.627	5.0
95.642	5.0
95.657	4.0
95.672	6.0
95.687	2.0
95.702	6.0
95.717	6.0
95.731	1.0
95.746	4.0
95.761	3.0
95.776	1.0
95.791	5.0
95.806	4.0
95.821	0.0
95.836	2.0
95.851	4.0
95.866	2.0
95.88	0.0
95.895	4.0
95.91	1.0
95.925	1.0
95.94	2.0
95.955	5.0
95.97	1.0
95.985	2.0
96.0	2.0
96.015	4.0
96.029	5.0
96.044	5.0
96.059	3.0
96.074	3.0
96.089	5.0
96.104	5.0
96.119	2.0
96.134	4.0
96.149	3.0
96.164	5.0
96.179	2.0
96.194	2.0
96.208	4.0
96.223	5.0
96.238	1.0
96.253	2.0
96.268	4.0
96.283	1.0
96.298	2.0
96.313	3.0
96.328	3.0
96.343	2.0
96.358	2.0
96.373	5.0
96.388	2.0
96.403	2.0
96.417	2.0
96.432	3.0
96.447	2.0
96.462	1.0
96.477	1.0
96.492	6.0
96.507	2.0
96.522	4.0
96.537	4.0
96.552	6.0
96.567	2.0
96.582	4.0
96.597	3.0
96.612	4.0
96.627	5.0
96.642	1.0
96.656	4.0
96.671	3.0
96.686	5.0
96.701	2.0
96.716	3.0
96.731	4.0
96.746	4.0
96.761	2.0
96.776	5.0
96.791	2.0
96.806	4.0
96.821	4.0
96.836	5.0
96.851	2.0
96.866	4.0
96.881	3.0
96.896	1.0
96.911	3.0
96.926	3.0
96.94	4.0
96.955	4.0
96.97	4.0
96.985	6.0
97.0	3.0
97.015	1.0
97.03	3.0
97.045	2.0
97.06	4.0
97.075	4.0
97.09	6.0
97.105	4.0
97.12	6.0
97.135	2.0
97.15	4.0
97.165	0.0
97.18	3.0
97.195	5.0
97.21	6.0
97.225	2.0
97.239	2.0
97.254	2.0
97.269	1.0
97.284	4.0
97.299	3.0
97.314	4.0
97.329	5.0
97.344	3.0
97.359	2.0
97.374	3.0
97.389	4.0
97.404	1.0
97.419	4.0
97.434	4.0
97.449	3.0
97.464	5.0
97.479	4.0
97.494	3.0
97.509	1.0
97.524	2.0
97.538	7.0
97.553	4.0
97.568	0.0
97.583	3.0
97.598	5.0
97.613	8.0
97.628	1.0
97.643	3.0
97.658	2.0
97.673	4.0
97.688	4.0
97.703	4.0
97.718	6.0
97.733	3.0
97.748	3.0
97.763	3.0
97.778	4.0
97.792	2.0
97.807	4.0
97.822	3.0
97.837	7.0
97.852	4.0
97.867	5.0
97.882	4.0
97.897	2.0
97.912	4.0
97.927	1.0
97.942	7.0
97.957	3.0
97.972	3.0
97.987	4.0
98.001	5.0
98.016	2.0
98.031	3.0
98.046	6.0
98.061	6.0
98.076	1.0
98.091	0.0
98.106	5.0
98.121	6.0
98.136	2.0
98.151	3.0
98.166	3.0
98.181	3.0
98.195	3.0
98.21	4.0
98.225	3.0
98.24	2.0
98.255	1.0
98.27	3.0
98.285	2.0
98.3	2.0
98.315	3.0
98.33	4.0
98.345	3.0
98.359	3.0
98.374	3.0
98.389	2.0
98.404	0.0
98.419	3.0
98.434	4.0
98.449	2.0
98.464	2.0
98.479	2.0
98.494	0.0
98.508	3.0
98.523	5.0
98.538	2.0
98.553	4.0
98.568	2.0
98.583	6.0
98.598	1.0
98.613	2.0
98.628	7.0
98.642	1.0
98.657	2.0
98.672	2.0
98.687	2.0
98.702	2.0
98.717	2.0
98.732	3.0
98.747	1.0
98.762	3.0
98.776	3.0
98.791	1.0
98.806	0.0
98.821	5.0
98.836	1.0
98.851	2.0
98.866	5.0
98.881	2.0
98.896	5.0
98.91	0.0
98.925	4.0
98.94	3.0
98.955	5.0
98.97	1.0
98.985	3.0
99.0	3.0
99.015	4.0
99.029	3.0
99.044	1.0
99.059	3.0
99.074	4.0
99.089	4.0
99.104	5.0
99.119	2.0
99.133	5.0
99.148	4.0
99.163	0.0
99.178	1.0
99.193	4.0
99.208	2.0
99.223	4.0
99.238	6.0
99.252	2.0
99.267	2.0
99.282	4.0
99.297	1.0
99.312	4.0
99.327	2.0
99.342	4.0
99.356	1.0
99.371	2.0
99.386	1.0
99.401	4.0
99.416	2.0
99.431	6.0
99.446	5.0
99.461	1.0
99.475	4.0
99.49	1.0
99.505	4.0
99.52	4.0
99.535	7.0
99.55	2.0
99.565	3.0
99.579	6.0
99.594	3.0
99.609	1.0
99.624	2.0
99.639	5.0
99.654	0.0
99.669	0.0
99.683	1.0
99.698	1.0
99.713	2.0
99.728	6.0
99.743	4.0
99.758	1.0
99.772	7.0
99.787	2.0
99.802	2.0
99.817	3.0
99.832	3.0
99.847	4.0
99.862	2.0
99.876	3.0
99.891	1.0
99.906	1.0
99.921	3.0
99.936	1.0
99.951	4.0
99.966	5.0
99.98	0.0
99.995	3.0
100.01	1.0
100.025	1.0
100.04	3.0
100.055	3.0
100.069	1.0
100.084	4.0
100.099	6.0
100.114	3.0
100.129	3.0
100.144	3.0
100.159	4.0
100.173	2.0
100.188	3.0
100.203	4.0
100.218	2.0
100.233	2.0
100.248	4.0
100.262	7.0
100.277	4.0
100.292	4.0
100.307	4.0
100.322	3.0
100.337	8.0
100.351	3.0
100.366	8.0
100.381	5.0
100.396	2.0
100.411	7.0
100.426	4.0
100.441	5.0
100.455	1.0
100.47	3.0
100.485	3.0
100.5	5.0
100.515	4.0
100.53	3.0
100.544	3.0
100.559	3.0
100.574	5.0
100.589	5.0
100.604	3.0
100.619	1.0
100.633	4.0
100.648	2.0
100.663	2.0
100.678	4.0
100.693	6.0
100.708	1.0
100.722	5.0
100.737	7.0
100.752	2.0
100.767	3.0
100.782	2.0
100.796	1.0
100.811	1.0
100.826	3.0
100.841	7.0
100.856	4.0
100.871	2.0
100.885	2.0
100.9	6.0
100.915	2.0
100.93	1.0
100.945	2.0
100.96	1.0
100.974	1.0
100.989	4.0
101.004	2.0
101.019	1.0
101.034	8.0
101.048	1.0
101.063	8.0
101.078	8.0
101.093	2.0
101.108	7.0
101.123	7.0
101.137	4.0
101.152	5.0
101.167	6.0
101.182	4.0
101.197	3.0
101.211	2.0
101.226	6.0
101.241	4.0
101.256	4.0
101.271	1.0
101.285	4.0
101.3	1.0
101.315	1.0
101.33	3.0
101.345	5.0
101.359	3.0
101.374	2.0
101.389	3.0
101.404	5.0
101.419	1.0
101.433	3.0
101.448	6.0
101.463	2.0
101.478	1.0
101.493	1.0
101.507	5.0
101.522	4.0
101.537	7.0
101.552	2.0
101.567	1.0
101.581	4.0
101.596	4.0
101.611	3.0
101.626	2.0
101.64	1.0
101.655	3.0
101.67	4.0
101.685	4.0
101.7	0.0
101.714	3.0
101.729	3.0
101.744	6.0
101.759	9.0
101.773	3.0
101.788	2.0
101.803	5.0
101.818	3.0
101.833	5.0
101.847	2.0
101.862	2.0
101.877	0.0
101.892	3.0
101.906	2.0
101.921	2.0
101.936	4.0
101.951	4.0
101.965	1.0
101.98	3.0
101.995	5.0
102.01	1.0
102.025	3.0
102.039	2.0
102.054	2.0
102.069	3.0
102.084	4.0
102.098	2.0
102.113	5.0
102.128	4.0
102.143	2.0
102.157	4.0
102.172	3.0
102.187	0.0
102.202	6.0
102.216	1.0
102.231	5.0
102.246	5.0
102.261	4.0
102.275	3.0
102.29	5.0
102.305	2.0
102.32	3.0
102.334	2.0
102.349	4.0
102.364	4.0
102.378	7.0
102.393	1.0
102.408	0.0
102.423	2.0
102.437	4.0
102.452	4.0
102.467	2.0
102.482	2.0
102.496	3.0
102.511	5.0
102.526	5.0
102.541	3.0
102.555	3.0
102.57	3.0
102.585	2.0
102.6	3.0
102.614	5.0
102.629	6.0
102.644	7.0
102.659	3.0
102.673	0.0
102.688	2.0
102.703	4.0
102.717	3.0
102.732	1.0
102.747	4.0
102.762	3.0
102.776	2.0
102.791	2.0
102.806	5.0
102.821	1.0
102.835	2.0
102.85	3.0
102.865	4.0
102.88	3.0
102.894	7.0
102.909	7.0
102.924	5.0
102.938	0.0
102.953	4.0
102.968	3.0
102.983	3.0
102.997	4.0
103.012	4.0
103.027	2.0
103.042	2.0
103.056	6.0
103.071	2.0
103.086	1.0
103.101	2.0
103.115	2.0
103.13	2.0
103.145	0.0
103.16	3.0
103.174	3.0
103.189	2.0
103.204	2.0
103.219	5.0
103.233	2.0
103.248	2.0
103.263	2.0
103.278	1.0
103.292	2.0
103.307	1.0
103.322	4.0
103.337	2.0
103.351	2.0
103.366	2.0
103.381	3.0
103.396	4.0
103.41	3.0
103.425	2.0
103.44	6.0
103.455	0.0
103.469	2.0
103.484	5.0
103.499	4.0
103.514	2.0
103.529	4.0
103.543	6.0
103.558	5.0
103.573	5.0
103.588	1.0
103.602	2.0
103.617	3.0
103.632	3.0
103.647	3.0
103.661	0.0
103.676	4.0
103.691	7.0
103.706	3.0
103.721	2.0
103.735	1.0
103.75	2.0
103.765	2.0
103.78	1.0
103.795	4.0
103.809	4.0
103.824	5.0
103.839	2.0
103.854	6.0
103.869	3.0
103.883	4.0
103.898	1.0
103.913	2.0
103.928	1.0
103.943	4.0
103.957	3.0
103.972	2.0
103.987	3.0
104.002	2.0
104.017	6.0
104.031	3.0
104.046	4.0
104.061	2.0
104.076	0.0
104.091	3.0
104.106	4.0
104.12	4.0
104.135	2.0
104.15	2.0
104.165	3.0
104.18	0.0
104.195	6.0
104.209	3.0
104.224	2.0
104.239	5.0
104.254	3.0
104.269	2.0
104.284	0.0
104.299	1.0
104.313	3.0
104.328	3.0
104.343	5.0
104.358	0.0
104.373	5.0
104.388	2.0
104.403	3.0
104.417	5.0
104.432	4.0
104.447	2.0
104.462	4.0
104.477	2.0
104.492	2.0
104.507	2.0
104.522	6.0
104.536	6.0
104.551	2.0
104.566	6.0
104.581	6.0
104.596	3.0
104.611	5.0
104.626	3.0
104.641	3.0
104.656	3.0
104.67	3.0
104.685	4.0
104.7	2.0
104.715	3.0
104.73	2.0
104.745	0.0
104.76	1.0
104.775	2.0
104.79	2.0
104.804	2.0
104.819	2.0
104.834	3.0
104.849	4.0
104.864	0.0
104.879	1.0
104.894	5.0
104.909	3.0
104.924	3.0
104.939	3.0
104.954	4.0
104.968	5.0
104.983	4.0
104.998	0.0
105.013	2.0
105.028	5.0
105.043	0.0
105.058	3.0
105.073	2.0
105.088	4.0
105.103	2.0
105.118	1.0
105.133	0.0
105.147	3.0
105.162	3.0
105.177	1.0
105.192	2.0
105.207	3.0
105.222	5.0
105.237	3.0
105.252	5.0
105.267	2.0
105.282	1.0
105.297	3.0
105.312	6.0
105.327	4.0
105.342	5.0
105.356	6.0
105.371	3.0
105.386	2.0
105.401	3.0
105.416	4.0
105.431	5.0
105.446	2.0
105.461	3.0
105.476	1.0
105.491	2.0
105.506	7.0
105.521	8.0
105.536	4.0
105.551	5.0
105.566	5.0
105.581	2.0
105.595	4.0
105.61	0.0
105.625	6.0
105.64	1.0
105.655	4.0
105.67	2.0
105.685	4.0
105.7	1.0
105.715	1.0
105.73	4.0
105.745	1.0
105.76	4.0
105.775	4.0
105.79	4.0
105.805	2.0
105.82	2.0
105.835	1.0
105.85	3.0
105.864	2.0
105.879	3.0
105.894	3.0
105.909	3.0
105.924	6.0
105.939	2.0
105.954	1.0
105.969	1.0
105.984	4.0
105.999	3.0
106.014	4.0
106.029	3.0
106.044	1.0
106.059	3.0
106.074	3.0
106.089	5.0
106.104	2.0
106.119	2.0
106.134	2.0
106.148	5.0
106.163	7.0
106.178	1.0
106.193	2.0
106.208	3.0
106.223	2.0
106.238	2.0
106.253	2.0
106.268	2.0
106.283	4.0
106.298	7.0
106.313	2.0
106.328	5.0
106.343	3.0
106.358	2.0
106.373	0.0
106.388	0.0
106.403	4.0
106.418	5.0
106.432	5.0
106.447	1.0
106.462	3.0
106.477	2.0
106.492	1.0
106.507	5.0
106.522	2.0
106.537	7.0
106.552	2.0
106.567	3.0
106.582	5.0
106.597	4.0
106.612	4.0
106.627	4.0
106.642	2.0
106.657	0.0
106.672	4.0
106.687	1.0
106.701	3.0
106.716	1.0
106.731	5.0
106.746	0.0
106.761	2.0
106.776	3.0
106.791	4.0
106.806	3.0
106.821	3.0
106.836	6.0
106.851	6.0
106.866	4.0
106.881	2.0
106.896	6.0
106.911	2.0
106.926	5.0
106.941	1.0
106.955	0.0
106.97	2.0
106.985	3.0
107.0	2.0
107.015	4.0
107.03	3.0
107.045	3.0
107.06	5.0
107.075	3.0
107.09	1.0
107.105	2.0
107.12	4.0
107.135	6.0
107.15	5.0
107.165	2.0
107.18	5.0
107.194	6.0
107.209	4.0
107.224	1.0
107.239	6.0
107.254	4.0
107.269	6.0
107.284	8.0
107.299	5.0
107.314	3.0
107.329	2.0
107.344	4.0
107.359	5.0
107.374	2.0
107.389	5.0
107.404	5.0
107.418	1.0
107.433	5.0
107.448	4.0
107.463	3.0
107.478	5.0
107.493	3.0
107.508	4.0
107.523	5.0
107.538	8.0
107.553	4.0
107.568	4.0
107.583	2.0
107.598	3.0
107.613	1.0
107.627	2.0
107.642	1.0
107.657	1.0
107.672	7.0
107.687	5.0
107.702	4.0
107.717	2.0
107.732	5.0
107.747	6.0
107.762	3.0
107.777	3.0
107.792	2.0
107.807	1.0
107.821	2.0
107.836	2.0
107.851	3.0
107.866	2.0
107.881	3.0
107.896	2.0
107.911	2.0
107.926	2.0
107.941	3.0
107.956	4.0
107.971	2.0
107.986	2.0
108.0	4.0
108.015	5.0
108.03	9.0
108.045	3.0
108.06	3.0
108.075	2.0
108.09	1.0
108.105	3.0
108.12	5.0
108.135	9.0
108.15	3.0
108.164	4.0
108.179	2.0
108.194	1.0
108.209	4.0
108.224	5.0
108.239	3.0
108.254	3.0
108.269	4.0
108.284	0.0
108.299	5.0
108.313	4.0
108.328	3.0
108.343	2.0
108.358	4.0
108.373	4.0
108.388	3.0
108.403	2.0
108.418	1.0
108.433	1.0
108.448	5.0
108.462	2.0
108.477	6.0
108.492	4.0
108.507	0.0
108.522	3.0
108.537	3.0
108.552	3.0
108.567	1.0
108.582	2.0
108.597	3.0
108.611	4.0
108.626	4.0
108.641	4.0
108.656	3.0
108.671	3.0
108.686	3.0
108.701	4.0
108.716	2.0
108.731	3.0
108.745	3.0
108.76	3.0
108.775	2.0
108.79	1.0
108.805	3.0
108.82	0.0
108.835	5.0
108.85	4.0
108.865	0.0
108.879	3.0
108.894	1.0
108.909	5.0
108.924	5.0
108.939	3.0
108.954	5.0
108.969	2.0
108.984	3.0
108.999	6.0
109.013	5.0
109.028	1.0
109.043	0.0
109.058	6.0
109.073	3.0
109.088	2.0
109.103	1.0
109.118	6.0
109.133	1.0
109.147	2.0
109.162	4.0
109.177	4.0
109.192	2.0
109.207	0.0
109.222	3.0
109.237	6.0
109.252	3.0
109.267	1.0
109.281	8.0
109.296	2.0
109.311	3.0
109.326	3.0
109.341	4.0
109.356	0.0
109.371	4.0
109.386	5.0
109.4	2.0
109.415	4.0
109.43	2.0
109.445	3.0
109.46	4.0
109.475	4.0
109.49	1.0
109.505	6.0
109.52	5.0
109.534	4.0
109.549	3.0
109.564	4.0
109.579	7.0
109.594	4.0
109.609	4.0
109.624	4.0
109.639	7.0
109.653	4.0
109.668	2.0
109.683	4.0
109.698	5.0
109.713	1.0
109.728	1.0
109.743	3.0
109.758	6.0
109.773	3.0
109.787	2.0
109.802	1.0
109.817	2.0
109.832	2.0
109.847	5.0
109.862	1.0
109.877	2.0
109.892	3.0
109.907	5.0
109.921	4.0
109.936	3.0
109.951	3.0
109.966	3.0
109.981	3.0
109.996	2.0
110.011	4.0
110.026	5.0
110.04	3.0
110.055	4.0
110.07	5.0
110.085	2.0
110.1	4.0
110.115	3.0
110.13	1.0
110.145	1.0
110.16	1.0
110.174	3.0
110.189	3.0
110.204	2.0
110.219	1.0
110.234	0.0
110.249	0.0
110.264	5.0
110.279	4.0
110.294	5.0
110.308	1.0
110.323	4.0
110.338	2.0
110.353	4.0
110.368	1.0
110.383	2.0
110.398	5.0
110.413	9.0
110.428	2.0
110.442	3.0
110.457	1.0
110.472	5.0
110.487	1.0
110.502	5.0
110.517	5.0
110.532	2.0
110.547	5.0
110.561	5.0
110.576	3.0
110.591	4.0
110.606	3.0
110.621	2.0
110.636	2.0
110.651	2.0
110.666	3.0
110.681	3.0
110.695	1.0
110.71	1.0
110.725	2.0
110.74	2.0
110.755	4.0
110.77	0.0
110.785	1.0
110.8	4.0
110.815	5.0
110.829	4.0
110.844	5.0
110.859	4.0
110.874	5.0
110.889	7.0
110.904	3.0
110.919	2.0
110.934	3.0
110.948	2.0
110.963	2.0
110.978	2.0
110.993	3.0
111.008	0.0
111.023	4.0
111.038	5.0
111.053	5.0
111.067	0.0
111.082	2.0
111.097	5.0
111.112	6.0
111.127	3.0
111.142	2.0
111.157	2.0
111.172	1.0
111.186	6.0
111.201	1.0
111.216	5.0
111.231	2.0
111.246	4.0
111.261	3.0
111.276	2.0
111.291	8.0
111.305	5.0
111.32	2.0
111.335	3.0
111.35	4.0
111.365	1.0
111.38	7.0
111.395	2.0
111.41	1.0
111.424	6.0
111.439	4.0
111.454	0.0
111.469	5.0
111.484	5.0
111.499	4.0
111.514	1.0
111.528	3.0
111.543	7.0
111.558	4.0
111.573	5.0
111.588	2.0
111.603	1.0
111.618	0.0
111.633	5.0
111.647	4.0
111.662	4.0
111.677	5.0
111.692	2.0
111.707	2.0
111.722	2.0
111.737	3.0
111.751	2.0
111.766	3.0
111.781	1.0
111.796	8.0
111.811	3.0
111.826	4.0
111.84	6.0
111.855	7.0
111.87	8.0
111.885	4.0
111.9	8.0
111.915	3.0
111.93	4.0
111.944	3.0
111.959	3.0
111.974	2.0
111.989	1.0
112.004	1.0
112.019	2.0
112.033	5.0
112.048	3.0
112.063	3.0
112.078	4.0
112.093	4.0
112.108	5.0
112.123	0.0
112.137	8.0
112.152	6.0
112.167	4.0
112.182	3.0
112.197	5.0
112.212	4.0
112.226	2.0
112.241	5.0
112.256	6.0
112.271	1.0
112.286	3.0
112.301	6.0
112.315	5.0
112.33	4.0
112.345	3.0
112.36	2.0
112.375	3.0
112.389	2.0
112.404	8.0
112.419	5.0
112.434	3.0
112.449	4.0
112.464	4.0
112.478	1.0
112.493	3.0
112.508	4.0
112.523	2.0
112.538	0.0
112.553	5.0
112.567	2.0
112.582	1.0
112.597	5.0
112.612	3.0
112.627	1.0
112.642	1.0
112.656	4.0
112.671	11.0
112.686	2.0
112.701	6.0
112.716	1.0
112.73	5.0
112.745	5.0
112.76	3.0
112.775	5.0
112.79	4.0
112.805	2.0
112.819	4.0
112.834	3.0
112.849	3.0
112.864	3.0
112.879	2.0
112.894	3.0
112.908	1.0
112.923	4.0
112.938	3.0
112.953	7.0
112.968	3.0
112.983	1.0
112.997	6.0
113.012	4.0
113.027	7.0
113.042	4.0
113.057	2.0
113.072	1.0
113.086	5.0
113.101	1.0
113.116	1.0
113.131	5.0
113.146	2.0
113.161	1.0
113.175	6.0
113.19	2.0
113.205	3.0
113.22	2.0
113.235	3.0
113.25	5.0
113.265	1.0
113.279	2.0
113.294	5.0
113.309	3.0
113.324	3.0
113.339	5.0
113.354	1.0
113.368	3.0
113.383	8.0
113.398	5.0
113.413	1.0
113.428	4.0
113.443	3.0
113.458	5.0
113.472	3.0
113.487	6.0
113.502	2.0
113.517	7.0
113.532	3.0
113.547	2.0
113.562	2.0
113.576	4.0
113.591	3.0
113.606	6.0
113.621	5.0
113.636	1.0
113.651	4.0
113.666	1.0
113.681	1.0
113.695	1.0
113.71	2.0
113.725	4.0
113.74	3.0
113.755	1.0
113.77	4.0
113.785	2.0
113.8	3.0
113.814	3.0
113.829	4.0
113.844	0.0
113.859	0.0
113.874	4.0
113.889	7.0
113.904	2.0
113.919	4.0
113.934	4.0
113.949	2.0
113.963	3.0
113.978	5.0
113.993	3.0
114.008	4.0
114.023	5.0
114.038	2.0
114.053	2.0
114.068	6.0
114.083	8.0
114.098	2.0
114.113	7.0
114.127	3.0
114.142	3.0
114.157	6.0
114.172	5.0
114.187	4.0
114.202	2.0
114.217	0.0
114.232	6.0
114.247	2.0
114.262	0.0
114.277	3.0
114.292	4.0
114.307	4.0
114.322	1.0
114.337	3.0
114.351	2.0
114.366	7.0
114.381	6.0
114.396	5.0
114.411	5.0
114.426	4.0
114.441	4.0
114.456	3.0
114.471	2.0
114.486	5.0
114.501	3.0
114.516	1.0
114.531	2.0
114.546	1.0
114.561	4.0
114.576	5.0
114.591	5.0
114.606	4.0
114.621	1.0
114.636	3.0
114.65	5.0
114.665	4.0
114.68	3.0
114.695	2.0
114.71	3.0
114.725	2.0
114.74	0.0
114.755	4.0
114.77	3.0
114.785	8.0
114.8	3.0
114.815	4.0
114.83	5.0
114.845	4.0
114.86	2.0
114.875	1.0
114.89	4.0
114.905	3.0
114.92	5.0
114.935	2.0
114.95	5.0
114.965	2.0
114.98	2.0
114.995	2.0
115.009	4.0
115.024	2.0
115.039	3.0
115.054	2.0
115.069	2.0
115.084	4.0
115.099	5.0
115.114	2.0
115.129	2.0
115.144	2.0
115.159	3.0
115.174	4.0
115.189	3.0
115.204	2.0
115.219	5.0
115.234	3.0
115.249	8.0
115.264	1.0
115.279	3.0
115.294	4.0
115.309	6.0
115.323	4.0
115.338	6.0
115.353	3.0
115.368	5.0
115.383	5.0
115.398	6.0
115.413	1.0
115.428	4.0
115.443	6.0
115.458	4.0
115.473	3.0
115.488	8.0
115.503	6.0
115.518	4.0
115.533	3.0
115.548	5.0
115.562	3.0
115.577	4.0
115.592	5.0
115.607	1.0
115.622	8.0
115.637	0.0
115.652	5.0
115.667	1.0
115.682	5.0
115.697	3.0
115.712	5.0
115.727	4.0
115.741	4.0
115.756	4.0
115.771	3.0
115.786	4.0
115.801	4.0
115.816	3.0
115.831	4.0
115.846	2.0
115.861	7.0
115.875	6.0
115.89	5.0
115.905	3.0
115.92	2.0
115.935	3.0
115.95	3.0
115.965	8.0
115.98	1.0
115.995	2.0
116.009	5.0
116.024	3.0
116.039	1.0
116.054	2.0
116.069	6.0
116.084	4.0
116.099	5.0
116.113	2.0
116.128	3.0
116.143	2.0
116.158	4.0
116.173	5.0
116.188	3.0
116.202	2.0
116.217	7.0
116.232	6.0
116.247	2.0
116.262	3.0
116.277	3.0
116.291	6.0
116.306	2.0
116.321	1.0
116.336	3.0
116.351	2.0
116.366	1.0
116.38	4.0
116.395	2.0
116.41	8.0
116.425	4.0
116.44	3.0
116.454	4.0
116.469	5.0
116.484	0.0
116.499	6.0
116.514	3.0
116.528	4.0
116.543	2.0
116.558	4.0
116.573	4.0
116.588	1.0
116.602	5.0
116.617	4.0
116.632	4.0
116.647	4.0
116.662	4.0
116.676	5.0
116.691	3.0
116.706	1.0
116.721	4.0
116.735	3.0
116.75	5.0
116.765	3.0
116.78	6.0
116.795	6.0
116.809	7.0
116.824	7.0
116.839	3.0
116.854	3.0
116.868	3.0
116.883	1.0
116.898	1.0
116.913	2.0
116.927	5.0
116.942	4.0
116.957	7.0
116.972	3.0
116.986	2.0
117.001	4.0
117.016	4.0
117.031	1.0
117.045	3.0
117.06	3.0
117.075	3.0
117.09	1.0
117.104	7.0
117.119	3.0
117.134	6.0
117.149	3.0
117.163	4.0
117.178	0.0
117.193	3.0
117.208	1.0
117.222	3.0
117.237	0.0
117.252	3.0
117.267	4.0
117.281	3.0
117.296	3.0
117.311	3.0
117.325	3.0
117.34	3.0
117.355	4.0
117.37	4.0
117.384	3.0
117.399	2.0
117.414	4.0
117.429	4.0
117.443	1.0
117.458	4.0
117.473	5.0
117.487	8.0
117.502	8.0
117.517	0.0
117.532	2.0
117.546	3.0
117.561	2.0
117.576	5.0
117.59	3.0
117.605	4.0
117.62	3.0
117.635	1.0
117.649	2.0
117.664	3.0
117.679	4.0
117.693	4.0
117.708	0.0
117.723	4.0
117.738	2.0
117.752	3.0
117.767	2.0
117.782	3.0
117.796	6.0
117.811	2.0
117.826	1.0
117.841	2.0
117.855	4.0
117.87	6.0
117.885	6.0
117.899	5.0
117.914	2.0
117.929	2.0
117.944	3.0
117.958	6.0
117.973	4.0
117.988	3.0
118.002	5.0
118.017	3.0
118.032	4.0
118.047	2.0
118.062	3.0
118.077	5.0
118.092	8.0
118.107	6.0
118.121	4.0
118.136	2.0
118.151	5.0
118.166	2.0
118.181	2.0
118.196	5.0
118.211	6.0
118.225	1.0
118.24	4.0
118.255	4.0
118.27	4.0
118.285	1.0
118.3	3.0
118.315	1.0
118.33	2.0
118.344	3.0
118.359	2.0
118.374	3.0
118.389	0.0
118.404	6.0
118.419	3.0
118.434	3.0
118.449	5.0
118.463	5.0
118.478	3.0
118.493	3.0
118.508	3.0
118.523	1.0
118.538	8.0
118.553	1.0
118.567	2.0
118.582	0.0
118.597	3.0
118.612	7.0
118.627	6.0
118.642	2.0
118.657	5.0
118.672	5.0
118.686	3.0
118.701	2.0
118.716	2.0
118.731	3.0
118.746	2.0
118.761	4.0
118.776	4.0
118.791	7.0
118.805	2.0
118.82	5.0
118.835	4.0
118.85	4.0
118.865	3.0
118.88	6.0
118.895	2.0
118.909	4.0
118.924	2.0
118.939	3.0
118.954	6.0
118.969	6.0
118.984	3.0
118.999	2.0
119.014	1.0
119.028	8.0
119.043	4.0
119.058	1.0
119.073	1.0
119.088	4.0
119.103	3.0
119.118	5.0
119.133	4.0
119.147	2.0
119.162	5.0
119.177	0.0
119.192	5.0
119.207	2.0
119.222	4.0
119.237	2.0
119.251	4.0
119.266	2.0
119.281	2.0
119.296	4.0
119.311	5.0
119.326	7.0
119.341	2.0
119.356	6.0
119.37	4.0
119.385	5.0
119.4	5.0
119.415	6.0
119.43	3.0
119.445	4.0
119.46	3.0
119.475	6.0
119.489	2.0
119.504	7.0
119.519	3.0
119.534	3.0
119.549	8.0
119.564	8.0
119.579	2.0
119.593	1.0
119.608	7.0
119.623	1.0
119.638	4.0
119.653	7.0
119.668	2.0
119.683	3.0
119.698	2.0
119.712	5.0
119.727	3.0
119.742	2.0
119.757	1.0
119.772	2.0
119.787	3.0
119.802	1.0
119.817	4.0
119.831	3.0
119.846	2.0
119.861	3.0
119.876	1.0
119.891	4.0
119.906	2.0
119.921	2.0
119.935	6.0
119.95	3.0
119.965	1.0
119.98	2.0
119.995	3.0
120.01	1.0
120.025	4.0
120.04	2.0
120.054	2.0
120.069	2.0
120.084	3.0
120.099	3.0
120.114	3.0
120.129	4.0
120.144	1.0
120.159	1.0
120.173	1.0
120.188	1.0
120.203	0.0
120.218	1.0
120.233	1.0
120.248	1.0
120.263	4.0
120.277	1.0
120.292	1.0
120.307	0.0
120.322	0.0
120.337	0.0
120.352	0.0
120.367	0.0
120.382	0.0
120.396	0.0
120.411	0.0
120.426	0.0
120.441	0.0
120.456	0.0
120.471	0.0
120.486	0.0
120.501	0.0
120.515	0.0
120.53	0.0
120.545	1.0
120.56	0.0
120.575	0.0
120.59	0.0
120.605	0.0
120.619	0.0
120.634	0.0
120.649	0.0
120.664	0.0
120.679	0.0
120.694	0.0
120.709	0.0
120.724	0.0
120.738	0.0
120.753	0.0
120.768	0.0
120.783	0.0
120.798	0.0
120.813	0.0
120.828	1.0
120.843	0.0
120.857	0.0
120.872	1.0
120.887	1.0
120.902	0.0
120.917	0.0
120.932	0.0
120.947	0.0
120.961	0.0
120.976	0.0
