-1.217	0.0
-1.202	0.0
-1.187	0.0
-1.172	0.0
-1.157	0.0
-1.142	0.0
-1.128	0.0
-1.113	0.0
-1.098	0.0
-1.083	0.0
-1.068	0.0
-1.054	0.0
-1.039	0.0
-1.024	0.0
-1.009	0.0
-0.994	0.0
-0.979	0.0
-0.965	0.0
-0.95	0.0
-0.935	0.0
-0.92	0.0
-0.905	0.0
-0.891	0.0
-0.876	0.0
-0.861	0.0
-0.846	0.0
-0.831	0.0
-0.816	0.0
-0.802	0.0
-0.787	0.0
-0.772	0.0
-0.757	0.0
-0.742	0.0
-0.728	0.0
-0.713	0.0
-0.698	0.0
-0.683	0.0
-0.668	0.0
-0.653	0.0
-0.639	0.0
-0.624	0.0
-0.609	0.0
-0.594	0.0
-0.579	0.0
-0.565	0.0
-0.55	0.0
-0.535	0.0
-0.52	0.0
-0.505	0.0
-0.49	0.0
-0.476	0.0
-0.461	0.0
-0.446	0.0
-0.431	0.0
-0.416	0.0
-0.401	0.0
-0.387	0.0
-0.372	0.0
-0.357	0.0
-0.342	0.0
-0.327	0.0
-0.313	0.0
-0.298	0.0
-0.283	0.0
-0.268	0.0
-0.253	0.0
-0.238	0.0
-0.224	0.0
-0.209	0.0
-0.194	0.0
-0.179	0.0
-0.164	0.0
-0.15	0.0
-0.135	0.0
-0.12	0.0
-0.105	0.0
-0.09	0.0
-0.075	0.0
-0.061	0.0
-0.046	0.0
-0.031	0.0
-0.016	0.0
-0.001	0.0
0.013	0.0
0.028	0.0
0.043	0.0
0.058	0.0
0.073	0.0
0.088	0.0
0.102	0.0
0.117	0.0
0.132	0.0
0.147	0.0
0.162	0.0
0.176	0.0
0.191	0.0
0.206	0.0
0.221	0.0
0.236	1.0
0.251	0.0
0.265	1.0
0.28	0.0
0.295	0.0
0.31	0.0
0.325	0.0
0.339	0.0
0.354	0.0
0.369	0.0
0.384	0.0
0.399	0.0
0.414	0.0
0.428	0.0
0.443	0.0
0.458	0.0
0.473	0.0
0.488	0.0
0.502	0.0
0.517	0.0
0.532	0.0
0.547	0.0
0.562	0.0
0.577	1.0
0.591	0.0
0.606	0.0
0.621	0.0
0.636	0.0
0.651	0.0
0.665	0.0
0.68	0.0
0.695	0.0
0.71	0.0
0.725	0.0
0.74	0.0
0.754	0.0
0.769	0.0
0.784	0.0
0.799	0.0
0.814	0.0
0.828	0.0
0.843	0.0
0.858	0.0
0.873	0.0
0.888	0.0
0.903	0.0
0.917	0.0
0.932	0.0
0.947	0.0
0.962	0.0
0.977	0.0
0.991	0.0
1.006	0.0
1.021	0.0
1.036	0.0
1.051	0.0
1.065	0.0
1.08	0.0
1.095	0.0
1.11	1.0
1.125	0.0
1.14	0.0
1.154	0.0
1.169	0.0
1.184	0.0
1.199	0.0
1.214	0.0
1.228	0.0
1.243	0.0
1.258	0.0
1.273	0.0
1.288	0.0
1.302	0.0
1.317	0.0
1.332	0.0
1.347	0.0
1.362	0.0
1.376	0.0
1.391	0.0
1.406	0.0
1.421	0.0
1.436	0.0
1.45	0.0
1.465	0.0
1.48	0.0
1.495	0.0
1.51	0.0
1.524	0.0
1.539	0.0
1.554	0.0
1.569	0.0
1.584	0.0
1.598	0.0
1.613	0.0
1.628	0.0
1.643	0.0
1.658	0.0
1.672	0.0
1.687	0.0
1.702	0.0
1.717	0.0
1.732	0.0
1.746	0.0
1.761	1.0
1.776	1.0
1.791	0.0
1.806	0.0
1.82	0.0
1.835	0.0
1.85	0.0
1.865	0.0
1.88	0.0
1.894	0.0
1.909	0.0
1.924	0.0
1.939	0.0
1.954	0.0
1.968	0.0
1.983	0.0
1.998	0.0
2.013	0.0
2.028	2.0
2.042	0.0
2.057	0.0
2.072	0.0
2.087	1.0
2.101	0.0
2.116	0.0
2.131	1.0
2.146	0.0
2.161	0.0
2.175	0.0
2.19	2.0
2.205	0.0
2.22	0.0
2.235	0.0
2.249	1.0
2.264	1.0
2.279	2.0
2.294	1.0
2.308	2.0
2.323	0.0
2.338	2.0
2.353	2.0
2.368	0.0
2.382	1.0
2.397	0.0
2.412	0.0
2.427	3.0
2.442	1.0
2.456	1.0
2.471	3.0
2.486	0.0
2.501	0.0
2.515	6.0
2.53	0.0
2.545	3.0
2.56	3.0
2.575	1.0
2.589	2.0
2.604	1.0
2.619	5.0
2.634	5.0
2.649	3.0
2.663	1.0
2.678	5.0
2.693	4.0
2.708	6.0
2.722	3.0
2.737	2.0
2.752	2.0
2.767	2.0
2.782	5.0
2.796	0.0
2.811	6.0
2.826	2.0
2.841	5.0
2.856	3.0
2.87	3.0
2.885	2.0
2.9	2.0
2.915	3.0
2.93	3.0
2.944	2.0
2.959	3.0
2.974	2.0
2.989	2.0
3.004	3.0
3.018	3.0
3.033	4.0
3.048	6.0
3.063	3.0
3.078	3.0
3.092	5.0
3.107	4.0
3.122	5.0
3.137	7.0
3.152	7.0
3.166	2.0
3.181	2.0
3.196	6.0
3.211	10.0
3.226	3.0
3.24	5.0
3.255	5.0
3.27	3.0
3.285	3.0
3.3	3.0
3.315	4.0
3.329	2.0
3.344	6.0
3.359	4.0
3.374	9.0
3.389	3.0
3.403	15.0
3.418	5.0
3.433	3.0
3.448	2.0
3.463	5.0
3.478	9.0
3.492	5.0
3.507	3.0
3.522	3.0
3.537	4.0
3.552	7.0
3.567	6.0
3.581	4.0
3.596	4.0
3.611	7.0
3.626	5.0
3.641	8.0
3.656	7.0
3.671	5.0
3.685	3.0
3.7	7.0
3.715	10.0
3.73	10.0
3.745	4.0
3.76	5.0
3.775	7.0
3.789	4.0
3.804	6.0
3.819	5.0
3.834	7.0
3.849	7.0
3.864	8.0
3.879	11.0
3.894	8.0
3.908	5.0
3.923	2.0
3.938	5.0
3.953	4.0
3.968	6.0
3.983	10.0
3.998	8.0
4.013	5.0
4.027	6.0
4.042	7.0
4.057	8.0
4.072	8.0
4.087	3.0
4.102	10.0
4.117	4.0
4.132	6.0
4.147	3.0
4.162	8.0
4.176	6.0
4.191	8.0
4.206	6.0
4.221	3.0
4.236	12.0
4.251	10.0
4.266	5.0
4.281	4.0
4.296	4.0
4.311	7.0
4.326	8.0
4.341	5.0
4.356	14.0
4.37	9.0
4.385	7.0
4.4	5.0
4.415	8.0
4.43	5.0
4.445	7.0
4.46	7.0
4.475	8.0
4.49	3.0
4.505	7.0
4.52	4.0
4.535	2.0
4.55	4.0
4.565	5.0
4.58	9.0
4.595	5.0
4.61	9.0
4.625	7.0
4.639	8.0
4.654	10.0
4.669	8.0
4.684	6.0
4.699	4.0
4.714	6.0
4.729	8.0
4.744	2.0
4.759	6.0
4.774	10.0
4.789	8.0
4.804	14.0
4.819	10.0
4.834	15.0
4.849	5.0
4.864	11.0
4.879	7.0
4.894	10.0
4.909	11.0
4.924	9.0
4.939	6.0
4.954	5.0
4.969	7.0
4.984	6.0
4.999	5.0
5.014	11.0
5.029	5.0
5.044	7.0
5.059	8.0
5.074	7.0
5.089	8.0
5.104	10.0
5.119	5.0
5.134	6.0
5.149	8.0
5.164	7.0
5.179	6.0
5.194	7.0
5.209	7.0
5.224	3.0
5.239	7.0
5.254	9.0
5.269	7.0
5.284	10.0
5.299	4.0
5.314	7.0
5.329	8.0
5.344	10.0
5.359	8.0
5.374	9.0
5.389	9.0
5.404	11.0
5.419	6.0
5.434	4.0
5.449	17.0
5.464	9.0
5.479	7.0
5.494	9.0
5.509	4.0
5.524	7.0
5.539	7.0
5.554	9.0
5.569	14.0
5.584	5.0
5.599	9.0
5.614	10.0
5.629	6.0
5.644	10.0
5.659	10.0
5.674	6.0
5.689	11.0
5.704	10.0
5.719	7.0
5.734	8.0
5.749	6.0
5.764	4.0
5.779	7.0
5.794	7.0
5.809	8.0
5.824	8.0
5.839	4.0
5.854	4.0
5.869	10.0
5.884	10.0
5.899	9.0
5.914	10.0
5.929	12.0
5.944	5.0
5.959	11.0
5.974	8.0
5.989	6.0
6.004	7.0
6.019	15.0
6.034	12.0
6.049	11.0
6.064	10.0
6.079	10.0
6.094	7.0
6.109	5.0
6.124	6.0
6.139	7.0
6.154	9.0
6.169	9.0
6.184	7.0
6.199	7.0
6.214	5.0
6.229	8.0
6.244	8.0
6.259	8.0
6.274	9.0
6.289	10.0
6.304	6.0
6.319	5.0
6.334	6.0
6.349	11.0
6.364	9.0
6.379	5.0
6.394	12.0
6.409	7.0
6.424	16.0
6.439	10.0
6.454	11.0
6.469	7.0
6.484	10.0
6.499	9.0
6.514	14.0
6.529	6.0
6.544	10.0
6.559	13.0
6.574	16.0
6.589	9.0
6.604	4.0
6.619	9.0
6.634	12.0
6.649	11.0
6.664	4.0
6.679	10.0
6.694	8.0
6.709	7.0
6.724	8.0
6.739	12.0
6.754	7.0
6.769	13.0
6.784	5.0
6.799	5.0
6.814	9.0
6.829	6.0
6.844	8.0
6.859	13.0
6.873	6.0
6.888	9.0
6.903	12.0
6.918	13.0
6.933	8.0
6.948	10.0
6.963	11.0
6.978	6.0
6.993	3.0
7.008	6.0
7.023	8.0
7.038	8.0
7.053	7.0
7.068	7.0
7.083	12.0
7.098	13.0
7.113	8.0
7.128	8.0
7.143	9.0
7.157	10.0
7.172	9.0
7.187	8.0
7.202	8.0
7.217	10.0
7.232	15.0
7.247	5.0
7.262	12.0
7.277	12.0
7.292	8.0
7.307	11.0
7.322	7.0
7.336	6.0
7.351	11.0
7.366	6.0
7.381	11.0
7.396	13.0
7.411	13.0
7.426	9.0
7.441	11.0
7.456	8.0
7.471	10.0
7.485	8.0
7.5	10.0
7.515	9.0
7.53	13.0
7.545	11.0
7.56	12.0
7.575	7.0
7.59	7.0
7.604	11.0
7.619	11.0
7.634	8.0
7.649	12.0
7.664	7.0
7.679	6.0
7.693	9.0
7.708	10.0
7.723	10.0
7.738	9.0
7.753	9.0
7.768	18.0
7.783	6.0
7.797	5.0
7.812	6.0
7.827	9.0
7.842	8.0
7.857	9.0
7.871	12.0
7.886	11.0
7.901	6.0
7.916	12.0
7.931	11.0
7.945	7.0
7.96	9.0
7.975	4.0
7.99	8.0
8.005	6.0
8.019	8.0
8.034	8.0
8.049	9.0
8.064	8.0
8.078	5.0
8.093	12.0
8.108	8.0
8.123	7.0
8.137	9.0
8.152	8.0
8.167	7.0
8.182	8.0
8.196	4.0
8.211	11.0
8.226	10.0
8.241	11.0
8.255	10.0
8.27	9.0
8.285	11.0
8.3	7.0
8.314	9.0
8.329	7.0
8.344	9.0
8.358	12.0
8.373	11.0
8.388	12.0
8.403	11.0
8.417	6.0
8.432	7.0
8.447	9.0
8.461	9.0
8.476	10.0
8.491	9.0
8.505	3.0
8.52	6.0
8.535	9.0
8.55	10.0
8.564	3.0
8.579	8.0
8.594	7.0
8.608	7.0
8.623	9.0
8.638	3.0
8.652	13.0
8.667	11.0
8.682	14.0
8.696	9.0
8.711	8.0
8.726	9.0
8.74	7.0
8.755	7.0
8.77	5.0
8.784	13.0
8.799	7.0
8.814	9.0
8.828	9.0
8.843	4.0
8.858	11.0
8.872	5.0
8.887	8.0
8.902	12.0
8.916	10.0
8.931	12.0
8.946	10.0
8.96	7.0
8.975	9.0
8.99	12.0
9.004	9.0
9.019	7.0
9.034	6.0
9.048	7.0
9.063	6.0
9.077	5.0
9.092	14.0
9.107	5.0
9.121	9.0
9.136	7.0
9.151	14.0
9.165	8.0
9.18	10.0
9.195	7.0
9.209	8.0
9.224	9.0
9.239	11.0
9.253	6.0
9.268	6.0
9.283	9.0
9.297	11.0
9.312	10.0
9.327	3.0
9.341	8.0
9.356	9.0
9.371	8.0
9.385	6.0
9.4	8.0
9.415	12.0
9.429	11.0
9.444	10.0
9.458	6.0
9.473	9.0
9.488	10.0
9.502	9.0
9.517	13.0
9.532	9.0
9.546	13.0
9.561	8.0
9.576	9.0
9.59	12.0
9.605	11.0
9.62	6.0
9.635	6.0
9.649	9.0
9.664	9.0
9.679	11.0
9.693	7.0
9.708	6.0
9.723	11.0
9.737	13.0
9.752	8.0
9.767	7.0
9.781	12.0
9.796	10.0
9.811	6.0
9.825	7.0
9.84	12.0
9.855	7.0
9.87	10.0
9.884	6.0
9.899	8.0
9.914	7.0
9.928	10.0
9.943	11.0
9.958	8.0
9.973	6.0
9.987	5.0
10.002	5.0
10.017	6.0
10.031	10.0
10.046	10.0
10.061	5.0
10.076	6.0
10.09	4.0
10.105	8.0
10.12	9.0
10.135	11.0
10.149	10.0
10.164	7.0
10.179	10.0
10.194	8.0
10.208	9.0
10.223	7.0
10.238	8.0
10.253	12.0
10.267	9.0
10.282	8.0
10.297	17.0
10.312	8.0
10.326	9.0
10.341	10.0
10.356	13.0
10.371	3.0
10.386	5.0
10.4	8.0
10.415	8.0
10.43	6.0
10.445	14.0
10.46	9.0
10.474	4.0
10.489	7.0
10.504	8.0
10.519	7.0
10.533	16.0
10.548	9.0
10.563	11.0
10.578	7.0
10.593	10.0
10.608	6.0
10.622	13.0
10.637	4.0
10.652	12.0
10.667	8.0
10.682	9.0
10.696	10.0
10.711	7.0
10.726	9.0
10.741	13.0
10.756	3.0
10.771	5.0
10.785	9.0
10.8	11.0
10.815	8.0
10.83	7.0
10.845	9.0
10.86	15.0
10.874	11.0
10.889	4.0
10.904	9.0
10.919	13.0
10.934	7.0
10.949	7.0
10.963	11.0
10.978	8.0
10.993	7.0
11.008	10.0
11.023	10.0
11.038	6.0
11.053	3.0
11.067	7.0
11.082	6.0
11.097	8.0
11.112	7.0
11.127	6.0
11.142	6.0
11.157	2.0
11.172	8.0
11.186	5.0
11.201	12.0
11.216	4.0
11.231	12.0
11.246	12.0
11.261	14.0
11.276	4.0
11.291	9.0
11.305	4.0
11.32	8.0
11.335	4.0
11.35	7.0
11.365	5.0
11.38	10.0
11.395	5.0
11.41	13.0
11.424	6.0
11.439	6.0
11.454	13.0
11.469	6.0
11.484	8.0
11.499	1.0
11.514	7.0
11.529	6.0
11.544	9.0
11.558	9.0
11.573	1.0
11.588	6.0
11.603	7.0
11.618	4.0
11.633	5.0
11.648	7.0
11.663	5.0
11.678	16.0
11.693	13.0
11.707	14.0
11.722	9.0
11.737	13.0
11.752	3.0
11.767	6.0
11.782	5.0
11.797	10.0
11.812	7.0
11.827	8.0
11.842	2.0
11.856	9.0
11.871	11.0
11.886	5.0
11.901	8.0
11.916	9.0
11.931	9.0
11.946	11.0
11.961	10.0
11.976	5.0
11.991	12.0
12.006	7.0
12.02	14.0
12.035	7.0
12.05	7.0
12.065	20.0
12.08	13.0
12.095	12.0
12.11	11.0
12.125	10.0
12.14	8.0
12.155	18.0
12.17	10.0
12.184	6.0
12.199	11.0
12.214	6.0
12.229	15.0
12.244	12.0
12.259	7.0
12.274	6.0
12.289	15.0
12.304	12.0
12.319	12.0
12.334	5.0
12.348	14.0
12.363	13.0
12.378	12.0
12.393	12.0
12.408	14.0
12.423	5.0
12.438	10.0
12.453	6.0
12.468	9.0
12.483	15.0
12.498	10.0
12.513	8.0
12.527	7.0
12.542	10.0
12.557	13.0
12.572	14.0
12.587	17.0
12.602	6.0
12.617	17.0
12.632	13.0
12.647	14.0
12.662	11.0
12.677	12.0
12.692	19.0
12.707	12.0
12.721	15.0
12.736	14.0
12.751	13.0
12.766	10.0
12.781	16.0
12.796	14.0
12.811	14.0
12.826	11.0
12.841	17.0
12.856	20.0
12.871	13.0
12.886	14.0
12.9	12.0
12.915	14.0
12.93	9.0
12.945	15.0
12.96	15.0
12.975	20.0
12.99	10.0
13.005	18.0
13.02	11.0
13.035	9.0
13.05	17.0
13.065	18.0
13.08	10.0
13.094	13.0
13.109	18.0
13.124	17.0
13.139	12.0
13.154	17.0
13.169	16.0
13.184	16.0
13.199	20.0
13.214	23.0
13.229	15.0
13.244	24.0
13.259	25.0
13.274	12.0
13.288	23.0
13.303	18.0
13.318	24.0
13.333	22.0
13.348	15.0
13.363	28.0
13.378	15.0
13.393	26.0
13.408	29.0
13.423	18.0
13.438	26.0
13.453	25.0
13.468	37.0
13.482	27.0
13.497	38.0
13.512	35.0
13.527	45.0
13.542	39.0
13.557	51.0
13.572	45.0
13.587	46.0
13.602	69.0
13.617	63.0
13.632	73.0
13.647	81.0
13.662	72.0
13.677	81.0
13.691	82.0
13.706	94.0
13.721	95.0
13.736	106.0
13.751	106.0
13.766	109.0
13.781	132.0
13.796	135.0
13.811	119.0
13.826	141.0
13.841	128.0
13.856	118.0
13.871	113.0
13.885	86.0
13.9	80.0
13.915	87.0
13.93	83.0
13.945	56.0
13.96	45.0
13.975	34.0
13.99	31.0
14.005	39.0
14.02	21.0
14.035	21.0
14.05	29.0
14.065	27.0
14.08	24.0
14.094	24.0
14.109	23.0
14.124	19.0
14.139	24.0
14.154	18.0
14.169	26.0
14.184	21.0
14.199	23.0
14.214	16.0
14.229	22.0
14.244	20.0
14.259	15.0
14.274	13.0
14.288	22.0
14.303	24.0
14.318	21.0
14.333	17.0
14.348	16.0
14.363	18.0
14.378	25.0
14.393	16.0
14.408	19.0
14.423	16.0
14.438	18.0
14.453	10.0
14.468	17.0
14.482	17.0
14.497	26.0
14.512	17.0
14.527	21.0
14.542	16.0
14.557	19.0
14.572	7.0
14.587	19.0
14.602	20.0
14.617	20.0
14.632	14.0
14.647	13.0
14.661	19.0
14.676	16.0
14.691	18.0
14.706	17.0
14.721	16.0
14.736	11.0
14.751	20.0
14.766	22.0
14.781	14.0
14.796	14.0
14.811	17.0
14.826	17.0
14.84	16.0
14.855	12.0
14.87	6.0
14.885	18.0
14.9	19.0
14.915	18.0
14.93	17.0
14.945	12.0
14.96	26.0
14.975	9.0
14.989	17.0
15.004	14.0
15.019	16.0
15.034	12.0
15.049	22.0
15.064	18.0
15.079	9.0
15.094	14.0
15.109	12.0
15.124	18.0
15.138	15.0
15.153	11.0
15.168	16.0
15.183	15.0
15.198	19.0
15.213	21.0
15.228	14.0
15.243	10.0
15.258	11.0
15.272	13.0
15.287	13.0
15.302	15.0
15.317	15.0
15.332	21.0
15.347	22.0
15.362	16.0
15.377	17.0
15.391	16.0
15.406	11.0
15.421	20.0
15.436	18.0
15.451	10.0
15.466	16.0
15.481	9.0
15.496	10.0
15.51	10.0
15.525	9.0
15.54	11.0
15.555	16.0
15.57	18.0
15.585	18.0
15.6	14.0
15.614	20.0
15.629	16.0
15.644	17.0
15.659	17.0
15.674	20.0
15.689	18.0
15.704	17.0
15.718	20.0
15.733	9.0
15.748	13.0
15.763	16.0
15.778	13.0
15.793	16.0
15.808	14.0
15.822	12.0
15.837	12.0
15.852	13.0
15.867	14.0
15.882	14.0
15.897	13.0
15.911	8.0
15.926	12.0
15.941	15.0
15.956	12.0
15.971	20.0
15.986	16.0
16.0	12.0
16.015	17.0
16.03	18.0
16.045	11.0
16.06	15.0
16.074	15.0
16.089	16.0
16.104	17.0
16.119	15.0
16.134	9.0
16.149	12.0
16.163	10.0
16.178	20.0
16.193	13.0
16.208	12.0
16.223	20.0
16.237	17.0
16.252	18.0
16.267	16.0
16.282	16.0
16.297	10.0
16.311	11.0
16.326	24.0
16.341	12.0
16.356	10.0
16.37	11.0
16.385	25.0
16.4	13.0
16.415	17.0
16.43	12.0
16.444	12.0
16.459	12.0
16.474	15.0
16.489	7.0
16.504	11.0
16.518	16.0
16.533	17.0
16.548	13.0
16.563	17.0
16.577	8.0
16.592	12.0
16.607	18.0
16.622	22.0
16.637	26.0
16.651	17.0
16.666	21.0
16.681	23.0
16.696	16.0
16.71	21.0
16.725	25.0
16.74	28.0
16.755	30.0
16.77	44.0
16.784	37.0
16.799	48.0
16.814	45.0
16.829	39.0
16.843	53.0
16.858	57.0
16.873	58.0
16.888	51.0
16.902	70.0
16.917	74.0
16.932	60.0
16.947	76.0
16.961	71.0
16.976	64.0
16.991	72.0
17.006	70.0
17.021	51.0
17.035	52.0
17.05	59.0
17.065	47.0
17.08	33.0
17.094	33.0
17.109	23.0
17.124	26.0
17.139	23.0
17.153	19.0
17.168	22.0
17.183	24.0
17.198	15.0
17.212	20.0
17.227	19.0
17.242	11.0
17.257	20.0
17.271	12.0
17.286	19.0
17.301	18.0
17.316	5.0
17.33	12.0
17.345	16.0
17.36	13.0
17.375	19.0
17.39	13.0
17.404	13.0
17.419	11.0
17.434	20.0
17.449	11.0
17.463	11.0
17.478	10.0
17.493	13.0
17.508	15.0
17.522	13.0
17.537	18.0
17.552	16.0
17.567	7.0
17.581	10.0
17.596	16.0
17.611	10.0
17.626	16.0
17.641	17.0
17.655	17.0
17.67	10.0
17.685	12.0
17.7	14.0
17.714	14.0
17.729	9.0
17.744	8.0
17.759	7.0
17.773	13.0
17.788	17.0
17.803	9.0
17.818	12.0
17.833	12.0
17.847	11.0
17.862	14.0
17.877	13.0
17.892	11.0
17.906	8.0
17.921	14.0
17.936	10.0
17.951	7.0
17.966	6.0
17.98	10.0
17.995	10.0
18.01	12.0
18.025	15.0
18.04	10.0
18.054	5.0
18.069	15.0
18.084	12.0
18.099	12.0
18.114	11.0
18.128	9.0
18.143	18.0
18.158	5.0
18.173	22.0
18.188	6.0
18.202	14.0
18.217	8.0
18.232	14.0
18.247	7.0
18.262	10.0
18.276	13.0
18.291	10.0
18.306	11.0
18.321	5.0
18.336	15.0
18.35	7.0
18.365	20.0
18.38	14.0
18.395	9.0
18.41	10.0
18.424	12.0
18.439	10.0
18.454	9.0
18.469	15.0
18.484	8.0
18.498	5.0
18.513	15.0
18.528	12.0
18.543	7.0
18.558	10.0
18.573	15.0
18.587	6.0
18.602	12.0
18.617	14.0
18.632	17.0
18.647	16.0
18.661	10.0
18.676	10.0
18.691	14.0
18.706	14.0
18.721	17.0
18.736	10.0
18.75	7.0
18.765	15.0
18.78	8.0
18.795	9.0
18.81	13.0
18.825	12.0
18.839	8.0
18.854	18.0
18.869	11.0
18.884	12.0
18.899	10.0
18.913	7.0
18.928	8.0
18.943	16.0
18.958	10.0
18.973	10.0
18.988	14.0
19.002	19.0
19.017	11.0
19.032	13.0
19.047	7.0
19.062	11.0
19.077	15.0
19.091	6.0
19.106	14.0
19.121	11.0
19.136	9.0
19.151	9.0
19.165	10.0
19.18	9.0
19.195	20.0
19.21	9.0
19.225	16.0
19.24	14.0
19.254	9.0
19.269	11.0
19.284	10.0
19.299	17.0
19.314	15.0
19.329	11.0
19.343	13.0
19.358	22.0
19.373	19.0
19.388	15.0
19.403	16.0
19.417	24.0
19.432	17.0
19.447	25.0
19.462	24.0
19.477	25.0
19.492	22.0
19.506	24.0
19.521	27.0
19.536	28.0
19.551	30.0
19.566	45.0
19.58	36.0
19.595	41.0
19.61	39.0
19.625	34.0
19.64	54.0
19.655	34.0
19.669	37.0
19.684	38.0
19.699	36.0
19.714	19.0
19.729	28.0
19.743	19.0
19.758	24.0
19.773	24.0
19.788	24.0
19.803	16.0
19.817	16.0
19.832	10.0
19.847	13.0
19.862	11.0
19.877	8.0
19.891	15.0
19.906	11.0
19.921	12.0
19.936	21.0
19.951	15.0
19.965	12.0
19.98	13.0
19.995	10.0
20.01	10.0
20.025	18.0
20.039	16.0
20.054	11.0
20.069	10.0
20.084	9.0
20.099	7.0
20.113	11.0
20.128	11.0
20.143	15.0
20.158	9.0
20.173	12.0
20.187	9.0
20.202	14.0
20.217	11.0
20.232	10.0
20.246	8.0
20.261	17.0
20.276	11.0
20.291	7.0
20.306	12.0
20.32	9.0
20.335	9.0
20.35	17.0
20.365	13.0
20.38	10.0
20.394	14.0
20.409	11.0
20.424	15.0
20.439	12.0
20.453	16.0
20.468	8.0
20.483	18.0
20.498	6.0
20.513	13.0
20.527	11.0
20.542	10.0
20.557	10.0
20.572	7.0
20.586	14.0
20.601	9.0
20.616	7.0
20.631	11.0
20.646	10.0
20.66	17.0
20.675	7.0
20.69	15.0
20.705	8.0
20.719	11.0
20.734	13.0
20.749	12.0
20.764	9.0
20.779	8.0
20.793	16.0
20.808	13.0
20.823	9.0
20.838	14.0
20.853	15.0
20.867	12.0
20.882	9.0
20.897	9.0
20.912	10.0
20.926	13.0
20.941	9.0
20.956	17.0
20.971	12.0
20.986	6.0
21.0	8.0
21.015	13.0
21.03	5.0
21.045	8.0
21.06	14.0
21.074	5.0
21.089	10.0
21.104	13.0
21.119	12.0
21.134	7.0
21.148	14.0
21.163	19.0
21.178	10.0
21.193	11.0
21.208	15.0
21.222	7.0
21.237	15.0
21.252	23.0
21.267	10.0
21.282	7.0
21.296	11.0
21.311	12.0
21.326	9.0
21.341	7.0
21.356	15.0
21.37	12.0
21.385	8.0
21.4	11.0
21.415	9.0
21.43	3.0
21.444	12.0
21.459	12.0
21.474	18.0
21.489	8.0
21.504	15.0
21.519	12.0
21.533	10.0
21.548	17.0
21.563	16.0
21.578	19.0
21.593	15.0
21.608	16.0
21.622	16.0
21.637	23.0
21.652	18.0
21.667	15.0
21.682	25.0
21.697	28.0
21.712	22.0
21.726	15.0
21.741	24.0
21.756	35.0
21.771	35.0
21.786	34.0
21.801	37.0
21.816	38.0
21.83	40.0
21.845	41.0
21.86	54.0
21.875	61.0
21.89	56.0
21.905	78.0
21.92	70.0
21.935	77.0
21.949	79.0
21.964	71.0
21.979	79.0
21.994	80.0
22.009	70.0
22.024	69.0
22.039	65.0
22.054	47.0
22.069	62.0
22.083	47.0
22.098	43.0
22.113	29.0
22.128	42.0
22.143	28.0
22.158	18.0
22.173	20.0
22.188	23.0
22.203	15.0
22.218	14.0
22.233	14.0
22.248	11.0
22.262	15.0
22.277	13.0
22.292	18.0
22.307	12.0
22.322	16.0
22.337	9.0
22.352	12.0
22.367	17.0
22.382	13.0
22.397	14.0
22.412	10.0
22.427	11.0
22.442	5.0
22.457	12.0
22.472	9.0
22.487	8.0
22.502	14.0
22.516	8.0
22.531	7.0
22.546	13.0
22.561	7.0
22.576	7.0
22.591	10.0
22.606	12.0
22.621	15.0
22.636	7.0
22.651	10.0
22.666	16.0
22.681	12.0
22.696	4.0
22.711	11.0
22.726	13.0
22.741	9.0
22.756	5.0
22.771	14.0
22.786	8.0
22.801	10.0
22.816	7.0
22.831	10.0
22.846	11.0
22.861	14.0
22.876	13.0
22.891	16.0
22.906	11.0
22.92	13.0
22.935	10.0
22.95	13.0
22.965	14.0
22.98	12.0
22.995	9.0
23.01	7.0
23.025	16.0
23.04	14.0
23.055	14.0
23.07	8.0
23.085	12.0
23.1	11.0
23.115	8.0
23.13	12.0
23.145	6.0
23.16	5.0
23.175	16.0
23.19	14.0
23.205	9.0
23.22	5.0
23.235	8.0
23.25	9.0
23.265	15.0
23.28	12.0
23.295	9.0
23.31	13.0
23.325	7.0
23.34	9.0
23.355	11.0
23.37	12.0
23.384	9.0
23.399	10.0
23.414	12.0
23.429	14.0
23.444	10.0
23.459	13.0
23.474	7.0
23.489	11.0
23.504	16.0
23.519	8.0
23.534	15.0
23.549	11.0
23.564	17.0
23.579	13.0
23.594	12.0
23.609	3.0
23.624	16.0
23.639	15.0
23.654	10.0
23.668	11.0
23.683	15.0
23.698	16.0
23.713	16.0
23.728	11.0
23.743	12.0
23.758	5.0
23.773	11.0
23.788	11.0
23.803	5.0
23.818	15.0
23.833	17.0
23.848	19.0
23.862	22.0
23.877	11.0
23.892	20.0
23.907	23.0
23.922	23.0
23.937	29.0
23.952	20.0
23.967	32.0
23.982	36.0
23.997	39.0
24.011	39.0
24.026	49.0
24.041	46.0
24.056	47.0
24.071	48.0
24.086	49.0
24.101	38.0
24.116	49.0
24.131	60.0
24.145	44.0
24.16	43.0
24.175	34.0
24.19	48.0
24.205	32.0
24.22	33.0
24.235	34.0
24.249	26.0
24.264	23.0
24.279	31.0
24.294	16.0
24.309	18.0
24.324	32.0
24.338	24.0
24.353	10.0
24.368	14.0
24.383	14.0
24.398	17.0
24.413	4.0
24.428	14.0
24.442	8.0
24.457	9.0
24.472	10.0
24.487	12.0
24.502	12.0
24.516	8.0
24.531	15.0
24.546	12.0
24.561	12.0
24.576	19.0
24.591	15.0
24.605	12.0
24.62	13.0
24.635	17.0
24.65	11.0
24.665	9.0
24.679	12.0
24.694	14.0
24.709	11.0
24.724	14.0
24.739	12.0
24.753	12.0
24.768	6.0
24.783	9.0
24.798	10.0
24.813	10.0
24.827	16.0
24.842	15.0
24.857	6.0
24.872	15.0
24.886	10.0
24.901	5.0
24.916	8.0
24.931	13.0
24.946	10.0
24.96	9.0
24.975	8.0
24.99	9.0
25.005	12.0
25.019	8.0
25.034	17.0
25.049	10.0
25.064	12.0
25.078	10.0
25.093	9.0
25.108	7.0
25.123	7.0
25.138	10.0
25.152	12.0
25.167	10.0
25.182	7.0
25.197	7.0
25.211	8.0
25.226	9.0
25.241	10.0
25.256	11.0
25.27	18.0
25.285	9.0
25.3	6.0
25.315	9.0
25.329	6.0
25.344	5.0
25.359	7.0
25.374	17.0
25.388	13.0
25.403	8.0
25.418	14.0
25.433	10.0
25.447	18.0
25.462	8.0
25.477	10.0
25.492	4.0
25.506	13.0
25.521	9.0
25.536	7.0
25.55	9.0
25.565	12.0
25.58	10.0
25.595	12.0
25.609	10.0
25.624	7.0
25.639	11.0
25.654	13.0
25.668	4.0
25.683	12.0
25.698	13.0
25.713	9.0
25.727	14.0
25.742	5.0
25.757	13.0
25.772	3.0
25.786	14.0
25.801	7.0
25.816	6.0
25.83	8.0
25.845	12.0
25.86	10.0
25.875	10.0
25.889	9.0
25.904	12.0
25.919	11.0
25.934	6.0
25.948	10.0
25.963	10.0
25.978	9.0
25.992	11.0
26.007	13.0
26.022	7.0
26.037	13.0
26.051	11.0
26.066	8.0
26.081	9.0
26.096	11.0
26.11	12.0
26.125	10.0
26.14	5.0
26.155	6.0
26.169	9.0
26.184	10.0
26.199	9.0
26.213	8.0
26.228	9.0
26.243	10.0
26.258	6.0
26.272	5.0
26.287	6.0
26.302	6.0
26.317	8.0
26.331	8.0
26.346	16.0
26.361	10.0
26.376	6.0
26.39	12.0
26.405	10.0
26.42	8.0
26.434	10.0
26.449	6.0
26.464	6.0
26.479	6.0
26.493	4.0
26.508	9.0
26.523	8.0
26.538	9.0
26.552	12.0
26.567	7.0
26.582	8.0
26.597	7.0
26.611	7.0
26.626	14.0
26.641	8.0
26.656	12.0
26.67	7.0
26.685	7.0
26.7	12.0
26.715	11.0
26.729	14.0
26.744	6.0
26.759	12.0
26.773	11.0
26.788	12.0
26.803	8.0
26.818	15.0
26.832	10.0
26.847	6.0
26.862	10.0
26.877	6.0
26.891	12.0
26.906	13.0
26.921	6.0
26.936	8.0
26.95	11.0
26.965	17.0
26.98	5.0
26.995	10.0
27.01	10.0
27.024	16.0
27.039	8.0
27.054	7.0
27.069	11.0
27.083	10.0
27.098	6.0
27.113	7.0
27.128	12.0
27.142	11.0
27.157	10.0
27.172	5.0
27.187	14.0
27.201	8.0
27.216	11.0
27.231	10.0
27.246	8.0
27.261	12.0
27.275	4.0
27.29	8.0
27.305	11.0
27.32	11.0
27.334	4.0
27.349	11.0
27.364	7.0
27.379	6.0
27.394	5.0
27.408	12.0
27.423	8.0
27.438	7.0
27.453	14.0
27.467	12.0
27.482	13.0
27.497	9.0
27.512	8.0
27.527	6.0
27.541	11.0
27.556	7.0
27.571	13.0
27.586	10.0
27.601	13.0
27.615	9.0
27.63	12.0
27.645	11.0
27.66	9.0
27.675	10.0
27.689	14.0
27.704	12.0
27.719	11.0
27.734	22.0
27.749	17.0
27.763	22.0
27.778	20.0
27.793	33.0
27.808	23.0
27.823	20.0
27.838	18.0
27.852	26.0
27.867	29.0
27.882	20.0
27.897	20.0
27.912	22.0
27.926	23.0
27.941	24.0
27.956	14.0
27.971	16.0
27.986	21.0
28.001	20.0
28.015	15.0
28.03	23.0
28.045	22.0
28.06	20.0
28.075	14.0
28.09	13.0
28.105	13.0
28.119	11.0
28.134	5.0
28.149	17.0
28.164	7.0
28.179	16.0
28.194	15.0
28.208	11.0
28.223	10.0
28.238	8.0
28.253	13.0
28.268	17.0
28.283	6.0
28.298	17.0
28.312	9.0
28.327	13.0
28.342	11.0
28.357	7.0
28.372	10.0
28.387	11.0
28.402	9.0
28.417	5.0
28.431	11.0
28.446	17.0
28.461	7.0
28.476	15.0
28.491	5.0
28.506	13.0
28.521	5.0
28.536	9.0
28.55	7.0
28.565	5.0
28.58	13.0
28.595	13.0
28.61	5.0
28.625	10.0
28.64	16.0
28.655	12.0
28.669	9.0
28.684	7.0
28.699	7.0
28.714	18.0
28.729	15.0
28.744	13.0
28.759	11.0
28.774	10.0
28.788	11.0
28.803	9.0
28.818	14.0
28.833	10.0
28.848	8.0
28.863	6.0
28.878	8.0
28.893	12.0
28.908	10.0
28.922	6.0
28.937	14.0
28.952	9.0
28.967	11.0
28.982	15.0
28.997	14.0
29.012	15.0
29.027	12.0
29.041	8.0
29.056	9.0
29.071	9.0
29.086	10.0
29.101	15.0
29.116	8.0
29.131	8.0
29.146	14.0
29.16	12.0
29.175	9.0
29.19	8.0
29.205	11.0
29.22	12.0
29.235	9.0
29.25	16.0
29.265	15.0
29.279	8.0
29.294	6.0
29.309	10.0
29.324	10.0
29.339	14.0
29.354	16.0
29.369	14.0
29.384	11.0
29.398	17.0
29.413	19.0
29.428	15.0
29.443	18.0
29.458	19.0
29.473	19.0
29.488	26.0
29.502	27.0
29.517	33.0
29.532	36.0
29.547	43.0
29.562	55.0
29.577	42.0
29.592	34.0
29.606	49.0
29.621	48.0
29.636	48.0
29.651	56.0
29.666	54.0
29.681	39.0
29.695	41.0
29.71	49.0
29.725	34.0
29.74	42.0
29.755	36.0
29.77	28.0
29.784	40.0
29.799	30.0
29.814	36.0
29.829	27.0
29.844	23.0
29.859	24.0
29.873	22.0
29.888	19.0
29.903	17.0
29.918	16.0
29.933	14.0
29.947	19.0
29.962	10.0
29.977	15.0
29.992	7.0
30.007	10.0
30.021	11.0
30.036	15.0
30.051	10.0
30.066	11.0
30.081	11.0
30.095	16.0
30.11	11.0
30.125	16.0
30.14	14.0
30.155	14.0
30.169	8.0
30.184	7.0
30.199	10.0
30.214	17.0
30.228	13.0
30.243	12.0
30.258	5.0
30.273	10.0
30.288	10.0
30.302	11.0
30.317	7.0
30.332	6.0
30.347	6.0
30.361	7.0
30.376	15.0
30.391	8.0
30.406	9.0
30.42	9.0
30.435	11.0
30.45	7.0
30.465	6.0
30.479	12.0
30.494	14.0
30.509	9.0
30.524	13.0
30.538	12.0
30.553	15.0
30.568	6.0
30.583	12.0
30.597	14.0
30.612	12.0
30.627	7.0
30.641	6.0
30.656	9.0
30.671	12.0
30.686	12.0
30.7	13.0
30.715	6.0
30.73	13.0
30.745	11.0
30.759	10.0
30.774	10.0
30.789	7.0
30.803	13.0
30.818	6.0
30.833	4.0
30.848	11.0
30.862	13.0
30.877	16.0
30.892	11.0
30.906	13.0
30.921	11.0
30.936	16.0
30.951	12.0
30.965	15.0
30.98	16.0
30.995	10.0
31.009	9.0
31.024	11.0
31.039	3.0
31.053	20.0
31.068	14.0
31.083	16.0
31.098	16.0
31.112	15.0
31.127	18.0
31.142	25.0
31.156	21.0
31.171	26.0
31.186	23.0
31.2	32.0
31.215	24.0
31.23	35.0
31.245	33.0
31.259	38.0
31.274	30.0
31.289	41.0
31.303	36.0
31.318	35.0
31.333	27.0
31.347	25.0
31.362	27.0
31.377	32.0
31.392	34.0
31.406	34.0
31.421	23.0
31.436	27.0
31.45	18.0
31.465	25.0
31.48	23.0
31.494	23.0
31.509	20.0
31.524	12.0
31.538	11.0
31.553	11.0
31.568	18.0
31.583	11.0
31.597	7.0
31.612	8.0
31.627	10.0
31.641	19.0
31.656	14.0
31.671	11.0
31.685	11.0
31.7	11.0
31.715	5.0
31.729	10.0
31.744	9.0
31.759	14.0
31.774	11.0
31.788	18.0
31.803	8.0
31.818	12.0
31.832	14.0
31.847	6.0
31.862	11.0
31.876	11.0
31.891	9.0
31.906	9.0
31.92	10.0
31.935	16.0
31.95	12.0
31.965	7.0
31.979	10.0
31.994	5.0
32.009	13.0
32.023	6.0
32.038	7.0
32.053	8.0
32.067	14.0
32.082	7.0
32.097	11.0
32.112	16.0
32.126	11.0
32.141	8.0
32.156	6.0
32.17	15.0
32.185	10.0
32.2	9.0
32.214	10.0
32.229	7.0
32.244	9.0
32.259	9.0
32.273	11.0
32.288	11.0
32.303	13.0
32.317	5.0
32.332	10.0
32.347	4.0
32.362	12.0
32.376	4.0
32.391	11.0
32.406	14.0
32.42	11.0
32.435	6.0
32.45	7.0
32.465	11.0
32.479	7.0
32.494	10.0
32.509	10.0
32.523	11.0
32.538	9.0
32.553	11.0
32.568	13.0
32.582	8.0
32.597	10.0
32.612	18.0
32.627	7.0
32.641	16.0
32.656	6.0
32.671	10.0
32.685	18.0
32.7	21.0
32.715	12.0
32.73	16.0
32.744	17.0
32.759	13.0
32.774	19.0
32.788	19.0
32.803	26.0
32.818	24.0
32.833	32.0
32.847	28.0
32.862	31.0
32.877	21.0
32.892	20.0
32.906	26.0
32.921	26.0
32.936	12.0
32.951	23.0
32.965	15.0
32.98	17.0
32.995	23.0
33.009	18.0
33.024	19.0
33.039	18.0
33.054	8.0
33.068	9.0
33.083	17.0
33.098	19.0
33.113	15.0
33.127	6.0
33.142	7.0
33.157	9.0
33.172	8.0
33.186	9.0
33.201	10.0
33.216	12.0
33.231	10.0
33.245	6.0
33.26	7.0
33.275	5.0
33.29	10.0
33.304	10.0
33.319	14.0
33.334	7.0
33.349	7.0
33.363	2.0
33.378	6.0
33.393	9.0
33.408	7.0
33.422	9.0
33.437	8.0
33.452	5.0
33.467	8.0
33.481	11.0
33.496	10.0
33.511	9.0
33.526	9.0
33.54	9.0
33.555	8.0
33.57	5.0
33.585	12.0
33.599	10.0
33.614	14.0
33.629	6.0
33.644	8.0
33.658	9.0
33.673	5.0
33.688	10.0
33.703	10.0
33.718	15.0
33.732	4.0
33.747	14.0
33.762	7.0
33.777	14.0
33.791	10.0
33.806	6.0
33.821	10.0
33.836	7.0
33.85	11.0
33.865	16.0
33.88	9.0
33.895	8.0
33.91	12.0
33.924	11.0
33.939	8.0
33.954	10.0
33.969	12.0
33.983	10.0
33.998	5.0
34.013	11.0
34.028	15.0
34.042	5.0
34.057	9.0
34.072	8.0
34.087	7.0
34.102	7.0
34.116	9.0
34.131	8.0
34.146	13.0
34.161	12.0
34.175	14.0
34.19	6.0
34.205	21.0
34.22	15.0
34.235	7.0
34.249	16.0
34.264	15.0
34.279	15.0
34.294	14.0
34.309	12.0
34.323	11.0
34.338	14.0
34.353	11.0
34.368	14.0
34.382	13.0
34.397	10.0
34.412	11.0
34.427	8.0
34.442	14.0
34.456	11.0
34.471	16.0
34.486	11.0
34.501	10.0
34.516	11.0
34.53	10.0
34.545	10.0
34.56	13.0
34.575	12.0
34.59	15.0
34.604	15.0
34.619	11.0
34.634	7.0
34.649	10.0
34.664	14.0
34.678	12.0
34.693	9.0
34.708	9.0
34.723	11.0
34.738	4.0
34.752	10.0
34.767	9.0
34.782	6.0
34.797	16.0
34.812	3.0
34.826	10.0
34.841	7.0
34.856	6.0
34.871	10.0
34.886	11.0
34.9	4.0
34.915	6.0
34.93	20.0
34.945	10.0
34.96	7.0
34.974	12.0
34.989	13.0
35.004	13.0
35.019	10.0
35.034	10.0
35.048	11.0
35.063	12.0
35.078	6.0
35.093	14.0
35.108	8.0
35.122	5.0
35.137	12.0
35.152	5.0
35.167	7.0
35.182	14.0
35.196	8.0
35.211	11.0
35.226	7.0
35.241	5.0
35.256	10.0
35.27	5.0
35.285	6.0
35.3	11.0
35.315	11.0
35.33	4.0
35.344	5.0
35.359	10.0
35.374	11.0
35.389	6.0
35.404	10.0
35.418	5.0
35.433	8.0
35.448	7.0
35.463	16.0
35.478	9.0
35.493	11.0
35.507	10.0
35.522	9.0
35.537	8.0
35.552	14.0
35.567	9.0
35.581	4.0
35.596	7.0
35.611	9.0
35.626	13.0
35.641	23.0
35.655	13.0
35.67	18.0
35.685	10.0
35.7	13.0
35.715	16.0
35.729	15.0
35.744	20.0
35.759	18.0
35.774	23.0
35.789	14.0
35.804	19.0
35.818	11.0
35.833	18.0
35.848	13.0
35.863	11.0
35.878	16.0
35.892	10.0
35.907	13.0
35.922	13.0
35.937	15.0
35.952	14.0
35.966	13.0
35.981	14.0
35.996	13.0
36.011	17.0
36.026	15.0
36.04	11.0
36.055	18.0
36.07	15.0
36.085	16.0
36.1	14.0
36.114	9.0
36.129	8.0
36.144	18.0
36.159	5.0
36.174	10.0
36.189	5.0
36.203	9.0
36.218	12.0
36.233	11.0
36.248	7.0
36.263	11.0
36.277	13.0
36.292	7.0
36.307	8.0
36.322	6.0
36.337	11.0
36.351	8.0
36.366	8.0
36.381	2.0
36.396	8.0
36.411	11.0
36.426	8.0
36.44	9.0
36.455	11.0
36.47	6.0
36.485	8.0
36.5	6.0
36.514	8.0
36.529	6.0
36.544	7.0
36.559	10.0
36.574	11.0
36.589	9.0
36.603	9.0
36.618	10.0
36.633	5.0
36.648	8.0
36.663	8.0
36.677	9.0
36.692	8.0
36.707	6.0
36.722	13.0
36.737	8.0
36.752	6.0
36.766	9.0
36.781	8.0
36.796	2.0
36.811	9.0
36.826	6.0
36.841	6.0
36.855	6.0
36.87	6.0
36.885	5.0
36.9	6.0
36.915	5.0
36.93	2.0
36.944	7.0
36.959	8.0
36.974	14.0
36.989	11.0
37.004	12.0
37.019	9.0
37.033	8.0
37.048	6.0
37.063	14.0
37.078	14.0
37.093	17.0
37.108	15.0
37.123	23.0
37.137	27.0
37.152	30.0
37.167	35.0
37.182	35.0
37.197	23.0
37.212	36.0
37.226	21.0
37.241	16.0
37.256	25.0
37.271	22.0
37.286	23.0
37.301	20.0
37.316	14.0
37.331	6.0
37.345	18.0
37.36	24.0
37.375	19.0
37.39	10.0
37.405	21.0
37.42	16.0
37.435	11.0
37.45	24.0
37.464	12.0
37.479	15.0
37.494	15.0
37.509	15.0
37.524	9.0
37.539	8.0
37.554	7.0
37.569	6.0
37.583	8.0
37.598	8.0
37.613	8.0
37.628	12.0
37.643	6.0
37.658	9.0
37.673	11.0
37.688	5.0
37.703	7.0
37.718	7.0
37.733	9.0
37.747	5.0
37.762	0.0
37.777	8.0
37.792	12.0
37.807	5.0
37.822	5.0
37.837	9.0
37.852	4.0
37.867	7.0
37.882	6.0
37.897	4.0
37.912	10.0
37.927	8.0
37.941	9.0
37.956	4.0
37.971	5.0
37.986	9.0
38.001	4.0
38.016	6.0
38.031	8.0
38.046	9.0
38.061	7.0
38.076	6.0
38.091	4.0
38.106	2.0
38.121	5.0
38.136	5.0
38.151	10.0
38.166	7.0
38.181	11.0
38.196	13.0
38.211	6.0
38.226	3.0
38.241	7.0
38.256	7.0
38.271	9.0
38.285	6.0
38.3	9.0
38.315	5.0
38.33	8.0
38.345	9.0
38.36	10.0
38.375	5.0
38.39	5.0
38.405	4.0
38.42	7.0
38.435	10.0
38.45	8.0
38.465	7.0
38.48	10.0
38.495	11.0
38.51	10.0
38.525	6.0
38.54	6.0
38.555	11.0
38.57	13.0
38.585	7.0
38.6	6.0
38.615	4.0
38.63	10.0
38.645	7.0
38.66	13.0
38.675	7.0
38.69	2.0
38.705	4.0
38.72	5.0
38.735	12.0
38.75	7.0
38.765	5.0
38.78	6.0
38.795	5.0
38.81	6.0
38.825	14.0
38.84	7.0
38.855	9.0
38.87	7.0
38.885	9.0
38.9	12.0
38.915	7.0
38.93	7.0
38.945	4.0
38.96	2.0
38.975	6.0
38.99	7.0
39.005	5.0
39.02	5.0
39.035	8.0
39.05	1.0
39.065	10.0
39.08	5.0
39.095	7.0
39.11	7.0
39.125	5.0
39.14	3.0
39.155	9.0
39.17	6.0
39.185	4.0
39.2	8.0
39.215	6.0
39.23	4.0
39.245	10.0
39.26	8.0
39.275	8.0
39.29	8.0
39.305	8.0
39.32	3.0
39.335	10.0
39.35	4.0
39.365	12.0
39.38	11.0
39.395	9.0
39.409	9.0
39.424	6.0
39.439	4.0
39.454	4.0
39.469	5.0
39.484	9.0
39.499	3.0
39.514	5.0
39.529	5.0
39.544	3.0
39.559	3.0
39.574	4.0
39.589	11.0
39.604	3.0
39.619	7.0
39.634	4.0
39.649	8.0
39.664	6.0
39.678	8.0
39.693	5.0
39.708	3.0
39.723	6.0
39.738	10.0
39.753	3.0
39.768	7.0
39.783	8.0
39.798	12.0
39.813	8.0
39.827	10.0
39.842	10.0
39.857	8.0
39.872	14.0
39.887	8.0
39.902	11.0
39.917	8.0
39.932	4.0
39.947	13.0
39.961	5.0
39.976	6.0
39.991	11.0
40.006	6.0
40.021	8.0
40.036	11.0
40.051	4.0
40.065	6.0
40.08	5.0
40.095	4.0
40.11	6.0
40.125	13.0
40.14	4.0
40.154	9.0
40.169	8.0
40.184	7.0
40.199	4.0
40.214	4.0
40.228	5.0
40.243	4.0
40.258	8.0
40.273	4.0
40.288	7.0
40.302	6.0
40.317	5.0
40.332	2.0
40.347	5.0
40.362	6.0
40.376	11.0
40.391	5.0
40.406	11.0
40.421	6.0
40.436	6.0
40.45	4.0
40.465	4.0
40.48	0.0
40.495	3.0
40.509	4.0
40.524	8.0
40.539	9.0
40.554	9.0
40.568	7.0
40.583	4.0
40.598	6.0
40.613	10.0
40.627	7.0
40.642	5.0
40.657	7.0
40.672	9.0
40.686	2.0
40.701	3.0
40.716	9.0
40.731	5.0
40.745	3.0
40.76	9.0
40.775	2.0
40.79	4.0
40.804	3.0
40.819	8.0
40.834	6.0
40.849	4.0
40.863	9.0
40.878	8.0
40.893	9.0
40.907	8.0
40.922	8.0
40.937	9.0
40.952	7.0
40.966	9.0
40.981	5.0
40.996	12.0
41.011	6.0
41.025	9.0
41.04	9.0
41.055	13.0
41.069	19.0
41.084	16.0
41.099	15.0
41.114	20.0
41.128	23.0
41.143	14.0
41.158	18.0
41.173	19.0
41.187	24.0
41.202	17.0
41.217	8.0
41.231	12.0
41.246	9.0
41.261	14.0
41.276	7.0
41.29	8.0
41.305	13.0
41.32	7.0
41.335	11.0
41.349	7.0
41.364	10.0
41.379	20.0
41.393	20.0
41.408	16.0
41.423	14.0
41.438	9.0
41.452	7.0
41.467	13.0
41.482	10.0
41.497	11.0
41.511	6.0
41.526	6.0
41.541	13.0
41.556	8.0
41.57	8.0
41.585	7.0
41.6	1.0
41.615	8.0
41.629	3.0
41.644	6.0
41.659	4.0
41.674	1.0
41.688	8.0
41.703	6.0
41.718	9.0
41.733	3.0
41.747	7.0
41.762	5.0
41.777	12.0
41.792	3.0
41.806	10.0
41.821	7.0
41.836	7.0
41.851	5.0
41.866	8.0
41.88	3.0
41.895	7.0
41.91	4.0
41.925	6.0
41.939	12.0
41.954	4.0
41.969	5.0
41.984	7.0
41.999	6.0
42.013	7.0
42.028	7.0
42.043	8.0
42.058	5.0
42.073	6.0
42.088	6.0
42.102	8.0
42.117	4.0
42.132	7.0
42.147	6.0
42.162	7.0
42.176	5.0
42.191	6.0
42.206	11.0
42.221	11.0
42.236	5.0
42.251	10.0
42.266	6.0
42.28	11.0
42.295	10.0
42.31	6.0
42.325	17.0
42.34	14.0
42.355	12.0
42.369	19.0
42.384	18.0
42.399	13.0
42.414	22.0
42.429	18.0
42.444	10.0
42.459	9.0
42.474	12.0
42.488	19.0
42.503	8.0
42.518	5.0
42.533	8.0
42.548	14.0
42.563	9.0
42.578	8.0
42.593	9.0
42.608	10.0
42.622	6.0
42.637	11.0
42.652	7.0
42.667	12.0
42.682	10.0
42.697	15.0
42.712	8.0
42.727	5.0
42.742	9.0
42.757	4.0
42.772	5.0
42.786	16.0
42.801	8.0
42.816	6.0
42.831	4.0
42.846	8.0
42.861	3.0
42.876	4.0
42.891	6.0
42.906	6.0
42.921	2.0
42.936	4.0
42.951	5.0
42.966	7.0
42.981	7.0
42.996	2.0
43.011	3.0
43.025	11.0
43.04	6.0
43.055	5.0
43.07	4.0
43.085	6.0
43.1	3.0
43.115	9.0
43.13	3.0
43.145	3.0
43.16	9.0
43.175	7.0
43.19	5.0
43.205	5.0
43.22	5.0
43.235	8.0
43.25	4.0
43.265	9.0
43.28	7.0
43.295	9.0
43.31	6.0
43.325	6.0
43.34	3.0
43.355	3.0
43.37	4.0
43.385	5.0
43.4	6.0
43.415	6.0
43.43	5.0
43.445	3.0
43.46	5.0
43.475	3.0
43.49	7.0
43.505	3.0
43.52	3.0
43.535	8.0
43.55	10.0
43.565	8.0
43.58	7.0
43.595	12.0
43.61	5.0
43.625	14.0
43.64	10.0
43.655	9.0
43.67	4.0
43.685	7.0
43.7	4.0
43.715	7.0
43.73	1.0
43.745	8.0
43.76	8.0
43.775	5.0
43.79	3.0
43.805	6.0
43.82	3.0
43.835	5.0
43.85	8.0
43.865	3.0
43.88	5.0
43.895	9.0
43.91	7.0
43.925	11.0
43.94	7.0
43.955	4.0
43.97	9.0
43.985	5.0
44.0	9.0
44.015	6.0
44.03	8.0
44.045	4.0
44.061	4.0
44.076	10.0
44.091	5.0
44.106	5.0
44.121	2.0
44.136	5.0
44.151	3.0
44.166	7.0
44.181	5.0
44.196	3.0
44.211	3.0
44.226	5.0
44.241	10.0
44.256	6.0
44.271	6.0
44.286	7.0
44.301	7.0
44.316	3.0
44.331	6.0
44.346	6.0
44.361	10.0
44.377	4.0
44.392	9.0
44.407	5.0
44.422	4.0
44.437	6.0
44.452	3.0
44.467	2.0
44.482	5.0
44.497	4.0
44.512	3.0
44.527	8.0
44.542	1.0
44.557	5.0
44.572	4.0
44.587	2.0
44.602	3.0
44.617	11.0
44.632	4.0
44.647	4.0
44.663	8.0
44.678	8.0
44.693	8.0
44.708	9.0
44.723	12.0
44.738	5.0
44.753	10.0
44.768	6.0
44.783	10.0
44.798	8.0
44.813	6.0
44.828	14.0
44.843	8.0
44.858	11.0
44.873	13.0
44.888	9.0
44.903	7.0
44.918	5.0
44.933	9.0
44.948	4.0
44.964	9.0
44.979	8.0
44.994	5.0
45.009	5.0
45.024	8.0
45.039	6.0
45.054	7.0
45.069	18.0
45.084	5.0
45.099	9.0
45.114	8.0
45.129	14.0
45.144	10.0
45.159	7.0
45.174	3.0
45.189	6.0
45.204	6.0
45.219	6.0
45.234	3.0
45.249	4.0
45.264	2.0
45.279	5.0
45.294	4.0
45.309	4.0
45.324	4.0
45.339	6.0
45.354	10.0
45.369	10.0
45.384	7.0
45.399	6.0
45.414	4.0
45.429	3.0
45.444	7.0
45.459	4.0
45.474	4.0
45.489	5.0
45.504	11.0
45.519	6.0
45.534	7.0
45.549	6.0
45.564	5.0
45.579	7.0
45.594	10.0
45.609	7.0
45.624	3.0
45.639	1.0
45.654	6.0
45.669	3.0
45.684	5.0
45.699	3.0
45.714	5.0
45.729	6.0
45.744	6.0
45.759	4.0
45.774	1.0
45.789	6.0
45.804	4.0
45.819	9.0
45.834	13.0
45.849	9.0
45.864	18.0
45.879	8.0
45.894	14.0
45.909	10.0
45.924	12.0
45.939	16.0
45.954	10.0
45.969	18.0
45.984	26.0
45.998	15.0
46.013	14.0
46.028	9.0
46.043	13.0
46.058	10.0
46.073	14.0
46.088	12.0
46.103	6.0
46.118	6.0
46.133	7.0
46.148	11.0
46.163	7.0
46.178	9.0
46.192	9.0
46.207	6.0
46.222	8.0
46.237	8.0
46.252	9.0
46.267	12.0
46.282	10.0
46.297	11.0
46.312	17.0
46.327	15.0
46.341	9.0
46.356	13.0
46.371	10.0
46.386	7.0
46.401	7.0
46.416	2.0
46.431	6.0
46.446	3.0
46.46	6.0
46.475	2.0
46.49	3.0
46.505	2.0
46.52	4.0
46.535	4.0
46.55	4.0
46.564	5.0
46.579	4.0
46.594	11.0
46.609	3.0
46.624	10.0
46.639	5.0
46.654	5.0
46.668	7.0
46.683	3.0
46.698	6.0
46.713	6.0
46.728	3.0
46.743	7.0
46.758	4.0
46.772	4.0
46.787	3.0
46.802	4.0
46.817	4.0
46.832	5.0
46.847	3.0
46.861	6.0
46.876	7.0
46.891	4.0
46.906	2.0
46.921	4.0
46.936	2.0
46.95	6.0
46.965	2.0
46.98	4.0
46.995	4.0
47.01	17.0
47.025	7.0
47.039	7.0
47.054	7.0
47.069	15.0
47.084	11.0
47.099	9.0
47.113	9.0
47.128	11.0
47.143	11.0
47.158	8.0
47.173	5.0
47.188	8.0
47.202	4.0
47.217	7.0
47.232	7.0
47.247	4.0
47.262	7.0
47.277	5.0
47.291	4.0
47.306	3.0
47.321	8.0
47.336	6.0
47.351	4.0
47.365	10.0
47.38	3.0
47.395	8.0
47.41	10.0
47.425	6.0
47.44	6.0
47.454	4.0
47.469	4.0
47.484	8.0
47.499	6.0
47.514	2.0
47.528	9.0
47.543	5.0
47.558	3.0
47.573	5.0
47.588	8.0
47.603	2.0
47.617	3.0
47.632	12.0
47.647	7.0
47.662	6.0
47.677	1.0
47.691	6.0
47.706	4.0
47.721	3.0
47.736	4.0
47.751	8.0
47.766	8.0
47.78	1.0
47.795	7.0
47.81	7.0
47.825	5.0
47.84	5.0
47.855	5.0
47.869	3.0
47.884	3.0
47.899	4.0
47.914	4.0
47.929	1.0
47.944	8.0
47.958	4.0
47.973	7.0
47.988	4.0
48.003	4.0
48.018	7.0
48.033	2.0
48.047	4.0
48.062	7.0
48.077	4.0
48.092	6.0
48.107	1.0
48.122	5.0
48.137	7.0
48.151	2.0
48.166	8.0
48.181	7.0
48.196	5.0
48.211	7.0
48.226	8.0
48.241	5.0
48.255	1.0
48.27	2.0
48.285	3.0
48.3	6.0
48.315	3.0
48.33	0.0
48.345	2.0
48.359	4.0
48.374	5.0
48.389	3.0
48.404	3.0
48.419	6.0
48.434	3.0
48.449	5.0
48.464	11.0
48.478	6.0
48.493	4.0
48.508	6.0
48.523	4.0
48.538	6.0
48.553	4.0
48.568	6.0
48.583	4.0
48.597	6.0
48.612	6.0
48.627	7.0
48.642	5.0
48.657	4.0
48.672	4.0
48.687	2.0
48.702	6.0
48.717	5.0
48.731	3.0
48.746	4.0
48.761	3.0
48.776	3.0
48.791	4.0
48.806	5.0
48.821	3.0
48.836	2.0
48.851	4.0
48.866	3.0
48.88	3.0
48.895	6.0
48.91	7.0
48.925	3.0
48.94	8.0
48.955	4.0
48.97	4.0
48.985	3.0
49.0	5.0
49.015	0.0
49.03	3.0
49.044	5.0
49.059	1.0
49.074	2.0
49.089	1.0
49.104	3.0
49.119	5.0
49.134	3.0
49.149	5.0
49.164	4.0
49.179	2.0
49.194	6.0
49.209	6.0
49.224	3.0
49.238	6.0
49.253	7.0
49.268	3.0
49.283	10.0
49.298	10.0
49.313	5.0
49.328	13.0
49.343	8.0
49.358	10.0
49.373	14.0
49.388	4.0
49.403	10.0
49.418	7.0
49.433	9.0
49.448	8.0
49.463	2.0
49.478	7.0
49.492	1.0
49.507	8.0
49.522	5.0
49.537	3.0
49.552	5.0
49.567	7.0
49.582	6.0
49.597	5.0
49.612	4.0
49.627	5.0
49.642	8.0
49.657	6.0
49.672	7.0
49.687	7.0
49.702	8.0
49.717	4.0
49.732	4.0
49.747	3.0
49.762	4.0
49.777	6.0
49.792	9.0
49.807	9.0
49.822	4.0
49.837	10.0
49.852	6.0
49.867	5.0
49.882	2.0
49.897	4.0
49.912	9.0
49.927	4.0
49.942	5.0
49.957	8.0
49.971	3.0
49.986	6.0
50.001	10.0
50.016	4.0
50.031	3.0
50.046	3.0
50.061	8.0
50.076	3.0
50.091	2.0
50.106	3.0
50.121	6.0
50.136	5.0
50.151	7.0
50.166	3.0
50.181	5.0
50.196	8.0
50.211	4.0
50.226	5.0
50.241	5.0
50.256	5.0
50.271	4.0
50.286	4.0
50.302	6.0
50.317	11.0
50.332	6.0
50.347	5.0
50.362	5.0
50.377	2.0
50.392	4.0
50.407	10.0
50.422	8.0
50.437	4.0
50.452	8.0
50.467	7.0
50.482	12.0
50.497	8.0
50.512	9.0
50.527	7.0
50.542	11.0
50.557	7.0
50.572	7.0
50.587	5.0
50.602	5.0
50.617	9.0
50.632	9.0
50.647	5.0
50.662	4.0
50.677	7.0
50.692	11.0
50.707	9.0
50.722	7.0
50.737	4.0
50.752	7.0
50.767	2.0
50.782	14.0
50.797	4.0
50.812	9.0
50.828	7.0
50.843	6.0
50.858	5.0
50.873	4.0
50.888	4.0
50.903	2.0
50.918	8.0
50.933	6.0
50.948	10.0
50.963	1.0
50.978	2.0
50.993	4.0
51.008	5.0
51.023	6.0
51.038	4.0
51.053	5.0
51.068	8.0
51.083	3.0
51.098	3.0
51.114	7.0
51.129	9.0
51.144	3.0
51.159	3.0
51.174	3.0
51.189	4.0
51.204	6.0
51.219	5.0
51.234	2.0
51.249	3.0
51.264	2.0
51.279	8.0
51.294	5.0
51.309	6.0
51.324	8.0
51.34	5.0
51.355	8.0
51.37	5.0
51.385	3.0
51.4	7.0
51.415	5.0
51.43	10.0
51.445	9.0
51.46	8.0
51.475	10.0
51.49	21.0
51.505	14.0
51.52	17.0
51.535	15.0
51.551	19.0
51.566	18.0
51.581	17.0
51.596	13.0
51.611	7.0
51.626	7.0
51.641	10.0
51.656	4.0
51.671	9.0
51.686	8.0
51.701	14.0
51.716	9.0
51.732	7.0
51.747	6.0
51.762	9.0
51.777	6.0
51.792	7.0
51.807	7.0
51.822	15.0
51.837	10.0
51.852	11.0
51.867	8.0
51.882	11.0
51.898	12.0
51.913	10.0
51.928	6.0
51.943	6.0
51.958	6.0
51.973	10.0
51.988	5.0
52.003	5.0
52.018	5.0
52.033	2.0
52.048	7.0
52.064	6.0
52.079	3.0
52.094	3.0
52.109	8.0
52.124	4.0
52.139	4.0
52.154	7.0
52.169	4.0
52.184	7.0
52.199	5.0
52.215	3.0
52.23	10.0
52.245	7.0
52.26	5.0
52.275	2.0
52.29	7.0
52.305	4.0
52.32	8.0
52.335	8.0
52.35	3.0
52.366	4.0
52.381	5.0
52.396	2.0
52.411	8.0
52.426	6.0
52.441	6.0
52.456	4.0
52.471	6.0
52.486	4.0
52.502	8.0
52.517	8.0
52.532	8.0
52.547	8.0
52.562	13.0
52.577	10.0
52.592	7.0
52.607	12.0
52.622	6.0
52.637	5.0
52.653	10.0
52.668	4.0
52.683	7.0
52.698	6.0
52.713	2.0
52.728	2.0
52.743	1.0
52.758	3.0
52.774	8.0
52.789	5.0
52.804	9.0
52.819	6.0
52.834	3.0
52.849	5.0
52.864	7.0
52.879	5.0
52.894	8.0
52.91	6.0
52.925	10.0
52.94	7.0
52.955	6.0
52.97	4.0
52.985	6.0
53.0	6.0
53.015	10.0
53.031	5.0
53.046	11.0
53.061	7.0
53.076	6.0
53.091	5.0
53.106	4.0
53.121	6.0
53.136	8.0
53.152	7.0
53.167	1.0
53.182	8.0
53.197	5.0
53.212	4.0
53.227	3.0
53.242	6.0
53.257	5.0
53.273	5.0
53.288	1.0
53.303	3.0
53.318	5.0
53.333	3.0
53.348	5.0
53.363	5.0
53.379	4.0
53.394	5.0
53.409	3.0
53.424	0.0
53.439	6.0
53.454	4.0
53.469	4.0
53.484	3.0
53.5	5.0
53.515	2.0
53.53	6.0
53.545	4.0
53.56	4.0
53.575	4.0
53.59	8.0
53.606	4.0
53.621	6.0
53.636	3.0
53.651	7.0
53.666	6.0
53.681	4.0
53.696	2.0
53.712	10.0
53.727	7.0
53.742	4.0
53.757	7.0
53.772	4.0
53.787	2.0
53.802	2.0
53.818	4.0
53.833	3.0
53.848	5.0
53.863	7.0
53.878	7.0
53.893	6.0
53.909	7.0
53.924	2.0
53.939	8.0
53.954	4.0
53.969	3.0
53.984	5.0
53.999	4.0
54.015	6.0
54.03	3.0
54.045	5.0
54.06	6.0
54.075	2.0
54.09	2.0
54.106	7.0
54.121	10.0
54.136	10.0
54.151	4.0
54.166	4.0
54.181	3.0
54.197	2.0
54.212	9.0
54.227	4.0
54.242	1.0
54.257	6.0
54.272	3.0
54.288	3.0
54.303	7.0
54.318	5.0
54.333	4.0
54.348	3.0
54.363	2.0
54.379	4.0
54.394	3.0
54.409	3.0
54.424	3.0
54.439	4.0
54.454	3.0
54.47	9.0
54.485	3.0
54.5	5.0
54.515	3.0
54.53	9.0
54.545	6.0
54.561	14.0
54.576	8.0
54.591	8.0
54.606	15.0
54.621	6.0
54.636	15.0
54.652	17.0
54.667	14.0
54.682	9.0
54.697	18.0
54.712	18.0
54.727	8.0
54.743	9.0
54.758	6.0
54.773	11.0
54.788	3.0
54.803	4.0
54.819	8.0
54.834	2.0
54.849	6.0
54.864	7.0
54.879	5.0
54.894	3.0
54.91	8.0
54.925	5.0
54.94	7.0
54.955	9.0
54.97	7.0
54.985	5.0
55.001	5.0
55.016	7.0
55.031	14.0
55.046	5.0
55.061	5.0
55.077	8.0
55.092	3.0
55.107	7.0
55.122	4.0
55.137	5.0
55.152	10.0
55.168	3.0
55.183	4.0
55.198	4.0
55.213	8.0
55.228	7.0
55.243	6.0
55.259	8.0
55.274	6.0
55.289	4.0
55.304	0.0
55.319	4.0
55.335	6.0
55.35	5.0
55.365	4.0
55.38	5.0
55.395	9.0
55.41	5.0
55.426	8.0
55.441	2.0
55.456	2.0
55.471	1.0
55.486	4.0
55.501	7.0
55.517	10.0
55.532	6.0
55.547	7.0
55.562	10.0
55.577	6.0
55.592	3.0
55.608	7.0
55.623	6.0
55.638	7.0
55.653	6.0
55.668	7.0
55.683	8.0
55.699	4.0
55.714	8.0
55.729	8.0
55.744	5.0
55.759	8.0
55.774	1.0
55.79	9.0
55.805	7.0
55.82	4.0
55.835	1.0
55.85	3.0
55.865	5.0
55.881	3.0
55.896	2.0
55.911	9.0
55.926	8.0
55.941	9.0
55.956	4.0
55.972	9.0
55.987	4.0
56.002	7.0
56.017	5.0
56.032	6.0
56.047	3.0
56.063	7.0
56.078	11.0
56.093	3.0
56.108	5.0
56.123	5.0
56.138	6.0
56.154	2.0
56.169	4.0
56.184	7.0
56.199	5.0
56.214	4.0
56.229	12.0
56.244	6.0
56.26	4.0
56.275	3.0
56.29	7.0
56.305	2.0
56.32	2.0
56.335	3.0
56.351	7.0
56.366	2.0
56.381	2.0
56.396	3.0
56.411	6.0
56.426	3.0
56.441	5.0
56.457	4.0
56.472	7.0
56.487	5.0
56.502	2.0
56.517	1.0
56.532	3.0
56.547	4.0
56.563	2.0
56.578	4.0
56.593	4.0
56.608	3.0
56.623	9.0
56.638	3.0
56.653	6.0
56.668	2.0
56.684	3.0
56.699	4.0
56.714	7.0
56.729	10.0
56.744	5.0
56.759	1.0
56.774	7.0
56.79	4.0
56.805	2.0
56.82	6.0
56.835	4.0
56.85	6.0
56.865	3.0
56.88	2.0
56.895	4.0
56.911	3.0
56.926	5.0
56.941	1.0
56.956	1.0
56.971	1.0
56.986	3.0
57.001	7.0
57.016	4.0
57.031	7.0
57.047	7.0
57.062	4.0
57.077	6.0
57.092	4.0
57.107	1.0
57.122	4.0
57.137	4.0
57.152	7.0
57.167	2.0
57.183	7.0
57.198	6.0
57.213	6.0
57.228	2.0
57.243	2.0
57.258	5.0
57.273	5.0
57.288	5.0
57.303	2.0
57.318	1.0
57.334	7.0
57.349	7.0
57.364	4.0
57.379	6.0
57.394	3.0
57.409	3.0
57.424	9.0
57.439	5.0
57.454	7.0
57.469	9.0
57.484	1.0
57.5	4.0
57.515	1.0
57.53	2.0
57.545	2.0
57.56	5.0
57.575	3.0
57.59	4.0
57.605	6.0
57.62	5.0
57.635	7.0
57.65	8.0
57.665	2.0
57.68	7.0
57.696	7.0
57.711	3.0
57.726	4.0
57.741	8.0
57.756	2.0
57.771	8.0
57.786	4.0
57.801	1.0
57.816	1.0
57.831	2.0
57.846	7.0
57.861	3.0
57.876	5.0
57.891	4.0
57.906	4.0
57.921	3.0
57.937	4.0
57.952	2.0
57.967	4.0
57.982	5.0
57.997	7.0
58.012	5.0
58.027	6.0
58.042	3.0
58.057	5.0
58.072	3.0
58.087	3.0
58.102	4.0
58.117	5.0
58.132	6.0
58.147	6.0
58.162	9.0
58.177	5.0
58.192	4.0
58.207	3.0
58.222	5.0
58.237	4.0
58.252	5.0
58.267	4.0
58.282	2.0
58.297	3.0
58.312	10.0
58.327	3.0
58.342	3.0
58.357	6.0
58.372	7.0
58.387	4.0
58.402	6.0
58.418	5.0
58.433	7.0
58.448	3.0
58.463	6.0
58.478	3.0
58.493	8.0
58.508	4.0
58.523	4.0
58.538	5.0
58.553	6.0
58.568	10.0
58.583	4.0
58.598	4.0
58.613	7.0
58.628	6.0
58.643	3.0
58.658	3.0
58.673	11.0
58.688	7.0
58.703	5.0
58.718	12.0
58.733	7.0
58.748	7.0
58.763	6.0
58.778	5.0
58.793	3.0
58.808	8.0
58.823	5.0
58.838	2.0
58.853	3.0
58.868	4.0
58.883	9.0
58.898	6.0
58.913	6.0
58.928	3.0
58.942	2.0
58.957	8.0
58.972	6.0
58.987	9.0
59.002	8.0
59.017	5.0
59.032	8.0
59.047	6.0
59.062	4.0
59.077	8.0
59.092	6.0
59.107	5.0
59.122	6.0
59.137	4.0
59.152	2.0
59.167	3.0
59.182	3.0
59.197	4.0
59.212	5.0
59.227	5.0
59.242	6.0
59.257	4.0
59.272	8.0
59.287	3.0
59.302	1.0
59.317	4.0
59.332	3.0
59.347	5.0
59.362	2.0
59.377	3.0
59.392	2.0
59.407	7.0
59.422	2.0
59.437	4.0
59.452	8.0
59.467	3.0
59.482	8.0
59.497	6.0
59.512	1.0
59.527	4.0
59.542	4.0
59.557	4.0
59.572	7.0
59.587	2.0
59.602	9.0
59.617	11.0
59.632	7.0
59.647	10.0
59.661	10.0
59.676	13.0
59.691	6.0
59.706	5.0
59.721	3.0
59.736	6.0
59.751	5.0
59.766	6.0
59.781	1.0
59.796	4.0
59.811	7.0
59.826	9.0
59.841	5.0
59.856	7.0
59.871	5.0
59.886	8.0
59.901	1.0
59.916	11.0
59.931	7.0
59.946	6.0
59.961	4.0
59.976	6.0
59.991	4.0
60.006	5.0
60.021	13.0
60.036	7.0
60.051	5.0
60.066	5.0
60.081	6.0
60.096	6.0
60.111	6.0
60.126	3.0
60.141	4.0
60.156	4.0
60.171	6.0
60.186	5.0
60.201	9.0
60.216	6.0
60.231	3.0
60.246	2.0
60.261	3.0
60.276	5.0
60.291	7.0
60.306	3.0
60.321	3.0
60.336	7.0
60.35	3.0
60.365	2.0
60.38	6.0
60.395	4.0
60.41	1.0
60.425	2.0
60.44	4.0
60.455	4.0
60.47	6.0
60.485	6.0
60.5	5.0
60.515	8.0
60.53	7.0
60.545	7.0
60.56	5.0
60.575	8.0
60.59	6.0
60.605	9.0
60.62	9.0
60.635	9.0
60.65	3.0
60.665	4.0
60.68	10.0
60.695	8.0
60.71	7.0
60.725	6.0
60.74	2.0
60.755	2.0
60.77	4.0
60.785	3.0
60.8	3.0
60.815	3.0
60.83	1.0
60.845	6.0
60.86	1.0
60.875	5.0
60.89	2.0
60.905	7.0
60.92	7.0
60.935	10.0
60.95	7.0
60.965	9.0
60.98	12.0
60.995	5.0
61.01	2.0
61.025	6.0
61.04	8.0
61.055	6.0
61.07	2.0
61.085	1.0
61.1	5.0
61.115	0.0
61.13	8.0
61.145	1.0
61.16	2.0
61.175	5.0
61.191	6.0
61.206	3.0
61.221	3.0
61.236	5.0
61.251	7.0
61.266	2.0
61.281	6.0
61.296	3.0
61.311	4.0
61.326	3.0
61.341	5.0
61.356	4.0
61.371	2.0
61.386	2.0
61.401	5.0
61.416	7.0
61.431	9.0
61.446	5.0
61.461	5.0
61.476	10.0
61.491	4.0
61.506	8.0
61.521	4.0
61.536	7.0
61.551	7.0
61.566	6.0
61.581	5.0
61.596	6.0
61.611	6.0
61.626	4.0
61.641	2.0
61.656	5.0
61.672	3.0
61.687	5.0
61.702	4.0
61.717	4.0
61.732	6.0
61.747	3.0
61.762	5.0
61.777	3.0
61.792	7.0
61.807	8.0
61.822	11.0
61.837	4.0
61.852	6.0
61.867	2.0
61.882	9.0
61.897	4.0
61.912	2.0
61.927	3.0
61.943	3.0
61.958	7.0
61.973	4.0
61.988	5.0
62.003	4.0
62.018	5.0
62.033	3.0
62.048	6.0
62.063	4.0
62.078	2.0
62.093	7.0
62.108	5.0
62.123	5.0
62.138	4.0
62.153	5.0
62.169	2.0
62.184	7.0
62.199	2.0
62.214	5.0
62.229	4.0
62.244	5.0
62.259	4.0
62.274	3.0
62.289	4.0
62.304	1.0
62.319	2.0
62.335	5.0
62.35	8.0
62.365	2.0
62.38	4.0
62.395	6.0
62.41	6.0
62.425	3.0
62.44	5.0
62.455	6.0
62.47	3.0
62.485	9.0
62.501	9.0
62.516	2.0
62.531	7.0
62.546	8.0
62.561	4.0
62.576	6.0
62.591	4.0
62.606	2.0
62.621	2.0
62.636	5.0
62.652	2.0
62.667	4.0
62.682	2.0
62.697	4.0
62.712	7.0
62.727	5.0
62.742	2.0
62.757	2.0
62.772	2.0
62.787	7.0
62.803	6.0
62.818	4.0
62.833	5.0
62.848	1.0
62.863	2.0
62.878	3.0
62.893	2.0
62.908	3.0
62.923	6.0
62.939	2.0
62.954	1.0
62.969	7.0
62.984	3.0
62.999	2.0
63.014	7.0
63.029	4.0
63.044	4.0
63.059	5.0
63.074	3.0
63.09	10.0
63.105	2.0
63.12	5.0
63.135	4.0
63.15	1.0
63.165	2.0
63.18	6.0
63.195	4.0
63.21	6.0
63.226	3.0
63.241	3.0
63.256	5.0
63.271	5.0
63.286	5.0
63.301	5.0
63.316	4.0
63.331	7.0
63.346	4.0
63.362	5.0
63.377	9.0
63.392	6.0
63.407	8.0
63.422	3.0
63.437	8.0
63.452	6.0
63.467	10.0
63.482	2.0
63.497	7.0
63.513	4.0
63.528	3.0
63.543	4.0
63.558	4.0
63.573	7.0
63.588	4.0
63.603	3.0
63.618	7.0
63.633	3.0
63.648	5.0
63.664	3.0
63.679	2.0
63.694	5.0
63.709	5.0
63.724	5.0
63.739	2.0
63.754	4.0
63.769	2.0
63.784	3.0
63.799	5.0
63.814	8.0
63.83	4.0
63.845	5.0
63.86	3.0
63.875	8.0
63.89	11.0
63.905	4.0
63.92	8.0
63.935	4.0
63.95	8.0
63.965	3.0
63.98	4.0
63.996	4.0
64.011	2.0
64.026	4.0
64.041	6.0
64.056	5.0
64.071	3.0
64.086	3.0
64.101	4.0
64.116	3.0
64.131	2.0
64.146	6.0
64.161	4.0
64.176	3.0
64.191	5.0
64.207	2.0
64.222	0.0
64.237	5.0
64.252	0.0
64.267	4.0
64.282	4.0
64.297	4.0
64.312	3.0
64.327	5.0
64.342	4.0
64.357	5.0
64.372	1.0
64.387	8.0
64.402	3.0
64.417	1.0
64.433	3.0
64.448	0.0
64.463	5.0
64.478	5.0
64.493	4.0
64.508	3.0
64.523	2.0
64.538	5.0
64.553	3.0
64.568	6.0
64.583	3.0
64.598	3.0
64.613	1.0
64.628	4.0
64.643	5.0
64.658	3.0
64.673	1.0
64.688	4.0
64.703	1.0
64.718	7.0
64.734	1.0
64.749	3.0
64.764	2.0
64.779	3.0
64.794	5.0
64.809	5.0
64.824	4.0
64.839	3.0
64.854	2.0
64.869	3.0
64.884	0.0
64.899	4.0
64.914	2.0
64.929	2.0
64.944	1.0
64.959	7.0
64.974	4.0
64.989	3.0
65.004	3.0
65.019	3.0
65.034	0.0
65.049	4.0
65.064	5.0
65.079	8.0
65.094	5.0
65.109	2.0
65.125	3.0
65.14	4.0
65.155	3.0
65.17	7.0
65.185	7.0
65.2	4.0
65.215	2.0
65.23	9.0
65.245	2.0
65.26	6.0
65.275	3.0
65.29	6.0
65.305	4.0
65.32	6.0
65.335	4.0
65.35	4.0
65.365	3.0
65.38	3.0
65.395	4.0
65.41	4.0
65.425	4.0
65.44	6.0
65.455	1.0
65.47	2.0
65.485	4.0
65.5	3.0
65.515	2.0
65.53	6.0
65.545	3.0
65.56	5.0
65.575	7.0
65.59	4.0
65.605	8.0
65.62	2.0
65.635	4.0
65.65	4.0
65.666	3.0
65.681	3.0
65.696	4.0
65.711	4.0
65.726	4.0
65.741	5.0
65.756	4.0
65.771	7.0
65.786	3.0
65.801	7.0
65.816	2.0
65.831	6.0
65.846	3.0
65.861	3.0
65.876	2.0
65.891	2.0
65.906	6.0
65.921	4.0
65.936	8.0
65.951	6.0
65.966	5.0
65.981	4.0
65.996	6.0
66.011	2.0
66.026	1.0
66.041	4.0
66.056	1.0
66.071	2.0
66.086	5.0
66.101	3.0
66.116	4.0
66.131	5.0
66.146	6.0
66.161	3.0
66.176	6.0
66.191	8.0
66.206	10.0
66.221	7.0
66.236	7.0
66.251	9.0
66.266	5.0
66.281	8.0
66.296	7.0
66.311	4.0
66.327	4.0
66.342	2.0
66.357	3.0
66.372	4.0
66.387	4.0
66.402	3.0
66.417	3.0
66.432	5.0
66.447	1.0
66.462	5.0
66.477	4.0
66.492	4.0
66.507	5.0
66.522	4.0
66.537	2.0
66.552	5.0
66.567	10.0
66.582	3.0
66.597	6.0
66.612	4.0
66.627	3.0
66.642	5.0
66.657	2.0
66.672	6.0
66.687	2.0
66.702	4.0
66.717	3.0
66.732	5.0
66.747	2.0
66.762	3.0
66.777	4.0
66.792	5.0
66.807	4.0
66.822	1.0
66.837	4.0
66.853	3.0
66.868	1.0
66.883	1.0
66.898	1.0
66.913	5.0
66.928	2.0
66.943	3.0
66.958	5.0
66.973	3.0
66.988	6.0
67.003	2.0
67.018	5.0
67.033	4.0
67.048	3.0
67.063	3.0
67.078	4.0
67.093	9.0
67.108	6.0
67.123	3.0
67.138	3.0
67.153	5.0
67.168	2.0
67.183	3.0
67.198	7.0
67.214	3.0
67.229	4.0
67.244	3.0
67.259	2.0
67.274	2.0
67.289	3.0
67.304	2.0
67.319	4.0
67.334	3.0
67.349	6.0
67.364	4.0
67.379	1.0
67.394	3.0
67.409	7.0
67.424	6.0
67.439	8.0
67.454	3.0
67.469	5.0
67.484	3.0
67.5	0.0
67.515	4.0
67.53	3.0
67.545	4.0
67.56	0.0
67.575	6.0
67.59	5.0
67.605	7.0
67.62	7.0
67.635	2.0
67.65	4.0
67.665	5.0
67.68	5.0
67.695	3.0
67.71	2.0
67.726	0.0
67.741	4.0
67.756	2.0
67.771	3.0
67.786	2.0
67.801	3.0
67.816	0.0
67.831	1.0
67.846	1.0
67.861	3.0
67.876	1.0
67.891	5.0
67.906	3.0
67.922	5.0
67.937	2.0
67.952	4.0
67.967	0.0
67.982	10.0
67.997	7.0
68.012	2.0
68.027	4.0
68.042	5.0
68.057	3.0
68.072	7.0
68.087	1.0
68.103	6.0
68.118	3.0
68.133	6.0
68.148	1.0
68.163	5.0
68.178	1.0
68.193	1.0
68.208	3.0
68.223	8.0
68.238	4.0
68.254	3.0
68.269	1.0
68.284	2.0
68.299	3.0
68.314	2.0
68.329	3.0
68.344	2.0
68.359	3.0
68.374	3.0
68.389	6.0
68.405	2.0
68.42	8.0
68.435	4.0
68.45	6.0
68.465	8.0
68.48	3.0
68.495	2.0
68.51	3.0
68.525	6.0
68.54	3.0
68.556	4.0
68.571	4.0
68.586	1.0
68.601	1.0
68.616	2.0
68.631	3.0
68.646	4.0
68.661	6.0
68.676	3.0
68.691	1.0
68.707	5.0
68.722	3.0
68.737	5.0
68.752	6.0
68.767	2.0
68.782	6.0
68.797	6.0
68.812	2.0
68.827	7.0
68.842	2.0
68.857	4.0
68.873	7.0
68.888	5.0
68.903	3.0
68.918	2.0
68.933	2.0
68.948	2.0
68.963	4.0
68.978	0.0
68.993	3.0
69.008	7.0
69.023	3.0
69.038	4.0
69.054	3.0
69.069	3.0
69.084	4.0
69.099	5.0
69.114	1.0
69.129	3.0
69.144	3.0
69.159	5.0
69.174	2.0
69.189	2.0
69.204	2.0
69.219	7.0
69.234	3.0
69.249	4.0
69.264	4.0
69.279	2.0
69.295	6.0
69.31	4.0
69.325	4.0
69.34	4.0
69.355	2.0
69.37	4.0
69.385	5.0
69.4	5.0
69.415	7.0
69.43	3.0
69.445	4.0
69.46	3.0
69.475	6.0
69.49	4.0
69.505	3.0
69.52	0.0
69.535	5.0
69.55	3.0
69.565	1.0
69.58	5.0
69.595	3.0
69.61	0.0
69.625	3.0
69.64	2.0
69.655	2.0
69.67	3.0
69.685	9.0
69.7	7.0
69.715	5.0
69.73	6.0
69.745	6.0
69.76	2.0
69.775	6.0
69.79	4.0
69.805	2.0
69.82	5.0
69.835	4.0
69.85	1.0
69.865	9.0
69.88	3.0
69.895	9.0
69.909	2.0
69.924	5.0
69.939	3.0
69.954	8.0
69.969	3.0
69.984	4.0
69.999	5.0
70.014	0.0
70.029	1.0
70.044	4.0
70.059	4.0
70.074	2.0
70.088	4.0
70.103	4.0
70.118	2.0
70.133	3.0
70.148	2.0
70.163	4.0
70.178	4.0
70.193	3.0
70.208	5.0
70.222	7.0
70.237	6.0
70.252	3.0
70.267	4.0
70.282	4.0
70.297	0.0
70.312	6.0
70.327	4.0
70.341	4.0
70.356	5.0
70.371	6.0
70.386	6.0
70.401	11.0
70.416	1.0
70.43	5.0
70.445	7.0
70.46	1.0
70.475	4.0
70.49	2.0
70.505	1.0
70.519	7.0
70.534	5.0
70.549	5.0
70.564	5.0
70.579	2.0
70.594	2.0
70.608	2.0
70.623	5.0
70.638	2.0
70.653	6.0
70.668	4.0
70.683	2.0
70.697	7.0
70.712	6.0
70.727	5.0
70.742	3.0
70.757	2.0
70.771	4.0
70.786	7.0
70.801	4.0
70.816	6.0
70.831	1.0
70.845	3.0
70.86	9.0
70.875	0.0
70.89	4.0
70.905	3.0
70.92	2.0
70.934	4.0
70.949	3.0
70.964	2.0
70.979	1.0
70.994	4.0
71.008	2.0
71.023	3.0
71.038	4.0
71.053	3.0
71.068	5.0
71.082	4.0
71.097	4.0
71.112	4.0
71.127	4.0
71.142	2.0
71.156	5.0
71.171	9.0
71.186	6.0
71.201	4.0
71.216	8.0
71.231	5.0
71.245	5.0
71.26	8.0
71.275	6.0
71.29	3.0
71.305	0.0
71.319	3.0
71.334	4.0
71.349	3.0
71.364	0.0
71.379	4.0
71.394	6.0
71.408	2.0
71.423	2.0
71.438	1.0
71.453	1.0
71.468	4.0
71.483	2.0
71.497	3.0
71.512	6.0
71.527	4.0
71.542	1.0
71.557	2.0
71.572	1.0
71.586	4.0
71.601	4.0
71.616	4.0
71.631	0.0
71.646	4.0
71.661	3.0
71.676	4.0
71.69	2.0
71.705	6.0
71.72	2.0
71.735	2.0
71.75	2.0
71.765	3.0
71.78	4.0
71.795	5.0
71.81	3.0
71.824	2.0
71.839	2.0
71.854	3.0
71.869	3.0
71.884	6.0
71.899	4.0
71.914	4.0
71.929	2.0
71.944	2.0
71.959	0.0
71.974	3.0
71.988	2.0
72.003	4.0
72.018	0.0
72.033	3.0
72.048	3.0
72.063	2.0
72.078	3.0
72.093	1.0
72.108	5.0
72.123	2.0
72.138	3.0
72.153	4.0
72.168	5.0
72.183	4.0
72.198	5.0
72.213	1.0
72.228	4.0
72.243	3.0
72.258	1.0
72.273	2.0
72.288	5.0
72.303	2.0
72.318	4.0
72.333	6.0
72.348	3.0
72.363	1.0
72.378	3.0
72.393	5.0
72.408	5.0
72.423	3.0
72.438	6.0
72.453	6.0
72.468	2.0
72.483	5.0
72.498	6.0
72.513	5.0
72.528	5.0
72.543	3.0
72.558	3.0
72.573	1.0
72.588	1.0
72.603	2.0
72.618	6.0
72.633	7.0
72.649	2.0
72.664	3.0
72.679	3.0
72.694	2.0
72.709	1.0
72.724	2.0
72.739	3.0
72.754	5.0
72.769	3.0
72.784	1.0
72.799	4.0
72.814	7.0
72.829	4.0
72.845	4.0
72.86	5.0
72.875	2.0
72.89	1.0
72.905	6.0
72.92	2.0
72.935	2.0
72.95	3.0
72.965	6.0
72.98	4.0
72.996	3.0
73.011	4.0
73.026	4.0
73.041	6.0
73.056	4.0
73.071	5.0
73.086	4.0
73.101	4.0
73.117	5.0
73.132	2.0
73.147	1.0
73.162	4.0
73.177	1.0
73.192	8.0
73.207	1.0
73.222	3.0
73.238	2.0
73.253	1.0
73.268	9.0
73.283	4.0
73.298	2.0
73.313	3.0
73.328	8.0
73.343	2.0
73.359	4.0
73.374	9.0
73.389	5.0
73.404	3.0
73.419	6.0
73.434	1.0
73.449	5.0
73.465	5.0
73.48	5.0
73.495	3.0
73.51	3.0
73.525	1.0
73.54	4.0
73.556	5.0
73.571	3.0
73.586	4.0
73.601	2.0
73.616	6.0
73.631	2.0
73.646	2.0
73.662	7.0
73.677	5.0
73.692	6.0
73.707	4.0
73.722	2.0
73.737	4.0
73.752	2.0
73.768	6.0
73.783	1.0
73.798	4.0
73.813	4.0
73.828	3.0
73.843	2.0
73.859	6.0
73.874	4.0
73.889	3.0
73.904	2.0
73.919	4.0
73.934	2.0
73.949	1.0
73.965	2.0
73.98	1.0
73.995	2.0
74.01	3.0
74.025	5.0
74.04	1.0
74.056	3.0
74.071	3.0
74.086	2.0
74.101	3.0
74.116	2.0
74.131	2.0
74.146	6.0
74.162	5.0
74.177	11.0
74.192	7.0
74.207	3.0
74.222	6.0
74.237	0.0
74.252	6.0
74.268	4.0
74.283	2.0
74.298	3.0
74.313	2.0
74.328	3.0
74.343	2.0
74.358	1.0
74.374	3.0
74.389	3.0
74.404	9.0
74.419	2.0
74.434	5.0
74.449	5.0
74.464	1.0
74.48	3.0
74.495	5.0
74.51	3.0
74.525	2.0
74.54	3.0
74.555	0.0
74.57	1.0
74.586	2.0
74.601	1.0
74.616	4.0
74.631	6.0
74.646	2.0
74.661	7.0
74.676	4.0
74.691	3.0
74.707	3.0
74.722	9.0
74.737	5.0
74.752	6.0
74.767	2.0
74.782	2.0
74.797	4.0
74.813	5.0
74.828	2.0
74.843	6.0
74.858	5.0
74.873	2.0
74.888	5.0
74.903	4.0
74.918	2.0
74.934	4.0
74.949	4.0
74.964	5.0
74.979	1.0
74.994	4.0
75.009	3.0
75.024	3.0
75.04	4.0
75.055	8.0
75.07	3.0
75.085	6.0
75.1	6.0
75.115	5.0
75.13	4.0
75.145	5.0
75.161	6.0
75.176	3.0
75.191	2.0
75.206	2.0
75.221	10.0
75.236	2.0
75.251	4.0
75.266	2.0
75.282	3.0
75.297	3.0
75.312	3.0
75.327	4.0
75.342	3.0
75.357	3.0
75.372	2.0
75.387	1.0
75.403	0.0
75.418	3.0
75.433	4.0
75.448	3.0
75.463	5.0
75.478	3.0
75.493	5.0
75.509	2.0
75.524	6.0
75.539	2.0
75.554	4.0
75.569	4.0
75.584	4.0
75.599	8.0
75.614	8.0
75.63	3.0
75.645	2.0
75.66	6.0
75.675	3.0
75.69	0.0
75.705	4.0
75.72	3.0
75.735	6.0
75.751	5.0
75.766	4.0
75.781	2.0
75.796	4.0
75.811	5.0
75.826	7.0
75.841	3.0
75.856	4.0
75.872	7.0
75.887	5.0
75.902	1.0
75.917	2.0
75.932	4.0
75.947	3.0
75.962	5.0
75.977	4.0
75.993	5.0
76.008	5.0
76.023	2.0
76.038	6.0
76.053	4.0
76.068	0.0
76.083	3.0
76.098	2.0
76.114	2.0
76.129	2.0
76.144	1.0
76.159	5.0
76.174	2.0
76.189	5.0
76.204	2.0
76.22	3.0
76.235	3.0
76.25	1.0
76.265	3.0
76.28	2.0
76.295	5.0
76.31	1.0
76.325	6.0
76.341	2.0
76.356	2.0
76.371	7.0
76.386	0.0
76.401	4.0
76.416	5.0
76.431	6.0
76.446	4.0
76.462	2.0
76.477	6.0
76.492	3.0
76.507	1.0
76.522	4.0
76.537	3.0
76.552	6.0
76.567	3.0
76.583	6.0
76.598	2.0
76.613	2.0
76.628	2.0
76.643	1.0
76.658	3.0
76.673	4.0
76.688	8.0
76.704	4.0
76.719	7.0
76.734	6.0
76.749	3.0
76.764	5.0
76.779	4.0
76.794	8.0
76.809	2.0
76.824	9.0
76.84	3.0
76.855	4.0
76.87	4.0
76.885	3.0
76.9	3.0
76.915	5.0
76.93	2.0
76.945	1.0
76.96	6.0
76.976	4.0
76.991	2.0
77.006	2.0
77.021	4.0
77.036	3.0
77.051	2.0
77.066	1.0
77.081	1.0
77.096	2.0
77.112	2.0
77.127	5.0
77.142	3.0
77.157	2.0
77.172	3.0
77.187	8.0
77.202	3.0
77.217	4.0
77.232	4.0
77.247	1.0
77.263	3.0
77.278	4.0
77.293	2.0
77.308	1.0
77.323	2.0
77.338	3.0
77.353	3.0
77.368	3.0
77.383	1.0
77.398	3.0
77.413	2.0
77.428	0.0
77.444	3.0
77.459	3.0
77.474	7.0
77.489	5.0
77.504	2.0
77.519	5.0
77.534	5.0
77.549	5.0
77.564	3.0
77.579	12.0
77.594	3.0
77.609	6.0
77.624	6.0
77.64	7.0
77.655	3.0
77.67	5.0
77.685	3.0
77.7	2.0
77.715	2.0
77.73	4.0
77.745	2.0
77.76	5.0
77.775	2.0
77.79	4.0
77.805	2.0
77.82	4.0
77.835	2.0
77.85	3.0
77.865	3.0
77.88	2.0
77.895	2.0
77.91	1.0
77.926	2.0
77.941	4.0
77.956	6.0
77.971	3.0
77.986	0.0
78.001	3.0
78.016	2.0
78.031	5.0
78.046	4.0
78.061	1.0
78.076	2.0
78.091	4.0
78.106	5.0
78.121	4.0
78.136	3.0
78.151	2.0
78.166	4.0
78.181	3.0
78.196	2.0
78.211	7.0
78.226	2.0
78.241	4.0
78.256	5.0
78.271	5.0
78.286	4.0
78.301	3.0
78.316	3.0
78.331	1.0
78.346	2.0
78.361	1.0
78.376	2.0
78.391	2.0
78.406	4.0
78.421	3.0
78.436	2.0
78.451	5.0
78.466	1.0
78.481	4.0
78.496	1.0
78.511	5.0
78.526	6.0
78.541	5.0
78.556	2.0
78.571	4.0
78.586	3.0
78.601	3.0
78.616	4.0
78.631	8.0
78.646	2.0
78.661	3.0
78.676	0.0
78.691	3.0
78.706	1.0
78.721	4.0
78.736	2.0
78.751	1.0
78.766	1.0
78.781	4.0
78.796	0.0
78.811	3.0
78.826	4.0
78.841	2.0
78.856	3.0
78.871	1.0
78.885	1.0
78.9	3.0
78.915	1.0
78.93	5.0
78.945	3.0
78.96	5.0
78.975	4.0
78.99	5.0
79.005	2.0
79.02	4.0
79.035	4.0
79.05	1.0
79.065	3.0
79.08	4.0
79.095	5.0
79.11	1.0
79.125	5.0
79.14	6.0
79.155	3.0
79.17	3.0
79.185	3.0
79.2	3.0
79.215	2.0
79.23	4.0
79.245	1.0
79.26	8.0
79.275	2.0
79.29	6.0
79.304	6.0
79.319	4.0
79.334	4.0
79.349	7.0
79.364	2.0
79.379	4.0
79.394	2.0
79.409	4.0
79.424	3.0
79.439	6.0
79.454	6.0
79.469	3.0
79.484	5.0
79.499	0.0
79.514	3.0
79.529	2.0
79.544	5.0
79.559	4.0
79.574	4.0
79.589	2.0
79.604	5.0
79.619	4.0
79.634	4.0
79.649	1.0
79.664	3.0
79.679	3.0
79.693	3.0
79.708	6.0
79.723	4.0
79.738	3.0
79.753	4.0
79.768	3.0
79.783	2.0
79.798	4.0
79.813	3.0
79.828	5.0
79.843	3.0
79.858	5.0
79.873	3.0
79.888	4.0
79.903	5.0
79.918	5.0
79.933	4.0
79.948	2.0
79.963	4.0
79.978	6.0
79.993	3.0
80.008	0.0
80.023	2.0
80.038	4.0
80.053	5.0
80.068	1.0
80.083	2.0
80.098	10.0
80.113	4.0
80.128	3.0
80.143	2.0
80.158	4.0
80.173	4.0
80.188	3.0
80.202	6.0
80.217	3.0
80.232	5.0
80.247	3.0
80.262	7.0
80.277	1.0
80.292	6.0
80.307	1.0
80.322	3.0
80.337	6.0
80.352	4.0
80.367	2.0
80.382	1.0
80.397	5.0
80.412	2.0
80.427	2.0
80.442	5.0
80.457	3.0
80.472	4.0
80.487	3.0
80.502	3.0
80.517	2.0
80.532	3.0
80.547	2.0
80.562	1.0
80.577	0.0
80.592	4.0
80.607	6.0
80.622	1.0
80.637	1.0
80.652	4.0
80.667	1.0
80.682	3.0
80.697	4.0
80.712	3.0
80.727	3.0
80.742	3.0
80.757	3.0
80.772	4.0
80.787	4.0
80.802	2.0
80.817	4.0
80.832	3.0
80.847	3.0
80.862	5.0
80.877	4.0
80.892	4.0
80.907	0.0
80.922	3.0
80.937	2.0
80.952	0.0
80.967	4.0
80.982	3.0
80.997	4.0
81.012	6.0
81.027	2.0
81.042	7.0
81.057	7.0
81.072	4.0
81.087	4.0
81.101	8.0
81.116	2.0
81.131	4.0
81.146	5.0
81.161	2.0
81.176	3.0
81.191	2.0
81.206	4.0
81.221	2.0
81.236	4.0
81.251	0.0
81.266	6.0
81.281	0.0
81.296	4.0
81.311	2.0
81.326	0.0
81.341	5.0
81.356	2.0
81.371	1.0
81.386	1.0
81.401	0.0
81.416	3.0
81.431	1.0
81.446	7.0
81.461	1.0
81.476	6.0
81.491	1.0
81.506	1.0
81.521	3.0
81.536	1.0
81.55	7.0
81.565	2.0
81.58	2.0
81.595	3.0
81.61	2.0
81.625	2.0
81.64	2.0
81.655	6.0
81.67	1.0
81.685	1.0
81.7	4.0
81.715	4.0
81.73	3.0
81.745	6.0
81.76	1.0
81.775	1.0
81.79	3.0
81.805	2.0
81.819	3.0
81.834	2.0
81.849	5.0
81.864	6.0
81.879	3.0
81.894	5.0
81.909	3.0
81.924	3.0
81.939	4.0
81.954	2.0
81.969	2.0
81.984	2.0
81.999	4.0
82.013	4.0
82.028	2.0
82.043	3.0
82.058	5.0
82.073	2.0
82.088	6.0
82.103	1.0
82.118	4.0
82.133	0.0
82.148	4.0
82.163	4.0
82.177	2.0
82.192	6.0
82.207	4.0
82.222	5.0
82.237	3.0
82.252	2.0
82.267	1.0
82.282	5.0
82.297	1.0
82.312	7.0
82.326	0.0
82.341	2.0
82.356	4.0
82.371	4.0
82.386	3.0
82.401	3.0
82.416	3.0
82.431	2.0
82.445	3.0
82.46	5.0
82.475	6.0
82.49	1.0
82.505	4.0
82.52	0.0
82.535	4.0
82.55	4.0
82.565	5.0
82.579	3.0
82.594	2.0
82.609	6.0
82.624	2.0
82.639	3.0
82.654	3.0
82.669	3.0
82.684	2.0
82.698	1.0
82.713	1.0
82.728	5.0
82.743	2.0
82.758	3.0
82.773	0.0
82.788	4.0
82.803	2.0
82.817	4.0
82.832	9.0
82.847	4.0
82.862	2.0
82.877	3.0
82.892	1.0
82.907	5.0
82.922	2.0
82.937	1.0
82.951	3.0
82.966	1.0
82.981	6.0
82.996	8.0
83.011	3.0
83.026	3.0
83.041	3.0
83.056	1.0
83.07	3.0
83.085	7.0
83.1	2.0
83.115	2.0
83.13	2.0
83.145	5.0
83.16	3.0
83.175	4.0
83.19	1.0
83.204	3.0
83.219	4.0
83.234	5.0
83.249	2.0
83.264	2.0
83.279	0.0
83.294	1.0
83.309	6.0
83.324	0.0
83.339	2.0
83.353	3.0
83.368	6.0
83.383	1.0
83.398	4.0
83.413	5.0
83.428	1.0
83.443	4.0
83.458	1.0
83.473	2.0
83.488	4.0
83.503	5.0
83.517	7.0
83.532	6.0
83.547	4.0
83.562	5.0
83.577	4.0
83.592	1.0
83.607	6.0
83.622	4.0
83.637	4.0
83.652	5.0
83.667	5.0
83.682	2.0
83.697	4.0
83.712	2.0
83.727	3.0
83.741	1.0
83.756	3.0
83.771	3.0
83.786	1.0
83.801	3.0
83.816	2.0
83.831	3.0
83.846	2.0
83.861	1.0
83.876	6.0
83.891	0.0
83.906	3.0
83.921	5.0
83.936	4.0
83.951	4.0
83.966	0.0
83.981	2.0
83.996	4.0
84.011	0.0
84.026	5.0
84.041	10.0
84.056	2.0
84.071	1.0
84.086	1.0
84.101	4.0
84.116	1.0
84.131	4.0
84.146	7.0
84.161	1.0
84.176	5.0
84.191	3.0
84.206	3.0
84.221	1.0
84.236	1.0
84.251	1.0
84.266	3.0
84.281	1.0
84.296	7.0
84.311	4.0
84.326	3.0
84.341	3.0
84.356	6.0
84.371	5.0
84.386	5.0
84.401	8.0
84.416	1.0
84.431	11.0
84.446	5.0
84.461	3.0
84.476	4.0
84.492	4.0
84.507	4.0
84.522	2.0
84.537	0.0
84.552	6.0
84.567	6.0
84.582	2.0
84.597	5.0
84.612	1.0
84.627	2.0
84.642	3.0
84.657	2.0
84.672	5.0
84.687	3.0
84.702	4.0
84.717	3.0
84.733	2.0
84.748	1.0
84.763	4.0
84.778	1.0
84.793	0.0
84.808	4.0
84.823	3.0
84.838	4.0
84.853	2.0
84.868	2.0
84.883	3.0
84.898	5.0
84.913	2.0
84.929	0.0
84.944	3.0
84.959	5.0
84.974	6.0
84.989	1.0
85.004	5.0
85.019	2.0
85.034	3.0
85.049	3.0
85.064	2.0
85.079	2.0
85.094	3.0
85.11	1.0
85.125	2.0
85.14	4.0
85.155	3.0
85.17	0.0
85.185	1.0
85.2	4.0
85.215	3.0
85.23	2.0
85.245	2.0
85.26	3.0
85.276	5.0
85.291	4.0
85.306	3.0
85.321	0.0
85.336	3.0
85.351	5.0
85.366	2.0
85.381	1.0
85.396	3.0
85.411	7.0
85.426	3.0
85.441	0.0
85.457	0.0
85.472	3.0
85.487	4.0
85.502	5.0
85.517	3.0
85.532	4.0
85.547	3.0
85.562	5.0
85.577	1.0
85.592	3.0
85.607	1.0
85.622	2.0
85.637	4.0
85.653	3.0
85.668	2.0
85.683	3.0
85.698	7.0
85.713	1.0
85.728	3.0
85.743	3.0
85.758	2.0
85.773	4.0
85.788	5.0
85.803	4.0
85.818	3.0
85.833	1.0
85.848	2.0
85.863	2.0
85.879	2.0
85.894	2.0
85.909	3.0
85.924	3.0
85.939	4.0
85.954	2.0
85.969	5.0
85.984	3.0
85.999	4.0
86.014	2.0
86.029	4.0
86.044	1.0
86.059	1.0
86.074	1.0
86.089	3.0
86.104	4.0
86.119	0.0
86.134	3.0
86.149	4.0
86.164	5.0
86.179	4.0
86.194	3.0
86.209	6.0
86.224	3.0
86.239	1.0
86.254	4.0
86.269	3.0
86.284	2.0
86.299	2.0
86.314	7.0
86.33	1.0
86.345	3.0
86.36	1.0
86.375	5.0
86.39	3.0
86.405	4.0
86.42	6.0
86.435	4.0
86.45	3.0
86.465	5.0
86.48	3.0
86.495	0.0
86.51	4.0
86.525	6.0
86.54	0.0
86.555	3.0
86.57	0.0
86.585	0.0
86.6	3.0
86.615	1.0
86.63	4.0
86.645	2.0
86.659	1.0
86.674	2.0
86.689	4.0
86.704	1.0
86.719	2.0
86.734	2.0
86.749	2.0
86.764	4.0
86.779	2.0
86.794	7.0
86.809	1.0
86.824	3.0
86.839	3.0
86.854	7.0
86.869	4.0
86.884	3.0
86.899	9.0
86.914	3.0
86.929	10.0
86.944	7.0
86.959	3.0
86.974	5.0
86.989	2.0
87.004	5.0
87.019	3.0
87.034	3.0
87.049	4.0
87.064	2.0
87.079	2.0
87.094	2.0
87.109	3.0
87.124	3.0
87.139	3.0
87.154	3.0
87.169	5.0
87.184	0.0
87.199	2.0
87.214	2.0
87.229	0.0
87.244	5.0
87.259	3.0
87.274	3.0
87.289	4.0
87.304	3.0
87.319	7.0
87.334	0.0
87.349	2.0
87.364	1.0
87.379	2.0
87.394	1.0
87.409	1.0
87.424	0.0
87.438	4.0
87.453	2.0
87.468	4.0
87.483	0.0
87.498	3.0
87.513	4.0
87.528	7.0
87.543	6.0
87.558	3.0
87.573	4.0
87.588	3.0
87.603	3.0
87.618	3.0
87.633	10.0
87.648	5.0
87.663	3.0
87.678	4.0
87.693	3.0
87.708	7.0
87.723	3.0
87.738	4.0
87.753	3.0
87.768	4.0
87.783	6.0
87.798	3.0
87.813	5.0
87.828	4.0
87.843	6.0
87.858	6.0
87.873	1.0
87.888	1.0
87.903	6.0
87.918	2.0
87.933	4.0
87.948	3.0
87.963	2.0
87.978	3.0
87.993	7.0
88.008	5.0
88.023	1.0
88.038	8.0
88.053	1.0
88.068	5.0
88.083	0.0
88.098	2.0
88.113	1.0
88.128	4.0
88.143	5.0
88.158	4.0
88.174	5.0
88.189	4.0
88.204	4.0
88.219	5.0
88.234	3.0
88.249	0.0
88.264	4.0
88.279	4.0
88.294	5.0
88.309	3.0
88.324	4.0
88.339	3.0
88.354	6.0
88.369	5.0
88.384	6.0
88.399	3.0
88.414	8.0
88.429	4.0
88.444	3.0
88.459	2.0
88.474	1.0
88.489	5.0
88.504	6.0
88.519	2.0
88.534	4.0
88.549	6.0
88.564	2.0
88.58	4.0
88.595	4.0
88.61	4.0
88.625	1.0
88.64	3.0
88.655	3.0
88.67	5.0
88.685	4.0
88.7	1.0
88.715	3.0
88.73	4.0
88.745	1.0
88.76	2.0
88.775	0.0
88.79	1.0
88.805	3.0
88.82	4.0
88.835	3.0
88.85	2.0
88.865	1.0
88.88	4.0
88.895	4.0
88.911	1.0
88.926	2.0
88.941	1.0
88.956	4.0
88.971	4.0
88.986	3.0
89.001	6.0
89.016	5.0
89.031	2.0
89.046	2.0
89.061	4.0
89.076	1.0
89.091	4.0
89.106	0.0
89.121	2.0
89.136	1.0
89.151	0.0
89.166	1.0
89.181	3.0
89.196	1.0
89.211	2.0
89.227	2.0
89.242	4.0
89.257	5.0
89.272	4.0
89.287	3.0
89.302	2.0
89.317	3.0
89.332	2.0
89.347	2.0
89.362	5.0
89.377	5.0
89.392	2.0
89.407	3.0
89.422	5.0
89.437	4.0
89.452	1.0
89.467	2.0
89.482	4.0
89.497	5.0
89.512	6.0
89.527	2.0
89.542	1.0
89.557	4.0
89.572	2.0
89.587	3.0
89.602	2.0
89.617	2.0
89.632	2.0
89.647	3.0
89.662	5.0
89.677	4.0
89.693	2.0
89.708	3.0
89.723	7.0
89.738	2.0
89.753	1.0
89.768	2.0
89.783	4.0
89.798	3.0
89.813	3.0
89.828	3.0
89.843	4.0
89.858	4.0
89.873	2.0
89.888	4.0
89.903	3.0
89.918	10.0
89.933	3.0
89.948	4.0
89.963	8.0
89.978	3.0
89.993	2.0
90.008	2.0
90.023	4.0
90.038	3.0
90.053	1.0
90.068	5.0
90.083	5.0
90.097	4.0
90.112	1.0
90.127	4.0
90.142	4.0
90.157	2.0
90.172	4.0
90.187	3.0
90.202	0.0
90.217	2.0
90.232	5.0
90.247	2.0
90.262	6.0
90.277	3.0
90.292	2.0
90.307	3.0
90.322	8.0
90.337	3.0
90.352	3.0
90.367	4.0
90.382	3.0
90.397	5.0
90.412	5.0
90.427	3.0
90.442	5.0
90.457	2.0
90.472	6.0
90.487	3.0
90.501	5.0
90.516	3.0
90.531	4.0
90.546	0.0
90.561	1.0
90.576	2.0
90.591	1.0
90.606	3.0
90.621	1.0
90.636	5.0
90.651	7.0
90.666	1.0
90.681	5.0
90.696	3.0
90.711	2.0
90.726	3.0
90.741	3.0
90.755	4.0
90.77	3.0
90.785	5.0
90.8	3.0
90.815	2.0
90.83	4.0
90.845	4.0
90.86	3.0
90.875	2.0
90.89	1.0
90.905	4.0
90.92	4.0
90.935	2.0
90.95	5.0
90.965	3.0
90.979	4.0
90.994	5.0
91.009	6.0
91.024	3.0
91.039	3.0
91.054	2.0
91.069	3.0
91.084	3.0
91.099	3.0
91.114	4.0
91.129	4.0
91.144	2.0
91.159	6.0
91.174	2.0
91.188	4.0
91.203	2.0
91.218	2.0
91.233	6.0
91.248	5.0
91.263	5.0
91.278	3.0
91.293	4.0
91.308	3.0
91.323	3.0
91.338	2.0
91.353	3.0
91.368	1.0
91.383	4.0
91.398	4.0
91.412	4.0
91.427	2.0
91.442	3.0
91.457	4.0
91.472	3.0
91.487	1.0
91.502	5.0
91.517	3.0
91.532	1.0
91.547	4.0
91.562	8.0
91.577	4.0
91.592	3.0
91.607	1.0
91.622	4.0
91.637	3.0
91.652	2.0
91.666	3.0
91.681	3.0
91.696	5.0
91.711	2.0
91.726	3.0
91.741	0.0
91.756	2.0
91.771	5.0
91.786	7.0
91.801	2.0
91.816	4.0
91.831	1.0
91.846	2.0
91.861	5.0
91.876	2.0
91.891	2.0
91.906	2.0
91.921	5.0
91.936	2.0
91.951	1.0
91.966	5.0
91.981	1.0
91.995	3.0
92.01	2.0
92.025	1.0
92.04	3.0
92.055	4.0
92.07	4.0
92.085	4.0
92.1	4.0
92.115	1.0
92.13	2.0
92.145	2.0
92.16	3.0
92.175	5.0
92.19	3.0
92.205	3.0
92.22	7.0
92.235	2.0
92.25	3.0
92.265	6.0
92.28	3.0
92.295	1.0
92.31	1.0
92.325	3.0
92.34	3.0
92.355	3.0
92.37	8.0
92.385	4.0
92.4	1.0
92.415	3.0
92.43	4.0
92.445	3.0
92.46	4.0
92.475	2.0
92.49	4.0
92.505	5.0
92.52	5.0
92.535	2.0
92.55	4.0
92.565	3.0
92.58	2.0
92.595	9.0
92.61	3.0
92.625	5.0
92.64	1.0
92.655	4.0
92.67	2.0
92.685	1.0
92.7	2.0
92.715	7.0
92.73	3.0
92.745	1.0
92.76	3.0
92.775	2.0
92.79	5.0
92.805	1.0
92.82	2.0
92.835	4.0
92.85	3.0
92.865	2.0
92.88	2.0
92.895	2.0
92.91	2.0
92.925	6.0
92.94	3.0
92.955	4.0
92.97	2.0
92.985	0.0
93.0	5.0
93.015	3.0
93.03	2.0
93.045	2.0
93.06	3.0
93.075	3.0
93.09	4.0
93.105	7.0
93.12	3.0
93.135	4.0
93.15	7.0
93.165	2.0
93.18	2.0
93.195	3.0
93.21	1.0
93.225	2.0
93.24	5.0
93.255	1.0
93.27	0.0
93.285	1.0
93.3	2.0
93.315	2.0
93.33	6.0
93.345	2.0
93.36	7.0
93.375	5.0
93.39	6.0
93.405	3.0
93.42	4.0
93.435	3.0
93.45	3.0
93.465	2.0
93.48	4.0
93.495	2.0
93.51	9.0
93.525	5.0
93.54	4.0
93.555	5.0
93.57	5.0
93.585	1.0
93.6	4.0
93.615	4.0
93.63	2.0
93.645	5.0
93.66	6.0
93.675	2.0
93.69	4.0
93.705	5.0
93.72	5.0
93.735	7.0
93.75	2.0
93.765	5.0
93.78	2.0
93.795	3.0
93.81	6.0
93.824	7.0
93.839	0.0
93.854	5.0
93.869	3.0
93.884	6.0
93.899	2.0
93.914	4.0
93.929	2.0
93.944	4.0
93.959	3.0
93.974	4.0
93.989	2.0
94.004	5.0
94.019	3.0
94.034	2.0
94.049	0.0
94.064	4.0
94.079	2.0
94.094	7.0
94.108	1.0
94.123	3.0
94.138	4.0
94.153	1.0
94.168	5.0
94.183	1.0
94.198	2.0
94.213	5.0
94.228	3.0
94.243	3.0
94.258	5.0
94.273	4.0
94.288	6.0
94.302	5.0
94.317	3.0
94.332	4.0
94.347	4.0
94.362	7.0
94.377	4.0
94.392	1.0
94.407	3.0
94.422	7.0
94.437	4.0
94.452	2.0
94.466	8.0
94.481	2.0
94.496	7.0
94.511	5.0
94.526	4.0
94.541	6.0
94.556	4.0
94.571	5.0
94.586	3.0
94.601	4.0
94.615	5.0
94.63	5.0
94.645	2.0
94.66	7.0
94.675	4.0
94.69	5.0
94.705	0.0
94.72	2.0
94.735	6.0
94.749	5.0
94.764	3.0
94.779	4.0
94.794	4.0
94.809	2.0
94.824	6.0
94.839	1.0
94.854	2.0
94.868	2.0
94.883	3.0
94.898	3.0
94.913	1.0
94.928	1.0
94.943	7.0
94.958	3.0
94.973	1.0
94.987	1.0
95.002	1.0
95.017	5.0
95.032	2.0
95.047	2.0
95.062	4.0
95.077	1.0
95.092	2.0
95.106	4.0
95.121	2.0
95.136	2.0
95.151	4.0
95.166	4.0
95.181	1.0
95.196	5.0
95.211	1.0
95.226	3.0
95.24	6.0
95.255	4.0
95.27	5.0
95.285	3.0
95.3	2.0
95.315	6.0
95.33	1.0
95.345	3.0
95.359	2.0
95.374	4.0
95.389	3.0
95.404	5.0
95.419	0.0
95.434	0.0
95.449	2.0
95.464	0.0
95.478	4.0
95.493	2.0
95.508	4.0
95.523	5.0
95.538	3.0
95.553	1.0
95.568	2.0
95.583	1.0
95.597	3.0
95.612	3.0
95.627	7.0
95.642	2.0
95.657	2.0
95.672	2.0
95.687	5.0
95.702	2.0
95.717	1.0
95.731	0.0
95.746	4.0
95.761	3.0
95.776	1.0
95.791	5.0
95.806	3.0
95.821	2.0
95.836	4.0
95.851	2.0
95.866	2.0
95.88	5.0
95.895	2.0
95.91	2.0
95.925	2.0
95.94	4.0
95.955	2.0
95.97	5.0
95.985	1.0
96.0	1.0
96.015	1.0
96.029	2.0
96.044	5.0
96.059	1.0
96.074	5.0
96.089	5.0
96.104	6.0
96.119	5.0
96.134	5.0
96.149	2.0
96.164	2.0
96.179	5.0
96.194	3.0
96.208	5.0
96.223	3.0
96.238	4.0
96.253	4.0
96.268	2.0
96.283	4.0
96.298	5.0
96.313	0.0
96.328	2.0
96.343	4.0
96.358	3.0
96.373	1.0
96.388	4.0
96.403	3.0
96.417	2.0
96.432	2.0
96.447	3.0
96.462	1.0
96.477	3.0
96.492	3.0
96.507	4.0
96.522	5.0
96.537	6.0
96.552	3.0
96.567	1.0
96.582	3.0
96.597	0.0
96.612	1.0
96.627	0.0
96.642	6.0
96.656	4.0
96.671	5.0
96.686	2.0
96.701	2.0
96.716	2.0
96.731	1.0
96.746	0.0
96.761	2.0
96.776	1.0
96.791	5.0
96.806	3.0
96.821	3.0
96.836	6.0
96.851	0.0
96.866	6.0
96.881	2.0
96.896	4.0
96.911	2.0
96.926	4.0
96.94	1.0
96.955	6.0
96.97	4.0
96.985	3.0
97.0	1.0
97.015	4.0
97.03	3.0
97.045	5.0
97.06	5.0
97.075	6.0
97.09	2.0
97.105	2.0
97.12	2.0
97.135	4.0
97.15	4.0
97.165	1.0
97.18	2.0
97.195	3.0
97.21	2.0
97.225	3.0
97.239	2.0
97.254	3.0
97.269	3.0
97.284	1.0
97.299	1.0
97.314	6.0
97.329	1.0
97.344	3.0
97.359	4.0
97.374	5.0
97.389	5.0
97.404	2.0
97.419	2.0
97.434	5.0
97.449	5.0
97.464	1.0
97.479	2.0
97.494	2.0
97.509	4.0
97.524	3.0
97.538	4.0
97.553	4.0
97.568	3.0
97.583	2.0
97.598	3.0
97.613	4.0
97.628	1.0
97.643	6.0
97.658	2.0
97.673	2.0
97.688	6.0
97.703	3.0
97.718	3.0
97.733	2.0
97.748	6.0
97.763	5.0
97.778	4.0
97.792	3.0
97.807	4.0
97.822	3.0
97.837	3.0
97.852	5.0
97.867	2.0
97.882	4.0
97.897	2.0
97.912	0.0
97.927	10.0
97.942	4.0
97.957	6.0
97.972	4.0
97.987	7.0
98.001	7.0
98.016	4.0
98.031	2.0
98.046	2.0
98.061	4.0
98.076	3.0
98.091	2.0
98.106	2.0
98.121	3.0
98.136	0.0
98.151	8.0
98.166	7.0
98.181	3.0
98.195	6.0
98.21	2.0
98.225	4.0
98.24	3.0
98.255	2.0
98.27	3.0
98.285	3.0
98.3	0.0
98.315	3.0
98.33	4.0
98.345	3.0
98.359	1.0
98.374	3.0
98.389	2.0
98.404	2.0
98.419	1.0
98.434	3.0
98.449	6.0
98.464	6.0
98.479	4.0
98.494	3.0
98.508	2.0
98.523	2.0
98.538	2.0
98.553	3.0
98.568	4.0
98.583	4.0
98.598	2.0
98.613	5.0
98.628	2.0
98.642	3.0
98.657	3.0
98.672	4.0
98.687	4.0
98.702	1.0
98.717	2.0
98.732	2.0
98.747	2.0
98.762	4.0
98.776	3.0
98.791	3.0
98.806	3.0
98.821	2.0
98.836	2.0
98.851	2.0
98.866	1.0
98.881	7.0
98.896	7.0
98.91	6.0
98.925	5.0
98.94	6.0
98.955	6.0
98.97	3.0
98.985	1.0
99.0	4.0
99.015	2.0
99.029	5.0
99.044	2.0
99.059	5.0
99.074	3.0
99.089	1.0
99.104	3.0
99.119	3.0
99.133	3.0
99.148	3.0
99.163	2.0
99.178	5.0
99.193	3.0
99.208	0.0
99.223	3.0
99.238	3.0
99.252	3.0
99.267	4.0
99.282	0.0
99.297	1.0
99.312	3.0
99.327	5.0
99.342	3.0
99.356	3.0
99.371	6.0
99.386	1.0
99.401	0.0
99.416	1.0
99.431	5.0
99.446	3.0
99.461	5.0
99.475	2.0
99.49	3.0
99.505	3.0
99.52	2.0
99.535	4.0
99.55	2.0
99.565	1.0
99.579	4.0
99.594	6.0
99.609	6.0
99.624	1.0
99.639	2.0
99.654	4.0
99.669	2.0
99.683	1.0
99.698	2.0
99.713	5.0
99.728	3.0
99.743	4.0
99.758	3.0
99.772	1.0
99.787	4.0
99.802	7.0
99.817	5.0
99.832	3.0
99.847	4.0
99.862	5.0
99.876	2.0
99.891	2.0
99.906	2.0
99.921	2.0
99.936	5.0
99.951	3.0
99.966	2.0
99.98	3.0
99.995	2.0
100.01	6.0
100.025	6.0
100.04	2.0
100.055	4.0
100.069	2.0
100.084	1.0
100.099	4.0
100.114	8.0
100.129	1.0
100.144	4.0
100.159	3.0
100.173	2.0
100.188	5.0
100.203	4.0
100.218	4.0
100.233	1.0
100.248	4.0
100.262	2.0
100.277	2.0
100.292	2.0
100.307	1.0
100.322	3.0
100.337	4.0
100.351	3.0
100.366	5.0
100.381	5.0
100.396	6.0
100.411	2.0
100.426	5.0
100.441	9.0
100.455	4.0
100.47	3.0
100.485	6.0
100.5	3.0
100.515	3.0
100.53	2.0
100.544	3.0
100.559	5.0
100.574	1.0
100.589	5.0
100.604	4.0
100.619	0.0
100.633	4.0
100.648	4.0
100.663	1.0
100.678	1.0
100.693	0.0
100.708	3.0
100.722	0.0
100.737	4.0
100.752	2.0
100.767	2.0
100.782	1.0
100.796	3.0
100.811	5.0
100.826	2.0
100.841	3.0
100.856	2.0
100.871	4.0
100.885	1.0
100.9	4.0
100.915	2.0
100.93	1.0
100.945	4.0
100.96	2.0
100.974	2.0
100.989	4.0
101.004	7.0
101.019	3.0
101.034	5.0
101.048	5.0
101.063	6.0
101.078	3.0
101.093	4.0
101.108	6.0
101.123	4.0
101.137	3.0
101.152	5.0
101.167	0.0
101.182	5.0
101.197	2.0
101.211	2.0
101.226	5.0
101.241	3.0
101.256	5.0
101.271	4.0
101.285	0.0
101.3	2.0
101.315	1.0
101.33	2.0
101.345	1.0
101.359	2.0
101.374	3.0
101.389	3.0
101.404	5.0
101.419	7.0
101.433	1.0
101.448	2.0
101.463	2.0
101.478	2.0
101.493	2.0
101.507	2.0
101.522	1.0
101.537	2.0
101.552	1.0
101.567	1.0
101.581	2.0
101.596	3.0
101.611	5.0
101.626	2.0
101.64	1.0
101.655	0.0
101.67	3.0
101.685	1.0
101.7	2.0
101.714	3.0
101.729	3.0
101.744	4.0
101.759	5.0
101.773	3.0
101.788	6.0
101.803	3.0
101.818	1.0
101.833	3.0
101.847	2.0
101.862	0.0
101.877	4.0
101.892	3.0
101.906	1.0
101.921	8.0
101.936	3.0
101.951	3.0
101.965	3.0
101.98	4.0
101.995	2.0
102.01	7.0
102.025	5.0
102.039	2.0
102.054	6.0
102.069	4.0
102.084	4.0
102.098	4.0
102.113	1.0
102.128	5.0
102.143	2.0
102.157	2.0
102.172	4.0
102.187	0.0
102.202	5.0
102.216	3.0
102.231	2.0
102.246	4.0
102.261	1.0
102.275	4.0
102.29	0.0
102.305	4.0
102.32	3.0
102.334	2.0
102.349	2.0
102.364	5.0
102.378	1.0
102.393	3.0
102.408	6.0
102.423	1.0
102.437	6.0
102.452	1.0
102.467	2.0
102.482	4.0
102.496	3.0
102.511	6.0
102.526	5.0
102.541	1.0
102.555	2.0
102.57	1.0
102.585	5.0
102.6	2.0
102.614	5.0
102.629	5.0
102.644	4.0
102.659	3.0
102.673	5.0
102.688	2.0
102.703	5.0
102.717	6.0
102.732	3.0
102.747	5.0
102.762	3.0
102.776	2.0
102.791	1.0
102.806	0.0
102.821	2.0
102.835	5.0
102.85	4.0
102.865	6.0
102.88	1.0
102.894	3.0
102.909	2.0
102.924	2.0
102.938	2.0
102.953	5.0
102.968	4.0
102.983	1.0
102.997	5.0
103.012	4.0
103.027	1.0
103.042	4.0
103.056	4.0
103.071	3.0
103.086	6.0
103.101	3.0
103.115	2.0
103.13	2.0
103.145	3.0
103.16	2.0
103.174	4.0
103.189	1.0
103.204	0.0
103.219	3.0
103.233	4.0
103.248	6.0
103.263	4.0
103.278	6.0
103.292	6.0
103.307	3.0
103.322	7.0
103.337	2.0
103.351	2.0
103.366	3.0
103.381	6.0
103.396	5.0
103.41	7.0
103.425	3.0
103.44	3.0
103.455	1.0
103.469	0.0
103.484	3.0
103.499	3.0
103.514	2.0
103.529	2.0
103.543	3.0
103.558	2.0
103.573	5.0
103.588	3.0
103.602	0.0
103.617	4.0
103.632	2.0
103.647	3.0
103.661	0.0
103.676	4.0
103.691	2.0
103.706	2.0
103.721	3.0
103.735	5.0
103.75	6.0
103.765	4.0
103.78	5.0
103.795	5.0
103.809	0.0
103.824	7.0
103.839	3.0
103.854	2.0
103.869	0.0
103.883	3.0
103.898	1.0
103.913	3.0
103.928	1.0
103.943	3.0
103.957	3.0
103.972	6.0
103.987	3.0
104.002	6.0
104.017	4.0
104.031	1.0
104.046	2.0
104.061	1.0
104.076	3.0
104.091	1.0
104.106	4.0
104.12	4.0
104.135	2.0
104.15	3.0
104.165	4.0
104.18	3.0
104.195	4.0
104.209	2.0
104.224	3.0
104.239	0.0
104.254	1.0
104.269	6.0
104.284	6.0
104.299	3.0
104.313	2.0
104.328	2.0
104.343	5.0
104.358	3.0
104.373	2.0
104.388	4.0
104.403	3.0
104.417	2.0
104.432	4.0
104.447	3.0
104.462	1.0
104.477	2.0
104.492	2.0
104.507	5.0
104.522	5.0
104.536	2.0
104.551	8.0
104.566	5.0
104.581	3.0
104.596	5.0
104.611	1.0
104.626	2.0
104.641	5.0
104.656	1.0
104.67	0.0
104.685	1.0
104.7	4.0
104.715	5.0
104.73	4.0
104.745	2.0
104.76	2.0
104.775	2.0
104.79	1.0
104.804	4.0
104.819	2.0
104.834	2.0
104.849	2.0
104.864	3.0
104.879	1.0
104.894	4.0
104.909	1.0
104.924	5.0
104.939	4.0
104.954	2.0
104.968	3.0
104.983	2.0
104.998	2.0
105.013	1.0
105.028	3.0
105.043	3.0
105.058	3.0
105.073	3.0
105.088	2.0
105.103	3.0
105.118	3.0
105.133	4.0
105.147	3.0
105.162	3.0
105.177	1.0
105.192	3.0
105.207	5.0
105.222	3.0
105.237	1.0
105.252	4.0
105.267	0.0
105.282	0.0
105.297	2.0
105.312	5.0
105.327	3.0
105.342	6.0
105.356	2.0
105.371	0.0
105.386	3.0
105.401	4.0
105.416	1.0
105.431	3.0
105.446	2.0
105.461	0.0
105.476	5.0
105.491	2.0
105.506	4.0
105.521	3.0
105.536	3.0
105.551	5.0
105.566	2.0
105.581	2.0
105.595	6.0
105.61	3.0
105.625	1.0
105.64	4.0
105.655	8.0
105.67	0.0
105.685	0.0
105.7	6.0
105.715	1.0
105.73	1.0
105.745	7.0
105.76	3.0
105.775	2.0
105.79	4.0
105.805	4.0
105.82	4.0
105.835	1.0
105.85	3.0
105.864	4.0
105.879	2.0
105.894	1.0
105.909	4.0
105.924	2.0
105.939	2.0
105.954	2.0
105.969	1.0
105.984	7.0
105.999	4.0
106.014	4.0
106.029	2.0
106.044	6.0
106.059	1.0
106.074	3.0
106.089	4.0
106.104	2.0
106.119	2.0
106.134	2.0
106.148	1.0
106.163	3.0
106.178	1.0
106.193	2.0
106.208	5.0
106.223	2.0
106.238	2.0
106.253	1.0
106.268	3.0
106.283	4.0
106.298	7.0
106.313	4.0
106.328	5.0
106.343	2.0
106.358	0.0
106.373	5.0
106.388	2.0
106.403	5.0
106.418	5.0
106.432	2.0
106.447	6.0
106.462	2.0
106.477	4.0
106.492	7.0
106.507	2.0
106.522	2.0
106.537	3.0
106.552	2.0
106.567	4.0
106.582	4.0
106.597	3.0
106.612	3.0
106.627	1.0
106.642	3.0
106.657	2.0
106.672	1.0
106.687	3.0
106.701	1.0
106.716	5.0
106.731	4.0
106.746	3.0
106.761	4.0
106.776	2.0
106.791	2.0
106.806	3.0
106.821	4.0
106.836	8.0
106.851	3.0
106.866	4.0
106.881	4.0
106.896	6.0
106.911	3.0
106.926	3.0
106.941	4.0
106.955	3.0
106.97	1.0
106.985	1.0
107.0	4.0
107.015	6.0
107.03	0.0
107.045	2.0
107.06	4.0
107.075	2.0
107.09	2.0
107.105	3.0
107.12	6.0
107.135	4.0
107.15	6.0
107.165	4.0
107.18	7.0
107.194	4.0
107.209	5.0
107.224	8.0
107.239	2.0
107.254	4.0
107.269	6.0
107.284	2.0
107.299	8.0
107.314	3.0
107.329	3.0
107.344	2.0
107.359	3.0
107.374	3.0
107.389	4.0
107.404	4.0
107.418	2.0
107.433	4.0
107.448	2.0
107.463	6.0
107.478	4.0
107.493	3.0
107.508	6.0
107.523	4.0
107.538	4.0
107.553	3.0
107.568	4.0
107.583	2.0
107.598	4.0
107.613	0.0
107.627	6.0
107.642	3.0
107.657	0.0
107.672	3.0
107.687	7.0
107.702	1.0
107.717	2.0
107.732	11.0
107.747	3.0
107.762	1.0
107.777	3.0
107.792	7.0
107.807	4.0
107.821	4.0
107.836	3.0
107.851	4.0
107.866	5.0
107.881	1.0
107.896	3.0
107.911	2.0
107.926	2.0
107.941	2.0
107.956	2.0
107.971	2.0
107.986	2.0
108.0	7.0
108.015	8.0
108.03	5.0
108.045	4.0
108.06	3.0
108.075	5.0
108.09	4.0
108.105	5.0
108.12	5.0
108.135	4.0
108.15	6.0
108.164	6.0
108.179	3.0
108.194	7.0
108.209	8.0
108.224	5.0
108.239	2.0
108.254	0.0
108.269	6.0
108.284	2.0
108.299	5.0
108.313	3.0
108.328	1.0
108.343	3.0
108.358	1.0
108.373	2.0
108.388	2.0
108.403	3.0
108.418	1.0
108.433	4.0
108.448	2.0
108.462	3.0
108.477	2.0
108.492	2.0
108.507	1.0
108.522	5.0
108.537	2.0
108.552	3.0
108.567	3.0
108.582	1.0
108.597	2.0
108.611	2.0
108.626	2.0
108.641	2.0
108.656	0.0
108.671	2.0
108.686	1.0
108.701	3.0
108.716	2.0
108.731	5.0
108.745	4.0
108.76	7.0
108.775	5.0
108.79	3.0
108.805	3.0
108.82	3.0
108.835	4.0
108.85	2.0
108.865	2.0
108.879	5.0
108.894	2.0
108.909	7.0
108.924	3.0
108.939	6.0
108.954	3.0
108.969	3.0
108.984	2.0
108.999	6.0
109.013	4.0
109.028	6.0
109.043	8.0
109.058	5.0
109.073	3.0
109.088	2.0
109.103	4.0
109.118	7.0
109.133	3.0
109.147	7.0
109.162	4.0
109.177	9.0
109.192	2.0
109.207	5.0
109.222	4.0
109.237	5.0
109.252	3.0
109.267	2.0
109.281	2.0
109.296	2.0
109.311	6.0
109.326	2.0
109.341	4.0
109.356	1.0
109.371	3.0
109.386	2.0
109.4	2.0
109.415	1.0
109.43	2.0
109.445	2.0
109.46	5.0
109.475	3.0
109.49	4.0
109.505	3.0
109.52	4.0
109.534	5.0
109.549	5.0
109.564	4.0
109.579	3.0
109.594	3.0
109.609	4.0
109.624	4.0
109.639	1.0
109.653	4.0
109.668	2.0
109.683	2.0
109.698	3.0
109.713	5.0
109.728	2.0
109.743	1.0
109.758	6.0
109.773	6.0
109.787	3.0
109.802	6.0
109.817	3.0
109.832	2.0
109.847	3.0
109.862	3.0
109.877	5.0
109.892	4.0
109.907	3.0
109.921	4.0
109.936	3.0
109.951	6.0
109.966	6.0
109.981	4.0
109.996	3.0
110.011	2.0
110.026	3.0
110.04	3.0
110.055	2.0
110.07	5.0
110.085	0.0
110.1	3.0
110.115	3.0
110.13	7.0
110.145	5.0
110.16	2.0
110.174	1.0
110.189	4.0
110.204	2.0
110.219	2.0
110.234	3.0
110.249	3.0
110.264	4.0
110.279	1.0
110.294	2.0
110.308	3.0
110.323	5.0
110.338	3.0
110.353	7.0
110.368	1.0
110.383	3.0
110.398	2.0
110.413	4.0
110.428	2.0
110.442	4.0
110.457	2.0
110.472	2.0
110.487	1.0
110.502	1.0
110.517	1.0
110.532	3.0
110.547	4.0
110.561	3.0
110.576	2.0
110.591	1.0
110.606	4.0
110.621	2.0
110.636	3.0
110.651	3.0
110.666	2.0
110.681	1.0
110.695	2.0
110.71	3.0
110.725	4.0
110.74	9.0
110.755	4.0
110.77	7.0
110.785	2.0
110.8	5.0
110.815	6.0
110.829	5.0
110.844	3.0
110.859	6.0
110.874	8.0
110.889	4.0
110.904	5.0
110.919	3.0
110.934	4.0
110.948	4.0
110.963	2.0
110.978	2.0
110.993	7.0
111.008	1.0
111.023	2.0
111.038	3.0
111.053	4.0
111.067	3.0
111.082	3.0
111.097	2.0
111.112	3.0
111.127	7.0
111.142	5.0
111.157	1.0
111.172	4.0
111.186	4.0
111.201	2.0
111.216	2.0
111.231	2.0
111.246	6.0
111.261	5.0
111.276	6.0
111.291	3.0
111.305	3.0
111.32	2.0
111.335	3.0
111.35	3.0
111.365	5.0
111.38	4.0
111.395	2.0
111.41	0.0
111.424	2.0
111.439	1.0
111.454	2.0
111.469	3.0
111.484	5.0
111.499	5.0
111.514	3.0
111.528	4.0
111.543	6.0
111.558	2.0
111.573	5.0
111.588	4.0
111.603	6.0
111.618	6.0
111.633	1.0
111.647	4.0
111.662	4.0
111.677	5.0
111.692	4.0
111.707	3.0
111.722	5.0
111.737	6.0
111.751	3.0
111.766	8.0
111.781	4.0
111.796	4.0
111.811	3.0
111.826	1.0
111.84	4.0
111.855	9.0
111.87	3.0
111.885	5.0
111.9	3.0
111.915	4.0
111.93	4.0
111.944	2.0
111.959	1.0
111.974	2.0
111.989	6.0
112.004	4.0
112.019	4.0
112.033	5.0
112.048	3.0
112.063	3.0
112.078	4.0
112.093	4.0
112.108	3.0
112.123	1.0
112.137	3.0
112.152	2.0
112.167	3.0
112.182	4.0
112.197	5.0
112.212	6.0
112.226	3.0
112.241	0.0
112.256	1.0
112.271	5.0
112.286	6.0
112.301	5.0
112.315	7.0
112.33	6.0
112.345	6.0
112.36	2.0
112.375	4.0
112.389	1.0
112.404	8.0
112.419	3.0
112.434	4.0
112.449	1.0
112.464	1.0
112.478	4.0
112.493	3.0
112.508	3.0
112.523	3.0
112.538	4.0
112.553	2.0
112.567	0.0
112.582	3.0
112.597	1.0
112.612	9.0
112.627	4.0
112.642	3.0
112.656	4.0
112.671	3.0
112.686	5.0
112.701	4.0
112.716	3.0
112.73	6.0
112.745	4.0
112.76	3.0
112.775	0.0
112.79	4.0
112.805	4.0
112.819	1.0
112.834	5.0
112.849	8.0
112.864	1.0
112.879	1.0
112.894	4.0
112.908	1.0
112.923	3.0
112.938	6.0
112.953	3.0
112.968	2.0
112.983	3.0
112.997	0.0
113.012	1.0
113.027	3.0
113.042	4.0
113.057	3.0
113.072	4.0
113.086	1.0
113.101	2.0
113.116	5.0
113.131	5.0
113.146	3.0
113.161	2.0
113.175	3.0
113.19	2.0
113.205	2.0
113.22	7.0
113.235	3.0
113.25	1.0
113.265	4.0
113.279	8.0
113.294	4.0
113.309	5.0
113.324	7.0
113.339	4.0
113.354	3.0
113.368	4.0
113.383	4.0
113.398	3.0
113.413	4.0
113.428	2.0
113.443	2.0
113.458	1.0
113.472	3.0
113.487	6.0
113.502	7.0
113.517	3.0
113.532	6.0
113.547	1.0
113.562	7.0
113.576	1.0
113.591	6.0
113.606	6.0
113.621	8.0
113.636	6.0
113.651	2.0
113.666	4.0
113.681	3.0
113.695	3.0
113.71	2.0
113.725	5.0
113.74	4.0
113.755	8.0
113.77	3.0
113.785	4.0
113.8	6.0
113.814	2.0
113.829	2.0
113.844	1.0
113.859	0.0
113.874	0.0
113.889	4.0
113.904	7.0
113.919	6.0
113.934	6.0
113.949	1.0
113.963	1.0
113.978	2.0
113.993	2.0
114.008	4.0
114.023	3.0
114.038	5.0
114.053	2.0
114.068	3.0
114.083	2.0
114.098	2.0
114.113	3.0
114.127	6.0
114.142	1.0
114.157	3.0
114.172	6.0
114.187	4.0
114.202	4.0
114.217	3.0
114.232	6.0
114.247	4.0
114.262	5.0
114.277	1.0
114.292	6.0
114.307	4.0
114.322	2.0
114.337	6.0
114.351	5.0
114.366	2.0
114.381	3.0
114.396	8.0
114.411	5.0
114.426	5.0
114.441	1.0
114.456	2.0
114.471	5.0
114.486	4.0
114.501	2.0
114.516	7.0
114.531	6.0
114.546	8.0
114.561	4.0
114.576	4.0
114.591	2.0
114.606	1.0
114.621	5.0
114.636	5.0
114.65	0.0
114.665	3.0
114.68	3.0
114.695	3.0
114.71	7.0
114.725	4.0
114.74	8.0
114.755	4.0
114.77	7.0
114.785	3.0
114.8	2.0
114.815	2.0
114.83	3.0
114.845	2.0
114.86	2.0
114.875	4.0
114.89	2.0
114.905	2.0
114.92	2.0
114.935	4.0
114.95	6.0
114.965	2.0
114.98	4.0
114.995	2.0
115.009	4.0
115.024	7.0
115.039	2.0
115.054	6.0
115.069	1.0
115.084	3.0
115.099	4.0
115.114	5.0
115.129	3.0
115.144	5.0
115.159	4.0
115.174	3.0
115.189	5.0
115.204	5.0
115.219	7.0
115.234	3.0
115.249	7.0
115.264	7.0
115.279	3.0
115.294	5.0
115.309	8.0
115.323	2.0
115.338	3.0
115.353	4.0
115.368	5.0
115.383	5.0
115.398	9.0
115.413	5.0
115.428	3.0
115.443	2.0
115.458	5.0
115.473	4.0
115.488	1.0
115.503	4.0
115.518	2.0
115.533	5.0
115.548	3.0
115.562	2.0
115.577	6.0
115.592	8.0
115.607	4.0
115.622	3.0
115.637	6.0
115.652	4.0
115.667	4.0
115.682	3.0
115.697	0.0
115.712	2.0
115.727	3.0
115.741	4.0
115.756	6.0
115.771	4.0
115.786	5.0
115.801	6.0
115.816	5.0
115.831	2.0
115.846	3.0
115.861	2.0
115.875	6.0
115.89	2.0
115.905	5.0
115.92	5.0
115.935	5.0
115.95	7.0
115.965	4.0
115.98	1.0
115.995	2.0
116.009	8.0
116.024	3.0
116.039	2.0
116.054	3.0
116.069	5.0
116.084	3.0
116.099	5.0
116.113	5.0
116.128	4.0
116.143	2.0
116.158	7.0
116.173	8.0
116.188	5.0
116.202	3.0
116.217	6.0
116.232	5.0
116.247	2.0
116.262	5.0
116.277	3.0
116.291	2.0
116.306	3.0
116.321	3.0
116.336	3.0
116.351	4.0
116.366	2.0
116.38	5.0
116.395	8.0
116.41	3.0
116.425	4.0
116.44	5.0
116.454	2.0
116.469	4.0
116.484	3.0
116.499	2.0
116.514	3.0
116.528	3.0
116.543	4.0
116.558	8.0
116.573	4.0
116.588	0.0
116.602	7.0
116.617	4.0
116.632	3.0
116.647	4.0
116.662	4.0
116.676	2.0
116.691	4.0
116.706	0.0
116.721	5.0
116.735	5.0
116.75	7.0
116.765	6.0
116.78	3.0
116.795	1.0
116.809	3.0
116.824	4.0
116.839	4.0
116.854	3.0
116.868	2.0
116.883	3.0
116.898	4.0
116.913	7.0
116.927	6.0
116.942	1.0
116.957	2.0
116.972	3.0
116.986	3.0
117.001	7.0
117.016	3.0
117.031	3.0
117.045	4.0
117.06	8.0
117.075	6.0
117.09	0.0
117.104	8.0
117.119	5.0
117.134	3.0
117.149	2.0
117.163	6.0
117.178	5.0
117.193	5.0
117.208	2.0
117.222	1.0
117.237	2.0
117.252	4.0
117.267	4.0
117.281	4.0
117.296	4.0
117.311	5.0
117.325	3.0
117.34	8.0
117.355	5.0
117.37	7.0
117.384	3.0
117.399	1.0
117.414	7.0
117.429	5.0
117.443	2.0
117.458	4.0
117.473	1.0
117.487	5.0
117.502	3.0
117.517	1.0
117.532	7.0
117.546	4.0
117.561	4.0
117.576	3.0
117.59	4.0
117.605	2.0
117.62	4.0
117.635	4.0
117.649	5.0
117.664	3.0
117.679	3.0
117.693	2.0
117.708	6.0
117.723	4.0
117.738	4.0
117.752	2.0
117.767	5.0
117.782	3.0
117.796	3.0
117.811	6.0
117.826	4.0
117.841	1.0
117.855	3.0
117.87	4.0
117.885	5.0
117.899	3.0
117.914	2.0
117.929	5.0
117.944	1.0
117.958	1.0
117.973	2.0
117.988	2.0
118.002	5.0
118.017	1.0
118.032	2.0
118.047	7.0
118.062	5.0
118.077	5.0
118.092	2.0
118.107	7.0
118.121	5.0
118.136	3.0
118.151	4.0
118.166	3.0
118.181	2.0
118.196	4.0
118.211	3.0
118.225	3.0
118.24	7.0
118.255	0.0
118.27	2.0
118.285	3.0
118.3	1.0
118.315	4.0
118.33	5.0
118.344	6.0
118.359	6.0
118.374	4.0
118.389	4.0
118.404	3.0
118.419	5.0
118.434	1.0
118.449	5.0
118.463	8.0
118.478	3.0
118.493	3.0
118.508	2.0
118.523	4.0
118.538	4.0
118.553	1.0
118.567	3.0
118.582	1.0
118.597	2.0
118.612	4.0
118.627	4.0
118.642	5.0
118.657	6.0
118.672	2.0
118.686	3.0
118.701	3.0
118.716	1.0
118.731	5.0
118.746	2.0
118.761	3.0
118.776	5.0
118.791	6.0
118.805	3.0
118.82	3.0
118.835	0.0
118.85	0.0
118.865	2.0
118.88	3.0
118.895	3.0
118.909	4.0
118.924	3.0
118.939	4.0
118.954	1.0
118.969	4.0
118.984	2.0
118.999	3.0
119.014	5.0
119.028	4.0
119.043	1.0
119.058	2.0
119.073	1.0
119.088	5.0
119.103	1.0
119.118	4.0
119.133	6.0
119.147	4.0
119.162	3.0
119.177	5.0
119.192	3.0
119.207	5.0
119.222	8.0
119.237	2.0
119.251	4.0
119.266	2.0
119.281	6.0
119.296	4.0
119.311	1.0
119.326	4.0
119.341	3.0
119.356	1.0
119.37	1.0
119.385	0.0
119.4	3.0
119.415	4.0
119.43	3.0
119.445	1.0
119.46	5.0
119.475	4.0
119.489	4.0
119.504	1.0
119.519	3.0
119.534	6.0
119.549	2.0
119.564	5.0
119.579	3.0
119.593	1.0
119.608	2.0
119.623	7.0
119.638	2.0
119.653	3.0
119.668	1.0
119.683	2.0
119.698	2.0
119.712	5.0
119.727	2.0
119.742	2.0
119.757	1.0
119.772	2.0
119.787	6.0
119.802	4.0
119.817	5.0
119.831	4.0
119.846	1.0
119.861	8.0
119.876	3.0
119.891	4.0
119.906	5.0
119.921	4.0
119.935	5.0
119.95	1.0
119.965	1.0
119.98	5.0
119.995	5.0
120.01	3.0
120.025	2.0
120.04	3.0
120.054	2.0
120.069	3.0
120.084	6.0
120.099	3.0
120.114	6.0
120.129	1.0
120.144	2.0
120.159	2.0
120.173	1.0
120.188	5.0
120.203	1.0
120.218	3.0
120.233	2.0
120.248	1.0
120.263	2.0
120.277	0.0
120.292	0.0
120.307	1.0
120.322	0.0
120.337	0.0
120.352	0.0
120.367	0.0
120.382	0.0
120.396	0.0
120.411	0.0
120.426	0.0
120.441	0.0
120.456	0.0
120.471	0.0
120.486	0.0
120.501	1.0
120.515	0.0
120.53	0.0
120.545	1.0
120.56	0.0
120.575	0.0
120.59	0.0
120.605	0.0
120.619	0.0
120.634	0.0
120.649	0.0
120.664	0.0
120.679	0.0
120.694	0.0
120.709	1.0
120.724	0.0
120.738	1.0
120.753	0.0
120.768	0.0
120.783	0.0
120.798	0.0
120.813	0.0
120.828	0.0
120.843	0.0
120.857	0.0
120.872	0.0
120.887	1.0
120.902	0.0
120.917	0.0
120.932	0.0
120.947	0.0
120.961	0.0
120.976	0.0
