-1.217	0.0
-1.202	0.0
-1.187	0.0
-1.172	0.0
-1.157	0.0
-1.142	0.0
-1.128	0.0
-1.113	0.0
-1.098	0.0
-1.083	0.0
-1.068	0.0
-1.054	0.0
-1.039	0.0
-1.024	0.0
-1.009	0.0
-0.994	0.0
-0.979	0.0
-0.965	0.0
-0.95	0.0
-0.935	0.0
-0.92	0.0
-0.905	0.0
-0.891	0.0
-0.876	0.0
-0.861	0.0
-0.846	0.0
-0.831	0.0
-0.816	0.0
-0.802	0.0
-0.787	0.0
-0.772	0.0
-0.757	0.0
-0.742	0.0
-0.728	0.0
-0.713	0.0
-0.698	0.0
-0.683	0.0
-0.668	0.0
-0.653	0.0
-0.639	0.0
-0.624	0.0
-0.609	0.0
-0.594	0.0
-0.579	0.0
-0.565	0.0
-0.55	0.0
-0.535	0.0
-0.52	0.0
-0.505	0.0
-0.49	0.0
-0.476	0.0
-0.461	0.0
-0.446	0.0
-0.431	0.0
-0.416	0.0
-0.401	0.0
-0.387	0.0
-0.372	0.0
-0.357	0.0
-0.342	0.0
-0.327	0.0
-0.313	0.0
-0.298	0.0
-0.283	1.0
-0.268	0.0
-0.253	0.0
-0.238	0.0
-0.224	0.0
-0.209	0.0
-0.194	0.0
-0.179	0.0
-0.164	0.0
-0.15	0.0
-0.135	0.0
-0.12	0.0
-0.105	0.0
-0.09	0.0
-0.075	0.0
-0.061	0.0
-0.046	0.0
-0.031	0.0
-0.016	0.0
-0.001	0.0
0.013	0.0
0.028	0.0
0.043	0.0
0.058	1.0
0.073	0.0
0.088	0.0
0.102	0.0
0.117	0.0
0.132	0.0
0.147	0.0
0.162	0.0
0.176	0.0
0.191	0.0
0.206	0.0
0.221	0.0
0.236	0.0
0.251	0.0
0.265	0.0
0.28	0.0
0.295	0.0
0.31	1.0
0.325	0.0
0.339	0.0
0.354	0.0
0.369	0.0
0.384	0.0
0.399	0.0
0.414	0.0
0.428	0.0
0.443	0.0
0.458	0.0
0.473	0.0
0.488	0.0
0.502	0.0
0.517	0.0
0.532	0.0
0.547	0.0
0.562	0.0
0.577	0.0
0.591	0.0
0.606	0.0
0.621	0.0
0.636	0.0
0.651	0.0
0.665	0.0
0.68	0.0
0.695	0.0
0.71	0.0
0.725	0.0
0.74	0.0
0.754	0.0
0.769	0.0
0.784	1.0
0.799	0.0
0.814	0.0
0.828	0.0
0.843	0.0
0.858	0.0
0.873	0.0
0.888	0.0
0.903	0.0
0.917	0.0
0.932	0.0
0.947	0.0
0.962	0.0
0.977	0.0
0.991	0.0
1.006	0.0
1.021	0.0
1.036	0.0
1.051	0.0
1.065	0.0
1.08	0.0
1.095	1.0
1.11	0.0
1.125	0.0
1.14	0.0
1.154	0.0
1.169	0.0
1.184	0.0
1.199	0.0
1.214	0.0
1.228	0.0
1.243	0.0
1.258	0.0
1.273	0.0
1.288	0.0
1.302	0.0
1.317	1.0
1.332	0.0
1.347	0.0
1.362	1.0
1.376	0.0
1.391	0.0
1.406	0.0
1.421	0.0
1.436	0.0
1.45	0.0
1.465	0.0
1.48	0.0
1.495	0.0
1.51	0.0
1.524	0.0
1.539	0.0
1.554	0.0
1.569	0.0
1.584	0.0
1.598	0.0
1.613	0.0
1.628	0.0
1.643	0.0
1.658	0.0
1.672	0.0
1.687	0.0
1.702	0.0
1.717	0.0
1.732	0.0
1.746	0.0
1.761	0.0
1.776	2.0
1.791	0.0
1.806	1.0
1.82	0.0
1.835	0.0
1.85	0.0
1.865	0.0
1.88	0.0
1.894	0.0
1.909	0.0
1.924	0.0
1.939	0.0
1.954	0.0
1.968	0.0
1.983	1.0
1.998	0.0
2.013	0.0
2.028	0.0
2.042	0.0
2.057	0.0
2.072	0.0
2.087	1.0
2.101	0.0
2.116	0.0
2.131	0.0
2.146	0.0
2.161	0.0
2.175	1.0
2.19	0.0
2.205	0.0
2.22	0.0
2.235	0.0
2.249	0.0
2.264	1.0
2.279	2.0
2.294	0.0
2.308	0.0
2.323	0.0
2.338	0.0
2.353	1.0
2.368	0.0
2.382	3.0
2.397	2.0
2.412	2.0
2.427	2.0
2.442	0.0
2.456	2.0
2.471	1.0
2.486	3.0
2.501	1.0
2.515	2.0
2.53	1.0
2.545	2.0
2.56	1.0
2.575	2.0
2.589	1.0
2.604	3.0
2.619	1.0
2.634	0.0
2.649	3.0
2.663	6.0
2.678	3.0
2.693	7.0
2.708	2.0
2.722	2.0
2.737	4.0
2.752	1.0
2.767	2.0
2.782	4.0
2.796	5.0
2.811	6.0
2.826	4.0
2.841	2.0
2.856	3.0
2.87	3.0
2.885	5.0
2.9	2.0
2.915	4.0
2.93	5.0
2.944	1.0
2.959	3.0
2.974	2.0
2.989	3.0
3.004	6.0
3.018	2.0
3.033	4.0
3.048	3.0
3.063	8.0
3.078	6.0
3.092	2.0
3.107	3.0
3.122	4.0
3.137	2.0
3.152	5.0
3.166	5.0
3.181	8.0
3.196	7.0
3.211	1.0
3.226	3.0
3.24	8.0
3.255	5.0
3.27	4.0
3.285	3.0
3.3	5.0
3.315	4.0
3.329	4.0
3.344	9.0
3.359	1.0
3.374	3.0
3.389	5.0
3.403	4.0
3.418	3.0
3.433	4.0
3.448	5.0
3.463	6.0
3.478	5.0
3.492	3.0
3.507	4.0
3.522	3.0
3.537	8.0
3.552	3.0
3.567	3.0
3.581	2.0
3.596	6.0
3.611	6.0
3.626	1.0
3.641	4.0
3.656	4.0
3.671	10.0
3.685	2.0
3.7	6.0
3.715	4.0
3.73	4.0
3.745	6.0
3.76	8.0
3.775	8.0
3.789	4.0
3.804	5.0
3.819	7.0
3.834	5.0
3.849	2.0
3.864	12.0
3.879	4.0
3.894	5.0
3.908	7.0
3.923	5.0
3.938	4.0
3.953	8.0
3.968	10.0
3.983	4.0
3.998	10.0
4.013	11.0
4.027	10.0
4.042	9.0
4.057	8.0
4.072	7.0
4.087	7.0
4.102	6.0
4.117	4.0
4.132	8.0
4.147	2.0
4.162	5.0
4.176	7.0
4.191	13.0
4.206	7.0
4.221	6.0
4.236	3.0
4.251	13.0
4.266	2.0
4.281	4.0
4.296	8.0
4.311	4.0
4.326	3.0
4.341	9.0
4.356	4.0
4.37	7.0
4.385	3.0
4.4	4.0
4.415	10.0
4.43	6.0
4.445	6.0
4.46	7.0
4.475	8.0
4.49	7.0
4.505	6.0
4.52	7.0
4.535	9.0
4.55	3.0
4.565	12.0
4.58	6.0
4.595	5.0
4.61	8.0
4.625	6.0
4.639	8.0
4.654	4.0
4.669	10.0
4.684	10.0
4.699	11.0
4.714	8.0
4.729	6.0
4.744	10.0
4.759	12.0
4.774	10.0
4.789	6.0
4.804	6.0
4.819	8.0
4.834	4.0
4.849	5.0
4.864	8.0
4.879	5.0
4.894	6.0
4.909	11.0
4.924	9.0
4.939	11.0
4.954	14.0
4.969	9.0
4.984	2.0
4.999	10.0
5.014	6.0
5.029	7.0
5.044	11.0
5.059	8.0
5.074	8.0
5.089	4.0
5.104	5.0
5.119	8.0
5.134	12.0
5.149	5.0
5.164	7.0
5.179	7.0
5.194	7.0
5.209	10.0
5.224	8.0
5.239	7.0
5.254	5.0
5.269	11.0
5.284	7.0
5.299	11.0
5.314	9.0
5.329	7.0
5.344	4.0
5.359	13.0
5.374	11.0
5.389	2.0
5.404	7.0
5.419	6.0
5.434	11.0
5.449	7.0
5.464	8.0
5.479	6.0
5.494	4.0
5.509	6.0
5.524	5.0
5.539	6.0
5.554	7.0
5.569	5.0
5.584	9.0
5.599	8.0
5.614	11.0
5.629	11.0
5.644	9.0
5.659	10.0
5.674	6.0
5.689	3.0
5.704	10.0
5.719	8.0
5.734	12.0
5.749	7.0
5.764	13.0
5.779	7.0
5.794	8.0
5.809	8.0
5.824	8.0
5.839	7.0
5.854	4.0
5.869	11.0
5.884	10.0
5.899	6.0
5.914	8.0
5.929	10.0
5.944	10.0
5.959	14.0
5.974	8.0
5.989	7.0
6.004	3.0
6.019	7.0
6.034	10.0
6.049	7.0
6.064	4.0
6.079	10.0
6.094	11.0
6.109	10.0
6.124	10.0
6.139	9.0
6.154	5.0
6.169	8.0
6.184	12.0
6.199	4.0
6.214	11.0
6.229	8.0
6.244	7.0
6.259	18.0
6.274	11.0
6.289	6.0
6.304	15.0
6.319	8.0
6.334	8.0
6.349	6.0
6.364	11.0
6.379	11.0
6.394	5.0
6.409	8.0
6.424	8.0
6.439	8.0
6.454	6.0
6.469	15.0
6.484	15.0
6.499	10.0
6.514	8.0
6.529	7.0
6.544	6.0
6.559	9.0
6.574	9.0
6.589	12.0
6.604	11.0
6.619	8.0
6.634	3.0
6.649	9.0
6.664	5.0
6.679	9.0
6.694	11.0
6.709	7.0
6.724	7.0
6.739	6.0
6.754	12.0
6.769	8.0
6.784	11.0
6.799	10.0
6.814	12.0
6.829	6.0
6.844	5.0
6.859	10.0
6.873	8.0
6.888	8.0
6.903	10.0
6.918	11.0
6.933	4.0
6.948	13.0
6.963	9.0
6.978	9.0
6.993	7.0
7.008	8.0
7.023	12.0
7.038	10.0
7.053	11.0
7.068	12.0
7.083	10.0
7.098	10.0
7.113	8.0
7.128	6.0
7.143	9.0
7.157	12.0
7.172	12.0
7.187	9.0
7.202	10.0
7.217	12.0
7.232	5.0
7.247	5.0
7.262	9.0
7.277	4.0
7.292	9.0
7.307	9.0
7.322	7.0
7.336	12.0
7.351	10.0
7.366	10.0
7.381	10.0
7.396	8.0
7.411	8.0
7.426	11.0
7.441	8.0
7.456	7.0
7.471	7.0
7.485	4.0
7.5	10.0
7.515	4.0
7.53	6.0
7.545	14.0
7.56	9.0
7.575	6.0
7.59	7.0
7.604	15.0
7.619	11.0
7.634	11.0
7.649	10.0
7.664	10.0
7.679	5.0
7.693	6.0
7.708	10.0
7.723	8.0
7.738	15.0
7.753	9.0
7.768	11.0
7.783	11.0
7.797	5.0
7.812	10.0
7.827	10.0
7.842	6.0
7.857	7.0
7.871	16.0
7.886	7.0
7.901	7.0
7.916	10.0
7.931	8.0
7.945	5.0
7.96	14.0
7.975	4.0
7.99	8.0
8.005	11.0
8.019	9.0
8.034	9.0
8.049	5.0
8.064	4.0
8.078	8.0
8.093	11.0
8.108	3.0
8.123	12.0
8.137	8.0
8.152	9.0
8.167	8.0
8.182	6.0
8.196	12.0
8.211	5.0
8.226	8.0
8.241	14.0
8.255	9.0
8.27	11.0
8.285	9.0
8.3	13.0
8.314	11.0
8.329	15.0
8.344	11.0
8.358	13.0
8.373	9.0
8.388	9.0
8.403	9.0
8.417	12.0
8.432	10.0
8.447	9.0
8.461	8.0
8.476	5.0
8.491	11.0
8.505	7.0
8.52	12.0
8.535	5.0
8.55	8.0
8.564	9.0
8.579	3.0
8.594	7.0
8.608	10.0
8.623	10.0
8.638	2.0
8.652	9.0
8.667	7.0
8.682	8.0
8.696	10.0
8.711	11.0
8.726	8.0
8.74	8.0
8.755	13.0
8.77	12.0
8.784	5.0
8.799	12.0
8.814	11.0
8.828	3.0
8.843	5.0
8.858	8.0
8.872	11.0
8.887	3.0
8.902	5.0
8.916	8.0
8.931	7.0
8.946	8.0
8.96	7.0
8.975	11.0
8.99	9.0
9.004	7.0
9.019	5.0
9.034	4.0
9.048	15.0
9.063	11.0
9.077	8.0
9.092	3.0
9.107	8.0
9.121	12.0
9.136	11.0
9.151	5.0
9.165	5.0
9.18	8.0
9.195	8.0
9.209	9.0
9.224	8.0
9.239	13.0
9.253	4.0
9.268	7.0
9.283	15.0
9.297	7.0
9.312	8.0
9.327	14.0
9.341	8.0
9.356	13.0
9.371	7.0
9.385	8.0
9.4	13.0
9.415	10.0
9.429	10.0
9.444	9.0
9.458	5.0
9.473	10.0
9.488	6.0
9.502	8.0
9.517	8.0
9.532	9.0
9.546	9.0
9.561	8.0
9.576	15.0
9.59	7.0
9.605	5.0
9.62	11.0
9.635	9.0
9.649	14.0
9.664	11.0
9.679	7.0
9.693	7.0
9.708	12.0
9.723	3.0
9.737	7.0
9.752	6.0
9.767	6.0
9.781	7.0
9.796	4.0
9.811	8.0
9.825	8.0
9.84	8.0
9.855	6.0
9.87	9.0
9.884	13.0
9.899	8.0
9.914	4.0
9.928	7.0
9.943	14.0
9.958	7.0
9.973	9.0
9.987	6.0
10.002	5.0
10.017	3.0
10.031	8.0
10.046	8.0
10.061	4.0
10.076	11.0
10.09	1.0
10.105	7.0
10.12	11.0
10.135	4.0
10.149	4.0
10.164	5.0
10.179	10.0
10.194	7.0
10.208	7.0
10.223	15.0
10.238	9.0
10.253	9.0
10.267	5.0
10.282	8.0
10.297	12.0
10.312	11.0
10.326	15.0
10.341	5.0
10.356	9.0
10.371	10.0
10.386	7.0
10.4	11.0
10.415	14.0
10.43	5.0
10.445	6.0
10.46	6.0
10.474	9.0
10.489	11.0
10.504	8.0
10.519	8.0
10.533	5.0
10.548	6.0
10.563	4.0
10.578	12.0
10.593	11.0
10.608	7.0
10.622	12.0
10.637	6.0
10.652	7.0
10.667	9.0
10.682	4.0
10.696	6.0
10.711	5.0
10.726	11.0
10.741	8.0
10.756	8.0
10.771	9.0
10.785	7.0
10.8	6.0
10.815	7.0
10.83	10.0
10.845	10.0
10.86	4.0
10.874	14.0
10.889	9.0
10.904	6.0
10.919	12.0
10.934	8.0
10.949	7.0
10.963	3.0
10.978	6.0
10.993	12.0
11.008	6.0
11.023	8.0
11.038	11.0
11.053	9.0
11.067	6.0
11.082	3.0
11.097	9.0
11.112	5.0
11.127	8.0
11.142	6.0
11.157	8.0
11.172	8.0
11.186	9.0
11.201	9.0
11.216	10.0
11.231	10.0
11.246	9.0
11.261	6.0
11.276	11.0
11.291	13.0
11.305	12.0
11.32	11.0
11.335	7.0
11.35	6.0
11.365	11.0
11.38	11.0
11.395	8.0
11.41	6.0
11.424	9.0
11.439	9.0
11.454	9.0
11.469	9.0
11.484	5.0
11.499	7.0
11.514	8.0
11.529	9.0
11.544	6.0
11.558	8.0
11.573	5.0
11.588	14.0
11.603	5.0
11.618	9.0
11.633	6.0
11.648	13.0
11.663	10.0
11.678	7.0
11.693	8.0
11.707	9.0
11.722	4.0
11.737	6.0
11.752	8.0
11.767	10.0
11.782	10.0
11.797	2.0
11.812	11.0
11.827	17.0
11.842	10.0
11.856	8.0
11.871	5.0
11.886	11.0
11.901	5.0
11.916	12.0
11.931	9.0
11.946	7.0
11.961	4.0
11.976	8.0
11.991	6.0
12.006	5.0
12.02	17.0
12.035	9.0
12.05	10.0
12.065	8.0
12.08	9.0
12.095	8.0
12.11	11.0
12.125	11.0
12.14	18.0
12.155	20.0
12.17	9.0
12.184	6.0
12.199	13.0
12.214	7.0
12.229	16.0
12.244	12.0
12.259	14.0
12.274	9.0
12.289	8.0
12.304	9.0
12.319	6.0
12.334	6.0
12.348	8.0
12.363	9.0
12.378	13.0
12.393	10.0
12.408	14.0
12.423	22.0
12.438	8.0
12.453	13.0
12.468	11.0
12.483	13.0
12.498	8.0
12.513	11.0
12.527	11.0
12.542	15.0
12.557	10.0
12.572	14.0
12.587	9.0
12.602	14.0
12.617	13.0
12.632	11.0
12.647	11.0
12.662	12.0
12.677	5.0
12.692	14.0
12.707	16.0
12.721	12.0
12.736	6.0
12.751	11.0
12.766	12.0
12.781	14.0
12.796	17.0
12.811	15.0
12.826	9.0
12.841	20.0
12.856	22.0
12.871	16.0
12.886	12.0
12.9	5.0
12.915	12.0
12.93	23.0
12.945	19.0
12.96	15.0
12.975	12.0
12.99	16.0
13.005	17.0
13.02	11.0
13.035	14.0
13.05	9.0
13.065	17.0
13.08	14.0
13.094	18.0
13.109	20.0
13.124	12.0
13.139	22.0
13.154	20.0
13.169	16.0
13.184	15.0
13.199	15.0
13.214	14.0
13.229	20.0
13.244	18.0
13.259	22.0
13.274	18.0
13.288	16.0
13.303	20.0
13.318	24.0
13.333	20.0
13.348	23.0
13.363	18.0
13.378	24.0
13.393	34.0
13.408	24.0
13.423	32.0
13.438	26.0
13.453	28.0
13.468	31.0
13.482	38.0
13.497	47.0
13.512	46.0
13.527	47.0
13.542	36.0
13.557	40.0
13.572	55.0
13.587	56.0
13.602	64.0
13.617	58.0
13.632	69.0
13.647	65.0
13.662	62.0
13.677	73.0
13.691	92.0
13.706	84.0
13.721	110.0
13.736	107.0
13.751	101.0
13.766	98.0
13.781	115.0
13.796	109.0
13.811	110.0
13.826	114.0
13.841	126.0
13.856	127.0
13.871	121.0
13.885	105.0
13.9	83.0
13.915	82.0
13.93	65.0
13.945	66.0
13.96	52.0
13.975	39.0
13.99	39.0
14.005	34.0
14.02	27.0
14.035	28.0
14.05	32.0
14.065	26.0
14.08	26.0
14.094	30.0
14.109	32.0
14.124	34.0
14.139	19.0
14.154	26.0
14.169	16.0
14.184	21.0
14.199	23.0
14.214	21.0
14.229	17.0
14.244	29.0
14.259	25.0
14.274	24.0
14.288	24.0
14.303	16.0
14.318	29.0
14.333	25.0
14.348	13.0
14.363	16.0
14.378	20.0
14.393	21.0
14.408	20.0
14.423	17.0
14.438	15.0
14.453	15.0
14.468	20.0
14.482	19.0
14.497	15.0
14.512	21.0
14.527	10.0
14.542	17.0
14.557	16.0
14.572	15.0
14.587	19.0
14.602	12.0
14.617	9.0
14.632	12.0
14.647	16.0
14.661	17.0
14.676	16.0
14.691	19.0
14.706	11.0
14.721	7.0
14.736	20.0
14.751	20.0
14.766	13.0
14.781	16.0
14.796	15.0
14.811	14.0
14.826	23.0
14.84	16.0
14.855	12.0
14.87	17.0
14.885	15.0
14.9	14.0
14.915	12.0
14.93	9.0
14.945	10.0
14.96	11.0
14.975	15.0
14.989	17.0
15.004	18.0
15.019	14.0
15.034	17.0
15.049	9.0
15.064	13.0
15.079	20.0
15.094	9.0
15.109	15.0
15.124	8.0
15.138	26.0
15.153	12.0
15.168	14.0
15.183	7.0
15.198	15.0
15.213	20.0
15.228	15.0
15.243	13.0
15.258	15.0
15.272	19.0
15.287	5.0
15.302	15.0
15.317	16.0
15.332	17.0
15.347	23.0
15.362	14.0
15.377	13.0
15.391	18.0
15.406	15.0
15.421	9.0
15.436	19.0
15.451	20.0
15.466	12.0
15.481	19.0
15.496	10.0
15.51	14.0
15.525	20.0
15.54	13.0
15.555	12.0
15.57	18.0
15.585	11.0
15.6	11.0
15.614	17.0
15.629	17.0
15.644	14.0
15.659	12.0
15.674	11.0
15.689	14.0
15.704	14.0
15.718	13.0
15.733	16.0
15.748	12.0
15.763	12.0
15.778	9.0
15.793	9.0
15.808	20.0
15.822	10.0
15.837	17.0
15.852	15.0
15.867	13.0
15.882	19.0
15.897	12.0
15.911	12.0
15.926	16.0
15.941	13.0
15.956	12.0
15.971	13.0
15.986	17.0
16.0	12.0
16.015	10.0
16.03	9.0
16.045	8.0
16.06	16.0
16.074	8.0
16.089	12.0
16.104	11.0
16.119	15.0
16.134	13.0
16.149	14.0
16.163	14.0
16.178	12.0
16.193	16.0
16.208	13.0
16.223	19.0
16.237	14.0
16.252	10.0
16.267	11.0
16.282	17.0
16.297	17.0
16.311	23.0
16.326	9.0
16.341	20.0
16.356	18.0
16.37	21.0
16.385	14.0
16.4	14.0
16.415	8.0
16.43	11.0
16.444	8.0
16.459	12.0
16.474	7.0
16.489	8.0
16.504	16.0
16.518	10.0
16.533	14.0
16.548	18.0
16.563	15.0
16.577	27.0
16.592	15.0
16.607	11.0
16.622	23.0
16.637	21.0
16.651	21.0
16.666	19.0
16.681	26.0
16.696	25.0
16.71	24.0
16.725	32.0
16.74	22.0
16.755	34.0
16.77	31.0
16.784	30.0
16.799	44.0
16.814	51.0
16.829	33.0
16.843	45.0
16.858	65.0
16.873	61.0
16.888	52.0
16.902	73.0
16.917	69.0
16.932	72.0
16.947	71.0
16.961	81.0
16.976	77.0
16.991	64.0
17.006	63.0
17.021	64.0
17.035	48.0
17.05	47.0
17.065	46.0
17.08	50.0
17.094	39.0
17.109	39.0
17.124	29.0
17.139	18.0
17.153	27.0
17.168	22.0
17.183	27.0
17.198	24.0
17.212	25.0
17.227	13.0
17.242	14.0
17.257	19.0
17.271	18.0
17.286	16.0
17.301	11.0
17.316	10.0
17.33	14.0
17.345	18.0
17.36	16.0
17.375	13.0
17.39	5.0
17.404	12.0
17.419	16.0
17.434	14.0
17.449	19.0
17.463	19.0
17.478	12.0
17.493	20.0
17.508	11.0
17.522	13.0
17.537	14.0
17.552	14.0
17.567	15.0
17.581	12.0
17.596	19.0
17.611	8.0
17.626	13.0
17.641	13.0
17.655	13.0
17.67	13.0
17.685	8.0
17.7	7.0
17.714	11.0
17.729	13.0
17.744	16.0
17.759	12.0
17.773	13.0
17.788	12.0
17.803	11.0
17.818	9.0
17.833	11.0
17.847	16.0
17.862	13.0
17.877	10.0
17.892	17.0
17.906	9.0
17.921	15.0
17.936	13.0
17.951	17.0
17.966	9.0
17.98	18.0
17.995	19.0
18.01	3.0
18.025	11.0
18.04	11.0
18.054	11.0
18.069	13.0
18.084	21.0
18.099	10.0
18.114	11.0
18.128	19.0
18.143	22.0
18.158	9.0
18.173	8.0
18.188	10.0
18.202	6.0
18.217	13.0
18.232	13.0
18.247	9.0
18.262	20.0
18.276	10.0
18.291	17.0
18.306	11.0
18.321	13.0
18.336	5.0
18.35	16.0
18.365	10.0
18.38	16.0
18.395	15.0
18.41	14.0
18.424	8.0
18.439	12.0
18.454	9.0
18.469	15.0
18.484	10.0
18.498	17.0
18.513	18.0
18.528	13.0
18.543	6.0
18.558	14.0
18.573	8.0
18.587	9.0
18.602	7.0
18.617	16.0
18.632	12.0
18.647	12.0
18.661	16.0
18.676	10.0
18.691	6.0
18.706	8.0
18.721	9.0
18.736	9.0
18.75	10.0
18.765	19.0
18.78	12.0
18.795	10.0
18.81	11.0
18.825	12.0
18.839	14.0
18.854	12.0
18.869	9.0
18.884	16.0
18.899	10.0
18.913	12.0
18.928	6.0
18.943	10.0
18.958	10.0
18.973	21.0
18.988	13.0
19.002	16.0
19.017	11.0
19.032	10.0
19.047	18.0
19.062	6.0
19.077	10.0
19.091	12.0
19.106	8.0
19.121	18.0
19.136	11.0
19.151	14.0
19.165	10.0
19.18	18.0
19.195	13.0
19.21	13.0
19.225	13.0
19.24	12.0
19.254	12.0
19.269	13.0
19.284	10.0
19.299	10.0
19.314	13.0
19.329	15.0
19.343	13.0
19.358	18.0
19.373	14.0
19.388	15.0
19.403	23.0
19.417	18.0
19.432	22.0
19.447	16.0
19.462	26.0
19.477	22.0
19.492	32.0
19.506	32.0
19.521	34.0
19.536	38.0
19.551	34.0
19.566	46.0
19.58	35.0
19.595	46.0
19.61	50.0
19.625	41.0
19.64	45.0
19.655	40.0
19.669	25.0
19.684	43.0
19.699	37.0
19.714	27.0
19.729	24.0
19.743	27.0
19.758	28.0
19.773	24.0
19.788	16.0
19.803	13.0
19.817	21.0
19.832	17.0
19.847	10.0
19.862	19.0
19.877	13.0
19.891	9.0
19.906	10.0
19.921	11.0
19.936	9.0
19.951	14.0
19.965	12.0
19.98	12.0
19.995	9.0
20.01	9.0
20.025	9.0
20.039	9.0
20.054	11.0
20.069	13.0
20.084	8.0
20.099	14.0
20.113	18.0
20.128	8.0
20.143	11.0
20.158	18.0
20.173	11.0
20.187	10.0
20.202	9.0
20.217	11.0
20.232	14.0
20.246	6.0
20.261	11.0
20.276	19.0
20.291	4.0
20.306	10.0
20.32	14.0
20.335	13.0
20.35	10.0
20.365	10.0
20.38	13.0
20.394	12.0
20.409	14.0
20.424	8.0
20.439	11.0
20.453	7.0
20.468	6.0
20.483	9.0
20.498	14.0
20.513	18.0
20.527	7.0
20.542	14.0
20.557	14.0
20.572	7.0
20.586	7.0
20.601	6.0
20.616	13.0
20.631	14.0
20.646	8.0
20.66	8.0
20.675	8.0
20.69	8.0
20.705	11.0
20.719	18.0
20.734	13.0
20.749	15.0
20.764	8.0
20.779	9.0
20.793	8.0
20.808	6.0
20.823	12.0
20.838	11.0
20.853	8.0
20.867	14.0
20.882	10.0
20.897	9.0
20.912	11.0
20.926	15.0
20.941	17.0
20.956	4.0
20.971	9.0
20.986	10.0
21.0	9.0
21.015	14.0
21.03	11.0
21.045	15.0
21.06	16.0
21.074	9.0
21.089	11.0
21.104	15.0
21.119	13.0
21.134	8.0
21.148	13.0
21.163	8.0
21.178	9.0
21.193	10.0
21.208	10.0
21.222	15.0
21.237	14.0
21.252	14.0
21.267	17.0
21.282	12.0
21.296	13.0
21.311	11.0
21.326	10.0
21.341	12.0
21.356	9.0
21.37	12.0
21.385	12.0
21.4	16.0
21.415	15.0
21.43	14.0
21.444	11.0
21.459	15.0
21.474	5.0
21.489	16.0
21.504	8.0
21.519	19.0
21.533	11.0
21.548	10.0
21.563	17.0
21.578	7.0
21.593	11.0
21.608	18.0
21.622	19.0
21.637	10.0
21.652	18.0
21.667	27.0
21.682	13.0
21.697	29.0
21.712	22.0
21.726	20.0
21.741	22.0
21.756	23.0
21.771	26.0
21.786	35.0
21.801	40.0
21.816	41.0
21.83	47.0
21.845	50.0
21.86	62.0
21.875	60.0
21.89	58.0
21.905	69.0
21.92	75.0
21.935	85.0
21.949	78.0
21.964	79.0
21.979	65.0
21.994	96.0
22.009	66.0
22.024	50.0
22.039	66.0
22.054	62.0
22.069	50.0
22.083	47.0
22.098	48.0
22.113	35.0
22.128	37.0
22.143	35.0
22.158	24.0
22.173	20.0
22.188	21.0
22.203	18.0
22.218	18.0
22.233	12.0
22.248	14.0
22.262	12.0
22.277	9.0
22.292	8.0
22.307	9.0
22.322	12.0
22.337	11.0
22.352	15.0
22.367	14.0
22.382	9.0
22.397	13.0
22.412	12.0
22.427	6.0
22.442	17.0
22.457	13.0
22.472	15.0
22.487	9.0
22.502	18.0
22.516	10.0
22.531	12.0
22.546	17.0
22.561	7.0
22.576	6.0
22.591	15.0
22.606	11.0
22.621	11.0
22.636	19.0
22.651	10.0
22.666	10.0
22.681	10.0
22.696	9.0
22.711	10.0
22.726	9.0
22.741	13.0
22.756	21.0
22.771	9.0
22.786	7.0
22.801	7.0
22.816	15.0
22.831	12.0
22.846	6.0
22.861	13.0
22.876	14.0
22.891	9.0
22.906	15.0
22.92	17.0
22.935	10.0
22.95	8.0
22.965	10.0
22.98	11.0
22.995	7.0
23.01	14.0
23.025	13.0
23.04	12.0
23.055	7.0
23.07	14.0
23.085	8.0
23.1	9.0
23.115	6.0
23.13	4.0
23.145	11.0
23.16	6.0
23.175	7.0
23.19	10.0
23.205	10.0
23.22	14.0
23.235	10.0
23.25	7.0
23.265	13.0
23.28	8.0
23.295	10.0
23.31	13.0
23.325	11.0
23.34	9.0
23.355	9.0
23.37	14.0
23.384	8.0
23.399	10.0
23.414	12.0
23.429	16.0
23.444	8.0
23.459	8.0
23.474	7.0
23.489	13.0
23.504	9.0
23.519	12.0
23.534	14.0
23.549	11.0
23.564	9.0
23.579	16.0
23.594	12.0
23.609	7.0
23.624	10.0
23.639	8.0
23.654	16.0
23.668	14.0
23.683	16.0
23.698	11.0
23.713	12.0
23.728	11.0
23.743	16.0
23.758	7.0
23.773	9.0
23.788	18.0
23.803	14.0
23.818	21.0
23.833	10.0
23.848	19.0
23.862	24.0
23.877	19.0
23.892	10.0
23.907	21.0
23.922	23.0
23.937	31.0
23.952	25.0
23.967	29.0
23.982	29.0
23.997	33.0
24.011	32.0
24.026	46.0
24.041	56.0
24.056	51.0
24.071	65.0
24.086	63.0
24.101	42.0
24.116	52.0
24.131	43.0
24.145	41.0
24.16	29.0
24.175	32.0
24.19	37.0
24.205	33.0
24.22	40.0
24.235	32.0
24.249	32.0
24.264	21.0
24.279	22.0
24.294	26.0
24.309	21.0
24.324	11.0
24.338	17.0
24.353	17.0
24.368	16.0
24.383	13.0
24.398	14.0
24.413	11.0
24.428	20.0
24.442	11.0
24.457	13.0
24.472	10.0
24.487	15.0
24.502	13.0
24.516	10.0
24.531	11.0
24.546	12.0
24.561	7.0
24.576	14.0
24.591	18.0
24.605	12.0
24.62	11.0
24.635	12.0
24.65	10.0
24.665	12.0
24.679	7.0
24.694	9.0
24.709	13.0
24.724	7.0
24.739	11.0
24.753	8.0
24.768	5.0
24.783	11.0
24.798	5.0
24.813	6.0
24.827	8.0
24.842	18.0
24.857	9.0
24.872	14.0
24.886	12.0
24.901	10.0
24.916	10.0
24.931	6.0
24.946	10.0
24.96	5.0
24.975	16.0
24.99	13.0
25.005	12.0
25.019	11.0
25.034	14.0
25.049	17.0
25.064	6.0
25.078	13.0
25.093	9.0
25.108	13.0
25.123	2.0
25.138	11.0
25.152	8.0
25.167	12.0
25.182	14.0
25.197	7.0
25.211	8.0
25.226	9.0
25.241	3.0
25.256	5.0
25.27	11.0
25.285	12.0
25.3	9.0
25.315	6.0
25.329	14.0
25.344	9.0
25.359	8.0
25.374	7.0
25.388	9.0
25.403	8.0
25.418	9.0
25.433	9.0
25.447	11.0
25.462	6.0
25.477	7.0
25.492	8.0
25.506	16.0
25.521	6.0
25.536	9.0
25.55	7.0
25.565	6.0
25.58	8.0
25.595	12.0
25.609	10.0
25.624	6.0
25.639	10.0
25.654	6.0
25.668	6.0
25.683	4.0
25.698	5.0
25.713	12.0
25.727	9.0
25.742	13.0
25.757	8.0
25.772	6.0
25.786	12.0
25.801	9.0
25.816	9.0
25.83	5.0
25.845	8.0
25.86	4.0
25.875	13.0
25.889	10.0
25.904	8.0
25.919	9.0
25.934	14.0
25.948	7.0
25.963	7.0
25.978	11.0
25.992	5.0
26.007	8.0
26.022	7.0
26.037	8.0
26.051	8.0
26.066	14.0
26.081	8.0
26.096	12.0
26.11	9.0
26.125	4.0
26.14	12.0
26.155	11.0
26.169	7.0
26.184	9.0
26.199	8.0
26.213	5.0
26.228	11.0
26.243	8.0
26.258	11.0
26.272	10.0
26.287	8.0
26.302	8.0
26.317	11.0
26.331	10.0
26.346	9.0
26.361	6.0
26.376	14.0
26.39	7.0
26.405	7.0
26.42	9.0
26.434	9.0
26.449	12.0
26.464	9.0
26.479	11.0
26.493	10.0
26.508	16.0
26.523	11.0
26.538	8.0
26.552	5.0
26.567	8.0
26.582	12.0
26.597	5.0
26.611	5.0
26.626	7.0
26.641	11.0
26.656	12.0
26.67	5.0
26.685	10.0
26.7	14.0
26.715	8.0
26.729	17.0
26.744	3.0
26.759	11.0
26.773	7.0
26.788	8.0
26.803	8.0
26.818	6.0
26.832	8.0
26.847	6.0
26.862	16.0
26.877	10.0
26.891	12.0
26.906	8.0
26.921	14.0
26.936	9.0
26.95	6.0
26.965	9.0
26.98	4.0
26.995	10.0
27.01	6.0
27.024	14.0
27.039	8.0
27.054	15.0
27.069	4.0
27.083	10.0
27.098	7.0
27.113	13.0
27.128	9.0
27.142	15.0
27.157	14.0
27.172	7.0
27.187	6.0
27.201	5.0
27.216	12.0
27.231	8.0
27.246	10.0
27.261	12.0
27.275	12.0
27.29	5.0
27.305	13.0
27.32	8.0
27.334	11.0
27.349	6.0
27.364	10.0
27.379	13.0
27.394	13.0
27.408	14.0
27.423	12.0
27.438	15.0
27.453	7.0
27.467	12.0
27.482	9.0
27.497	5.0
27.512	4.0
27.527	11.0
27.541	13.0
27.556	10.0
27.571	9.0
27.586	8.0
27.601	8.0
27.615	8.0
27.63	8.0
27.645	14.0
27.66	15.0
27.675	10.0
27.689	17.0
27.704	10.0
27.719	12.0
27.734	20.0
27.749	13.0
27.763	21.0
27.778	18.0
27.793	23.0
27.808	12.0
27.823	22.0
27.838	23.0
27.852	22.0
27.867	25.0
27.882	20.0
27.897	17.0
27.912	25.0
27.926	17.0
27.941	14.0
27.956	17.0
27.971	20.0
27.986	24.0
28.001	23.0
28.015	15.0
28.03	23.0
28.045	14.0
28.06	17.0
28.075	21.0
28.09	16.0
28.105	12.0
28.119	12.0
28.134	6.0
28.149	10.0
28.164	11.0
28.179	6.0
28.194	12.0
28.208	9.0
28.223	16.0
28.238	9.0
28.253	9.0
28.268	11.0
28.283	14.0
28.298	11.0
28.312	8.0
28.327	10.0
28.342	14.0
28.357	10.0
28.372	10.0
28.387	10.0
28.402	11.0
28.417	8.0
28.431	12.0
28.446	12.0
28.461	15.0
28.476	12.0
28.491	8.0
28.506	8.0
28.521	14.0
28.536	11.0
28.55	15.0
28.565	9.0
28.58	16.0
28.595	9.0
28.61	17.0
28.625	10.0
28.64	6.0
28.655	19.0
28.669	4.0
28.684	7.0
28.699	19.0
28.714	14.0
28.729	8.0
28.744	8.0
28.759	9.0
28.774	6.0
28.788	8.0
28.803	12.0
28.818	12.0
28.833	8.0
28.848	13.0
28.863	17.0
28.878	13.0
28.893	13.0
28.908	12.0
28.922	7.0
28.937	15.0
28.952	14.0
28.967	5.0
28.982	10.0
28.997	11.0
29.012	5.0
29.027	12.0
29.041	12.0
29.056	7.0
29.071	12.0
29.086	9.0
29.101	10.0
29.116	9.0
29.131	10.0
29.146	5.0
29.16	14.0
29.175	11.0
29.19	7.0
29.205	11.0
29.22	7.0
29.235	14.0
29.25	10.0
29.265	9.0
29.279	11.0
29.294	9.0
29.309	12.0
29.324	7.0
29.339	10.0
29.354	13.0
29.369	14.0
29.384	16.0
29.398	13.0
29.413	23.0
29.428	24.0
29.443	13.0
29.458	20.0
29.473	21.0
29.488	32.0
29.502	23.0
29.517	23.0
29.532	45.0
29.547	37.0
29.562	37.0
29.577	33.0
29.592	54.0
29.606	55.0
29.621	53.0
29.636	50.0
29.651	52.0
29.666	50.0
29.681	40.0
29.695	57.0
29.71	31.0
29.725	46.0
29.74	45.0
29.755	33.0
29.77	32.0
29.784	31.0
29.799	39.0
29.814	32.0
29.829	24.0
29.844	22.0
29.859	16.0
29.873	15.0
29.888	22.0
29.903	11.0
29.918	18.0
29.933	9.0
29.947	15.0
29.962	12.0
29.977	15.0
29.992	13.0
30.007	14.0
30.021	17.0
30.036	8.0
30.051	13.0
30.066	16.0
30.081	9.0
30.095	10.0
30.11	19.0
30.125	13.0
30.14	8.0
30.155	10.0
30.169	8.0
30.184	12.0
30.199	12.0
30.214	13.0
30.228	11.0
30.243	9.0
30.258	10.0
30.273	9.0
30.288	7.0
30.302	15.0
30.317	9.0
30.332	8.0
30.347	12.0
30.361	10.0
30.376	9.0
30.391	13.0
30.406	14.0
30.42	9.0
30.435	11.0
30.45	12.0
30.465	11.0
30.479	11.0
30.494	14.0
30.509	11.0
30.524	14.0
30.538	16.0
30.553	9.0
30.568	8.0
30.583	10.0
30.597	10.0
30.612	11.0
30.627	4.0
30.641	14.0
30.656	6.0
30.671	7.0
30.686	7.0
30.7	11.0
30.715	12.0
30.73	14.0
30.745	12.0
30.759	9.0
30.774	16.0
30.789	20.0
30.803	9.0
30.818	6.0
30.833	14.0
30.848	10.0
30.862	12.0
30.877	7.0
30.892	11.0
30.906	15.0
30.921	16.0
30.936	13.0
30.951	10.0
30.965	13.0
30.98	14.0
30.995	8.0
31.009	11.0
31.024	10.0
31.039	12.0
31.053	12.0
31.068	15.0
31.083	25.0
31.098	17.0
31.112	22.0
31.127	23.0
31.142	25.0
31.156	23.0
31.171	26.0
31.186	29.0
31.2	32.0
31.215	38.0
31.23	29.0
31.245	42.0
31.259	35.0
31.274	45.0
31.289	34.0
31.303	41.0
31.318	27.0
31.333	30.0
31.347	29.0
31.362	33.0
31.377	29.0
31.392	35.0
31.406	27.0
31.421	25.0
31.436	35.0
31.45	19.0
31.465	34.0
31.48	26.0
31.494	19.0
31.509	35.0
31.524	22.0
31.538	19.0
31.553	18.0
31.568	9.0
31.583	11.0
31.597	12.0
31.612	15.0
31.627	11.0
31.641	13.0
31.656	8.0
31.671	7.0
31.685	4.0
31.7	5.0
31.715	9.0
31.729	10.0
31.744	9.0
31.759	8.0
31.774	14.0
31.788	6.0
31.803	11.0
31.818	6.0
31.832	6.0
31.847	14.0
31.862	10.0
31.876	13.0
31.891	9.0
31.906	6.0
31.92	7.0
31.935	13.0
31.95	7.0
31.965	8.0
31.979	9.0
31.994	13.0
32.009	8.0
32.023	13.0
32.038	5.0
32.053	16.0
32.067	8.0
32.082	9.0
32.097	7.0
32.112	10.0
32.126	9.0
32.141	8.0
32.156	8.0
32.17	11.0
32.185	7.0
32.2	8.0
32.214	7.0
32.229	12.0
32.244	9.0
32.259	6.0
32.273	9.0
32.288	8.0
32.303	15.0
32.317	14.0
32.332	11.0
32.347	11.0
32.362	10.0
32.376	9.0
32.391	10.0
32.406	9.0
32.42	13.0
32.435	14.0
32.45	14.0
32.465	15.0
32.479	10.0
32.494	12.0
32.509	10.0
32.523	13.0
32.538	8.0
32.553	12.0
32.568	14.0
32.582	12.0
32.597	8.0
32.612	9.0
32.627	12.0
32.641	14.0
32.656	10.0
32.671	9.0
32.685	19.0
32.7	14.0
32.715	24.0
32.73	16.0
32.744	25.0
32.759	24.0
32.774	22.0
32.788	24.0
32.803	20.0
32.818	33.0
32.833	26.0
32.847	33.0
32.862	33.0
32.877	25.0
32.892	17.0
32.906	25.0
32.921	23.0
32.936	28.0
32.951	20.0
32.965	17.0
32.98	15.0
32.995	22.0
33.009	13.0
33.024	30.0
33.039	18.0
33.054	20.0
33.068	17.0
33.083	9.0
33.098	15.0
33.113	24.0
33.127	17.0
33.142	12.0
33.157	8.0
33.172	13.0
33.186	9.0
33.201	5.0
33.216	13.0
33.231	10.0
33.245	9.0
33.26	10.0
33.275	8.0
33.29	11.0
33.304	9.0
33.319	10.0
33.334	12.0
33.349	12.0
33.363	15.0
33.378	5.0
33.393	16.0
33.408	4.0
33.422	11.0
33.437	8.0
33.452	10.0
33.467	13.0
33.481	10.0
33.496	11.0
33.511	10.0
33.526	15.0
33.54	12.0
33.555	9.0
33.57	5.0
33.585	20.0
33.599	10.0
33.614	12.0
33.629	19.0
33.644	11.0
33.658	14.0
33.673	7.0
33.688	11.0
33.703	7.0
33.718	10.0
33.732	13.0
33.747	11.0
33.762	7.0
33.777	11.0
33.791	14.0
33.806	7.0
33.821	7.0
33.836	5.0
33.85	14.0
33.865	11.0
33.88	10.0
33.895	9.0
33.91	9.0
33.924	6.0
33.939	10.0
33.954	11.0
33.969	11.0
33.983	14.0
33.998	12.0
34.013	12.0
34.028	12.0
34.042	12.0
34.057	11.0
34.072	12.0
34.087	10.0
34.102	10.0
34.116	9.0
34.131	10.0
34.146	6.0
34.161	8.0
34.175	9.0
34.19	14.0
34.205	9.0
34.22	10.0
34.235	13.0
34.249	15.0
34.264	10.0
34.279	11.0
34.294	9.0
34.309	15.0
34.323	18.0
34.338	10.0
34.353	20.0
34.368	7.0
34.382	11.0
34.397	15.0
34.412	10.0
34.427	13.0
34.442	9.0
34.456	10.0
34.471	11.0
34.486	4.0
34.501	13.0
34.516	11.0
34.53	19.0
34.545	12.0
34.56	7.0
34.575	8.0
34.59	10.0
34.604	8.0
34.619	9.0
34.634	6.0
34.649	4.0
34.664	9.0
34.678	9.0
34.693	15.0
34.708	8.0
34.723	9.0
34.738	8.0
34.752	11.0
34.767	14.0
34.782	10.0
34.797	9.0
34.812	6.0
34.826	11.0
34.841	5.0
34.856	13.0
34.871	10.0
34.886	13.0
34.9	13.0
34.915	11.0
34.93	10.0
34.945	4.0
34.96	7.0
34.974	11.0
34.989	7.0
35.004	8.0
35.019	10.0
35.034	15.0
35.048	6.0
35.063	5.0
35.078	11.0
35.093	14.0
35.108	9.0
35.122	6.0
35.137	7.0
35.152	10.0
35.167	10.0
35.182	7.0
35.196	8.0
35.211	10.0
35.226	16.0
35.241	11.0
35.256	11.0
35.27	5.0
35.285	13.0
35.3	13.0
35.315	7.0
35.33	10.0
35.344	5.0
35.359	8.0
35.374	6.0
35.389	14.0
35.404	9.0
35.418	5.0
35.433	6.0
35.448	6.0
35.463	12.0
35.478	13.0
35.493	9.0
35.507	10.0
35.522	6.0
35.537	2.0
35.552	9.0
35.567	10.0
35.581	6.0
35.596	11.0
35.611	4.0
35.626	10.0
35.641	12.0
35.655	15.0
35.67	10.0
35.685	16.0
35.7	15.0
35.715	14.0
35.729	16.0
35.744	11.0
35.759	22.0
35.774	20.0
35.789	14.0
35.804	26.0
35.818	16.0
35.833	19.0
35.848	18.0
35.863	9.0
35.878	18.0
35.892	19.0
35.907	11.0
35.922	14.0
35.937	13.0
35.952	16.0
35.966	13.0
35.981	9.0
35.996	13.0
36.011	19.0
36.026	21.0
36.04	12.0
36.055	12.0
36.07	16.0
36.085	11.0
36.1	5.0
36.114	7.0
36.129	9.0
36.144	9.0
36.159	15.0
36.174	8.0
36.189	5.0
36.203	10.0
36.218	7.0
36.233	7.0
36.248	7.0
36.263	11.0
36.277	10.0
36.292	12.0
36.307	9.0
36.322	10.0
36.337	6.0
36.351	6.0
36.366	8.0
36.381	6.0
36.396	6.0
36.411	13.0
36.426	7.0
36.44	13.0
36.455	10.0
36.47	7.0
36.485	8.0
36.5	8.0
36.514	8.0
36.529	11.0
36.544	8.0
36.559	10.0
36.574	9.0
36.589	13.0
36.603	4.0
36.618	11.0
36.633	12.0
36.648	10.0
36.663	10.0
36.677	5.0
36.692	7.0
36.707	8.0
36.722	10.0
36.737	12.0
36.752	10.0
36.766	7.0
36.781	7.0
36.796	7.0
36.811	8.0
36.826	6.0
36.841	7.0
36.855	8.0
36.87	11.0
36.885	6.0
36.9	12.0
36.915	8.0
36.93	9.0
36.944	12.0
36.959	7.0
36.974	4.0
36.989	9.0
37.004	8.0
37.019	11.0
37.033	16.0
37.048	14.0
37.063	11.0
37.078	13.0
37.093	25.0
37.108	16.0
37.123	18.0
37.137	33.0
37.152	32.0
37.167	24.0
37.182	26.0
37.197	28.0
37.212	33.0
37.226	35.0
37.241	34.0
37.256	18.0
37.271	22.0
37.286	16.0
37.301	17.0
37.316	27.0
37.331	20.0
37.345	17.0
37.36	21.0
37.375	16.0
37.39	14.0
37.405	26.0
37.42	16.0
37.435	14.0
37.45	15.0
37.464	12.0
37.479	10.0
37.494	11.0
37.509	15.0
37.524	9.0
37.539	7.0
37.554	10.0
37.569	8.0
37.583	11.0
37.598	9.0
37.613	10.0
37.628	9.0
37.643	6.0
37.658	7.0
37.673	7.0
37.688	7.0
37.703	7.0
37.718	5.0
37.733	5.0
37.747	6.0
37.762	8.0
37.777	8.0
37.792	3.0
37.807	4.0
37.822	12.0
37.837	3.0
37.852	5.0
37.867	3.0
37.882	5.0
37.897	5.0
37.912	4.0
37.927	11.0
37.941	4.0
37.956	10.0
37.971	8.0
37.986	3.0
38.001	9.0
38.016	7.0
38.031	12.0
38.046	7.0
38.061	7.0
38.076	13.0
38.091	4.0
38.106	7.0
38.121	10.0
38.136	8.0
38.151	9.0
38.166	7.0
38.181	7.0
38.196	10.0
38.211	2.0
38.226	8.0
38.241	8.0
38.256	4.0
38.271	4.0
38.285	11.0
38.3	5.0
38.315	9.0
38.33	5.0
38.345	6.0
38.36	4.0
38.375	8.0
38.39	8.0
38.405	6.0
38.42	5.0
38.435	5.0
38.45	8.0
38.465	6.0
38.48	5.0
38.495	7.0
38.51	9.0
38.525	6.0
38.54	6.0
38.555	3.0
38.57	5.0
38.585	8.0
38.6	4.0
38.615	7.0
38.63	5.0
38.645	3.0
38.66	5.0
38.675	8.0
38.69	8.0
38.705	5.0
38.72	5.0
38.735	8.0
38.75	8.0
38.765	8.0
38.78	7.0
38.795	6.0
38.81	9.0
38.825	5.0
38.84	6.0
38.855	2.0
38.87	7.0
38.885	9.0
38.9	8.0
38.915	4.0
38.93	7.0
38.945	5.0
38.96	10.0
38.975	2.0
38.99	7.0
39.005	6.0
39.02	6.0
39.035	4.0
39.05	7.0
39.065	4.0
39.08	7.0
39.095	10.0
39.11	6.0
39.125	7.0
39.14	6.0
39.155	7.0
39.17	5.0
39.185	3.0
39.2	6.0
39.215	7.0
39.23	6.0
39.245	8.0
39.26	9.0
39.275	8.0
39.29	7.0
39.305	5.0
39.32	3.0
39.335	3.0
39.35	2.0
39.365	6.0
39.38	3.0
39.395	5.0
39.409	11.0
39.424	8.0
39.439	8.0
39.454	8.0
39.469	4.0
39.484	6.0
39.499	8.0
39.514	7.0
39.529	2.0
39.544	5.0
39.559	7.0
39.574	9.0
39.589	5.0
39.604	4.0
39.619	3.0
39.634	4.0
39.649	2.0
39.664	5.0
39.678	6.0
39.693	7.0
39.708	3.0
39.723	11.0
39.738	10.0
39.753	11.0
39.768	7.0
39.783	8.0
39.798	11.0
39.813	11.0
39.827	9.0
39.842	3.0
39.857	13.0
39.872	3.0
39.887	7.0
39.902	7.0
39.917	10.0
39.932	8.0
39.947	10.0
39.961	2.0
39.976	8.0
39.991	5.0
40.006	13.0
40.021	7.0
40.036	7.0
40.051	4.0
40.065	13.0
40.08	6.0
40.095	9.0
40.11	4.0
40.125	8.0
40.14	10.0
40.154	9.0
40.169	9.0
40.184	5.0
40.199	4.0
40.214	6.0
40.228	6.0
40.243	2.0
40.258	3.0
40.273	8.0
40.288	6.0
40.302	10.0
40.317	6.0
40.332	5.0
40.347	6.0
40.362	9.0
40.376	6.0
40.391	10.0
40.406	11.0
40.421	7.0
40.436	8.0
40.45	6.0
40.465	7.0
40.48	5.0
40.495	9.0
40.509	7.0
40.524	8.0
40.539	7.0
40.554	1.0
40.568	11.0
40.583	8.0
40.598	5.0
40.613	5.0
40.627	5.0
40.642	12.0
40.657	7.0
40.672	7.0
40.686	4.0
40.701	3.0
40.716	5.0
40.731	5.0
40.745	3.0
40.76	10.0
40.775	5.0
40.79	7.0
40.804	10.0
40.819	2.0
40.834	3.0
40.849	7.0
40.863	9.0
40.878	4.0
40.893	8.0
40.907	5.0
40.922	9.0
40.937	3.0
40.952	4.0
40.966	11.0
40.981	4.0
40.996	5.0
41.011	10.0
41.025	9.0
41.04	11.0
41.055	13.0
41.069	13.0
41.084	13.0
41.099	24.0
41.114	22.0
41.128	23.0
41.143	23.0
41.158	20.0
41.173	30.0
41.187	18.0
41.202	15.0
41.217	19.0
41.231	7.0
41.246	14.0
41.261	13.0
41.276	11.0
41.29	14.0
41.305	11.0
41.32	22.0
41.335	6.0
41.349	15.0
41.364	18.0
41.379	8.0
41.393	13.0
41.408	11.0
41.423	16.0
41.438	9.0
41.452	12.0
41.467	2.0
41.482	13.0
41.497	10.0
41.511	8.0
41.526	6.0
41.541	8.0
41.556	4.0
41.57	8.0
41.585	7.0
41.6	5.0
41.615	7.0
41.629	6.0
41.644	8.0
41.659	3.0
41.674	9.0
41.688	12.0
41.703	7.0
41.718	7.0
41.733	6.0
41.747	12.0
41.762	6.0
41.777	6.0
41.792	3.0
41.806	5.0
41.821	3.0
41.836	2.0
41.851	9.0
41.866	7.0
41.88	8.0
41.895	5.0
41.91	6.0
41.925	4.0
41.939	7.0
41.954	3.0
41.969	4.0
41.984	4.0
41.999	10.0
42.013	1.0
42.028	9.0
42.043	8.0
42.058	7.0
42.073	6.0
42.088	4.0
42.102	5.0
42.117	6.0
42.132	7.0
42.147	1.0
42.162	4.0
42.176	5.0
42.191	2.0
42.206	7.0
42.221	10.0
42.236	2.0
42.251	6.0
42.266	8.0
42.28	9.0
42.295	10.0
42.31	14.0
42.325	12.0
42.34	12.0
42.355	11.0
42.369	17.0
42.384	22.0
42.399	18.0
42.414	7.0
42.429	7.0
42.444	21.0
42.459	10.0
42.474	13.0
42.488	9.0
42.503	11.0
42.518	9.0
42.533	9.0
42.548	12.0
42.563	4.0
42.578	13.0
42.593	4.0
42.608	10.0
42.622	9.0
42.637	14.0
42.652	11.0
42.667	8.0
42.682	12.0
42.697	13.0
42.712	13.0
42.727	14.0
42.742	4.0
42.757	2.0
42.772	5.0
42.786	10.0
42.801	8.0
42.816	5.0
42.831	9.0
42.846	8.0
42.861	6.0
42.876	9.0
42.891	6.0
42.906	2.0
42.921	1.0
42.936	5.0
42.951	7.0
42.966	4.0
42.981	2.0
42.996	4.0
43.011	2.0
43.025	9.0
43.04	5.0
43.055	4.0
43.07	5.0
43.085	6.0
43.1	4.0
43.115	8.0
43.13	5.0
43.145	2.0
43.16	6.0
43.175	7.0
43.19	7.0
43.205	3.0
43.22	12.0
43.235	4.0
43.25	3.0
43.265	6.0
43.28	7.0
43.295	2.0
43.31	3.0
43.325	9.0
43.34	9.0
43.355	8.0
43.37	5.0
43.385	7.0
43.4	4.0
43.415	4.0
43.43	7.0
43.445	4.0
43.46	11.0
43.475	5.0
43.49	6.0
43.505	12.0
43.52	10.0
43.535	5.0
43.55	9.0
43.565	10.0
43.58	9.0
43.595	11.0
43.61	11.0
43.625	12.0
43.64	8.0
43.655	10.0
43.67	11.0
43.685	8.0
43.7	10.0
43.715	5.0
43.73	4.0
43.745	10.0
43.76	7.0
43.775	6.0
43.79	9.0
43.805	9.0
43.82	9.0
43.835	8.0
43.85	6.0
43.865	7.0
43.88	9.0
43.895	6.0
43.91	11.0
43.925	4.0
43.94	3.0
43.955	6.0
43.97	2.0
43.985	3.0
44.0	8.0
44.015	7.0
44.03	7.0
44.045	5.0
44.061	7.0
44.076	2.0
44.091	3.0
44.106	8.0
44.121	7.0
44.136	8.0
44.151	10.0
44.166	3.0
44.181	3.0
44.196	4.0
44.211	8.0
44.226	4.0
44.241	3.0
44.256	4.0
44.271	9.0
44.286	3.0
44.301	7.0
44.316	7.0
44.331	6.0
44.346	3.0
44.361	4.0
44.377	3.0
44.392	7.0
44.407	4.0
44.422	4.0
44.437	6.0
44.452	5.0
44.467	3.0
44.482	8.0
44.497	3.0
44.512	8.0
44.527	6.0
44.542	2.0
44.557	6.0
44.572	7.0
44.587	4.0
44.602	7.0
44.617	5.0
44.632	3.0
44.647	9.0
44.663	7.0
44.678	4.0
44.693	4.0
44.708	6.0
44.723	11.0
44.738	10.0
44.753	8.0
44.768	4.0
44.783	13.0
44.798	10.0
44.813	12.0
44.828	16.0
44.843	4.0
44.858	12.0
44.873	7.0
44.888	7.0
44.903	8.0
44.918	9.0
44.933	8.0
44.948	4.0
44.964	9.0
44.979	8.0
44.994	9.0
45.009	8.0
45.024	11.0
45.039	7.0
45.054	7.0
45.069	14.0
45.084	6.0
45.099	9.0
45.114	5.0
45.129	8.0
45.144	8.0
45.159	3.0
45.174	12.0
45.189	3.0
45.204	8.0
45.219	5.0
45.234	0.0
45.249	2.0
45.264	6.0
45.279	3.0
45.294	5.0
45.309	5.0
45.324	9.0
45.339	4.0
45.354	9.0
45.369	5.0
45.384	5.0
45.399	6.0
45.414	10.0
45.429	4.0
45.444	5.0
45.459	3.0
45.474	6.0
45.489	6.0
45.504	0.0
45.519	1.0
45.534	6.0
45.549	6.0
45.564	4.0
45.579	8.0
45.594	7.0
45.609	7.0
45.624	4.0
45.639	2.0
45.654	5.0
45.669	7.0
45.684	3.0
45.699	6.0
45.714	3.0
45.729	5.0
45.744	8.0
45.759	6.0
45.774	6.0
45.789	7.0
45.804	13.0
45.819	9.0
45.834	6.0
45.849	8.0
45.864	13.0
45.879	9.0
45.894	9.0
45.909	10.0
45.924	16.0
45.939	20.0
45.954	22.0
45.969	18.0
45.984	14.0
45.998	17.0
46.013	20.0
46.028	14.0
46.043	10.0
46.058	8.0
46.073	8.0
46.088	11.0
46.103	10.0
46.118	6.0
46.133	11.0
46.148	6.0
46.163	7.0
46.178	12.0
46.192	7.0
46.207	5.0
46.222	11.0
46.237	5.0
46.252	8.0
46.267	7.0
46.282	8.0
46.297	10.0
46.312	11.0
46.327	6.0
46.341	4.0
46.356	13.0
46.371	5.0
46.386	7.0
46.401	6.0
46.416	2.0
46.431	7.0
46.446	7.0
46.46	4.0
46.475	1.0
46.49	5.0
46.505	8.0
46.52	4.0
46.535	6.0
46.55	2.0
46.564	3.0
46.579	7.0
46.594	6.0
46.609	3.0
46.624	3.0
46.639	6.0
46.654	3.0
46.668	9.0
46.683	4.0
46.698	7.0
46.713	5.0
46.728	8.0
46.743	6.0
46.758	5.0
46.772	3.0
46.787	3.0
46.802	4.0
46.817	6.0
46.832	5.0
46.847	6.0
46.861	7.0
46.876	5.0
46.891	4.0
46.906	7.0
46.921	4.0
46.936	5.0
46.95	4.0
46.965	5.0
46.98	6.0
46.995	4.0
47.01	6.0
47.025	8.0
47.039	10.0
47.054	5.0
47.069	8.0
47.084	14.0
47.099	7.0
47.113	8.0
47.128	13.0
47.143	11.0
47.158	8.0
47.173	5.0
47.188	4.0
47.202	13.0
47.217	8.0
47.232	10.0
47.247	9.0
47.262	3.0
47.277	2.0
47.291	6.0
47.306	9.0
47.321	4.0
47.336	7.0
47.351	1.0
47.365	4.0
47.38	6.0
47.395	7.0
47.41	4.0
47.425	5.0
47.44	11.0
47.454	9.0
47.469	8.0
47.484	3.0
47.499	7.0
47.514	6.0
47.528	4.0
47.543	5.0
47.558	7.0
47.573	2.0
47.588	2.0
47.603	6.0
47.617	6.0
47.632	4.0
47.647	3.0
47.662	9.0
47.677	3.0
47.691	7.0
47.706	5.0
47.721	3.0
47.736	8.0
47.751	5.0
47.766	10.0
47.78	4.0
47.795	4.0
47.81	4.0
47.825	4.0
47.84	6.0
47.855	7.0
47.869	6.0
47.884	4.0
47.899	5.0
47.914	3.0
47.929	4.0
47.944	4.0
47.958	7.0
47.973	6.0
47.988	5.0
48.003	2.0
48.018	0.0
48.033	2.0
48.047	8.0
48.062	2.0
48.077	7.0
48.092	4.0
48.107	6.0
48.122	3.0
48.137	5.0
48.151	6.0
48.166	4.0
48.181	6.0
48.196	5.0
48.211	8.0
48.226	5.0
48.241	8.0
48.255	7.0
48.27	10.0
48.285	9.0
48.3	7.0
48.315	3.0
48.33	9.0
48.345	1.0
48.359	7.0
48.374	9.0
48.389	2.0
48.404	4.0
48.419	8.0
48.434	2.0
48.449	6.0
48.464	5.0
48.478	3.0
48.493	3.0
48.508	6.0
48.523	3.0
48.538	4.0
48.553	6.0
48.568	7.0
48.583	6.0
48.597	5.0
48.612	4.0
48.627	6.0
48.642	5.0
48.657	6.0
48.672	3.0
48.687	3.0
48.702	5.0
48.717	3.0
48.731	9.0
48.746	5.0
48.761	7.0
48.776	7.0
48.791	5.0
48.806	4.0
48.821	3.0
48.836	6.0
48.851	8.0
48.866	4.0
48.88	6.0
48.895	2.0
48.91	9.0
48.925	4.0
48.94	5.0
48.955	3.0
48.97	6.0
48.985	2.0
49.0	7.0
49.015	8.0
49.03	5.0
49.044	3.0
49.059	5.0
49.074	4.0
49.089	5.0
49.104	4.0
49.119	5.0
49.134	7.0
49.149	4.0
49.164	7.0
49.179	2.0
49.194	2.0
49.209	3.0
49.224	5.0
49.238	2.0
49.253	5.0
49.268	4.0
49.283	3.0
49.298	5.0
49.313	3.0
49.328	8.0
49.343	9.0
49.358	3.0
49.373	5.0
49.388	9.0
49.403	8.0
49.418	8.0
49.433	8.0
49.448	8.0
49.463	4.0
49.478	6.0
49.492	4.0
49.507	2.0
49.522	6.0
49.537	5.0
49.552	4.0
49.567	8.0
49.582	4.0
49.597	6.0
49.612	10.0
49.627	2.0
49.642	7.0
49.657	7.0
49.672	11.0
49.687	6.0
49.702	6.0
49.717	11.0
49.732	9.0
49.747	4.0
49.762	11.0
49.777	6.0
49.792	4.0
49.807	10.0
49.822	5.0
49.837	1.0
49.852	5.0
49.867	3.0
49.882	2.0
49.897	2.0
49.912	5.0
49.927	4.0
49.942	4.0
49.957	5.0
49.971	8.0
49.986	4.0
50.001	3.0
50.016	7.0
50.031	5.0
50.046	6.0
50.061	2.0
50.076	5.0
50.091	6.0
50.106	4.0
50.121	4.0
50.136	6.0
50.151	5.0
50.166	5.0
50.181	2.0
50.196	5.0
50.211	8.0
50.226	7.0
50.241	5.0
50.256	7.0
50.271	6.0
50.286	3.0
50.302	7.0
50.317	6.0
50.332	6.0
50.347	7.0
50.362	5.0
50.377	12.0
50.392	6.0
50.407	3.0
50.422	3.0
50.437	3.0
50.452	4.0
50.467	7.0
50.482	11.0
50.497	5.0
50.512	3.0
50.527	6.0
50.542	4.0
50.557	2.0
50.572	8.0
50.587	10.0
50.602	1.0
50.617	5.0
50.632	7.0
50.647	4.0
50.662	4.0
50.677	3.0
50.692	0.0
50.707	8.0
50.722	10.0
50.737	4.0
50.752	11.0
50.767	3.0
50.782	12.0
50.797	4.0
50.812	4.0
50.828	6.0
50.843	5.0
50.858	8.0
50.873	2.0
50.888	7.0
50.903	7.0
50.918	2.0
50.933	13.0
50.948	5.0
50.963	5.0
50.978	2.0
50.993	5.0
51.008	2.0
51.023	7.0
51.038	8.0
51.053	8.0
51.068	4.0
51.083	4.0
51.098	5.0
51.114	3.0
51.129	2.0
51.144	5.0
51.159	4.0
51.174	4.0
51.189	5.0
51.204	6.0
51.219	5.0
51.234	8.0
51.249	8.0
51.264	8.0
51.279	9.0
51.294	5.0
51.309	3.0
51.324	3.0
51.34	4.0
51.355	6.0
51.37	5.0
51.385	8.0
51.4	8.0
51.415	5.0
51.43	10.0
51.445	4.0
51.46	7.0
51.475	12.0
51.49	13.0
51.505	15.0
51.52	13.0
51.535	17.0
51.551	17.0
51.566	19.0
51.581	12.0
51.596	11.0
51.611	6.0
51.626	11.0
51.641	7.0
51.656	3.0
51.671	9.0
51.686	8.0
51.701	4.0
51.716	3.0
51.732	11.0
51.747	4.0
51.762	8.0
51.777	13.0
51.792	8.0
51.807	8.0
51.822	11.0
51.837	11.0
51.852	15.0
51.867	12.0
51.882	6.0
51.898	19.0
51.913	10.0
51.928	5.0
51.943	9.0
51.958	5.0
51.973	9.0
51.988	7.0
52.003	3.0
52.018	8.0
52.033	7.0
52.048	5.0
52.064	6.0
52.079	1.0
52.094	3.0
52.109	4.0
52.124	5.0
52.139	3.0
52.154	7.0
52.169	2.0
52.184	5.0
52.199	5.0
52.215	5.0
52.23	7.0
52.245	6.0
52.26	5.0
52.275	6.0
52.29	2.0
52.305	3.0
52.32	7.0
52.335	3.0
52.35	4.0
52.366	8.0
52.381	4.0
52.396	9.0
52.411	7.0
52.426	7.0
52.441	2.0
52.456	4.0
52.471	8.0
52.486	9.0
52.502	4.0
52.517	11.0
52.532	11.0
52.547	8.0
52.562	8.0
52.577	8.0
52.592	13.0
52.607	6.0
52.622	3.0
52.637	9.0
52.653	7.0
52.668	5.0
52.683	6.0
52.698	7.0
52.713	6.0
52.728	6.0
52.743	7.0
52.758	7.0
52.774	3.0
52.789	3.0
52.804	8.0
52.819	8.0
52.834	6.0
52.849	9.0
52.864	6.0
52.879	4.0
52.894	12.0
52.91	3.0
52.925	4.0
52.94	7.0
52.955	3.0
52.97	7.0
52.985	7.0
53.0	8.0
53.015	4.0
53.031	6.0
53.046	1.0
53.061	3.0
53.076	0.0
53.091	1.0
53.106	5.0
53.121	2.0
53.136	5.0
53.152	3.0
53.167	4.0
53.182	6.0
53.197	8.0
53.212	3.0
53.227	2.0
53.242	9.0
53.257	7.0
53.273	5.0
53.288	8.0
53.303	3.0
53.318	6.0
53.333	3.0
53.348	1.0
53.363	2.0
53.379	2.0
53.394	1.0
53.409	8.0
53.424	2.0
53.439	3.0
53.454	5.0
53.469	8.0
53.484	5.0
53.5	10.0
53.515	4.0
53.53	8.0
53.545	4.0
53.56	4.0
53.575	5.0
53.59	7.0
53.606	3.0
53.621	1.0
53.636	3.0
53.651	5.0
53.666	3.0
53.681	3.0
53.696	3.0
53.712	1.0
53.727	5.0
53.742	5.0
53.757	2.0
53.772	3.0
53.787	4.0
53.802	2.0
53.818	2.0
53.833	11.0
53.848	4.0
53.863	4.0
53.878	4.0
53.893	2.0
53.909	4.0
53.924	2.0
53.939	5.0
53.954	3.0
53.969	1.0
53.984	4.0
53.999	4.0
54.015	7.0
54.03	2.0
54.045	7.0
54.06	2.0
54.075	3.0
54.09	1.0
54.106	2.0
54.121	3.0
54.136	5.0
54.151	4.0
54.166	5.0
54.181	5.0
54.197	5.0
54.212	3.0
54.227	2.0
54.242	4.0
54.257	5.0
54.272	4.0
54.288	4.0
54.303	1.0
54.318	7.0
54.333	4.0
54.348	5.0
54.363	4.0
54.379	2.0
54.394	4.0
54.409	8.0
54.424	9.0
54.439	10.0
54.454	7.0
54.47	8.0
54.485	2.0
54.5	6.0
54.515	4.0
54.53	6.0
54.545	7.0
54.561	13.0
54.576	10.0
54.591	3.0
54.606	7.0
54.621	10.0
54.636	17.0
54.652	13.0
54.667	16.0
54.682	8.0
54.697	9.0
54.712	14.0
54.727	13.0
54.743	6.0
54.758	4.0
54.773	12.0
54.788	7.0
54.803	8.0
54.819	6.0
54.834	5.0
54.849	8.0
54.864	3.0
54.879	5.0
54.894	2.0
54.91	3.0
54.925	9.0
54.94	10.0
54.955	11.0
54.97	11.0
54.985	5.0
55.001	13.0
55.016	10.0
55.031	7.0
55.046	5.0
55.061	6.0
55.077	7.0
55.092	8.0
55.107	5.0
55.122	3.0
55.137	5.0
55.152	5.0
55.168	5.0
55.183	5.0
55.198	8.0
55.213	9.0
55.228	4.0
55.243	1.0
55.259	5.0
55.274	3.0
55.289	4.0
55.304	6.0
55.319	7.0
55.335	6.0
55.35	3.0
55.365	3.0
55.38	2.0
55.395	4.0
55.41	3.0
55.426	4.0
55.441	2.0
55.456	2.0
55.471	7.0
55.486	4.0
55.501	6.0
55.517	4.0
55.532	4.0
55.547	7.0
55.562	3.0
55.577	3.0
55.592	2.0
55.608	3.0
55.623	5.0
55.638	10.0
55.653	10.0
55.668	5.0
55.683	6.0
55.699	8.0
55.714	6.0
55.729	5.0
55.744	2.0
55.759	5.0
55.774	6.0
55.79	5.0
55.805	7.0
55.82	5.0
55.835	3.0
55.85	5.0
55.865	4.0
55.881	4.0
55.896	4.0
55.911	5.0
55.926	5.0
55.941	9.0
55.956	8.0
55.972	5.0
55.987	6.0
56.002	7.0
56.017	8.0
56.032	4.0
56.047	11.0
56.063	3.0
56.078	5.0
56.093	6.0
56.108	6.0
56.123	5.0
56.138	8.0
56.154	4.0
56.169	9.0
56.184	5.0
56.199	4.0
56.214	2.0
56.229	3.0
56.244	4.0
56.26	1.0
56.275	4.0
56.29	3.0
56.305	1.0
56.32	2.0
56.335	6.0
56.351	4.0
56.366	9.0
56.381	8.0
56.396	3.0
56.411	2.0
56.426	6.0
56.441	2.0
56.457	5.0
56.472	2.0
56.487	3.0
56.502	5.0
56.517	2.0
56.532	2.0
56.547	1.0
56.563	5.0
56.578	4.0
56.593	0.0
56.608	2.0
56.623	4.0
56.638	3.0
56.653	2.0
56.668	5.0
56.684	5.0
56.699	8.0
56.714	4.0
56.729	3.0
56.744	3.0
56.759	9.0
56.774	7.0
56.79	9.0
56.805	3.0
56.82	6.0
56.835	5.0
56.85	7.0
56.865	2.0
56.88	5.0
56.895	4.0
56.911	3.0
56.926	3.0
56.941	5.0
56.956	4.0
56.971	5.0
56.986	4.0
57.001	4.0
57.016	0.0
57.031	4.0
57.047	3.0
57.062	3.0
57.077	6.0
57.092	7.0
57.107	6.0
57.122	4.0
57.137	2.0
57.152	3.0
57.167	4.0
57.183	2.0
57.198	4.0
57.213	3.0
57.228	0.0
57.243	6.0
57.258	3.0
57.273	2.0
57.288	4.0
57.303	7.0
57.318	2.0
57.334	8.0
57.349	7.0
57.364	5.0
57.379	1.0
57.394	9.0
57.409	4.0
57.424	6.0
57.439	2.0
57.454	2.0
57.469	1.0
57.484	4.0
57.5	5.0
57.515	7.0
57.53	5.0
57.545	6.0
57.56	6.0
57.575	3.0
57.59	3.0
57.605	2.0
57.62	3.0
57.635	7.0
57.65	5.0
57.665	4.0
57.68	6.0
57.696	4.0
57.711	5.0
57.726	5.0
57.741	7.0
57.756	5.0
57.771	6.0
57.786	7.0
57.801	5.0
57.816	3.0
57.831	2.0
57.846	3.0
57.861	3.0
57.876	5.0
57.891	6.0
57.906	3.0
57.921	5.0
57.937	4.0
57.952	7.0
57.967	4.0
57.982	8.0
57.997	2.0
58.012	6.0
58.027	6.0
58.042	2.0
58.057	4.0
58.072	7.0
58.087	5.0
58.102	2.0
58.117	4.0
58.132	10.0
58.147	5.0
58.162	3.0
58.177	4.0
58.192	7.0
58.207	4.0
58.222	5.0
58.237	3.0
58.252	5.0
58.267	4.0
58.282	5.0
58.297	4.0
58.312	6.0
58.327	3.0
58.342	5.0
58.357	3.0
58.372	2.0
58.387	6.0
58.402	2.0
58.418	3.0
58.433	4.0
58.448	6.0
58.463	7.0
58.478	5.0
58.493	3.0
58.508	6.0
58.523	7.0
58.538	3.0
58.553	7.0
58.568	7.0
58.583	6.0
58.598	6.0
58.613	14.0
58.628	10.0
58.643	4.0
58.658	5.0
58.673	13.0
58.688	10.0
58.703	6.0
58.718	7.0
58.733	6.0
58.748	9.0
58.763	5.0
58.778	5.0
58.793	5.0
58.808	4.0
58.823	2.0
58.838	5.0
58.853	3.0
58.868	4.0
58.883	3.0
58.898	7.0
58.913	5.0
58.928	5.0
58.942	6.0
58.957	5.0
58.972	10.0
58.987	11.0
59.002	9.0
59.017	4.0
59.032	5.0
59.047	8.0
59.062	7.0
59.077	5.0
59.092	3.0
59.107	3.0
59.122	5.0
59.137	3.0
59.152	4.0
59.167	3.0
59.182	4.0
59.197	4.0
59.212	5.0
59.227	2.0
59.242	11.0
59.257	4.0
59.272	8.0
59.287	4.0
59.302	4.0
59.317	6.0
59.332	5.0
59.347	5.0
59.362	2.0
59.377	8.0
59.392	2.0
59.407	6.0
59.422	3.0
59.437	6.0
59.452	3.0
59.467	7.0
59.482	1.0
59.497	5.0
59.512	2.0
59.527	4.0
59.542	6.0
59.557	9.0
59.572	6.0
59.587	9.0
59.602	12.0
59.617	8.0
59.632	6.0
59.647	8.0
59.661	13.0
59.676	6.0
59.691	11.0
59.706	2.0
59.721	8.0
59.736	4.0
59.751	6.0
59.766	0.0
59.781	4.0
59.796	5.0
59.811	5.0
59.826	2.0
59.841	5.0
59.856	4.0
59.871	3.0
59.886	3.0
59.901	4.0
59.916	1.0
59.931	8.0
59.946	5.0
59.961	6.0
59.976	3.0
59.991	10.0
60.006	5.0
60.021	8.0
60.036	4.0
60.051	8.0
60.066	2.0
60.081	6.0
60.096	9.0
60.111	5.0
60.126	3.0
60.141	8.0
60.156	4.0
60.171	2.0
60.186	4.0
60.201	3.0
60.216	6.0
60.231	3.0
60.246	6.0
60.261	4.0
60.276	2.0
60.291	4.0
60.306	2.0
60.321	4.0
60.336	2.0
60.35	5.0
60.365	2.0
60.38	7.0
60.395	1.0
60.41	4.0
60.425	8.0
60.44	8.0
60.455	2.0
60.47	5.0
60.485	6.0
60.5	4.0
60.515	9.0
60.53	11.0
60.545	6.0
60.56	3.0
60.575	9.0
60.59	7.0
60.605	12.0
60.62	14.0
60.635	21.0
60.65	3.0
60.665	2.0
60.68	5.0
60.695	6.0
60.71	4.0
60.725	3.0
60.74	2.0
60.755	7.0
60.77	3.0
60.785	2.0
60.8	4.0
60.815	4.0
60.83	4.0
60.845	2.0
60.86	2.0
60.875	5.0
60.89	4.0
60.905	8.0
60.92	2.0
60.935	3.0
60.95	3.0
60.965	4.0
60.98	9.0
60.995	2.0
61.01	5.0
61.025	3.0
61.04	5.0
61.055	7.0
61.07	4.0
61.085	2.0
61.1	3.0
61.115	4.0
61.13	3.0
61.145	7.0
61.16	9.0
61.175	3.0
61.191	4.0
61.206	3.0
61.221	8.0
61.236	1.0
61.251	6.0
61.266	0.0
61.281	3.0
61.296	5.0
61.311	3.0
61.326	7.0
61.341	4.0
61.356	4.0
61.371	8.0
61.386	4.0
61.401	7.0
61.416	1.0
61.431	7.0
61.446	8.0
61.461	9.0
61.476	4.0
61.491	6.0
61.506	12.0
61.521	7.0
61.536	7.0
61.551	6.0
61.566	2.0
61.581	7.0
61.596	3.0
61.611	2.0
61.626	3.0
61.641	2.0
61.656	6.0
61.672	4.0
61.687	1.0
61.702	2.0
61.717	2.0
61.732	3.0
61.747	2.0
61.762	3.0
61.777	3.0
61.792	3.0
61.807	7.0
61.822	2.0
61.837	3.0
61.852	1.0
61.867	2.0
61.882	2.0
61.897	5.0
61.912	1.0
61.927	6.0
61.943	4.0
61.958	2.0
61.973	2.0
61.988	5.0
62.003	4.0
62.018	5.0
62.033	5.0
62.048	3.0
62.063	1.0
62.078	3.0
62.093	5.0
62.108	5.0
62.123	9.0
62.138	3.0
62.153	5.0
62.169	4.0
62.184	1.0
62.199	2.0
62.214	3.0
62.229	3.0
62.244	4.0
62.259	2.0
62.274	4.0
62.289	5.0
62.304	2.0
62.319	4.0
62.335	5.0
62.35	3.0
62.365	6.0
62.38	2.0
62.395	4.0
62.41	5.0
62.425	3.0
62.44	4.0
62.455	5.0
62.47	2.0
62.485	6.0
62.501	10.0
62.516	2.0
62.531	7.0
62.546	2.0
62.561	3.0
62.576	1.0
62.591	3.0
62.606	4.0
62.621	3.0
62.636	3.0
62.652	1.0
62.667	5.0
62.682	2.0
62.697	3.0
62.712	2.0
62.727	4.0
62.742	2.0
62.757	6.0
62.772	4.0
62.787	2.0
62.803	4.0
62.818	4.0
62.833	4.0
62.848	6.0
62.863	0.0
62.878	3.0
62.893	9.0
62.908	3.0
62.923	7.0
62.939	4.0
62.954	3.0
62.969	2.0
62.984	3.0
62.999	5.0
63.014	0.0
63.029	3.0
63.044	7.0
63.059	1.0
63.074	3.0
63.09	3.0
63.105	2.0
63.12	4.0
63.135	4.0
63.15	3.0
63.165	8.0
63.18	0.0
63.195	2.0
63.21	6.0
63.226	3.0
63.241	7.0
63.256	4.0
63.271	2.0
63.286	4.0
63.301	5.0
63.316	6.0
63.331	5.0
63.346	3.0
63.362	8.0
63.377	9.0
63.392	9.0
63.407	9.0
63.422	10.0
63.437	6.0
63.452	8.0
63.467	5.0
63.482	6.0
63.497	4.0
63.513	6.0
63.528	6.0
63.543	3.0
63.558	5.0
63.573	4.0
63.588	4.0
63.603	6.0
63.618	6.0
63.633	1.0
63.648	2.0
63.664	3.0
63.679	6.0
63.694	3.0
63.709	5.0
63.724	2.0
63.739	2.0
63.754	6.0
63.769	4.0
63.784	8.0
63.799	7.0
63.814	6.0
63.83	10.0
63.845	9.0
63.86	7.0
63.875	4.0
63.89	4.0
63.905	5.0
63.92	2.0
63.935	4.0
63.95	2.0
63.965	5.0
63.98	2.0
63.996	3.0
64.011	1.0
64.026	0.0
64.041	2.0
64.056	2.0
64.071	1.0
64.086	1.0
64.101	5.0
64.116	4.0
64.131	10.0
64.146	3.0
64.161	6.0
64.176	3.0
64.191	4.0
64.207	6.0
64.222	7.0
64.237	3.0
64.252	6.0
64.267	2.0
64.282	2.0
64.297	3.0
64.312	5.0
64.327	3.0
64.342	4.0
64.357	1.0
64.372	2.0
64.387	6.0
64.402	4.0
64.417	1.0
64.433	1.0
64.448	3.0
64.463	5.0
64.478	2.0
64.493	2.0
64.508	1.0
64.523	7.0
64.538	3.0
64.553	4.0
64.568	1.0
64.583	3.0
64.598	4.0
64.613	4.0
64.628	1.0
64.643	7.0
64.658	3.0
64.673	7.0
64.688	2.0
64.703	4.0
64.718	2.0
64.734	2.0
64.749	4.0
64.764	3.0
64.779	5.0
64.794	4.0
64.809	4.0
64.824	2.0
64.839	3.0
64.854	1.0
64.869	0.0
64.884	1.0
64.899	4.0
64.914	2.0
64.929	5.0
64.944	5.0
64.959	1.0
64.974	0.0
64.989	6.0
65.004	2.0
65.019	2.0
65.034	5.0
65.049	4.0
65.064	2.0
65.079	3.0
65.094	5.0
65.109	6.0
65.125	3.0
65.14	3.0
65.155	1.0
65.17	3.0
65.185	6.0
65.2	2.0
65.215	4.0
65.23	2.0
65.245	4.0
65.26	2.0
65.275	4.0
65.29	2.0
65.305	6.0
65.32	5.0
65.335	5.0
65.35	6.0
65.365	2.0
65.38	3.0
65.395	1.0
65.41	2.0
65.425	1.0
65.44	5.0
65.455	3.0
65.47	1.0
65.485	2.0
65.5	0.0
65.515	4.0
65.53	5.0
65.545	2.0
65.56	4.0
65.575	5.0
65.59	5.0
65.605	2.0
65.62	6.0
65.635	3.0
65.65	0.0
65.666	3.0
65.681	5.0
65.696	4.0
65.711	8.0
65.726	4.0
65.741	4.0
65.756	4.0
65.771	4.0
65.786	7.0
65.801	6.0
65.816	5.0
65.831	4.0
65.846	3.0
65.861	5.0
65.876	1.0
65.891	2.0
65.906	1.0
65.921	3.0
65.936	5.0
65.951	2.0
65.966	7.0
65.981	3.0
65.996	2.0
66.011	5.0
66.026	4.0
66.041	7.0
66.056	2.0
66.071	2.0
66.086	6.0
66.101	7.0
66.116	5.0
66.131	7.0
66.146	7.0
66.161	5.0
66.176	9.0
66.191	9.0
66.206	9.0
66.221	3.0
66.236	1.0
66.251	6.0
66.266	6.0
66.281	5.0
66.296	4.0
66.311	3.0
66.327	3.0
66.342	5.0
66.357	1.0
66.372	5.0
66.387	4.0
66.402	4.0
66.417	4.0
66.432	5.0
66.447	6.0
66.462	1.0
66.477	6.0
66.492	2.0
66.507	2.0
66.522	3.0
66.537	5.0
66.552	3.0
66.567	4.0
66.582	5.0
66.597	9.0
66.612	8.0
66.627	0.0
66.642	4.0
66.657	5.0
66.672	6.0
66.687	5.0
66.702	5.0
66.717	8.0
66.732	2.0
66.747	4.0
66.762	2.0
66.777	2.0
66.792	2.0
66.807	3.0
66.822	4.0
66.837	3.0
66.853	2.0
66.868	2.0
66.883	3.0
66.898	6.0
66.913	4.0
66.928	2.0
66.943	2.0
66.958	3.0
66.973	4.0
66.988	7.0
67.003	6.0
67.018	5.0
67.033	6.0
67.048	3.0
67.063	7.0
67.078	7.0
67.093	2.0
67.108	3.0
67.123	8.0
67.138	9.0
67.153	4.0
67.168	2.0
67.183	2.0
67.198	2.0
67.214	2.0
67.229	2.0
67.244	2.0
67.259	3.0
67.274	0.0
67.289	5.0
67.304	4.0
67.319	3.0
67.334	7.0
67.349	3.0
67.364	3.0
67.379	2.0
67.394	3.0
67.409	4.0
67.424	3.0
67.439	6.0
67.454	1.0
67.469	2.0
67.484	6.0
67.5	4.0
67.515	3.0
67.53	2.0
67.545	5.0
67.56	4.0
67.575	5.0
67.59	5.0
67.605	2.0
67.62	11.0
67.635	3.0
67.65	3.0
67.665	2.0
67.68	5.0
67.695	3.0
67.71	5.0
67.726	3.0
67.741	1.0
67.756	3.0
67.771	5.0
67.786	5.0
67.801	5.0
67.816	1.0
67.831	1.0
67.846	6.0
67.861	5.0
67.876	7.0
67.891	3.0
67.906	3.0
67.922	6.0
67.937	4.0
67.952	3.0
67.967	3.0
67.982	9.0
67.997	2.0
68.012	6.0
68.027	5.0
68.042	3.0
68.057	9.0
68.072	1.0
68.087	6.0
68.103	3.0
68.118	6.0
68.133	4.0
68.148	4.0
68.163	2.0
68.178	5.0
68.193	5.0
68.208	4.0
68.223	2.0
68.238	6.0
68.254	1.0
68.269	1.0
68.284	2.0
68.299	2.0
68.314	3.0
68.329	5.0
68.344	3.0
68.359	1.0
68.374	3.0
68.389	7.0
68.405	4.0
68.42	5.0
68.435	7.0
68.45	3.0
68.465	3.0
68.48	7.0
68.495	2.0
68.51	1.0
68.525	2.0
68.54	4.0
68.556	1.0
68.571	0.0
68.586	8.0
68.601	5.0
68.616	6.0
68.631	3.0
68.646	2.0
68.661	2.0
68.676	4.0
68.691	1.0
68.707	4.0
68.722	5.0
68.737	3.0
68.752	5.0
68.767	5.0
68.782	3.0
68.797	3.0
68.812	1.0
68.827	3.0
68.842	4.0
68.857	4.0
68.873	5.0
68.888	3.0
68.903	5.0
68.918	3.0
68.933	2.0
68.948	4.0
68.963	6.0
68.978	6.0
68.993	5.0
69.008	1.0
69.023	3.0
69.038	3.0
69.054	3.0
69.069	4.0
69.084	1.0
69.099	2.0
69.114	3.0
69.129	2.0
69.144	5.0
69.159	6.0
69.174	1.0
69.189	6.0
69.204	2.0
69.219	7.0
69.234	4.0
69.249	3.0
69.264	2.0
69.279	2.0
69.295	6.0
69.31	5.0
69.325	6.0
69.34	7.0
69.355	3.0
69.37	4.0
69.385	3.0
69.4	3.0
69.415	6.0
69.43	0.0
69.445	3.0
69.46	5.0
69.475	2.0
69.49	1.0
69.505	6.0
69.52	2.0
69.535	2.0
69.55	9.0
69.565	1.0
69.58	3.0
69.595	6.0
69.61	1.0
69.625	6.0
69.64	4.0
69.655	7.0
69.67	4.0
69.685	4.0
69.7	4.0
69.715	9.0
69.73	9.0
69.745	4.0
69.76	11.0
69.775	9.0
69.79	4.0
69.805	6.0
69.82	9.0
69.835	4.0
69.85	5.0
69.865	6.0
69.88	3.0
69.895	8.0
69.909	4.0
69.924	2.0
69.939	3.0
69.954	5.0
69.969	0.0
69.984	3.0
69.999	4.0
70.014	4.0
70.029	5.0
70.044	4.0
70.059	4.0
70.074	3.0
70.088	3.0
70.103	5.0
70.118	5.0
70.133	4.0
70.148	3.0
70.163	6.0
70.178	4.0
70.193	3.0
70.208	6.0
70.222	7.0
70.237	6.0
70.252	5.0
70.267	5.0
70.282	11.0
70.297	4.0
70.312	8.0
70.327	8.0
70.341	3.0
70.356	9.0
70.371	3.0
70.386	2.0
70.401	2.0
70.416	5.0
70.43	3.0
70.445	5.0
70.46	5.0
70.475	4.0
70.49	1.0
70.505	6.0
70.519	4.0
70.534	6.0
70.549	1.0
70.564	7.0
70.579	4.0
70.594	3.0
70.608	6.0
70.623	1.0
70.638	5.0
70.653	4.0
70.668	5.0
70.683	5.0
70.697	9.0
70.712	4.0
70.727	3.0
70.742	8.0
70.757	3.0
70.771	5.0
70.786	4.0
70.801	1.0
70.816	5.0
70.831	6.0
70.845	4.0
70.86	3.0
70.875	1.0
70.89	8.0
70.905	6.0
70.92	5.0
70.934	0.0
70.949	3.0
70.964	1.0
70.979	2.0
70.994	4.0
71.008	4.0
71.023	2.0
71.038	5.0
71.053	4.0
71.068	3.0
71.082	5.0
71.097	1.0
71.112	1.0
71.127	1.0
71.142	6.0
71.156	2.0
71.171	8.0
71.186	7.0
71.201	6.0
71.216	4.0
71.231	3.0
71.245	1.0
71.26	3.0
71.275	4.0
71.29	5.0
71.305	5.0
71.319	6.0
71.334	2.0
71.349	4.0
71.364	5.0
71.379	4.0
71.394	6.0
71.408	3.0
71.423	1.0
71.438	4.0
71.453	5.0
71.468	5.0
71.483	3.0
71.497	7.0
71.512	0.0
71.527	2.0
71.542	3.0
71.557	3.0
71.572	8.0
71.586	2.0
71.601	5.0
71.616	4.0
71.631	2.0
71.646	3.0
71.661	3.0
71.676	3.0
71.69	3.0
71.705	2.0
71.72	4.0
71.735	7.0
71.75	2.0
71.765	2.0
71.78	2.0
71.795	4.0
71.81	1.0
71.824	3.0
71.839	2.0
71.854	5.0
71.869	0.0
71.884	3.0
71.899	1.0
71.914	3.0
71.929	4.0
71.944	1.0
71.959	1.0
71.974	4.0
71.988	4.0
72.003	3.0
72.018	4.0
72.033	3.0
72.048	4.0
72.063	3.0
72.078	1.0
72.093	3.0
72.108	2.0
72.123	7.0
72.138	1.0
72.153	3.0
72.168	2.0
72.183	3.0
72.198	3.0
72.213	5.0
72.228	2.0
72.243	3.0
72.258	3.0
72.273	4.0
72.288	1.0
72.303	3.0
72.318	4.0
72.333	0.0
72.348	2.0
72.363	2.0
72.378	5.0
72.393	2.0
72.408	4.0
72.423	2.0
72.438	3.0
72.453	5.0
72.468	5.0
72.483	3.0
72.498	2.0
72.513	3.0
72.528	1.0
72.543	7.0
72.558	4.0
72.573	3.0
72.588	0.0
72.603	1.0
72.618	6.0
72.633	4.0
72.649	4.0
72.664	2.0
72.679	3.0
72.694	5.0
72.709	7.0
72.724	3.0
72.739	1.0
72.754	6.0
72.769	3.0
72.784	4.0
72.799	4.0
72.814	2.0
72.829	7.0
72.845	2.0
72.86	4.0
72.875	3.0
72.89	4.0
72.905	5.0
72.92	1.0
72.935	3.0
72.95	2.0
72.965	3.0
72.98	4.0
72.996	6.0
73.011	7.0
73.026	4.0
73.041	3.0
73.056	3.0
73.071	2.0
73.086	3.0
73.101	1.0
73.117	4.0
73.132	4.0
73.147	5.0
73.162	5.0
73.177	5.0
73.192	2.0
73.207	4.0
73.222	7.0
73.238	2.0
73.253	1.0
73.268	2.0
73.283	2.0
73.298	4.0
73.313	3.0
73.328	7.0
73.343	3.0
73.359	5.0
73.374	10.0
73.389	1.0
73.404	2.0
73.419	5.0
73.434	3.0
73.449	6.0
73.465	1.0
73.48	2.0
73.495	2.0
73.51	2.0
73.525	2.0
73.54	1.0
73.556	3.0
73.571	1.0
73.586	6.0
73.601	1.0
73.616	1.0
73.631	3.0
73.646	3.0
73.662	3.0
73.677	2.0
73.692	3.0
73.707	3.0
73.722	2.0
73.737	4.0
73.752	3.0
73.768	4.0
73.783	1.0
73.798	3.0
73.813	7.0
73.828	6.0
73.843	3.0
73.859	3.0
73.874	4.0
73.889	8.0
73.904	2.0
73.919	4.0
73.934	6.0
73.949	2.0
73.965	4.0
73.98	5.0
73.995	6.0
74.01	1.0
74.025	3.0
74.04	2.0
74.056	3.0
74.071	5.0
74.086	3.0
74.101	5.0
74.116	5.0
74.131	2.0
74.146	7.0
74.162	5.0
74.177	4.0
74.192	6.0
74.207	5.0
74.222	7.0
74.237	6.0
74.252	5.0
74.268	2.0
74.283	9.0
74.298	5.0
74.313	4.0
74.328	5.0
74.343	4.0
74.358	3.0
74.374	6.0
74.389	5.0
74.404	3.0
74.419	7.0
74.434	0.0
74.449	3.0
74.464	3.0
74.48	2.0
74.495	3.0
74.51	5.0
74.525	2.0
74.54	2.0
74.555	6.0
74.57	3.0
74.586	5.0
74.601	3.0
74.616	2.0
74.631	3.0
74.646	5.0
74.661	4.0
74.676	5.0
74.691	3.0
74.707	5.0
74.722	1.0
74.737	3.0
74.752	1.0
74.767	7.0
74.782	0.0
74.797	7.0
74.813	5.0
74.828	1.0
74.843	3.0
74.858	2.0
74.873	3.0
74.888	4.0
74.903	1.0
74.918	2.0
74.934	6.0
74.949	3.0
74.964	4.0
74.979	6.0
74.994	5.0
75.009	5.0
75.024	4.0
75.04	5.0
75.055	6.0
75.07	7.0
75.085	6.0
75.1	8.0
75.115	4.0
75.13	2.0
75.145	2.0
75.161	1.0
75.176	3.0
75.191	6.0
75.206	2.0
75.221	3.0
75.236	3.0
75.251	4.0
75.266	1.0
75.282	4.0
75.297	3.0
75.312	2.0
75.327	0.0
75.342	3.0
75.357	2.0
75.372	7.0
75.387	3.0
75.403	4.0
75.418	4.0
75.433	5.0
75.448	3.0
75.463	4.0
75.478	1.0
75.493	3.0
75.509	4.0
75.524	5.0
75.539	6.0
75.554	6.0
75.569	2.0
75.584	4.0
75.599	5.0
75.614	5.0
75.63	3.0
75.645	3.0
75.66	3.0
75.675	5.0
75.69	1.0
75.705	5.0
75.72	3.0
75.735	2.0
75.751	5.0
75.766	3.0
75.781	4.0
75.796	7.0
75.811	2.0
75.826	3.0
75.841	5.0
75.856	2.0
75.872	4.0
75.887	8.0
75.902	3.0
75.917	6.0
75.932	4.0
75.947	3.0
75.962	1.0
75.977	5.0
75.993	5.0
76.008	1.0
76.023	4.0
76.038	4.0
76.053	3.0
76.068	4.0
76.083	3.0
76.098	6.0
76.114	1.0
76.129	4.0
76.144	7.0
76.159	1.0
76.174	0.0
76.189	4.0
76.204	3.0
76.22	0.0
76.235	6.0
76.25	3.0
76.265	6.0
76.28	7.0
76.295	2.0
76.31	4.0
76.325	4.0
76.341	0.0
76.356	6.0
76.371	1.0
76.386	3.0
76.401	3.0
76.416	8.0
76.431	5.0
76.446	5.0
76.462	1.0
76.477	2.0
76.492	3.0
76.507	4.0
76.522	5.0
76.537	1.0
76.552	5.0
76.567	1.0
76.583	1.0
76.598	3.0
76.613	3.0
76.628	4.0
76.643	4.0
76.658	4.0
76.673	4.0
76.688	2.0
76.704	1.0
76.719	5.0
76.734	4.0
76.749	7.0
76.764	5.0
76.779	3.0
76.794	3.0
76.809	3.0
76.824	8.0
76.84	5.0
76.855	3.0
76.87	7.0
76.885	2.0
76.9	7.0
76.915	4.0
76.93	4.0
76.945	4.0
76.96	4.0
76.976	3.0
76.991	5.0
77.006	2.0
77.021	3.0
77.036	2.0
77.051	1.0
77.066	4.0
77.081	2.0
77.096	7.0
77.112	4.0
77.127	3.0
77.142	2.0
77.157	4.0
77.172	1.0
77.187	2.0
77.202	2.0
77.217	3.0
77.232	3.0
77.247	4.0
77.263	2.0
77.278	2.0
77.293	2.0
77.308	4.0
77.323	5.0
77.338	4.0
77.353	2.0
77.368	3.0
77.383	5.0
77.398	2.0
77.413	3.0
77.428	5.0
77.444	4.0
77.459	1.0
77.474	1.0
77.489	2.0
77.504	5.0
77.519	4.0
77.534	9.0
77.549	5.0
77.564	5.0
77.579	4.0
77.594	1.0
77.609	7.0
77.624	5.0
77.64	6.0
77.655	4.0
77.67	5.0
77.685	3.0
77.7	2.0
77.715	6.0
77.73	3.0
77.745	3.0
77.76	7.0
77.775	3.0
77.79	2.0
77.805	5.0
77.82	5.0
77.835	3.0
77.85	5.0
77.865	1.0
77.88	3.0
77.895	1.0
77.91	6.0
77.926	0.0
77.941	3.0
77.956	0.0
77.971	2.0
77.986	0.0
78.001	4.0
78.016	2.0
78.031	4.0
78.046	3.0
78.061	3.0
78.076	3.0
78.091	2.0
78.106	5.0
78.121	5.0
78.136	2.0
78.151	6.0
78.166	6.0
78.181	5.0
78.196	6.0
78.211	7.0
78.226	3.0
78.241	4.0
78.256	4.0
78.271	2.0
78.286	2.0
78.301	1.0
78.316	2.0
78.331	5.0
78.346	1.0
78.361	3.0
78.376	1.0
78.391	4.0
78.406	0.0
78.421	4.0
78.436	2.0
78.451	1.0
78.466	5.0
78.481	1.0
78.496	4.0
78.511	7.0
78.526	3.0
78.541	5.0
78.556	5.0
78.571	1.0
78.586	4.0
78.601	1.0
78.616	4.0
78.631	1.0
78.646	3.0
78.661	5.0
78.676	6.0
78.691	2.0
78.706	2.0
78.721	4.0
78.736	2.0
78.751	2.0
78.766	2.0
78.781	2.0
78.796	4.0
78.811	3.0
78.826	2.0
78.841	3.0
78.856	2.0
78.871	0.0
78.885	1.0
78.9	0.0
78.915	3.0
78.93	2.0
78.945	2.0
78.96	3.0
78.975	3.0
78.99	3.0
79.005	2.0
79.02	4.0
79.035	5.0
79.05	0.0
79.065	4.0
79.08	3.0
79.095	3.0
79.11	3.0
79.125	4.0
79.14	1.0
79.155	2.0
79.17	0.0
79.185	3.0
79.2	3.0
79.215	4.0
79.23	5.0
79.245	4.0
79.26	2.0
79.275	6.0
79.29	5.0
79.304	4.0
79.319	3.0
79.334	6.0
79.349	2.0
79.364	4.0
79.379	4.0
79.394	2.0
79.409	0.0
79.424	5.0
79.439	6.0
79.454	4.0
79.469	6.0
79.484	3.0
79.499	2.0
79.514	4.0
79.529	4.0
79.544	4.0
79.559	3.0
79.574	1.0
79.589	2.0
79.604	3.0
79.619	1.0
79.634	3.0
79.649	0.0
79.664	3.0
79.679	0.0
79.693	4.0
79.708	2.0
79.723	0.0
79.738	8.0
79.753	7.0
79.768	3.0
79.783	4.0
79.798	2.0
79.813	7.0
79.828	2.0
79.843	2.0
79.858	3.0
79.873	0.0
79.888	6.0
79.903	1.0
79.918	6.0
79.933	3.0
79.948	1.0
79.963	5.0
79.978	4.0
79.993	1.0
80.008	1.0
80.023	6.0
80.038	3.0
80.053	4.0
80.068	5.0
80.083	5.0
80.098	10.0
80.113	3.0
80.128	6.0
80.143	4.0
80.158	2.0
80.173	2.0
80.188	1.0
80.202	4.0
80.217	9.0
80.232	3.0
80.247	1.0
80.262	3.0
80.277	1.0
80.292	2.0
80.307	4.0
80.322	3.0
80.337	1.0
80.352	4.0
80.367	1.0
80.382	6.0
80.397	0.0
80.412	4.0
80.427	2.0
80.442	4.0
80.457	5.0
80.472	3.0
80.487	2.0
80.502	1.0
80.517	3.0
80.532	3.0
80.547	2.0
80.562	5.0
80.577	1.0
80.592	4.0
80.607	1.0
80.622	6.0
80.637	4.0
80.652	2.0
80.667	1.0
80.682	2.0
80.697	4.0
80.712	6.0
80.727	4.0
80.742	2.0
80.757	7.0
80.772	2.0
80.787	3.0
80.802	5.0
80.817	4.0
80.832	3.0
80.847	2.0
80.862	4.0
80.877	3.0
80.892	2.0
80.907	7.0
80.922	0.0
80.937	0.0
80.952	4.0
80.967	2.0
80.982	3.0
80.997	2.0
81.012	7.0
81.027	5.0
81.042	1.0
81.057	2.0
81.072	2.0
81.087	6.0
81.101	4.0
81.116	4.0
81.131	3.0
81.146	2.0
81.161	3.0
81.176	4.0
81.191	3.0
81.206	4.0
81.221	4.0
81.236	2.0
81.251	2.0
81.266	6.0
81.281	3.0
81.296	5.0
81.311	3.0
81.326	4.0
81.341	1.0
81.356	2.0
81.371	2.0
81.386	0.0
81.401	1.0
81.416	0.0
81.431	5.0
81.446	3.0
81.461	1.0
81.476	4.0
81.491	3.0
81.506	1.0
81.521	2.0
81.536	0.0
81.55	2.0
81.565	5.0
81.58	4.0
81.595	3.0
81.61	4.0
81.625	7.0
81.64	2.0
81.655	1.0
81.67	3.0
81.685	3.0
81.7	1.0
81.715	1.0
81.73	1.0
81.745	2.0
81.76	2.0
81.775	3.0
81.79	2.0
81.805	2.0
81.819	4.0
81.834	4.0
81.849	5.0
81.864	5.0
81.879	2.0
81.894	3.0
81.909	3.0
81.924	1.0
81.939	3.0
81.954	8.0
81.969	5.0
81.984	0.0
81.999	1.0
82.013	4.0
82.028	4.0
82.043	3.0
82.058	3.0
82.073	3.0
82.088	2.0
82.103	2.0
82.118	2.0
82.133	4.0
82.148	2.0
82.163	3.0
82.177	2.0
82.192	3.0
82.207	2.0
82.222	2.0
82.237	5.0
82.252	1.0
82.267	1.0
82.282	1.0
82.297	3.0
82.312	6.0
82.326	6.0
82.341	0.0
82.356	3.0
82.371	2.0
82.386	8.0
82.401	8.0
82.416	3.0
82.431	3.0
82.445	5.0
82.46	4.0
82.475	4.0
82.49	2.0
82.505	5.0
82.52	1.0
82.535	3.0
82.55	5.0
82.565	5.0
82.579	2.0
82.594	5.0
82.609	5.0
82.624	4.0
82.639	7.0
82.654	3.0
82.669	3.0
82.684	2.0
82.698	2.0
82.713	3.0
82.728	2.0
82.743	0.0
82.758	3.0
82.773	1.0
82.788	6.0
82.803	4.0
82.817	3.0
82.832	4.0
82.847	1.0
82.862	1.0
82.877	3.0
82.892	1.0
82.907	3.0
82.922	3.0
82.937	2.0
82.951	3.0
82.966	0.0
82.981	6.0
82.996	2.0
83.011	1.0
83.026	1.0
83.041	5.0
83.056	3.0
83.07	2.0
83.085	3.0
83.1	3.0
83.115	2.0
83.13	0.0
83.145	4.0
83.16	4.0
83.175	7.0
83.19	3.0
83.204	3.0
83.219	2.0
83.234	2.0
83.249	2.0
83.264	1.0
83.279	3.0
83.294	3.0
83.309	2.0
83.324	3.0
83.339	5.0
83.353	4.0
83.368	2.0
83.383	0.0
83.398	3.0
83.413	2.0
83.428	4.0
83.443	4.0
83.458	3.0
83.473	1.0
83.488	3.0
83.503	2.0
83.517	2.0
83.532	3.0
83.547	0.0
83.562	6.0
83.577	4.0
83.592	8.0
83.607	8.0
83.622	3.0
83.637	6.0
83.652	2.0
83.667	1.0
83.682	5.0
83.697	2.0
83.712	3.0
83.727	0.0
83.741	2.0
83.756	6.0
83.771	2.0
83.786	4.0
83.801	5.0
83.816	3.0
83.831	3.0
83.846	3.0
83.861	7.0
83.876	1.0
83.891	2.0
83.906	3.0
83.921	1.0
83.936	3.0
83.951	2.0
83.966	2.0
83.981	4.0
83.996	1.0
84.011	4.0
84.026	3.0
84.041	3.0
84.056	4.0
84.071	1.0
84.086	3.0
84.101	5.0
84.116	3.0
84.131	2.0
84.146	7.0
84.161	2.0
84.176	1.0
84.191	5.0
84.206	2.0
84.221	3.0
84.236	2.0
84.251	2.0
84.266	5.0
84.281	1.0
84.296	8.0
84.311	5.0
84.326	8.0
84.341	3.0
84.356	4.0
84.371	4.0
84.386	8.0
84.401	6.0
84.416	3.0
84.431	3.0
84.446	4.0
84.461	2.0
84.476	5.0
84.492	1.0
84.507	8.0
84.522	0.0
84.537	3.0
84.552	4.0
84.567	10.0
84.582	2.0
84.597	6.0
84.612	0.0
84.627	2.0
84.642	6.0
84.657	1.0
84.672	1.0
84.687	3.0
84.702	1.0
84.717	4.0
84.733	2.0
84.748	2.0
84.763	2.0
84.778	3.0
84.793	1.0
84.808	5.0
84.823	3.0
84.838	4.0
84.853	4.0
84.868	4.0
84.883	3.0
84.898	3.0
84.913	5.0
84.929	3.0
84.944	2.0
84.959	3.0
84.974	3.0
84.989	3.0
85.004	4.0
85.019	5.0
85.034	2.0
85.049	1.0
85.064	6.0
85.079	4.0
85.094	5.0
85.11	7.0
85.125	3.0
85.14	5.0
85.155	0.0
85.17	5.0
85.185	0.0
85.2	5.0
85.215	0.0
85.23	1.0
85.245	5.0
85.26	2.0
85.276	3.0
85.291	2.0
85.306	3.0
85.321	5.0
85.336	0.0
85.351	4.0
85.366	3.0
85.381	0.0
85.396	2.0
85.411	2.0
85.426	1.0
85.441	6.0
85.457	3.0
85.472	4.0
85.487	1.0
85.502	2.0
85.517	4.0
85.532	2.0
85.547	2.0
85.562	3.0
85.577	1.0
85.592	2.0
85.607	3.0
85.622	5.0
85.637	4.0
85.653	3.0
85.668	3.0
85.683	2.0
85.698	2.0
85.713	1.0
85.728	2.0
85.743	5.0
85.758	2.0
85.773	3.0
85.788	3.0
85.803	1.0
85.818	4.0
85.833	5.0
85.848	3.0
85.863	3.0
85.879	2.0
85.894	2.0
85.909	4.0
85.924	3.0
85.939	2.0
85.954	1.0
85.969	3.0
85.984	4.0
85.999	2.0
86.014	3.0
86.029	5.0
86.044	5.0
86.059	3.0
86.074	4.0
86.089	3.0
86.104	3.0
86.119	6.0
86.134	4.0
86.149	2.0
86.164	3.0
86.179	4.0
86.194	6.0
86.209	6.0
86.224	2.0
86.239	2.0
86.254	3.0
86.269	4.0
86.284	6.0
86.299	2.0
86.314	2.0
86.33	4.0
86.345	1.0
86.36	2.0
86.375	4.0
86.39	5.0
86.405	7.0
86.42	7.0
86.435	5.0
86.45	3.0
86.465	3.0
86.48	4.0
86.495	3.0
86.51	3.0
86.525	1.0
86.54	4.0
86.555	2.0
86.57	5.0
86.585	1.0
86.6	2.0
86.615	3.0
86.63	7.0
86.645	1.0
86.659	5.0
86.674	4.0
86.689	2.0
86.704	2.0
86.719	1.0
86.734	1.0
86.749	4.0
86.764	4.0
86.779	3.0
86.794	3.0
86.809	4.0
86.824	8.0
86.839	5.0
86.854	1.0
86.869	4.0
86.884	4.0
86.899	3.0
86.914	4.0
86.929	4.0
86.944	6.0
86.959	7.0
86.974	4.0
86.989	3.0
87.004	3.0
87.019	2.0
87.034	4.0
87.049	1.0
87.064	4.0
87.079	2.0
87.094	2.0
87.109	2.0
87.124	4.0
87.139	2.0
87.154	7.0
87.169	5.0
87.184	4.0
87.199	4.0
87.214	4.0
87.229	0.0
87.244	4.0
87.259	0.0
87.274	4.0
87.289	6.0
87.304	1.0
87.319	5.0
87.334	3.0
87.349	3.0
87.364	3.0
87.379	3.0
87.394	3.0
87.409	2.0
87.424	1.0
87.438	5.0
87.453	2.0
87.468	3.0
87.483	4.0
87.498	2.0
87.513	3.0
87.528	6.0
87.543	5.0
87.558	3.0
87.573	3.0
87.588	4.0
87.603	6.0
87.618	5.0
87.633	7.0
87.648	5.0
87.663	3.0
87.678	2.0
87.693	5.0
87.708	2.0
87.723	5.0
87.738	1.0
87.753	6.0
87.768	8.0
87.783	5.0
87.798	2.0
87.813	5.0
87.828	4.0
87.843	1.0
87.858	4.0
87.873	2.0
87.888	1.0
87.903	6.0
87.918	0.0
87.933	3.0
87.948	4.0
87.963	6.0
87.978	4.0
87.993	3.0
88.008	4.0
88.023	4.0
88.038	1.0
88.053	7.0
88.068	2.0
88.083	5.0
88.098	3.0
88.113	3.0
88.128	3.0
88.143	2.0
88.158	4.0
88.174	2.0
88.189	1.0
88.204	0.0
88.219	4.0
88.234	3.0
88.249	6.0
88.264	2.0
88.279	2.0
88.294	5.0
88.309	2.0
88.324	5.0
88.339	3.0
88.354	3.0
88.369	3.0
88.384	2.0
88.399	2.0
88.414	4.0
88.429	4.0
88.444	3.0
88.459	5.0
88.474	7.0
88.489	4.0
88.504	4.0
88.519	3.0
88.534	1.0
88.549	0.0
88.564	1.0
88.58	3.0
88.595	6.0
88.61	4.0
88.625	5.0
88.64	2.0
88.655	3.0
88.67	1.0
88.685	3.0
88.7	7.0
88.715	4.0
88.73	5.0
88.745	0.0
88.76	2.0
88.775	5.0
88.79	5.0
88.805	1.0
88.82	2.0
88.835	3.0
88.85	3.0
88.865	1.0
88.88	1.0
88.895	4.0
88.911	0.0
88.926	7.0
88.941	4.0
88.956	2.0
88.971	2.0
88.986	4.0
89.001	4.0
89.016	0.0
89.031	3.0
89.046	4.0
89.061	3.0
89.076	0.0
89.091	2.0
89.106	8.0
89.121	2.0
89.136	0.0
89.151	1.0
89.166	3.0
89.181	0.0
89.196	5.0
89.211	2.0
89.227	0.0
89.242	0.0
89.257	3.0
89.272	5.0
89.287	1.0
89.302	2.0
89.317	4.0
89.332	1.0
89.347	1.0
89.362	5.0
89.377	3.0
89.392	3.0
89.407	3.0
89.422	1.0
89.437	3.0
89.452	3.0
89.467	0.0
89.482	4.0
89.497	4.0
89.512	1.0
89.527	0.0
89.542	2.0
89.557	3.0
89.572	5.0
89.587	1.0
89.602	2.0
89.617	2.0
89.632	6.0
89.647	5.0
89.662	4.0
89.677	2.0
89.693	1.0
89.708	1.0
89.723	3.0
89.738	2.0
89.753	6.0
89.768	3.0
89.783	2.0
89.798	4.0
89.813	0.0
89.828	5.0
89.843	3.0
89.858	2.0
89.873	5.0
89.888	2.0
89.903	10.0
89.918	3.0
89.933	2.0
89.948	5.0
89.963	2.0
89.978	1.0
89.993	6.0
90.008	1.0
90.023	1.0
90.038	3.0
90.053	1.0
90.068	1.0
90.083	4.0
90.097	3.0
90.112	6.0
90.127	3.0
90.142	3.0
90.157	5.0
90.172	1.0
90.187	4.0
90.202	2.0
90.217	7.0
90.232	4.0
90.247	3.0
90.262	5.0
90.277	8.0
90.292	4.0
90.307	1.0
90.322	1.0
90.337	4.0
90.352	5.0
90.367	4.0
90.382	5.0
90.397	1.0
90.412	7.0
90.427	6.0
90.442	3.0
90.457	5.0
90.472	5.0
90.487	8.0
90.501	3.0
90.516	3.0
90.531	5.0
90.546	4.0
90.561	2.0
90.576	5.0
90.591	4.0
90.606	5.0
90.621	2.0
90.636	3.0
90.651	4.0
90.666	2.0
90.681	2.0
90.696	2.0
90.711	2.0
90.726	3.0
90.741	1.0
90.755	2.0
90.77	5.0
90.785	5.0
90.8	5.0
90.815	5.0
90.83	3.0
90.845	2.0
90.86	3.0
90.875	3.0
90.89	4.0
90.905	5.0
90.92	4.0
90.935	3.0
90.95	2.0
90.965	10.0
90.979	0.0
90.994	3.0
91.009	1.0
91.024	9.0
91.039	1.0
91.054	3.0
91.069	3.0
91.084	6.0
91.099	3.0
91.114	3.0
91.129	3.0
91.144	3.0
91.159	2.0
91.174	2.0
91.188	5.0
91.203	3.0
91.218	2.0
91.233	0.0
91.248	2.0
91.263	4.0
91.278	4.0
91.293	3.0
91.308	2.0
91.323	5.0
91.338	2.0
91.353	1.0
91.368	1.0
91.383	3.0
91.398	3.0
91.412	1.0
91.427	4.0
91.442	1.0
91.457	0.0
91.472	1.0
91.487	2.0
91.502	9.0
91.517	3.0
91.532	8.0
91.547	3.0
91.562	5.0
91.577	2.0
91.592	3.0
91.607	4.0
91.622	4.0
91.637	4.0
91.652	1.0
91.666	3.0
91.681	4.0
91.696	4.0
91.711	2.0
91.726	2.0
91.741	3.0
91.756	6.0
91.771	2.0
91.786	3.0
91.801	1.0
91.816	6.0
91.831	2.0
91.846	0.0
91.861	4.0
91.876	3.0
91.891	1.0
91.906	3.0
91.921	3.0
91.936	2.0
91.951	2.0
91.966	6.0
91.981	2.0
91.995	4.0
92.01	0.0
92.025	2.0
92.04	3.0
92.055	1.0
92.07	2.0
92.085	4.0
92.1	2.0
92.115	1.0
92.13	4.0
92.145	2.0
92.16	4.0
92.175	3.0
92.19	2.0
92.205	4.0
92.22	3.0
92.235	4.0
92.25	4.0
92.265	5.0
92.28	3.0
92.295	3.0
92.31	2.0
92.325	1.0
92.34	1.0
92.355	0.0
92.37	2.0
92.385	4.0
92.4	2.0
92.415	1.0
92.43	5.0
92.445	2.0
92.46	2.0
92.475	2.0
92.49	4.0
92.505	1.0
92.52	3.0
92.535	4.0
92.55	4.0
92.565	1.0
92.58	2.0
92.595	2.0
92.61	5.0
92.625	3.0
92.64	5.0
92.655	3.0
92.67	4.0
92.685	5.0
92.7	4.0
92.715	2.0
92.73	3.0
92.745	3.0
92.76	3.0
92.775	4.0
92.79	3.0
92.805	5.0
92.82	5.0
92.835	1.0
92.85	2.0
92.865	3.0
92.88	4.0
92.895	2.0
92.91	4.0
92.925	5.0
92.94	3.0
92.955	3.0
92.97	0.0
92.985	1.0
93.0	3.0
93.015	3.0
93.03	0.0
93.045	2.0
93.06	2.0
93.075	5.0
93.09	0.0
93.105	3.0
93.12	2.0
93.135	0.0
93.15	1.0
93.165	3.0
93.18	4.0
93.195	1.0
93.21	8.0
93.225	4.0
93.24	4.0
93.255	0.0
93.27	5.0
93.285	3.0
93.3	2.0
93.315	3.0
93.33	5.0
93.345	3.0
93.36	3.0
93.375	3.0
93.39	4.0
93.405	4.0
93.42	0.0
93.435	4.0
93.45	6.0
93.465	3.0
93.48	2.0
93.495	5.0
93.51	2.0
93.525	4.0
93.54	2.0
93.555	4.0
93.57	4.0
93.585	4.0
93.6	2.0
93.615	6.0
93.63	6.0
93.645	2.0
93.66	3.0
93.675	4.0
93.69	2.0
93.705	7.0
93.72	1.0
93.735	3.0
93.75	0.0
93.765	3.0
93.78	2.0
93.795	2.0
93.81	6.0
93.824	4.0
93.839	5.0
93.854	3.0
93.869	1.0
93.884	2.0
93.899	4.0
93.914	3.0
93.929	3.0
93.944	0.0
93.959	1.0
93.974	3.0
93.989	2.0
94.004	1.0
94.019	1.0
94.034	3.0
94.049	0.0
94.064	3.0
94.079	3.0
94.094	4.0
94.108	3.0
94.123	3.0
94.138	6.0
94.153	3.0
94.168	2.0
94.183	1.0
94.198	5.0
94.213	1.0
94.228	3.0
94.243	5.0
94.258	7.0
94.273	0.0
94.288	2.0
94.302	5.0
94.317	6.0
94.332	7.0
94.347	4.0
94.362	5.0
94.377	4.0
94.392	2.0
94.407	2.0
94.422	4.0
94.437	2.0
94.452	7.0
94.466	6.0
94.481	3.0
94.496	4.0
94.511	6.0
94.526	3.0
94.541	3.0
94.556	8.0
94.571	4.0
94.586	2.0
94.601	2.0
94.615	6.0
94.63	4.0
94.645	6.0
94.66	3.0
94.675	5.0
94.69	1.0
94.705	1.0
94.72	5.0
94.735	2.0
94.749	2.0
94.764	3.0
94.779	2.0
94.794	5.0
94.809	4.0
94.824	3.0
94.839	2.0
94.854	1.0
94.868	3.0
94.883	1.0
94.898	10.0
94.913	3.0
94.928	1.0
94.943	4.0
94.958	1.0
94.973	8.0
94.987	6.0
95.002	3.0
95.017	2.0
95.032	1.0
95.047	5.0
95.062	3.0
95.077	5.0
95.092	6.0
95.106	5.0
95.121	1.0
95.136	6.0
95.151	5.0
95.166	6.0
95.181	6.0
95.196	4.0
95.211	5.0
95.226	3.0
95.24	6.0
95.255	1.0
95.27	3.0
95.285	1.0
95.3	1.0
95.315	3.0
95.33	2.0
95.345	6.0
95.359	8.0
95.374	4.0
95.389	2.0
95.404	3.0
95.419	4.0
95.434	0.0
95.449	1.0
95.464	0.0
95.478	4.0
95.493	3.0
95.508	4.0
95.523	4.0
95.538	7.0
95.553	1.0
95.568	2.0
95.583	3.0
95.597	2.0
95.612	1.0
95.627	4.0
95.642	4.0
95.657	1.0
95.672	6.0
95.687	3.0
95.702	1.0
95.717	2.0
95.731	6.0
95.746	4.0
95.761	5.0
95.776	2.0
95.791	2.0
95.806	3.0
95.821	4.0
95.836	5.0
95.851	4.0
95.866	1.0
95.88	2.0
95.895	0.0
95.91	3.0
95.925	3.0
95.94	2.0
95.955	4.0
95.97	5.0
95.985	0.0
96.0	3.0
96.015	7.0
96.029	3.0
96.044	4.0
96.059	3.0
96.074	2.0
96.089	3.0
96.104	4.0
96.119	1.0
96.134	4.0
96.149	2.0
96.164	4.0
96.179	5.0
96.194	6.0
96.208	2.0
96.223	3.0
96.238	3.0
96.253	4.0
96.268	2.0
96.283	3.0
96.298	6.0
96.313	3.0
96.328	3.0
96.343	1.0
96.358	2.0
96.373	2.0
96.388	3.0
96.403	2.0
96.417	4.0
96.432	3.0
96.447	2.0
96.462	1.0
96.477	3.0
96.492	4.0
96.507	4.0
96.522	2.0
96.537	5.0
96.552	6.0
96.567	4.0
96.582	3.0
96.597	4.0
96.612	1.0
96.627	4.0
96.642	5.0
96.656	3.0
96.671	1.0
96.686	2.0
96.701	3.0
96.716	3.0
96.731	3.0
96.746	2.0
96.761	2.0
96.776	3.0
96.791	0.0
96.806	2.0
96.821	1.0
96.836	2.0
96.851	1.0
96.866	3.0
96.881	6.0
96.896	11.0
96.911	3.0
96.926	7.0
96.94	3.0
96.955	0.0
96.97	6.0
96.985	6.0
97.0	3.0
97.015	1.0
97.03	2.0
97.045	2.0
97.06	4.0
97.075	6.0
97.09	4.0
97.105	3.0
97.12	4.0
97.135	2.0
97.15	2.0
97.165	6.0
97.18	5.0
97.195	1.0
97.21	4.0
97.225	3.0
97.239	4.0
97.254	2.0
97.269	3.0
97.284	4.0
97.299	2.0
97.314	2.0
97.329	3.0
97.344	6.0
97.359	3.0
97.374	0.0
97.389	1.0
97.404	3.0
97.419	1.0
97.434	1.0
97.449	8.0
97.464	5.0
97.479	4.0
97.494	4.0
97.509	3.0
97.524	0.0
97.538	1.0
97.553	1.0
97.568	2.0
97.583	2.0
97.598	2.0
97.613	3.0
97.628	2.0
97.643	3.0
97.658	2.0
97.673	2.0
97.688	6.0
97.703	4.0
97.718	2.0
97.733	3.0
97.748	2.0
97.763	1.0
97.778	7.0
97.792	6.0
97.807	5.0
97.822	2.0
97.837	1.0
97.852	4.0
97.867	3.0
97.882	5.0
97.897	4.0
97.912	0.0
97.927	1.0
97.942	5.0
97.957	3.0
97.972	2.0
97.987	4.0
98.001	3.0
98.016	2.0
98.031	1.0
98.046	3.0
98.061	6.0
98.076	2.0
98.091	3.0
98.106	4.0
98.121	1.0
98.136	1.0
98.151	4.0
98.166	5.0
98.181	3.0
98.195	2.0
98.21	4.0
98.225	1.0
98.24	6.0
98.255	2.0
98.27	4.0
98.285	3.0
98.3	3.0
98.315	0.0
98.33	5.0
98.345	2.0
98.359	3.0
98.374	4.0
98.389	2.0
98.404	1.0
98.419	5.0
98.434	0.0
98.449	4.0
98.464	3.0
98.479	5.0
98.494	5.0
98.508	4.0
98.523	3.0
98.538	2.0
98.553	4.0
98.568	2.0
98.583	1.0
98.598	7.0
98.613	1.0
98.628	3.0
98.642	5.0
98.657	3.0
98.672	2.0
98.687	1.0
98.702	0.0
98.717	5.0
98.732	2.0
98.747	5.0
98.762	5.0
98.776	7.0
98.791	3.0
98.806	2.0
98.821	5.0
98.836	3.0
98.851	3.0
98.866	4.0
98.881	2.0
98.896	4.0
98.91	3.0
98.925	3.0
98.94	4.0
98.955	5.0
98.97	2.0
98.985	3.0
99.0	4.0
99.015	2.0
99.029	3.0
99.044	3.0
99.059	3.0
99.074	2.0
99.089	1.0
99.104	2.0
99.119	6.0
99.133	5.0
99.148	0.0
99.163	1.0
99.178	1.0
99.193	5.0
99.208	3.0
99.223	2.0
99.238	3.0
99.252	4.0
99.267	2.0
99.282	2.0
99.297	3.0
99.312	2.0
99.327	0.0
99.342	6.0
99.356	4.0
99.371	4.0
99.386	4.0
99.401	1.0
99.416	9.0
99.431	4.0
99.446	2.0
99.461	5.0
99.475	2.0
99.49	2.0
99.505	5.0
99.52	7.0
99.535	7.0
99.55	1.0
99.565	3.0
99.579	1.0
99.594	4.0
99.609	3.0
99.624	1.0
99.639	3.0
99.654	2.0
99.669	2.0
99.683	3.0
99.698	3.0
99.713	0.0
99.728	4.0
99.743	8.0
99.758	4.0
99.772	4.0
99.787	1.0
99.802	1.0
99.817	3.0
99.832	6.0
99.847	5.0
99.862	6.0
99.876	4.0
99.891	3.0
99.906	2.0
99.921	4.0
99.936	2.0
99.951	4.0
99.966	5.0
99.98	1.0
99.995	0.0
100.01	7.0
100.025	2.0
100.04	4.0
100.055	6.0
100.069	2.0
100.084	6.0
100.099	3.0
100.114	3.0
100.129	2.0
100.144	1.0
100.159	1.0
100.173	5.0
100.188	3.0
100.203	3.0
100.218	2.0
100.233	6.0
100.248	7.0
100.262	3.0
100.277	4.0
100.292	1.0
100.307	3.0
100.322	0.0
100.337	4.0
100.351	3.0
100.366	1.0
100.381	6.0
100.396	2.0
100.411	5.0
100.426	5.0
100.441	6.0
100.455	5.0
100.47	3.0
100.485	2.0
100.5	1.0
100.515	3.0
100.53	4.0
100.544	3.0
100.559	3.0
100.574	3.0
100.589	4.0
100.604	3.0
100.619	1.0
100.633	0.0
100.648	4.0
100.663	4.0
100.678	2.0
100.693	3.0
100.708	1.0
100.722	2.0
100.737	4.0
100.752	3.0
100.767	3.0
100.782	4.0
100.796	3.0
100.811	2.0
100.826	4.0
100.841	2.0
100.856	1.0
100.871	4.0
100.885	3.0
100.9	1.0
100.915	2.0
100.93	3.0
100.945	1.0
100.96	1.0
100.974	2.0
100.989	3.0
101.004	4.0
101.019	1.0
101.034	1.0
101.048	2.0
101.063	2.0
101.078	5.0
101.093	6.0
101.108	3.0
101.123	3.0
101.137	6.0
101.152	1.0
101.167	4.0
101.182	5.0
101.197	3.0
101.211	4.0
101.226	2.0
101.241	4.0
101.256	6.0
101.271	4.0
101.285	4.0
101.3	2.0
101.315	1.0
101.33	8.0
101.345	2.0
101.359	0.0
101.374	1.0
101.389	1.0
101.404	6.0
101.419	6.0
101.433	2.0
101.448	2.0
101.463	2.0
101.478	2.0
101.493	0.0
101.507	5.0
101.522	1.0
101.537	2.0
101.552	3.0
101.567	1.0
101.581	4.0
101.596	2.0
101.611	4.0
101.626	5.0
101.64	2.0
101.655	3.0
101.67	1.0
101.685	1.0
101.7	2.0
101.714	5.0
101.729	2.0
101.744	2.0
101.759	3.0
101.773	1.0
101.788	1.0
101.803	3.0
101.818	2.0
101.833	1.0
101.847	2.0
101.862	2.0
101.877	6.0
101.892	2.0
101.906	3.0
101.921	6.0
101.936	5.0
101.951	8.0
101.965	5.0
101.98	7.0
101.995	6.0
102.01	5.0
102.025	5.0
102.039	3.0
102.054	6.0
102.069	0.0
102.084	9.0
102.098	6.0
102.113	7.0
102.128	3.0
102.143	2.0
102.157	0.0
102.172	0.0
102.187	2.0
102.202	2.0
102.216	2.0
102.231	2.0
102.246	2.0
102.261	6.0
102.275	2.0
102.29	5.0
102.305	3.0
102.32	1.0
102.334	5.0
102.349	3.0
102.364	4.0
102.378	4.0
102.393	4.0
102.408	4.0
102.423	4.0
102.437	2.0
102.452	5.0
102.467	7.0
102.482	2.0
102.496	3.0
102.511	2.0
102.526	7.0
102.541	3.0
102.555	2.0
102.57	4.0
102.585	6.0
102.6	1.0
102.614	4.0
102.629	8.0
102.644	1.0
102.659	1.0
102.673	2.0
102.688	2.0
102.703	4.0
102.717	6.0
102.732	3.0
102.747	4.0
102.762	4.0
102.776	0.0
102.791	3.0
102.806	3.0
102.821	4.0
102.835	0.0
102.85	1.0
102.865	4.0
102.88	1.0
102.894	1.0
102.909	5.0
102.924	4.0
102.938	6.0
102.953	4.0
102.968	4.0
102.983	2.0
102.997	3.0
103.012	4.0
103.027	1.0
103.042	0.0
103.056	1.0
103.071	3.0
103.086	3.0
103.101	1.0
103.115	2.0
103.13	2.0
103.145	1.0
103.16	0.0
103.174	6.0
103.189	6.0
103.204	3.0
103.219	2.0
103.233	2.0
103.248	2.0
103.263	5.0
103.278	1.0
103.292	0.0
103.307	1.0
103.322	4.0
103.337	4.0
103.351	2.0
103.366	2.0
103.381	2.0
103.396	1.0
103.41	2.0
103.425	4.0
103.44	6.0
103.455	6.0
103.469	1.0
103.484	3.0
103.499	3.0
103.514	1.0
103.529	4.0
103.543	1.0
103.558	1.0
103.573	2.0
103.588	0.0
103.602	1.0
103.617	5.0
103.632	2.0
103.647	1.0
103.661	2.0
103.676	2.0
103.691	4.0
103.706	6.0
103.721	1.0
103.735	5.0
103.75	3.0
103.765	4.0
103.78	9.0
103.795	3.0
103.809	2.0
103.824	3.0
103.839	4.0
103.854	7.0
103.869	4.0
103.883	6.0
103.898	2.0
103.913	4.0
103.928	4.0
103.943	4.0
103.957	5.0
103.972	2.0
103.987	3.0
104.002	3.0
104.017	6.0
104.031	0.0
104.046	2.0
104.061	1.0
104.076	9.0
104.091	4.0
104.106	1.0
104.12	2.0
104.135	4.0
104.15	0.0
104.165	5.0
104.18	6.0
104.195	4.0
104.209	4.0
104.224	1.0
104.239	3.0
104.254	6.0
104.269	3.0
104.284	4.0
104.299	2.0
104.313	3.0
104.328	3.0
104.343	2.0
104.358	3.0
104.373	3.0
104.388	3.0
104.403	1.0
104.417	2.0
104.432	1.0
104.447	4.0
104.462	2.0
104.477	7.0
104.492	4.0
104.507	3.0
104.522	4.0
104.536	3.0
104.551	3.0
104.566	6.0
104.581	0.0
104.596	6.0
104.611	6.0
104.626	2.0
104.641	4.0
104.656	7.0
104.67	7.0
104.685	3.0
104.7	6.0
104.715	1.0
104.73	1.0
104.745	2.0
104.76	1.0
104.775	1.0
104.79	1.0
104.804	2.0
104.819	3.0
104.834	2.0
104.849	5.0
104.864	2.0
104.879	2.0
104.894	1.0
104.909	3.0
104.924	2.0
104.939	3.0
104.954	4.0
104.968	8.0
104.983	5.0
104.998	2.0
105.013	1.0
105.028	2.0
105.043	3.0
105.058	3.0
105.073	2.0
105.088	5.0
105.103	5.0
105.118	5.0
105.133	1.0
105.147	4.0
105.162	4.0
105.177	4.0
105.192	4.0
105.207	6.0
105.222	2.0
105.237	2.0
105.252	2.0
105.267	3.0
105.282	3.0
105.297	9.0
105.312	2.0
105.327	3.0
105.342	3.0
105.356	6.0
105.371	2.0
105.386	3.0
105.401	1.0
105.416	4.0
105.431	3.0
105.446	3.0
105.461	4.0
105.476	7.0
105.491	6.0
105.506	4.0
105.521	4.0
105.536	2.0
105.551	3.0
105.566	2.0
105.581	5.0
105.595	2.0
105.61	5.0
105.625	1.0
105.64	3.0
105.655	2.0
105.67	6.0
105.685	1.0
105.7	2.0
105.715	4.0
105.73	2.0
105.745	2.0
105.76	4.0
105.775	2.0
105.79	0.0
105.805	1.0
105.82	3.0
105.835	3.0
105.85	0.0
105.864	4.0
105.879	1.0
105.894	3.0
105.909	1.0
105.924	3.0
105.939	2.0
105.954	1.0
105.969	4.0
105.984	1.0
105.999	1.0
106.014	4.0
106.029	4.0
106.044	2.0
106.059	2.0
106.074	6.0
106.089	4.0
106.104	4.0
106.119	2.0
106.134	2.0
106.148	1.0
106.163	5.0
106.178	5.0
106.193	4.0
106.208	2.0
106.223	1.0
106.238	5.0
106.253	1.0
106.268	4.0
106.283	1.0
106.298	6.0
106.313	2.0
106.328	2.0
106.343	2.0
106.358	5.0
106.373	5.0
106.388	2.0
106.403	2.0
106.418	6.0
106.432	3.0
106.447	1.0
106.462	6.0
106.477	0.0
106.492	2.0
106.507	3.0
106.522	3.0
106.537	3.0
106.552	4.0
106.567	0.0
106.582	4.0
106.597	4.0
106.612	4.0
106.627	1.0
106.642	3.0
106.657	4.0
106.672	3.0
106.687	6.0
106.701	5.0
106.716	4.0
106.731	3.0
106.746	3.0
106.761	5.0
106.776	2.0
106.791	2.0
106.806	5.0
106.821	0.0
106.836	7.0
106.851	3.0
106.866	2.0
106.881	2.0
106.896	3.0
106.911	3.0
106.926	4.0
106.941	5.0
106.955	4.0
106.97	3.0
106.985	2.0
107.0	5.0
107.015	4.0
107.03	1.0
107.045	2.0
107.06	2.0
107.075	4.0
107.09	5.0
107.105	4.0
107.12	2.0
107.135	5.0
107.15	5.0
107.165	9.0
107.18	8.0
107.194	3.0
107.209	7.0
107.224	5.0
107.239	1.0
107.254	3.0
107.269	4.0
107.284	3.0
107.299	3.0
107.314	3.0
107.329	2.0
107.344	4.0
107.359	3.0
107.374	2.0
107.389	3.0
107.404	2.0
107.418	5.0
107.433	2.0
107.448	4.0
107.463	4.0
107.478	0.0
107.493	3.0
107.508	3.0
107.523	2.0
107.538	2.0
107.553	2.0
107.568	4.0
107.583	1.0
107.598	5.0
107.613	2.0
107.627	3.0
107.642	4.0
107.657	3.0
107.672	2.0
107.687	7.0
107.702	4.0
107.717	2.0
107.732	3.0
107.747	1.0
107.762	2.0
107.777	3.0
107.792	2.0
107.807	4.0
107.821	4.0
107.836	2.0
107.851	1.0
107.866	5.0
107.881	4.0
107.896	7.0
107.911	5.0
107.926	0.0
107.941	5.0
107.956	1.0
107.971	8.0
107.986	3.0
108.0	2.0
108.015	4.0
108.03	1.0
108.045	4.0
108.06	3.0
108.075	2.0
108.09	8.0
108.105	4.0
108.12	8.0
108.135	5.0
108.15	6.0
108.164	5.0
108.179	2.0
108.194	5.0
108.209	4.0
108.224	7.0
108.239	2.0
108.254	4.0
108.269	5.0
108.284	3.0
108.299	5.0
108.313	5.0
108.328	3.0
108.343	0.0
108.358	2.0
108.373	3.0
108.388	3.0
108.403	2.0
108.418	3.0
108.433	6.0
108.448	6.0
108.462	1.0
108.477	2.0
108.492	6.0
108.507	3.0
108.522	3.0
108.537	2.0
108.552	3.0
108.567	2.0
108.582	4.0
108.597	2.0
108.611	5.0
108.626	1.0
108.641	0.0
108.656	2.0
108.671	0.0
108.686	2.0
108.701	4.0
108.716	2.0
108.731	1.0
108.745	1.0
108.76	3.0
108.775	0.0
108.79	3.0
108.805	3.0
108.82	1.0
108.835	5.0
108.85	1.0
108.865	6.0
108.879	1.0
108.894	1.0
108.909	4.0
108.924	5.0
108.939	1.0
108.954	3.0
108.969	1.0
108.984	4.0
108.999	5.0
109.013	5.0
109.028	3.0
109.043	5.0
109.058	2.0
109.073	5.0
109.088	6.0
109.103	2.0
109.118	6.0
109.133	5.0
109.147	4.0
109.162	3.0
109.177	3.0
109.192	4.0
109.207	3.0
109.222	3.0
109.237	1.0
109.252	4.0
109.267	7.0
109.281	0.0
109.296	3.0
109.311	0.0
109.326	6.0
109.341	2.0
109.356	4.0
109.371	3.0
109.386	3.0
109.4	5.0
109.415	1.0
109.43	2.0
109.445	5.0
109.46	1.0
109.475	1.0
109.49	0.0
109.505	4.0
109.52	1.0
109.534	3.0
109.549	2.0
109.564	3.0
109.579	1.0
109.594	4.0
109.609	6.0
109.624	1.0
109.639	6.0
109.653	1.0
109.668	3.0
109.683	2.0
109.698	4.0
109.713	3.0
109.728	3.0
109.743	2.0
109.758	2.0
109.773	7.0
109.787	1.0
109.802	2.0
109.817	2.0
109.832	2.0
109.847	3.0
109.862	1.0
109.877	2.0
109.892	4.0
109.907	2.0
109.921	1.0
109.936	4.0
109.951	3.0
109.966	3.0
109.981	1.0
109.996	6.0
110.011	3.0
110.026	4.0
110.04	2.0
110.055	0.0
110.07	3.0
110.085	5.0
110.1	0.0
110.115	8.0
110.13	5.0
110.145	5.0
110.16	1.0
110.174	2.0
110.189	2.0
110.204	3.0
110.219	5.0
110.234	2.0
110.249	4.0
110.264	1.0
110.279	2.0
110.294	2.0
110.308	3.0
110.323	1.0
110.338	4.0
110.353	5.0
110.368	5.0
110.383	1.0
110.398	4.0
110.413	4.0
110.428	0.0
110.442	7.0
110.457	4.0
110.472	6.0
110.487	3.0
110.502	2.0
110.517	4.0
110.532	2.0
110.547	1.0
110.561	3.0
110.576	2.0
110.591	2.0
110.606	3.0
110.621	3.0
110.636	3.0
110.651	5.0
110.666	3.0
110.681	5.0
110.695	4.0
110.71	5.0
110.725	8.0
110.74	5.0
110.755	0.0
110.77	2.0
110.785	3.0
110.8	6.0
110.815	6.0
110.829	6.0
110.844	2.0
110.859	6.0
110.874	6.0
110.889	1.0
110.904	1.0
110.919	0.0
110.934	4.0
110.948	2.0
110.963	6.0
110.978	3.0
110.993	1.0
111.008	1.0
111.023	7.0
111.038	2.0
111.053	4.0
111.067	3.0
111.082	4.0
111.097	3.0
111.112	1.0
111.127	2.0
111.142	3.0
111.157	5.0
111.172	1.0
111.186	6.0
111.201	6.0
111.216	1.0
111.231	3.0
111.246	2.0
111.261	3.0
111.276	0.0
111.291	5.0
111.305	5.0
111.32	3.0
111.335	3.0
111.35	7.0
111.365	5.0
111.38	5.0
111.395	7.0
111.41	4.0
111.424	2.0
111.439	7.0
111.454	0.0
111.469	8.0
111.484	3.0
111.499	2.0
111.514	2.0
111.528	5.0
111.543	2.0
111.558	3.0
111.573	3.0
111.588	0.0
111.603	2.0
111.618	2.0
111.633	5.0
111.647	6.0
111.662	2.0
111.677	3.0
111.692	2.0
111.707	3.0
111.722	4.0
111.737	8.0
111.751	4.0
111.766	2.0
111.781	4.0
111.796	0.0
111.811	3.0
111.826	3.0
111.84	4.0
111.855	5.0
111.87	2.0
111.885	3.0
111.9	3.0
111.915	2.0
111.93	5.0
111.944	5.0
111.959	5.0
111.974	5.0
111.989	1.0
112.004	3.0
112.019	1.0
112.033	2.0
112.048	3.0
112.063	2.0
112.078	3.0
112.093	5.0
112.108	3.0
112.123	4.0
112.137	5.0
112.152	2.0
112.167	5.0
112.182	2.0
112.197	3.0
112.212	5.0
112.226	1.0
112.241	7.0
112.256	1.0
112.271	3.0
112.286	4.0
112.301	3.0
112.315	3.0
112.33	2.0
112.345	2.0
112.36	2.0
112.375	2.0
112.389	2.0
112.404	1.0
112.419	4.0
112.434	2.0
112.449	3.0
112.464	0.0
112.478	5.0
112.493	2.0
112.508	4.0
112.523	3.0
112.538	2.0
112.553	4.0
112.567	3.0
112.582	0.0
112.597	6.0
112.612	2.0
112.627	4.0
112.642	2.0
112.656	4.0
112.671	2.0
112.686	8.0
112.701	3.0
112.716	3.0
112.73	4.0
112.745	4.0
112.76	3.0
112.775	2.0
112.79	6.0
112.805	2.0
112.819	0.0
112.834	1.0
112.849	4.0
112.864	2.0
112.879	3.0
112.894	4.0
112.908	6.0
112.923	1.0
112.938	2.0
112.953	5.0
112.968	4.0
112.983	3.0
112.997	2.0
113.012	1.0
113.027	3.0
113.042	2.0
113.057	3.0
113.072	4.0
113.086	3.0
113.101	1.0
113.116	2.0
113.131	5.0
113.146	2.0
113.161	4.0
113.175	1.0
113.19	3.0
113.205	0.0
113.22	4.0
113.235	2.0
113.25	2.0
113.265	3.0
113.279	4.0
113.294	2.0
113.309	2.0
113.324	1.0
113.339	7.0
113.354	3.0
113.368	0.0
113.383	4.0
113.398	5.0
113.413	4.0
113.428	9.0
113.443	1.0
113.458	4.0
113.472	6.0
113.487	1.0
113.502	1.0
113.517	5.0
113.532	2.0
113.547	2.0
113.562	1.0
113.576	3.0
113.591	5.0
113.606	3.0
113.621	5.0
113.636	5.0
113.651	3.0
113.666	2.0
113.681	3.0
113.695	3.0
113.71	3.0
113.725	3.0
113.74	10.0
113.755	6.0
113.77	3.0
113.785	1.0
113.8	3.0
113.814	3.0
113.829	2.0
113.844	2.0
113.859	3.0
113.874	3.0
113.889	6.0
113.904	2.0
113.919	1.0
113.934	3.0
113.949	2.0
113.963	3.0
113.978	5.0
113.993	5.0
114.008	4.0
114.023	4.0
114.038	6.0
114.053	3.0
114.068	3.0
114.083	1.0
114.098	6.0
114.113	9.0
114.127	2.0
114.142	4.0
114.157	3.0
114.172	1.0
114.187	1.0
114.202	1.0
114.217	5.0
114.232	0.0
114.247	2.0
114.262	4.0
114.277	1.0
114.292	1.0
114.307	6.0
114.322	2.0
114.337	0.0
114.351	3.0
114.366	2.0
114.381	3.0
114.396	3.0
114.411	5.0
114.426	1.0
114.441	3.0
114.456	2.0
114.471	4.0
114.486	4.0
114.501	0.0
114.516	5.0
114.531	1.0
114.546	3.0
114.561	6.0
114.576	6.0
114.591	3.0
114.606	3.0
114.621	2.0
114.636	0.0
114.65	7.0
114.665	5.0
114.68	2.0
114.695	1.0
114.71	7.0
114.725	7.0
114.74	4.0
114.755	4.0
114.77	3.0
114.785	4.0
114.8	5.0
114.815	10.0
114.83	2.0
114.845	4.0
114.86	3.0
114.875	5.0
114.89	0.0
114.905	2.0
114.92	1.0
114.935	0.0
114.95	1.0
114.965	7.0
114.98	2.0
114.995	3.0
115.009	2.0
115.024	3.0
115.039	6.0
115.054	5.0
115.069	2.0
115.084	2.0
115.099	5.0
115.114	0.0
115.129	2.0
115.144	2.0
115.159	4.0
115.174	5.0
115.189	0.0
115.204	2.0
115.219	6.0
115.234	5.0
115.249	4.0
115.264	6.0
115.279	5.0
115.294	7.0
115.309	9.0
115.323	6.0
115.338	4.0
115.353	4.0
115.368	2.0
115.383	0.0
115.398	1.0
115.413	5.0
115.428	5.0
115.443	2.0
115.458	5.0
115.473	3.0
115.488	5.0
115.503	6.0
115.518	0.0
115.533	4.0
115.548	2.0
115.562	6.0
115.577	2.0
115.592	5.0
115.607	3.0
115.622	5.0
115.637	2.0
115.652	2.0
115.667	1.0
115.682	5.0
115.697	4.0
115.712	3.0
115.727	4.0
115.741	3.0
115.756	1.0
115.771	9.0
115.786	4.0
115.801	4.0
115.816	3.0
115.831	2.0
115.846	3.0
115.861	2.0
115.875	3.0
115.89	6.0
115.905	4.0
115.92	5.0
115.935	2.0
115.95	5.0
115.965	2.0
115.98	6.0
115.995	2.0
116.009	5.0
116.024	2.0
116.039	6.0
116.054	1.0
116.069	2.0
116.084	3.0
116.099	1.0
116.113	4.0
116.128	1.0
116.143	4.0
116.158	3.0
116.173	4.0
116.188	4.0
116.202	2.0
116.217	5.0
116.232	4.0
116.247	3.0
116.262	2.0
116.277	0.0
116.291	5.0
116.306	1.0
116.321	4.0
116.336	4.0
116.351	5.0
116.366	4.0
116.38	5.0
116.395	4.0
116.41	6.0
116.425	2.0
116.44	2.0
116.454	4.0
116.469	6.0
116.484	3.0
116.499	4.0
116.514	1.0
116.528	2.0
116.543	6.0
116.558	3.0
116.573	3.0
116.588	2.0
116.602	4.0
116.617	4.0
116.632	3.0
116.647	4.0
116.662	3.0
116.676	6.0
116.691	4.0
116.706	7.0
116.721	2.0
116.735	6.0
116.75	6.0
116.765	3.0
116.78	5.0
116.795	3.0
116.809	2.0
116.824	1.0
116.839	7.0
116.854	5.0
116.868	3.0
116.883	4.0
116.898	1.0
116.913	3.0
116.927	4.0
116.942	4.0
116.957	2.0
116.972	5.0
116.986	3.0
117.001	6.0
117.016	2.0
117.031	4.0
117.045	4.0
117.06	2.0
117.075	2.0
117.09	7.0
117.104	4.0
117.119	3.0
117.134	3.0
117.149	4.0
117.163	9.0
117.178	1.0
117.193	4.0
117.208	2.0
117.222	6.0
117.237	6.0
117.252	3.0
117.267	2.0
117.281	3.0
117.296	3.0
117.311	4.0
117.325	2.0
117.34	5.0
117.355	3.0
117.37	8.0
117.384	3.0
117.399	4.0
117.414	2.0
117.429	1.0
117.443	4.0
117.458	5.0
117.473	2.0
117.487	5.0
117.502	2.0
117.517	3.0
117.532	3.0
117.546	3.0
117.561	6.0
117.576	6.0
117.59	4.0
117.605	1.0
117.62	5.0
117.635	3.0
117.649	3.0
117.664	1.0
117.679	0.0
117.693	4.0
117.708	3.0
117.723	2.0
117.738	2.0
117.752	7.0
117.767	4.0
117.782	8.0
117.796	4.0
117.811	1.0
117.826	3.0
117.841	5.0
117.855	3.0
117.87	4.0
117.885	4.0
117.899	3.0
117.914	6.0
117.929	2.0
117.944	1.0
117.958	4.0
117.973	2.0
117.988	4.0
118.002	5.0
118.017	2.0
118.032	2.0
118.047	7.0
118.062	2.0
118.077	2.0
118.092	2.0
118.107	7.0
118.121	5.0
118.136	7.0
118.151	2.0
118.166	6.0
118.181	1.0
118.196	1.0
118.211	4.0
118.225	4.0
118.24	0.0
118.255	4.0
118.27	4.0
118.285	3.0
118.3	2.0
118.315	1.0
118.33	4.0
118.344	2.0
118.359	3.0
118.374	3.0
118.389	2.0
118.404	7.0
118.419	5.0
118.434	4.0
118.449	5.0
118.463	8.0
118.478	5.0
118.493	4.0
118.508	2.0
118.523	1.0
118.538	2.0
118.553	4.0
118.567	0.0
118.582	2.0
118.597	1.0
118.612	1.0
118.627	5.0
118.642	1.0
118.657	0.0
118.672	3.0
118.686	3.0
118.701	2.0
118.716	3.0
118.731	3.0
118.746	6.0
118.761	6.0
118.776	3.0
118.791	6.0
118.805	2.0
118.82	5.0
118.835	4.0
118.85	7.0
118.865	4.0
118.88	2.0
118.895	3.0
118.909	2.0
118.924	5.0
118.939	6.0
118.954	1.0
118.969	5.0
118.984	4.0
118.999	3.0
119.014	3.0
119.028	3.0
119.043	4.0
119.058	5.0
119.073	1.0
119.088	6.0
119.103	2.0
119.118	5.0
119.133	2.0
119.147	6.0
119.162	3.0
119.177	2.0
119.192	5.0
119.207	3.0
119.222	3.0
119.237	1.0
119.251	3.0
119.266	6.0
119.281	4.0
119.296	2.0
119.311	9.0
119.326	3.0
119.341	4.0
119.356	5.0
119.37	1.0
119.385	3.0
119.4	4.0
119.415	5.0
119.43	7.0
119.445	1.0
119.46	2.0
119.475	3.0
119.489	6.0
119.504	1.0
119.519	5.0
119.534	6.0
119.549	2.0
119.564	4.0
119.579	3.0
119.593	1.0
119.608	6.0
119.623	5.0
119.638	2.0
119.653	6.0
119.668	1.0
119.683	3.0
119.698	6.0
119.712	2.0
119.727	2.0
119.742	4.0
119.757	4.0
119.772	4.0
119.787	1.0
119.802	3.0
119.817	3.0
119.831	7.0
119.846	4.0
119.861	1.0
119.876	2.0
119.891	2.0
119.906	2.0
119.921	3.0
119.935	5.0
119.95	3.0
119.965	4.0
119.98	2.0
119.995	2.0
120.01	2.0
120.025	3.0
120.04	1.0
120.054	1.0
120.069	1.0
120.084	3.0
120.099	0.0
120.114	3.0
120.129	1.0
120.144	2.0
120.159	0.0
120.173	3.0
120.188	1.0
120.203	1.0
120.218	0.0
120.233	1.0
120.248	0.0
120.263	1.0
120.277	0.0
120.292	0.0
120.307	1.0
120.322	0.0
120.337	0.0
120.352	0.0
120.367	0.0
120.382	0.0
120.396	0.0
120.411	1.0
120.426	0.0
120.441	0.0
120.456	0.0
120.471	0.0
120.486	0.0
120.501	0.0
120.515	0.0
120.53	1.0
120.545	0.0
120.56	0.0
120.575	0.0
120.59	1.0
120.605	0.0
120.619	0.0
120.634	0.0
120.649	0.0
120.664	0.0
120.679	0.0
120.694	0.0
120.709	0.0
120.724	0.0
120.738	0.0
120.753	0.0
120.768	0.0
120.783	0.0
120.798	0.0
120.813	0.0
120.828	0.0
120.843	0.0
120.857	0.0
120.872	0.0
120.887	0.0
120.902	0.0
120.917	0.0
120.932	0.0
120.947	0.0
120.961	0.0
120.976	0.0
