-1.217	0.0
-1.202	0.0
-1.187	0.0
-1.172	0.0
-1.157	1.0
-1.142	0.0
-1.128	0.0
-1.113	0.0
-1.098	0.0
-1.083	0.0
-1.068	0.0
-1.054	0.0
-1.039	0.0
-1.024	0.0
-1.009	0.0
-0.994	0.0
-0.979	0.0
-0.965	0.0
-0.95	0.0
-0.935	0.0
-0.92	0.0
-0.905	0.0
-0.891	0.0
-0.876	0.0
-0.861	0.0
-0.846	0.0
-0.831	0.0
-0.816	0.0
-0.802	0.0
-0.787	0.0
-0.772	0.0
-0.757	0.0
-0.742	0.0
-0.728	0.0
-0.713	0.0
-0.698	0.0
-0.683	0.0
-0.668	0.0
-0.653	0.0
-0.639	0.0
-0.624	0.0
-0.609	0.0
-0.594	0.0
-0.579	0.0
-0.565	0.0
-0.55	0.0
-0.535	0.0
-0.52	0.0
-0.505	0.0
-0.49	0.0
-0.476	0.0
-0.461	0.0
-0.446	0.0
-0.431	0.0
-0.416	0.0
-0.401	0.0
-0.387	0.0
-0.372	0.0
-0.357	0.0
-0.342	0.0
-0.327	0.0
-0.313	0.0
-0.298	0.0
-0.283	0.0
-0.268	0.0
-0.253	0.0
-0.238	0.0
-0.224	0.0
-0.209	0.0
-0.194	0.0
-0.179	0.0
-0.164	0.0
-0.15	0.0
-0.135	0.0
-0.12	0.0
-0.105	0.0
-0.09	0.0
-0.075	0.0
-0.061	0.0
-0.046	0.0
-0.031	0.0
-0.016	0.0
-0.001	0.0
0.013	0.0
0.028	0.0
0.043	0.0
0.058	0.0
0.073	0.0
0.088	0.0
0.102	0.0
0.117	0.0
0.132	0.0
0.147	0.0
0.162	0.0
0.176	0.0
0.191	0.0
0.206	0.0
0.221	0.0
0.236	0.0
0.251	0.0
0.265	0.0
0.28	0.0
0.295	0.0
0.31	0.0
0.325	0.0
0.339	0.0
0.354	0.0
0.369	0.0
0.384	0.0
0.399	0.0
0.414	0.0
0.428	0.0
0.443	0.0
0.458	0.0
0.473	0.0
0.488	0.0
0.502	0.0
0.517	0.0
0.532	0.0
0.547	0.0
0.562	0.0
0.577	0.0
0.591	1.0
0.606	0.0
0.621	0.0
0.636	0.0
0.651	0.0
0.665	0.0
0.68	0.0
0.695	0.0
0.71	0.0
0.725	0.0
0.74	0.0
0.754	0.0
0.769	0.0
0.784	0.0
0.799	0.0
0.814	0.0
0.828	0.0
0.843	0.0
0.858	1.0
0.873	0.0
0.888	0.0
0.903	0.0
0.917	0.0
0.932	0.0
0.947	0.0
0.962	0.0
0.977	0.0
0.991	0.0
1.006	0.0
1.021	0.0
1.036	0.0
1.051	0.0
1.065	0.0
1.08	0.0
1.095	0.0
1.11	0.0
1.125	0.0
1.14	1.0
1.154	0.0
1.169	0.0
1.184	0.0
1.199	0.0
1.214	0.0
1.228	0.0
1.243	0.0
1.258	0.0
1.273	0.0
1.288	1.0
1.302	0.0
1.317	0.0
1.332	0.0
1.347	0.0
1.362	0.0
1.376	0.0
1.391	0.0
1.406	0.0
1.421	0.0
1.436	0.0
1.45	0.0
1.465	0.0
1.48	1.0
1.495	0.0
1.51	0.0
1.524	0.0
1.539	0.0
1.554	0.0
1.569	0.0
1.584	0.0
1.598	0.0
1.613	0.0
1.628	0.0
1.643	0.0
1.658	0.0
1.672	0.0
1.687	0.0
1.702	0.0
1.717	0.0
1.732	0.0
1.746	0.0
1.761	0.0
1.776	0.0
1.791	1.0
1.806	0.0
1.82	0.0
1.835	0.0
1.85	0.0
1.865	0.0
1.88	0.0
1.894	0.0
1.909	0.0
1.924	0.0
1.939	0.0
1.954	1.0
1.968	0.0
1.983	2.0
1.998	0.0
2.013	0.0
2.028	0.0
2.042	0.0
2.057	1.0
2.072	0.0
2.087	0.0
2.101	0.0
2.116	0.0
2.131	0.0
2.146	1.0
2.161	0.0
2.175	0.0
2.19	0.0
2.205	0.0
2.22	1.0
2.235	0.0
2.249	0.0
2.264	0.0
2.279	1.0
2.294	2.0
2.308	1.0
2.323	0.0
2.338	2.0
2.353	1.0
2.368	0.0
2.382	4.0
2.397	1.0
2.412	2.0
2.427	1.0
2.442	1.0
2.456	0.0
2.471	0.0
2.486	2.0
2.501	4.0
2.515	2.0
2.53	2.0
2.545	1.0
2.56	3.0
2.575	1.0
2.589	5.0
2.604	1.0
2.619	1.0
2.634	5.0
2.649	5.0
2.663	2.0
2.678	0.0
2.693	4.0
2.708	1.0
2.722	1.0
2.737	7.0
2.752	5.0
2.767	5.0
2.782	1.0
2.796	2.0
2.811	0.0
2.826	3.0
2.841	6.0
2.856	4.0
2.87	3.0
2.885	4.0
2.9	4.0
2.915	2.0
2.93	2.0
2.944	2.0
2.959	4.0
2.974	1.0
2.989	2.0
3.004	1.0
3.018	6.0
3.033	7.0
3.048	7.0
3.063	4.0
3.078	4.0
3.092	3.0
3.107	5.0
3.122	5.0
3.137	8.0
3.152	3.0
3.166	4.0
3.181	8.0
3.196	10.0
3.211	2.0
3.226	6.0
3.24	5.0
3.255	6.0
3.27	4.0
3.285	6.0
3.3	1.0
3.315	3.0
3.329	3.0
3.344	5.0
3.359	3.0
3.374	3.0
3.389	5.0
3.403	3.0
3.418	3.0
3.433	7.0
3.448	10.0
3.463	6.0
3.478	1.0
3.492	3.0
3.507	6.0
3.522	9.0
3.537	6.0
3.552	4.0
3.567	6.0
3.581	5.0
3.596	2.0
3.611	4.0
3.626	8.0
3.641	5.0
3.656	6.0
3.671	6.0
3.685	3.0
3.7	4.0
3.715	4.0
3.73	9.0
3.745	2.0
3.76	4.0
3.775	7.0
3.789	5.0
3.804	6.0
3.819	7.0
3.834	2.0
3.849	6.0
3.864	3.0
3.879	4.0
3.894	7.0
3.908	5.0
3.923	4.0
3.938	7.0
3.953	6.0
3.968	6.0
3.983	4.0
3.998	7.0
4.013	5.0
4.027	12.0
4.042	8.0
4.057	4.0
4.072	4.0
4.087	5.0
4.102	10.0
4.117	7.0
4.132	7.0
4.147	4.0
4.162	6.0
4.176	6.0
4.191	7.0
4.206	6.0
4.221	4.0
4.236	8.0
4.251	3.0
4.266	4.0
4.281	9.0
4.296	5.0
4.311	14.0
4.326	12.0
4.341	5.0
4.356	13.0
4.37	7.0
4.385	10.0
4.4	6.0
4.415	6.0
4.43	11.0
4.445	4.0
4.46	4.0
4.475	7.0
4.49	5.0
4.505	7.0
4.52	4.0
4.535	4.0
4.55	7.0
4.565	8.0
4.58	8.0
4.595	8.0
4.61	4.0
4.625	10.0
4.639	6.0
4.654	8.0
4.669	7.0
4.684	12.0
4.699	5.0
4.714	5.0
4.729	10.0
4.744	7.0
4.759	6.0
4.774	14.0
4.789	5.0
4.804	7.0
4.819	4.0
4.834	9.0
4.849	10.0
4.864	9.0
4.879	4.0
4.894	8.0
4.909	11.0
4.924	9.0
4.939	7.0
4.954	11.0
4.969	7.0
4.984	7.0
4.999	7.0
5.014	7.0
5.029	8.0
5.044	10.0
5.059	8.0
5.074	5.0
5.089	10.0
5.104	7.0
5.119	6.0
5.134	7.0
5.149	13.0
5.164	5.0
5.179	8.0
5.194	10.0
5.209	6.0
5.224	3.0
5.239	8.0
5.254	10.0
5.269	6.0
5.284	7.0
5.299	8.0
5.314	6.0
5.329	7.0
5.344	5.0
5.359	10.0
5.374	10.0
5.389	8.0
5.404	13.0
5.419	8.0
5.434	6.0
5.449	7.0
5.464	7.0
5.479	17.0
5.494	14.0
5.509	8.0
5.524	9.0
5.539	15.0
5.554	4.0
5.569	10.0
5.584	10.0
5.599	7.0
5.614	9.0
5.629	6.0
5.644	13.0
5.659	6.0
5.674	5.0
5.689	11.0
5.704	6.0
5.719	12.0
5.734	9.0
5.749	13.0
5.764	9.0
5.779	9.0
5.794	8.0
5.809	13.0
5.824	6.0
5.839	6.0
5.854	3.0
5.869	4.0
5.884	3.0
5.899	9.0
5.914	6.0
5.929	11.0
5.944	8.0
5.959	10.0
5.974	12.0
5.989	7.0
6.004	9.0
6.019	7.0
6.034	12.0
6.049	11.0
6.064	12.0
6.079	9.0
6.094	13.0
6.109	10.0
6.124	8.0
6.139	9.0
6.154	7.0
6.169	11.0
6.184	12.0
6.199	9.0
6.214	6.0
6.229	9.0
6.244	7.0
6.259	12.0
6.274	6.0
6.289	6.0
6.304	8.0
6.319	15.0
6.334	14.0
6.349	10.0
6.364	6.0
6.379	7.0
6.394	10.0
6.409	8.0
6.424	5.0
6.439	3.0
6.454	13.0
6.469	11.0
6.484	3.0
6.499	5.0
6.514	7.0
6.529	10.0
6.544	5.0
6.559	5.0
6.574	9.0
6.589	10.0
6.604	5.0
6.619	8.0
6.634	4.0
6.649	8.0
6.664	6.0
6.679	10.0
6.694	7.0
6.709	9.0
6.724	5.0
6.739	8.0
6.754	7.0
6.769	16.0
6.784	10.0
6.799	7.0
6.814	7.0
6.829	6.0
6.844	9.0
6.859	7.0
6.873	8.0
6.888	5.0
6.903	6.0
6.918	13.0
6.933	8.0
6.948	6.0
6.963	6.0
6.978	10.0
6.993	15.0
7.008	4.0
7.023	12.0
7.038	8.0
7.053	8.0
7.068	9.0
7.083	8.0
7.098	11.0
7.113	7.0
7.128	18.0
7.143	9.0
7.157	5.0
7.172	14.0
7.187	5.0
7.202	2.0
7.217	18.0
7.232	5.0
7.247	9.0
7.262	7.0
7.277	14.0
7.292	11.0
7.307	6.0
7.322	4.0
7.336	6.0
7.351	12.0
7.366	8.0
7.381	9.0
7.396	7.0
7.411	6.0
7.426	14.0
7.441	12.0
7.456	10.0
7.471	10.0
7.485	16.0
7.5	9.0
7.515	9.0
7.53	6.0
7.545	10.0
7.56	12.0
7.575	8.0
7.59	13.0
7.604	12.0
7.619	10.0
7.634	8.0
7.649	7.0
7.664	3.0
7.679	11.0
7.693	4.0
7.708	11.0
7.723	8.0
7.738	7.0
7.753	8.0
7.768	10.0
7.783	11.0
7.797	11.0
7.812	7.0
7.827	8.0
7.842	10.0
7.857	4.0
7.871	6.0
7.886	10.0
7.901	12.0
7.916	10.0
7.931	7.0
7.945	6.0
7.96	7.0
7.975	8.0
7.99	9.0
8.005	11.0
8.019	8.0
8.034	6.0
8.049	11.0
8.064	6.0
8.078	12.0
8.093	9.0
8.108	8.0
8.123	7.0
8.137	7.0
8.152	5.0
8.167	8.0
8.182	16.0
8.196	10.0
8.211	6.0
8.226	2.0
8.241	8.0
8.255	12.0
8.27	12.0
8.285	6.0
8.3	11.0
8.314	9.0
8.329	6.0
8.344	9.0
8.358	7.0
8.373	5.0
8.388	9.0
8.403	9.0
8.417	11.0
8.432	10.0
8.447	5.0
8.461	7.0
8.476	8.0
8.491	8.0
8.505	7.0
8.52	8.0
8.535	11.0
8.55	2.0
8.564	9.0
8.579	5.0
8.594	12.0
8.608	9.0
8.623	8.0
8.638	7.0
8.652	8.0
8.667	11.0
8.682	6.0
8.696	5.0
8.711	6.0
8.726	9.0
8.74	11.0
8.755	11.0
8.77	7.0
8.784	5.0
8.799	8.0
8.814	3.0
8.828	5.0
8.843	11.0
8.858	11.0
8.872	10.0
8.887	11.0
8.902	7.0
8.916	8.0
8.931	7.0
8.946	7.0
8.96	10.0
8.975	9.0
8.99	5.0
9.004	6.0
9.019	11.0
9.034	14.0
9.048	7.0
9.063	11.0
9.077	11.0
9.092	13.0
9.107	9.0
9.121	8.0
9.136	6.0
9.151	4.0
9.165	6.0
9.18	9.0
9.195	10.0
9.209	10.0
9.224	10.0
9.239	10.0
9.253	9.0
9.268	14.0
9.283	7.0
9.297	5.0
9.312	10.0
9.327	6.0
9.341	9.0
9.356	5.0
9.371	5.0
9.385	7.0
9.4	8.0
9.415	10.0
9.429	14.0
9.444	8.0
9.458	7.0
9.473	13.0
9.488	8.0
9.502	4.0
9.517	9.0
9.532	5.0
9.546	8.0
9.561	7.0
9.576	12.0
9.59	12.0
9.605	12.0
9.62	5.0
9.635	3.0
9.649	12.0
9.664	9.0
9.679	5.0
9.693	10.0
9.708	11.0
9.723	8.0
9.737	11.0
9.752	8.0
9.767	10.0
9.781	7.0
9.796	9.0
9.811	10.0
9.825	7.0
9.84	9.0
9.855	9.0
9.87	11.0
9.884	6.0
9.899	4.0
9.914	8.0
9.928	7.0
9.943	8.0
9.958	9.0
9.973	8.0
9.987	7.0
10.002	6.0
10.017	8.0
10.031	10.0
10.046	10.0
10.061	9.0
10.076	6.0
10.09	8.0
10.105	10.0
10.12	6.0
10.135	8.0
10.149	4.0
10.164	12.0
10.179	8.0
10.194	3.0
10.208	6.0
10.223	7.0
10.238	8.0
10.253	10.0
10.267	5.0
10.282	4.0
10.297	8.0
10.312	7.0
10.326	4.0
10.341	10.0
10.356	10.0
10.371	3.0
10.386	8.0
10.4	11.0
10.415	5.0
10.43	14.0
10.445	9.0
10.46	8.0
10.474	6.0
10.489	5.0
10.504	16.0
10.519	8.0
10.533	10.0
10.548	11.0
10.563	6.0
10.578	11.0
10.593	10.0
10.608	6.0
10.622	6.0
10.637	6.0
10.652	5.0
10.667	9.0
10.682	6.0
10.696	4.0
10.711	8.0
10.726	7.0
10.741	8.0
10.756	6.0
10.771	6.0
10.785	12.0
10.8	4.0
10.815	4.0
10.83	6.0
10.845	9.0
10.86	4.0
10.874	10.0
10.889	5.0
10.904	8.0
10.919	6.0
10.934	5.0
10.949	5.0
10.963	8.0
10.978	5.0
10.993	4.0
11.008	11.0
11.023	13.0
11.038	3.0
11.053	10.0
11.067	5.0
11.082	5.0
11.097	14.0
11.112	3.0
11.127	3.0
11.142	1.0
11.157	4.0
11.172	8.0
11.186	5.0
11.201	9.0
11.216	9.0
11.231	9.0
11.246	10.0
11.261	6.0
11.276	6.0
11.291	12.0
11.305	11.0
11.32	4.0
11.335	6.0
11.35	9.0
11.365	8.0
11.38	6.0
11.395	4.0
11.41	5.0
11.424	7.0
11.439	8.0
11.454	5.0
11.469	9.0
11.484	6.0
11.499	7.0
11.514	8.0
11.529	8.0
11.544	8.0
11.558	10.0
11.573	8.0
11.588	3.0
11.603	11.0
11.618	13.0
11.633	11.0
11.648	7.0
11.663	7.0
11.678	12.0
11.693	6.0
11.707	4.0
11.722	13.0
11.737	6.0
11.752	6.0
11.767	13.0
11.782	11.0
11.797	7.0
11.812	14.0
11.827	14.0
11.842	4.0
11.856	13.0
11.871	13.0
11.886	7.0
11.901	10.0
11.916	9.0
11.931	6.0
11.946	9.0
11.961	8.0
11.976	6.0
11.991	10.0
12.006	10.0
12.02	3.0
12.035	8.0
12.05	8.0
12.065	14.0
12.08	9.0
12.095	5.0
12.11	10.0
12.125	10.0
12.14	8.0
12.155	15.0
12.17	15.0
12.184	14.0
12.199	9.0
12.214	11.0
12.229	16.0
12.244	16.0
12.259	7.0
12.274	10.0
12.289	9.0
12.304	10.0
12.319	11.0
12.334	10.0
12.348	16.0
12.363	14.0
12.378	11.0
12.393	13.0
12.408	12.0
12.423	8.0
12.438	11.0
12.453	11.0
12.468	14.0
12.483	8.0
12.498	15.0
12.513	9.0
12.527	14.0
12.542	7.0
12.557	13.0
12.572	14.0
12.587	9.0
12.602	8.0
12.617	9.0
12.632	9.0
12.647	8.0
12.662	15.0
12.677	16.0
12.692	12.0
12.707	11.0
12.721	14.0
12.736	13.0
12.751	22.0
12.766	11.0
12.781	16.0
12.796	13.0
12.811	14.0
12.826	16.0
12.841	17.0
12.856	7.0
12.871	12.0
12.886	18.0
12.9	19.0
12.915	19.0
12.93	19.0
12.945	19.0
12.96	20.0
12.975	17.0
12.99	17.0
13.005	19.0
13.02	11.0
13.035	16.0
13.05	18.0
13.065	12.0
13.08	23.0
13.094	14.0
13.109	16.0
13.124	14.0
13.139	21.0
13.154	20.0
13.169	5.0
13.184	21.0
13.199	17.0
13.214	23.0
13.229	21.0
13.244	18.0
13.259	26.0
13.274	14.0
13.288	14.0
13.303	15.0
13.318	16.0
13.333	24.0
13.348	25.0
13.363	27.0
13.378	29.0
13.393	26.0
13.408	19.0
13.423	30.0
13.438	37.0
13.453	26.0
13.468	34.0
13.482	36.0
13.497	27.0
13.512	53.0
13.527	44.0
13.542	52.0
13.557	51.0
13.572	61.0
13.587	61.0
13.602	75.0
13.617	57.0
13.632	69.0
13.647	66.0
13.662	85.0
13.677	88.0
13.691	89.0
13.706	88.0
13.721	114.0
13.736	111.0
13.751	96.0
13.766	113.0
13.781	107.0
13.796	152.0
13.811	135.0
13.826	125.0
13.841	122.0
13.856	112.0
13.871	115.0
13.885	105.0
13.9	80.0
13.915	85.0
13.93	65.0
13.945	72.0
13.96	47.0
13.975	52.0
13.99	48.0
14.005	37.0
14.02	24.0
14.035	21.0
14.05	26.0
14.065	28.0
14.08	24.0
14.094	21.0
14.109	14.0
14.124	19.0
14.139	17.0
14.154	16.0
14.169	26.0
14.184	21.0
14.199	15.0
14.214	21.0
14.229	19.0
14.244	19.0
14.259	22.0
14.274	19.0
14.288	24.0
14.303	21.0
14.318	21.0
14.333	13.0
14.348	23.0
14.363	22.0
14.378	18.0
14.393	14.0
14.408	12.0
14.423	25.0
14.438	26.0
14.453	17.0
14.468	16.0
14.482	18.0
14.497	21.0
14.512	15.0
14.527	15.0
14.542	17.0
14.557	14.0
14.572	23.0
14.587	17.0
14.602	21.0
14.617	21.0
14.632	14.0
14.647	11.0
14.661	21.0
14.676	14.0
14.691	23.0
14.706	13.0
14.721	19.0
14.736	12.0
14.751	17.0
14.766	12.0
14.781	23.0
14.796	14.0
14.811	12.0
14.826	19.0
14.84	16.0
14.855	12.0
14.87	17.0
14.885	12.0
14.9	20.0
14.915	17.0
14.93	10.0
14.945	17.0
14.96	9.0
14.975	17.0
14.989	16.0
15.004	16.0
15.019	22.0
15.034	19.0
15.049	16.0
15.064	15.0
15.079	15.0
15.094	11.0
15.109	9.0
15.124	12.0
15.138	15.0
15.153	14.0
15.168	14.0
15.183	14.0
15.198	21.0
15.213	13.0
15.228	18.0
15.243	14.0
15.258	13.0
15.272	13.0
15.287	9.0
15.302	12.0
15.317	22.0
15.332	16.0
15.347	15.0
15.362	18.0
15.377	21.0
15.391	14.0
15.406	12.0
15.421	12.0
15.436	13.0
15.451	11.0
15.466	16.0
15.481	14.0
15.496	17.0
15.51	16.0
15.525	11.0
15.54	15.0
15.555	18.0
15.57	15.0
15.585	14.0
15.6	10.0
15.614	16.0
15.629	10.0
15.644	16.0
15.659	15.0
15.674	15.0
15.689	13.0
15.704	13.0
15.718	10.0
15.733	8.0
15.748	19.0
15.763	14.0
15.778	12.0
15.793	16.0
15.808	19.0
15.822	15.0
15.837	14.0
15.852	16.0
15.867	13.0
15.882	10.0
15.897	14.0
15.911	16.0
15.926	17.0
15.941	23.0
15.956	13.0
15.971	10.0
15.986	14.0
16.0	13.0
16.015	13.0
16.03	12.0
16.045	13.0
16.06	12.0
16.074	14.0
16.089	18.0
16.104	14.0
16.119	9.0
16.134	14.0
16.149	15.0
16.163	16.0
16.178	14.0
16.193	16.0
16.208	12.0
16.223	20.0
16.237	15.0
16.252	16.0
16.267	11.0
16.282	14.0
16.297	15.0
16.311	15.0
16.326	14.0
16.341	14.0
16.356	8.0
16.37	15.0
16.385	12.0
16.4	13.0
16.415	20.0
16.43	21.0
16.444	13.0
16.459	14.0
16.474	10.0
16.489	13.0
16.504	19.0
16.518	12.0
16.533	18.0
16.548	22.0
16.563	19.0
16.577	18.0
16.592	18.0
16.607	20.0
16.622	14.0
16.637	14.0
16.651	22.0
16.666	23.0
16.681	30.0
16.696	29.0
16.71	25.0
16.725	26.0
16.74	19.0
16.755	19.0
16.77	47.0
16.784	31.0
16.799	38.0
16.814	42.0
16.829	40.0
16.843	45.0
16.858	59.0
16.873	71.0
16.888	63.0
16.902	66.0
16.917	55.0
16.932	75.0
16.947	81.0
16.961	83.0
16.976	65.0
16.991	67.0
17.006	57.0
17.021	54.0
17.035	55.0
17.05	50.0
17.065	33.0
17.08	37.0
17.094	36.0
17.109	28.0
17.124	34.0
17.139	31.0
17.153	14.0
17.168	14.0
17.183	12.0
17.198	18.0
17.212	17.0
17.227	22.0
17.242	15.0
17.257	15.0
17.271	20.0
17.286	12.0
17.301	12.0
17.316	12.0
17.33	15.0
17.345	10.0
17.36	13.0
17.375	12.0
17.39	20.0
17.404	13.0
17.419	15.0
17.434	15.0
17.449	10.0
17.463	9.0
17.478	11.0
17.493	15.0
17.508	14.0
17.522	9.0
17.537	14.0
17.552	16.0
17.567	16.0
17.581	14.0
17.596	9.0
17.611	20.0
17.626	13.0
17.641	10.0
17.655	13.0
17.67	14.0
17.685	12.0
17.7	13.0
17.714	12.0
17.729	15.0
17.744	11.0
17.759	13.0
17.773	12.0
17.788	12.0
17.803	6.0
17.818	9.0
17.833	9.0
17.847	12.0
17.862	15.0
17.877	15.0
17.892	9.0
17.906	13.0
17.921	12.0
17.936	14.0
17.951	11.0
17.966	14.0
17.98	12.0
17.995	15.0
18.01	11.0
18.025	15.0
18.04	11.0
18.054	9.0
18.069	25.0
18.084	6.0
18.099	9.0
18.114	10.0
18.128	7.0
18.143	10.0
18.158	15.0
18.173	7.0
18.188	17.0
18.202	11.0
18.217	13.0
18.232	12.0
18.247	16.0
18.262	17.0
18.276	10.0
18.291	10.0
18.306	4.0
18.321	11.0
18.336	17.0
18.35	13.0
18.365	17.0
18.38	14.0
18.395	9.0
18.41	18.0
18.424	10.0
18.439	11.0
18.454	13.0
18.469	14.0
18.484	16.0
18.498	10.0
18.513	10.0
18.528	12.0
18.543	9.0
18.558	16.0
18.573	11.0
18.587	13.0
18.602	12.0
18.617	17.0
18.632	11.0
18.647	10.0
18.661	17.0
18.676	15.0
18.691	15.0
18.706	13.0
18.721	22.0
18.736	11.0
18.75	15.0
18.765	12.0
18.78	9.0
18.795	14.0
18.81	9.0
18.825	7.0
18.839	16.0
18.854	10.0
18.869	17.0
18.884	14.0
18.899	6.0
18.913	13.0
18.928	13.0
18.943	12.0
18.958	18.0
18.973	16.0
18.988	7.0
19.002	14.0
19.017	8.0
19.032	18.0
19.047	10.0
19.062	6.0
19.077	7.0
19.091	12.0
19.106	9.0
19.121	9.0
19.136	16.0
19.151	15.0
19.165	12.0
19.18	13.0
19.195	14.0
19.21	15.0
19.225	14.0
19.24	15.0
19.254	11.0
19.269	12.0
19.284	12.0
19.299	19.0
19.314	19.0
19.329	17.0
19.343	15.0
19.358	21.0
19.373	22.0
19.388	18.0
19.403	21.0
19.417	19.0
19.432	21.0
19.447	21.0
19.462	16.0
19.477	22.0
19.492	34.0
19.506	40.0
19.521	40.0
19.536	29.0
19.551	45.0
19.566	40.0
19.58	46.0
19.595	39.0
19.61	34.0
19.625	40.0
19.64	33.0
19.655	38.0
19.669	33.0
19.684	32.0
19.699	25.0
19.714	33.0
19.729	24.0
19.743	21.0
19.758	24.0
19.773	22.0
19.788	17.0
19.803	29.0
19.817	16.0
19.832	20.0
19.847	13.0
19.862	18.0
19.877	13.0
19.891	10.0
19.906	13.0
19.921	14.0
19.936	15.0
19.951	14.0
19.965	11.0
19.98	10.0
19.995	12.0
20.01	17.0
20.025	13.0
20.039	12.0
20.054	10.0
20.069	14.0
20.084	9.0
20.099	14.0
20.113	9.0
20.128	10.0
20.143	10.0
20.158	12.0
20.173	14.0
20.187	12.0
20.202	13.0
20.217	10.0
20.232	9.0
20.246	9.0
20.261	14.0
20.276	9.0
20.291	12.0
20.306	12.0
20.32	17.0
20.335	12.0
20.35	8.0
20.365	7.0
20.38	6.0
20.394	7.0
20.409	9.0
20.424	6.0
20.439	9.0
20.453	15.0
20.468	12.0
20.483	10.0
20.498	8.0
20.513	10.0
20.527	15.0
20.542	11.0
20.557	7.0
20.572	7.0
20.586	14.0
20.601	12.0
20.616	13.0
20.631	12.0
20.646	10.0
20.66	2.0
20.675	7.0
20.69	17.0
20.705	16.0
20.719	11.0
20.734	10.0
20.749	11.0
20.764	13.0
20.779	11.0
20.793	11.0
20.808	10.0
20.823	9.0
20.838	7.0
20.853	12.0
20.867	10.0
20.882	13.0
20.897	9.0
20.912	12.0
20.926	11.0
20.941	13.0
20.956	12.0
20.971	11.0
20.986	9.0
21.0	12.0
21.015	8.0
21.03	8.0
21.045	10.0
21.06	7.0
21.074	14.0
21.089	14.0
21.104	11.0
21.119	12.0
21.134	9.0
21.148	9.0
21.163	14.0
21.178	14.0
21.193	13.0
21.208	15.0
21.222	17.0
21.237	13.0
21.252	8.0
21.267	11.0
21.282	13.0
21.296	10.0
21.311	10.0
21.326	5.0
21.341	12.0
21.356	11.0
21.37	11.0
21.385	6.0
21.4	8.0
21.415	12.0
21.43	10.0
21.444	12.0
21.459	11.0
21.474	11.0
21.489	13.0
21.504	13.0
21.519	11.0
21.533	10.0
21.548	7.0
21.563	16.0
21.578	12.0
21.593	13.0
21.608	23.0
21.622	13.0
21.637	18.0
21.652	15.0
21.667	13.0
21.682	14.0
21.697	16.0
21.712	24.0
21.726	18.0
21.741	26.0
21.756	32.0
21.771	33.0
21.786	29.0
21.801	24.0
21.816	36.0
21.83	41.0
21.845	54.0
21.86	50.0
21.875	59.0
21.89	75.0
21.905	65.0
21.92	90.0
21.935	63.0
21.949	61.0
21.964	87.0
21.979	69.0
21.994	72.0
22.009	80.0
22.024	60.0
22.039	57.0
22.054	44.0
22.069	55.0
22.083	48.0
22.098	46.0
22.113	28.0
22.128	34.0
22.143	24.0
22.158	22.0
22.173	22.0
22.188	13.0
22.203	18.0
22.218	19.0
22.233	12.0
22.248	12.0
22.262	13.0
22.277	11.0
22.292	13.0
22.307	13.0
22.322	17.0
22.337	11.0
22.352	11.0
22.367	13.0
22.382	11.0
22.397	9.0
22.412	12.0
22.427	13.0
22.442	10.0
22.457	12.0
22.472	9.0
22.487	16.0
22.502	11.0
22.516	13.0
22.531	13.0
22.546	15.0
22.561	10.0
22.576	21.0
22.591	15.0
22.606	12.0
22.621	16.0
22.636	13.0
22.651	17.0
22.666	15.0
22.681	10.0
22.696	12.0
22.711	18.0
22.726	9.0
22.741	16.0
22.756	10.0
22.771	9.0
22.786	10.0
22.801	12.0
22.816	9.0
22.831	15.0
22.846	9.0
22.861	9.0
22.876	8.0
22.891	13.0
22.906	12.0
22.92	13.0
22.935	10.0
22.95	14.0
22.965	16.0
22.98	8.0
22.995	11.0
23.01	8.0
23.025	6.0
23.04	9.0
23.055	13.0
23.07	13.0
23.085	13.0
23.1	10.0
23.115	10.0
23.13	6.0
23.145	8.0
23.16	7.0
23.175	13.0
23.19	10.0
23.205	8.0
23.22	9.0
23.235	14.0
23.25	10.0
23.265	10.0
23.28	9.0
23.295	13.0
23.31	14.0
23.325	9.0
23.34	7.0
23.355	7.0
23.37	12.0
23.384	4.0
23.399	4.0
23.414	10.0
23.429	12.0
23.444	10.0
23.459	15.0
23.474	10.0
23.489	5.0
23.504	10.0
23.519	9.0
23.534	13.0
23.549	11.0
23.564	8.0
23.579	11.0
23.594	14.0
23.609	15.0
23.624	6.0
23.639	11.0
23.654	13.0
23.668	4.0
23.683	9.0
23.698	11.0
23.713	9.0
23.728	10.0
23.743	14.0
23.758	11.0
23.773	8.0
23.788	11.0
23.803	18.0
23.818	15.0
23.833	12.0
23.848	20.0
23.862	13.0
23.877	22.0
23.892	21.0
23.907	19.0
23.922	24.0
23.937	32.0
23.952	28.0
23.967	24.0
23.982	45.0
23.997	28.0
24.011	48.0
24.026	41.0
24.041	54.0
24.056	49.0
24.071	46.0
24.086	55.0
24.101	40.0
24.116	39.0
24.131	39.0
24.145	25.0
24.16	45.0
24.175	42.0
24.19	36.0
24.205	31.0
24.22	34.0
24.235	41.0
24.249	35.0
24.264	27.0
24.279	18.0
24.294	30.0
24.309	23.0
24.324	17.0
24.338	16.0
24.353	14.0
24.368	18.0
24.383	9.0
24.398	13.0
24.413	12.0
24.428	10.0
24.442	6.0
24.457	11.0
24.472	9.0
24.487	9.0
24.502	13.0
24.516	5.0
24.531	10.0
24.546	11.0
24.561	22.0
24.576	7.0
24.591	14.0
24.605	12.0
24.62	10.0
24.635	11.0
24.65	12.0
24.665	11.0
24.679	7.0
24.694	11.0
24.709	15.0
24.724	6.0
24.739	7.0
24.753	9.0
24.768	10.0
24.783	13.0
24.798	13.0
24.813	8.0
24.827	11.0
24.842	11.0
24.857	8.0
24.872	11.0
24.886	13.0
24.901	4.0
24.916	14.0
24.931	13.0
24.946	14.0
24.96	7.0
24.975	9.0
24.99	10.0
25.005	11.0
25.019	6.0
25.034	13.0
25.049	13.0
25.064	8.0
25.078	10.0
25.093	8.0
25.108	7.0
25.123	6.0
25.138	7.0
25.152	6.0
25.167	13.0
25.182	11.0
25.197	10.0
25.211	12.0
25.226	9.0
25.241	16.0
25.256	13.0
25.27	13.0
25.285	9.0
25.3	12.0
25.315	11.0
25.329	11.0
25.344	12.0
25.359	4.0
25.374	12.0
25.388	10.0
25.403	9.0
25.418	9.0
25.433	13.0
25.447	10.0
25.462	10.0
25.477	9.0
25.492	13.0
25.506	10.0
25.521	3.0
25.536	4.0
25.55	16.0
25.565	6.0
25.58	9.0
25.595	15.0
25.609	9.0
25.624	14.0
25.639	13.0
25.654	6.0
25.668	12.0
25.683	9.0
25.698	6.0
25.713	12.0
25.727	11.0
25.742	12.0
25.757	9.0
25.772	8.0
25.786	2.0
25.801	4.0
25.816	10.0
25.83	5.0
25.845	8.0
25.86	13.0
25.875	5.0
25.889	18.0
25.904	10.0
25.919	9.0
25.934	6.0
25.948	8.0
25.963	10.0
25.978	8.0
25.992	10.0
26.007	8.0
26.022	5.0
26.037	9.0
26.051	8.0
26.066	8.0
26.081	4.0
26.096	2.0
26.11	12.0
26.125	9.0
26.14	6.0
26.155	7.0
26.169	12.0
26.184	12.0
26.199	12.0
26.213	5.0
26.228	2.0
26.243	8.0
26.258	4.0
26.272	15.0
26.287	9.0
26.302	17.0
26.317	10.0
26.331	8.0
26.346	9.0
26.361	8.0
26.376	13.0
26.39	10.0
26.405	12.0
26.42	10.0
26.434	7.0
26.449	2.0
26.464	10.0
26.479	9.0
26.493	15.0
26.508	9.0
26.523	12.0
26.538	6.0
26.552	8.0
26.567	6.0
26.582	9.0
26.597	8.0
26.611	8.0
26.626	15.0
26.641	5.0
26.656	6.0
26.67	10.0
26.685	5.0
26.7	3.0
26.715	10.0
26.729	11.0
26.744	8.0
26.759	10.0
26.773	15.0
26.788	5.0
26.803	9.0
26.818	14.0
26.832	9.0
26.847	7.0
26.862	7.0
26.877	2.0
26.891	3.0
26.906	15.0
26.921	8.0
26.936	8.0
26.95	9.0
26.965	9.0
26.98	11.0
26.995	9.0
27.01	10.0
27.024	5.0
27.039	9.0
27.054	7.0
27.069	8.0
27.083	13.0
27.098	15.0
27.113	8.0
27.128	10.0
27.142	16.0
27.157	11.0
27.172	9.0
27.187	6.0
27.201	8.0
27.216	14.0
27.231	8.0
27.246	10.0
27.261	10.0
27.275	6.0
27.29	5.0
27.305	20.0
27.32	9.0
27.334	7.0
27.349	8.0
27.364	8.0
27.379	9.0
27.394	11.0
27.408	14.0
27.423	11.0
27.438	12.0
27.453	8.0
27.467	7.0
27.482	7.0
27.497	12.0
27.512	11.0
27.527	7.0
27.541	14.0
27.556	6.0
27.571	8.0
27.586	13.0
27.601	12.0
27.615	11.0
27.63	24.0
27.645	7.0
27.66	11.0
27.675	22.0
27.689	13.0
27.704	10.0
27.719	16.0
27.734	10.0
27.749	19.0
27.763	15.0
27.778	17.0
27.793	16.0
27.808	23.0
27.823	21.0
27.838	28.0
27.852	27.0
27.867	29.0
27.882	26.0
27.897	24.0
27.912	20.0
27.926	25.0
27.941	21.0
27.956	28.0
27.971	14.0
27.986	13.0
28.001	16.0
28.015	22.0
28.03	26.0
28.045	20.0
28.06	10.0
28.075	15.0
28.09	23.0
28.105	16.0
28.119	8.0
28.134	13.0
28.149	11.0
28.164	15.0
28.179	7.0
28.194	14.0
28.208	8.0
28.223	12.0
28.238	12.0
28.253	9.0
28.268	9.0
28.283	12.0
28.298	11.0
28.312	12.0
28.327	11.0
28.342	8.0
28.357	7.0
28.372	10.0
28.387	9.0
28.402	17.0
28.417	5.0
28.431	7.0
28.446	13.0
28.461	8.0
28.476	16.0
28.491	8.0
28.506	5.0
28.521	7.0
28.536	13.0
28.55	5.0
28.565	13.0
28.58	12.0
28.595	15.0
28.61	11.0
28.625	8.0
28.64	11.0
28.655	9.0
28.669	6.0
28.684	13.0
28.699	9.0
28.714	14.0
28.729	7.0
28.744	9.0
28.759	8.0
28.774	9.0
28.788	8.0
28.803	13.0
28.818	9.0
28.833	15.0
28.848	10.0
28.863	10.0
28.878	8.0
28.893	7.0
28.908	10.0
28.922	18.0
28.937	9.0
28.952	14.0
28.967	10.0
28.982	9.0
28.997	21.0
29.012	19.0
29.027	16.0
29.041	11.0
29.056	6.0
29.071	9.0
29.086	19.0
29.101	11.0
29.116	10.0
29.131	15.0
29.146	7.0
29.16	12.0
29.175	16.0
29.19	6.0
29.205	8.0
29.22	13.0
29.235	10.0
29.25	13.0
29.265	15.0
29.279	16.0
29.294	14.0
29.309	14.0
29.324	11.0
29.339	12.0
29.354	10.0
29.369	17.0
29.384	11.0
29.398	17.0
29.413	18.0
29.428	18.0
29.443	20.0
29.458	16.0
29.473	27.0
29.488	16.0
29.502	25.0
29.517	33.0
29.532	46.0
29.547	44.0
29.562	38.0
29.577	44.0
29.592	55.0
29.606	40.0
29.621	56.0
29.636	47.0
29.651	49.0
29.666	45.0
29.681	46.0
29.695	44.0
29.71	40.0
29.725	33.0
29.74	33.0
29.755	33.0
29.77	34.0
29.784	33.0
29.799	19.0
29.814	31.0
29.829	29.0
29.844	20.0
29.859	20.0
29.873	24.0
29.888	22.0
29.903	13.0
29.918	12.0
29.933	20.0
29.947	11.0
29.962	8.0
29.977	11.0
29.992	11.0
30.007	15.0
30.021	10.0
30.036	11.0
30.051	12.0
30.066	11.0
30.081	8.0
30.095	16.0
30.11	3.0
30.125	4.0
30.14	12.0
30.155	15.0
30.169	8.0
30.184	12.0
30.199	9.0
30.214	12.0
30.228	17.0
30.243	10.0
30.258	13.0
30.273	15.0
30.288	10.0
30.302	15.0
30.317	9.0
30.332	8.0
30.347	14.0
30.361	13.0
30.376	5.0
30.391	14.0
30.406	10.0
30.42	11.0
30.435	8.0
30.45	7.0
30.465	11.0
30.479	16.0
30.494	13.0
30.509	11.0
30.524	11.0
30.538	10.0
30.553	12.0
30.568	11.0
30.583	11.0
30.597	8.0
30.612	13.0
30.627	8.0
30.641	17.0
30.656	12.0
30.671	14.0
30.686	7.0
30.7	16.0
30.715	9.0
30.73	7.0
30.745	13.0
30.759	13.0
30.774	19.0
30.789	10.0
30.803	10.0
30.818	13.0
30.833	9.0
30.848	10.0
30.862	9.0
30.877	14.0
30.892	9.0
30.906	10.0
30.921	14.0
30.936	11.0
30.951	12.0
30.965	13.0
30.98	12.0
30.995	14.0
31.009	12.0
31.024	8.0
31.039	15.0
31.053	18.0
31.068	15.0
31.083	14.0
31.098	16.0
31.112	14.0
31.127	21.0
31.142	21.0
31.156	24.0
31.171	23.0
31.186	32.0
31.2	34.0
31.215	27.0
31.23	22.0
31.245	40.0
31.259	31.0
31.274	30.0
31.289	35.0
31.303	26.0
31.318	46.0
31.333	43.0
31.347	29.0
31.362	24.0
31.377	22.0
31.392	28.0
31.406	18.0
31.421	29.0
31.436	29.0
31.45	22.0
31.465	25.0
31.48	21.0
31.494	20.0
31.509	20.0
31.524	13.0
31.538	16.0
31.553	17.0
31.568	15.0
31.583	15.0
31.597	12.0
31.612	9.0
31.627	10.0
31.641	13.0
31.656	14.0
31.671	16.0
31.685	12.0
31.7	10.0
31.715	11.0
31.729	4.0
31.744	5.0
31.759	7.0
31.774	9.0
31.788	9.0
31.803	8.0
31.818	9.0
31.832	11.0
31.847	10.0
31.862	12.0
31.876	13.0
31.891	6.0
31.906	18.0
31.92	12.0
31.935	15.0
31.95	5.0
31.965	8.0
31.979	15.0
31.994	12.0
32.009	10.0
32.023	14.0
32.038	13.0
32.053	9.0
32.067	10.0
32.082	16.0
32.097	14.0
32.112	12.0
32.126	10.0
32.141	6.0
32.156	5.0
32.17	17.0
32.185	8.0
32.2	4.0
32.214	11.0
32.229	6.0
32.244	7.0
32.259	8.0
32.273	10.0
32.288	7.0
32.303	13.0
32.317	6.0
32.332	10.0
32.347	9.0
32.362	15.0
32.376	11.0
32.391	7.0
32.406	11.0
32.42	9.0
32.435	9.0
32.45	9.0
32.465	12.0
32.479	11.0
32.494	9.0
32.509	12.0
32.523	7.0
32.538	13.0
32.553	7.0
32.568	10.0
32.582	14.0
32.597	19.0
32.612	6.0
32.627	5.0
32.641	10.0
32.656	9.0
32.671	11.0
32.685	15.0
32.7	8.0
32.715	15.0
32.73	12.0
32.744	21.0
32.759	18.0
32.774	31.0
32.788	27.0
32.803	24.0
32.818	22.0
32.833	38.0
32.847	26.0
32.862	31.0
32.877	25.0
32.892	16.0
32.906	18.0
32.921	22.0
32.936	23.0
32.951	18.0
32.965	28.0
32.98	21.0
32.995	15.0
33.009	24.0
33.024	19.0
33.039	25.0
33.054	12.0
33.068	20.0
33.083	15.0
33.098	19.0
33.113	11.0
33.127	17.0
33.142	17.0
33.157	15.0
33.172	9.0
33.186	7.0
33.201	14.0
33.216	5.0
33.231	8.0
33.245	5.0
33.26	7.0
33.275	11.0
33.29	11.0
33.304	12.0
33.319	5.0
33.334	11.0
33.349	13.0
33.363	9.0
33.378	13.0
33.393	6.0
33.408	9.0
33.422	11.0
33.437	7.0
33.452	5.0
33.467	1.0
33.481	9.0
33.496	7.0
33.511	11.0
33.526	15.0
33.54	8.0
33.555	11.0
33.57	11.0
33.585	9.0
33.599	8.0
33.614	12.0
33.629	8.0
33.644	8.0
33.658	11.0
33.673	11.0
33.688	8.0
33.703	8.0
33.718	9.0
33.732	5.0
33.747	9.0
33.762	5.0
33.777	8.0
33.791	10.0
33.806	9.0
33.821	9.0
33.836	10.0
33.85	6.0
33.865	16.0
33.88	15.0
33.895	7.0
33.91	11.0
33.924	11.0
33.939	6.0
33.954	12.0
33.969	14.0
33.983	10.0
33.998	11.0
34.013	10.0
34.028	8.0
34.042	11.0
34.057	16.0
34.072	7.0
34.087	13.0
34.102	10.0
34.116	10.0
34.131	15.0
34.146	5.0
34.161	12.0
34.175	15.0
34.19	12.0
34.205	10.0
34.22	13.0
34.235	11.0
34.249	8.0
34.264	16.0
34.279	11.0
34.294	14.0
34.309	16.0
34.323	19.0
34.338	11.0
34.353	14.0
34.368	13.0
34.382	8.0
34.397	13.0
34.412	12.0
34.427	12.0
34.442	13.0
34.456	9.0
34.471	7.0
34.486	15.0
34.501	15.0
34.516	12.0
34.53	13.0
34.545	10.0
34.56	15.0
34.575	14.0
34.59	13.0
34.604	11.0
34.619	5.0
34.634	8.0
34.649	6.0
34.664	9.0
34.678	6.0
34.693	15.0
34.708	9.0
34.723	13.0
34.738	8.0
34.752	12.0
34.767	12.0
34.782	15.0
34.797	10.0
34.812	7.0
34.826	5.0
34.841	8.0
34.856	11.0
34.871	9.0
34.886	6.0
34.9	3.0
34.915	10.0
34.93	9.0
34.945	6.0
34.96	6.0
34.974	8.0
34.989	8.0
35.004	8.0
35.019	10.0
35.034	8.0
35.048	6.0
35.063	5.0
35.078	12.0
35.093	8.0
35.108	17.0
35.122	8.0
35.137	7.0
35.152	3.0
35.167	10.0
35.182	12.0
35.196	7.0
35.211	8.0
35.226	8.0
35.241	13.0
35.256	5.0
35.27	5.0
35.285	10.0
35.3	12.0
35.315	8.0
35.33	8.0
35.344	10.0
35.359	11.0
35.374	8.0
35.389	11.0
35.404	7.0
35.418	9.0
35.433	7.0
35.448	9.0
35.463	10.0
35.478	9.0
35.493	8.0
35.507	4.0
35.522	6.0
35.537	10.0
35.552	7.0
35.567	4.0
35.581	12.0
35.596	12.0
35.611	12.0
35.626	6.0
35.641	10.0
35.655	11.0
35.67	12.0
35.685	17.0
35.7	18.0
35.715	15.0
35.729	17.0
35.744	24.0
35.759	19.0
35.774	17.0
35.789	14.0
35.804	21.0
35.818	20.0
35.833	13.0
35.848	22.0
35.863	11.0
35.878	7.0
35.892	13.0
35.907	11.0
35.922	9.0
35.937	15.0
35.952	18.0
35.966	12.0
35.981	21.0
35.996	12.0
36.011	18.0
36.026	10.0
36.04	9.0
36.055	16.0
36.07	9.0
36.085	7.0
36.1	9.0
36.114	11.0
36.129	6.0
36.144	7.0
36.159	7.0
36.174	11.0
36.189	9.0
36.203	7.0
36.218	8.0
36.233	9.0
36.248	5.0
36.263	13.0
36.277	8.0
36.292	7.0
36.307	8.0
36.322	11.0
36.337	13.0
36.351	8.0
36.366	5.0
36.381	16.0
36.396	15.0
36.411	10.0
36.426	11.0
36.44	6.0
36.455	8.0
36.47	6.0
36.485	14.0
36.5	14.0
36.514	13.0
36.529	10.0
36.544	5.0
36.559	10.0
36.574	9.0
36.589	10.0
36.603	13.0
36.618	9.0
36.633	9.0
36.648	7.0
36.663	7.0
36.677	8.0
36.692	5.0
36.707	3.0
36.722	8.0
36.737	5.0
36.752	8.0
36.766	9.0
36.781	9.0
36.796	8.0
36.811	11.0
36.826	8.0
36.841	11.0
36.855	9.0
36.87	5.0
36.885	9.0
36.9	9.0
36.915	7.0
36.93	7.0
36.944	4.0
36.959	11.0
36.974	8.0
36.989	9.0
37.004	13.0
37.019	9.0
37.033	11.0
37.048	10.0
37.063	19.0
37.078	18.0
37.093	17.0
37.108	25.0
37.123	26.0
37.137	20.0
37.152	33.0
37.167	26.0
37.182	23.0
37.197	19.0
37.212	26.0
37.226	32.0
37.241	16.0
37.256	20.0
37.271	27.0
37.286	24.0
37.301	17.0
37.316	15.0
37.331	21.0
37.345	16.0
37.36	13.0
37.375	22.0
37.39	18.0
37.405	29.0
37.42	16.0
37.435	15.0
37.45	18.0
37.464	10.0
37.479	17.0
37.494	9.0
37.509	13.0
37.524	8.0
37.539	11.0
37.554	7.0
37.569	7.0
37.583	8.0
37.598	8.0
37.613	5.0
37.628	7.0
37.643	5.0
37.658	5.0
37.673	8.0
37.688	9.0
37.703	12.0
37.718	3.0
37.733	10.0
37.747	9.0
37.762	4.0
37.777	7.0
37.792	4.0
37.807	7.0
37.822	6.0
37.837	6.0
37.852	2.0
37.867	7.0
37.882	9.0
37.897	7.0
37.912	7.0
37.927	8.0
37.941	2.0
37.956	3.0
37.971	5.0
37.986	5.0
38.001	7.0
38.016	10.0
38.031	7.0
38.046	6.0
38.061	7.0
38.076	2.0
38.091	6.0
38.106	4.0
38.121	8.0
38.136	6.0
38.151	8.0
38.166	7.0
38.181	3.0
38.196	7.0
38.211	6.0
38.226	8.0
38.241	6.0
38.256	3.0
38.271	5.0
38.285	2.0
38.3	6.0
38.315	5.0
38.33	4.0
38.345	5.0
38.36	4.0
38.375	4.0
38.39	10.0
38.405	8.0
38.42	8.0
38.435	4.0
38.45	10.0
38.465	5.0
38.48	3.0
38.495	5.0
38.51	11.0
38.525	9.0
38.54	5.0
38.555	5.0
38.57	6.0
38.585	8.0
38.6	4.0
38.615	4.0
38.63	5.0
38.645	5.0
38.66	11.0
38.675	2.0
38.69	11.0
38.705	9.0
38.72	10.0
38.735	8.0
38.75	9.0
38.765	5.0
38.78	6.0
38.795	6.0
38.81	8.0
38.825	10.0
38.84	8.0
38.855	7.0
38.87	6.0
38.885	8.0
38.9	6.0
38.915	4.0
38.93	6.0
38.945	9.0
38.96	5.0
38.975	2.0
38.99	5.0
39.005	6.0
39.02	8.0
39.035	5.0
39.05	8.0
39.065	5.0
39.08	5.0
39.095	4.0
39.11	7.0
39.125	1.0
39.14	3.0
39.155	2.0
39.17	5.0
39.185	6.0
39.2	2.0
39.215	4.0
39.23	5.0
39.245	6.0
39.26	7.0
39.275	5.0
39.29	10.0
39.305	10.0
39.32	4.0
39.335	4.0
39.35	11.0
39.365	6.0
39.38	10.0
39.395	8.0
39.409	12.0
39.424	3.0
39.439	6.0
39.454	6.0
39.469	5.0
39.484	8.0
39.499	2.0
39.514	4.0
39.529	7.0
39.544	6.0
39.559	8.0
39.574	4.0
39.589	5.0
39.604	7.0
39.619	3.0
39.634	3.0
39.649	4.0
39.664	5.0
39.678	4.0
39.693	6.0
39.708	3.0
39.723	4.0
39.738	4.0
39.753	7.0
39.768	4.0
39.783	4.0
39.798	3.0
39.813	11.0
39.827	11.0
39.842	3.0
39.857	13.0
39.872	7.0
39.887	8.0
39.902	8.0
39.917	14.0
39.932	7.0
39.947	5.0
39.961	3.0
39.976	9.0
39.991	6.0
40.006	7.0
40.021	4.0
40.036	7.0
40.051	7.0
40.065	7.0
40.08	9.0
40.095	9.0
40.11	10.0
40.125	6.0
40.14	4.0
40.154	7.0
40.169	4.0
40.184	8.0
40.199	4.0
40.214	5.0
40.228	2.0
40.243	6.0
40.258	4.0
40.273	7.0
40.288	8.0
40.302	4.0
40.317	11.0
40.332	4.0
40.347	4.0
40.362	5.0
40.376	12.0
40.391	8.0
40.406	2.0
40.421	3.0
40.436	7.0
40.45	4.0
40.465	3.0
40.48	5.0
40.495	4.0
40.509	7.0
40.524	7.0
40.539	1.0
40.554	8.0
40.568	8.0
40.583	9.0
40.598	3.0
40.613	11.0
40.627	11.0
40.642	4.0
40.657	6.0
40.672	3.0
40.686	3.0
40.701	10.0
40.716	2.0
40.731	9.0
40.745	2.0
40.76	4.0
40.775	4.0
40.79	10.0
40.804	6.0
40.819	3.0
40.834	2.0
40.849	12.0
40.863	7.0
40.878	8.0
40.893	4.0
40.907	8.0
40.922	10.0
40.937	4.0
40.952	4.0
40.966	3.0
40.981	7.0
40.996	4.0
41.011	18.0
41.025	10.0
41.04	18.0
41.055	12.0
41.069	5.0
41.084	17.0
41.099	22.0
41.114	17.0
41.128	14.0
41.143	20.0
41.158	17.0
41.173	19.0
41.187	18.0
41.202	21.0
41.217	16.0
41.231	14.0
41.246	8.0
41.261	17.0
41.276	11.0
41.29	9.0
41.305	13.0
41.32	9.0
41.335	8.0
41.349	11.0
41.364	23.0
41.379	12.0
41.393	8.0
41.408	26.0
41.423	12.0
41.438	16.0
41.452	17.0
41.467	11.0
41.482	13.0
41.497	9.0
41.511	9.0
41.526	4.0
41.541	4.0
41.556	5.0
41.57	5.0
41.585	3.0
41.6	7.0
41.615	7.0
41.629	3.0
41.644	6.0
41.659	4.0
41.674	9.0
41.688	2.0
41.703	5.0
41.718	4.0
41.733	4.0
41.747	4.0
41.762	11.0
41.777	6.0
41.792	6.0
41.806	2.0
41.821	5.0
41.836	5.0
41.851	7.0
41.866	5.0
41.88	8.0
41.895	9.0
41.91	3.0
41.925	8.0
41.939	8.0
41.954	4.0
41.969	9.0
41.984	4.0
41.999	6.0
42.013	3.0
42.028	5.0
42.043	4.0
42.058	6.0
42.073	3.0
42.088	10.0
42.102	7.0
42.117	4.0
42.132	4.0
42.147	5.0
42.162	5.0
42.176	4.0
42.191	9.0
42.206	7.0
42.221	12.0
42.236	8.0
42.251	11.0
42.266	8.0
42.28	6.0
42.295	13.0
42.31	8.0
42.325	5.0
42.34	18.0
42.355	15.0
42.369	15.0
42.384	18.0
42.399	16.0
42.414	6.0
42.429	11.0
42.444	17.0
42.459	14.0
42.474	10.0
42.488	12.0
42.503	7.0
42.518	9.0
42.533	6.0
42.548	12.0
42.563	6.0
42.578	17.0
42.593	14.0
42.608	14.0
42.622	11.0
42.637	9.0
42.652	7.0
42.667	14.0
42.682	16.0
42.697	9.0
42.712	14.0
42.727	12.0
42.742	12.0
42.757	8.0
42.772	6.0
42.786	4.0
42.801	3.0
42.816	9.0
42.831	4.0
42.846	6.0
42.861	5.0
42.876	3.0
42.891	5.0
42.906	4.0
42.921	4.0
42.936	4.0
42.951	6.0
42.966	4.0
42.981	4.0
42.996	5.0
43.011	2.0
43.025	12.0
43.04	7.0
43.055	6.0
43.07	1.0
43.085	5.0
43.1	6.0
43.115	8.0
43.13	5.0
43.145	14.0
43.16	2.0
43.175	7.0
43.19	5.0
43.205	5.0
43.22	8.0
43.235	10.0
43.25	5.0
43.265	6.0
43.28	2.0
43.295	7.0
43.31	6.0
43.325	3.0
43.34	6.0
43.355	7.0
43.37	8.0
43.385	2.0
43.4	3.0
43.415	8.0
43.43	5.0
43.445	5.0
43.46	2.0
43.475	4.0
43.49	4.0
43.505	4.0
43.52	4.0
43.535	10.0
43.55	5.0
43.565	10.0
43.58	11.0
43.595	9.0
43.61	6.0
43.625	12.0
43.64	10.0
43.655	7.0
43.67	10.0
43.685	9.0
43.7	9.0
43.715	4.0
43.73	2.0
43.745	5.0
43.76	4.0
43.775	4.0
43.79	5.0
43.805	8.0
43.82	6.0
43.835	7.0
43.85	9.0
43.865	7.0
43.88	12.0
43.895	9.0
43.91	5.0
43.925	10.0
43.94	5.0
43.955	5.0
43.97	2.0
43.985	11.0
44.0	6.0
44.015	5.0
44.03	9.0
44.045	5.0
44.061	3.0
44.076	5.0
44.091	10.0
44.106	5.0
44.121	7.0
44.136	4.0
44.151	2.0
44.166	6.0
44.181	7.0
44.196	4.0
44.211	5.0
44.226	1.0
44.241	7.0
44.256	2.0
44.271	3.0
44.286	5.0
44.301	4.0
44.316	5.0
44.331	6.0
44.346	6.0
44.361	1.0
44.377	2.0
44.392	9.0
44.407	1.0
44.422	3.0
44.437	3.0
44.452	6.0
44.467	5.0
44.482	3.0
44.497	7.0
44.512	5.0
44.527	3.0
44.542	4.0
44.557	7.0
44.572	5.0
44.587	10.0
44.602	9.0
44.617	4.0
44.632	6.0
44.647	8.0
44.663	3.0
44.678	4.0
44.693	6.0
44.708	10.0
44.723	4.0
44.738	11.0
44.753	10.0
44.768	9.0
44.783	10.0
44.798	15.0
44.813	9.0
44.828	13.0
44.843	15.0
44.858	8.0
44.873	8.0
44.888	9.0
44.903	11.0
44.918	4.0
44.933	10.0
44.948	5.0
44.964	10.0
44.979	4.0
44.994	11.0
45.009	9.0
45.024	6.0
45.039	6.0
45.054	7.0
45.069	8.0
45.084	6.0
45.099	11.0
45.114	7.0
45.129	7.0
45.144	10.0
45.159	7.0
45.174	6.0
45.189	5.0
45.204	6.0
45.219	6.0
45.234	5.0
45.249	4.0
45.264	5.0
45.279	6.0
45.294	2.0
45.309	6.0
45.324	7.0
45.339	4.0
45.354	7.0
45.369	4.0
45.384	7.0
45.399	5.0
45.414	5.0
45.429	7.0
45.444	5.0
45.459	5.0
45.474	5.0
45.489	4.0
45.504	3.0
45.519	4.0
45.534	4.0
45.549	1.0
45.564	4.0
45.579	5.0
45.594	3.0
45.609	5.0
45.624	6.0
45.639	7.0
45.654	10.0
45.669	10.0
45.684	6.0
45.699	8.0
45.714	4.0
45.729	3.0
45.744	2.0
45.759	8.0
45.774	4.0
45.789	4.0
45.804	6.0
45.819	3.0
45.834	3.0
45.849	5.0
45.864	7.0
45.879	11.0
45.894	9.0
45.909	12.0
45.924	11.0
45.939	14.0
45.954	20.0
45.969	17.0
45.984	8.0
45.998	18.0
46.013	16.0
46.028	20.0
46.043	10.0
46.058	12.0
46.073	8.0
46.088	11.0
46.103	5.0
46.118	9.0
46.133	9.0
46.148	9.0
46.163	8.0
46.178	7.0
46.192	6.0
46.207	11.0
46.222	7.0
46.237	9.0
46.252	13.0
46.267	8.0
46.282	12.0
46.297	8.0
46.312	14.0
46.327	10.0
46.341	9.0
46.356	7.0
46.371	6.0
46.386	8.0
46.401	5.0
46.416	7.0
46.431	3.0
46.446	8.0
46.46	9.0
46.475	6.0
46.49	4.0
46.505	4.0
46.52	3.0
46.535	7.0
46.55	6.0
46.564	3.0
46.579	5.0
46.594	7.0
46.609	8.0
46.624	6.0
46.639	5.0
46.654	3.0
46.668	5.0
46.683	3.0
46.698	3.0
46.713	1.0
46.728	6.0
46.743	2.0
46.758	4.0
46.772	6.0
46.787	10.0
46.802	3.0
46.817	2.0
46.832	5.0
46.847	7.0
46.861	6.0
46.876	5.0
46.891	2.0
46.906	3.0
46.921	7.0
46.936	6.0
46.95	7.0
46.965	7.0
46.98	10.0
46.995	3.0
47.01	8.0
47.025	7.0
47.039	12.0
47.054	10.0
47.069	6.0
47.084	8.0
47.099	17.0
47.113	6.0
47.128	12.0
47.143	10.0
47.158	14.0
47.173	12.0
47.188	8.0
47.202	3.0
47.217	10.0
47.232	7.0
47.247	7.0
47.262	5.0
47.277	6.0
47.291	4.0
47.306	7.0
47.321	3.0
47.336	5.0
47.351	5.0
47.365	9.0
47.38	10.0
47.395	6.0
47.41	12.0
47.425	10.0
47.44	6.0
47.454	4.0
47.469	4.0
47.484	13.0
47.499	8.0
47.514	7.0
47.528	2.0
47.543	6.0
47.558	4.0
47.573	4.0
47.588	3.0
47.603	7.0
47.617	2.0
47.632	4.0
47.647	5.0
47.662	4.0
47.677	2.0
47.691	3.0
47.706	7.0
47.721	6.0
47.736	1.0
47.751	4.0
47.766	8.0
47.78	5.0
47.795	4.0
47.81	5.0
47.825	5.0
47.84	5.0
47.855	6.0
47.869	2.0
47.884	8.0
47.899	5.0
47.914	1.0
47.929	3.0
47.944	8.0
47.958	6.0
47.973	5.0
47.988	0.0
48.003	4.0
48.018	7.0
48.033	5.0
48.047	1.0
48.062	1.0
48.077	1.0
48.092	5.0
48.107	4.0
48.122	2.0
48.137	2.0
48.151	6.0
48.166	3.0
48.181	4.0
48.196	4.0
48.211	6.0
48.226	4.0
48.241	6.0
48.255	5.0
48.27	4.0
48.285	4.0
48.3	5.0
48.315	6.0
48.33	3.0
48.345	3.0
48.359	9.0
48.374	3.0
48.389	3.0
48.404	4.0
48.419	6.0
48.434	3.0
48.449	3.0
48.464	5.0
48.478	3.0
48.493	6.0
48.508	2.0
48.523	8.0
48.538	4.0
48.553	8.0
48.568	8.0
48.583	7.0
48.597	3.0
48.612	7.0
48.627	1.0
48.642	3.0
48.657	3.0
48.672	5.0
48.687	2.0
48.702	5.0
48.717	3.0
48.731	6.0
48.746	7.0
48.761	4.0
48.776	5.0
48.791	6.0
48.806	7.0
48.821	9.0
48.836	5.0
48.851	6.0
48.866	6.0
48.88	7.0
48.895	6.0
48.91	4.0
48.925	7.0
48.94	7.0
48.955	1.0
48.97	4.0
48.985	6.0
49.0	7.0
49.015	4.0
49.03	6.0
49.044	6.0
49.059	3.0
49.074	4.0
49.089	4.0
49.104	6.0
49.119	5.0
49.134	3.0
49.149	1.0
49.164	7.0
49.179	3.0
49.194	2.0
49.209	3.0
49.224	7.0
49.238	3.0
49.253	7.0
49.268	8.0
49.283	9.0
49.298	0.0
49.313	5.0
49.328	7.0
49.343	5.0
49.358	5.0
49.373	10.0
49.388	13.0
49.403	7.0
49.418	7.0
49.433	11.0
49.448	6.0
49.463	6.0
49.478	10.0
49.492	3.0
49.507	4.0
49.522	5.0
49.537	8.0
49.552	4.0
49.567	8.0
49.582	7.0
49.597	4.0
49.612	5.0
49.627	5.0
49.642	8.0
49.657	7.0
49.672	3.0
49.687	5.0
49.702	8.0
49.717	3.0
49.732	7.0
49.747	2.0
49.762	6.0
49.777	4.0
49.792	3.0
49.807	3.0
49.822	4.0
49.837	4.0
49.852	3.0
49.867	2.0
49.882	5.0
49.897	7.0
49.912	6.0
49.927	3.0
49.942	11.0
49.957	2.0
49.971	0.0
49.986	9.0
50.001	2.0
50.016	3.0
50.031	7.0
50.046	8.0
50.061	4.0
50.076	3.0
50.091	4.0
50.106	8.0
50.121	6.0
50.136	6.0
50.151	9.0
50.166	1.0
50.181	6.0
50.196	5.0
50.211	4.0
50.226	4.0
50.241	5.0
50.256	5.0
50.271	4.0
50.286	4.0
50.302	2.0
50.317	4.0
50.332	4.0
50.347	5.0
50.362	5.0
50.377	8.0
50.392	12.0
50.407	8.0
50.422	14.0
50.437	4.0
50.452	4.0
50.467	3.0
50.482	11.0
50.497	4.0
50.512	5.0
50.527	6.0
50.542	6.0
50.557	5.0
50.572	7.0
50.587	4.0
50.602	6.0
50.617	5.0
50.632	6.0
50.647	11.0
50.662	7.0
50.677	8.0
50.692	5.0
50.707	1.0
50.722	5.0
50.737	7.0
50.752	13.0
50.767	7.0
50.782	6.0
50.797	4.0
50.812	3.0
50.828	6.0
50.843	8.0
50.858	7.0
50.873	8.0
50.888	2.0
50.903	4.0
50.918	8.0
50.933	4.0
50.948	4.0
50.963	4.0
50.978	6.0
50.993	3.0
51.008	4.0
51.023	5.0
51.038	3.0
51.053	4.0
51.068	7.0
51.083	3.0
51.098	10.0
51.114	2.0
51.129	2.0
51.144	3.0
51.159	5.0
51.174	6.0
51.189	4.0
51.204	5.0
51.219	6.0
51.234	5.0
51.249	5.0
51.264	4.0
51.279	5.0
51.294	9.0
51.309	4.0
51.324	6.0
51.34	4.0
51.355	1.0
51.37	6.0
51.385	2.0
51.4	9.0
51.415	7.0
51.43	9.0
51.445	14.0
51.46	7.0
51.475	4.0
51.49	12.0
51.505	19.0
51.52	20.0
51.535	19.0
51.551	7.0
51.566	6.0
51.581	12.0
51.596	8.0
51.611	13.0
51.626	6.0
51.641	4.0
51.656	9.0
51.671	6.0
51.686	6.0
51.701	4.0
51.716	4.0
51.732	6.0
51.747	9.0
51.762	9.0
51.777	10.0
51.792	10.0
51.807	11.0
51.822	17.0
51.837	11.0
51.852	14.0
51.867	7.0
51.882	8.0
51.898	4.0
51.913	8.0
51.928	3.0
51.943	4.0
51.958	5.0
51.973	4.0
51.988	4.0
52.003	4.0
52.018	6.0
52.033	4.0
52.048	4.0
52.064	1.0
52.079	1.0
52.094	5.0
52.109	2.0
52.124	6.0
52.139	8.0
52.154	5.0
52.169	6.0
52.184	5.0
52.199	8.0
52.215	9.0
52.23	2.0
52.245	6.0
52.26	2.0
52.275	8.0
52.29	3.0
52.305	7.0
52.32	7.0
52.335	5.0
52.35	4.0
52.366	4.0
52.381	6.0
52.396	8.0
52.411	7.0
52.426	5.0
52.441	6.0
52.456	7.0
52.471	5.0
52.486	6.0
52.502	7.0
52.517	10.0
52.532	3.0
52.547	11.0
52.562	10.0
52.577	10.0
52.592	9.0
52.607	6.0
52.622	8.0
52.637	8.0
52.653	10.0
52.668	4.0
52.683	5.0
52.698	7.0
52.713	6.0
52.728	3.0
52.743	3.0
52.758	4.0
52.774	6.0
52.789	6.0
52.804	14.0
52.819	5.0
52.834	6.0
52.849	8.0
52.864	13.0
52.879	2.0
52.894	4.0
52.91	6.0
52.925	6.0
52.94	5.0
52.955	4.0
52.97	6.0
52.985	9.0
53.0	3.0
53.015	3.0
53.031	4.0
53.046	2.0
53.061	8.0
53.076	2.0
53.091	9.0
53.106	7.0
53.121	6.0
53.136	7.0
53.152	6.0
53.167	4.0
53.182	8.0
53.197	3.0
53.212	5.0
53.227	6.0
53.242	8.0
53.257	4.0
53.273	8.0
53.288	4.0
53.303	11.0
53.318	3.0
53.333	4.0
53.348	1.0
53.363	3.0
53.379	6.0
53.394	3.0
53.409	3.0
53.424	6.0
53.439	8.0
53.454	3.0
53.469	5.0
53.484	4.0
53.5	5.0
53.515	5.0
53.53	4.0
53.545	4.0
53.56	7.0
53.575	4.0
53.59	5.0
53.606	2.0
53.621	7.0
53.636	7.0
53.651	2.0
53.666	6.0
53.681	3.0
53.696	1.0
53.712	4.0
53.727	7.0
53.742	6.0
53.757	11.0
53.772	2.0
53.787	5.0
53.802	5.0
53.818	1.0
53.833	3.0
53.848	6.0
53.863	2.0
53.878	6.0
53.893	6.0
53.909	2.0
53.924	8.0
53.939	4.0
53.954	3.0
53.969	4.0
53.984	5.0
53.999	5.0
54.015	5.0
54.03	3.0
54.045	6.0
54.06	6.0
54.075	6.0
54.09	4.0
54.106	6.0
54.121	7.0
54.136	4.0
54.151	3.0
54.166	3.0
54.181	6.0
54.197	5.0
54.212	2.0
54.227	3.0
54.242	2.0
54.257	8.0
54.272	2.0
54.288	3.0
54.303	7.0
54.318	5.0
54.333	6.0
54.348	5.0
54.363	4.0
54.379	10.0
54.394	5.0
54.409	5.0
54.424	4.0
54.439	3.0
54.454	7.0
54.47	5.0
54.485	9.0
54.5	9.0
54.515	10.0
54.53	6.0
54.545	5.0
54.561	5.0
54.576	5.0
54.591	6.0
54.606	6.0
54.621	6.0
54.636	14.0
54.652	17.0
54.667	11.0
54.682	19.0
54.697	22.0
54.712	16.0
54.727	8.0
54.743	7.0
54.758	6.0
54.773	7.0
54.788	11.0
54.803	4.0
54.819	3.0
54.834	2.0
54.849	6.0
54.864	6.0
54.879	3.0
54.894	8.0
54.91	6.0
54.925	5.0
54.94	3.0
54.955	9.0
54.97	8.0
54.985	9.0
55.001	7.0
55.016	14.0
55.031	7.0
55.046	8.0
55.061	7.0
55.077	5.0
55.092	7.0
55.107	3.0
55.122	5.0
55.137	6.0
55.152	6.0
55.168	4.0
55.183	4.0
55.198	3.0
55.213	5.0
55.228	11.0
55.243	4.0
55.259	2.0
55.274	5.0
55.289	7.0
55.304	2.0
55.319	8.0
55.335	6.0
55.35	2.0
55.365	6.0
55.38	4.0
55.395	5.0
55.41	6.0
55.426	3.0
55.441	4.0
55.456	6.0
55.471	8.0
55.486	6.0
55.501	5.0
55.517	5.0
55.532	3.0
55.547	3.0
55.562	4.0
55.577	8.0
55.592	11.0
55.608	4.0
55.623	7.0
55.638	12.0
55.653	3.0
55.668	9.0
55.683	7.0
55.699	13.0
55.714	10.0
55.729	4.0
55.744	7.0
55.759	6.0
55.774	3.0
55.79	4.0
55.805	5.0
55.82	5.0
55.835	4.0
55.85	7.0
55.865	4.0
55.881	3.0
55.896	7.0
55.911	7.0
55.926	3.0
55.941	4.0
55.956	10.0
55.972	4.0
55.987	6.0
56.002	5.0
56.017	1.0
56.032	9.0
56.047	5.0
56.063	2.0
56.078	7.0
56.093	6.0
56.108	10.0
56.123	8.0
56.138	8.0
56.154	2.0
56.169	5.0
56.184	1.0
56.199	3.0
56.214	4.0
56.229	4.0
56.244	5.0
56.26	4.0
56.275	2.0
56.29	4.0
56.305	5.0
56.32	4.0
56.335	5.0
56.351	8.0
56.366	5.0
56.381	3.0
56.396	7.0
56.411	1.0
56.426	5.0
56.441	5.0
56.457	5.0
56.472	4.0
56.487	4.0
56.502	6.0
56.517	2.0
56.532	6.0
56.547	4.0
56.563	4.0
56.578	2.0
56.593	3.0
56.608	5.0
56.623	2.0
56.638	4.0
56.653	6.0
56.668	5.0
56.684	5.0
56.699	4.0
56.714	0.0
56.729	2.0
56.744	2.0
56.759	1.0
56.774	4.0
56.79	6.0
56.805	6.0
56.82	5.0
56.835	5.0
56.85	0.0
56.865	4.0
56.88	1.0
56.895	10.0
56.911	2.0
56.926	3.0
56.941	4.0
56.956	1.0
56.971	8.0
56.986	5.0
57.001	3.0
57.016	2.0
57.031	3.0
57.047	3.0
57.062	7.0
57.077	6.0
57.092	2.0
57.107	6.0
57.122	9.0
57.137	3.0
57.152	2.0
57.167	5.0
57.183	5.0
57.198	4.0
57.213	5.0
57.228	1.0
57.243	6.0
57.258	4.0
57.273	1.0
57.288	6.0
57.303	6.0
57.318	2.0
57.334	0.0
57.349	4.0
57.364	4.0
57.379	2.0
57.394	4.0
57.409	3.0
57.424	4.0
57.439	5.0
57.454	3.0
57.469	2.0
57.484	2.0
57.5	2.0
57.515	2.0
57.53	4.0
57.545	5.0
57.56	3.0
57.575	7.0
57.59	5.0
57.605	7.0
57.62	10.0
57.635	3.0
57.65	5.0
57.665	1.0
57.68	5.0
57.696	7.0
57.711	6.0
57.726	6.0
57.741	6.0
57.756	6.0
57.771	2.0
57.786	7.0
57.801	1.0
57.816	6.0
57.831	6.0
57.846	5.0
57.861	6.0
57.876	4.0
57.891	6.0
57.906	5.0
57.921	10.0
57.937	3.0
57.952	2.0
57.967	3.0
57.982	4.0
57.997	4.0
58.012	8.0
58.027	5.0
58.042	1.0
58.057	7.0
58.072	3.0
58.087	10.0
58.102	3.0
58.117	3.0
58.132	2.0
58.147	5.0
58.162	3.0
58.177	2.0
58.192	3.0
58.207	6.0
58.222	3.0
58.237	0.0
58.252	4.0
58.267	3.0
58.282	4.0
58.297	3.0
58.312	4.0
58.327	2.0
58.342	2.0
58.357	4.0
58.372	8.0
58.387	3.0
58.402	1.0
58.418	3.0
58.433	4.0
58.448	7.0
58.463	4.0
58.478	3.0
58.493	8.0
58.508	8.0
58.523	3.0
58.538	5.0
58.553	6.0
58.568	8.0
58.583	7.0
58.598	9.0
58.613	10.0
58.628	8.0
58.643	7.0
58.658	10.0
58.673	17.0
58.688	7.0
58.703	5.0
58.718	12.0
58.733	2.0
58.748	7.0
58.763	8.0
58.778	7.0
58.793	6.0
58.808	4.0
58.823	6.0
58.838	8.0
58.853	2.0
58.868	2.0
58.883	4.0
58.898	7.0
58.913	4.0
58.928	12.0
58.942	4.0
58.957	3.0
58.972	4.0
58.987	9.0
59.002	6.0
59.017	7.0
59.032	8.0
59.047	5.0
59.062	8.0
59.077	4.0
59.092	6.0
59.107	8.0
59.122	6.0
59.137	8.0
59.152	4.0
59.167	1.0
59.182	1.0
59.197	7.0
59.212	8.0
59.227	6.0
59.242	3.0
59.257	7.0
59.272	1.0
59.287	4.0
59.302	4.0
59.317	7.0
59.332	6.0
59.347	4.0
59.362	6.0
59.377	3.0
59.392	5.0
59.407	8.0
59.422	2.0
59.437	5.0
59.452	1.0
59.467	3.0
59.482	4.0
59.497	5.0
59.512	8.0
59.527	6.0
59.542	5.0
59.557	10.0
59.572	11.0
59.587	8.0
59.602	14.0
59.617	9.0
59.632	6.0
59.647	12.0
59.661	12.0
59.676	4.0
59.691	7.0
59.706	2.0
59.721	6.0
59.736	4.0
59.751	9.0
59.766	7.0
59.781	6.0
59.796	1.0
59.811	4.0
59.826	3.0
59.841	5.0
59.856	6.0
59.871	4.0
59.886	5.0
59.901	5.0
59.916	6.0
59.931	7.0
59.946	9.0
59.961	7.0
59.976	7.0
59.991	6.0
60.006	8.0
60.021	2.0
60.036	5.0
60.051	6.0
60.066	5.0
60.081	6.0
60.096	2.0
60.111	4.0
60.126	7.0
60.141	3.0
60.156	7.0
60.171	2.0
60.186	3.0
60.201	2.0
60.216	1.0
60.231	4.0
60.246	3.0
60.261	3.0
60.276	3.0
60.291	4.0
60.306	5.0
60.321	9.0
60.336	5.0
60.35	2.0
60.365	6.0
60.38	7.0
60.395	3.0
60.41	5.0
60.425	5.0
60.44	1.0
60.455	8.0
60.47	3.0
60.485	5.0
60.5	10.0
60.515	6.0
60.53	5.0
60.545	9.0
60.56	2.0
60.575	9.0
60.59	2.0
60.605	6.0
60.62	5.0
60.635	5.0
60.65	7.0
60.665	6.0
60.68	2.0
60.695	3.0
60.71	5.0
60.725	5.0
60.74	4.0
60.755	4.0
60.77	4.0
60.785	3.0
60.8	6.0
60.815	2.0
60.83	1.0
60.845	1.0
60.86	0.0
60.875	5.0
60.89	4.0
60.905	8.0
60.92	5.0
60.935	6.0
60.95	5.0
60.965	12.0
60.98	4.0
60.995	4.0
61.01	8.0
61.025	6.0
61.04	4.0
61.055	1.0
61.07	5.0
61.085	2.0
61.1	4.0
61.115	4.0
61.13	1.0
61.145	8.0
61.16	9.0
61.175	6.0
61.191	4.0
61.206	3.0
61.221	4.0
61.236	3.0
61.251	7.0
61.266	1.0
61.281	6.0
61.296	8.0
61.311	3.0
61.326	2.0
61.341	2.0
61.356	2.0
61.371	2.0
61.386	1.0
61.401	5.0
61.416	6.0
61.431	8.0
61.446	4.0
61.461	5.0
61.476	2.0
61.491	4.0
61.506	4.0
61.521	6.0
61.536	8.0
61.551	6.0
61.566	9.0
61.581	4.0
61.596	6.0
61.611	10.0
61.626	5.0
61.641	6.0
61.656	3.0
61.672	7.0
61.687	2.0
61.702	3.0
61.717	2.0
61.732	4.0
61.747	5.0
61.762	1.0
61.777	6.0
61.792	3.0
61.807	5.0
61.822	2.0
61.837	5.0
61.852	2.0
61.867	7.0
61.882	2.0
61.897	6.0
61.912	8.0
61.927	4.0
61.943	4.0
61.958	5.0
61.973	5.0
61.988	9.0
62.003	5.0
62.018	1.0
62.033	3.0
62.048	1.0
62.063	7.0
62.078	2.0
62.093	4.0
62.108	6.0
62.123	4.0
62.138	6.0
62.153	3.0
62.169	5.0
62.184	3.0
62.199	3.0
62.214	3.0
62.229	4.0
62.244	6.0
62.259	4.0
62.274	4.0
62.289	2.0
62.304	4.0
62.319	3.0
62.335	3.0
62.35	5.0
62.365	3.0
62.38	2.0
62.395	3.0
62.41	4.0
62.425	5.0
62.44	4.0
62.455	6.0
62.47	2.0
62.485	5.0
62.501	2.0
62.516	6.0
62.531	5.0
62.546	5.0
62.561	1.0
62.576	2.0
62.591	6.0
62.606	2.0
62.621	3.0
62.636	6.0
62.652	5.0
62.667	7.0
62.682	1.0
62.697	3.0
62.712	1.0
62.727	1.0
62.742	5.0
62.757	5.0
62.772	3.0
62.787	8.0
62.803	3.0
62.818	7.0
62.833	3.0
62.848	3.0
62.863	4.0
62.878	2.0
62.893	3.0
62.908	0.0
62.923	1.0
62.939	4.0
62.954	7.0
62.969	3.0
62.984	3.0
62.999	0.0
63.014	2.0
63.029	3.0
63.044	3.0
63.059	5.0
63.074	3.0
63.09	7.0
63.105	3.0
63.12	5.0
63.135	2.0
63.15	5.0
63.165	5.0
63.18	9.0
63.195	2.0
63.21	5.0
63.226	4.0
63.241	1.0
63.256	5.0
63.271	1.0
63.286	2.0
63.301	5.0
63.316	4.0
63.331	5.0
63.346	3.0
63.362	5.0
63.377	8.0
63.392	7.0
63.407	5.0
63.422	6.0
63.437	14.0
63.452	7.0
63.467	10.0
63.482	7.0
63.497	2.0
63.513	5.0
63.528	6.0
63.543	7.0
63.558	3.0
63.573	2.0
63.588	5.0
63.603	1.0
63.618	5.0
63.633	2.0
63.648	3.0
63.664	5.0
63.679	0.0
63.694	5.0
63.709	3.0
63.724	5.0
63.739	4.0
63.754	7.0
63.769	7.0
63.784	6.0
63.799	5.0
63.814	5.0
63.83	7.0
63.845	7.0
63.86	4.0
63.875	4.0
63.89	4.0
63.905	2.0
63.92	4.0
63.935	5.0
63.95	5.0
63.965	3.0
63.98	4.0
63.996	4.0
64.011	11.0
64.026	3.0
64.041	1.0
64.056	7.0
64.071	4.0
64.086	1.0
64.101	9.0
64.116	5.0
64.131	4.0
64.146	5.0
64.161	2.0
64.176	3.0
64.191	4.0
64.207	8.0
64.222	1.0
64.237	3.0
64.252	6.0
64.267	2.0
64.282	2.0
64.297	2.0
64.312	3.0
64.327	0.0
64.342	3.0
64.357	5.0
64.372	2.0
64.387	1.0
64.402	6.0
64.417	3.0
64.433	6.0
64.448	6.0
64.463	6.0
64.478	3.0
64.493	3.0
64.508	4.0
64.523	3.0
64.538	1.0
64.553	4.0
64.568	2.0
64.583	1.0
64.598	4.0
64.613	4.0
64.628	3.0
64.643	7.0
64.658	5.0
64.673	5.0
64.688	3.0
64.703	2.0
64.718	0.0
64.734	2.0
64.749	5.0
64.764	7.0
64.779	1.0
64.794	5.0
64.809	7.0
64.824	6.0
64.839	0.0
64.854	2.0
64.869	2.0
64.884	4.0
64.899	5.0
64.914	1.0
64.929	4.0
64.944	7.0
64.959	3.0
64.974	3.0
64.989	0.0
65.004	4.0
65.019	6.0
65.034	2.0
65.049	4.0
65.064	6.0
65.079	3.0
65.094	5.0
65.109	2.0
65.125	2.0
65.14	8.0
65.155	4.0
65.17	1.0
65.185	3.0
65.2	7.0
65.215	4.0
65.23	7.0
65.245	7.0
65.26	4.0
65.275	5.0
65.29	2.0
65.305	6.0
65.32	5.0
65.335	6.0
65.35	3.0
65.365	5.0
65.38	5.0
65.395	2.0
65.41	3.0
65.425	2.0
65.44	2.0
65.455	4.0
65.47	3.0
65.485	2.0
65.5	3.0
65.515	1.0
65.53	5.0
65.545	4.0
65.56	2.0
65.575	0.0
65.59	7.0
65.605	9.0
65.62	5.0
65.635	3.0
65.65	7.0
65.666	6.0
65.681	4.0
65.696	5.0
65.711	1.0
65.726	5.0
65.741	2.0
65.756	5.0
65.771	3.0
65.786	3.0
65.801	3.0
65.816	4.0
65.831	4.0
65.846	3.0
65.861	5.0
65.876	8.0
65.891	3.0
65.906	5.0
65.921	6.0
65.936	4.0
65.951	3.0
65.966	7.0
65.981	3.0
65.996	5.0
66.011	0.0
66.026	8.0
66.041	1.0
66.056	4.0
66.071	3.0
66.086	5.0
66.101	4.0
66.116	6.0
66.131	7.0
66.146	5.0
66.161	11.0
66.176	10.0
66.191	16.0
66.206	10.0
66.221	10.0
66.236	9.0
66.251	6.0
66.266	4.0
66.281	7.0
66.296	3.0
66.311	3.0
66.327	3.0
66.342	5.0
66.357	5.0
66.372	3.0
66.387	1.0
66.402	3.0
66.417	5.0
66.432	5.0
66.447	2.0
66.462	3.0
66.477	4.0
66.492	4.0
66.507	2.0
66.522	2.0
66.537	7.0
66.552	4.0
66.567	8.0
66.582	3.0
66.597	3.0
66.612	4.0
66.627	5.0
66.642	8.0
66.657	7.0
66.672	5.0
66.687	4.0
66.702	6.0
66.717	10.0
66.732	3.0
66.747	9.0
66.762	4.0
66.777	3.0
66.792	2.0
66.807	3.0
66.822	4.0
66.837	4.0
66.853	1.0
66.868	5.0
66.883	3.0
66.898	3.0
66.913	4.0
66.928	4.0
66.943	3.0
66.958	3.0
66.973	4.0
66.988	4.0
67.003	4.0
67.018	4.0
67.033	2.0
67.048	2.0
67.063	10.0
67.078	5.0
67.093	10.0
67.108	5.0
67.123	4.0
67.138	2.0
67.153	4.0
67.168	1.0
67.183	2.0
67.198	3.0
67.214	4.0
67.229	6.0
67.244	5.0
67.259	4.0
67.274	5.0
67.289	7.0
67.304	1.0
67.319	1.0
67.334	5.0
67.349	5.0
67.364	2.0
67.379	3.0
67.394	6.0
67.409	5.0
67.424	1.0
67.439	7.0
67.454	3.0
67.469	3.0
67.484	5.0
67.5	4.0
67.515	2.0
67.53	1.0
67.545	7.0
67.56	3.0
67.575	6.0
67.59	4.0
67.605	8.0
67.62	3.0
67.635	2.0
67.65	3.0
67.665	9.0
67.68	6.0
67.695	3.0
67.71	5.0
67.726	7.0
67.741	2.0
67.756	4.0
67.771	3.0
67.786	6.0
67.801	4.0
67.816	1.0
67.831	2.0
67.846	6.0
67.861	2.0
67.876	5.0
67.891	5.0
67.906	1.0
67.922	3.0
67.937	1.0
67.952	2.0
67.967	3.0
67.982	4.0
67.997	3.0
68.012	0.0
68.027	3.0
68.042	2.0
68.057	3.0
68.072	6.0
68.087	5.0
68.103	2.0
68.118	2.0
68.133	5.0
68.148	3.0
68.163	2.0
68.178	6.0
68.193	3.0
68.208	3.0
68.223	3.0
68.238	4.0
68.254	6.0
68.269	3.0
68.284	3.0
68.299	2.0
68.314	4.0
68.329	0.0
68.344	7.0
68.359	1.0
68.374	4.0
68.389	3.0
68.405	7.0
68.42	3.0
68.435	3.0
68.45	0.0
68.465	4.0
68.48	6.0
68.495	4.0
68.51	3.0
68.525	4.0
68.54	2.0
68.556	5.0
68.571	3.0
68.586	4.0
68.601	3.0
68.616	2.0
68.631	1.0
68.646	3.0
68.661	2.0
68.676	1.0
68.691	4.0
68.707	6.0
68.722	2.0
68.737	2.0
68.752	1.0
68.767	2.0
68.782	2.0
68.797	7.0
68.812	3.0
68.827	3.0
68.842	1.0
68.857	5.0
68.873	5.0
68.888	6.0
68.903	9.0
68.918	4.0
68.933	3.0
68.948	7.0
68.963	4.0
68.978	4.0
68.993	2.0
69.008	3.0
69.023	1.0
69.038	4.0
69.054	5.0
69.069	3.0
69.084	5.0
69.099	3.0
69.114	3.0
69.129	6.0
69.144	7.0
69.159	3.0
69.174	2.0
69.189	3.0
69.204	3.0
69.219	0.0
69.234	3.0
69.249	3.0
69.264	5.0
69.279	3.0
69.295	3.0
69.31	7.0
69.325	4.0
69.34	5.0
69.355	5.0
69.37	4.0
69.385	6.0
69.4	4.0
69.415	4.0
69.43	4.0
69.445	1.0
69.46	4.0
69.475	7.0
69.49	4.0
69.505	6.0
69.52	4.0
69.535	1.0
69.55	5.0
69.565	3.0
69.58	1.0
69.595	2.0
69.61	2.0
69.625	4.0
69.64	7.0
69.655	2.0
69.67	4.0
69.685	8.0
69.7	2.0
69.715	6.0
69.73	6.0
69.745	5.0
69.76	9.0
69.775	10.0
69.79	6.0
69.805	6.0
69.82	6.0
69.835	5.0
69.85	4.0
69.865	4.0
69.88	11.0
69.895	5.0
69.909	6.0
69.924	2.0
69.939	4.0
69.954	2.0
69.969	2.0
69.984	3.0
69.999	6.0
70.014	4.0
70.029	6.0
70.044	4.0
70.059	5.0
70.074	3.0
70.088	3.0
70.103	3.0
70.118	2.0
70.133	6.0
70.148	4.0
70.163	4.0
70.178	4.0
70.193	5.0
70.208	6.0
70.222	5.0
70.237	7.0
70.252	3.0
70.267	8.0
70.282	7.0
70.297	8.0
70.312	4.0
70.327	2.0
70.341	5.0
70.356	5.0
70.371	4.0
70.386	9.0
70.401	6.0
70.416	6.0
70.43	3.0
70.445	2.0
70.46	3.0
70.475	6.0
70.49	1.0
70.505	4.0
70.519	3.0
70.534	2.0
70.549	3.0
70.564	3.0
70.579	4.0
70.594	6.0
70.608	6.0
70.623	3.0
70.638	8.0
70.653	5.0
70.668	3.0
70.683	4.0
70.697	7.0
70.712	5.0
70.727	4.0
70.742	1.0
70.757	3.0
70.771	3.0
70.786	5.0
70.801	6.0
70.816	5.0
70.831	4.0
70.845	9.0
70.86	7.0
70.875	2.0
70.89	4.0
70.905	3.0
70.92	6.0
70.934	3.0
70.949	4.0
70.964	8.0
70.979	2.0
70.994	2.0
71.008	4.0
71.023	5.0
71.038	4.0
71.053	3.0
71.068	2.0
71.082	5.0
71.097	5.0
71.112	6.0
71.127	7.0
71.142	7.0
71.156	4.0
71.171	3.0
71.186	6.0
71.201	3.0
71.216	5.0
71.231	4.0
71.245	4.0
71.26	4.0
71.275	4.0
71.29	3.0
71.305	6.0
71.319	4.0
71.334	8.0
71.349	3.0
71.364	4.0
71.379	3.0
71.394	1.0
71.408	4.0
71.423	7.0
71.438	2.0
71.453	4.0
71.468	3.0
71.483	2.0
71.497	3.0
71.512	4.0
71.527	3.0
71.542	5.0
71.557	3.0
71.572	2.0
71.586	4.0
71.601	3.0
71.616	4.0
71.631	3.0
71.646	2.0
71.661	2.0
71.676	5.0
71.69	3.0
71.705	2.0
71.72	4.0
71.735	2.0
71.75	4.0
71.765	7.0
71.78	3.0
71.795	0.0
71.81	5.0
71.824	3.0
71.839	1.0
71.854	6.0
71.869	1.0
71.884	5.0
71.899	8.0
71.914	7.0
71.929	4.0
71.944	4.0
71.959	4.0
71.974	0.0
71.988	1.0
72.003	4.0
72.018	5.0
72.033	4.0
72.048	3.0
72.063	6.0
72.078	3.0
72.093	5.0
72.108	4.0
72.123	4.0
72.138	4.0
72.153	2.0
72.168	2.0
72.183	3.0
72.198	4.0
72.213	5.0
72.228	2.0
72.243	9.0
72.258	1.0
72.273	4.0
72.288	6.0
72.303	3.0
72.318	4.0
72.333	1.0
72.348	5.0
72.363	4.0
72.378	2.0
72.393	3.0
72.408	3.0
72.423	1.0
72.438	2.0
72.453	5.0
72.468	6.0
72.483	8.0
72.498	4.0
72.513	1.0
72.528	4.0
72.543	3.0
72.558	1.0
72.573	4.0
72.588	1.0
72.603	0.0
72.618	4.0
72.633	2.0
72.649	5.0
72.664	0.0
72.679	5.0
72.694	3.0
72.709	2.0
72.724	3.0
72.739	2.0
72.754	2.0
72.769	2.0
72.784	1.0
72.799	0.0
72.814	4.0
72.829	1.0
72.845	3.0
72.86	1.0
72.875	3.0
72.89	0.0
72.905	3.0
72.92	4.0
72.935	2.0
72.95	6.0
72.965	0.0
72.98	1.0
72.996	7.0
73.011	1.0
73.026	3.0
73.041	3.0
73.056	4.0
73.071	2.0
73.086	5.0
73.101	2.0
73.117	2.0
73.132	3.0
73.147	2.0
73.162	3.0
73.177	3.0
73.192	7.0
73.207	3.0
73.222	4.0
73.238	5.0
73.253	4.0
73.268	6.0
73.283	5.0
73.298	11.0
73.313	5.0
73.328	2.0
73.343	4.0
73.359	5.0
73.374	4.0
73.389	4.0
73.404	2.0
73.419	2.0
73.434	5.0
73.449	4.0
73.465	3.0
73.48	6.0
73.495	3.0
73.51	0.0
73.525	4.0
73.54	0.0
73.556	4.0
73.571	2.0
73.586	3.0
73.601	5.0
73.616	5.0
73.631	3.0
73.646	1.0
73.662	6.0
73.677	2.0
73.692	7.0
73.707	8.0
73.722	3.0
73.737	7.0
73.752	3.0
73.768	3.0
73.783	4.0
73.798	3.0
73.813	3.0
73.828	8.0
73.843	5.0
73.859	6.0
73.874	3.0
73.889	8.0
73.904	1.0
73.919	8.0
73.934	1.0
73.949	3.0
73.965	5.0
73.98	2.0
73.995	6.0
74.01	2.0
74.025	2.0
74.04	3.0
74.056	4.0
74.071	8.0
74.086	7.0
74.101	4.0
74.116	4.0
74.131	4.0
74.146	4.0
74.162	5.0
74.177	3.0
74.192	6.0
74.207	7.0
74.222	4.0
74.237	5.0
74.252	9.0
74.268	4.0
74.283	6.0
74.298	1.0
74.313	3.0
74.328	3.0
74.343	6.0
74.358	3.0
74.374	2.0
74.389	1.0
74.404	5.0
74.419	3.0
74.434	2.0
74.449	3.0
74.464	3.0
74.48	3.0
74.495	4.0
74.51	1.0
74.525	0.0
74.54	0.0
74.555	3.0
74.57	3.0
74.586	4.0
74.601	4.0
74.616	2.0
74.631	3.0
74.646	6.0
74.661	5.0
74.676	5.0
74.691	6.0
74.707	4.0
74.722	3.0
74.737	4.0
74.752	4.0
74.767	0.0
74.782	4.0
74.797	3.0
74.813	4.0
74.828	3.0
74.843	1.0
74.858	4.0
74.873	1.0
74.888	4.0
74.903	3.0
74.918	4.0
74.934	4.0
74.949	5.0
74.964	5.0
74.979	7.0
74.994	4.0
75.009	3.0
75.024	5.0
75.04	4.0
75.055	9.0
75.07	4.0
75.085	7.0
75.1	2.0
75.115	4.0
75.13	4.0
75.145	4.0
75.161	1.0
75.176	1.0
75.191	1.0
75.206	6.0
75.221	2.0
75.236	1.0
75.251	3.0
75.266	5.0
75.282	1.0
75.297	6.0
75.312	2.0
75.327	4.0
75.342	4.0
75.357	3.0
75.372	3.0
75.387	2.0
75.403	3.0
75.418	3.0
75.433	3.0
75.448	4.0
75.463	5.0
75.478	4.0
75.493	3.0
75.509	1.0
75.524	3.0
75.539	4.0
75.554	3.0
75.569	5.0
75.584	8.0
75.599	3.0
75.614	5.0
75.63	4.0
75.645	3.0
75.66	1.0
75.675	4.0
75.69	4.0
75.705	4.0
75.72	2.0
75.735	4.0
75.751	7.0
75.766	2.0
75.781	1.0
75.796	3.0
75.811	2.0
75.826	1.0
75.841	4.0
75.856	6.0
75.872	5.0
75.887	7.0
75.902	4.0
75.917	4.0
75.932	4.0
75.947	6.0
75.962	6.0
75.977	4.0
75.993	4.0
76.008	4.0
76.023	3.0
76.038	3.0
76.053	1.0
76.068	4.0
76.083	3.0
76.098	2.0
76.114	1.0
76.129	2.0
76.144	2.0
76.159	4.0
76.174	9.0
76.189	5.0
76.204	3.0
76.22	3.0
76.235	1.0
76.25	4.0
76.265	4.0
76.28	2.0
76.295	2.0
76.31	4.0
76.325	3.0
76.341	2.0
76.356	3.0
76.371	2.0
76.386	4.0
76.401	1.0
76.416	3.0
76.431	2.0
76.446	4.0
76.462	2.0
76.477	2.0
76.492	4.0
76.507	7.0
76.522	9.0
76.537	2.0
76.552	0.0
76.567	2.0
76.583	2.0
76.598	3.0
76.613	2.0
76.628	5.0
76.643	1.0
76.658	5.0
76.673	3.0
76.688	4.0
76.704	5.0
76.719	4.0
76.734	4.0
76.749	5.0
76.764	3.0
76.779	6.0
76.794	4.0
76.809	4.0
76.824	3.0
76.84	2.0
76.855	1.0
76.87	2.0
76.885	3.0
76.9	5.0
76.915	4.0
76.93	3.0
76.945	6.0
76.96	3.0
76.976	5.0
76.991	7.0
77.006	3.0
77.021	3.0
77.036	3.0
77.051	3.0
77.066	3.0
77.081	3.0
77.096	1.0
77.112	3.0
77.127	2.0
77.142	1.0
77.157	2.0
77.172	3.0
77.187	4.0
77.202	6.0
77.217	6.0
77.232	4.0
77.247	4.0
77.263	3.0
77.278	3.0
77.293	4.0
77.308	3.0
77.323	4.0
77.338	2.0
77.353	5.0
77.368	4.0
77.383	4.0
77.398	2.0
77.413	3.0
77.428	3.0
77.444	1.0
77.459	4.0
77.474	3.0
77.489	8.0
77.504	3.0
77.519	2.0
77.534	3.0
77.549	7.0
77.564	6.0
77.579	2.0
77.594	6.0
77.609	5.0
77.624	5.0
77.64	4.0
77.655	5.0
77.67	6.0
77.685	5.0
77.7	2.0
77.715	5.0
77.73	5.0
77.745	4.0
77.76	3.0
77.775	8.0
77.79	2.0
77.805	3.0
77.82	2.0
77.835	5.0
77.85	5.0
77.865	2.0
77.88	0.0
77.895	6.0
77.91	6.0
77.926	1.0
77.941	2.0
77.956	2.0
77.971	3.0
77.986	2.0
78.001	2.0
78.016	2.0
78.031	2.0
78.046	5.0
78.061	2.0
78.076	0.0
78.091	2.0
78.106	7.0
78.121	5.0
78.136	6.0
78.151	1.0
78.166	8.0
78.181	3.0
78.196	1.0
78.211	2.0
78.226	4.0
78.241	5.0
78.256	1.0
78.271	3.0
78.286	1.0
78.301	3.0
78.316	4.0
78.331	3.0
78.346	2.0
78.361	4.0
78.376	1.0
78.391	2.0
78.406	4.0
78.421	2.0
78.436	2.0
78.451	1.0
78.466	3.0
78.481	4.0
78.496	2.0
78.511	6.0
78.526	1.0
78.541	3.0
78.556	3.0
78.571	3.0
78.586	2.0
78.601	1.0
78.616	4.0
78.631	2.0
78.646	3.0
78.661	2.0
78.676	4.0
78.691	4.0
78.706	2.0
78.721	5.0
78.736	5.0
78.751	0.0
78.766	4.0
78.781	4.0
78.796	3.0
78.811	4.0
78.826	2.0
78.841	3.0
78.856	4.0
78.871	2.0
78.885	4.0
78.9	2.0
78.915	5.0
78.93	2.0
78.945	5.0
78.96	5.0
78.975	3.0
78.99	1.0
79.005	1.0
79.02	5.0
79.035	3.0
79.05	4.0
79.065	3.0
79.08	5.0
79.095	5.0
79.11	4.0
79.125	3.0
79.14	3.0
79.155	2.0
79.17	4.0
79.185	4.0
79.2	4.0
79.215	4.0
79.23	3.0
79.245	3.0
79.26	5.0
79.275	4.0
79.29	3.0
79.304	1.0
79.319	4.0
79.334	5.0
79.349	5.0
79.364	6.0
79.379	3.0
79.394	4.0
79.409	4.0
79.424	7.0
79.439	4.0
79.454	1.0
79.469	4.0
79.484	3.0
79.499	1.0
79.514	5.0
79.529	7.0
79.544	2.0
79.559	1.0
79.574	2.0
79.589	2.0
79.604	2.0
79.619	3.0
79.634	1.0
79.649	2.0
79.664	2.0
79.679	4.0
79.693	4.0
79.708	6.0
79.723	4.0
79.738	3.0
79.753	2.0
79.768	1.0
79.783	7.0
79.798	1.0
79.813	5.0
79.828	3.0
79.843	2.0
79.858	3.0
79.873	3.0
79.888	3.0
79.903	0.0
79.918	0.0
79.933	8.0
79.948	3.0
79.963	4.0
79.978	2.0
79.993	4.0
80.008	2.0
80.023	2.0
80.038	3.0
80.053	3.0
80.068	2.0
80.083	2.0
80.098	7.0
80.113	6.0
80.128	3.0
80.143	5.0
80.158	4.0
80.173	2.0
80.188	4.0
80.202	7.0
80.217	3.0
80.232	6.0
80.247	4.0
80.262	5.0
80.277	4.0
80.292	4.0
80.307	3.0
80.322	3.0
80.337	3.0
80.352	3.0
80.367	4.0
80.382	3.0
80.397	2.0
80.412	4.0
80.427	3.0
80.442	2.0
80.457	1.0
80.472	2.0
80.487	1.0
80.502	2.0
80.517	1.0
80.532	2.0
80.547	5.0
80.562	3.0
80.577	1.0
80.592	1.0
80.607	5.0
80.622	4.0
80.637	3.0
80.652	2.0
80.667	5.0
80.682	4.0
80.697	4.0
80.712	1.0
80.727	3.0
80.742	3.0
80.757	7.0
80.772	2.0
80.787	5.0
80.802	3.0
80.817	4.0
80.832	1.0
80.847	2.0
80.862	2.0
80.877	2.0
80.892	4.0
80.907	2.0
80.922	2.0
80.937	4.0
80.952	3.0
80.967	4.0
80.982	3.0
80.997	1.0
81.012	0.0
81.027	5.0
81.042	2.0
81.057	2.0
81.072	3.0
81.087	2.0
81.101	3.0
81.116	4.0
81.131	2.0
81.146	6.0
81.161	3.0
81.176	7.0
81.191	3.0
81.206	2.0
81.221	1.0
81.236	2.0
81.251	3.0
81.266	6.0
81.281	4.0
81.296	2.0
81.311	3.0
81.326	3.0
81.341	4.0
81.356	3.0
81.371	4.0
81.386	3.0
81.401	3.0
81.416	5.0
81.431	1.0
81.446	1.0
81.461	6.0
81.476	3.0
81.491	5.0
81.506	2.0
81.521	2.0
81.536	7.0
81.55	2.0
81.565	3.0
81.58	4.0
81.595	3.0
81.61	4.0
81.625	1.0
81.64	6.0
81.655	7.0
81.67	4.0
81.685	2.0
81.7	4.0
81.715	1.0
81.73	3.0
81.745	4.0
81.76	5.0
81.775	3.0
81.79	3.0
81.805	5.0
81.819	1.0
81.834	4.0
81.849	6.0
81.864	3.0
81.879	4.0
81.894	4.0
81.909	4.0
81.924	2.0
81.939	3.0
81.954	3.0
81.969	2.0
81.984	2.0
81.999	7.0
82.013	1.0
82.028	8.0
82.043	4.0
82.058	2.0
82.073	2.0
82.088	3.0
82.103	3.0
82.118	1.0
82.133	3.0
82.148	4.0
82.163	3.0
82.177	8.0
82.192	4.0
82.207	5.0
82.222	3.0
82.237	6.0
82.252	5.0
82.267	6.0
82.282	3.0
82.297	3.0
82.312	4.0
82.326	3.0
82.341	5.0
82.356	2.0
82.371	5.0
82.386	3.0
82.401	3.0
82.416	3.0
82.431	4.0
82.445	2.0
82.46	4.0
82.475	3.0
82.49	1.0
82.505	1.0
82.52	3.0
82.535	4.0
82.55	3.0
82.565	1.0
82.579	2.0
82.594	0.0
82.609	2.0
82.624	2.0
82.639	5.0
82.654	2.0
82.669	2.0
82.684	2.0
82.698	2.0
82.713	1.0
82.728	4.0
82.743	0.0
82.758	2.0
82.773	5.0
82.788	3.0
82.803	1.0
82.817	3.0
82.832	3.0
82.847	4.0
82.862	3.0
82.877	4.0
82.892	2.0
82.907	2.0
82.922	3.0
82.937	3.0
82.951	5.0
82.966	2.0
82.981	1.0
82.996	0.0
83.011	4.0
83.026	0.0
83.041	5.0
83.056	4.0
83.07	4.0
83.085	1.0
83.1	2.0
83.115	3.0
83.13	2.0
83.145	0.0
83.16	2.0
83.175	2.0
83.19	1.0
83.204	4.0
83.219	2.0
83.234	4.0
83.249	4.0
83.264	2.0
83.279	4.0
83.294	4.0
83.309	3.0
83.324	4.0
83.339	1.0
83.353	4.0
83.368	5.0
83.383	2.0
83.398	7.0
83.413	0.0
83.428	4.0
83.443	3.0
83.458	2.0
83.473	4.0
83.488	2.0
83.503	4.0
83.517	4.0
83.532	0.0
83.547	9.0
83.562	6.0
83.577	7.0
83.592	2.0
83.607	8.0
83.622	3.0
83.637	5.0
83.652	4.0
83.667	6.0
83.682	0.0
83.697	2.0
83.712	2.0
83.727	6.0
83.741	2.0
83.756	3.0
83.771	3.0
83.786	7.0
83.801	5.0
83.816	1.0
83.831	3.0
83.846	4.0
83.861	4.0
83.876	6.0
83.891	1.0
83.906	2.0
83.921	1.0
83.936	2.0
83.951	3.0
83.966	3.0
83.981	1.0
83.996	1.0
84.011	5.0
84.026	1.0
84.041	4.0
84.056	3.0
84.071	5.0
84.086	2.0
84.101	7.0
84.116	0.0
84.131	7.0
84.146	8.0
84.161	2.0
84.176	3.0
84.191	3.0
84.206	3.0
84.221	2.0
84.236	4.0
84.251	3.0
84.266	2.0
84.281	2.0
84.296	4.0
84.311	1.0
84.326	5.0
84.341	4.0
84.356	5.0
84.371	4.0
84.386	3.0
84.401	3.0
84.416	7.0
84.431	3.0
84.446	3.0
84.461	3.0
84.476	5.0
84.492	4.0
84.507	6.0
84.522	1.0
84.537	3.0
84.552	2.0
84.567	6.0
84.582	4.0
84.597	1.0
84.612	2.0
84.627	8.0
84.642	2.0
84.657	1.0
84.672	1.0
84.687	4.0
84.702	2.0
84.717	2.0
84.733	1.0
84.748	5.0
84.763	5.0
84.778	9.0
84.793	8.0
84.808	1.0
84.823	4.0
84.838	3.0
84.853	1.0
84.868	7.0
84.883	6.0
84.898	1.0
84.913	1.0
84.929	2.0
84.944	1.0
84.959	8.0
84.974	5.0
84.989	3.0
85.004	3.0
85.019	1.0
85.034	5.0
85.049	6.0
85.064	5.0
85.079	4.0
85.094	3.0
85.11	5.0
85.125	4.0
85.14	4.0
85.155	1.0
85.17	5.0
85.185	1.0
85.2	1.0
85.215	4.0
85.23	1.0
85.245	4.0
85.26	4.0
85.276	2.0
85.291	4.0
85.306	0.0
85.321	5.0
85.336	2.0
85.351	2.0
85.366	5.0
85.381	2.0
85.396	4.0
85.411	2.0
85.426	6.0
85.441	3.0
85.457	3.0
85.472	4.0
85.487	1.0
85.502	2.0
85.517	5.0
85.532	0.0
85.547	0.0
85.562	3.0
85.577	1.0
85.592	11.0
85.607	3.0
85.622	4.0
85.637	1.0
85.653	2.0
85.668	3.0
85.683	2.0
85.698	1.0
85.713	4.0
85.728	4.0
85.743	1.0
85.758	2.0
85.773	2.0
85.788	4.0
85.803	3.0
85.818	3.0
85.833	0.0
85.848	4.0
85.863	3.0
85.879	5.0
85.894	3.0
85.909	4.0
85.924	2.0
85.939	0.0
85.954	4.0
85.969	1.0
85.984	2.0
85.999	1.0
86.014	0.0
86.029	2.0
86.044	6.0
86.059	1.0
86.074	3.0
86.089	6.0
86.104	5.0
86.119	3.0
86.134	6.0
86.149	3.0
86.164	2.0
86.179	2.0
86.194	3.0
86.209	4.0
86.224	4.0
86.239	1.0
86.254	5.0
86.269	3.0
86.284	1.0
86.299	2.0
86.314	2.0
86.33	4.0
86.345	1.0
86.36	2.0
86.375	0.0
86.39	2.0
86.405	6.0
86.42	2.0
86.435	4.0
86.45	3.0
86.465	2.0
86.48	5.0
86.495	1.0
86.51	3.0
86.525	4.0
86.54	1.0
86.555	3.0
86.57	2.0
86.585	2.0
86.6	5.0
86.615	5.0
86.63	1.0
86.645	5.0
86.659	6.0
86.674	3.0
86.689	1.0
86.704	7.0
86.719	3.0
86.734	7.0
86.749	3.0
86.764	3.0
86.779	2.0
86.794	2.0
86.809	3.0
86.824	2.0
86.839	2.0
86.854	3.0
86.869	7.0
86.884	5.0
86.899	6.0
86.914	5.0
86.929	7.0
86.944	2.0
86.959	4.0
86.974	6.0
86.989	3.0
87.004	8.0
87.019	1.0
87.034	4.0
87.049	4.0
87.064	5.0
87.079	7.0
87.094	6.0
87.109	2.0
87.124	2.0
87.139	2.0
87.154	1.0
87.169	3.0
87.184	2.0
87.199	2.0
87.214	6.0
87.229	3.0
87.244	2.0
87.259	1.0
87.274	5.0
87.289	3.0
87.304	7.0
87.319	0.0
87.334	4.0
87.349	3.0
87.364	3.0
87.379	7.0
87.394	2.0
87.409	3.0
87.424	3.0
87.438	3.0
87.453	4.0
87.468	1.0
87.483	3.0
87.498	2.0
87.513	0.0
87.528	4.0
87.543	4.0
87.558	7.0
87.573	6.0
87.588	6.0
87.603	1.0
87.618	2.0
87.633	3.0
87.648	2.0
87.663	3.0
87.678	3.0
87.693	5.0
87.708	5.0
87.723	6.0
87.738	2.0
87.753	6.0
87.768	3.0
87.783	5.0
87.798	5.0
87.813	9.0
87.828	3.0
87.843	6.0
87.858	2.0
87.873	4.0
87.888	4.0
87.903	2.0
87.918	1.0
87.933	3.0
87.948	1.0
87.963	1.0
87.978	3.0
87.993	2.0
88.008	2.0
88.023	4.0
88.038	1.0
88.053	2.0
88.068	3.0
88.083	1.0
88.098	4.0
88.113	2.0
88.128	1.0
88.143	3.0
88.158	2.0
88.174	4.0
88.189	1.0
88.204	3.0
88.219	1.0
88.234	0.0
88.249	4.0
88.264	1.0
88.279	3.0
88.294	5.0
88.309	2.0
88.324	1.0
88.339	6.0
88.354	7.0
88.369	5.0
88.384	3.0
88.399	2.0
88.414	3.0
88.429	5.0
88.444	4.0
88.459	2.0
88.474	3.0
88.489	1.0
88.504	4.0
88.519	8.0
88.534	2.0
88.549	3.0
88.564	4.0
88.58	6.0
88.595	2.0
88.61	2.0
88.625	5.0
88.64	3.0
88.655	2.0
88.67	3.0
88.685	4.0
88.7	4.0
88.715	7.0
88.73	4.0
88.745	2.0
88.76	1.0
88.775	2.0
88.79	1.0
88.805	5.0
88.82	2.0
88.835	3.0
88.85	3.0
88.865	2.0
88.88	2.0
88.895	5.0
88.911	3.0
88.926	3.0
88.941	0.0
88.956	1.0
88.971	0.0
88.986	3.0
89.001	1.0
89.016	2.0
89.031	3.0
89.046	3.0
89.061	2.0
89.076	3.0
89.091	3.0
89.106	1.0
89.121	2.0
89.136	6.0
89.151	4.0
89.166	2.0
89.181	0.0
89.196	2.0
89.211	3.0
89.227	4.0
89.242	4.0
89.257	3.0
89.272	4.0
89.287	5.0
89.302	6.0
89.317	5.0
89.332	0.0
89.347	7.0
89.362	3.0
89.377	2.0
89.392	4.0
89.407	6.0
89.422	3.0
89.437	3.0
89.452	4.0
89.467	5.0
89.482	2.0
89.497	4.0
89.512	3.0
89.527	2.0
89.542	3.0
89.557	1.0
89.572	5.0
89.587	2.0
89.602	3.0
89.617	3.0
89.632	2.0
89.647	3.0
89.662	0.0
89.677	5.0
89.693	3.0
89.708	3.0
89.723	6.0
89.738	1.0
89.753	2.0
89.768	2.0
89.783	2.0
89.798	7.0
89.813	3.0
89.828	0.0
89.843	1.0
89.858	1.0
89.873	2.0
89.888	5.0
89.903	2.0
89.918	7.0
89.933	2.0
89.948	4.0
89.963	3.0
89.978	4.0
89.993	8.0
90.008	2.0
90.023	1.0
90.038	2.0
90.053	4.0
90.068	3.0
90.083	2.0
90.097	3.0
90.112	1.0
90.127	4.0
90.142	3.0
90.157	3.0
90.172	4.0
90.187	4.0
90.202	4.0
90.217	8.0
90.232	3.0
90.247	7.0
90.262	4.0
90.277	4.0
90.292	1.0
90.307	4.0
90.322	6.0
90.337	3.0
90.352	1.0
90.367	1.0
90.382	1.0
90.397	4.0
90.412	1.0
90.427	5.0
90.442	1.0
90.457	4.0
90.472	2.0
90.487	1.0
90.501	2.0
90.516	2.0
90.531	3.0
90.546	6.0
90.561	2.0
90.576	3.0
90.591	3.0
90.606	3.0
90.621	0.0
90.636	3.0
90.651	4.0
90.666	2.0
90.681	2.0
90.696	3.0
90.711	4.0
90.726	1.0
90.741	4.0
90.755	3.0
90.77	2.0
90.785	1.0
90.8	5.0
90.815	4.0
90.83	4.0
90.845	2.0
90.86	4.0
90.875	4.0
90.89	4.0
90.905	2.0
90.92	5.0
90.935	4.0
90.95	4.0
90.965	3.0
90.979	3.0
90.994	3.0
91.009	3.0
91.024	6.0
91.039	9.0
91.054	1.0
91.069	5.0
91.084	4.0
91.099	5.0
91.114	3.0
91.129	6.0
91.144	5.0
91.159	4.0
91.174	3.0
91.188	1.0
91.203	5.0
91.218	2.0
91.233	7.0
91.248	3.0
91.263	5.0
91.278	1.0
91.293	1.0
91.308	1.0
91.323	2.0
91.338	2.0
91.353	1.0
91.368	3.0
91.383	3.0
91.398	3.0
91.412	3.0
91.427	1.0
91.442	0.0
91.457	5.0
91.472	3.0
91.487	3.0
91.502	1.0
91.517	0.0
91.532	4.0
91.547	2.0
91.562	3.0
91.577	1.0
91.592	2.0
91.607	2.0
91.622	5.0
91.637	2.0
91.652	2.0
91.666	2.0
91.681	7.0
91.696	4.0
91.711	5.0
91.726	4.0
91.741	3.0
91.756	4.0
91.771	6.0
91.786	3.0
91.801	2.0
91.816	3.0
91.831	4.0
91.846	5.0
91.861	2.0
91.876	5.0
91.891	3.0
91.906	3.0
91.921	5.0
91.936	2.0
91.951	2.0
91.966	6.0
91.981	1.0
91.995	5.0
92.01	2.0
92.025	7.0
92.04	3.0
92.055	4.0
92.07	2.0
92.085	1.0
92.1	3.0
92.115	4.0
92.13	5.0
92.145	1.0
92.16	3.0
92.175	1.0
92.19	1.0
92.205	1.0
92.22	6.0
92.235	2.0
92.25	5.0
92.265	5.0
92.28	4.0
92.295	1.0
92.31	3.0
92.325	5.0
92.34	2.0
92.355	8.0
92.37	1.0
92.385	5.0
92.4	2.0
92.415	1.0
92.43	3.0
92.445	2.0
92.46	1.0
92.475	3.0
92.49	4.0
92.505	3.0
92.52	3.0
92.535	1.0
92.55	5.0
92.565	4.0
92.58	2.0
92.595	2.0
92.61	2.0
92.625	1.0
92.64	4.0
92.655	1.0
92.67	2.0
92.685	4.0
92.7	4.0
92.715	2.0
92.73	3.0
92.745	5.0
92.76	2.0
92.775	3.0
92.79	2.0
92.805	4.0
92.82	2.0
92.835	2.0
92.85	3.0
92.865	2.0
92.88	3.0
92.895	2.0
92.91	6.0
92.925	3.0
92.94	4.0
92.955	4.0
92.97	2.0
92.985	4.0
93.0	2.0
93.015	6.0
93.03	0.0
93.045	1.0
93.06	2.0
93.075	4.0
93.09	4.0
93.105	3.0
93.12	1.0
93.135	2.0
93.15	3.0
93.165	2.0
93.18	6.0
93.195	5.0
93.21	4.0
93.225	1.0
93.24	5.0
93.255	3.0
93.27	2.0
93.285	2.0
93.3	5.0
93.315	4.0
93.33	0.0
93.345	3.0
93.36	2.0
93.375	4.0
93.39	1.0
93.405	1.0
93.42	5.0
93.435	8.0
93.45	5.0
93.465	7.0
93.48	2.0
93.495	3.0
93.51	1.0
93.525	4.0
93.54	2.0
93.555	5.0
93.57	5.0
93.585	7.0
93.6	6.0
93.615	3.0
93.63	6.0
93.645	3.0
93.66	4.0
93.675	2.0
93.69	2.0
93.705	5.0
93.72	1.0
93.735	2.0
93.75	2.0
93.765	3.0
93.78	3.0
93.795	3.0
93.81	1.0
93.824	4.0
93.839	5.0
93.854	1.0
93.869	6.0
93.884	5.0
93.899	2.0
93.914	1.0
93.929	2.0
93.944	3.0
93.959	3.0
93.974	3.0
93.989	1.0
94.004	4.0
94.019	4.0
94.034	4.0
94.049	2.0
94.064	0.0
94.079	6.0
94.094	0.0
94.108	1.0
94.123	2.0
94.138	4.0
94.153	4.0
94.168	4.0
94.183	2.0
94.198	1.0
94.213	1.0
94.228	3.0
94.243	3.0
94.258	5.0
94.273	4.0
94.288	1.0
94.302	3.0
94.317	3.0
94.332	7.0
94.347	7.0
94.362	7.0
94.377	3.0
94.392	7.0
94.407	3.0
94.422	6.0
94.437	4.0
94.452	4.0
94.466	5.0
94.481	3.0
94.496	3.0
94.511	4.0
94.526	6.0
94.541	3.0
94.556	4.0
94.571	4.0
94.586	2.0
94.601	2.0
94.615	4.0
94.63	4.0
94.645	2.0
94.66	3.0
94.675	1.0
94.69	2.0
94.705	4.0
94.72	0.0
94.735	7.0
94.749	8.0
94.764	6.0
94.779	2.0
94.794	2.0
94.809	4.0
94.824	2.0
94.839	2.0
94.854	2.0
94.868	2.0
94.883	3.0
94.898	4.0
94.913	2.0
94.928	2.0
94.943	4.0
94.958	4.0
94.973	3.0
94.987	2.0
95.002	5.0
95.017	3.0
95.032	0.0
95.047	6.0
95.062	0.0
95.077	2.0
95.092	7.0
95.106	2.0
95.121	2.0
95.136	4.0
95.151	7.0
95.166	1.0
95.181	3.0
95.196	4.0
95.211	4.0
95.226	2.0
95.24	4.0
95.255	3.0
95.27	6.0
95.285	3.0
95.3	3.0
95.315	3.0
95.33	1.0
95.345	5.0
95.359	4.0
95.374	4.0
95.389	3.0
95.404	4.0
95.419	2.0
95.434	4.0
95.449	1.0
95.464	2.0
95.478	4.0
95.493	3.0
95.508	5.0
95.523	1.0
95.538	2.0
95.553	2.0
95.568	1.0
95.583	1.0
95.597	2.0
95.612	3.0
95.627	4.0
95.642	4.0
95.657	2.0
95.672	1.0
95.687	0.0
95.702	3.0
95.717	2.0
95.731	3.0
95.746	5.0
95.761	3.0
95.776	0.0
95.791	7.0
95.806	1.0
95.821	5.0
95.836	4.0
95.851	7.0
95.866	3.0
95.88	1.0
95.895	1.0
95.91	1.0
95.925	5.0
95.94	2.0
95.955	4.0
95.97	3.0
95.985	2.0
96.0	2.0
96.015	3.0
96.029	2.0
96.044	7.0
96.059	1.0
96.074	1.0
96.089	4.0
96.104	5.0
96.119	2.0
96.134	3.0
96.149	4.0
96.164	1.0
96.179	6.0
96.194	1.0
96.208	1.0
96.223	4.0
96.238	2.0
96.253	2.0
96.268	3.0
96.283	0.0
96.298	5.0
96.313	2.0
96.328	2.0
96.343	4.0
96.358	4.0
96.373	1.0
96.388	1.0
96.403	8.0
96.417	0.0
96.432	2.0
96.447	4.0
96.462	3.0
96.477	2.0
96.492	1.0
96.507	4.0
96.522	1.0
96.537	0.0
96.552	2.0
96.567	0.0
96.582	4.0
96.597	2.0
96.612	1.0
96.627	2.0
96.642	3.0
96.656	4.0
96.671	0.0
96.686	4.0
96.701	2.0
96.716	5.0
96.731	2.0
96.746	1.0
96.761	3.0
96.776	4.0
96.791	6.0
96.806	4.0
96.821	5.0
96.836	1.0
96.851	2.0
96.866	6.0
96.881	5.0
96.896	3.0
96.911	5.0
96.926	1.0
96.94	1.0
96.955	4.0
96.97	3.0
96.985	4.0
97.0	1.0
97.015	5.0
97.03	3.0
97.045	5.0
97.06	2.0
97.075	4.0
97.09	5.0
97.105	3.0
97.12	1.0
97.135	2.0
97.15	4.0
97.165	2.0
97.18	2.0
97.195	5.0
97.21	2.0
97.225	3.0
97.239	5.0
97.254	4.0
97.269	4.0
97.284	0.0
97.299	1.0
97.314	3.0
97.329	3.0
97.344	7.0
97.359	1.0
97.374	5.0
97.389	3.0
97.404	5.0
97.419	4.0
97.434	6.0
97.449	4.0
97.464	3.0
97.479	2.0
97.494	2.0
97.509	4.0
97.524	5.0
97.538	2.0
97.553	5.0
97.568	5.0
97.583	2.0
97.598	3.0
97.613	3.0
97.628	4.0
97.643	0.0
97.658	8.0
97.673	5.0
97.688	5.0
97.703	4.0
97.718	6.0
97.733	3.0
97.748	4.0
97.763	7.0
97.778	4.0
97.792	5.0
97.807	3.0
97.822	3.0
97.837	4.0
97.852	0.0
97.867	1.0
97.882	2.0
97.897	1.0
97.912	6.0
97.927	1.0
97.942	4.0
97.957	2.0
97.972	3.0
97.987	5.0
98.001	2.0
98.016	7.0
98.031	7.0
98.046	3.0
98.061	6.0
98.076	3.0
98.091	7.0
98.106	2.0
98.121	3.0
98.136	2.0
98.151	4.0
98.166	3.0
98.181	2.0
98.195	2.0
98.21	1.0
98.225	2.0
98.24	3.0
98.255	7.0
98.27	2.0
98.285	8.0
98.3	4.0
98.315	3.0
98.33	1.0
98.345	1.0
98.359	3.0
98.374	5.0
98.389	5.0
98.404	1.0
98.419	3.0
98.434	7.0
98.449	4.0
98.464	3.0
98.479	7.0
98.494	0.0
98.508	5.0
98.523	6.0
98.538	3.0
98.553	8.0
98.568	7.0
98.583	6.0
98.598	7.0
98.613	0.0
98.628	2.0
98.642	0.0
98.657	3.0
98.672	6.0
98.687	3.0
98.702	2.0
98.717	4.0
98.732	6.0
98.747	2.0
98.762	2.0
98.776	3.0
98.791	2.0
98.806	4.0
98.821	4.0
98.836	5.0
98.851	2.0
98.866	0.0
98.881	3.0
98.896	5.0
98.91	2.0
98.925	2.0
98.94	2.0
98.955	2.0
98.97	3.0
98.985	2.0
99.0	1.0
99.015	3.0
99.029	3.0
99.044	2.0
99.059	5.0
99.074	3.0
99.089	4.0
99.104	3.0
99.119	2.0
99.133	2.0
99.148	0.0
99.163	2.0
99.178	5.0
99.193	3.0
99.208	4.0
99.223	3.0
99.238	3.0
99.252	1.0
99.267	5.0
99.282	1.0
99.297	3.0
99.312	1.0
99.327	6.0
99.342	2.0
99.356	4.0
99.371	6.0
99.386	5.0
99.401	3.0
99.416	5.0
99.431	2.0
99.446	3.0
99.461	4.0
99.475	2.0
99.49	6.0
99.505	5.0
99.52	4.0
99.535	2.0
99.55	4.0
99.565	4.0
99.579	2.0
99.594	3.0
99.609	4.0
99.624	4.0
99.639	6.0
99.654	5.0
99.669	2.0
99.683	2.0
99.698	4.0
99.713	5.0
99.728	3.0
99.743	3.0
99.758	4.0
99.772	4.0
99.787	3.0
99.802	4.0
99.817	5.0
99.832	5.0
99.847	3.0
99.862	2.0
99.876	2.0
99.891	2.0
99.906	4.0
99.921	5.0
99.936	2.0
99.951	5.0
99.966	5.0
99.98	6.0
99.995	4.0
100.01	3.0
100.025	3.0
100.04	2.0
100.055	5.0
100.069	3.0
100.084	4.0
100.099	2.0
100.114	5.0
100.129	3.0
100.144	2.0
100.159	4.0
100.173	3.0
100.188	3.0
100.203	2.0
100.218	4.0
100.233	2.0
100.248	3.0
100.262	3.0
100.277	7.0
100.292	4.0
100.307	6.0
100.322	2.0
100.337	3.0
100.351	8.0
100.366	2.0
100.381	4.0
100.396	5.0
100.411	3.0
100.426	3.0
100.441	7.0
100.455	2.0
100.47	3.0
100.485	0.0
100.5	1.0
100.515	3.0
100.53	2.0
100.544	4.0
100.559	3.0
100.574	5.0
100.589	3.0
100.604	3.0
100.619	7.0
100.633	2.0
100.648	2.0
100.663	6.0
100.678	3.0
100.693	5.0
100.708	5.0
100.722	4.0
100.737	4.0
100.752	4.0
100.767	4.0
100.782	3.0
100.796	3.0
100.811	3.0
100.826	3.0
100.841	3.0
100.856	2.0
100.871	3.0
100.885	5.0
100.9	2.0
100.915	4.0
100.93	2.0
100.945	1.0
100.96	1.0
100.974	7.0
100.989	0.0
101.004	2.0
101.019	1.0
101.034	6.0
101.048	4.0
101.063	7.0
101.078	3.0
101.093	3.0
101.108	8.0
101.123	5.0
101.137	2.0
101.152	1.0
101.167	0.0
101.182	2.0
101.197	4.0
101.211	5.0
101.226	3.0
101.241	6.0
101.256	6.0
101.271	2.0
101.285	3.0
101.3	4.0
101.315	2.0
101.33	4.0
101.345	1.0
101.359	5.0
101.374	4.0
101.389	1.0
101.404	2.0
101.419	0.0
101.433	6.0
101.448	5.0
101.463	1.0
101.478	4.0
101.493	5.0
101.507	2.0
101.522	1.0
101.537	3.0
101.552	5.0
101.567	6.0
101.581	7.0
101.596	3.0
101.611	4.0
101.626	1.0
101.64	2.0
101.655	1.0
101.67	3.0
101.685	5.0
101.7	6.0
101.714	3.0
101.729	8.0
101.744	4.0
101.759	1.0
101.773	2.0
101.788	1.0
101.803	1.0
101.818	5.0
101.833	4.0
101.847	3.0
101.862	3.0
101.877	3.0
101.892	1.0
101.906	3.0
101.921	7.0
101.936	6.0
101.951	4.0
101.965	4.0
101.98	6.0
101.995	2.0
102.01	7.0
102.025	3.0
102.039	2.0
102.054	4.0
102.069	3.0
102.084	3.0
102.098	4.0
102.113	7.0
102.128	4.0
102.143	2.0
102.157	1.0
102.172	4.0
102.187	0.0
102.202	4.0
102.216	1.0
102.231	5.0
102.246	3.0
102.261	1.0
102.275	1.0
102.29	1.0
102.305	3.0
102.32	2.0
102.334	3.0
102.349	1.0
102.364	2.0
102.378	5.0
102.393	3.0
102.408	3.0
102.423	4.0
102.437	3.0
102.452	5.0
102.467	1.0
102.482	2.0
102.496	1.0
102.511	3.0
102.526	3.0
102.541	3.0
102.555	5.0
102.57	9.0
102.585	2.0
102.6	4.0
102.614	5.0
102.629	2.0
102.644	1.0
102.659	5.0
102.673	2.0
102.688	2.0
102.703	5.0
102.717	1.0
102.732	1.0
102.747	6.0
102.762	1.0
102.776	7.0
102.791	4.0
102.806	4.0
102.821	1.0
102.835	7.0
102.85	4.0
102.865	5.0
102.88	3.0
102.894	2.0
102.909	0.0
102.924	6.0
102.938	6.0
102.953	4.0
102.968	1.0
102.983	4.0
102.997	1.0
103.012	4.0
103.027	3.0
103.042	3.0
103.056	2.0
103.071	2.0
103.086	2.0
103.101	1.0
103.115	1.0
103.13	3.0
103.145	1.0
103.16	1.0
103.174	3.0
103.189	2.0
103.204	4.0
103.219	2.0
103.233	1.0
103.248	0.0
103.263	3.0
103.278	1.0
103.292	3.0
103.307	3.0
103.322	3.0
103.337	8.0
103.351	3.0
103.366	1.0
103.381	1.0
103.396	5.0
103.41	0.0
103.425	7.0
103.44	3.0
103.455	1.0
103.469	3.0
103.484	4.0
103.499	3.0
103.514	1.0
103.529	4.0
103.543	2.0
103.558	3.0
103.573	4.0
103.588	3.0
103.602	4.0
103.617	3.0
103.632	6.0
103.647	0.0
103.661	4.0
103.676	3.0
103.691	3.0
103.706	1.0
103.721	4.0
103.735	3.0
103.75	3.0
103.765	3.0
103.78	5.0
103.795	6.0
103.809	5.0
103.824	2.0
103.839	3.0
103.854	4.0
103.869	0.0
103.883	2.0
103.898	3.0
103.913	2.0
103.928	2.0
103.943	2.0
103.957	0.0
103.972	0.0
103.987	1.0
104.002	2.0
104.017	3.0
104.031	4.0
104.046	9.0
104.061	5.0
104.076	2.0
104.091	4.0
104.106	3.0
104.12	0.0
104.135	3.0
104.15	4.0
104.165	0.0
104.18	1.0
104.195	4.0
104.209	6.0
104.224	1.0
104.239	3.0
104.254	1.0
104.269	2.0
104.284	4.0
104.299	3.0
104.313	4.0
104.328	3.0
104.343	3.0
104.358	0.0
104.373	5.0
104.388	3.0
104.403	4.0
104.417	2.0
104.432	2.0
104.447	6.0
104.462	4.0
104.477	4.0
104.492	1.0
104.507	5.0
104.522	2.0
104.536	2.0
104.551	3.0
104.566	3.0
104.581	4.0
104.596	5.0
104.611	2.0
104.626	5.0
104.641	3.0
104.656	2.0
104.67	2.0
104.685	4.0
104.7	3.0
104.715	3.0
104.73	1.0
104.745	3.0
104.76	3.0
104.775	1.0
104.79	5.0
104.804	3.0
104.819	1.0
104.834	2.0
104.849	5.0
104.864	5.0
104.879	5.0
104.894	3.0
104.909	1.0
104.924	5.0
104.939	3.0
104.954	3.0
104.968	3.0
104.983	2.0
104.998	3.0
105.013	0.0
105.028	2.0
105.043	2.0
105.058	0.0
105.073	3.0
105.088	2.0
105.103	4.0
105.118	1.0
105.133	6.0
105.147	3.0
105.162	4.0
105.177	5.0
105.192	1.0
105.207	5.0
105.222	2.0
105.237	0.0
105.252	2.0
105.267	2.0
105.282	5.0
105.297	6.0
105.312	3.0
105.327	5.0
105.342	3.0
105.356	5.0
105.371	1.0
105.386	1.0
105.401	7.0
105.416	5.0
105.431	3.0
105.446	4.0
105.461	2.0
105.476	4.0
105.491	8.0
105.506	6.0
105.521	1.0
105.536	1.0
105.551	3.0
105.566	6.0
105.581	2.0
105.595	3.0
105.61	6.0
105.625	2.0
105.64	2.0
105.655	1.0
105.67	3.0
105.685	0.0
105.7	0.0
105.715	0.0
105.73	1.0
105.745	4.0
105.76	4.0
105.775	3.0
105.79	3.0
105.805	1.0
105.82	4.0
105.835	1.0
105.85	0.0
105.864	4.0
105.879	6.0
105.894	1.0
105.909	0.0
105.924	1.0
105.939	4.0
105.954	2.0
105.969	3.0
105.984	0.0
105.999	0.0
106.014	5.0
106.029	7.0
106.044	1.0
106.059	5.0
106.074	5.0
106.089	3.0
106.104	4.0
106.119	5.0
106.134	2.0
106.148	5.0
106.163	3.0
106.178	3.0
106.193	3.0
106.208	7.0
106.223	0.0
106.238	5.0
106.253	3.0
106.268	4.0
106.283	7.0
106.298	3.0
106.313	6.0
106.328	3.0
106.343	5.0
106.358	3.0
106.373	1.0
106.388	3.0
106.403	4.0
106.418	4.0
106.432	3.0
106.447	1.0
106.462	4.0
106.477	2.0
106.492	2.0
106.507	2.0
106.522	2.0
106.537	2.0
106.552	3.0
106.567	5.0
106.582	7.0
106.597	2.0
106.612	2.0
106.627	5.0
106.642	2.0
106.657	5.0
106.672	2.0
106.687	3.0
106.701	2.0
106.716	1.0
106.731	2.0
106.746	3.0
106.761	0.0
106.776	4.0
106.791	3.0
106.806	5.0
106.821	3.0
106.836	2.0
106.851	1.0
106.866	3.0
106.881	4.0
106.896	4.0
106.911	6.0
106.926	5.0
106.941	4.0
106.955	7.0
106.97	2.0
106.985	4.0
107.0	1.0
107.015	3.0
107.03	4.0
107.045	2.0
107.06	3.0
107.075	4.0
107.09	1.0
107.105	4.0
107.12	5.0
107.135	5.0
107.15	1.0
107.165	4.0
107.18	7.0
107.194	5.0
107.209	2.0
107.224	4.0
107.239	3.0
107.254	2.0
107.269	3.0
107.284	2.0
107.299	6.0
107.314	4.0
107.329	2.0
107.344	3.0
107.359	2.0
107.374	3.0
107.389	4.0
107.404	1.0
107.418	3.0
107.433	1.0
107.448	5.0
107.463	0.0
107.478	1.0
107.493	3.0
107.508	4.0
107.523	3.0
107.538	2.0
107.553	4.0
107.568	3.0
107.583	1.0
107.598	2.0
107.613	5.0
107.627	4.0
107.642	1.0
107.657	4.0
107.672	5.0
107.687	1.0
107.702	3.0
107.717	5.0
107.732	6.0
107.747	4.0
107.762	5.0
107.777	2.0
107.792	3.0
107.807	1.0
107.821	3.0
107.836	3.0
107.851	4.0
107.866	5.0
107.881	2.0
107.896	2.0
107.911	5.0
107.926	4.0
107.941	5.0
107.956	2.0
107.971	5.0
107.986	5.0
108.0	3.0
108.015	5.0
108.03	1.0
108.045	2.0
108.06	4.0
108.075	2.0
108.09	2.0
108.105	5.0
108.12	9.0
108.135	7.0
108.15	6.0
108.164	1.0
108.179	6.0
108.194	5.0
108.209	8.0
108.224	6.0
108.239	4.0
108.254	3.0
108.269	0.0
108.284	3.0
108.299	6.0
108.313	3.0
108.328	5.0
108.343	2.0
108.358	2.0
108.373	1.0
108.388	10.0
108.403	4.0
108.418	3.0
108.433	1.0
108.448	0.0
108.462	3.0
108.477	1.0
108.492	3.0
108.507	5.0
108.522	1.0
108.537	4.0
108.552	3.0
108.567	3.0
108.582	6.0
108.597	4.0
108.611	4.0
108.626	2.0
108.641	3.0
108.656	4.0
108.671	2.0
108.686	1.0
108.701	2.0
108.716	5.0
108.731	3.0
108.745	1.0
108.76	5.0
108.775	1.0
108.79	4.0
108.805	4.0
108.82	2.0
108.835	5.0
108.85	1.0
108.865	3.0
108.879	3.0
108.894	4.0
108.909	4.0
108.924	4.0
108.939	4.0
108.954	5.0
108.969	3.0
108.984	4.0
108.999	6.0
109.013	4.0
109.028	3.0
109.043	5.0
109.058	5.0
109.073	2.0
109.088	3.0
109.103	1.0
109.118	3.0
109.133	4.0
109.147	1.0
109.162	4.0
109.177	4.0
109.192	3.0
109.207	1.0
109.222	1.0
109.237	2.0
109.252	3.0
109.267	3.0
109.281	2.0
109.296	3.0
109.311	5.0
109.326	3.0
109.341	4.0
109.356	7.0
109.371	4.0
109.386	6.0
109.4	8.0
109.415	4.0
109.43	2.0
109.445	4.0
109.46	2.0
109.475	3.0
109.49	4.0
109.505	2.0
109.52	4.0
109.534	2.0
109.549	2.0
109.564	2.0
109.579	4.0
109.594	3.0
109.609	4.0
109.624	3.0
109.639	4.0
109.653	1.0
109.668	2.0
109.683	5.0
109.698	0.0
109.713	1.0
109.728	5.0
109.743	2.0
109.758	4.0
109.773	3.0
109.787	6.0
109.802	2.0
109.817	4.0
109.832	1.0
109.847	4.0
109.862	6.0
109.877	3.0
109.892	5.0
109.907	4.0
109.921	3.0
109.936	2.0
109.951	3.0
109.966	2.0
109.981	2.0
109.996	10.0
110.011	2.0
110.026	1.0
110.04	5.0
110.055	3.0
110.07	3.0
110.085	3.0
110.1	2.0
110.115	3.0
110.13	3.0
110.145	5.0
110.16	4.0
110.174	2.0
110.189	3.0
110.204	3.0
110.219	4.0
110.234	5.0
110.249	5.0
110.264	5.0
110.279	4.0
110.294	1.0
110.308	2.0
110.323	2.0
110.338	5.0
110.353	5.0
110.368	2.0
110.383	5.0
110.398	1.0
110.413	2.0
110.428	4.0
110.442	3.0
110.457	6.0
110.472	6.0
110.487	2.0
110.502	4.0
110.517	5.0
110.532	3.0
110.547	2.0
110.561	1.0
110.576	4.0
110.591	3.0
110.606	4.0
110.621	5.0
110.636	0.0
110.651	2.0
110.666	2.0
110.681	4.0
110.695	5.0
110.71	5.0
110.725	3.0
110.74	3.0
110.755	4.0
110.77	3.0
110.785	6.0
110.8	3.0
110.815	5.0
110.829	4.0
110.844	2.0
110.859	7.0
110.874	3.0
110.889	6.0
110.904	3.0
110.919	5.0
110.934	1.0
110.948	1.0
110.963	5.0
110.978	4.0
110.993	4.0
111.008	1.0
111.023	3.0
111.038	3.0
111.053	5.0
111.067	0.0
111.082	3.0
111.097	2.0
111.112	3.0
111.127	4.0
111.142	5.0
111.157	3.0
111.172	2.0
111.186	1.0
111.201	3.0
111.216	2.0
111.231	4.0
111.246	1.0
111.261	1.0
111.276	3.0
111.291	3.0
111.305	4.0
111.32	4.0
111.335	4.0
111.35	1.0
111.365	5.0
111.38	0.0
111.395	3.0
111.41	1.0
111.424	6.0
111.439	3.0
111.454	2.0
111.469	4.0
111.484	5.0
111.499	1.0
111.514	2.0
111.528	0.0
111.543	2.0
111.558	1.0
111.573	3.0
111.588	6.0
111.603	2.0
111.618	3.0
111.633	3.0
111.647	4.0
111.662	4.0
111.677	7.0
111.692	3.0
111.707	4.0
111.722	7.0
111.737	3.0
111.751	2.0
111.766	1.0
111.781	7.0
111.796	2.0
111.811	1.0
111.826	5.0
111.84	5.0
111.855	3.0
111.87	2.0
111.885	3.0
111.9	3.0
111.915	2.0
111.93	1.0
111.944	4.0
111.959	4.0
111.974	5.0
111.989	3.0
112.004	4.0
112.019	4.0
112.033	1.0
112.048	2.0
112.063	4.0
112.078	1.0
112.093	2.0
112.108	3.0
112.123	1.0
112.137	4.0
112.152	3.0
112.167	2.0
112.182	4.0
112.197	2.0
112.212	3.0
112.226	2.0
112.241	1.0
112.256	4.0
112.271	1.0
112.286	1.0
112.301	5.0
112.315	3.0
112.33	7.0
112.345	3.0
112.36	1.0
112.375	3.0
112.389	4.0
112.404	2.0
112.419	2.0
112.434	1.0
112.449	0.0
112.464	5.0
112.478	1.0
112.493	5.0
112.508	1.0
112.523	2.0
112.538	3.0
112.553	5.0
112.567	5.0
112.582	2.0
112.597	2.0
112.612	4.0
112.627	4.0
112.642	8.0
112.656	3.0
112.671	3.0
112.686	2.0
112.701	5.0
112.716	5.0
112.73	0.0
112.745	4.0
112.76	2.0
112.775	2.0
112.79	4.0
112.805	1.0
112.819	3.0
112.834	1.0
112.849	2.0
112.864	5.0
112.879	2.0
112.894	4.0
112.908	6.0
112.923	4.0
112.938	1.0
112.953	5.0
112.968	3.0
112.983	3.0
112.997	6.0
113.012	3.0
113.027	4.0
113.042	6.0
113.057	3.0
113.072	6.0
113.086	3.0
113.101	4.0
113.116	4.0
113.131	3.0
113.146	5.0
113.161	5.0
113.175	4.0
113.19	3.0
113.205	0.0
113.22	2.0
113.235	5.0
113.25	2.0
113.265	2.0
113.279	3.0
113.294	0.0
113.309	2.0
113.324	6.0
113.339	2.0
113.354	3.0
113.368	2.0
113.383	1.0
113.398	7.0
113.413	6.0
113.428	6.0
113.443	0.0
113.458	3.0
113.472	3.0
113.487	4.0
113.502	4.0
113.517	3.0
113.532	4.0
113.547	0.0
113.562	5.0
113.576	4.0
113.591	3.0
113.606	3.0
113.621	3.0
113.636	2.0
113.651	3.0
113.666	4.0
113.681	2.0
113.695	3.0
113.71	2.0
113.725	3.0
113.74	1.0
113.755	2.0
113.77	4.0
113.785	5.0
113.8	6.0
113.814	3.0
113.829	0.0
113.844	5.0
113.859	7.0
113.874	0.0
113.889	9.0
113.904	2.0
113.919	4.0
113.934	3.0
113.949	4.0
113.963	5.0
113.978	3.0
113.993	2.0
114.008	6.0
114.023	4.0
114.038	4.0
114.053	4.0
114.068	4.0
114.083	2.0
114.098	3.0
114.113	3.0
114.127	7.0
114.142	5.0
114.157	3.0
114.172	4.0
114.187	0.0
114.202	4.0
114.217	6.0
114.232	6.0
114.247	2.0
114.262	3.0
114.277	4.0
114.292	4.0
114.307	4.0
114.322	7.0
114.337	5.0
114.351	1.0
114.366	0.0
114.381	4.0
114.396	3.0
114.411	9.0
114.426	1.0
114.441	4.0
114.456	2.0
114.471	5.0
114.486	3.0
114.501	5.0
114.516	1.0
114.531	2.0
114.546	4.0
114.561	8.0
114.576	3.0
114.591	3.0
114.606	6.0
114.621	4.0
114.636	3.0
114.65	6.0
114.665	3.0
114.68	4.0
114.695	3.0
114.71	1.0
114.725	4.0
114.74	6.0
114.755	4.0
114.77	6.0
114.785	4.0
114.8	3.0
114.815	6.0
114.83	6.0
114.845	2.0
114.86	5.0
114.875	6.0
114.89	0.0
114.905	4.0
114.92	7.0
114.935	3.0
114.95	3.0
114.965	3.0
114.98	3.0
114.995	4.0
115.009	2.0
115.024	6.0
115.039	5.0
115.054	5.0
115.069	3.0
115.084	3.0
115.099	4.0
115.114	1.0
115.129	1.0
115.144	2.0
115.159	8.0
115.174	4.0
115.189	5.0
115.204	6.0
115.219	3.0
115.234	1.0
115.249	4.0
115.264	6.0
115.279	2.0
115.294	3.0
115.309	9.0
115.323	8.0
115.338	2.0
115.353	1.0
115.368	8.0
115.383	7.0
115.398	4.0
115.413	3.0
115.428	3.0
115.443	2.0
115.458	4.0
115.473	4.0
115.488	5.0
115.503	3.0
115.518	4.0
115.533	2.0
115.548	2.0
115.562	0.0
115.577	2.0
115.592	4.0
115.607	3.0
115.622	3.0
115.637	7.0
115.652	4.0
115.667	3.0
115.682	3.0
115.697	4.0
115.712	3.0
115.727	4.0
115.741	1.0
115.756	4.0
115.771	6.0
115.786	5.0
115.801	2.0
115.816	3.0
115.831	5.0
115.846	6.0
115.861	5.0
115.875	4.0
115.89	2.0
115.905	2.0
115.92	2.0
115.935	0.0
115.95	2.0
115.965	6.0
115.98	3.0
115.995	2.0
116.009	3.0
116.024	6.0
116.039	3.0
116.054	5.0
116.069	5.0
116.084	2.0
116.099	5.0
116.113	4.0
116.128	4.0
116.143	4.0
116.158	2.0
116.173	6.0
116.188	3.0
116.202	3.0
116.217	6.0
116.232	4.0
116.247	0.0
116.262	7.0
116.277	4.0
116.291	1.0
116.306	2.0
116.321	0.0
116.336	3.0
116.351	6.0
116.366	3.0
116.38	4.0
116.395	1.0
116.41	4.0
116.425	3.0
116.44	6.0
116.454	5.0
116.469	3.0
116.484	5.0
116.499	2.0
116.514	3.0
116.528	4.0
116.543	2.0
116.558	2.0
116.573	3.0
116.588	2.0
116.602	1.0
116.617	3.0
116.632	2.0
116.647	3.0
116.662	2.0
116.676	1.0
116.691	3.0
116.706	4.0
116.721	1.0
116.735	6.0
116.75	9.0
116.765	4.0
116.78	6.0
116.795	2.0
116.809	3.0
116.824	3.0
116.839	3.0
116.854	5.0
116.868	4.0
116.883	0.0
116.898	1.0
116.913	3.0
116.927	4.0
116.942	4.0
116.957	5.0
116.972	2.0
116.986	2.0
117.001	1.0
117.016	3.0
117.031	3.0
117.045	5.0
117.06	4.0
117.075	4.0
117.09	4.0
117.104	2.0
117.119	2.0
117.134	8.0
117.149	4.0
117.163	4.0
117.178	5.0
117.193	1.0
117.208	3.0
117.222	3.0
117.237	4.0
117.252	4.0
117.267	3.0
117.281	2.0
117.296	3.0
117.311	2.0
117.325	0.0
117.34	3.0
117.355	6.0
117.37	4.0
117.384	2.0
117.399	2.0
117.414	3.0
117.429	1.0
117.443	4.0
117.458	4.0
117.473	3.0
117.487	6.0
117.502	1.0
117.517	4.0
117.532	3.0
117.546	0.0
117.561	2.0
117.576	4.0
117.59	4.0
117.605	6.0
117.62	3.0
117.635	6.0
117.649	4.0
117.664	3.0
117.679	8.0
117.693	3.0
117.708	3.0
117.723	5.0
117.738	5.0
117.752	3.0
117.767	2.0
117.782	6.0
117.796	2.0
117.811	2.0
117.826	5.0
117.841	6.0
117.855	2.0
117.87	2.0
117.885	5.0
117.899	2.0
117.914	4.0
117.929	3.0
117.944	2.0
117.958	4.0
117.973	6.0
117.988	1.0
118.002	5.0
118.017	4.0
118.032	0.0
118.047	7.0
118.062	5.0
118.077	3.0
118.092	1.0
118.107	2.0
118.121	2.0
118.136	5.0
118.151	5.0
118.166	6.0
118.181	4.0
118.196	6.0
118.211	4.0
118.225	4.0
118.24	3.0
118.255	1.0
118.27	5.0
118.285	2.0
118.3	1.0
118.315	1.0
118.33	1.0
118.344	2.0
118.359	0.0
118.374	2.0
118.389	7.0
118.404	4.0
118.419	2.0
118.434	7.0
118.449	2.0
118.463	5.0
118.478	2.0
118.493	2.0
118.508	4.0
118.523	6.0
118.538	6.0
118.553	2.0
118.567	3.0
118.582	4.0
118.597	4.0
118.612	1.0
118.627	4.0
118.642	4.0
118.657	2.0
118.672	4.0
118.686	6.0
118.701	2.0
118.716	2.0
118.731	2.0
118.746	2.0
118.761	0.0
118.776	4.0
118.791	2.0
118.805	8.0
118.82	7.0
118.835	2.0
118.85	7.0
118.865	5.0
118.88	3.0
118.895	3.0
118.909	0.0
118.924	5.0
118.939	5.0
118.954	4.0
118.969	0.0
118.984	2.0
118.999	0.0
119.014	2.0
119.028	5.0
119.043	4.0
119.058	4.0
119.073	8.0
119.088	8.0
119.103	7.0
119.118	4.0
119.133	1.0
119.147	3.0
119.162	4.0
119.177	4.0
119.192	3.0
119.207	3.0
119.222	5.0
119.237	4.0
119.251	1.0
119.266	4.0
119.281	1.0
119.296	10.0
119.311	3.0
119.326	1.0
119.341	3.0
119.356	0.0
119.37	3.0
119.385	4.0
119.4	2.0
119.415	3.0
119.43	4.0
119.445	2.0
119.46	3.0
119.475	3.0
119.489	6.0
119.504	4.0
119.519	5.0
119.534	3.0
119.549	8.0
119.564	3.0
119.579	3.0
119.593	1.0
119.608	3.0
119.623	5.0
119.638	3.0
119.653	4.0
119.668	4.0
119.683	1.0
119.698	4.0
119.712	6.0
119.727	2.0
119.742	1.0
119.757	11.0
119.772	2.0
119.787	3.0
119.802	3.0
119.817	7.0
119.831	2.0
119.846	3.0
119.861	5.0
119.876	5.0
119.891	5.0
119.906	2.0
119.921	3.0
119.935	5.0
119.95	3.0
119.965	2.0
119.98	2.0
119.995	2.0
120.01	2.0
120.025	2.0
120.04	2.0
120.054	5.0
120.069	2.0
120.084	3.0
120.099	3.0
120.114	0.0
120.129	4.0
120.144	0.0
120.159	1.0
120.173	0.0
120.188	1.0
120.203	1.0
120.218	2.0
120.233	1.0
120.248	0.0
120.263	0.0
120.277	0.0
120.292	1.0
120.307	0.0
120.322	0.0
120.337	1.0
120.352	0.0
120.367	0.0
120.382	0.0
120.396	1.0
120.411	0.0
120.426	0.0
120.441	0.0
120.456	0.0
120.471	0.0
120.486	0.0
120.501	0.0
120.515	1.0
120.53	0.0
120.545	0.0
120.56	0.0
120.575	0.0
120.59	0.0
120.605	0.0
120.619	0.0
120.634	0.0
120.649	0.0
120.664	0.0
120.679	0.0
120.694	1.0
120.709	0.0
120.724	0.0
120.738	0.0
120.753	1.0
120.768	0.0
120.783	0.0
120.798	0.0
120.813	0.0
120.828	0.0
120.843	0.0
120.857	0.0
120.872	0.0
120.887	0.0
120.902	0.0
120.917	0.0
120.932	0.0
120.947	0.0
120.961	0.0
120.976	0.0
