-1.217	0.0
-1.202	0.0
-1.187	0.0
-1.172	0.0
-1.157	0.0
-1.142	0.0
-1.128	0.0
-1.113	0.0
-1.098	0.0
-1.083	0.0
-1.068	0.0
-1.054	0.0
-1.039	0.0
-1.024	0.0
-1.009	0.0
-0.994	0.0
-0.979	0.0
-0.965	0.0
-0.95	0.0
-0.935	0.0
-0.92	0.0
-0.905	0.0
-0.891	0.0
-0.876	0.0
-0.861	0.0
-0.846	0.0
-0.831	0.0
-0.816	0.0
-0.802	0.0
-0.787	0.0
-0.772	0.0
-0.757	0.0
-0.742	0.0
-0.728	0.0
-0.713	0.0
-0.698	0.0
-0.683	0.0
-0.668	0.0
-0.653	0.0
-0.639	0.0
-0.624	0.0
-0.609	0.0
-0.594	0.0
-0.579	0.0
-0.565	0.0
-0.55	0.0
-0.535	0.0
-0.52	0.0
-0.505	0.0
-0.49	0.0
-0.476	0.0
-0.461	0.0
-0.446	0.0
-0.431	0.0
-0.416	0.0
-0.401	0.0
-0.387	0.0
-0.372	0.0
-0.357	0.0
-0.342	0.0
-0.327	0.0
-0.313	0.0
-0.298	0.0
-0.283	0.0
-0.268	0.0
-0.253	0.0
-0.238	0.0
-0.224	0.0
-0.209	0.0
-0.194	0.0
-0.179	0.0
-0.164	0.0
-0.15	0.0
-0.135	0.0
-0.12	0.0
-0.105	0.0
-0.09	0.0
-0.075	0.0
-0.061	0.0
-0.046	0.0
-0.031	0.0
-0.016	0.0
-0.001	0.0
0.013	0.0
0.028	0.0
0.043	0.0
0.058	0.0
0.073	0.0
0.088	0.0
0.102	0.0
0.117	0.0
0.132	0.0
0.147	0.0
0.162	0.0
0.176	0.0
0.191	0.0
0.206	0.0
0.221	0.0
0.236	0.0
0.251	0.0
0.265	0.0
0.28	0.0
0.295	0.0
0.31	0.0
0.325	0.0
0.339	0.0
0.354	0.0
0.369	0.0
0.384	0.0
0.399	0.0
0.414	0.0
0.428	0.0
0.443	0.0
0.458	0.0
0.473	0.0
0.488	0.0
0.502	0.0
0.517	0.0
0.532	0.0
0.547	0.0
0.562	0.0
0.577	0.0
0.591	0.0
0.606	0.0
0.621	0.0
0.636	0.0
0.651	0.0
0.665	0.0
0.68	0.0
0.695	0.0
0.71	0.0
0.725	0.0
0.74	0.0
0.754	0.0
0.769	0.0
0.784	0.0
0.799	0.0
0.814	0.0
0.828	0.0
0.843	0.0
0.858	0.0
0.873	0.0
0.888	0.0
0.903	0.0
0.917	0.0
0.932	0.0
0.947	0.0
0.962	0.0
0.977	0.0
0.991	0.0
1.006	0.0
1.021	0.0
1.036	0.0
1.051	0.0
1.065	0.0
1.08	0.0
1.095	0.0
1.11	0.0
1.125	1.0
1.14	0.0
1.154	0.0
1.169	0.0
1.184	0.0
1.199	0.0
1.214	0.0
1.228	0.0
1.243	0.0
1.258	0.0
1.273	0.0
1.288	0.0
1.302	0.0
1.317	0.0
1.332	0.0
1.347	0.0
1.362	0.0
1.376	1.0
1.391	0.0
1.406	0.0
1.421	0.0
1.436	1.0
1.45	0.0
1.465	0.0
1.48	0.0
1.495	0.0
1.51	0.0
1.524	0.0
1.539	0.0
1.554	0.0
1.569	0.0
1.584	0.0
1.598	1.0
1.613	0.0
1.628	0.0
1.643	0.0
1.658	0.0
1.672	0.0
1.687	0.0
1.702	0.0
1.717	0.0
1.732	0.0
1.746	0.0
1.761	0.0
1.776	0.0
1.791	0.0
1.806	0.0
1.82	1.0
1.835	1.0
1.85	0.0
1.865	1.0
1.88	0.0
1.894	0.0
1.909	0.0
1.924	0.0
1.939	0.0
1.954	0.0
1.968	0.0
1.983	0.0
1.998	1.0
2.013	0.0
2.028	0.0
2.042	0.0
2.057	0.0
2.072	0.0
2.087	0.0
2.101	1.0
2.116	0.0
2.131	0.0
2.146	0.0
2.161	1.0
2.175	0.0
2.19	0.0
2.205	0.0
2.22	1.0
2.235	0.0
2.249	0.0
2.264	1.0
2.279	0.0
2.294	1.0
2.308	0.0
2.323	0.0
2.338	0.0
2.353	0.0
2.368	0.0
2.382	0.0
2.397	1.0
2.412	3.0
2.427	2.0
2.442	0.0
2.456	4.0
2.471	1.0
2.486	2.0
2.501	2.0
2.515	3.0
2.53	0.0
2.545	1.0
2.56	2.0
2.575	2.0
2.589	4.0
2.604	3.0
2.619	1.0
2.634	6.0
2.649	3.0
2.663	6.0
2.678	2.0
2.693	3.0
2.708	1.0
2.722	1.0
2.737	5.0
2.752	2.0
2.767	1.0
2.782	2.0
2.796	3.0
2.811	4.0
2.826	4.0
2.841	3.0
2.856	5.0
2.87	6.0
2.885	5.0
2.9	5.0
2.915	2.0
2.93	6.0
2.944	7.0
2.959	3.0
2.974	2.0
2.989	2.0
3.004	3.0
3.018	4.0
3.033	6.0
3.048	2.0
3.063	1.0
3.078	4.0
3.092	4.0
3.107	2.0
3.122	2.0
3.137	3.0
3.152	5.0
3.166	2.0
3.181	5.0
3.196	5.0
3.211	1.0
3.226	4.0
3.24	3.0
3.255	4.0
3.27	3.0
3.285	3.0
3.3	3.0
3.315	6.0
3.329	10.0
3.344	6.0
3.359	2.0
3.374	5.0
3.389	8.0
3.403	6.0
3.418	5.0
3.433	7.0
3.448	1.0
3.463	4.0
3.478	6.0
3.492	4.0
3.507	9.0
3.522	10.0
3.537	3.0
3.552	4.0
3.567	8.0
3.581	5.0
3.596	3.0
3.611	4.0
3.626	8.0
3.641	5.0
3.656	5.0
3.671	4.0
3.685	10.0
3.7	4.0
3.715	2.0
3.73	3.0
3.745	3.0
3.76	5.0
3.775	5.0
3.789	7.0
3.804	7.0
3.819	6.0
3.834	5.0
3.849	7.0
3.864	6.0
3.879	10.0
3.894	5.0
3.908	5.0
3.923	8.0
3.938	3.0
3.953	12.0
3.968	16.0
3.983	5.0
3.998	3.0
4.013	9.0
4.027	5.0
4.042	7.0
4.057	5.0
4.072	9.0
4.087	7.0
4.102	4.0
4.117	3.0
4.132	9.0
4.147	4.0
4.162	9.0
4.176	3.0
4.191	3.0
4.206	6.0
4.221	5.0
4.236	4.0
4.251	5.0
4.266	11.0
4.281	5.0
4.296	4.0
4.311	9.0
4.326	7.0
4.341	6.0
4.356	5.0
4.37	10.0
4.385	2.0
4.4	9.0
4.415	10.0
4.43	7.0
4.445	7.0
4.46	9.0
4.475	3.0
4.49	5.0
4.505	2.0
4.52	5.0
4.535	11.0
4.55	2.0
4.565	5.0
4.58	5.0
4.595	8.0
4.61	7.0
4.625	9.0
4.639	7.0
4.654	8.0
4.669	4.0
4.684	9.0
4.699	5.0
4.714	6.0
4.729	12.0
4.744	9.0
4.759	11.0
4.774	11.0
4.789	9.0
4.804	3.0
4.819	11.0
4.834	10.0
4.849	14.0
4.864	8.0
4.879	10.0
4.894	11.0
4.909	5.0
4.924	12.0
4.939	5.0
4.954	7.0
4.969	6.0
4.984	10.0
4.999	10.0
5.014	9.0
5.029	14.0
5.044	8.0
5.059	10.0
5.074	10.0
5.089	5.0
5.104	8.0
5.119	9.0
5.134	6.0
5.149	6.0
5.164	9.0
5.179	4.0
5.194	4.0
5.209	8.0
5.224	10.0
5.239	13.0
5.254	10.0
5.269	6.0
5.284	4.0
5.299	8.0
5.314	3.0
5.329	5.0
5.344	5.0
5.359	10.0
5.374	10.0
5.389	10.0
5.404	12.0
5.419	13.0
5.434	5.0
5.449	7.0
5.464	7.0
5.479	13.0
5.494	11.0
5.509	12.0
5.524	10.0
5.539	5.0
5.554	11.0
5.569	9.0
5.584	9.0
5.599	8.0
5.614	5.0
5.629	9.0
5.644	3.0
5.659	4.0
5.674	11.0
5.689	15.0
5.704	7.0
5.719	12.0
5.734	5.0
5.749	9.0
5.764	12.0
5.779	11.0
5.794	11.0
5.809	7.0
5.824	7.0
5.839	13.0
5.854	14.0
5.869	14.0
5.884	9.0
5.899	7.0
5.914	11.0
5.929	13.0
5.944	5.0
5.959	7.0
5.974	6.0
5.989	12.0
6.004	13.0
6.019	9.0
6.034	4.0
6.049	6.0
6.064	8.0
6.079	6.0
6.094	8.0
6.109	4.0
6.124	4.0
6.139	9.0
6.154	9.0
6.169	11.0
6.184	9.0
6.199	10.0
6.214	12.0
6.229	11.0
6.244	6.0
6.259	11.0
6.274	9.0
6.289	4.0
6.304	6.0
6.319	4.0
6.334	7.0
6.349	11.0
6.364	6.0
6.379	12.0
6.394	10.0
6.409	11.0
6.424	15.0
6.439	7.0
6.454	5.0
6.469	11.0
6.484	9.0
6.499	3.0
6.514	11.0
6.529	6.0
6.544	9.0
6.559	7.0
6.574	9.0
6.589	7.0
6.604	7.0
6.619	10.0
6.634	8.0
6.649	10.0
6.664	17.0
6.679	9.0
6.694	5.0
6.709	7.0
6.724	8.0
6.739	10.0
6.754	13.0
6.769	9.0
6.784	11.0
6.799	12.0
6.814	10.0
6.829	7.0
6.844	11.0
6.859	12.0
6.873	12.0
6.888	7.0
6.903	11.0
6.918	7.0
6.933	9.0
6.948	5.0
6.963	9.0
6.978	8.0
6.993	12.0
7.008	5.0
7.023	15.0
7.038	10.0
7.053	7.0
7.068	8.0
7.083	8.0
7.098	5.0
7.113	4.0
7.128	13.0
7.143	7.0
7.157	7.0
7.172	7.0
7.187	7.0
7.202	12.0
7.217	11.0
7.232	7.0
7.247	4.0
7.262	18.0
7.277	12.0
7.292	11.0
7.307	6.0
7.322	14.0
7.336	6.0
7.351	11.0
7.366	8.0
7.381	13.0
7.396	12.0
7.411	5.0
7.426	12.0
7.441	10.0
7.456	11.0
7.471	6.0
7.485	5.0
7.5	7.0
7.515	10.0
7.53	7.0
7.545	7.0
7.56	8.0
7.575	11.0
7.59	8.0
7.604	14.0
7.619	7.0
7.634	11.0
7.649	7.0
7.664	13.0
7.679	11.0
7.693	8.0
7.708	9.0
7.723	6.0
7.738	13.0
7.753	10.0
7.768	13.0
7.783	10.0
7.797	6.0
7.812	7.0
7.827	5.0
7.842	10.0
7.857	11.0
7.871	9.0
7.886	10.0
7.901	10.0
7.916	8.0
7.931	11.0
7.945	13.0
7.96	14.0
7.975	7.0
7.99	16.0
8.005	16.0
8.019	9.0
8.034	10.0
8.049	6.0
8.064	5.0
8.078	5.0
8.093	11.0
8.108	3.0
8.123	9.0
8.137	7.0
8.152	11.0
8.167	7.0
8.182	8.0
8.196	12.0
8.211	10.0
8.226	15.0
8.241	8.0
8.255	7.0
8.27	5.0
8.285	8.0
8.3	15.0
8.314	8.0
8.329	6.0
8.344	10.0
8.358	10.0
8.373	4.0
8.388	9.0
8.403	10.0
8.417	6.0
8.432	10.0
8.447	9.0
8.461	6.0
8.476	5.0
8.491	9.0
8.505	4.0
8.52	9.0
8.535	7.0
8.55	7.0
8.564	18.0
8.579	6.0
8.594	9.0
8.608	13.0
8.623	9.0
8.638	5.0
8.652	13.0
8.667	5.0
8.682	8.0
8.696	10.0
8.711	10.0
8.726	10.0
8.74	6.0
8.755	9.0
8.77	8.0
8.784	9.0
8.799	12.0
8.814	12.0
8.828	4.0
8.843	9.0
8.858	10.0
8.872	5.0
8.887	9.0
8.902	6.0
8.916	9.0
8.931	4.0
8.946	7.0
8.96	8.0
8.975	3.0
8.99	6.0
9.004	8.0
9.019	11.0
9.034	4.0
9.048	9.0
9.063	9.0
9.077	10.0
9.092	12.0
9.107	11.0
9.121	9.0
9.136	11.0
9.151	4.0
9.165	5.0
9.18	7.0
9.195	9.0
9.209	9.0
9.224	7.0
9.239	10.0
9.253	11.0
9.268	8.0
9.283	13.0
9.297	9.0
9.312	11.0
9.327	7.0
9.341	7.0
9.356	8.0
9.371	12.0
9.385	2.0
9.4	10.0
9.415	3.0
9.429	12.0
9.444	10.0
9.458	7.0
9.473	6.0
9.488	6.0
9.502	7.0
9.517	9.0
9.532	7.0
9.546	9.0
9.561	5.0
9.576	14.0
9.59	4.0
9.605	7.0
9.62	7.0
9.635	6.0
9.649	6.0
9.664	13.0
9.679	9.0
9.693	7.0
9.708	8.0
9.723	10.0
9.737	6.0
9.752	9.0
9.767	10.0
9.781	7.0
9.796	4.0
9.811	11.0
9.825	10.0
9.84	9.0
9.855	12.0
9.87	9.0
9.884	7.0
9.899	11.0
9.914	8.0
9.928	11.0
9.943	13.0
9.958	5.0
9.973	10.0
9.987	4.0
10.002	6.0
10.017	11.0
10.031	14.0
10.046	12.0
10.061	6.0
10.076	12.0
10.09	6.0
10.105	7.0
10.12	8.0
10.135	11.0
10.149	7.0
10.164	11.0
10.179	11.0
10.194	5.0
10.208	10.0
10.223	6.0
10.238	6.0
10.253	7.0
10.267	6.0
10.282	9.0
10.297	6.0
10.312	7.0
10.326	9.0
10.341	8.0
10.356	8.0
10.371	7.0
10.386	12.0
10.4	14.0
10.415	9.0
10.43	10.0
10.445	9.0
10.46	11.0
10.474	6.0
10.489	12.0
10.504	8.0
10.519	6.0
10.533	9.0
10.548	4.0
10.563	6.0
10.578	10.0
10.593	10.0
10.608	8.0
10.622	13.0
10.637	7.0
10.652	7.0
10.667	8.0
10.682	8.0
10.696	8.0
10.711	11.0
10.726	4.0
10.741	9.0
10.756	9.0
10.771	5.0
10.785	2.0
10.8	5.0
10.815	3.0
10.83	6.0
10.845	7.0
10.86	6.0
10.874	7.0
10.889	4.0
10.904	6.0
10.919	11.0
10.934	8.0
10.949	2.0
10.963	10.0
10.978	7.0
10.993	11.0
11.008	6.0
11.023	5.0
11.038	3.0
11.053	9.0
11.067	6.0
11.082	9.0
11.097	5.0
11.112	6.0
11.127	9.0
11.142	5.0
11.157	7.0
11.172	4.0
11.186	9.0
11.201	5.0
11.216	11.0
11.231	6.0
11.246	8.0
11.261	9.0
11.276	7.0
11.291	8.0
11.305	9.0
11.32	9.0
11.335	11.0
11.35	11.0
11.365	8.0
11.38	7.0
11.395	6.0
11.41	7.0
11.424	7.0
11.439	12.0
11.454	10.0
11.469	3.0
11.484	12.0
11.499	11.0
11.514	9.0
11.529	7.0
11.544	11.0
11.558	7.0
11.573	9.0
11.588	7.0
11.603	7.0
11.618	9.0
11.633	9.0
11.648	6.0
11.663	7.0
11.678	8.0
11.693	12.0
11.707	10.0
11.722	13.0
11.737	10.0
11.752	9.0
11.767	8.0
11.782	18.0
11.797	6.0
11.812	18.0
11.827	4.0
11.842	9.0
11.856	11.0
11.871	7.0
11.886	7.0
11.901	10.0
11.916	18.0
11.931	9.0
11.946	7.0
11.961	14.0
11.976	11.0
11.991	13.0
12.006	6.0
12.02	8.0
12.035	9.0
12.05	8.0
12.065	10.0
12.08	9.0
12.095	10.0
12.11	6.0
12.125	6.0
12.14	10.0
12.155	7.0
12.17	14.0
12.184	12.0
12.199	11.0
12.214	8.0
12.229	12.0
12.244	7.0
12.259	12.0
12.274	5.0
12.289	13.0
12.304	10.0
12.319	14.0
12.334	17.0
12.348	13.0
12.363	8.0
12.378	11.0
12.393	14.0
12.408	12.0
12.423	9.0
12.438	10.0
12.453	5.0
12.468	11.0
12.483	11.0
12.498	8.0
12.513	19.0
12.527	12.0
12.542	13.0
12.557	6.0
12.572	12.0
12.587	12.0
12.602	14.0
12.617	11.0
12.632	10.0
12.647	11.0
12.662	11.0
12.677	15.0
12.692	14.0
12.707	12.0
12.721	21.0
12.736	15.0
12.751	16.0
12.766	12.0
12.781	12.0
12.796	15.0
12.811	11.0
12.826	11.0
12.841	19.0
12.856	12.0
12.871	16.0
12.886	10.0
12.9	13.0
12.915	12.0
12.93	13.0
12.945	15.0
12.96	5.0
12.975	14.0
12.99	13.0
13.005	10.0
13.02	19.0
13.035	18.0
13.05	14.0
13.065	13.0
13.08	18.0
13.094	20.0
13.109	25.0
13.124	17.0
13.139	16.0
13.154	20.0
13.169	21.0
13.184	21.0
13.199	23.0
13.214	23.0
13.229	18.0
13.244	17.0
13.259	18.0
13.274	15.0
13.288	31.0
13.303	20.0
13.318	21.0
13.333	20.0
13.348	25.0
13.363	25.0
13.378	26.0
13.393	26.0
13.408	34.0
13.423	40.0
13.438	30.0
13.453	25.0
13.468	30.0
13.482	46.0
13.497	38.0
13.512	49.0
13.527	33.0
13.542	41.0
13.557	49.0
13.572	61.0
13.587	49.0
13.602	55.0
13.617	74.0
13.632	59.0
13.647	65.0
13.662	69.0
13.677	78.0
13.691	81.0
13.706	97.0
13.721	86.0
13.736	92.0
13.751	117.0
13.766	108.0
13.781	126.0
13.796	119.0
13.811	118.0
13.826	122.0
13.841	137.0
13.856	120.0
13.871	102.0
13.885	105.0
13.9	84.0
13.915	86.0
13.93	73.0
13.945	51.0
13.96	49.0
13.975	34.0
13.99	42.0
14.005	29.0
14.02	32.0
14.035	22.0
14.05	21.0
14.065	21.0
14.08	26.0
14.094	28.0
14.109	23.0
14.124	18.0
14.139	24.0
14.154	16.0
14.169	21.0
14.184	22.0
14.199	29.0
14.214	27.0
14.229	19.0
14.244	17.0
14.259	24.0
14.274	13.0
14.288	21.0
14.303	15.0
14.318	17.0
14.333	14.0
14.348	21.0
14.363	27.0
14.378	15.0
14.393	21.0
14.408	24.0
14.423	18.0
14.438	14.0
14.453	23.0
14.468	22.0
14.482	21.0
14.497	8.0
14.512	23.0
14.527	18.0
14.542	22.0
14.557	17.0
14.572	18.0
14.587	18.0
14.602	16.0
14.617	18.0
14.632	19.0
14.647	23.0
14.661	17.0
14.676	15.0
14.691	19.0
14.706	19.0
14.721	17.0
14.736	15.0
14.751	17.0
14.766	16.0
14.781	15.0
14.796	15.0
14.811	15.0
14.826	22.0
14.84	12.0
14.855	17.0
14.87	19.0
14.885	10.0
14.9	12.0
14.915	20.0
14.93	13.0
14.945	15.0
14.96	23.0
14.975	18.0
14.989	19.0
15.004	13.0
15.019	14.0
15.034	19.0
15.049	13.0
15.064	6.0
15.079	21.0
15.094	14.0
15.109	15.0
15.124	25.0
15.138	10.0
15.153	15.0
15.168	11.0
15.183	16.0
15.198	12.0
15.213	19.0
15.228	16.0
15.243	13.0
15.258	21.0
15.272	19.0
15.287	15.0
15.302	16.0
15.317	13.0
15.332	15.0
15.347	13.0
15.362	12.0
15.377	17.0
15.391	12.0
15.406	24.0
15.421	19.0
15.436	10.0
15.451	15.0
15.466	15.0
15.481	15.0
15.496	11.0
15.51	17.0
15.525	13.0
15.54	13.0
15.555	19.0
15.57	9.0
15.585	15.0
15.6	11.0
15.614	12.0
15.629	18.0
15.644	13.0
15.659	15.0
15.674	18.0
15.689	12.0
15.704	12.0
15.718	11.0
15.733	16.0
15.748	17.0
15.763	9.0
15.778	13.0
15.793	9.0
15.808	14.0
15.822	17.0
15.837	15.0
15.852	13.0
15.867	11.0
15.882	16.0
15.897	15.0
15.911	25.0
15.926	8.0
15.941	18.0
15.956	20.0
15.971	21.0
15.986	10.0
16.0	18.0
16.015	8.0
16.03	15.0
16.045	17.0
16.06	13.0
16.074	14.0
16.089	14.0
16.104	11.0
16.119	17.0
16.134	15.0
16.149	18.0
16.163	6.0
16.178	14.0
16.193	14.0
16.208	12.0
16.223	15.0
16.237	8.0
16.252	10.0
16.267	12.0
16.282	10.0
16.297	10.0
16.311	15.0
16.326	18.0
16.341	10.0
16.356	13.0
16.37	15.0
16.385	14.0
16.4	19.0
16.415	12.0
16.43	14.0
16.444	10.0
16.459	15.0
16.474	14.0
16.489	13.0
16.504	7.0
16.518	9.0
16.533	11.0
16.548	14.0
16.563	19.0
16.577	17.0
16.592	13.0
16.607	19.0
16.622	15.0
16.637	20.0
16.651	22.0
16.666	20.0
16.681	26.0
16.696	28.0
16.71	21.0
16.725	31.0
16.74	24.0
16.755	18.0
16.77	25.0
16.784	39.0
16.799	36.0
16.814	40.0
16.829	36.0
16.843	41.0
16.858	50.0
16.873	65.0
16.888	62.0
16.902	60.0
16.917	77.0
16.932	74.0
16.947	79.0
16.961	86.0
16.976	85.0
16.991	61.0
17.006	70.0
17.021	54.0
17.035	43.0
17.05	67.0
17.065	37.0
17.08	43.0
17.094	30.0
17.109	35.0
17.124	21.0
17.139	34.0
17.153	22.0
17.168	19.0
17.183	14.0
17.198	18.0
17.212	23.0
17.227	19.0
17.242	17.0
17.257	12.0
17.271	14.0
17.286	19.0
17.301	17.0
17.316	13.0
17.33	7.0
17.345	8.0
17.36	17.0
17.375	16.0
17.39	12.0
17.404	18.0
17.419	12.0
17.434	17.0
17.449	14.0
17.463	10.0
17.478	9.0
17.493	18.0
17.508	13.0
17.522	12.0
17.537	17.0
17.552	14.0
17.567	11.0
17.581	14.0
17.596	8.0
17.611	15.0
17.626	12.0
17.641	9.0
17.655	18.0
17.67	19.0
17.685	14.0
17.7	8.0
17.714	12.0
17.729	8.0
17.744	17.0
17.759	9.0
17.773	8.0
17.788	12.0
17.803	10.0
17.818	8.0
17.833	8.0
17.847	12.0
17.862	11.0
17.877	7.0
17.892	9.0
17.906	19.0
17.921	12.0
17.936	10.0
17.951	15.0
17.966	8.0
17.98	16.0
17.995	13.0
18.01	11.0
18.025	12.0
18.04	6.0
18.054	16.0
18.069	9.0
18.084	13.0
18.099	12.0
18.114	12.0
18.128	14.0
18.143	16.0
18.158	13.0
18.173	4.0
18.188	12.0
18.202	13.0
18.217	8.0
18.232	21.0
18.247	8.0
18.262	17.0
18.276	8.0
18.291	12.0
18.306	13.0
18.321	8.0
18.336	10.0
18.35	12.0
18.365	12.0
18.38	9.0
18.395	8.0
18.41	5.0
18.424	10.0
18.439	8.0
18.454	10.0
18.469	16.0
18.484	10.0
18.498	11.0
18.513	7.0
18.528	11.0
18.543	12.0
18.558	7.0
18.573	16.0
18.587	14.0
18.602	10.0
18.617	13.0
18.632	12.0
18.647	10.0
18.661	12.0
18.676	8.0
18.691	10.0
18.706	18.0
18.721	9.0
18.736	12.0
18.75	9.0
18.765	16.0
18.78	12.0
18.795	7.0
18.81	17.0
18.825	18.0
18.839	9.0
18.854	12.0
18.869	16.0
18.884	10.0
18.899	23.0
18.913	10.0
18.928	10.0
18.943	12.0
18.958	13.0
18.973	14.0
18.988	14.0
19.002	7.0
19.017	11.0
19.032	4.0
19.047	15.0
19.062	5.0
19.077	6.0
19.091	17.0
19.106	14.0
19.121	11.0
19.136	11.0
19.151	23.0
19.165	17.0
19.18	9.0
19.195	10.0
19.21	14.0
19.225	11.0
19.24	18.0
19.254	8.0
19.269	9.0
19.284	16.0
19.299	12.0
19.314	16.0
19.329	18.0
19.343	14.0
19.358	6.0
19.373	18.0
19.388	8.0
19.403	24.0
19.417	22.0
19.432	15.0
19.447	21.0
19.462	20.0
19.477	29.0
19.492	32.0
19.506	37.0
19.521	22.0
19.536	40.0
19.551	38.0
19.566	48.0
19.58	38.0
19.595	38.0
19.61	47.0
19.625	48.0
19.64	37.0
19.655	36.0
19.669	36.0
19.684	35.0
19.699	17.0
19.714	30.0
19.729	24.0
19.743	30.0
19.758	28.0
19.773	18.0
19.788	12.0
19.803	13.0
19.817	13.0
19.832	22.0
19.847	17.0
19.862	13.0
19.877	15.0
19.891	15.0
19.906	17.0
19.921	15.0
19.936	13.0
19.951	14.0
19.965	15.0
19.98	15.0
19.995	12.0
20.01	11.0
20.025	12.0
20.039	16.0
20.054	12.0
20.069	11.0
20.084	18.0
20.099	13.0
20.113	8.0
20.128	10.0
20.143	10.0
20.158	13.0
20.173	18.0
20.187	12.0
20.202	16.0
20.217	11.0
20.232	9.0
20.246	14.0
20.261	11.0
20.276	12.0
20.291	11.0
20.306	15.0
20.32	12.0
20.335	16.0
20.35	14.0
20.365	9.0
20.38	15.0
20.394	11.0
20.409	11.0
20.424	10.0
20.439	11.0
20.453	9.0
20.468	12.0
20.483	15.0
20.498	11.0
20.513	11.0
20.527	6.0
20.542	13.0
20.557	5.0
20.572	13.0
20.586	6.0
20.601	7.0
20.616	8.0
20.631	11.0
20.646	6.0
20.66	8.0
20.675	9.0
20.69	18.0
20.705	17.0
20.719	11.0
20.734	6.0
20.749	5.0
20.764	22.0
20.779	8.0
20.793	12.0
20.808	17.0
20.823	10.0
20.838	15.0
20.853	9.0
20.867	9.0
20.882	20.0
20.897	14.0
20.912	14.0
20.926	13.0
20.941	7.0
20.956	11.0
20.971	12.0
20.986	16.0
21.0	8.0
21.015	11.0
21.03	8.0
21.045	10.0
21.06	13.0
21.074	12.0
21.089	12.0
21.104	12.0
21.119	13.0
21.134	17.0
21.148	5.0
21.163	7.0
21.178	9.0
21.193	14.0
21.208	16.0
21.222	9.0
21.237	12.0
21.252	15.0
21.267	10.0
21.282	13.0
21.296	16.0
21.311	13.0
21.326	10.0
21.341	17.0
21.356	7.0
21.37	16.0
21.385	17.0
21.4	11.0
21.415	13.0
21.43	6.0
21.444	16.0
21.459	16.0
21.474	11.0
21.489	13.0
21.504	19.0
21.519	6.0
21.533	9.0
21.548	13.0
21.563	10.0
21.578	13.0
21.593	10.0
21.608	12.0
21.622	19.0
21.637	16.0
21.652	17.0
21.667	16.0
21.682	18.0
21.697	21.0
21.712	15.0
21.726	17.0
21.741	27.0
21.756	27.0
21.771	23.0
21.786	28.0
21.801	42.0
21.816	32.0
21.83	46.0
21.845	53.0
21.86	56.0
21.875	51.0
21.89	55.0
21.905	77.0
21.92	64.0
21.935	80.0
21.949	89.0
21.964	89.0
21.979	67.0
21.994	70.0
22.009	73.0
22.024	61.0
22.039	59.0
22.054	52.0
22.069	53.0
22.083	37.0
22.098	40.0
22.113	37.0
22.128	33.0
22.143	31.0
22.158	26.0
22.173	18.0
22.188	14.0
22.203	17.0
22.218	19.0
22.233	10.0
22.248	16.0
22.262	14.0
22.277	10.0
22.292	7.0
22.307	10.0
22.322	17.0
22.337	14.0
22.352	11.0
22.367	14.0
22.382	18.0
22.397	15.0
22.412	17.0
22.427	9.0
22.442	10.0
22.457	13.0
22.472	12.0
22.487	11.0
22.502	10.0
22.516	8.0
22.531	11.0
22.546	14.0
22.561	9.0
22.576	9.0
22.591	11.0
22.606	13.0
22.621	19.0
22.636	15.0
22.651	15.0
22.666	12.0
22.681	13.0
22.696	13.0
22.711	14.0
22.726	16.0
22.741	5.0
22.756	11.0
22.771	7.0
22.786	9.0
22.801	3.0
22.816	9.0
22.831	14.0
22.846	11.0
22.861	9.0
22.876	7.0
22.891	6.0
22.906	8.0
22.92	11.0
22.935	8.0
22.95	18.0
22.965	11.0
22.98	13.0
22.995	7.0
23.01	14.0
23.025	10.0
23.04	12.0
23.055	10.0
23.07	12.0
23.085	12.0
23.1	11.0
23.115	13.0
23.13	7.0
23.145	11.0
23.16	9.0
23.175	7.0
23.19	9.0
23.205	12.0
23.22	11.0
23.235	13.0
23.25	5.0
23.265	7.0
23.28	11.0
23.295	5.0
23.31	12.0
23.325	6.0
23.34	8.0
23.355	10.0
23.37	8.0
23.384	10.0
23.399	9.0
23.414	8.0
23.429	11.0
23.444	16.0
23.459	18.0
23.474	7.0
23.489	9.0
23.504	13.0
23.519	11.0
23.534	16.0
23.549	15.0
23.564	17.0
23.579	7.0
23.594	10.0
23.609	9.0
23.624	12.0
23.639	11.0
23.654	11.0
23.668	8.0
23.683	7.0
23.698	13.0
23.713	17.0
23.728	8.0
23.743	21.0
23.758	11.0
23.773	11.0
23.788	8.0
23.803	13.0
23.818	13.0
23.833	19.0
23.848	14.0
23.862	18.0
23.877	23.0
23.892	19.0
23.907	15.0
23.922	20.0
23.937	26.0
23.952	29.0
23.967	24.0
23.982	29.0
23.997	30.0
24.011	52.0
24.026	54.0
24.041	47.0
24.056	62.0
24.071	52.0
24.086	55.0
24.101	56.0
24.116	61.0
24.131	47.0
24.145	43.0
24.16	38.0
24.175	42.0
24.19	35.0
24.205	31.0
24.22	29.0
24.235	36.0
24.249	21.0
24.264	29.0
24.279	25.0
24.294	19.0
24.309	16.0
24.324	14.0
24.338	18.0
24.353	15.0
24.368	21.0
24.383	17.0
24.398	13.0
24.413	9.0
24.428	13.0
24.442	12.0
24.457	9.0
24.472	13.0
24.487	14.0
24.502	17.0
24.516	12.0
24.531	12.0
24.546	10.0
24.561	8.0
24.576	16.0
24.591	2.0
24.605	12.0
24.62	7.0
24.635	9.0
24.65	13.0
24.665	18.0
24.679	11.0
24.694	10.0
24.709	8.0
24.724	7.0
24.739	11.0
24.753	15.0
24.768	10.0
24.783	4.0
24.798	6.0
24.813	8.0
24.827	11.0
24.842	8.0
24.857	14.0
24.872	7.0
24.886	8.0
24.901	7.0
24.916	10.0
24.931	10.0
24.946	6.0
24.96	12.0
24.975	6.0
24.99	9.0
25.005	5.0
25.019	11.0
25.034	7.0
25.049	9.0
25.064	6.0
25.078	15.0
25.093	14.0
25.108	7.0
25.123	6.0
25.138	11.0
25.152	13.0
25.167	15.0
25.182	9.0
25.197	11.0
25.211	7.0
25.226	8.0
25.241	15.0
25.256	7.0
25.27	19.0
25.285	9.0
25.3	12.0
25.315	10.0
25.329	7.0
25.344	8.0
25.359	10.0
25.374	12.0
25.388	8.0
25.403	10.0
25.418	14.0
25.433	7.0
25.447	13.0
25.462	7.0
25.477	9.0
25.492	6.0
25.506	15.0
25.521	12.0
25.536	14.0
25.55	7.0
25.565	12.0
25.58	11.0
25.595	9.0
25.609	16.0
25.624	9.0
25.639	9.0
25.654	12.0
25.668	12.0
25.683	8.0
25.698	10.0
25.713	12.0
25.727	13.0
25.742	12.0
25.757	10.0
25.772	9.0
25.786	8.0
25.801	10.0
25.816	4.0
25.83	6.0
25.845	15.0
25.86	15.0
25.875	14.0
25.889	10.0
25.904	10.0
25.919	9.0
25.934	8.0
25.948	9.0
25.963	4.0
25.978	15.0
25.992	14.0
26.007	15.0
26.022	13.0
26.037	13.0
26.051	14.0
26.066	7.0
26.081	8.0
26.096	10.0
26.11	8.0
26.125	12.0
26.14	19.0
26.155	6.0
26.169	16.0
26.184	8.0
26.199	9.0
26.213	5.0
26.228	14.0
26.243	4.0
26.258	10.0
26.272	15.0
26.287	10.0
26.302	9.0
26.317	10.0
26.331	10.0
26.346	12.0
26.361	11.0
26.376	9.0
26.39	15.0
26.405	12.0
26.42	13.0
26.434	10.0
26.449	7.0
26.464	10.0
26.479	7.0
26.493	13.0
26.508	2.0
26.523	9.0
26.538	4.0
26.552	4.0
26.567	10.0
26.582	7.0
26.597	7.0
26.611	13.0
26.626	16.0
26.641	14.0
26.656	6.0
26.67	7.0
26.685	4.0
26.7	8.0
26.715	4.0
26.729	9.0
26.744	9.0
26.759	7.0
26.773	8.0
26.788	12.0
26.803	12.0
26.818	12.0
26.832	8.0
26.847	19.0
26.862	10.0
26.877	9.0
26.891	13.0
26.906	7.0
26.921	7.0
26.936	8.0
26.95	14.0
26.965	6.0
26.98	9.0
26.995	7.0
27.01	6.0
27.024	9.0
27.039	14.0
27.054	13.0
27.069	7.0
27.083	5.0
27.098	10.0
27.113	17.0
27.128	8.0
27.142	4.0
27.157	12.0
27.172	6.0
27.187	11.0
27.201	9.0
27.216	8.0
27.231	7.0
27.246	8.0
27.261	8.0
27.275	11.0
27.29	11.0
27.305	10.0
27.32	8.0
27.334	14.0
27.349	11.0
27.364	10.0
27.379	15.0
27.394	11.0
27.408	12.0
27.423	7.0
27.438	6.0
27.453	7.0
27.467	10.0
27.482	13.0
27.497	9.0
27.512	9.0
27.527	13.0
27.541	6.0
27.556	11.0
27.571	9.0
27.586	13.0
27.601	11.0
27.615	14.0
27.63	14.0
27.645	9.0
27.66	8.0
27.675	14.0
27.689	9.0
27.704	14.0
27.719	18.0
27.734	15.0
27.749	16.0
27.763	27.0
27.778	16.0
27.793	16.0
27.808	24.0
27.823	20.0
27.838	24.0
27.852	18.0
27.867	24.0
27.882	23.0
27.897	24.0
27.912	30.0
27.926	21.0
27.941	14.0
27.956	28.0
27.971	17.0
27.986	17.0
28.001	20.0
28.015	13.0
28.03	23.0
28.045	13.0
28.06	14.0
28.075	14.0
28.09	17.0
28.105	16.0
28.119	14.0
28.134	9.0
28.149	17.0
28.164	15.0
28.179	10.0
28.194	13.0
28.208	5.0
28.223	10.0
28.238	20.0
28.253	8.0
28.268	13.0
28.283	19.0
28.298	10.0
28.312	10.0
28.327	19.0
28.342	16.0
28.357	12.0
28.372	9.0
28.387	12.0
28.402	14.0
28.417	8.0
28.431	4.0
28.446	8.0
28.461	9.0
28.476	14.0
28.491	13.0
28.506	9.0
28.521	6.0
28.536	11.0
28.55	4.0
28.565	12.0
28.58	15.0
28.595	7.0
28.61	16.0
28.625	13.0
28.64	12.0
28.655	9.0
28.669	10.0
28.684	10.0
28.699	13.0
28.714	11.0
28.729	11.0
28.744	6.0
28.759	10.0
28.774	12.0
28.788	9.0
28.803	12.0
28.818	10.0
28.833	13.0
28.848	12.0
28.863	12.0
28.878	8.0
28.893	11.0
28.908	14.0
28.922	6.0
28.937	12.0
28.952	14.0
28.967	5.0
28.982	17.0
28.997	5.0
29.012	8.0
29.027	14.0
29.041	7.0
29.056	13.0
29.071	14.0
29.086	12.0
29.101	8.0
29.116	12.0
29.131	10.0
29.146	11.0
29.16	11.0
29.175	12.0
29.19	8.0
29.205	13.0
29.22	9.0
29.235	9.0
29.25	13.0
29.265	6.0
29.279	6.0
29.294	18.0
29.309	21.0
29.324	13.0
29.339	19.0
29.354	13.0
29.369	12.0
29.384	14.0
29.398	20.0
29.413	10.0
29.428	20.0
29.443	19.0
29.458	31.0
29.473	36.0
29.488	31.0
29.502	27.0
29.517	34.0
29.532	40.0
29.547	42.0
29.562	45.0
29.577	51.0
29.592	54.0
29.606	54.0
29.621	47.0
29.636	52.0
29.651	56.0
29.666	35.0
29.681	26.0
29.695	33.0
29.71	26.0
29.725	34.0
29.74	31.0
29.755	36.0
29.77	31.0
29.784	29.0
29.799	33.0
29.814	32.0
29.829	25.0
29.844	19.0
29.859	17.0
29.873	16.0
29.888	15.0
29.903	12.0
29.918	16.0
29.933	13.0
29.947	18.0
29.962	15.0
29.977	15.0
29.992	13.0
30.007	5.0
30.021	15.0
30.036	10.0
30.051	17.0
30.066	17.0
30.081	13.0
30.095	20.0
30.11	14.0
30.125	15.0
30.14	9.0
30.155	17.0
30.169	7.0
30.184	12.0
30.199	12.0
30.214	16.0
30.228	8.0
30.243	10.0
30.258	9.0
30.273	11.0
30.288	9.0
30.302	14.0
30.317	13.0
30.332	8.0
30.347	7.0
30.361	10.0
30.376	15.0
30.391	11.0
30.406	8.0
30.42	18.0
30.435	12.0
30.45	7.0
30.465	10.0
30.479	11.0
30.494	8.0
30.509	7.0
30.524	14.0
30.538	10.0
30.553	12.0
30.568	16.0
30.583	8.0
30.597	10.0
30.612	15.0
30.627	8.0
30.641	8.0
30.656	10.0
30.671	5.0
30.686	12.0
30.7	8.0
30.715	14.0
30.73	15.0
30.745	16.0
30.759	8.0
30.774	8.0
30.789	12.0
30.803	12.0
30.818	11.0
30.833	13.0
30.848	12.0
30.862	8.0
30.877	10.0
30.892	10.0
30.906	10.0
30.921	20.0
30.936	7.0
30.951	10.0
30.965	12.0
30.98	11.0
30.995	14.0
31.009	12.0
31.024	16.0
31.039	17.0
31.053	16.0
31.068	16.0
31.083	16.0
31.098	19.0
31.112	21.0
31.127	21.0
31.142	29.0
31.156	19.0
31.171	29.0
31.186	34.0
31.2	23.0
31.215	25.0
31.23	35.0
31.245	44.0
31.259	41.0
31.274	35.0
31.289	43.0
31.303	40.0
31.318	44.0
31.333	33.0
31.347	42.0
31.362	25.0
31.377	27.0
31.392	26.0
31.406	26.0
31.421	27.0
31.436	26.0
31.45	15.0
31.465	23.0
31.48	31.0
31.494	22.0
31.509	21.0
31.524	18.0
31.538	22.0
31.553	16.0
31.568	12.0
31.583	18.0
31.597	13.0
31.612	8.0
31.627	18.0
31.641	9.0
31.656	11.0
31.671	8.0
31.685	7.0
31.7	7.0
31.715	9.0
31.729	8.0
31.744	11.0
31.759	14.0
31.774	9.0
31.788	10.0
31.803	11.0
31.818	12.0
31.832	15.0
31.847	4.0
31.862	12.0
31.876	13.0
31.891	13.0
31.906	11.0
31.92	8.0
31.935	9.0
31.95	8.0
31.965	6.0
31.979	17.0
31.994	8.0
32.009	9.0
32.023	15.0
32.038	12.0
32.053	14.0
32.067	11.0
32.082	12.0
32.097	12.0
32.112	16.0
32.126	10.0
32.141	13.0
32.156	8.0
32.17	10.0
32.185	10.0
32.2	13.0
32.214	7.0
32.229	9.0
32.244	15.0
32.259	13.0
32.273	14.0
32.288	12.0
32.303	12.0
32.317	12.0
32.332	13.0
32.347	6.0
32.362	7.0
32.376	11.0
32.391	7.0
32.406	7.0
32.42	12.0
32.435	8.0
32.45	12.0
32.465	10.0
32.479	10.0
32.494	11.0
32.509	10.0
32.523	14.0
32.538	11.0
32.553	12.0
32.568	12.0
32.582	11.0
32.597	9.0
32.612	15.0
32.627	6.0
32.641	17.0
32.656	11.0
32.671	15.0
32.685	15.0
32.7	19.0
32.715	21.0
32.73	16.0
32.744	12.0
32.759	22.0
32.774	24.0
32.788	30.0
32.803	34.0
32.818	25.0
32.833	23.0
32.847	27.0
32.862	21.0
32.877	18.0
32.892	23.0
32.906	27.0
32.921	20.0
32.936	21.0
32.951	28.0
32.965	17.0
32.98	17.0
32.995	20.0
33.009	24.0
33.024	18.0
33.039	18.0
33.054	14.0
33.068	15.0
33.083	16.0
33.098	9.0
33.113	17.0
33.127	6.0
33.142	8.0
33.157	8.0
33.172	7.0
33.186	9.0
33.201	4.0
33.216	4.0
33.231	9.0
33.245	3.0
33.26	12.0
33.275	9.0
33.29	21.0
33.304	8.0
33.319	7.0
33.334	11.0
33.349	19.0
33.363	11.0
33.378	14.0
33.393	6.0
33.408	8.0
33.422	12.0
33.437	10.0
33.452	8.0
33.467	13.0
33.481	10.0
33.496	7.0
33.511	16.0
33.526	9.0
33.54	13.0
33.555	6.0
33.57	4.0
33.585	12.0
33.599	8.0
33.614	15.0
33.629	12.0
33.644	13.0
33.658	10.0
33.673	6.0
33.688	11.0
33.703	11.0
33.718	8.0
33.732	14.0
33.747	12.0
33.762	8.0
33.777	7.0
33.791	7.0
33.806	5.0
33.821	10.0
33.836	6.0
33.85	11.0
33.865	12.0
33.88	9.0
33.895	11.0
33.91	11.0
33.924	8.0
33.939	7.0
33.954	12.0
33.969	9.0
33.983	7.0
33.998	12.0
34.013	9.0
34.028	6.0
34.042	11.0
34.057	13.0
34.072	13.0
34.087	6.0
34.102	14.0
34.116	11.0
34.131	7.0
34.146	17.0
34.161	9.0
34.175	9.0
34.19	19.0
34.205	12.0
34.22	17.0
34.235	9.0
34.249	7.0
34.264	14.0
34.279	14.0
34.294	19.0
34.309	19.0
34.323	14.0
34.338	17.0
34.353	15.0
34.368	8.0
34.382	14.0
34.397	16.0
34.412	16.0
34.427	12.0
34.442	14.0
34.456	15.0
34.471	17.0
34.486	11.0
34.501	18.0
34.516	7.0
34.53	9.0
34.545	11.0
34.56	12.0
34.575	16.0
34.59	9.0
34.604	15.0
34.619	9.0
34.634	8.0
34.649	11.0
34.664	8.0
34.678	9.0
34.693	17.0
34.708	10.0
34.723	10.0
34.738	9.0
34.752	7.0
34.767	6.0
34.782	11.0
34.797	18.0
34.812	14.0
34.826	11.0
34.841	8.0
34.856	6.0
34.871	5.0
34.886	12.0
34.9	13.0
34.915	7.0
34.93	3.0
34.945	5.0
34.96	8.0
34.974	5.0
34.989	11.0
35.004	8.0
35.019	11.0
35.034	11.0
35.048	9.0
35.063	14.0
35.078	7.0
35.093	8.0
35.108	16.0
35.122	14.0
35.137	4.0
35.152	7.0
35.167	10.0
35.182	7.0
35.196	4.0
35.211	5.0
35.226	4.0
35.241	7.0
35.256	8.0
35.27	7.0
35.285	9.0
35.3	4.0
35.315	6.0
35.33	7.0
35.344	9.0
35.359	7.0
35.374	4.0
35.389	15.0
35.404	6.0
35.418	8.0
35.433	9.0
35.448	8.0
35.463	7.0
35.478	6.0
35.493	9.0
35.507	7.0
35.522	7.0
35.537	6.0
35.552	4.0
35.567	8.0
35.581	7.0
35.596	10.0
35.611	13.0
35.626	16.0
35.641	12.0
35.655	11.0
35.67	22.0
35.685	13.0
35.7	14.0
35.715	13.0
35.729	17.0
35.744	14.0
35.759	17.0
35.774	25.0
35.789	17.0
35.804	24.0
35.818	17.0
35.833	18.0
35.848	12.0
35.863	14.0
35.878	20.0
35.892	11.0
35.907	11.0
35.922	8.0
35.937	7.0
35.952	13.0
35.966	11.0
35.981	12.0
35.996	12.0
36.011	10.0
36.026	17.0
36.04	15.0
36.055	15.0
36.07	12.0
36.085	13.0
36.1	10.0
36.114	19.0
36.129	6.0
36.144	13.0
36.159	11.0
36.174	5.0
36.189	10.0
36.203	9.0
36.218	10.0
36.233	8.0
36.248	9.0
36.263	11.0
36.277	4.0
36.292	5.0
36.307	6.0
36.322	11.0
36.337	8.0
36.351	7.0
36.366	8.0
36.381	9.0
36.396	8.0
36.411	12.0
36.426	7.0
36.44	7.0
36.455	7.0
36.47	12.0
36.485	11.0
36.5	9.0
36.514	6.0
36.529	9.0
36.544	3.0
36.559	9.0
36.574	6.0
36.589	10.0
36.603	13.0
36.618	10.0
36.633	10.0
36.648	8.0
36.663	9.0
36.677	8.0
36.692	8.0
36.707	8.0
36.722	7.0
36.737	7.0
36.752	10.0
36.766	12.0
36.781	8.0
36.796	6.0
36.811	11.0
36.826	1.0
36.841	9.0
36.855	8.0
36.87	10.0
36.885	9.0
36.9	9.0
36.915	10.0
36.93	6.0
36.944	8.0
36.959	8.0
36.974	7.0
36.989	11.0
37.004	6.0
37.019	4.0
37.033	14.0
37.048	9.0
37.063	19.0
37.078	9.0
37.093	18.0
37.108	24.0
37.123	25.0
37.137	15.0
37.152	25.0
37.167	37.0
37.182	30.0
37.197	26.0
37.212	30.0
37.226	26.0
37.241	25.0
37.256	31.0
37.271	18.0
37.286	20.0
37.301	13.0
37.316	21.0
37.331	19.0
37.345	10.0
37.36	9.0
37.375	25.0
37.39	21.0
37.405	23.0
37.42	19.0
37.435	24.0
37.45	18.0
37.464	15.0
37.479	8.0
37.494	13.0
37.509	10.0
37.524	13.0
37.539	10.0
37.554	9.0
37.569	6.0
37.583	5.0
37.598	8.0
37.613	9.0
37.628	4.0
37.643	8.0
37.658	10.0
37.673	3.0
37.688	13.0
37.703	8.0
37.718	10.0
37.733	7.0
37.747	6.0
37.762	10.0
37.777	5.0
37.792	3.0
37.807	4.0
37.822	11.0
37.837	10.0
37.852	5.0
37.867	11.0
37.882	7.0
37.897	2.0
37.912	8.0
37.927	7.0
37.941	5.0
37.956	6.0
37.971	13.0
37.986	6.0
38.001	3.0
38.016	4.0
38.031	6.0
38.046	10.0
38.061	11.0
38.076	8.0
38.091	6.0
38.106	8.0
38.121	10.0
38.136	13.0
38.151	10.0
38.166	9.0
38.181	8.0
38.196	7.0
38.211	9.0
38.226	9.0
38.241	3.0
38.256	6.0
38.271	5.0
38.285	7.0
38.3	5.0
38.315	9.0
38.33	7.0
38.345	4.0
38.36	7.0
38.375	4.0
38.39	6.0
38.405	2.0
38.42	6.0
38.435	5.0
38.45	7.0
38.465	4.0
38.48	6.0
38.495	14.0
38.51	6.0
38.525	3.0
38.54	7.0
38.555	6.0
38.57	3.0
38.585	8.0
38.6	5.0
38.615	7.0
38.63	12.0
38.645	6.0
38.66	3.0
38.675	8.0
38.69	4.0
38.705	5.0
38.72	4.0
38.735	10.0
38.75	7.0
38.765	7.0
38.78	3.0
38.795	6.0
38.81	11.0
38.825	5.0
38.84	5.0
38.855	8.0
38.87	2.0
38.885	8.0
38.9	4.0
38.915	7.0
38.93	3.0
38.945	6.0
38.96	5.0
38.975	8.0
38.99	5.0
39.005	6.0
39.02	8.0
39.035	7.0
39.05	6.0
39.065	8.0
39.08	8.0
39.095	7.0
39.11	7.0
39.125	7.0
39.14	5.0
39.155	7.0
39.17	6.0
39.185	6.0
39.2	10.0
39.215	1.0
39.23	8.0
39.245	10.0
39.26	7.0
39.275	4.0
39.29	8.0
39.305	7.0
39.32	1.0
39.335	5.0
39.35	3.0
39.365	5.0
39.38	1.0
39.395	6.0
39.409	4.0
39.424	9.0
39.439	6.0
39.454	8.0
39.469	5.0
39.484	2.0
39.499	8.0
39.514	4.0
39.529	4.0
39.544	6.0
39.559	2.0
39.574	6.0
39.589	4.0
39.604	3.0
39.619	3.0
39.634	7.0
39.649	7.0
39.664	5.0
39.678	5.0
39.693	6.0
39.708	3.0
39.723	7.0
39.738	13.0
39.753	6.0
39.768	6.0
39.783	5.0
39.798	8.0
39.813	6.0
39.827	8.0
39.842	15.0
39.857	7.0
39.872	12.0
39.887	5.0
39.902	7.0
39.917	3.0
39.932	9.0
39.947	5.0
39.961	12.0
39.976	4.0
39.991	11.0
40.006	4.0
40.021	5.0
40.036	6.0
40.051	8.0
40.065	7.0
40.08	5.0
40.095	6.0
40.11	4.0
40.125	11.0
40.14	7.0
40.154	8.0
40.169	4.0
40.184	4.0
40.199	3.0
40.214	2.0
40.228	5.0
40.243	9.0
40.258	3.0
40.273	4.0
40.288	6.0
40.302	9.0
40.317	4.0
40.332	3.0
40.347	6.0
40.362	5.0
40.376	4.0
40.391	7.0
40.406	3.0
40.421	5.0
40.436	4.0
40.45	7.0
40.465	6.0
40.48	9.0
40.495	8.0
40.509	6.0
40.524	7.0
40.539	6.0
40.554	7.0
40.568	5.0
40.583	10.0
40.598	8.0
40.613	5.0
40.627	7.0
40.642	7.0
40.657	3.0
40.672	6.0
40.686	9.0
40.701	4.0
40.716	4.0
40.731	3.0
40.745	9.0
40.76	8.0
40.775	7.0
40.79	14.0
40.804	9.0
40.819	8.0
40.834	4.0
40.849	9.0
40.863	7.0
40.878	10.0
40.893	6.0
40.907	5.0
40.922	4.0
40.937	11.0
40.952	9.0
40.966	7.0
40.981	3.0
40.996	11.0
41.011	12.0
41.025	11.0
41.04	10.0
41.055	15.0
41.069	16.0
41.084	17.0
41.099	21.0
41.114	14.0
41.128	25.0
41.143	24.0
41.158	22.0
41.173	12.0
41.187	24.0
41.202	16.0
41.217	15.0
41.231	14.0
41.246	10.0
41.261	15.0
41.276	7.0
41.29	18.0
41.305	11.0
41.32	6.0
41.335	13.0
41.349	7.0
41.364	11.0
41.379	15.0
41.393	18.0
41.408	16.0
41.423	20.0
41.438	11.0
41.452	11.0
41.467	13.0
41.482	9.0
41.497	7.0
41.511	7.0
41.526	10.0
41.541	6.0
41.556	7.0
41.57	10.0
41.585	5.0
41.6	8.0
41.615	4.0
41.629	7.0
41.644	13.0
41.659	5.0
41.674	3.0
41.688	6.0
41.703	7.0
41.718	3.0
41.733	7.0
41.747	9.0
41.762	6.0
41.777	5.0
41.792	2.0
41.806	3.0
41.821	6.0
41.836	11.0
41.851	3.0
41.866	6.0
41.88	5.0
41.895	4.0
41.91	5.0
41.925	7.0
41.939	9.0
41.954	6.0
41.969	5.0
41.984	5.0
41.999	4.0
42.013	6.0
42.028	6.0
42.043	5.0
42.058	6.0
42.073	9.0
42.088	10.0
42.102	5.0
42.117	8.0
42.132	7.0
42.147	9.0
42.162	7.0
42.176	6.0
42.191	5.0
42.206	4.0
42.221	15.0
42.236	7.0
42.251	8.0
42.266	9.0
42.28	5.0
42.295	12.0
42.31	10.0
42.325	14.0
42.34	13.0
42.355	15.0
42.369	15.0
42.384	11.0
42.399	11.0
42.414	14.0
42.429	21.0
42.444	13.0
42.459	13.0
42.474	12.0
42.488	8.0
42.503	11.0
42.518	8.0
42.533	8.0
42.548	8.0
42.563	6.0
42.578	14.0
42.593	12.0
42.608	13.0
42.622	10.0
42.637	13.0
42.652	15.0
42.667	12.0
42.682	13.0
42.697	7.0
42.712	11.0
42.727	13.0
42.742	9.0
42.757	8.0
42.772	9.0
42.786	9.0
42.801	7.0
42.816	6.0
42.831	14.0
42.846	6.0
42.861	6.0
42.876	7.0
42.891	5.0
42.906	4.0
42.921	4.0
42.936	4.0
42.951	3.0
42.966	3.0
42.981	6.0
42.996	6.0
43.011	10.0
43.025	14.0
43.04	1.0
43.055	6.0
43.07	5.0
43.085	7.0
43.1	4.0
43.115	7.0
43.13	5.0
43.145	10.0
43.16	11.0
43.175	4.0
43.19	4.0
43.205	4.0
43.22	6.0
43.235	8.0
43.25	5.0
43.265	1.0
43.28	5.0
43.295	4.0
43.31	8.0
43.325	10.0
43.34	7.0
43.355	8.0
43.37	4.0
43.385	3.0
43.4	6.0
43.415	5.0
43.43	9.0
43.445	7.0
43.46	7.0
43.475	4.0
43.49	8.0
43.505	6.0
43.52	10.0
43.535	6.0
43.55	7.0
43.565	13.0
43.58	9.0
43.595	6.0
43.61	9.0
43.625	9.0
43.64	16.0
43.655	12.0
43.67	17.0
43.685	13.0
43.7	8.0
43.715	9.0
43.73	7.0
43.745	15.0
43.76	4.0
43.775	9.0
43.79	3.0
43.805	5.0
43.82	5.0
43.835	8.0
43.85	9.0
43.865	5.0
43.88	9.0
43.895	4.0
43.91	6.0
43.925	7.0
43.94	9.0
43.955	3.0
43.97	2.0
43.985	6.0
44.0	3.0
44.015	5.0
44.03	8.0
44.045	5.0
44.061	6.0
44.076	1.0
44.091	5.0
44.106	6.0
44.121	3.0
44.136	5.0
44.151	9.0
44.166	3.0
44.181	5.0
44.196	3.0
44.211	3.0
44.226	2.0
44.241	6.0
44.256	10.0
44.271	0.0
44.286	2.0
44.301	4.0
44.316	3.0
44.331	2.0
44.346	10.0
44.361	3.0
44.377	4.0
44.392	5.0
44.407	2.0
44.422	5.0
44.437	6.0
44.452	3.0
44.467	6.0
44.482	7.0
44.497	2.0
44.512	8.0
44.527	6.0
44.542	7.0
44.557	12.0
44.572	4.0
44.587	4.0
44.602	6.0
44.617	6.0
44.632	7.0
44.647	12.0
44.663	5.0
44.678	9.0
44.693	7.0
44.708	6.0
44.723	4.0
44.738	10.0
44.753	6.0
44.768	6.0
44.783	15.0
44.798	7.0
44.813	5.0
44.828	14.0
44.843	5.0
44.858	15.0
44.873	8.0
44.888	13.0
44.903	9.0
44.918	11.0
44.933	6.0
44.948	7.0
44.964	8.0
44.979	7.0
44.994	9.0
45.009	10.0
45.024	12.0
45.039	7.0
45.054	9.0
45.069	6.0
45.084	7.0
45.099	10.0
45.114	6.0
45.129	3.0
45.144	9.0
45.159	10.0
45.174	7.0
45.189	9.0
45.204	7.0
45.219	4.0
45.234	11.0
45.249	5.0
45.264	10.0
45.279	4.0
45.294	6.0
45.309	5.0
45.324	4.0
45.339	2.0
45.354	6.0
45.369	8.0
45.384	4.0
45.399	1.0
45.414	4.0
45.429	3.0
45.444	2.0
45.459	10.0
45.474	7.0
45.489	5.0
45.504	7.0
45.519	5.0
45.534	3.0
45.549	3.0
45.564	2.0
45.579	6.0
45.594	5.0
45.609	1.0
45.624	5.0
45.639	5.0
45.654	4.0
45.669	4.0
45.684	6.0
45.699	5.0
45.714	14.0
45.729	7.0
45.744	8.0
45.759	8.0
45.774	10.0
45.789	6.0
45.804	8.0
45.819	4.0
45.834	7.0
45.849	10.0
45.864	11.0
45.879	10.0
45.894	11.0
45.909	9.0
45.924	14.0
45.939	17.0
45.954	14.0
45.969	19.0
45.984	15.0
45.998	13.0
46.013	18.0
46.028	17.0
46.043	12.0
46.058	14.0
46.073	14.0
46.088	16.0
46.103	14.0
46.118	12.0
46.133	7.0
46.148	9.0
46.163	9.0
46.178	10.0
46.192	7.0
46.207	8.0
46.222	11.0
46.237	6.0
46.252	11.0
46.267	12.0
46.282	11.0
46.297	6.0
46.312	6.0
46.327	9.0
46.341	11.0
46.356	6.0
46.371	9.0
46.386	4.0
46.401	6.0
46.416	5.0
46.431	10.0
46.446	4.0
46.46	4.0
46.475	6.0
46.49	7.0
46.505	5.0
46.52	8.0
46.535	2.0
46.55	5.0
46.564	9.0
46.579	3.0
46.594	5.0
46.609	5.0
46.624	2.0
46.639	6.0
46.654	3.0
46.668	7.0
46.683	4.0
46.698	4.0
46.713	7.0
46.728	3.0
46.743	4.0
46.758	5.0
46.772	5.0
46.787	6.0
46.802	5.0
46.817	3.0
46.832	7.0
46.847	5.0
46.861	6.0
46.876	7.0
46.891	1.0
46.906	1.0
46.921	6.0
46.936	5.0
46.95	4.0
46.965	9.0
46.98	4.0
46.995	9.0
47.01	9.0
47.025	10.0
47.039	6.0
47.054	5.0
47.069	8.0
47.084	11.0
47.099	8.0
47.113	7.0
47.128	6.0
47.143	7.0
47.158	7.0
47.173	12.0
47.188	7.0
47.202	6.0
47.217	12.0
47.232	5.0
47.247	3.0
47.262	7.0
47.277	1.0
47.291	5.0
47.306	7.0
47.321	7.0
47.336	5.0
47.351	7.0
47.365	8.0
47.38	9.0
47.395	6.0
47.41	8.0
47.425	8.0
47.44	7.0
47.454	9.0
47.469	8.0
47.484	5.0
47.499	8.0
47.514	7.0
47.528	12.0
47.543	1.0
47.558	7.0
47.573	5.0
47.588	4.0
47.603	5.0
47.617	5.0
47.632	8.0
47.647	6.0
47.662	1.0
47.677	8.0
47.691	6.0
47.706	7.0
47.721	2.0
47.736	1.0
47.751	2.0
47.766	7.0
47.78	8.0
47.795	6.0
47.81	3.0
47.825	6.0
47.84	10.0
47.855	7.0
47.869	3.0
47.884	5.0
47.899	5.0
47.914	2.0
47.929	4.0
47.944	0.0
47.958	5.0
47.973	2.0
47.988	6.0
48.003	5.0
48.018	5.0
48.033	3.0
48.047	8.0
48.062	5.0
48.077	3.0
48.092	5.0
48.107	6.0
48.122	5.0
48.137	9.0
48.151	5.0
48.166	3.0
48.181	2.0
48.196	5.0
48.211	9.0
48.226	10.0
48.241	3.0
48.255	3.0
48.27	6.0
48.285	4.0
48.3	5.0
48.315	4.0
48.33	8.0
48.345	5.0
48.359	6.0
48.374	3.0
48.389	2.0
48.404	9.0
48.419	7.0
48.434	2.0
48.449	3.0
48.464	4.0
48.478	4.0
48.493	7.0
48.508	3.0
48.523	5.0
48.538	4.0
48.553	3.0
48.568	1.0
48.583	4.0
48.597	3.0
48.612	7.0
48.627	2.0
48.642	7.0
48.657	3.0
48.672	4.0
48.687	5.0
48.702	5.0
48.717	1.0
48.731	2.0
48.746	5.0
48.761	3.0
48.776	9.0
48.791	2.0
48.806	6.0
48.821	7.0
48.836	3.0
48.851	4.0
48.866	8.0
48.88	6.0
48.895	1.0
48.91	6.0
48.925	6.0
48.94	3.0
48.955	8.0
48.97	9.0
48.985	5.0
49.0	5.0
49.015	4.0
49.03	2.0
49.044	2.0
49.059	4.0
49.074	3.0
49.089	3.0
49.104	5.0
49.119	3.0
49.134	9.0
49.149	5.0
49.164	8.0
49.179	6.0
49.194	7.0
49.209	3.0
49.224	2.0
49.238	4.0
49.253	3.0
49.268	3.0
49.283	4.0
49.298	4.0
49.313	10.0
49.328	10.0
49.343	8.0
49.358	9.0
49.373	4.0
49.388	7.0
49.403	2.0
49.418	8.0
49.433	10.0
49.448	10.0
49.463	5.0
49.478	4.0
49.492	4.0
49.507	5.0
49.522	8.0
49.537	4.0
49.552	7.0
49.567	7.0
49.582	5.0
49.597	6.0
49.612	8.0
49.627	7.0
49.642	5.0
49.657	6.0
49.672	6.0
49.687	4.0
49.702	7.0
49.717	8.0
49.732	3.0
49.747	6.0
49.762	7.0
49.777	6.0
49.792	4.0
49.807	3.0
49.822	6.0
49.837	7.0
49.852	3.0
49.867	11.0
49.882	4.0
49.897	2.0
49.912	4.0
49.927	3.0
49.942	2.0
49.957	4.0
49.971	2.0
49.986	6.0
50.001	6.0
50.016	4.0
50.031	6.0
50.046	6.0
50.061	6.0
50.076	8.0
50.091	8.0
50.106	8.0
50.121	6.0
50.136	3.0
50.151	2.0
50.166	4.0
50.181	3.0
50.196	8.0
50.211	6.0
50.226	2.0
50.241	9.0
50.256	4.0
50.271	4.0
50.286	6.0
50.302	2.0
50.317	3.0
50.332	8.0
50.347	7.0
50.362	7.0
50.377	11.0
50.392	4.0
50.407	6.0
50.422	10.0
50.437	3.0
50.452	8.0
50.467	7.0
50.482	11.0
50.497	7.0
50.512	10.0
50.527	5.0
50.542	7.0
50.557	7.0
50.572	6.0
50.587	4.0
50.602	6.0
50.617	3.0
50.632	5.0
50.647	5.0
50.662	6.0
50.677	5.0
50.692	7.0
50.707	7.0
50.722	5.0
50.737	4.0
50.752	4.0
50.767	5.0
50.782	6.0
50.797	6.0
50.812	5.0
50.828	0.0
50.843	6.0
50.858	6.0
50.873	9.0
50.888	4.0
50.903	9.0
50.918	7.0
50.933	7.0
50.948	1.0
50.963	6.0
50.978	4.0
50.993	8.0
51.008	8.0
51.023	4.0
51.038	6.0
51.053	10.0
51.068	3.0
51.083	4.0
51.098	4.0
51.114	6.0
51.129	4.0
51.144	5.0
51.159	8.0
51.174	9.0
51.189	7.0
51.204	4.0
51.219	5.0
51.234	7.0
51.249	9.0
51.264	4.0
51.279	3.0
51.294	7.0
51.309	6.0
51.324	4.0
51.34	8.0
51.355	5.0
51.37	2.0
51.385	11.0
51.4	13.0
51.415	9.0
51.43	8.0
51.445	4.0
51.46	10.0
51.475	16.0
51.49	11.0
51.505	14.0
51.52	10.0
51.535	19.0
51.551	7.0
51.566	16.0
51.581	13.0
51.596	11.0
51.611	10.0
51.626	8.0
51.641	8.0
51.656	7.0
51.671	8.0
51.686	6.0
51.701	6.0
51.716	3.0
51.732	6.0
51.747	3.0
51.762	9.0
51.777	11.0
51.792	10.0
51.807	10.0
51.822	6.0
51.837	14.0
51.852	10.0
51.867	5.0
51.882	9.0
51.898	7.0
51.913	9.0
51.928	10.0
51.943	7.0
51.958	12.0
51.973	5.0
51.988	8.0
52.003	4.0
52.018	5.0
52.033	2.0
52.048	7.0
52.064	5.0
52.079	3.0
52.094	2.0
52.109	6.0
52.124	3.0
52.139	6.0
52.154	3.0
52.169	4.0
52.184	5.0
52.199	4.0
52.215	5.0
52.23	6.0
52.245	8.0
52.26	9.0
52.275	3.0
52.29	5.0
52.305	0.0
52.32	3.0
52.335	5.0
52.35	3.0
52.366	7.0
52.381	5.0
52.396	1.0
52.411	7.0
52.426	2.0
52.441	5.0
52.456	9.0
52.471	7.0
52.486	7.0
52.502	8.0
52.517	6.0
52.532	5.0
52.547	12.0
52.562	10.0
52.577	8.0
52.592	12.0
52.607	10.0
52.622	8.0
52.637	8.0
52.653	7.0
52.668	4.0
52.683	10.0
52.698	3.0
52.713	7.0
52.728	4.0
52.743	7.0
52.758	7.0
52.774	9.0
52.789	1.0
52.804	5.0
52.819	7.0
52.834	5.0
52.849	8.0
52.864	6.0
52.879	13.0
52.894	8.0
52.91	9.0
52.925	7.0
52.94	6.0
52.955	6.0
52.97	7.0
52.985	6.0
53.0	6.0
53.015	9.0
53.031	5.0
53.046	2.0
53.061	6.0
53.076	0.0
53.091	3.0
53.106	4.0
53.121	4.0
53.136	7.0
53.152	3.0
53.167	2.0
53.182	2.0
53.197	2.0
53.212	4.0
53.227	4.0
53.242	7.0
53.257	4.0
53.273	3.0
53.288	6.0
53.303	3.0
53.318	4.0
53.333	6.0
53.348	1.0
53.363	8.0
53.379	5.0
53.394	4.0
53.409	7.0
53.424	2.0
53.439	7.0
53.454	4.0
53.469	5.0
53.484	3.0
53.5	6.0
53.515	4.0
53.53	5.0
53.545	3.0
53.56	1.0
53.575	6.0
53.59	3.0
53.606	10.0
53.621	5.0
53.636	8.0
53.651	5.0
53.666	4.0
53.681	7.0
53.696	5.0
53.712	4.0
53.727	7.0
53.742	4.0
53.757	6.0
53.772	6.0
53.787	1.0
53.802	4.0
53.818	1.0
53.833	4.0
53.848	3.0
53.863	5.0
53.878	6.0
53.893	0.0
53.909	5.0
53.924	2.0
53.939	1.0
53.954	4.0
53.969	10.0
53.984	3.0
53.999	5.0
54.015	5.0
54.03	9.0
54.045	8.0
54.06	9.0
54.075	7.0
54.09	7.0
54.106	7.0
54.121	1.0
54.136	9.0
54.151	6.0
54.166	3.0
54.181	6.0
54.197	3.0
54.212	5.0
54.227	6.0
54.242	6.0
54.257	5.0
54.272	7.0
54.288	5.0
54.303	4.0
54.318	6.0
54.333	8.0
54.348	3.0
54.363	6.0
54.379	9.0
54.394	4.0
54.409	8.0
54.424	2.0
54.439	6.0
54.454	5.0
54.47	8.0
54.485	7.0
54.5	5.0
54.515	7.0
54.53	6.0
54.545	9.0
54.561	6.0
54.576	10.0
54.591	11.0
54.606	4.0
54.621	10.0
54.636	12.0
54.652	16.0
54.667	12.0
54.682	14.0
54.697	11.0
54.712	8.0
54.727	14.0
54.743	13.0
54.758	3.0
54.773	5.0
54.788	4.0
54.803	4.0
54.819	3.0
54.834	4.0
54.849	8.0
54.864	3.0
54.879	10.0
54.894	7.0
54.91	8.0
54.925	8.0
54.94	7.0
54.955	10.0
54.97	9.0
54.985	13.0
55.001	10.0
55.016	5.0
55.031	7.0
55.046	9.0
55.061	8.0
55.077	8.0
55.092	2.0
55.107	3.0
55.122	5.0
55.137	10.0
55.152	10.0
55.168	7.0
55.183	9.0
55.198	4.0
55.213	3.0
55.228	1.0
55.243	5.0
55.259	3.0
55.274	8.0
55.289	4.0
55.304	3.0
55.319	6.0
55.335	7.0
55.35	4.0
55.365	5.0
55.38	8.0
55.395	3.0
55.41	1.0
55.426	6.0
55.441	4.0
55.456	5.0
55.471	6.0
55.486	6.0
55.501	7.0
55.517	5.0
55.532	4.0
55.547	5.0
55.562	4.0
55.577	5.0
55.592	7.0
55.608	5.0
55.623	6.0
55.638	7.0
55.653	5.0
55.668	6.0
55.683	3.0
55.699	8.0
55.714	8.0
55.729	6.0
55.744	9.0
55.759	3.0
55.774	7.0
55.79	2.0
55.805	4.0
55.82	1.0
55.835	3.0
55.85	3.0
55.865	3.0
55.881	9.0
55.896	6.0
55.911	3.0
55.926	3.0
55.941	4.0
55.956	4.0
55.972	4.0
55.987	11.0
56.002	7.0
56.017	6.0
56.032	8.0
56.047	8.0
56.063	7.0
56.078	4.0
56.093	4.0
56.108	5.0
56.123	9.0
56.138	6.0
56.154	9.0
56.169	3.0
56.184	6.0
56.199	5.0
56.214	3.0
56.229	9.0
56.244	5.0
56.26	2.0
56.275	4.0
56.29	4.0
56.305	4.0
56.32	4.0
56.335	4.0
56.351	2.0
56.366	5.0
56.381	8.0
56.396	6.0
56.411	4.0
56.426	6.0
56.441	2.0
56.457	3.0
56.472	4.0
56.487	8.0
56.502	10.0
56.517	7.0
56.532	6.0
56.547	4.0
56.563	0.0
56.578	2.0
56.593	6.0
56.608	2.0
56.623	4.0
56.638	2.0
56.653	4.0
56.668	1.0
56.684	5.0
56.699	3.0
56.714	10.0
56.729	7.0
56.744	4.0
56.759	6.0
56.774	1.0
56.79	5.0
56.805	4.0
56.82	8.0
56.835	2.0
56.85	5.0
56.865	2.0
56.88	4.0
56.895	2.0
56.911	3.0
56.926	5.0
56.941	4.0
56.956	6.0
56.971	1.0
56.986	4.0
57.001	4.0
57.016	4.0
57.031	3.0
57.047	5.0
57.062	2.0
57.077	3.0
57.092	4.0
57.107	6.0
57.122	4.0
57.137	6.0
57.152	7.0
57.167	6.0
57.183	3.0
57.198	3.0
57.213	5.0
57.228	6.0
57.243	3.0
57.258	7.0
57.273	6.0
57.288	5.0
57.303	7.0
57.318	2.0
57.334	2.0
57.349	6.0
57.364	5.0
57.379	4.0
57.394	4.0
57.409	2.0
57.424	4.0
57.439	5.0
57.454	3.0
57.469	6.0
57.484	2.0
57.5	7.0
57.515	2.0
57.53	3.0
57.545	3.0
57.56	6.0
57.575	4.0
57.59	5.0
57.605	1.0
57.62	5.0
57.635	5.0
57.65	8.0
57.665	6.0
57.68	3.0
57.696	6.0
57.711	9.0
57.726	3.0
57.741	3.0
57.756	4.0
57.771	5.0
57.786	4.0
57.801	7.0
57.816	3.0
57.831	1.0
57.846	5.0
57.861	5.0
57.876	6.0
57.891	2.0
57.906	6.0
57.921	9.0
57.937	3.0
57.952	10.0
57.967	4.0
57.982	5.0
57.997	4.0
58.012	8.0
58.027	5.0
58.042	6.0
58.057	8.0
58.072	3.0
58.087	8.0
58.102	9.0
58.117	3.0
58.132	7.0
58.147	5.0
58.162	4.0
58.177	2.0
58.192	2.0
58.207	0.0
58.222	4.0
58.237	4.0
58.252	3.0
58.267	5.0
58.282	6.0
58.297	2.0
58.312	7.0
58.327	4.0
58.342	4.0
58.357	3.0
58.372	7.0
58.387	4.0
58.402	6.0
58.418	3.0
58.433	4.0
58.448	1.0
58.463	5.0
58.478	5.0
58.493	1.0
58.508	3.0
58.523	5.0
58.538	9.0
58.553	4.0
58.568	4.0
58.583	8.0
58.598	12.0
58.613	4.0
58.628	8.0
58.643	10.0
58.658	12.0
58.673	7.0
58.688	6.0
58.703	9.0
58.718	1.0
58.733	6.0
58.748	7.0
58.763	6.0
58.778	1.0
58.793	7.0
58.808	3.0
58.823	4.0
58.838	3.0
58.853	7.0
58.868	5.0
58.883	6.0
58.898	8.0
58.913	4.0
58.928	2.0
58.942	4.0
58.957	3.0
58.972	4.0
58.987	5.0
59.002	8.0
59.017	9.0
59.032	4.0
59.047	3.0
59.062	8.0
59.077	5.0
59.092	7.0
59.107	4.0
59.122	8.0
59.137	5.0
59.152	3.0
59.167	3.0
59.182	5.0
59.197	7.0
59.212	6.0
59.227	6.0
59.242	6.0
59.257	4.0
59.272	0.0
59.287	6.0
59.302	4.0
59.317	6.0
59.332	3.0
59.347	4.0
59.362	10.0
59.377	4.0
59.392	9.0
59.407	5.0
59.422	6.0
59.437	5.0
59.452	3.0
59.467	9.0
59.482	5.0
59.497	4.0
59.512	5.0
59.527	5.0
59.542	5.0
59.557	6.0
59.572	8.0
59.587	11.0
59.602	11.0
59.617	9.0
59.632	7.0
59.647	12.0
59.661	4.0
59.676	6.0
59.691	8.0
59.706	7.0
59.721	5.0
59.736	9.0
59.751	3.0
59.766	6.0
59.781	5.0
59.796	3.0
59.811	5.0
59.826	3.0
59.841	2.0
59.856	9.0
59.871	5.0
59.886	4.0
59.901	4.0
59.916	3.0
59.931	5.0
59.946	6.0
59.961	6.0
59.976	7.0
59.991	6.0
60.006	11.0
60.021	9.0
60.036	1.0
60.051	4.0
60.066	7.0
60.081	3.0
60.096	3.0
60.111	10.0
60.126	6.0
60.141	3.0
60.156	7.0
60.171	5.0
60.186	4.0
60.201	3.0
60.216	8.0
60.231	8.0
60.246	5.0
60.261	1.0
60.276	2.0
60.291	1.0
60.306	5.0
60.321	5.0
60.336	3.0
60.35	6.0
60.365	3.0
60.38	5.0
60.395	5.0
60.41	3.0
60.425	1.0
60.44	7.0
60.455	5.0
60.47	6.0
60.485	5.0
60.5	5.0
60.515	4.0
60.53	6.0
60.545	6.0
60.56	9.0
60.575	6.0
60.59	11.0
60.605	9.0
60.62	3.0
60.635	6.0
60.65	6.0
60.665	5.0
60.68	5.0
60.695	7.0
60.71	1.0
60.725	5.0
60.74	3.0
60.755	3.0
60.77	2.0
60.785	7.0
60.8	1.0
60.815	3.0
60.83	5.0
60.845	4.0
60.86	1.0
60.875	5.0
60.89	5.0
60.905	3.0
60.92	7.0
60.935	9.0
60.95	2.0
60.965	4.0
60.98	11.0
60.995	10.0
61.01	1.0
61.025	5.0
61.04	2.0
61.055	4.0
61.07	5.0
61.085	9.0
61.1	3.0
61.115	4.0
61.13	6.0
61.145	3.0
61.16	3.0
61.175	4.0
61.191	5.0
61.206	4.0
61.221	6.0
61.236	0.0
61.251	3.0
61.266	3.0
61.281	6.0
61.296	3.0
61.311	1.0
61.326	3.0
61.341	8.0
61.356	3.0
61.371	3.0
61.386	3.0
61.401	2.0
61.416	2.0
61.431	2.0
61.446	5.0
61.461	3.0
61.476	8.0
61.491	5.0
61.506	8.0
61.521	6.0
61.536	2.0
61.551	11.0
61.566	8.0
61.581	7.0
61.596	5.0
61.611	6.0
61.626	9.0
61.641	4.0
61.656	3.0
61.672	3.0
61.687	5.0
61.702	4.0
61.717	4.0
61.732	3.0
61.747	2.0
61.762	3.0
61.777	5.0
61.792	4.0
61.807	3.0
61.822	4.0
61.837	3.0
61.852	3.0
61.867	5.0
61.882	5.0
61.897	8.0
61.912	6.0
61.927	5.0
61.943	6.0
61.958	5.0
61.973	5.0
61.988	3.0
62.003	4.0
62.018	6.0
62.033	6.0
62.048	6.0
62.063	7.0
62.078	7.0
62.093	7.0
62.108	2.0
62.123	4.0
62.138	5.0
62.153	5.0
62.169	4.0
62.184	3.0
62.199	3.0
62.214	3.0
62.229	1.0
62.244	2.0
62.259	4.0
62.274	5.0
62.289	3.0
62.304	5.0
62.319	6.0
62.335	4.0
62.35	2.0
62.365	4.0
62.38	1.0
62.395	4.0
62.41	3.0
62.425	6.0
62.44	6.0
62.455	6.0
62.47	4.0
62.485	5.0
62.501	3.0
62.516	3.0
62.531	2.0
62.546	5.0
62.561	8.0
62.576	6.0
62.591	0.0
62.606	2.0
62.621	5.0
62.636	7.0
62.652	3.0
62.667	5.0
62.682	5.0
62.697	1.0
62.712	3.0
62.727	4.0
62.742	7.0
62.757	8.0
62.772	3.0
62.787	3.0
62.803	7.0
62.818	3.0
62.833	8.0
62.848	4.0
62.863	6.0
62.878	3.0
62.893	3.0
62.908	4.0
62.923	4.0
62.939	1.0
62.954	6.0
62.969	5.0
62.984	1.0
62.999	10.0
63.014	0.0
63.029	3.0
63.044	5.0
63.059	4.0
63.074	2.0
63.09	2.0
63.105	3.0
63.12	5.0
63.135	5.0
63.15	8.0
63.165	2.0
63.18	2.0
63.195	7.0
63.21	2.0
63.226	4.0
63.241	1.0
63.256	5.0
63.271	4.0
63.286	6.0
63.301	5.0
63.316	5.0
63.331	12.0
63.346	6.0
63.362	3.0
63.377	3.0
63.392	11.0
63.407	4.0
63.422	6.0
63.437	4.0
63.452	6.0
63.467	8.0
63.482	8.0
63.497	8.0
63.513	6.0
63.528	8.0
63.543	4.0
63.558	7.0
63.573	4.0
63.588	2.0
63.603	2.0
63.618	5.0
63.633	1.0
63.648	5.0
63.664	3.0
63.679	4.0
63.694	3.0
63.709	4.0
63.724	6.0
63.739	1.0
63.754	5.0
63.769	9.0
63.784	2.0
63.799	0.0
63.814	3.0
63.83	4.0
63.845	8.0
63.86	5.0
63.875	8.0
63.89	6.0
63.905	4.0
63.92	3.0
63.935	3.0
63.95	4.0
63.965	4.0
63.98	5.0
63.996	3.0
64.011	7.0
64.026	2.0
64.041	4.0
64.056	8.0
64.071	8.0
64.086	5.0
64.101	6.0
64.116	2.0
64.131	1.0
64.146	4.0
64.161	8.0
64.176	3.0
64.191	4.0
64.207	3.0
64.222	4.0
64.237	5.0
64.252	12.0
64.267	3.0
64.282	4.0
64.297	5.0
64.312	2.0
64.327	3.0
64.342	2.0
64.357	2.0
64.372	3.0
64.387	4.0
64.402	3.0
64.417	6.0
64.433	6.0
64.448	2.0
64.463	3.0
64.478	5.0
64.493	4.0
64.508	3.0
64.523	6.0
64.538	5.0
64.553	6.0
64.568	4.0
64.583	4.0
64.598	4.0
64.613	0.0
64.628	2.0
64.643	6.0
64.658	4.0
64.673	2.0
64.688	4.0
64.703	1.0
64.718	2.0
64.734	0.0
64.749	1.0
64.764	3.0
64.779	4.0
64.794	3.0
64.809	5.0
64.824	5.0
64.839	8.0
64.854	7.0
64.869	5.0
64.884	3.0
64.899	6.0
64.914	2.0
64.929	6.0
64.944	3.0
64.959	3.0
64.974	2.0
64.989	6.0
65.004	3.0
65.019	10.0
65.034	3.0
65.049	5.0
65.064	2.0
65.079	6.0
65.094	3.0
65.109	2.0
65.125	6.0
65.14	3.0
65.155	4.0
65.17	2.0
65.185	2.0
65.2	3.0
65.215	4.0
65.23	2.0
65.245	1.0
65.26	7.0
65.275	1.0
65.29	7.0
65.305	5.0
65.32	1.0
65.335	4.0
65.35	4.0
65.365	3.0
65.38	1.0
65.395	4.0
65.41	7.0
65.425	3.0
65.44	8.0
65.455	3.0
65.47	2.0
65.485	1.0
65.5	2.0
65.515	6.0
65.53	3.0
65.545	3.0
65.56	3.0
65.575	8.0
65.59	7.0
65.605	4.0
65.62	2.0
65.635	6.0
65.65	3.0
65.666	3.0
65.681	2.0
65.696	3.0
65.711	3.0
65.726	5.0
65.741	3.0
65.756	2.0
65.771	3.0
65.786	3.0
65.801	6.0
65.816	3.0
65.831	1.0
65.846	3.0
65.861	4.0
65.876	1.0
65.891	5.0
65.906	5.0
65.921	6.0
65.936	4.0
65.951	1.0
65.966	4.0
65.981	5.0
65.996	4.0
66.011	7.0
66.026	4.0
66.041	6.0
66.056	4.0
66.071	4.0
66.086	3.0
66.101	11.0
66.116	5.0
66.131	7.0
66.146	6.0
66.161	6.0
66.176	4.0
66.191	5.0
66.206	7.0
66.221	6.0
66.236	10.0
66.251	10.0
66.266	5.0
66.281	9.0
66.296	3.0
66.311	3.0
66.327	6.0
66.342	7.0
66.357	5.0
66.372	3.0
66.387	2.0
66.402	3.0
66.417	7.0
66.432	8.0
66.447	3.0
66.462	2.0
66.477	4.0
66.492	2.0
66.507	7.0
66.522	3.0
66.537	3.0
66.552	1.0
66.567	3.0
66.582	6.0
66.597	3.0
66.612	9.0
66.627	11.0
66.642	8.0
66.657	11.0
66.672	7.0
66.687	2.0
66.702	4.0
66.717	4.0
66.732	5.0
66.747	3.0
66.762	3.0
66.777	4.0
66.792	5.0
66.807	3.0
66.822	1.0
66.837	5.0
66.853	3.0
66.868	2.0
66.883	5.0
66.898	1.0
66.913	4.0
66.928	3.0
66.943	4.0
66.958	3.0
66.973	4.0
66.988	9.0
67.003	8.0
67.018	6.0
67.033	6.0
67.048	1.0
67.063	5.0
67.078	4.0
67.093	2.0
67.108	5.0
67.123	5.0
67.138	4.0
67.153	7.0
67.168	5.0
67.183	3.0
67.198	4.0
67.214	5.0
67.229	7.0
67.244	1.0
67.259	6.0
67.274	2.0
67.289	1.0
67.304	6.0
67.319	3.0
67.334	3.0
67.349	2.0
67.364	5.0
67.379	7.0
67.394	4.0
67.409	4.0
67.424	10.0
67.439	4.0
67.454	7.0
67.469	3.0
67.484	0.0
67.5	6.0
67.515	3.0
67.53	6.0
67.545	4.0
67.56	5.0
67.575	1.0
67.59	2.0
67.605	7.0
67.62	2.0
67.635	1.0
67.65	7.0
67.665	5.0
67.68	2.0
67.695	1.0
67.71	0.0
67.726	2.0
67.741	1.0
67.756	2.0
67.771	3.0
67.786	3.0
67.801	3.0
67.816	6.0
67.831	4.0
67.846	2.0
67.861	10.0
67.876	2.0
67.891	1.0
67.906	4.0
67.922	2.0
67.937	4.0
67.952	4.0
67.967	4.0
67.982	5.0
67.997	4.0
68.012	2.0
68.027	4.0
68.042	7.0
68.057	3.0
68.072	5.0
68.087	3.0
68.103	3.0
68.118	6.0
68.133	6.0
68.148	1.0
68.163	1.0
68.178	5.0
68.193	7.0
68.208	2.0
68.223	3.0
68.238	5.0
68.254	3.0
68.269	1.0
68.284	2.0
68.299	9.0
68.314	3.0
68.329	8.0
68.344	1.0
68.359	3.0
68.374	2.0
68.389	4.0
68.405	3.0
68.42	3.0
68.435	1.0
68.45	5.0
68.465	5.0
68.48	3.0
68.495	2.0
68.51	3.0
68.525	5.0
68.54	5.0
68.556	5.0
68.571	2.0
68.586	3.0
68.601	6.0
68.616	4.0
68.631	4.0
68.646	0.0
68.661	3.0
68.676	3.0
68.691	0.0
68.707	0.0
68.722	7.0
68.737	4.0
68.752	4.0
68.767	4.0
68.782	2.0
68.797	2.0
68.812	2.0
68.827	1.0
68.842	3.0
68.857	1.0
68.873	5.0
68.888	5.0
68.903	7.0
68.918	2.0
68.933	8.0
68.948	4.0
68.963	4.0
68.978	2.0
68.993	3.0
69.008	3.0
69.023	3.0
69.038	6.0
69.054	2.0
69.069	6.0
69.084	2.0
69.099	1.0
69.114	3.0
69.129	1.0
69.144	3.0
69.159	3.0
69.174	6.0
69.189	6.0
69.204	7.0
69.219	1.0
69.234	3.0
69.249	5.0
69.264	1.0
69.279	1.0
69.295	5.0
69.31	7.0
69.325	5.0
69.34	5.0
69.355	5.0
69.37	6.0
69.385	5.0
69.4	3.0
69.415	5.0
69.43	6.0
69.445	3.0
69.46	6.0
69.475	3.0
69.49	5.0
69.505	3.0
69.52	6.0
69.535	3.0
69.55	2.0
69.565	1.0
69.58	5.0
69.595	3.0
69.61	4.0
69.625	2.0
69.64	4.0
69.655	7.0
69.67	2.0
69.685	6.0
69.7	8.0
69.715	5.0
69.73	8.0
69.745	11.0
69.76	4.0
69.775	7.0
69.79	6.0
69.805	7.0
69.82	8.0
69.835	1.0
69.85	5.0
69.865	4.0
69.88	7.0
69.895	8.0
69.909	4.0
69.924	1.0
69.939	1.0
69.954	6.0
69.969	2.0
69.984	3.0
69.999	7.0
70.014	1.0
70.029	3.0
70.044	4.0
70.059	7.0
70.074	3.0
70.088	3.0
70.103	2.0
70.118	5.0
70.133	5.0
70.148	2.0
70.163	0.0
70.178	3.0
70.193	2.0
70.208	1.0
70.222	2.0
70.237	9.0
70.252	5.0
70.267	9.0
70.282	3.0
70.297	1.0
70.312	2.0
70.327	4.0
70.341	3.0
70.356	2.0
70.371	5.0
70.386	3.0
70.401	4.0
70.416	6.0
70.43	3.0
70.445	3.0
70.46	6.0
70.475	1.0
70.49	3.0
70.505	3.0
70.519	3.0
70.534	1.0
70.549	6.0
70.564	3.0
70.579	9.0
70.594	7.0
70.608	1.0
70.623	6.0
70.638	8.0
70.653	8.0
70.668	8.0
70.683	4.0
70.697	3.0
70.712	7.0
70.727	8.0
70.742	4.0
70.757	5.0
70.771	7.0
70.786	2.0
70.801	1.0
70.816	1.0
70.831	3.0
70.845	1.0
70.86	3.0
70.875	3.0
70.89	6.0
70.905	5.0
70.92	2.0
70.934	4.0
70.949	5.0
70.964	5.0
70.979	3.0
70.994	5.0
71.008	3.0
71.023	3.0
71.038	4.0
71.053	3.0
71.068	6.0
71.082	5.0
71.097	7.0
71.112	4.0
71.127	2.0
71.142	6.0
71.156	7.0
71.171	4.0
71.186	5.0
71.201	5.0
71.216	5.0
71.231	3.0
71.245	6.0
71.26	1.0
71.275	2.0
71.29	7.0
71.305	4.0
71.319	6.0
71.334	5.0
71.349	0.0
71.364	2.0
71.379	1.0
71.394	1.0
71.408	3.0
71.423	4.0
71.438	6.0
71.453	1.0
71.468	6.0
71.483	4.0
71.497	1.0
71.512	1.0
71.527	1.0
71.542	3.0
71.557	3.0
71.572	3.0
71.586	3.0
71.601	2.0
71.616	5.0
71.631	3.0
71.646	5.0
71.661	2.0
71.676	0.0
71.69	5.0
71.705	3.0
71.72	2.0
71.735	1.0
71.75	2.0
71.765	2.0
71.78	2.0
71.795	2.0
71.81	2.0
71.824	2.0
71.839	2.0
71.854	3.0
71.869	1.0
71.884	3.0
71.899	3.0
71.914	2.0
71.929	3.0
71.944	5.0
71.959	4.0
71.974	3.0
71.988	2.0
72.003	3.0
72.018	4.0
72.033	3.0
72.048	4.0
72.063	5.0
72.078	1.0
72.093	3.0
72.108	3.0
72.123	3.0
72.138	4.0
72.153	3.0
72.168	4.0
72.183	3.0
72.198	1.0
72.213	3.0
72.228	4.0
72.243	3.0
72.258	4.0
72.273	1.0
72.288	6.0
72.303	2.0
72.318	2.0
72.333	2.0
72.348	8.0
72.363	3.0
72.378	4.0
72.393	6.0
72.408	2.0
72.423	3.0
72.438	6.0
72.453	2.0
72.468	3.0
72.483	2.0
72.498	4.0
72.513	2.0
72.528	4.0
72.543	1.0
72.558	3.0
72.573	5.0
72.588	0.0
72.603	4.0
72.618	3.0
72.633	5.0
72.649	6.0
72.664	4.0
72.679	3.0
72.694	3.0
72.709	3.0
72.724	2.0
72.739	4.0
72.754	3.0
72.769	4.0
72.784	2.0
72.799	0.0
72.814	4.0
72.829	3.0
72.845	5.0
72.86	3.0
72.875	4.0
72.89	2.0
72.905	3.0
72.92	3.0
72.935	4.0
72.95	0.0
72.965	1.0
72.98	4.0
72.996	1.0
73.011	2.0
73.026	3.0
73.041	6.0
73.056	3.0
73.071	2.0
73.086	5.0
73.101	2.0
73.117	4.0
73.132	3.0
73.147	3.0
73.162	5.0
73.177	2.0
73.192	3.0
73.207	3.0
73.222	3.0
73.238	4.0
73.253	7.0
73.268	2.0
73.283	3.0
73.298	1.0
73.313	5.0
73.328	4.0
73.343	2.0
73.359	3.0
73.374	6.0
73.389	1.0
73.404	6.0
73.419	2.0
73.434	8.0
73.449	0.0
73.465	1.0
73.48	4.0
73.495	4.0
73.51	1.0
73.525	6.0
73.54	3.0
73.556	2.0
73.571	2.0
73.586	7.0
73.601	4.0
73.616	4.0
73.631	3.0
73.646	0.0
73.662	1.0
73.677	4.0
73.692	5.0
73.707	2.0
73.722	5.0
73.737	3.0
73.752	2.0
73.768	3.0
73.783	5.0
73.798	5.0
73.813	5.0
73.828	3.0
73.843	4.0
73.859	7.0
73.874	5.0
73.889	1.0
73.904	2.0
73.919	2.0
73.934	3.0
73.949	2.0
73.965	6.0
73.98	3.0
73.995	1.0
74.01	5.0
74.025	3.0
74.04	2.0
74.056	4.0
74.071	8.0
74.086	3.0
74.101	7.0
74.116	4.0
74.131	4.0
74.146	3.0
74.162	4.0
74.177	5.0
74.192	5.0
74.207	2.0
74.222	5.0
74.237	7.0
74.252	4.0
74.268	9.0
74.283	4.0
74.298	1.0
74.313	4.0
74.328	2.0
74.343	2.0
74.358	1.0
74.374	2.0
74.389	1.0
74.404	2.0
74.419	7.0
74.434	2.0
74.449	2.0
74.464	4.0
74.48	1.0
74.495	5.0
74.51	2.0
74.525	6.0
74.54	2.0
74.555	7.0
74.57	5.0
74.586	2.0
74.601	2.0
74.616	3.0
74.631	2.0
74.646	4.0
74.661	5.0
74.676	1.0
74.691	3.0
74.707	6.0
74.722	2.0
74.737	7.0
74.752	5.0
74.767	5.0
74.782	3.0
74.797	0.0
74.813	8.0
74.828	2.0
74.843	4.0
74.858	2.0
74.873	1.0
74.888	3.0
74.903	2.0
74.918	3.0
74.934	5.0
74.949	3.0
74.964	7.0
74.979	1.0
74.994	1.0
75.009	4.0
75.024	4.0
75.04	5.0
75.055	3.0
75.07	5.0
75.085	3.0
75.1	4.0
75.115	6.0
75.13	4.0
75.145	3.0
75.161	5.0
75.176	4.0
75.191	5.0
75.206	5.0
75.221	1.0
75.236	2.0
75.251	6.0
75.266	5.0
75.282	1.0
75.297	1.0
75.312	2.0
75.327	2.0
75.342	1.0
75.357	2.0
75.372	2.0
75.387	1.0
75.403	8.0
75.418	8.0
75.433	5.0
75.448	8.0
75.463	4.0
75.478	5.0
75.493	2.0
75.509	4.0
75.524	4.0
75.539	4.0
75.554	1.0
75.569	1.0
75.584	6.0
75.599	2.0
75.614	2.0
75.63	2.0
75.645	2.0
75.66	3.0
75.675	1.0
75.69	4.0
75.705	5.0
75.72	3.0
75.735	5.0
75.751	2.0
75.766	2.0
75.781	3.0
75.796	4.0
75.811	5.0
75.826	6.0
75.841	6.0
75.856	4.0
75.872	2.0
75.887	8.0
75.902	3.0
75.917	3.0
75.932	2.0
75.947	1.0
75.962	6.0
75.977	5.0
75.993	3.0
76.008	4.0
76.023	4.0
76.038	1.0
76.053	2.0
76.068	5.0
76.083	4.0
76.098	2.0
76.114	1.0
76.129	1.0
76.144	4.0
76.159	3.0
76.174	1.0
76.189	4.0
76.204	4.0
76.22	4.0
76.235	3.0
76.25	4.0
76.265	2.0
76.28	4.0
76.295	3.0
76.31	8.0
76.325	3.0
76.341	3.0
76.356	4.0
76.371	2.0
76.386	3.0
76.401	4.0
76.416	4.0
76.431	4.0
76.446	3.0
76.462	4.0
76.477	2.0
76.492	5.0
76.507	4.0
76.522	2.0
76.537	3.0
76.552	2.0
76.567	2.0
76.583	7.0
76.598	2.0
76.613	1.0
76.628	1.0
76.643	1.0
76.658	3.0
76.673	1.0
76.688	6.0
76.704	4.0
76.719	4.0
76.734	6.0
76.749	5.0
76.764	3.0
76.779	1.0
76.794	8.0
76.809	3.0
76.824	6.0
76.84	7.0
76.855	4.0
76.87	2.0
76.885	4.0
76.9	2.0
76.915	2.0
76.93	8.0
76.945	1.0
76.96	2.0
76.976	2.0
76.991	4.0
77.006	4.0
77.021	5.0
77.036	1.0
77.051	3.0
77.066	5.0
77.081	4.0
77.096	4.0
77.112	2.0
77.127	1.0
77.142	1.0
77.157	5.0
77.172	2.0
77.187	2.0
77.202	8.0
77.217	3.0
77.232	3.0
77.247	4.0
77.263	6.0
77.278	5.0
77.293	3.0
77.308	6.0
77.323	3.0
77.338	6.0
77.353	4.0
77.368	3.0
77.383	4.0
77.398	2.0
77.413	3.0
77.428	3.0
77.444	5.0
77.459	4.0
77.474	3.0
77.489	3.0
77.504	1.0
77.519	0.0
77.534	3.0
77.549	4.0
77.564	2.0
77.579	3.0
77.594	7.0
77.609	5.0
77.624	5.0
77.64	5.0
77.655	4.0
77.67	7.0
77.685	3.0
77.7	6.0
77.715	1.0
77.73	2.0
77.745	7.0
77.76	5.0
77.775	6.0
77.79	6.0
77.805	2.0
77.82	2.0
77.835	3.0
77.85	4.0
77.865	2.0
77.88	1.0
77.895	1.0
77.91	4.0
77.926	2.0
77.941	1.0
77.956	0.0
77.971	5.0
77.986	4.0
78.001	3.0
78.016	1.0
78.031	4.0
78.046	3.0
78.061	2.0
78.076	5.0
78.091	6.0
78.106	2.0
78.121	1.0
78.136	1.0
78.151	0.0
78.166	4.0
78.181	5.0
78.196	8.0
78.211	7.0
78.226	3.0
78.241	6.0
78.256	1.0
78.271	6.0
78.286	5.0
78.301	1.0
78.316	0.0
78.331	2.0
78.346	2.0
78.361	3.0
78.376	3.0
78.391	4.0
78.406	7.0
78.421	2.0
78.436	0.0
78.451	2.0
78.466	1.0
78.481	3.0
78.496	4.0
78.511	2.0
78.526	1.0
78.541	1.0
78.556	2.0
78.571	1.0
78.586	4.0
78.601	4.0
78.616	8.0
78.631	3.0
78.646	1.0
78.661	2.0
78.676	3.0
78.691	2.0
78.706	4.0
78.721	0.0
78.736	1.0
78.751	2.0
78.766	2.0
78.781	1.0
78.796	4.0
78.811	4.0
78.826	2.0
78.841	4.0
78.856	4.0
78.871	3.0
78.885	2.0
78.9	2.0
78.915	0.0
78.93	0.0
78.945	3.0
78.96	4.0
78.975	3.0
78.99	3.0
79.005	5.0
79.02	1.0
79.035	4.0
79.05	3.0
79.065	4.0
79.08	2.0
79.095	0.0
79.11	2.0
79.125	3.0
79.14	3.0
79.155	3.0
79.17	4.0
79.185	3.0
79.2	1.0
79.215	5.0
79.23	4.0
79.245	6.0
79.26	4.0
79.275	7.0
79.29	1.0
79.304	4.0
79.319	2.0
79.334	4.0
79.349	2.0
79.364	7.0
79.379	4.0
79.394	0.0
79.409	7.0
79.424	5.0
79.439	5.0
79.454	2.0
79.469	6.0
79.484	2.0
79.499	5.0
79.514	3.0
79.529	4.0
79.544	4.0
79.559	3.0
79.574	0.0
79.589	1.0
79.604	4.0
79.619	2.0
79.634	1.0
79.649	4.0
79.664	6.0
79.679	2.0
79.693	3.0
79.708	4.0
79.723	2.0
79.738	5.0
79.753	2.0
79.768	3.0
79.783	2.0
79.798	3.0
79.813	0.0
79.828	5.0
79.843	3.0
79.858	4.0
79.873	2.0
79.888	3.0
79.903	4.0
79.918	3.0
79.933	2.0
79.948	2.0
79.963	8.0
79.978	8.0
79.993	5.0
80.008	1.0
80.023	2.0
80.038	1.0
80.053	3.0
80.068	5.0
80.083	1.0
80.098	4.0
80.113	4.0
80.128	2.0
80.143	3.0
80.158	4.0
80.173	2.0
80.188	3.0
80.202	4.0
80.217	2.0
80.232	5.0
80.247	4.0
80.262	1.0
80.277	2.0
80.292	4.0
80.307	2.0
80.322	3.0
80.337	8.0
80.352	4.0
80.367	1.0
80.382	1.0
80.397	3.0
80.412	2.0
80.427	5.0
80.442	5.0
80.457	8.0
80.472	2.0
80.487	4.0
80.502	5.0
80.517	5.0
80.532	4.0
80.547	1.0
80.562	5.0
80.577	3.0
80.592	3.0
80.607	0.0
80.622	4.0
80.637	3.0
80.652	1.0
80.667	1.0
80.682	3.0
80.697	4.0
80.712	4.0
80.727	4.0
80.742	2.0
80.757	5.0
80.772	1.0
80.787	2.0
80.802	3.0
80.817	6.0
80.832	2.0
80.847	5.0
80.862	3.0
80.877	3.0
80.892	1.0
80.907	6.0
80.922	1.0
80.937	3.0
80.952	4.0
80.967	5.0
80.982	3.0
80.997	2.0
81.012	3.0
81.027	1.0
81.042	1.0
81.057	4.0
81.072	3.0
81.087	1.0
81.101	5.0
81.116	6.0
81.131	4.0
81.146	4.0
81.161	3.0
81.176	2.0
81.191	4.0
81.206	3.0
81.221	1.0
81.236	7.0
81.251	3.0
81.266	4.0
81.281	3.0
81.296	4.0
81.311	3.0
81.326	2.0
81.341	2.0
81.356	0.0
81.371	1.0
81.386	2.0
81.401	1.0
81.416	7.0
81.431	2.0
81.446	1.0
81.461	2.0
81.476	5.0
81.491	2.0
81.506	4.0
81.521	0.0
81.536	0.0
81.55	3.0
81.565	6.0
81.58	5.0
81.595	1.0
81.61	5.0
81.625	4.0
81.64	2.0
81.655	5.0
81.67	5.0
81.685	1.0
81.7	1.0
81.715	1.0
81.73	1.0
81.745	3.0
81.76	5.0
81.775	4.0
81.79	5.0
81.805	2.0
81.819	4.0
81.834	1.0
81.849	1.0
81.864	2.0
81.879	3.0
81.894	4.0
81.909	4.0
81.924	2.0
81.939	2.0
81.954	0.0
81.969	3.0
81.984	3.0
81.999	5.0
82.013	3.0
82.028	4.0
82.043	4.0
82.058	2.0
82.073	1.0
82.088	5.0
82.103	1.0
82.118	1.0
82.133	4.0
82.148	2.0
82.163	3.0
82.177	7.0
82.192	4.0
82.207	2.0
82.222	0.0
82.237	1.0
82.252	5.0
82.267	2.0
82.282	2.0
82.297	3.0
82.312	3.0
82.326	4.0
82.341	3.0
82.356	6.0
82.371	1.0
82.386	5.0
82.401	2.0
82.416	7.0
82.431	2.0
82.445	0.0
82.46	3.0
82.475	3.0
82.49	3.0
82.505	3.0
82.52	3.0
82.535	1.0
82.55	4.0
82.565	7.0
82.579	5.0
82.594	5.0
82.609	2.0
82.624	3.0
82.639	5.0
82.654	3.0
82.669	9.0
82.684	4.0
82.698	2.0
82.713	1.0
82.728	3.0
82.743	1.0
82.758	3.0
82.773	2.0
82.788	4.0
82.803	1.0
82.817	1.0
82.832	5.0
82.847	4.0
82.862	3.0
82.877	4.0
82.892	2.0
82.907	4.0
82.922	1.0
82.937	4.0
82.951	1.0
82.966	6.0
82.981	1.0
82.996	2.0
83.011	3.0
83.026	4.0
83.041	7.0
83.056	4.0
83.07	2.0
83.085	0.0
83.1	2.0
83.115	7.0
83.13	4.0
83.145	5.0
83.16	5.0
83.175	4.0
83.19	5.0
83.204	4.0
83.219	2.0
83.234	3.0
83.249	4.0
83.264	1.0
83.279	3.0
83.294	2.0
83.309	1.0
83.324	1.0
83.339	1.0
83.353	7.0
83.368	1.0
83.383	1.0
83.398	3.0
83.413	6.0
83.428	5.0
83.443	2.0
83.458	2.0
83.473	3.0
83.488	3.0
83.503	4.0
83.517	4.0
83.532	4.0
83.547	5.0
83.562	4.0
83.577	1.0
83.592	7.0
83.607	1.0
83.622	5.0
83.637	3.0
83.652	5.0
83.667	4.0
83.682	5.0
83.697	2.0
83.712	2.0
83.727	5.0
83.741	2.0
83.756	4.0
83.771	6.0
83.786	4.0
83.801	4.0
83.816	2.0
83.831	6.0
83.846	4.0
83.861	2.0
83.876	4.0
83.891	2.0
83.906	5.0
83.921	1.0
83.936	1.0
83.951	2.0
83.966	2.0
83.981	2.0
83.996	2.0
84.011	3.0
84.026	3.0
84.041	2.0
84.056	5.0
84.071	3.0
84.086	4.0
84.101	2.0
84.116	4.0
84.131	6.0
84.146	5.0
84.161	3.0
84.176	1.0
84.191	5.0
84.206	4.0
84.221	4.0
84.236	5.0
84.251	3.0
84.266	4.0
84.281	5.0
84.296	3.0
84.311	0.0
84.326	6.0
84.341	4.0
84.356	5.0
84.371	1.0
84.386	1.0
84.401	1.0
84.416	3.0
84.431	2.0
84.446	3.0
84.461	1.0
84.476	3.0
84.492	0.0
84.507	9.0
84.522	3.0
84.537	2.0
84.552	3.0
84.567	4.0
84.582	4.0
84.597	6.0
84.612	3.0
84.627	3.0
84.642	3.0
84.657	1.0
84.672	2.0
84.687	3.0
84.702	5.0
84.717	6.0
84.733	4.0
84.748	2.0
84.763	0.0
84.778	1.0
84.793	2.0
84.808	4.0
84.823	2.0
84.838	2.0
84.853	2.0
84.868	3.0
84.883	1.0
84.898	6.0
84.913	4.0
84.929	9.0
84.944	7.0
84.959	5.0
84.974	3.0
84.989	6.0
85.004	2.0
85.019	5.0
85.034	3.0
85.049	1.0
85.064	3.0
85.079	5.0
85.094	5.0
85.11	1.0
85.125	5.0
85.14	6.0
85.155	2.0
85.17	3.0
85.185	2.0
85.2	2.0
85.215	4.0
85.23	4.0
85.245	3.0
85.26	2.0
85.276	2.0
85.291	4.0
85.306	4.0
85.321	3.0
85.336	1.0
85.351	4.0
85.366	2.0
85.381	3.0
85.396	3.0
85.411	4.0
85.426	3.0
85.441	2.0
85.457	5.0
85.472	3.0
85.487	6.0
85.502	4.0
85.517	5.0
85.532	3.0
85.547	2.0
85.562	4.0
85.577	0.0
85.592	1.0
85.607	3.0
85.622	2.0
85.637	3.0
85.653	2.0
85.668	2.0
85.683	3.0
85.698	3.0
85.713	4.0
85.728	2.0
85.743	2.0
85.758	2.0
85.773	2.0
85.788	0.0
85.803	6.0
85.818	4.0
85.833	2.0
85.848	6.0
85.863	2.0
85.879	2.0
85.894	4.0
85.909	3.0
85.924	3.0
85.939	4.0
85.954	3.0
85.969	1.0
85.984	0.0
85.999	3.0
86.014	3.0
86.029	1.0
86.044	4.0
86.059	1.0
86.074	2.0
86.089	6.0
86.104	5.0
86.119	3.0
86.134	2.0
86.149	5.0
86.164	3.0
86.179	6.0
86.194	0.0
86.209	3.0
86.224	2.0
86.239	0.0
86.254	2.0
86.269	1.0
86.284	3.0
86.299	1.0
86.314	2.0
86.33	6.0
86.345	3.0
86.36	1.0
86.375	3.0
86.39	2.0
86.405	1.0
86.42	2.0
86.435	4.0
86.45	2.0
86.465	1.0
86.48	3.0
86.495	6.0
86.51	3.0
86.525	5.0
86.54	5.0
86.555	7.0
86.57	5.0
86.585	2.0
86.6	1.0
86.615	3.0
86.63	3.0
86.645	5.0
86.659	4.0
86.674	2.0
86.689	4.0
86.704	4.0
86.719	0.0
86.734	1.0
86.749	2.0
86.764	4.0
86.779	1.0
86.794	9.0
86.809	2.0
86.824	2.0
86.839	5.0
86.854	3.0
86.869	2.0
86.884	5.0
86.899	6.0
86.914	4.0
86.929	3.0
86.944	2.0
86.959	4.0
86.974	3.0
86.989	3.0
87.004	3.0
87.019	8.0
87.034	2.0
87.049	7.0
87.064	3.0
87.079	3.0
87.094	4.0
87.109	1.0
87.124	5.0
87.139	4.0
87.154	3.0
87.169	4.0
87.184	5.0
87.199	4.0
87.214	1.0
87.229	1.0
87.244	4.0
87.259	3.0
87.274	4.0
87.289	2.0
87.304	1.0
87.319	1.0
87.334	4.0
87.349	3.0
87.364	5.0
87.379	6.0
87.394	2.0
87.409	2.0
87.424	3.0
87.438	2.0
87.453	3.0
87.468	4.0
87.483	5.0
87.498	4.0
87.513	4.0
87.528	1.0
87.543	8.0
87.558	4.0
87.573	5.0
87.588	8.0
87.603	2.0
87.618	5.0
87.633	4.0
87.648	5.0
87.663	4.0
87.678	5.0
87.693	3.0
87.708	6.0
87.723	0.0
87.738	2.0
87.753	6.0
87.768	3.0
87.783	9.0
87.798	5.0
87.813	8.0
87.828	2.0
87.843	6.0
87.858	2.0
87.873	4.0
87.888	1.0
87.903	1.0
87.918	4.0
87.933	2.0
87.948	8.0
87.963	4.0
87.978	5.0
87.993	0.0
88.008	2.0
88.023	6.0
88.038	8.0
88.053	5.0
88.068	2.0
88.083	3.0
88.098	3.0
88.113	0.0
88.128	2.0
88.143	4.0
88.158	4.0
88.174	2.0
88.189	3.0
88.204	0.0
88.219	2.0
88.234	1.0
88.249	0.0
88.264	2.0
88.279	5.0
88.294	5.0
88.309	5.0
88.324	3.0
88.339	3.0
88.354	7.0
88.369	4.0
88.384	5.0
88.399	3.0
88.414	3.0
88.429	2.0
88.444	0.0
88.459	2.0
88.474	5.0
88.489	4.0
88.504	2.0
88.519	3.0
88.534	2.0
88.549	3.0
88.564	4.0
88.58	2.0
88.595	6.0
88.61	4.0
88.625	2.0
88.64	2.0
88.655	1.0
88.67	4.0
88.685	2.0
88.7	2.0
88.715	0.0
88.73	2.0
88.745	4.0
88.76	2.0
88.775	2.0
88.79	2.0
88.805	5.0
88.82	3.0
88.835	4.0
88.85	4.0
88.865	4.0
88.88	4.0
88.895	1.0
88.911	4.0
88.926	3.0
88.941	7.0
88.956	5.0
88.971	5.0
88.986	2.0
89.001	3.0
89.016	5.0
89.031	7.0
89.046	3.0
89.061	2.0
89.076	3.0
89.091	2.0
89.106	3.0
89.121	5.0
89.136	1.0
89.151	7.0
89.166	1.0
89.181	2.0
89.196	4.0
89.211	2.0
89.227	4.0
89.242	1.0
89.257	1.0
89.272	3.0
89.287	2.0
89.302	5.0
89.317	5.0
89.332	3.0
89.347	7.0
89.362	2.0
89.377	2.0
89.392	2.0
89.407	2.0
89.422	5.0
89.437	6.0
89.452	4.0
89.467	1.0
89.482	3.0
89.497	1.0
89.512	4.0
89.527	3.0
89.542	5.0
89.557	1.0
89.572	1.0
89.587	4.0
89.602	2.0
89.617	1.0
89.632	2.0
89.647	3.0
89.662	0.0
89.677	2.0
89.693	4.0
89.708	2.0
89.723	1.0
89.738	1.0
89.753	1.0
89.768	3.0
89.783	2.0
89.798	5.0
89.813	3.0
89.828	2.0
89.843	3.0
89.858	4.0
89.873	2.0
89.888	2.0
89.903	4.0
89.918	2.0
89.933	2.0
89.948	1.0
89.963	1.0
89.978	2.0
89.993	4.0
90.008	6.0
90.023	2.0
90.038	0.0
90.053	3.0
90.068	4.0
90.083	2.0
90.097	4.0
90.112	0.0
90.127	3.0
90.142	5.0
90.157	5.0
90.172	6.0
90.187	3.0
90.202	5.0
90.217	4.0
90.232	5.0
90.247	5.0
90.262	6.0
90.277	2.0
90.292	4.0
90.307	0.0
90.322	4.0
90.337	2.0
90.352	1.0
90.367	4.0
90.382	2.0
90.397	6.0
90.412	4.0
90.427	7.0
90.442	2.0
90.457	4.0
90.472	2.0
90.487	3.0
90.501	4.0
90.516	1.0
90.531	3.0
90.546	3.0
90.561	6.0
90.576	3.0
90.591	1.0
90.606	5.0
90.621	2.0
90.636	2.0
90.651	1.0
90.666	1.0
90.681	2.0
90.696	4.0
90.711	4.0
90.726	3.0
90.741	7.0
90.755	5.0
90.77	4.0
90.785	5.0
90.8	4.0
90.815	2.0
90.83	5.0
90.845	3.0
90.86	4.0
90.875	2.0
90.89	6.0
90.905	4.0
90.92	7.0
90.935	2.0
90.95	2.0
90.965	3.0
90.979	4.0
90.994	6.0
91.009	7.0
91.024	2.0
91.039	6.0
91.054	4.0
91.069	8.0
91.084	3.0
91.099	2.0
91.114	3.0
91.129	0.0
91.144	2.0
91.159	5.0
91.174	4.0
91.188	4.0
91.203	2.0
91.218	7.0
91.233	1.0
91.248	1.0
91.263	4.0
91.278	3.0
91.293	4.0
91.308	2.0
91.323	2.0
91.338	4.0
91.353	7.0
91.368	1.0
91.383	6.0
91.398	1.0
91.412	4.0
91.427	0.0
91.442	1.0
91.457	3.0
91.472	1.0
91.487	2.0
91.502	4.0
91.517	4.0
91.532	2.0
91.547	4.0
91.562	0.0
91.577	4.0
91.592	3.0
91.607	3.0
91.622	6.0
91.637	4.0
91.652	2.0
91.666	3.0
91.681	1.0
91.696	3.0
91.711	5.0
91.726	2.0
91.741	5.0
91.756	5.0
91.771	3.0
91.786	3.0
91.801	4.0
91.816	3.0
91.831	4.0
91.846	2.0
91.861	3.0
91.876	2.0
91.891	0.0
91.906	6.0
91.921	3.0
91.936	5.0
91.951	3.0
91.966	4.0
91.981	5.0
91.995	3.0
92.01	3.0
92.025	3.0
92.04	2.0
92.055	4.0
92.07	2.0
92.085	4.0
92.1	4.0
92.115	2.0
92.13	1.0
92.145	2.0
92.16	1.0
92.175	4.0
92.19	1.0
92.205	2.0
92.22	1.0
92.235	2.0
92.25	1.0
92.265	2.0
92.28	5.0
92.295	4.0
92.31	1.0
92.325	4.0
92.34	5.0
92.355	6.0
92.37	2.0
92.385	2.0
92.4	1.0
92.415	2.0
92.43	4.0
92.445	2.0
92.46	3.0
92.475	3.0
92.49	6.0
92.505	3.0
92.52	5.0
92.535	2.0
92.55	3.0
92.565	5.0
92.58	4.0
92.595	2.0
92.61	5.0
92.625	5.0
92.64	7.0
92.655	2.0
92.67	4.0
92.685	0.0
92.7	2.0
92.715	2.0
92.73	5.0
92.745	5.0
92.76	1.0
92.775	2.0
92.79	8.0
92.805	4.0
92.82	2.0
92.835	5.0
92.85	5.0
92.865	4.0
92.88	2.0
92.895	2.0
92.91	6.0
92.925	3.0
92.94	4.0
92.955	2.0
92.97	2.0
92.985	7.0
93.0	3.0
93.015	5.0
93.03	1.0
93.045	4.0
93.06	6.0
93.075	2.0
93.09	3.0
93.105	3.0
93.12	2.0
93.135	7.0
93.15	3.0
93.165	2.0
93.18	3.0
93.195	1.0
93.21	3.0
93.225	1.0
93.24	2.0
93.255	4.0
93.27	1.0
93.285	1.0
93.3	3.0
93.315	4.0
93.33	2.0
93.345	1.0
93.36	3.0
93.375	0.0
93.39	3.0
93.405	3.0
93.42	4.0
93.435	1.0
93.45	3.0
93.465	4.0
93.48	3.0
93.495	3.0
93.51	2.0
93.525	4.0
93.54	1.0
93.555	5.0
93.57	3.0
93.585	2.0
93.6	0.0
93.615	3.0
93.63	4.0
93.645	3.0
93.66	4.0
93.675	8.0
93.69	0.0
93.705	3.0
93.72	2.0
93.735	5.0
93.75	4.0
93.765	3.0
93.78	0.0
93.795	2.0
93.81	2.0
93.824	1.0
93.839	5.0
93.854	2.0
93.869	3.0
93.884	5.0
93.899	3.0
93.914	8.0
93.929	2.0
93.944	2.0
93.959	4.0
93.974	0.0
93.989	3.0
94.004	2.0
94.019	7.0
94.034	2.0
94.049	4.0
94.064	2.0
94.079	1.0
94.094	2.0
94.108	3.0
94.123	4.0
94.138	3.0
94.153	1.0
94.168	1.0
94.183	2.0
94.198	5.0
94.213	3.0
94.228	3.0
94.243	1.0
94.258	4.0
94.273	4.0
94.288	3.0
94.302	0.0
94.317	2.0
94.332	6.0
94.347	1.0
94.362	5.0
94.377	2.0
94.392	7.0
94.407	3.0
94.422	11.0
94.437	5.0
94.452	3.0
94.466	2.0
94.481	5.0
94.496	4.0
94.511	4.0
94.526	3.0
94.541	4.0
94.556	5.0
94.571	1.0
94.586	3.0
94.601	4.0
94.615	5.0
94.63	4.0
94.645	7.0
94.66	2.0
94.675	1.0
94.69	1.0
94.705	3.0
94.72	1.0
94.735	2.0
94.749	2.0
94.764	1.0
94.779	0.0
94.794	4.0
94.809	3.0
94.824	4.0
94.839	5.0
94.854	5.0
94.868	1.0
94.883	2.0
94.898	1.0
94.913	1.0
94.928	2.0
94.943	7.0
94.958	5.0
94.973	3.0
94.987	6.0
95.002	4.0
95.017	1.0
95.032	3.0
95.047	2.0
95.062	5.0
95.077	4.0
95.092	4.0
95.106	5.0
95.121	5.0
95.136	3.0
95.151	3.0
95.166	6.0
95.181	4.0
95.196	6.0
95.211	5.0
95.226	5.0
95.24	6.0
95.255	2.0
95.27	3.0
95.285	2.0
95.3	0.0
95.315	3.0
95.33	4.0
95.345	2.0
95.359	2.0
95.374	4.0
95.389	4.0
95.404	2.0
95.419	3.0
95.434	1.0
95.449	4.0
95.464	1.0
95.478	2.0
95.493	1.0
95.508	4.0
95.523	4.0
95.538	1.0
95.553	2.0
95.568	3.0
95.583	3.0
95.597	2.0
95.612	0.0
95.627	2.0
95.642	6.0
95.657	1.0
95.672	4.0
95.687	6.0
95.702	2.0
95.717	6.0
95.731	2.0
95.746	2.0
95.761	1.0
95.776	4.0
95.791	4.0
95.806	2.0
95.821	2.0
95.836	5.0
95.851	6.0
95.866	3.0
95.88	3.0
95.895	3.0
95.91	2.0
95.925	6.0
95.94	3.0
95.955	4.0
95.97	3.0
95.985	1.0
96.0	6.0
96.015	5.0
96.029	4.0
96.044	1.0
96.059	3.0
96.074	4.0
96.089	2.0
96.104	4.0
96.119	5.0
96.134	4.0
96.149	3.0
96.164	2.0
96.179	2.0
96.194	3.0
96.208	3.0
96.223	2.0
96.238	3.0
96.253	3.0
96.268	4.0
96.283	1.0
96.298	5.0
96.313	4.0
96.328	8.0
96.343	2.0
96.358	2.0
96.373	4.0
96.388	4.0
96.403	6.0
96.417	4.0
96.432	3.0
96.447	4.0
96.462	4.0
96.477	1.0
96.492	0.0
96.507	4.0
96.522	6.0
96.537	4.0
96.552	1.0
96.567	1.0
96.582	3.0
96.597	3.0
96.612	0.0
96.627	0.0
96.642	4.0
96.656	2.0
96.671	3.0
96.686	5.0
96.701	3.0
96.716	3.0
96.731	2.0
96.746	3.0
96.761	4.0
96.776	3.0
96.791	6.0
96.806	3.0
96.821	2.0
96.836	1.0
96.851	8.0
96.866	5.0
96.881	1.0
96.896	4.0
96.911	6.0
96.926	4.0
96.94	2.0
96.955	1.0
96.97	2.0
96.985	1.0
97.0	5.0
97.015	6.0
97.03	1.0
97.045	2.0
97.06	3.0
97.075	3.0
97.09	7.0
97.105	4.0
97.12	3.0
97.135	8.0
97.15	1.0
97.165	3.0
97.18	5.0
97.195	5.0
97.21	2.0
97.225	1.0
97.239	1.0
97.254	2.0
97.269	2.0
97.284	5.0
97.299	2.0
97.314	2.0
97.329	2.0
97.344	2.0
97.359	4.0
97.374	3.0
97.389	0.0
97.404	3.0
97.419	5.0
97.434	1.0
97.449	5.0
97.464	3.0
97.479	3.0
97.494	5.0
97.509	2.0
97.524	3.0
97.538	5.0
97.553	4.0
97.568	5.0
97.583	3.0
97.598	1.0
97.613	4.0
97.628	4.0
97.643	4.0
97.658	3.0
97.673	2.0
97.688	4.0
97.703	2.0
97.718	2.0
97.733	2.0
97.748	0.0
97.763	7.0
97.778	4.0
97.792	4.0
97.807	2.0
97.822	2.0
97.837	3.0
97.852	3.0
97.867	5.0
97.882	2.0
97.897	2.0
97.912	0.0
97.927	3.0
97.942	3.0
97.957	2.0
97.972	5.0
97.987	3.0
98.001	6.0
98.016	3.0
98.031	2.0
98.046	4.0
98.061	4.0
98.076	4.0
98.091	4.0
98.106	3.0
98.121	3.0
98.136	8.0
98.151	1.0
98.166	2.0
98.181	3.0
98.195	6.0
98.21	5.0
98.225	1.0
98.24	2.0
98.255	3.0
98.27	8.0
98.285	2.0
98.3	3.0
98.315	2.0
98.33	3.0
98.345	5.0
98.359	3.0
98.374	3.0
98.389	4.0
98.404	1.0
98.419	3.0
98.434	2.0
98.449	2.0
98.464	2.0
98.479	4.0
98.494	1.0
98.508	2.0
98.523	9.0
98.538	7.0
98.553	3.0
98.568	4.0
98.583	3.0
98.598	5.0
98.613	3.0
98.628	3.0
98.642	2.0
98.657	1.0
98.672	2.0
98.687	4.0
98.702	1.0
98.717	1.0
98.732	0.0
98.747	4.0
98.762	3.0
98.776	1.0
98.791	2.0
98.806	2.0
98.821	0.0
98.836	6.0
98.851	3.0
98.866	3.0
98.881	6.0
98.896	3.0
98.91	4.0
98.925	4.0
98.94	6.0
98.955	4.0
98.97	2.0
98.985	3.0
99.0	3.0
99.015	1.0
99.029	3.0
99.044	2.0
99.059	2.0
99.074	3.0
99.089	1.0
99.104	1.0
99.119	3.0
99.133	4.0
99.148	3.0
99.163	4.0
99.178	1.0
99.193	3.0
99.208	4.0
99.223	3.0
99.238	1.0
99.252	5.0
99.267	0.0
99.282	1.0
99.297	3.0
99.312	4.0
99.327	5.0
99.342	3.0
99.356	4.0
99.371	3.0
99.386	4.0
99.401	3.0
99.416	3.0
99.431	2.0
99.446	1.0
99.461	2.0
99.475	0.0
99.49	4.0
99.505	2.0
99.52	6.0
99.535	1.0
99.55	3.0
99.565	2.0
99.579	4.0
99.594	6.0
99.609	1.0
99.624	1.0
99.639	3.0
99.654	3.0
99.669	3.0
99.683	6.0
99.698	1.0
99.713	3.0
99.728	4.0
99.743	3.0
99.758	1.0
99.772	3.0
99.787	4.0
99.802	3.0
99.817	3.0
99.832	7.0
99.847	3.0
99.862	4.0
99.876	4.0
99.891	4.0
99.906	2.0
99.921	2.0
99.936	1.0
99.951	5.0
99.966	2.0
99.98	6.0
99.995	4.0
100.01	5.0
100.025	4.0
100.04	5.0
100.055	1.0
100.069	2.0
100.084	3.0
100.099	3.0
100.114	4.0
100.129	4.0
100.144	7.0
100.159	2.0
100.173	4.0
100.188	4.0
100.203	7.0
100.218	0.0
100.233	3.0
100.248	3.0
100.262	6.0
100.277	3.0
100.292	2.0
100.307	5.0
100.322	4.0
100.337	2.0
100.351	3.0
100.366	3.0
100.381	5.0
100.396	4.0
100.411	4.0
100.426	1.0
100.441	0.0
100.455	5.0
100.47	4.0
100.485	1.0
100.5	1.0
100.515	6.0
100.53	1.0
100.544	5.0
100.559	2.0
100.574	4.0
100.589	0.0
100.604	5.0
100.619	2.0
100.633	8.0
100.648	3.0
100.663	5.0
100.678	3.0
100.693	1.0
100.708	3.0
100.722	3.0
100.737	3.0
100.752	5.0
100.767	3.0
100.782	1.0
100.796	2.0
100.811	1.0
100.826	4.0
100.841	2.0
100.856	4.0
100.871	0.0
100.885	3.0
100.9	3.0
100.915	4.0
100.93	6.0
100.945	3.0
100.96	3.0
100.974	0.0
100.989	6.0
101.004	3.0
101.019	4.0
101.034	2.0
101.048	2.0
101.063	6.0
101.078	4.0
101.093	2.0
101.108	4.0
101.123	2.0
101.137	2.0
101.152	5.0
101.167	3.0
101.182	5.0
101.197	5.0
101.211	1.0
101.226	3.0
101.241	5.0
101.256	2.0
101.271	2.0
101.285	2.0
101.3	1.0
101.315	2.0
101.33	4.0
101.345	5.0
101.359	3.0
101.374	2.0
101.389	2.0
101.404	4.0
101.419	4.0
101.433	3.0
101.448	4.0
101.463	4.0
101.478	6.0
101.493	9.0
101.507	2.0
101.522	2.0
101.537	1.0
101.552	5.0
101.567	3.0
101.581	3.0
101.596	2.0
101.611	3.0
101.626	1.0
101.64	4.0
101.655	0.0
101.67	3.0
101.685	1.0
101.7	3.0
101.714	2.0
101.729	1.0
101.744	4.0
101.759	3.0
101.773	4.0
101.788	4.0
101.803	2.0
101.818	5.0
101.833	3.0
101.847	2.0
101.862	4.0
101.877	1.0
101.892	4.0
101.906	5.0
101.921	5.0
101.936	3.0
101.951	7.0
101.965	4.0
101.98	3.0
101.995	3.0
102.01	4.0
102.025	6.0
102.039	3.0
102.054	2.0
102.069	5.0
102.084	6.0
102.098	2.0
102.113	3.0
102.128	5.0
102.143	4.0
102.157	1.0
102.172	5.0
102.187	2.0
102.202	7.0
102.216	2.0
102.231	5.0
102.246	3.0
102.261	1.0
102.275	4.0
102.29	3.0
102.305	3.0
102.32	3.0
102.334	1.0
102.349	7.0
102.364	4.0
102.378	0.0
102.393	4.0
102.408	5.0
102.423	4.0
102.437	0.0
102.452	4.0
102.467	1.0
102.482	2.0
102.496	7.0
102.511	1.0
102.526	5.0
102.541	4.0
102.555	2.0
102.57	5.0
102.585	4.0
102.6	1.0
102.614	2.0
102.629	3.0
102.644	0.0
102.659	4.0
102.673	5.0
102.688	6.0
102.703	1.0
102.717	0.0
102.732	1.0
102.747	4.0
102.762	3.0
102.776	3.0
102.791	4.0
102.806	3.0
102.821	3.0
102.835	2.0
102.85	2.0
102.865	7.0
102.88	5.0
102.894	1.0
102.909	2.0
102.924	6.0
102.938	6.0
102.953	1.0
102.968	4.0
102.983	2.0
102.997	1.0
103.012	5.0
103.027	4.0
103.042	7.0
103.056	3.0
103.071	2.0
103.086	2.0
103.101	2.0
103.115	6.0
103.13	5.0
103.145	1.0
103.16	3.0
103.174	2.0
103.189	2.0
103.204	3.0
103.219	3.0
103.233	5.0
103.248	6.0
103.263	3.0
103.278	2.0
103.292	3.0
103.307	3.0
103.322	6.0
103.337	5.0
103.351	4.0
103.366	3.0
103.381	5.0
103.396	3.0
103.41	1.0
103.425	6.0
103.44	3.0
103.455	3.0
103.469	5.0
103.484	2.0
103.499	4.0
103.514	0.0
103.529	4.0
103.543	4.0
103.558	1.0
103.573	1.0
103.588	1.0
103.602	1.0
103.617	3.0
103.632	5.0
103.647	5.0
103.661	1.0
103.676	4.0
103.691	2.0
103.706	4.0
103.721	4.0
103.735	4.0
103.75	4.0
103.765	3.0
103.78	2.0
103.795	6.0
103.809	3.0
103.824	6.0
103.839	1.0
103.854	4.0
103.869	3.0
103.883	4.0
103.898	4.0
103.913	4.0
103.928	3.0
103.943	6.0
103.957	2.0
103.972	1.0
103.987	3.0
104.002	6.0
104.017	1.0
104.031	2.0
104.046	2.0
104.061	5.0
104.076	2.0
104.091	2.0
104.106	5.0
104.12	3.0
104.135	6.0
104.15	1.0
104.165	3.0
104.18	7.0
104.195	3.0
104.209	2.0
104.224	2.0
104.239	4.0
104.254	5.0
104.269	3.0
104.284	6.0
104.299	6.0
104.313	2.0
104.328	2.0
104.343	5.0
104.358	2.0
104.373	5.0
104.388	2.0
104.403	0.0
104.417	3.0
104.432	2.0
104.447	3.0
104.462	6.0
104.477	5.0
104.492	3.0
104.507	8.0
104.522	1.0
104.536	4.0
104.551	4.0
104.566	4.0
104.581	3.0
104.596	4.0
104.611	6.0
104.626	4.0
104.641	6.0
104.656	6.0
104.67	2.0
104.685	6.0
104.7	6.0
104.715	5.0
104.73	4.0
104.745	3.0
104.76	2.0
104.775	5.0
104.79	4.0
104.804	3.0
104.819	3.0
104.834	3.0
104.849	4.0
104.864	3.0
104.879	2.0
104.894	3.0
104.909	3.0
104.924	6.0
104.939	2.0
104.954	3.0
104.968	5.0
104.983	3.0
104.998	3.0
105.013	5.0
105.028	1.0
105.043	4.0
105.058	2.0
105.073	1.0
105.088	4.0
105.103	3.0
105.118	2.0
105.133	6.0
105.147	3.0
105.162	4.0
105.177	4.0
105.192	3.0
105.207	4.0
105.222	2.0
105.237	7.0
105.252	5.0
105.267	4.0
105.282	2.0
105.297	4.0
105.312	4.0
105.327	2.0
105.342	3.0
105.356	4.0
105.371	5.0
105.386	4.0
105.401	3.0
105.416	5.0
105.431	5.0
105.446	4.0
105.461	3.0
105.476	3.0
105.491	6.0
105.506	5.0
105.521	4.0
105.536	2.0
105.551	6.0
105.566	4.0
105.581	5.0
105.595	5.0
105.61	5.0
105.625	3.0
105.64	1.0
105.655	7.0
105.67	2.0
105.685	5.0
105.7	1.0
105.715	6.0
105.73	4.0
105.745	2.0
105.76	4.0
105.775	3.0
105.79	4.0
105.805	5.0
105.82	4.0
105.835	4.0
105.85	1.0
105.864	3.0
105.879	1.0
105.894	2.0
105.909	3.0
105.924	2.0
105.939	5.0
105.954	2.0
105.969	3.0
105.984	3.0
105.999	2.0
106.014	5.0
106.029	3.0
106.044	3.0
106.059	3.0
106.074	2.0
106.089	4.0
106.104	3.0
106.119	3.0
106.134	3.0
106.148	1.0
106.163	5.0
106.178	3.0
106.193	1.0
106.208	0.0
106.223	4.0
106.238	2.0
106.253	2.0
106.268	1.0
106.283	3.0
106.298	2.0
106.313	2.0
106.328	6.0
106.343	2.0
106.358	2.0
106.373	0.0
106.388	3.0
106.403	2.0
106.418	3.0
106.432	3.0
106.447	2.0
106.462	2.0
106.477	3.0
106.492	5.0
106.507	1.0
106.522	3.0
106.537	5.0
106.552	2.0
106.567	5.0
106.582	0.0
106.597	0.0
106.612	6.0
106.627	4.0
106.642	2.0
106.657	4.0
106.672	4.0
106.687	1.0
106.701	2.0
106.716	1.0
106.731	2.0
106.746	2.0
106.761	5.0
106.776	2.0
106.791	5.0
106.806	3.0
106.821	2.0
106.836	2.0
106.851	1.0
106.866	4.0
106.881	8.0
106.896	3.0
106.911	4.0
106.926	7.0
106.941	3.0
106.955	2.0
106.97	5.0
106.985	0.0
107.0	3.0
107.015	2.0
107.03	4.0
107.045	4.0
107.06	4.0
107.075	4.0
107.09	4.0
107.105	2.0
107.12	2.0
107.135	4.0
107.15	3.0
107.165	4.0
107.18	2.0
107.194	2.0
107.209	3.0
107.224	8.0
107.239	1.0
107.254	6.0
107.269	2.0
107.284	0.0
107.299	5.0
107.314	3.0
107.329	3.0
107.344	2.0
107.359	6.0
107.374	4.0
107.389	1.0
107.404	4.0
107.418	5.0
107.433	5.0
107.448	4.0
107.463	2.0
107.478	2.0
107.493	3.0
107.508	5.0
107.523	5.0
107.538	4.0
107.553	5.0
107.568	0.0
107.583	1.0
107.598	5.0
107.613	2.0
107.627	2.0
107.642	2.0
107.657	3.0
107.672	4.0
107.687	2.0
107.702	3.0
107.717	6.0
107.732	2.0
107.747	3.0
107.762	3.0
107.777	1.0
107.792	8.0
107.807	2.0
107.821	3.0
107.836	5.0
107.851	5.0
107.866	0.0
107.881	7.0
107.896	4.0
107.911	0.0
107.926	3.0
107.941	2.0
107.956	3.0
107.971	7.0
107.986	3.0
108.0	7.0
108.015	2.0
108.03	3.0
108.045	5.0
108.06	2.0
108.075	3.0
108.09	1.0
108.105	3.0
108.12	6.0
108.135	2.0
108.15	3.0
108.164	2.0
108.179	6.0
108.194	5.0
108.209	3.0
108.224	2.0
108.239	2.0
108.254	4.0
108.269	4.0
108.284	6.0
108.299	1.0
108.313	3.0
108.328	4.0
108.343	1.0
108.358	3.0
108.373	2.0
108.388	2.0
108.403	3.0
108.418	3.0
108.433	3.0
108.448	4.0
108.462	1.0
108.477	1.0
108.492	3.0
108.507	5.0
108.522	3.0
108.537	2.0
108.552	3.0
108.567	6.0
108.582	0.0
108.597	5.0
108.611	3.0
108.626	2.0
108.641	4.0
108.656	3.0
108.671	5.0
108.686	2.0
108.701	0.0
108.716	4.0
108.731	5.0
108.745	0.0
108.76	1.0
108.775	6.0
108.79	4.0
108.805	4.0
108.82	3.0
108.835	1.0
108.85	3.0
108.865	1.0
108.879	3.0
108.894	3.0
108.909	2.0
108.924	3.0
108.939	3.0
108.954	3.0
108.969	2.0
108.984	4.0
108.999	4.0
109.013	5.0
109.028	3.0
109.043	6.0
109.058	0.0
109.073	9.0
109.088	5.0
109.103	5.0
109.118	1.0
109.133	7.0
109.147	3.0
109.162	7.0
109.177	4.0
109.192	6.0
109.207	5.0
109.222	2.0
109.237	2.0
109.252	5.0
109.267	3.0
109.281	1.0
109.296	1.0
109.311	5.0
109.326	4.0
109.341	1.0
109.356	4.0
109.371	3.0
109.386	1.0
109.4	3.0
109.415	4.0
109.43	4.0
109.445	4.0
109.46	3.0
109.475	5.0
109.49	2.0
109.505	0.0
109.52	2.0
109.534	4.0
109.549	3.0
109.564	5.0
109.579	4.0
109.594	4.0
109.609	3.0
109.624	2.0
109.639	4.0
109.653	3.0
109.668	4.0
109.683	2.0
109.698	4.0
109.713	1.0
109.728	2.0
109.743	1.0
109.758	2.0
109.773	3.0
109.787	2.0
109.802	2.0
109.817	3.0
109.832	1.0
109.847	2.0
109.862	3.0
109.877	6.0
109.892	3.0
109.907	4.0
109.921	5.0
109.936	2.0
109.951	2.0
109.966	3.0
109.981	4.0
109.996	3.0
110.011	3.0
110.026	4.0
110.04	2.0
110.055	4.0
110.07	3.0
110.085	3.0
110.1	1.0
110.115	6.0
110.13	5.0
110.145	3.0
110.16	6.0
110.174	4.0
110.189	1.0
110.204	4.0
110.219	2.0
110.234	0.0
110.249	2.0
110.264	4.0
110.279	7.0
110.294	2.0
110.308	4.0
110.323	3.0
110.338	1.0
110.353	2.0
110.368	4.0
110.383	5.0
110.398	1.0
110.413	5.0
110.428	1.0
110.442	2.0
110.457	1.0
110.472	2.0
110.487	4.0
110.502	5.0
110.517	1.0
110.532	3.0
110.547	4.0
110.561	7.0
110.576	2.0
110.591	7.0
110.606	1.0
110.621	6.0
110.636	2.0
110.651	3.0
110.666	7.0
110.681	3.0
110.695	2.0
110.71	6.0
110.725	3.0
110.74	5.0
110.755	2.0
110.77	4.0
110.785	7.0
110.8	3.0
110.815	6.0
110.829	1.0
110.844	1.0
110.859	10.0
110.874	9.0
110.889	3.0
110.904	3.0
110.919	2.0
110.934	2.0
110.948	2.0
110.963	4.0
110.978	8.0
110.993	3.0
111.008	4.0
111.023	5.0
111.038	2.0
111.053	5.0
111.067	5.0
111.082	3.0
111.097	4.0
111.112	0.0
111.127	1.0
111.142	1.0
111.157	4.0
111.172	4.0
111.186	4.0
111.201	3.0
111.216	2.0
111.231	4.0
111.246	5.0
111.261	2.0
111.276	2.0
111.291	1.0
111.305	1.0
111.32	4.0
111.335	3.0
111.35	1.0
111.365	3.0
111.38	6.0
111.395	7.0
111.41	3.0
111.424	4.0
111.439	4.0
111.454	2.0
111.469	2.0
111.484	5.0
111.499	4.0
111.514	3.0
111.528	3.0
111.543	5.0
111.558	4.0
111.573	4.0
111.588	11.0
111.603	1.0
111.618	4.0
111.633	7.0
111.647	4.0
111.662	6.0
111.677	8.0
111.692	3.0
111.707	2.0
111.722	3.0
111.737	5.0
111.751	5.0
111.766	1.0
111.781	6.0
111.796	3.0
111.811	3.0
111.826	3.0
111.84	5.0
111.855	5.0
111.87	4.0
111.885	4.0
111.9	5.0
111.915	2.0
111.93	2.0
111.944	3.0
111.959	5.0
111.974	3.0
111.989	3.0
112.004	3.0
112.019	3.0
112.033	3.0
112.048	4.0
112.063	0.0
112.078	3.0
112.093	7.0
112.108	4.0
112.123	5.0
112.137	6.0
112.152	3.0
112.167	3.0
112.182	5.0
112.197	4.0
112.212	1.0
112.226	5.0
112.241	0.0
112.256	5.0
112.271	5.0
112.286	1.0
112.301	6.0
112.315	3.0
112.33	5.0
112.345	4.0
112.36	4.0
112.375	3.0
112.389	4.0
112.404	4.0
112.419	4.0
112.434	4.0
112.449	3.0
112.464	4.0
112.478	9.0
112.493	2.0
112.508	1.0
112.523	6.0
112.538	6.0
112.553	8.0
112.567	1.0
112.582	2.0
112.597	6.0
112.612	4.0
112.627	9.0
112.642	6.0
112.656	3.0
112.671	4.0
112.686	4.0
112.701	8.0
112.716	2.0
112.73	2.0
112.745	5.0
112.76	3.0
112.775	4.0
112.79	1.0
112.805	2.0
112.819	2.0
112.834	6.0
112.849	2.0
112.864	5.0
112.879	4.0
112.894	3.0
112.908	0.0
112.923	4.0
112.938	6.0
112.953	4.0
112.968	3.0
112.983	4.0
112.997	4.0
113.012	3.0
113.027	7.0
113.042	0.0
113.057	2.0
113.072	4.0
113.086	5.0
113.101	0.0
113.116	4.0
113.131	2.0
113.146	6.0
113.161	5.0
113.175	5.0
113.19	1.0
113.205	1.0
113.22	4.0
113.235	2.0
113.25	1.0
113.265	4.0
113.279	2.0
113.294	4.0
113.309	2.0
113.324	1.0
113.339	6.0
113.354	5.0
113.368	2.0
113.383	3.0
113.398	1.0
113.413	2.0
113.428	1.0
113.443	6.0
113.458	3.0
113.472	1.0
113.487	3.0
113.502	2.0
113.517	5.0
113.532	2.0
113.547	3.0
113.562	3.0
113.576	0.0
113.591	3.0
113.606	8.0
113.621	7.0
113.636	0.0
113.651	4.0
113.666	5.0
113.681	4.0
113.695	2.0
113.71	0.0
113.725	3.0
113.74	3.0
113.755	2.0
113.77	1.0
113.785	3.0
113.8	3.0
113.814	2.0
113.829	3.0
113.844	6.0
113.859	2.0
113.874	5.0
113.889	4.0
113.904	3.0
113.919	3.0
113.934	5.0
113.949	4.0
113.963	1.0
113.978	5.0
113.993	4.0
114.008	2.0
114.023	7.0
114.038	2.0
114.053	2.0
114.068	0.0
114.083	5.0
114.098	3.0
114.113	1.0
114.127	3.0
114.142	6.0
114.157	4.0
114.172	7.0
114.187	1.0
114.202	1.0
114.217	2.0
114.232	5.0
114.247	0.0
114.262	2.0
114.277	2.0
114.292	8.0
114.307	1.0
114.322	3.0
114.337	4.0
114.351	5.0
114.366	2.0
114.381	7.0
114.396	4.0
114.411	1.0
114.426	2.0
114.441	6.0
114.456	5.0
114.471	4.0
114.486	2.0
114.501	3.0
114.516	6.0
114.531	2.0
114.546	0.0
114.561	2.0
114.576	4.0
114.591	4.0
114.606	5.0
114.621	3.0
114.636	4.0
114.65	5.0
114.665	8.0
114.68	2.0
114.695	3.0
114.71	4.0
114.725	5.0
114.74	1.0
114.755	2.0
114.77	1.0
114.785	1.0
114.8	2.0
114.815	4.0
114.83	4.0
114.845	4.0
114.86	2.0
114.875	0.0
114.89	1.0
114.905	4.0
114.92	7.0
114.935	3.0
114.95	4.0
114.965	3.0
114.98	4.0
114.995	3.0
115.009	3.0
115.024	4.0
115.039	4.0
115.054	2.0
115.069	1.0
115.084	2.0
115.099	2.0
115.114	3.0
115.129	5.0
115.144	1.0
115.159	3.0
115.174	2.0
115.189	5.0
115.204	3.0
115.219	3.0
115.234	4.0
115.249	4.0
115.264	1.0
115.279	3.0
115.294	4.0
115.309	3.0
115.323	5.0
115.338	4.0
115.353	6.0
115.368	4.0
115.383	7.0
115.398	2.0
115.413	3.0
115.428	4.0
115.443	1.0
115.458	6.0
115.473	1.0
115.488	4.0
115.503	7.0
115.518	7.0
115.533	7.0
115.548	3.0
115.562	2.0
115.577	6.0
115.592	3.0
115.607	6.0
115.622	4.0
115.637	5.0
115.652	3.0
115.667	3.0
115.682	5.0
115.697	2.0
115.712	3.0
115.727	1.0
115.741	2.0
115.756	5.0
115.771	6.0
115.786	0.0
115.801	3.0
115.816	0.0
115.831	7.0
115.846	6.0
115.861	3.0
115.875	5.0
115.89	2.0
115.905	4.0
115.92	5.0
115.935	4.0
115.95	4.0
115.965	6.0
115.98	5.0
115.995	1.0
116.009	2.0
116.024	1.0
116.039	4.0
116.054	3.0
116.069	1.0
116.084	2.0
116.099	2.0
116.113	4.0
116.128	3.0
116.143	5.0
116.158	3.0
116.173	4.0
116.188	6.0
116.202	2.0
116.217	2.0
116.232	3.0
116.247	5.0
116.262	6.0
116.277	4.0
116.291	2.0
116.306	3.0
116.321	2.0
116.336	3.0
116.351	8.0
116.366	1.0
116.38	7.0
116.395	3.0
116.41	2.0
116.425	4.0
116.44	3.0
116.454	2.0
116.469	5.0
116.484	3.0
116.499	7.0
116.514	3.0
116.528	3.0
116.543	4.0
116.558	2.0
116.573	4.0
116.588	2.0
116.602	1.0
116.617	5.0
116.632	6.0
116.647	1.0
116.662	8.0
116.676	2.0
116.691	2.0
116.706	5.0
116.721	4.0
116.735	0.0
116.75	5.0
116.765	2.0
116.78	6.0
116.795	2.0
116.809	1.0
116.824	4.0
116.839	1.0
116.854	6.0
116.868	1.0
116.883	2.0
116.898	2.0
116.913	7.0
116.927	1.0
116.942	6.0
116.957	4.0
116.972	1.0
116.986	3.0
117.001	3.0
117.016	5.0
117.031	0.0
117.045	1.0
117.06	3.0
117.075	7.0
117.09	6.0
117.104	2.0
117.119	5.0
117.134	1.0
117.149	3.0
117.163	5.0
117.178	8.0
117.193	8.0
117.208	3.0
117.222	5.0
117.237	3.0
117.252	5.0
117.267	1.0
117.281	3.0
117.296	3.0
117.311	3.0
117.325	3.0
117.34	8.0
117.355	5.0
117.37	2.0
117.384	3.0
117.399	3.0
117.414	5.0
117.429	2.0
117.443	0.0
117.458	2.0
117.473	7.0
117.487	4.0
117.502	0.0
117.517	5.0
117.532	0.0
117.546	5.0
117.561	6.0
117.576	9.0
117.59	3.0
117.605	3.0
117.62	4.0
117.635	2.0
117.649	2.0
117.664	5.0
117.679	4.0
117.693	4.0
117.708	3.0
117.723	2.0
117.738	4.0
117.752	3.0
117.767	1.0
117.782	2.0
117.796	2.0
117.811	2.0
117.826	0.0
117.841	8.0
117.855	4.0
117.87	5.0
117.885	4.0
117.899	1.0
117.914	4.0
117.929	3.0
117.944	3.0
117.958	4.0
117.973	5.0
117.988	4.0
118.002	3.0
118.017	4.0
118.032	2.0
118.047	5.0
118.062	6.0
118.077	7.0
118.092	4.0
118.107	5.0
118.121	3.0
118.136	6.0
118.151	1.0
118.166	3.0
118.181	6.0
118.196	5.0
118.211	2.0
118.225	5.0
118.24	5.0
118.255	3.0
118.27	2.0
118.285	3.0
118.3	4.0
118.315	5.0
118.33	5.0
118.344	4.0
118.359	4.0
118.374	3.0
118.389	6.0
118.404	7.0
118.419	4.0
118.434	10.0
118.449	3.0
118.463	3.0
118.478	3.0
118.493	3.0
118.508	3.0
118.523	7.0
118.538	4.0
118.553	4.0
118.567	7.0
118.582	4.0
118.597	3.0
118.612	5.0
118.627	7.0
118.642	3.0
118.657	4.0
118.672	1.0
118.686	5.0
118.701	4.0
118.716	5.0
118.731	4.0
118.746	4.0
118.761	2.0
118.776	2.0
118.791	2.0
118.805	6.0
118.82	4.0
118.835	3.0
118.85	6.0
118.865	4.0
118.88	2.0
118.895	7.0
118.909	5.0
118.924	6.0
118.939	4.0
118.954	2.0
118.969	6.0
118.984	8.0
118.999	3.0
119.014	4.0
119.028	5.0
119.043	5.0
119.058	4.0
119.073	6.0
119.088	1.0
119.103	2.0
119.118	5.0
119.133	2.0
119.147	3.0
119.162	1.0
119.177	4.0
119.192	3.0
119.207	1.0
119.222	5.0
119.237	4.0
119.251	6.0
119.266	2.0
119.281	6.0
119.296	2.0
119.311	4.0
119.326	5.0
119.341	3.0
119.356	4.0
119.37	4.0
119.385	6.0
119.4	6.0
119.415	4.0
119.43	7.0
119.445	3.0
119.46	6.0
119.475	4.0
119.489	5.0
119.504	6.0
119.519	7.0
119.534	2.0
119.549	3.0
119.564	4.0
119.579	5.0
119.593	0.0
119.608	3.0
119.623	5.0
119.638	1.0
119.653	3.0
119.668	4.0
119.683	2.0
119.698	4.0
119.712	1.0
119.727	1.0
119.742	4.0
119.757	3.0
119.772	2.0
119.787	1.0
119.802	5.0
119.817	3.0
119.831	4.0
119.846	5.0
119.861	2.0
119.876	2.0
119.891	3.0
119.906	1.0
119.921	1.0
119.935	1.0
119.95	0.0
119.965	1.0
119.98	2.0
119.995	3.0
120.01	6.0
120.025	3.0
120.04	2.0
120.054	4.0
120.069	2.0
120.084	2.0
120.099	1.0
120.114	3.0
120.129	2.0
120.144	3.0
120.159	1.0
120.173	3.0
120.188	2.0
120.203	2.0
120.218	0.0
120.233	0.0
120.248	0.0
120.263	1.0
120.277	1.0
120.292	1.0
120.307	0.0
120.322	1.0
120.337	0.0
120.352	0.0
120.367	1.0
120.382	0.0
120.396	0.0
120.411	1.0
120.426	0.0
120.441	0.0
120.456	0.0
120.471	1.0
120.486	0.0
120.501	0.0
120.515	0.0
120.53	0.0
120.545	0.0
120.56	0.0
120.575	0.0
120.59	0.0
120.605	0.0
120.619	0.0
120.634	0.0
120.649	0.0
120.664	0.0
120.679	0.0
120.694	0.0
120.709	0.0
120.724	0.0
120.738	0.0
120.753	0.0
120.768	0.0
120.783	0.0
120.798	0.0
120.813	0.0
120.828	1.0
120.843	0.0
120.857	0.0
120.872	0.0
120.887	0.0
120.902	0.0
120.917	0.0
120.932	0.0
120.947	0.0
120.961	0.0
120.976	0.0
