-1.217	0.0
-1.202	0.0
-1.187	0.0
-1.172	0.0
-1.157	0.0
-1.142	0.0
-1.128	0.0
-1.113	0.0
-1.098	0.0
-1.083	0.0
-1.068	0.0
-1.054	0.0
-1.039	0.0
-1.024	0.0
-1.009	0.0
-0.994	0.0
-0.979	0.0
-0.965	0.0
-0.95	0.0
-0.935	0.0
-0.92	0.0
-0.905	0.0
-0.891	0.0
-0.876	0.0
-0.861	0.0
-0.846	0.0
-0.831	0.0
-0.816	0.0
-0.802	1.0
-0.787	0.0
-0.772	0.0
-0.757	0.0
-0.742	0.0
-0.728	0.0
-0.713	0.0
-0.698	0.0
-0.683	0.0
-0.668	0.0
-0.653	0.0
-0.639	0.0
-0.624	0.0
-0.609	1.0
-0.594	0.0
-0.579	0.0
-0.565	0.0
-0.55	0.0
-0.535	0.0
-0.52	0.0
-0.505	0.0
-0.49	0.0
-0.476	0.0
-0.461	0.0
-0.446	0.0
-0.431	0.0
-0.416	0.0
-0.401	0.0
-0.387	0.0
-0.372	0.0
-0.357	0.0
-0.342	0.0
-0.327	0.0
-0.313	0.0
-0.298	0.0
-0.283	0.0
-0.268	0.0
-0.253	0.0
-0.238	0.0
-0.224	0.0
-0.209	0.0
-0.194	1.0
-0.179	0.0
-0.164	0.0
-0.15	0.0
-0.135	0.0
-0.12	0.0
-0.105	0.0
-0.09	0.0
-0.075	0.0
-0.061	0.0
-0.046	0.0
-0.031	0.0
-0.016	0.0
-0.001	0.0
0.013	0.0
0.028	0.0
0.043	0.0
0.058	0.0
0.073	0.0
0.088	0.0
0.102	0.0
0.117	0.0
0.132	0.0
0.147	0.0
0.162	0.0
0.176	0.0
0.191	0.0
0.206	0.0
0.221	0.0
0.236	0.0
0.251	0.0
0.265	0.0
0.28	0.0
0.295	0.0
0.31	0.0
0.325	0.0
0.339	0.0
0.354	0.0
0.369	0.0
0.384	0.0
0.399	0.0
0.414	0.0
0.428	0.0
0.443	0.0
0.458	0.0
0.473	0.0
0.488	0.0
0.502	0.0
0.517	0.0
0.532	0.0
0.547	0.0
0.562	0.0
0.577	0.0
0.591	0.0
0.606	0.0
0.621	0.0
0.636	0.0
0.651	0.0
0.665	0.0
0.68	0.0
0.695	0.0
0.71	0.0
0.725	0.0
0.74	0.0
0.754	0.0
0.769	0.0
0.784	0.0
0.799	0.0
0.814	0.0
0.828	0.0
0.843	0.0
0.858	0.0
0.873	0.0
0.888	0.0
0.903	0.0
0.917	1.0
0.932	0.0
0.947	0.0
0.962	0.0
0.977	0.0
0.991	0.0
1.006	0.0
1.021	0.0
1.036	0.0
1.051	0.0
1.065	0.0
1.08	0.0
1.095	0.0
1.11	0.0
1.125	0.0
1.14	0.0
1.154	0.0
1.169	0.0
1.184	0.0
1.199	0.0
1.214	0.0
1.228	0.0
1.243	0.0
1.258	0.0
1.273	1.0
1.288	0.0
1.302	0.0
1.317	0.0
1.332	0.0
1.347	1.0
1.362	0.0
1.376	0.0
1.391	0.0
1.406	0.0
1.421	0.0
1.436	0.0
1.45	0.0
1.465	0.0
1.48	1.0
1.495	1.0
1.51	0.0
1.524	0.0
1.539	1.0
1.554	0.0
1.569	1.0
1.584	0.0
1.598	0.0
1.613	0.0
1.628	0.0
1.643	0.0
1.658	0.0
1.672	0.0
1.687	0.0
1.702	0.0
1.717	0.0
1.732	0.0
1.746	0.0
1.761	0.0
1.776	0.0
1.791	0.0
1.806	1.0
1.82	1.0
1.835	0.0
1.85	1.0
1.865	0.0
1.88	0.0
1.894	0.0
1.909	0.0
1.924	0.0
1.939	0.0
1.954	0.0
1.968	1.0
1.983	0.0
1.998	0.0
2.013	0.0
2.028	1.0
2.042	0.0
2.057	0.0
2.072	0.0
2.087	1.0
2.101	0.0
2.116	0.0
2.131	1.0
2.146	0.0
2.161	0.0
2.175	0.0
2.19	0.0
2.205	0.0
2.22	0.0
2.235	1.0
2.249	0.0
2.264	1.0
2.279	0.0
2.294	1.0
2.308	2.0
2.323	1.0
2.338	0.0
2.353	0.0
2.368	1.0
2.382	2.0
2.397	0.0
2.412	3.0
2.427	2.0
2.442	1.0
2.456	0.0
2.471	3.0
2.486	2.0
2.501	2.0
2.515	4.0
2.53	0.0
2.545	0.0
2.56	3.0
2.575	3.0
2.589	1.0
2.604	2.0
2.619	3.0
2.634	1.0
2.649	3.0
2.663	3.0
2.678	1.0
2.693	3.0
2.708	5.0
2.722	7.0
2.737	1.0
2.752	3.0
2.767	7.0
2.782	4.0
2.796	1.0
2.811	2.0
2.826	3.0
2.841	12.0
2.856	4.0
2.87	2.0
2.885	6.0
2.9	2.0
2.915	5.0
2.93	4.0
2.944	3.0
2.959	4.0
2.974	2.0
2.989	5.0
3.004	4.0
3.018	5.0
3.033	3.0
3.048	6.0
3.063	2.0
3.078	5.0
3.092	4.0
3.107	5.0
3.122	6.0
3.137	2.0
3.152	4.0
3.166	4.0
3.181	5.0
3.196	4.0
3.211	1.0
3.226	0.0
3.24	4.0
3.255	2.0
3.27	9.0
3.285	2.0
3.3	8.0
3.315	3.0
3.329	5.0
3.344	5.0
3.359	3.0
3.374	3.0
3.389	5.0
3.403	3.0
3.418	3.0
3.433	5.0
3.448	6.0
3.463	3.0
3.478	4.0
3.492	6.0
3.507	6.0
3.522	7.0
3.537	6.0
3.552	7.0
3.567	8.0
3.581	3.0
3.596	5.0
3.611	4.0
3.626	7.0
3.641	7.0
3.656	3.0
3.671	4.0
3.685	8.0
3.7	6.0
3.715	6.0
3.73	7.0
3.745	11.0
3.76	12.0
3.775	7.0
3.789	2.0
3.804	4.0
3.819	3.0
3.834	6.0
3.849	6.0
3.864	6.0
3.879	4.0
3.894	3.0
3.908	8.0
3.923	3.0
3.938	9.0
3.953	6.0
3.968	12.0
3.983	5.0
3.998	11.0
4.013	9.0
4.027	10.0
4.042	1.0
4.057	13.0
4.072	7.0
4.087	3.0
4.102	5.0
4.117	13.0
4.132	6.0
4.147	5.0
4.162	6.0
4.176	3.0
4.191	6.0
4.206	10.0
4.221	6.0
4.236	7.0
4.251	11.0
4.266	5.0
4.281	11.0
4.296	4.0
4.311	13.0
4.326	7.0
4.341	10.0
4.356	7.0
4.37	9.0
4.385	10.0
4.4	11.0
4.415	7.0
4.43	5.0
4.445	5.0
4.46	12.0
4.475	5.0
4.49	8.0
4.505	4.0
4.52	12.0
4.535	5.0
4.55	8.0
4.565	12.0
4.58	9.0
4.595	8.0
4.61	6.0
4.625	5.0
4.639	11.0
4.654	5.0
4.669	9.0
4.684	5.0
4.699	11.0
4.714	6.0
4.729	5.0
4.744	15.0
4.759	9.0
4.774	6.0
4.789	6.0
4.804	5.0
4.819	6.0
4.834	13.0
4.849	7.0
4.864	8.0
4.879	6.0
4.894	5.0
4.909	7.0
4.924	8.0
4.939	9.0
4.954	9.0
4.969	13.0
4.984	6.0
4.999	10.0
5.014	8.0
5.029	9.0
5.044	12.0
5.059	12.0
5.074	8.0
5.089	9.0
5.104	15.0
5.119	10.0
5.134	7.0
5.149	9.0
5.164	10.0
5.179	7.0
5.194	8.0
5.209	7.0
5.224	8.0
5.239	5.0
5.254	3.0
5.269	12.0
5.284	16.0
5.299	13.0
5.314	9.0
5.329	11.0
5.344	11.0
5.359	5.0
5.374	13.0
5.389	11.0
5.404	10.0
5.419	11.0
5.434	5.0
5.449	7.0
5.464	6.0
5.479	7.0
5.494	8.0
5.509	10.0
5.524	6.0
5.539	11.0
5.554	6.0
5.569	12.0
5.584	10.0
5.599	6.0
5.614	9.0
5.629	10.0
5.644	15.0
5.659	9.0
5.674	9.0
5.689	9.0
5.704	12.0
5.719	8.0
5.734	8.0
5.749	8.0
5.764	8.0
5.779	12.0
5.794	10.0
5.809	7.0
5.824	6.0
5.839	12.0
5.854	11.0
5.869	9.0
5.884	10.0
5.899	8.0
5.914	7.0
5.929	6.0
5.944	11.0
5.959	15.0
5.974	10.0
5.989	10.0
6.004	11.0
6.019	13.0
6.034	12.0
6.049	7.0
6.064	7.0
6.079	8.0
6.094	9.0
6.109	13.0
6.124	11.0
6.139	6.0
6.154	7.0
6.169	8.0
6.184	6.0
6.199	10.0
6.214	8.0
6.229	9.0
6.244	6.0
6.259	8.0
6.274	12.0
6.289	10.0
6.304	6.0
6.319	11.0
6.334	9.0
6.349	9.0
6.364	10.0
6.379	6.0
6.394	9.0
6.409	8.0
6.424	11.0
6.439	7.0
6.454	9.0
6.469	12.0
6.484	14.0
6.499	8.0
6.514	7.0
6.529	8.0
6.544	7.0
6.559	8.0
6.574	8.0
6.589	9.0
6.604	8.0
6.619	6.0
6.634	9.0
6.649	7.0
6.664	12.0
6.679	5.0
6.694	11.0
6.709	10.0
6.724	13.0
6.739	4.0
6.754	11.0
6.769	13.0
6.784	11.0
6.799	8.0
6.814	3.0
6.829	10.0
6.844	3.0
6.859	6.0
6.873	9.0
6.888	12.0
6.903	13.0
6.918	14.0
6.933	7.0
6.948	9.0
6.963	8.0
6.978	6.0
6.993	4.0
7.008	7.0
7.023	9.0
7.038	9.0
7.053	10.0
7.068	10.0
7.083	10.0
7.098	7.0
7.113	13.0
7.128	8.0
7.143	8.0
7.157	9.0
7.172	11.0
7.187	5.0
7.202	10.0
7.217	5.0
7.232	9.0
7.247	7.0
7.262	4.0
7.277	9.0
7.292	5.0
7.307	8.0
7.322	11.0
7.336	10.0
7.351	9.0
7.366	2.0
7.381	9.0
7.396	7.0
7.411	15.0
7.426	7.0
7.441	4.0
7.456	6.0
7.471	10.0
7.485	8.0
7.5	16.0
7.515	12.0
7.53	7.0
7.545	4.0
7.56	13.0
7.575	10.0
7.59	8.0
7.604	11.0
7.619	11.0
7.634	7.0
7.649	8.0
7.664	12.0
7.679	8.0
7.693	6.0
7.708	9.0
7.723	12.0
7.738	9.0
7.753	5.0
7.768	9.0
7.783	12.0
7.797	13.0
7.812	9.0
7.827	4.0
7.842	7.0
7.857	7.0
7.871	7.0
7.886	9.0
7.901	14.0
7.916	16.0
7.931	7.0
7.945	12.0
7.96	9.0
7.975	11.0
7.99	11.0
8.005	13.0
8.019	7.0
8.034	8.0
8.049	4.0
8.064	14.0
8.078	7.0
8.093	10.0
8.108	3.0
8.123	6.0
8.137	11.0
8.152	6.0
8.167	9.0
8.182	11.0
8.196	6.0
8.211	9.0
8.226	7.0
8.241	7.0
8.255	9.0
8.27	11.0
8.285	5.0
8.3	14.0
8.314	4.0
8.329	11.0
8.344	13.0
8.358	7.0
8.373	12.0
8.388	11.0
8.403	14.0
8.417	11.0
8.432	5.0
8.447	8.0
8.461	5.0
8.476	7.0
8.491	8.0
8.505	8.0
8.52	6.0
8.535	9.0
8.55	4.0
8.564	8.0
8.579	6.0
8.594	6.0
8.608	10.0
8.623	5.0
8.638	7.0
8.652	10.0
8.667	6.0
8.682	10.0
8.696	7.0
8.711	8.0
8.726	13.0
8.74	11.0
8.755	10.0
8.77	4.0
8.784	8.0
8.799	13.0
8.814	8.0
8.828	4.0
8.843	12.0
8.858	11.0
8.872	13.0
8.887	8.0
8.902	3.0
8.916	12.0
8.931	9.0
8.946	7.0
8.96	7.0
8.975	12.0
8.99	6.0
9.004	9.0
9.019	3.0
9.034	5.0
9.048	10.0
9.063	10.0
9.077	10.0
9.092	7.0
9.107	16.0
9.121	9.0
9.136	10.0
9.151	7.0
9.165	10.0
9.18	9.0
9.195	9.0
9.209	7.0
9.224	10.0
9.239	7.0
9.253	16.0
9.268	14.0
9.283	6.0
9.297	7.0
9.312	9.0
9.327	7.0
9.341	8.0
9.356	8.0
9.371	4.0
9.385	14.0
9.4	6.0
9.415	7.0
9.429	4.0
9.444	7.0
9.458	5.0
9.473	8.0
9.488	9.0
9.502	9.0
9.517	9.0
9.532	5.0
9.546	4.0
9.561	4.0
9.576	7.0
9.59	12.0
9.605	7.0
9.62	8.0
9.635	8.0
9.649	2.0
9.664	9.0
9.679	10.0
9.693	6.0
9.708	10.0
9.723	7.0
9.737	13.0
9.752	5.0
9.767	11.0
9.781	8.0
9.796	10.0
9.811	9.0
9.825	11.0
9.84	12.0
9.855	9.0
9.87	6.0
9.884	9.0
9.899	6.0
9.914	7.0
9.928	5.0
9.943	13.0
9.958	12.0
9.973	20.0
9.987	10.0
10.002	15.0
10.017	10.0
10.031	9.0
10.046	10.0
10.061	8.0
10.076	9.0
10.09	8.0
10.105	6.0
10.12	11.0
10.135	6.0
10.149	12.0
10.164	7.0
10.179	4.0
10.194	5.0
10.208	8.0
10.223	12.0
10.238	8.0
10.253	10.0
10.267	9.0
10.282	11.0
10.297	11.0
10.312	13.0
10.326	8.0
10.341	10.0
10.356	5.0
10.371	2.0
10.386	8.0
10.4	7.0
10.415	5.0
10.43	9.0
10.445	5.0
10.46	4.0
10.474	4.0
10.489	8.0
10.504	6.0
10.519	11.0
10.533	5.0
10.548	6.0
10.563	12.0
10.578	8.0
10.593	5.0
10.608	9.0
10.622	9.0
10.637	10.0
10.652	9.0
10.667	7.0
10.682	9.0
10.696	4.0
10.711	5.0
10.726	10.0
10.741	6.0
10.756	7.0
10.771	7.0
10.785	11.0
10.8	10.0
10.815	5.0
10.83	10.0
10.845	10.0
10.86	7.0
10.874	5.0
10.889	11.0
10.904	7.0
10.919	8.0
10.934	6.0
10.949	5.0
10.963	5.0
10.978	8.0
10.993	9.0
11.008	4.0
11.023	7.0
11.038	8.0
11.053	7.0
11.067	6.0
11.082	8.0
11.097	8.0
11.112	12.0
11.127	8.0
11.142	9.0
11.157	8.0
11.172	5.0
11.186	7.0
11.201	11.0
11.216	6.0
11.231	8.0
11.246	7.0
11.261	2.0
11.276	12.0
11.291	12.0
11.305	9.0
11.32	12.0
11.335	6.0
11.35	9.0
11.365	4.0
11.38	5.0
11.395	5.0
11.41	5.0
11.424	2.0
11.439	16.0
11.454	7.0
11.469	8.0
11.484	10.0
11.499	5.0
11.514	8.0
11.529	15.0
11.544	10.0
11.558	6.0
11.573	3.0
11.588	12.0
11.603	9.0
11.618	10.0
11.633	3.0
11.648	10.0
11.663	9.0
11.678	7.0
11.693	12.0
11.707	9.0
11.722	12.0
11.737	4.0
11.752	6.0
11.767	8.0
11.782	15.0
11.797	7.0
11.812	6.0
11.827	7.0
11.842	5.0
11.856	7.0
11.871	8.0
11.886	12.0
11.901	11.0
11.916	14.0
11.931	13.0
11.946	6.0
11.961	7.0
11.976	3.0
11.991	12.0
12.006	14.0
12.02	4.0
12.035	10.0
12.05	8.0
12.065	11.0
12.08	10.0
12.095	10.0
12.11	10.0
12.125	8.0
12.14	11.0
12.155	16.0
12.17	8.0
12.184	11.0
12.199	11.0
12.214	18.0
12.229	13.0
12.244	13.0
12.259	8.0
12.274	13.0
12.289	12.0
12.304	13.0
12.319	12.0
12.334	16.0
12.348	10.0
12.363	8.0
12.378	8.0
12.393	12.0
12.408	16.0
12.423	16.0
12.438	16.0
12.453	13.0
12.468	18.0
12.483	11.0
12.498	4.0
12.513	10.0
12.527	8.0
12.542	10.0
12.557	10.0
12.572	16.0
12.587	8.0
12.602	17.0
12.617	9.0
12.632	12.0
12.647	12.0
12.662	18.0
12.677	19.0
12.692	8.0
12.707	10.0
12.721	20.0
12.736	9.0
12.751	10.0
12.766	11.0
12.781	16.0
12.796	10.0
12.811	9.0
12.826	13.0
12.841	16.0
12.856	12.0
12.871	8.0
12.886	15.0
12.9	14.0
12.915	14.0
12.93	12.0
12.945	16.0
12.96	11.0
12.975	10.0
12.99	15.0
13.005	24.0
13.02	19.0
13.035	15.0
13.05	15.0
13.065	23.0
13.08	14.0
13.094	18.0
13.109	11.0
13.124	22.0
13.139	17.0
13.154	15.0
13.169	22.0
13.184	16.0
13.199	15.0
13.214	19.0
13.229	19.0
13.244	17.0
13.259	15.0
13.274	12.0
13.288	20.0
13.303	16.0
13.318	19.0
13.333	17.0
13.348	23.0
13.363	21.0
13.378	13.0
13.393	29.0
13.408	26.0
13.423	19.0
13.438	22.0
13.453	37.0
13.468	33.0
13.482	39.0
13.497	30.0
13.512	34.0
13.527	31.0
13.542	43.0
13.557	42.0
13.572	37.0
13.587	65.0
13.602	54.0
13.617	74.0
13.632	48.0
13.647	69.0
13.662	88.0
13.677	88.0
13.691	85.0
13.706	106.0
13.721	95.0
13.736	101.0
13.751	116.0
13.766	109.0
13.781	126.0
13.796	139.0
13.811	131.0
13.826	123.0
13.841	144.0
13.856	125.0
13.871	115.0
13.885	109.0
13.9	97.0
13.915	95.0
13.93	90.0
13.945	58.0
13.96	59.0
13.975	55.0
13.99	38.0
14.005	40.0
14.02	25.0
14.035	26.0
14.05	27.0
14.065	25.0
14.08	27.0
14.094	21.0
14.109	24.0
14.124	21.0
14.139	17.0
14.154	24.0
14.169	23.0
14.184	22.0
14.199	16.0
14.214	16.0
14.229	25.0
14.244	20.0
14.259	25.0
14.274	20.0
14.288	16.0
14.303	22.0
14.318	21.0
14.333	16.0
14.348	20.0
14.363	21.0
14.378	21.0
14.393	16.0
14.408	21.0
14.423	23.0
14.438	21.0
14.453	29.0
14.468	30.0
14.482	18.0
14.497	12.0
14.512	18.0
14.527	5.0
14.542	6.0
14.557	15.0
14.572	10.0
14.587	16.0
14.602	17.0
14.617	20.0
14.632	19.0
14.647	15.0
14.661	15.0
14.676	14.0
14.691	15.0
14.706	18.0
14.721	12.0
14.736	17.0
14.751	12.0
14.766	6.0
14.781	21.0
14.796	14.0
14.811	11.0
14.826	21.0
14.84	19.0
14.855	7.0
14.87	17.0
14.885	14.0
14.9	15.0
14.915	18.0
14.93	6.0
14.945	19.0
14.96	16.0
14.975	18.0
14.989	16.0
15.004	12.0
15.019	13.0
15.034	13.0
15.049	11.0
15.064	17.0
15.079	14.0
15.094	11.0
15.109	18.0
15.124	22.0
15.138	13.0
15.153	13.0
15.168	14.0
15.183	9.0
15.198	15.0
15.213	11.0
15.228	14.0
15.243	11.0
15.258	13.0
15.272	7.0
15.287	18.0
15.302	14.0
15.317	17.0
15.332	12.0
15.347	10.0
15.362	10.0
15.377	19.0
15.391	13.0
15.406	14.0
15.421	17.0
15.436	13.0
15.451	12.0
15.466	19.0
15.481	18.0
15.496	13.0
15.51	15.0
15.525	15.0
15.54	13.0
15.555	14.0
15.57	10.0
15.585	16.0
15.6	20.0
15.614	15.0
15.629	10.0
15.644	15.0
15.659	11.0
15.674	15.0
15.689	16.0
15.704	17.0
15.718	14.0
15.733	18.0
15.748	13.0
15.763	16.0
15.778	11.0
15.793	12.0
15.808	16.0
15.822	14.0
15.837	14.0
15.852	12.0
15.867	14.0
15.882	14.0
15.897	16.0
15.911	12.0
15.926	21.0
15.941	9.0
15.956	12.0
15.971	14.0
15.986	15.0
16.0	10.0
16.015	16.0
16.03	8.0
16.045	8.0
16.06	16.0
16.074	9.0
16.089	17.0
16.104	16.0
16.119	16.0
16.134	15.0
16.149	11.0
16.163	12.0
16.178	17.0
16.193	13.0
16.208	17.0
16.223	14.0
16.237	9.0
16.252	12.0
16.267	24.0
16.282	14.0
16.297	20.0
16.311	8.0
16.326	15.0
16.341	15.0
16.356	9.0
16.37	14.0
16.385	17.0
16.4	21.0
16.415	13.0
16.43	12.0
16.444	8.0
16.459	4.0
16.474	15.0
16.489	17.0
16.504	21.0
16.518	16.0
16.533	16.0
16.548	12.0
16.563	22.0
16.577	18.0
16.592	18.0
16.607	18.0
16.622	18.0
16.637	21.0
16.651	16.0
16.666	21.0
16.681	18.0
16.696	40.0
16.71	26.0
16.725	26.0
16.74	29.0
16.755	32.0
16.77	45.0
16.784	40.0
16.799	45.0
16.814	38.0
16.829	53.0
16.843	41.0
16.858	48.0
16.873	55.0
16.888	61.0
16.902	64.0
16.917	67.0
16.932	88.0
16.947	78.0
16.961	79.0
16.976	72.0
16.991	58.0
17.006	61.0
17.021	47.0
17.035	60.0
17.05	54.0
17.065	48.0
17.08	41.0
17.094	35.0
17.109	35.0
17.124	34.0
17.139	28.0
17.153	22.0
17.168	21.0
17.183	26.0
17.198	18.0
17.212	27.0
17.227	16.0
17.242	19.0
17.257	19.0
17.271	16.0
17.286	20.0
17.301	17.0
17.316	23.0
17.33	10.0
17.345	18.0
17.36	15.0
17.375	20.0
17.39	14.0
17.404	15.0
17.419	13.0
17.434	13.0
17.449	14.0
17.463	12.0
17.478	18.0
17.493	17.0
17.508	10.0
17.522	12.0
17.537	12.0
17.552	11.0
17.567	13.0
17.581	14.0
17.596	18.0
17.611	17.0
17.626	18.0
17.641	15.0
17.655	16.0
17.67	13.0
17.685	11.0
17.7	18.0
17.714	14.0
17.729	19.0
17.744	8.0
17.759	10.0
17.773	21.0
17.788	13.0
17.803	11.0
17.818	19.0
17.833	11.0
17.847	9.0
17.862	14.0
17.877	14.0
17.892	8.0
17.906	8.0
17.921	4.0
17.936	13.0
17.951	10.0
17.966	15.0
17.98	16.0
17.995	12.0
18.01	17.0
18.025	10.0
18.04	12.0
18.054	14.0
18.069	16.0
18.084	13.0
18.099	9.0
18.114	18.0
18.128	14.0
18.143	12.0
18.158	12.0
18.173	13.0
18.188	21.0
18.202	10.0
18.217	5.0
18.232	13.0
18.247	10.0
18.262	13.0
18.276	12.0
18.291	11.0
18.306	16.0
18.321	12.0
18.336	11.0
18.35	14.0
18.365	10.0
18.38	10.0
18.395	15.0
18.41	16.0
18.424	9.0
18.439	5.0
18.454	17.0
18.469	16.0
18.484	7.0
18.498	14.0
18.513	6.0
18.528	13.0
18.543	13.0
18.558	16.0
18.573	8.0
18.587	6.0
18.602	14.0
18.617	9.0
18.632	8.0
18.647	9.0
18.661	10.0
18.676	16.0
18.691	10.0
18.706	12.0
18.721	17.0
18.736	8.0
18.75	10.0
18.765	18.0
18.78	11.0
18.795	9.0
18.81	9.0
18.825	10.0
18.839	7.0
18.854	11.0
18.869	18.0
18.884	12.0
18.899	11.0
18.913	15.0
18.928	9.0
18.943	10.0
18.958	8.0
18.973	13.0
18.988	4.0
19.002	12.0
19.017	16.0
19.032	13.0
19.047	8.0
19.062	12.0
19.077	5.0
19.091	16.0
19.106	14.0
19.121	12.0
19.136	2.0
19.151	12.0
19.165	10.0
19.18	16.0
19.195	11.0
19.21	10.0
19.225	17.0
19.24	12.0
19.254	12.0
19.269	15.0
19.284	16.0
19.299	16.0
19.314	11.0
19.329	13.0
19.343	16.0
19.358	19.0
19.373	11.0
19.388	13.0
19.403	20.0
19.417	22.0
19.432	23.0
19.447	27.0
19.462	29.0
19.477	26.0
19.492	24.0
19.506	33.0
19.521	32.0
19.536	38.0
19.551	39.0
19.566	43.0
19.58	44.0
19.595	38.0
19.61	45.0
19.625	30.0
19.64	51.0
19.655	40.0
19.669	37.0
19.684	31.0
19.699	28.0
19.714	23.0
19.729	24.0
19.743	23.0
19.758	23.0
19.773	19.0
19.788	16.0
19.803	14.0
19.817	17.0
19.832	12.0
19.847	13.0
19.862	14.0
19.877	10.0
19.891	17.0
19.906	13.0
19.921	14.0
19.936	7.0
19.951	15.0
19.965	12.0
19.98	7.0
19.995	12.0
20.01	10.0
20.025	13.0
20.039	14.0
20.054	9.0
20.069	18.0
20.084	13.0
20.099	15.0
20.113	9.0
20.128	5.0
20.143	17.0
20.158	16.0
20.173	10.0
20.187	8.0
20.202	12.0
20.217	14.0
20.232	8.0
20.246	12.0
20.261	13.0
20.276	8.0
20.291	10.0
20.306	8.0
20.32	9.0
20.335	13.0
20.35	14.0
20.365	13.0
20.38	7.0
20.394	9.0
20.409	15.0
20.424	9.0
20.439	7.0
20.453	14.0
20.468	14.0
20.483	15.0
20.498	9.0
20.513	10.0
20.527	15.0
20.542	9.0
20.557	10.0
20.572	7.0
20.586	12.0
20.601	6.0
20.616	11.0
20.631	10.0
20.646	15.0
20.66	9.0
20.675	5.0
20.69	9.0
20.705	4.0
20.719	15.0
20.734	15.0
20.749	11.0
20.764	11.0
20.779	10.0
20.793	9.0
20.808	12.0
20.823	10.0
20.838	5.0
20.853	13.0
20.867	9.0
20.882	6.0
20.897	10.0
20.912	15.0
20.926	9.0
20.941	9.0
20.956	10.0
20.971	6.0
20.986	11.0
21.0	10.0
21.015	9.0
21.03	14.0
21.045	9.0
21.06	11.0
21.074	14.0
21.089	11.0
21.104	12.0
21.119	14.0
21.134	15.0
21.148	9.0
21.163	6.0
21.178	14.0
21.193	11.0
21.208	11.0
21.222	13.0
21.237	13.0
21.252	9.0
21.267	7.0
21.282	12.0
21.296	7.0
21.311	10.0
21.326	8.0
21.341	12.0
21.356	22.0
21.37	14.0
21.385	9.0
21.4	12.0
21.415	8.0
21.43	12.0
21.444	7.0
21.459	8.0
21.474	12.0
21.489	8.0
21.504	9.0
21.519	11.0
21.533	15.0
21.548	17.0
21.563	19.0
21.578	11.0
21.593	16.0
21.608	13.0
21.622	18.0
21.637	17.0
21.652	18.0
21.667	23.0
21.682	22.0
21.697	20.0
21.712	14.0
21.726	17.0
21.741	27.0
21.756	20.0
21.771	30.0
21.786	32.0
21.801	30.0
21.816	34.0
21.83	48.0
21.845	56.0
21.86	46.0
21.875	71.0
21.89	78.0
21.905	74.0
21.92	78.0
21.935	71.0
21.949	89.0
21.964	92.0
21.979	83.0
21.994	92.0
22.009	71.0
22.024	76.0
22.039	66.0
22.054	49.0
22.069	52.0
22.083	51.0
22.098	44.0
22.113	42.0
22.128	30.0
22.143	28.0
22.158	26.0
22.173	15.0
22.188	18.0
22.203	18.0
22.218	20.0
22.233	11.0
22.248	15.0
22.262	15.0
22.277	15.0
22.292	13.0
22.307	16.0
22.322	18.0
22.337	17.0
22.352	11.0
22.367	13.0
22.382	18.0
22.397	12.0
22.412	15.0
22.427	11.0
22.442	15.0
22.457	8.0
22.472	17.0
22.487	10.0
22.502	12.0
22.516	11.0
22.531	13.0
22.546	15.0
22.561	14.0
22.576	15.0
22.591	11.0
22.606	7.0
22.621	11.0
22.636	15.0
22.651	4.0
22.666	13.0
22.681	13.0
22.696	12.0
22.711	10.0
22.726	14.0
22.741	10.0
22.756	15.0
22.771	11.0
22.786	8.0
22.801	9.0
22.816	13.0
22.831	10.0
22.846	6.0
22.861	9.0
22.876	6.0
22.891	11.0
22.906	7.0
22.92	7.0
22.935	12.0
22.95	14.0
22.965	8.0
22.98	10.0
22.995	11.0
23.01	16.0
23.025	7.0
23.04	12.0
23.055	9.0
23.07	9.0
23.085	7.0
23.1	12.0
23.115	9.0
23.13	5.0
23.145	7.0
23.16	4.0
23.175	11.0
23.19	11.0
23.205	14.0
23.22	10.0
23.235	12.0
23.25	9.0
23.265	6.0
23.28	15.0
23.295	10.0
23.31	11.0
23.325	7.0
23.34	12.0
23.355	8.0
23.37	14.0
23.384	8.0
23.399	10.0
23.414	9.0
23.429	13.0
23.444	10.0
23.459	8.0
23.474	16.0
23.489	9.0
23.504	7.0
23.519	13.0
23.534	10.0
23.549	6.0
23.564	14.0
23.579	9.0
23.594	8.0
23.609	8.0
23.624	14.0
23.639	6.0
23.654	10.0
23.668	11.0
23.683	18.0
23.698	15.0
23.713	12.0
23.728	18.0
23.743	17.0
23.758	13.0
23.773	9.0
23.788	11.0
23.803	10.0
23.818	16.0
23.833	11.0
23.848	11.0
23.862	12.0
23.877	18.0
23.892	11.0
23.907	25.0
23.922	22.0
23.937	34.0
23.952	34.0
23.967	27.0
23.982	37.0
23.997	34.0
24.011	45.0
24.026	42.0
24.041	46.0
24.056	42.0
24.071	48.0
24.086	45.0
24.101	41.0
24.116	40.0
24.131	44.0
24.145	46.0
24.16	49.0
24.175	35.0
24.19	21.0
24.205	36.0
24.22	26.0
24.235	20.0
24.249	19.0
24.264	21.0
24.279	32.0
24.294	21.0
24.309	23.0
24.324	21.0
24.338	22.0
24.353	10.0
24.368	9.0
24.383	18.0
24.398	24.0
24.413	13.0
24.428	11.0
24.442	10.0
24.457	9.0
24.472	12.0
24.487	11.0
24.502	12.0
24.516	9.0
24.531	10.0
24.546	10.0
24.561	15.0
24.576	9.0
24.591	12.0
24.605	9.0
24.62	15.0
24.635	13.0
24.65	16.0
24.665	7.0
24.679	12.0
24.694	19.0
24.709	12.0
24.724	5.0
24.739	11.0
24.753	15.0
24.768	9.0
24.783	15.0
24.798	14.0
24.813	9.0
24.827	11.0
24.842	13.0
24.857	12.0
24.872	13.0
24.886	9.0
24.901	15.0
24.916	13.0
24.931	13.0
24.946	9.0
24.96	10.0
24.975	5.0
24.99	6.0
25.005	7.0
25.019	11.0
25.034	12.0
25.049	11.0
25.064	7.0
25.078	13.0
25.093	11.0
25.108	7.0
25.123	14.0
25.138	14.0
25.152	12.0
25.167	14.0
25.182	10.0
25.197	8.0
25.211	8.0
25.226	16.0
25.241	5.0
25.256	3.0
25.27	14.0
25.285	11.0
25.3	11.0
25.315	14.0
25.329	12.0
25.344	7.0
25.359	9.0
25.374	7.0
25.388	11.0
25.403	10.0
25.418	11.0
25.433	10.0
25.447	13.0
25.462	10.0
25.477	10.0
25.492	11.0
25.506	10.0
25.521	14.0
25.536	9.0
25.55	7.0
25.565	11.0
25.58	8.0
25.595	8.0
25.609	8.0
25.624	11.0
25.639	19.0
25.654	8.0
25.668	14.0
25.683	7.0
25.698	12.0
25.713	6.0
25.727	12.0
25.742	7.0
25.757	11.0
25.772	10.0
25.786	11.0
25.801	9.0
25.816	6.0
25.83	4.0
25.845	12.0
25.86	2.0
25.875	8.0
25.889	14.0
25.904	11.0
25.919	12.0
25.934	13.0
25.948	7.0
25.963	13.0
25.978	6.0
25.992	12.0
26.007	13.0
26.022	13.0
26.037	9.0
26.051	11.0
26.066	8.0
26.081	8.0
26.096	13.0
26.11	22.0
26.125	12.0
26.14	21.0
26.155	12.0
26.169	10.0
26.184	14.0
26.199	18.0
26.213	5.0
26.228	2.0
26.243	15.0
26.258	7.0
26.272	9.0
26.287	7.0
26.302	12.0
26.317	14.0
26.331	12.0
26.346	11.0
26.361	14.0
26.376	15.0
26.39	11.0
26.405	11.0
26.42	9.0
26.434	12.0
26.449	15.0
26.464	7.0
26.479	9.0
26.493	10.0
26.508	4.0
26.523	11.0
26.538	6.0
26.552	9.0
26.567	8.0
26.582	9.0
26.597	10.0
26.611	8.0
26.626	9.0
26.641	14.0
26.656	6.0
26.67	8.0
26.685	10.0
26.7	6.0
26.715	7.0
26.729	8.0
26.744	7.0
26.759	2.0
26.773	8.0
26.788	10.0
26.803	4.0
26.818	10.0
26.832	10.0
26.847	8.0
26.862	7.0
26.877	8.0
26.891	9.0
26.906	8.0
26.921	12.0
26.936	7.0
26.95	8.0
26.965	10.0
26.98	15.0
26.995	9.0
27.01	10.0
27.024	6.0
27.039	5.0
27.054	9.0
27.069	9.0
27.083	7.0
27.098	10.0
27.113	11.0
27.128	7.0
27.142	17.0
27.157	10.0
27.172	6.0
27.187	8.0
27.201	10.0
27.216	6.0
27.231	10.0
27.246	9.0
27.261	7.0
27.275	11.0
27.29	8.0
27.305	7.0
27.32	8.0
27.334	11.0
27.349	12.0
27.364	8.0
27.379	16.0
27.394	7.0
27.408	14.0
27.423	12.0
27.438	12.0
27.453	10.0
27.467	12.0
27.482	14.0
27.497	13.0
27.512	8.0
27.527	9.0
27.541	12.0
27.556	7.0
27.571	11.0
27.586	9.0
27.601	8.0
27.615	9.0
27.63	16.0
27.645	15.0
27.66	14.0
27.675	7.0
27.689	9.0
27.704	13.0
27.719	21.0
27.734	15.0
27.749	14.0
27.763	15.0
27.778	21.0
27.793	13.0
27.808	19.0
27.823	22.0
27.838	20.0
27.852	28.0
27.867	17.0
27.882	21.0
27.897	15.0
27.912	26.0
27.926	26.0
27.941	17.0
27.956	19.0
27.971	24.0
27.986	14.0
28.001	14.0
28.015	20.0
28.03	18.0
28.045	12.0
28.06	19.0
28.075	20.0
28.09	17.0
28.105	16.0
28.119	15.0
28.134	14.0
28.149	3.0
28.164	20.0
28.179	11.0
28.194	15.0
28.208	12.0
28.223	20.0
28.238	15.0
28.253	11.0
28.268	3.0
28.283	11.0
28.298	3.0
28.312	8.0
28.327	12.0
28.342	12.0
28.357	6.0
28.372	14.0
28.387	10.0
28.402	18.0
28.417	11.0
28.431	10.0
28.446	12.0
28.461	7.0
28.476	12.0
28.491	13.0
28.506	13.0
28.521	5.0
28.536	12.0
28.55	11.0
28.565	6.0
28.58	9.0
28.595	10.0
28.61	13.0
28.625	12.0
28.64	5.0
28.655	11.0
28.669	15.0
28.684	15.0
28.699	10.0
28.714	12.0
28.729	21.0
28.744	12.0
28.759	12.0
28.774	6.0
28.788	10.0
28.803	10.0
28.818	5.0
28.833	9.0
28.848	13.0
28.863	12.0
28.878	12.0
28.893	7.0
28.908	9.0
28.922	9.0
28.937	11.0
28.952	7.0
28.967	9.0
28.982	9.0
28.997	11.0
29.012	14.0
29.027	13.0
29.041	10.0
29.056	13.0
29.071	10.0
29.086	12.0
29.101	8.0
29.116	14.0
29.131	11.0
29.146	14.0
29.16	9.0
29.175	8.0
29.19	11.0
29.205	13.0
29.22	9.0
29.235	15.0
29.25	15.0
29.265	5.0
29.279	13.0
29.294	8.0
29.309	9.0
29.324	12.0
29.339	13.0
29.354	17.0
29.369	18.0
29.384	17.0
29.398	13.0
29.413	22.0
29.428	20.0
29.443	18.0
29.458	21.0
29.473	25.0
29.488	22.0
29.502	22.0
29.517	41.0
29.532	36.0
29.547	36.0
29.562	45.0
29.577	42.0
29.592	42.0
29.606	48.0
29.621	42.0
29.636	47.0
29.651	37.0
29.666	50.0
29.681	61.0
29.695	53.0
29.71	39.0
29.725	34.0
29.74	33.0
29.755	39.0
29.77	48.0
29.784	25.0
29.799	37.0
29.814	29.0
29.829	29.0
29.844	28.0
29.859	33.0
29.873	22.0
29.888	25.0
29.903	21.0
29.918	19.0
29.933	13.0
29.947	12.0
29.962	8.0
29.977	19.0
29.992	14.0
30.007	17.0
30.021	13.0
30.036	17.0
30.051	9.0
30.066	12.0
30.081	15.0
30.095	6.0
30.11	12.0
30.125	17.0
30.14	10.0
30.155	10.0
30.169	14.0
30.184	13.0
30.199	14.0
30.214	8.0
30.228	8.0
30.243	10.0
30.258	15.0
30.273	17.0
30.288	11.0
30.302	13.0
30.317	7.0
30.332	13.0
30.347	8.0
30.361	7.0
30.376	6.0
30.391	21.0
30.406	10.0
30.42	4.0
30.435	11.0
30.45	9.0
30.465	7.0
30.479	7.0
30.494	11.0
30.509	12.0
30.524	8.0
30.538	19.0
30.553	8.0
30.568	9.0
30.583	10.0
30.597	9.0
30.612	12.0
30.627	6.0
30.641	13.0
30.656	12.0
30.671	7.0
30.686	9.0
30.7	6.0
30.715	11.0
30.73	10.0
30.745	7.0
30.759	13.0
30.774	10.0
30.789	7.0
30.803	10.0
30.818	7.0
30.833	13.0
30.848	19.0
30.862	10.0
30.877	11.0
30.892	12.0
30.906	12.0
30.921	9.0
30.936	10.0
30.951	12.0
30.965	9.0
30.98	14.0
30.995	9.0
31.009	13.0
31.024	11.0
31.039	10.0
31.053	9.0
31.068	15.0
31.083	9.0
31.098	15.0
31.112	15.0
31.127	20.0
31.142	23.0
31.156	20.0
31.171	23.0
31.186	27.0
31.2	27.0
31.215	33.0
31.23	28.0
31.245	31.0
31.259	46.0
31.274	33.0
31.289	39.0
31.303	29.0
31.318	30.0
31.333	33.0
31.347	38.0
31.362	29.0
31.377	28.0
31.392	23.0
31.406	25.0
31.421	22.0
31.436	16.0
31.45	29.0
31.465	21.0
31.48	20.0
31.494	17.0
31.509	27.0
31.524	18.0
31.538	17.0
31.553	16.0
31.568	14.0
31.583	11.0
31.597	17.0
31.612	14.0
31.627	14.0
31.641	9.0
31.656	7.0
31.671	7.0
31.685	12.0
31.7	16.0
31.715	14.0
31.729	13.0
31.744	13.0
31.759	14.0
31.774	13.0
31.788	10.0
31.803	15.0
31.818	11.0
31.832	11.0
31.847	11.0
31.862	10.0
31.876	9.0
31.891	10.0
31.906	11.0
31.92	15.0
31.935	10.0
31.95	20.0
31.965	12.0
31.979	12.0
31.994	10.0
32.009	12.0
32.023	8.0
32.038	16.0
32.053	12.0
32.067	4.0
32.082	11.0
32.097	13.0
32.112	8.0
32.126	9.0
32.141	10.0
32.156	7.0
32.17	15.0
32.185	4.0
32.2	13.0
32.214	12.0
32.229	9.0
32.244	10.0
32.259	8.0
32.273	5.0
32.288	9.0
32.303	6.0
32.317	11.0
32.332	4.0
32.347	10.0
32.362	10.0
32.376	5.0
32.391	13.0
32.406	16.0
32.42	11.0
32.435	10.0
32.45	7.0
32.465	9.0
32.479	11.0
32.494	8.0
32.509	9.0
32.523	9.0
32.538	10.0
32.553	7.0
32.568	9.0
32.582	9.0
32.597	14.0
32.612	13.0
32.627	18.0
32.641	13.0
32.656	13.0
32.671	18.0
32.685	13.0
32.7	12.0
32.715	17.0
32.73	15.0
32.744	18.0
32.759	14.0
32.774	22.0
32.788	21.0
32.803	25.0
32.818	30.0
32.833	22.0
32.847	26.0
32.862	29.0
32.877	19.0
32.892	31.0
32.906	15.0
32.921	28.0
32.936	22.0
32.951	15.0
32.965	28.0
32.98	14.0
32.995	13.0
33.009	20.0
33.024	19.0
33.039	27.0
33.054	20.0
33.068	23.0
33.083	14.0
33.098	19.0
33.113	19.0
33.127	10.0
33.142	8.0
33.157	16.0
33.172	10.0
33.186	6.0
33.201	15.0
33.216	8.0
33.231	11.0
33.245	11.0
33.26	6.0
33.275	7.0
33.29	11.0
33.304	15.0
33.319	10.0
33.334	10.0
33.349	11.0
33.363	10.0
33.378	8.0
33.393	7.0
33.408	11.0
33.422	12.0
33.437	11.0
33.452	12.0
33.467	8.0
33.481	5.0
33.496	9.0
33.511	9.0
33.526	6.0
33.54	15.0
33.555	7.0
33.57	12.0
33.585	10.0
33.599	8.0
33.614	8.0
33.629	11.0
33.644	7.0
33.658	4.0
33.673	11.0
33.688	10.0
33.703	11.0
33.718	3.0
33.732	9.0
33.747	9.0
33.762	10.0
33.777	7.0
33.791	11.0
33.806	9.0
33.821	12.0
33.836	5.0
33.85	10.0
33.865	13.0
33.88	21.0
33.895	11.0
33.91	11.0
33.924	11.0
33.939	7.0
33.954	13.0
33.969	8.0
33.983	13.0
33.998	12.0
34.013	4.0
34.028	13.0
34.042	9.0
34.057	7.0
34.072	14.0
34.087	17.0
34.102	11.0
34.116	12.0
34.131	11.0
34.146	12.0
34.161	11.0
34.175	12.0
34.19	14.0
34.205	14.0
34.22	14.0
34.235	11.0
34.249	12.0
34.264	10.0
34.279	11.0
34.294	15.0
34.309	19.0
34.323	16.0
34.338	16.0
34.353	9.0
34.368	14.0
34.382	14.0
34.397	15.0
34.412	19.0
34.427	9.0
34.442	10.0
34.456	9.0
34.471	8.0
34.486	11.0
34.501	18.0
34.516	7.0
34.53	14.0
34.545	7.0
34.56	13.0
34.575	6.0
34.59	12.0
34.604	8.0
34.619	8.0
34.634	9.0
34.649	8.0
34.664	8.0
34.678	6.0
34.693	10.0
34.708	9.0
34.723	5.0
34.738	9.0
34.752	10.0
34.767	14.0
34.782	9.0
34.797	7.0
34.812	4.0
34.826	10.0
34.841	3.0
34.856	7.0
34.871	11.0
34.886	7.0
34.9	9.0
34.915	5.0
34.93	8.0
34.945	8.0
34.96	13.0
34.974	7.0
34.989	1.0
35.004	9.0
35.019	15.0
35.034	8.0
35.048	13.0
35.063	11.0
35.078	8.0
35.093	8.0
35.108	8.0
35.122	9.0
35.137	10.0
35.152	7.0
35.167	9.0
35.182	7.0
35.196	6.0
35.211	9.0
35.226	12.0
35.241	14.0
35.256	8.0
35.27	5.0
35.285	8.0
35.3	5.0
35.315	13.0
35.33	10.0
35.344	5.0
35.359	9.0
35.374	8.0
35.389	11.0
35.404	8.0
35.418	11.0
35.433	2.0
35.448	4.0
35.463	9.0
35.478	5.0
35.493	4.0
35.507	11.0
35.522	7.0
35.537	18.0
35.552	8.0
35.567	8.0
35.581	8.0
35.596	6.0
35.611	10.0
35.626	18.0
35.641	10.0
35.655	17.0
35.67	15.0
35.685	14.0
35.7	18.0
35.715	12.0
35.729	24.0
35.744	22.0
35.759	15.0
35.774	26.0
35.789	14.0
35.804	14.0
35.818	19.0
35.833	21.0
35.848	13.0
35.863	17.0
35.878	10.0
35.892	10.0
35.907	12.0
35.922	19.0
35.937	8.0
35.952	10.0
35.966	6.0
35.981	13.0
35.996	14.0
36.011	16.0
36.026	13.0
36.04	11.0
36.055	15.0
36.07	17.0
36.085	6.0
36.1	8.0
36.114	11.0
36.129	11.0
36.144	7.0
36.159	15.0
36.174	7.0
36.189	9.0
36.203	11.0
36.218	13.0
36.233	8.0
36.248	9.0
36.263	10.0
36.277	15.0
36.292	4.0
36.307	5.0
36.322	8.0
36.337	9.0
36.351	11.0
36.366	10.0
36.381	12.0
36.396	12.0
36.411	8.0
36.426	7.0
36.44	5.0
36.455	8.0
36.47	11.0
36.485	8.0
36.5	4.0
36.514	6.0
36.529	6.0
36.544	6.0
36.559	5.0
36.574	9.0
36.589	6.0
36.603	5.0
36.618	4.0
36.633	11.0
36.648	6.0
36.663	8.0
36.677	7.0
36.692	10.0
36.707	9.0
36.722	12.0
36.737	6.0
36.752	6.0
36.766	14.0
36.781	9.0
36.796	7.0
36.811	6.0
36.826	10.0
36.841	7.0
36.855	9.0
36.87	5.0
36.885	12.0
36.9	9.0
36.915	9.0
36.93	8.0
36.944	9.0
36.959	11.0
36.974	10.0
36.989	11.0
37.004	13.0
37.019	12.0
37.033	9.0
37.048	15.0
37.063	12.0
37.078	9.0
37.093	21.0
37.108	17.0
37.123	17.0
37.137	27.0
37.152	29.0
37.167	33.0
37.182	33.0
37.197	41.0
37.212	24.0
37.226	17.0
37.241	21.0
37.256	20.0
37.271	17.0
37.286	22.0
37.301	19.0
37.316	19.0
37.331	13.0
37.345	16.0
37.36	23.0
37.375	19.0
37.39	14.0
37.405	20.0
37.42	20.0
37.435	16.0
37.45	13.0
37.464	15.0
37.479	16.0
37.494	12.0
37.509	12.0
37.524	6.0
37.539	8.0
37.554	13.0
37.569	9.0
37.583	11.0
37.598	7.0
37.613	14.0
37.628	7.0
37.643	7.0
37.658	8.0
37.673	10.0
37.688	6.0
37.703	16.0
37.718	15.0
37.733	8.0
37.747	4.0
37.762	11.0
37.777	9.0
37.792	5.0
37.807	8.0
37.822	10.0
37.837	6.0
37.852	9.0
37.867	5.0
37.882	8.0
37.897	6.0
37.912	6.0
37.927	9.0
37.941	6.0
37.956	8.0
37.971	5.0
37.986	11.0
38.001	11.0
38.016	8.0
38.031	6.0
38.046	10.0
38.061	8.0
38.076	7.0
38.091	6.0
38.106	5.0
38.121	2.0
38.136	6.0
38.151	5.0
38.166	8.0
38.181	6.0
38.196	7.0
38.211	11.0
38.226	11.0
38.241	7.0
38.256	7.0
38.271	5.0
38.285	5.0
38.3	5.0
38.315	10.0
38.33	7.0
38.345	8.0
38.36	3.0
38.375	5.0
38.39	6.0
38.405	4.0
38.42	9.0
38.435	6.0
38.45	7.0
38.465	9.0
38.48	6.0
38.495	4.0
38.51	10.0
38.525	9.0
38.54	8.0
38.555	7.0
38.57	6.0
38.585	9.0
38.6	8.0
38.615	5.0
38.63	6.0
38.645	9.0
38.66	6.0
38.675	5.0
38.69	6.0
38.705	7.0
38.72	5.0
38.735	10.0
38.75	2.0
38.765	4.0
38.78	3.0
38.795	4.0
38.81	6.0
38.825	8.0
38.84	2.0
38.855	9.0
38.87	6.0
38.885	5.0
38.9	10.0
38.915	11.0
38.93	10.0
38.945	8.0
38.96	2.0
38.975	7.0
38.99	5.0
39.005	6.0
39.02	8.0
39.035	8.0
39.05	3.0
39.065	7.0
39.08	6.0
39.095	5.0
39.11	3.0
39.125	6.0
39.14	5.0
39.155	4.0
39.17	3.0
39.185	4.0
39.2	8.0
39.215	9.0
39.23	9.0
39.245	9.0
39.26	8.0
39.275	6.0
39.29	5.0
39.305	4.0
39.32	10.0
39.335	4.0
39.35	3.0
39.365	7.0
39.38	6.0
39.395	9.0
39.409	9.0
39.424	4.0
39.439	5.0
39.454	7.0
39.469	7.0
39.484	8.0
39.499	6.0
39.514	7.0
39.529	5.0
39.544	5.0
39.559	5.0
39.574	5.0
39.589	6.0
39.604	6.0
39.619	5.0
39.634	3.0
39.649	4.0
39.664	4.0
39.678	5.0
39.693	6.0
39.708	4.0
39.723	5.0
39.738	3.0
39.753	5.0
39.768	5.0
39.783	6.0
39.798	5.0
39.813	7.0
39.827	14.0
39.842	9.0
39.857	10.0
39.872	3.0
39.887	6.0
39.902	3.0
39.917	5.0
39.932	6.0
39.947	8.0
39.961	8.0
39.976	6.0
39.991	3.0
40.006	6.0
40.021	6.0
40.036	11.0
40.051	5.0
40.065	4.0
40.08	7.0
40.095	10.0
40.11	6.0
40.125	7.0
40.14	9.0
40.154	5.0
40.169	9.0
40.184	11.0
40.199	5.0
40.214	8.0
40.228	6.0
40.243	9.0
40.258	8.0
40.273	10.0
40.288	8.0
40.302	8.0
40.317	7.0
40.332	8.0
40.347	10.0
40.362	6.0
40.376	7.0
40.391	6.0
40.406	8.0
40.421	10.0
40.436	7.0
40.45	4.0
40.465	6.0
40.48	12.0
40.495	5.0
40.509	6.0
40.524	4.0
40.539	2.0
40.554	2.0
40.568	4.0
40.583	5.0
40.598	5.0
40.613	5.0
40.627	8.0
40.642	5.0
40.657	4.0
40.672	8.0
40.686	9.0
40.701	6.0
40.716	2.0
40.731	6.0
40.745	9.0
40.76	7.0
40.775	7.0
40.79	9.0
40.804	5.0
40.819	5.0
40.834	8.0
40.849	6.0
40.863	6.0
40.878	2.0
40.893	8.0
40.907	4.0
40.922	5.0
40.937	5.0
40.952	7.0
40.966	9.0
40.981	8.0
40.996	12.0
41.011	15.0
41.025	10.0
41.04	16.0
41.055	13.0
41.069	14.0
41.084	16.0
41.099	14.0
41.114	23.0
41.128	12.0
41.143	21.0
41.158	13.0
41.173	19.0
41.187	11.0
41.202	11.0
41.217	13.0
41.231	10.0
41.246	15.0
41.261	11.0
41.276	12.0
41.29	18.0
41.305	8.0
41.32	15.0
41.335	13.0
41.349	17.0
41.364	11.0
41.379	15.0
41.393	11.0
41.408	20.0
41.423	19.0
41.438	19.0
41.452	12.0
41.467	9.0
41.482	7.0
41.497	12.0
41.511	6.0
41.526	6.0
41.541	8.0
41.556	9.0
41.57	8.0
41.585	8.0
41.6	5.0
41.615	4.0
41.629	11.0
41.644	10.0
41.659	10.0
41.674	4.0
41.688	4.0
41.703	1.0
41.718	9.0
41.733	6.0
41.747	11.0
41.762	7.0
41.777	8.0
41.792	8.0
41.806	4.0
41.821	6.0
41.836	6.0
41.851	10.0
41.866	4.0
41.88	5.0
41.895	6.0
41.91	7.0
41.925	6.0
41.939	7.0
41.954	5.0
41.969	5.0
41.984	9.0
41.999	5.0
42.013	10.0
42.028	5.0
42.043	3.0
42.058	6.0
42.073	11.0
42.088	8.0
42.102	3.0
42.117	6.0
42.132	7.0
42.147	4.0
42.162	5.0
42.176	7.0
42.191	6.0
42.206	6.0
42.221	8.0
42.236	7.0
42.251	6.0
42.266	8.0
42.28	5.0
42.295	15.0
42.31	19.0
42.325	7.0
42.34	14.0
42.355	26.0
42.369	22.0
42.384	20.0
42.399	15.0
42.414	16.0
42.429	14.0
42.444	22.0
42.459	11.0
42.474	15.0
42.488	13.0
42.503	10.0
42.518	7.0
42.533	8.0
42.548	11.0
42.563	16.0
42.578	12.0
42.593	5.0
42.608	7.0
42.622	8.0
42.637	18.0
42.652	12.0
42.667	15.0
42.682	9.0
42.697	14.0
42.712	9.0
42.727	9.0
42.742	8.0
42.757	3.0
42.772	8.0
42.786	10.0
42.801	3.0
42.816	9.0
42.831	6.0
42.846	8.0
42.861	3.0
42.876	6.0
42.891	4.0
42.906	4.0
42.921	6.0
42.936	2.0
42.951	6.0
42.966	6.0
42.981	7.0
42.996	8.0
43.011	10.0
43.025	10.0
43.04	6.0
43.055	5.0
43.07	3.0
43.085	10.0
43.1	5.0
43.115	6.0
43.13	5.0
43.145	9.0
43.16	2.0
43.175	6.0
43.19	5.0
43.205	6.0
43.22	5.0
43.235	5.0
43.25	5.0
43.265	4.0
43.28	2.0
43.295	5.0
43.31	6.0
43.325	7.0
43.34	5.0
43.355	5.0
43.37	5.0
43.385	4.0
43.4	9.0
43.415	3.0
43.43	6.0
43.445	9.0
43.46	4.0
43.475	8.0
43.49	9.0
43.505	6.0
43.52	9.0
43.535	7.0
43.55	10.0
43.565	14.0
43.58	14.0
43.595	10.0
43.61	10.0
43.625	13.0
43.64	7.0
43.655	11.0
43.67	9.0
43.685	2.0
43.7	5.0
43.715	9.0
43.73	3.0
43.745	4.0
43.76	8.0
43.775	5.0
43.79	5.0
43.805	9.0
43.82	7.0
43.835	8.0
43.85	5.0
43.865	5.0
43.88	5.0
43.895	9.0
43.91	8.0
43.925	8.0
43.94	4.0
43.955	8.0
43.97	2.0
43.985	9.0
44.0	6.0
44.015	4.0
44.03	2.0
44.045	3.0
44.061	6.0
44.076	10.0
44.091	5.0
44.106	5.0
44.121	1.0
44.136	8.0
44.151	1.0
44.166	8.0
44.181	5.0
44.196	3.0
44.211	7.0
44.226	5.0
44.241	3.0
44.256	2.0
44.271	6.0
44.286	3.0
44.301	3.0
44.316	8.0
44.331	7.0
44.346	3.0
44.361	6.0
44.377	3.0
44.392	7.0
44.407	8.0
44.422	5.0
44.437	6.0
44.452	4.0
44.467	5.0
44.482	4.0
44.497	2.0
44.512	5.0
44.527	3.0
44.542	4.0
44.557	8.0
44.572	3.0
44.587	7.0
44.602	2.0
44.617	1.0
44.632	3.0
44.647	6.0
44.663	5.0
44.678	6.0
44.693	3.0
44.708	10.0
44.723	10.0
44.738	11.0
44.753	11.0
44.768	12.0
44.783	12.0
44.798	13.0
44.813	14.0
44.828	15.0
44.843	7.0
44.858	16.0
44.873	8.0
44.888	11.0
44.903	6.0
44.918	6.0
44.933	12.0
44.948	13.0
44.964	8.0
44.979	7.0
44.994	6.0
45.009	5.0
45.024	8.0
45.039	7.0
45.054	14.0
45.069	9.0
45.084	7.0
45.099	9.0
45.114	5.0
45.129	8.0
45.144	10.0
45.159	2.0
45.174	5.0
45.189	4.0
45.204	4.0
45.219	4.0
45.234	5.0
45.249	5.0
45.264	4.0
45.279	3.0
45.294	6.0
45.309	2.0
45.324	7.0
45.339	6.0
45.354	3.0
45.369	6.0
45.384	8.0
45.399	4.0
45.414	3.0
45.429	3.0
45.444	8.0
45.459	5.0
45.474	9.0
45.489	3.0
45.504	2.0
45.519	7.0
45.534	9.0
45.549	3.0
45.564	6.0
45.579	6.0
45.594	7.0
45.609	4.0
45.624	5.0
45.639	5.0
45.654	5.0
45.669	5.0
45.684	4.0
45.699	2.0
45.714	5.0
45.729	7.0
45.744	6.0
45.759	7.0
45.774	7.0
45.789	7.0
45.804	10.0
45.819	3.0
45.834	9.0
45.849	7.0
45.864	9.0
45.879	8.0
45.894	7.0
45.909	9.0
45.924	10.0
45.939	15.0
45.954	10.0
45.969	21.0
45.984	10.0
45.998	16.0
46.013	16.0
46.028	17.0
46.043	16.0
46.058	7.0
46.073	8.0
46.088	4.0
46.103	9.0
46.118	9.0
46.133	9.0
46.148	13.0
46.163	6.0
46.178	9.0
46.192	6.0
46.207	11.0
46.222	10.0
46.237	8.0
46.252	14.0
46.267	9.0
46.282	12.0
46.297	9.0
46.312	4.0
46.327	7.0
46.341	11.0
46.356	7.0
46.371	5.0
46.386	10.0
46.401	4.0
46.416	6.0
46.431	7.0
46.446	8.0
46.46	3.0
46.475	5.0
46.49	7.0
46.505	7.0
46.52	5.0
46.535	6.0
46.55	4.0
46.564	7.0
46.579	6.0
46.594	2.0
46.609	7.0
46.624	6.0
46.639	7.0
46.654	5.0
46.668	4.0
46.683	4.0
46.698	3.0
46.713	6.0
46.728	6.0
46.743	8.0
46.758	4.0
46.772	7.0
46.787	3.0
46.802	4.0
46.817	2.0
46.832	10.0
46.847	8.0
46.861	4.0
46.876	3.0
46.891	5.0
46.906	5.0
46.921	3.0
46.936	7.0
46.95	4.0
46.965	7.0
46.98	3.0
46.995	7.0
47.01	7.0
47.025	5.0
47.039	6.0
47.054	8.0
47.069	9.0
47.084	4.0
47.099	6.0
47.113	15.0
47.128	12.0
47.143	15.0
47.158	11.0
47.173	12.0
47.188	13.0
47.202	3.0
47.217	10.0
47.232	5.0
47.247	4.0
47.262	4.0
47.277	4.0
47.291	5.0
47.306	8.0
47.321	3.0
47.336	6.0
47.351	9.0
47.365	3.0
47.38	7.0
47.395	6.0
47.41	4.0
47.425	10.0
47.44	9.0
47.454	5.0
47.469	7.0
47.484	10.0
47.499	10.0
47.514	5.0
47.528	7.0
47.543	6.0
47.558	5.0
47.573	7.0
47.588	9.0
47.603	5.0
47.617	5.0
47.632	5.0
47.647	5.0
47.662	7.0
47.677	3.0
47.691	4.0
47.706	5.0
47.721	2.0
47.736	1.0
47.751	3.0
47.766	5.0
47.78	7.0
47.795	5.0
47.81	1.0
47.825	3.0
47.84	10.0
47.855	5.0
47.869	4.0
47.884	6.0
47.899	7.0
47.914	3.0
47.929	8.0
47.944	5.0
47.958	8.0
47.973	5.0
47.988	7.0
48.003	3.0
48.018	7.0
48.033	5.0
48.047	3.0
48.062	1.0
48.077	7.0
48.092	9.0
48.107	2.0
48.122	5.0
48.137	5.0
48.151	9.0
48.166	4.0
48.181	5.0
48.196	4.0
48.211	3.0
48.226	4.0
48.241	6.0
48.255	2.0
48.27	3.0
48.285	6.0
48.3	4.0
48.315	3.0
48.33	2.0
48.345	7.0
48.359	4.0
48.374	6.0
48.389	5.0
48.404	5.0
48.419	4.0
48.434	4.0
48.449	8.0
48.464	5.0
48.478	7.0
48.493	5.0
48.508	3.0
48.523	8.0
48.538	8.0
48.553	4.0
48.568	5.0
48.583	3.0
48.597	2.0
48.612	5.0
48.627	3.0
48.642	8.0
48.657	4.0
48.672	5.0
48.687	3.0
48.702	4.0
48.717	5.0
48.731	10.0
48.746	9.0
48.761	5.0
48.776	5.0
48.791	9.0
48.806	1.0
48.821	4.0
48.836	4.0
48.851	8.0
48.866	9.0
48.88	7.0
48.895	7.0
48.91	3.0
48.925	7.0
48.94	5.0
48.955	2.0
48.97	5.0
48.985	12.0
49.0	4.0
49.015	3.0
49.03	4.0
49.044	4.0
49.059	5.0
49.074	8.0
49.089	5.0
49.104	6.0
49.119	3.0
49.134	3.0
49.149	6.0
49.164	4.0
49.179	4.0
49.194	5.0
49.209	4.0
49.224	8.0
49.238	7.0
49.253	5.0
49.268	3.0
49.283	11.0
49.298	10.0
49.313	4.0
49.328	8.0
49.343	13.0
49.358	4.0
49.373	8.0
49.388	8.0
49.403	6.0
49.418	12.0
49.433	3.0
49.448	5.0
49.463	3.0
49.478	10.0
49.492	6.0
49.507	4.0
49.522	4.0
49.537	7.0
49.552	8.0
49.567	4.0
49.582	8.0
49.597	4.0
49.612	8.0
49.627	4.0
49.642	4.0
49.657	7.0
49.672	3.0
49.687	6.0
49.702	9.0
49.717	2.0
49.732	7.0
49.747	5.0
49.762	6.0
49.777	3.0
49.792	6.0
49.807	5.0
49.822	6.0
49.837	2.0
49.852	6.0
49.867	5.0
49.882	7.0
49.897	5.0
49.912	6.0
49.927	11.0
49.942	6.0
49.957	8.0
49.971	9.0
49.986	3.0
50.001	5.0
50.016	4.0
50.031	5.0
50.046	0.0
50.061	7.0
50.076	1.0
50.091	7.0
50.106	4.0
50.121	2.0
50.136	7.0
50.151	3.0
50.166	0.0
50.181	5.0
50.196	5.0
50.211	6.0
50.226	3.0
50.241	5.0
50.256	3.0
50.271	11.0
50.286	3.0
50.302	2.0
50.317	4.0
50.332	6.0
50.347	7.0
50.362	13.0
50.377	4.0
50.392	5.0
50.407	10.0
50.422	7.0
50.437	5.0
50.452	9.0
50.467	9.0
50.482	9.0
50.497	6.0
50.512	5.0
50.527	6.0
50.542	6.0
50.557	9.0
50.572	6.0
50.587	2.0
50.602	3.0
50.617	4.0
50.632	5.0
50.647	5.0
50.662	4.0
50.677	6.0
50.692	8.0
50.707	6.0
50.722	11.0
50.737	6.0
50.752	4.0
50.767	7.0
50.782	9.0
50.797	7.0
50.812	3.0
50.828	6.0
50.843	7.0
50.858	3.0
50.873	8.0
50.888	6.0
50.903	6.0
50.918	5.0
50.933	5.0
50.948	7.0
50.963	3.0
50.978	4.0
50.993	11.0
51.008	4.0
51.023	2.0
51.038	3.0
51.053	3.0
51.068	6.0
51.083	5.0
51.098	5.0
51.114	5.0
51.129	2.0
51.144	4.0
51.159	6.0
51.174	3.0
51.189	3.0
51.204	7.0
51.219	9.0
51.234	4.0
51.249	6.0
51.264	9.0
51.279	6.0
51.294	4.0
51.309	7.0
51.324	6.0
51.34	4.0
51.355	5.0
51.37	7.0
51.385	9.0
51.4	8.0
51.415	11.0
51.43	5.0
51.445	4.0
51.46	12.0
51.475	9.0
51.49	12.0
51.505	12.0
51.52	10.0
51.535	15.0
51.551	8.0
51.566	19.0
51.581	11.0
51.596	11.0
51.611	6.0
51.626	8.0
51.641	8.0
51.656	7.0
51.671	8.0
51.686	6.0
51.701	13.0
51.716	9.0
51.732	8.0
51.747	9.0
51.762	12.0
51.777	11.0
51.792	13.0
51.807	7.0
51.822	10.0
51.837	7.0
51.852	8.0
51.867	6.0
51.882	12.0
51.898	15.0
51.913	15.0
51.928	7.0
51.943	8.0
51.958	5.0
51.973	6.0
51.988	8.0
52.003	7.0
52.018	7.0
52.033	5.0
52.048	6.0
52.064	5.0
52.079	6.0
52.094	2.0
52.109	6.0
52.124	4.0
52.139	6.0
52.154	8.0
52.169	5.0
52.184	7.0
52.199	3.0
52.215	4.0
52.23	6.0
52.245	5.0
52.26	5.0
52.275	4.0
52.29	5.0
52.305	6.0
52.32	4.0
52.335	3.0
52.35	5.0
52.366	6.0
52.381	0.0
52.396	3.0
52.411	6.0
52.426	3.0
52.441	7.0
52.456	3.0
52.471	6.0
52.486	2.0
52.502	5.0
52.517	5.0
52.532	10.0
52.547	10.0
52.562	10.0
52.577	11.0
52.592	10.0
52.607	12.0
52.622	8.0
52.637	6.0
52.653	12.0
52.668	5.0
52.683	6.0
52.698	3.0
52.713	5.0
52.728	9.0
52.743	3.0
52.758	2.0
52.774	3.0
52.789	4.0
52.804	8.0
52.819	11.0
52.834	5.0
52.849	9.0
52.864	6.0
52.879	8.0
52.894	10.0
52.91	7.0
52.925	9.0
52.94	9.0
52.955	4.0
52.97	6.0
52.985	6.0
53.0	3.0
53.015	6.0
53.031	4.0
53.046	1.0
53.061	4.0
53.076	3.0
53.091	4.0
53.106	3.0
53.121	7.0
53.136	9.0
53.152	5.0
53.167	5.0
53.182	6.0
53.197	2.0
53.212	2.0
53.227	6.0
53.242	5.0
53.257	2.0
53.273	5.0
53.288	4.0
53.303	2.0
53.318	3.0
53.333	6.0
53.348	2.0
53.363	8.0
53.379	5.0
53.394	4.0
53.409	3.0
53.424	6.0
53.439	6.0
53.454	2.0
53.469	2.0
53.484	6.0
53.5	6.0
53.515	8.0
53.53	2.0
53.545	5.0
53.56	11.0
53.575	6.0
53.59	2.0
53.606	2.0
53.621	5.0
53.636	8.0
53.651	7.0
53.666	7.0
53.681	5.0
53.696	8.0
53.712	4.0
53.727	10.0
53.742	3.0
53.757	9.0
53.772	7.0
53.787	3.0
53.802	3.0
53.818	5.0
53.833	4.0
53.848	3.0
53.863	3.0
53.878	6.0
53.893	6.0
53.909	6.0
53.924	6.0
53.939	1.0
53.954	3.0
53.969	6.0
53.984	3.0
53.999	5.0
54.015	3.0
54.03	9.0
54.045	4.0
54.06	6.0
54.075	9.0
54.09	6.0
54.106	8.0
54.121	4.0
54.136	3.0
54.151	1.0
54.166	3.0
54.181	3.0
54.197	9.0
54.212	7.0
54.227	2.0
54.242	4.0
54.257	2.0
54.272	3.0
54.288	2.0
54.303	6.0
54.318	4.0
54.333	5.0
54.348	2.0
54.363	3.0
54.379	4.0
54.394	4.0
54.409	3.0
54.424	8.0
54.439	5.0
54.454	4.0
54.47	10.0
54.485	2.0
54.5	3.0
54.515	8.0
54.53	8.0
54.545	4.0
54.561	5.0
54.576	17.0
54.591	10.0
54.606	15.0
54.621	12.0
54.636	15.0
54.652	12.0
54.667	13.0
54.682	13.0
54.697	13.0
54.712	12.0
54.727	12.0
54.743	6.0
54.758	9.0
54.773	6.0
54.788	4.0
54.803	5.0
54.819	6.0
54.834	7.0
54.849	4.0
54.864	7.0
54.879	7.0
54.894	6.0
54.91	9.0
54.925	5.0
54.94	3.0
54.955	5.0
54.97	14.0
54.985	7.0
55.001	11.0
55.016	9.0
55.031	8.0
55.046	6.0
55.061	11.0
55.077	13.0
55.092	9.0
55.107	7.0
55.122	9.0
55.137	5.0
55.152	5.0
55.168	6.0
55.183	8.0
55.198	2.0
55.213	10.0
55.228	1.0
55.243	4.0
55.259	3.0
55.274	5.0
55.289	2.0
55.304	7.0
55.319	9.0
55.335	3.0
55.35	9.0
55.365	4.0
55.38	2.0
55.395	6.0
55.41	3.0
55.426	6.0
55.441	9.0
55.456	6.0
55.471	2.0
55.486	3.0
55.501	3.0
55.517	10.0
55.532	11.0
55.547	5.0
55.562	4.0
55.577	6.0
55.592	6.0
55.608	8.0
55.623	5.0
55.638	4.0
55.653	6.0
55.668	10.0
55.683	5.0
55.699	4.0
55.714	7.0
55.729	9.0
55.744	6.0
55.759	5.0
55.774	9.0
55.79	6.0
55.805	3.0
55.82	6.0
55.835	5.0
55.85	4.0
55.865	8.0
55.881	6.0
55.896	6.0
55.911	8.0
55.926	5.0
55.941	13.0
55.956	3.0
55.972	7.0
55.987	4.0
56.002	9.0
56.017	13.0
56.032	9.0
56.047	3.0
56.063	5.0
56.078	5.0
56.093	2.0
56.108	3.0
56.123	2.0
56.138	5.0
56.154	3.0
56.169	4.0
56.184	4.0
56.199	7.0
56.214	4.0
56.229	4.0
56.244	6.0
56.26	4.0
56.275	3.0
56.29	4.0
56.305	5.0
56.32	6.0
56.335	6.0
56.351	4.0
56.366	4.0
56.381	7.0
56.396	5.0
56.411	4.0
56.426	5.0
56.441	0.0
56.457	1.0
56.472	2.0
56.487	4.0
56.502	3.0
56.517	4.0
56.532	6.0
56.547	3.0
56.563	3.0
56.578	4.0
56.593	3.0
56.608	0.0
56.623	7.0
56.638	5.0
56.653	4.0
56.668	1.0
56.684	5.0
56.699	3.0
56.714	7.0
56.729	2.0
56.744	5.0
56.759	3.0
56.774	4.0
56.79	2.0
56.805	1.0
56.82	4.0
56.835	1.0
56.85	3.0
56.865	4.0
56.88	4.0
56.895	4.0
56.911	5.0
56.926	6.0
56.941	5.0
56.956	6.0
56.971	4.0
56.986	6.0
57.001	5.0
57.016	3.0
57.031	4.0
57.047	4.0
57.062	5.0
57.077	4.0
57.092	6.0
57.107	5.0
57.122	8.0
57.137	6.0
57.152	5.0
57.167	6.0
57.183	2.0
57.198	4.0
57.213	6.0
57.228	6.0
57.243	2.0
57.258	5.0
57.273	7.0
57.288	3.0
57.303	2.0
57.318	6.0
57.334	6.0
57.349	6.0
57.364	5.0
57.379	6.0
57.394	6.0
57.409	4.0
57.424	6.0
57.439	7.0
57.454	5.0
57.469	6.0
57.484	5.0
57.5	2.0
57.515	5.0
57.53	7.0
57.545	4.0
57.56	2.0
57.575	2.0
57.59	5.0
57.605	6.0
57.62	9.0
57.635	4.0
57.65	3.0
57.665	2.0
57.68	4.0
57.696	3.0
57.711	7.0
57.726	7.0
57.741	4.0
57.756	2.0
57.771	1.0
57.786	6.0
57.801	9.0
57.816	6.0
57.831	4.0
57.846	3.0
57.861	2.0
57.876	9.0
57.891	2.0
57.906	3.0
57.921	6.0
57.937	4.0
57.952	4.0
57.967	4.0
57.982	7.0
57.997	6.0
58.012	6.0
58.027	3.0
58.042	6.0
58.057	3.0
58.072	2.0
58.087	4.0
58.102	7.0
58.117	4.0
58.132	2.0
58.147	3.0
58.162	7.0
58.177	3.0
58.192	4.0
58.207	5.0
58.222	3.0
58.237	6.0
58.252	5.0
58.267	2.0
58.282	6.0
58.297	4.0
58.312	2.0
58.327	3.0
58.342	3.0
58.357	6.0
58.372	4.0
58.387	3.0
58.402	0.0
58.418	3.0
58.433	4.0
58.448	3.0
58.463	4.0
58.478	3.0
58.493	4.0
58.508	6.0
58.523	7.0
58.538	7.0
58.553	7.0
58.568	6.0
58.583	8.0
58.598	4.0
58.613	9.0
58.628	7.0
58.643	10.0
58.658	7.0
58.673	7.0
58.688	9.0
58.703	4.0
58.718	5.0
58.733	8.0
58.748	3.0
58.763	6.0
58.778	11.0
58.793	6.0
58.808	5.0
58.823	6.0
58.838	1.0
58.853	3.0
58.868	3.0
58.883	3.0
58.898	3.0
58.913	4.0
58.928	7.0
58.942	11.0
58.957	5.0
58.972	6.0
58.987	6.0
59.002	4.0
59.017	10.0
59.032	2.0
59.047	7.0
59.062	8.0
59.077	9.0
59.092	5.0
59.107	6.0
59.122	4.0
59.137	6.0
59.152	5.0
59.167	9.0
59.182	3.0
59.197	4.0
59.212	4.0
59.227	1.0
59.242	5.0
59.257	5.0
59.272	3.0
59.287	9.0
59.302	7.0
59.317	6.0
59.332	5.0
59.347	4.0
59.362	6.0
59.377	6.0
59.392	5.0
59.407	4.0
59.422	5.0
59.437	6.0
59.452	2.0
59.467	6.0
59.482	5.0
59.497	3.0
59.512	11.0
59.527	5.0
59.542	8.0
59.557	11.0
59.572	6.0
59.587	5.0
59.602	10.0
59.617	14.0
59.632	11.0
59.647	6.0
59.661	8.0
59.676	5.0
59.691	8.0
59.706	7.0
59.721	5.0
59.736	1.0
59.751	5.0
59.766	5.0
59.781	5.0
59.796	2.0
59.811	5.0
59.826	6.0
59.841	6.0
59.856	4.0
59.871	5.0
59.886	5.0
59.901	5.0
59.916	6.0
59.931	3.0
59.946	5.0
59.961	7.0
59.976	7.0
59.991	6.0
60.006	9.0
60.021	7.0
60.036	11.0
60.051	4.0
60.066	6.0
60.081	4.0
60.096	5.0
60.111	3.0
60.126	5.0
60.141	4.0
60.156	6.0
60.171	4.0
60.186	6.0
60.201	5.0
60.216	3.0
60.231	3.0
60.246	3.0
60.261	4.0
60.276	5.0
60.291	5.0
60.306	6.0
60.321	4.0
60.336	5.0
60.35	7.0
60.365	3.0
60.38	3.0
60.395	7.0
60.41	6.0
60.425	2.0
60.44	3.0
60.455	4.0
60.47	5.0
60.485	9.0
60.5	3.0
60.515	7.0
60.53	7.0
60.545	8.0
60.56	12.0
60.575	8.0
60.59	12.0
60.605	12.0
60.62	5.0
60.635	6.0
60.65	6.0
60.665	7.0
60.68	6.0
60.695	7.0
60.71	7.0
60.725	8.0
60.74	3.0
60.755	8.0
60.77	3.0
60.785	3.0
60.8	4.0
60.815	1.0
60.83	7.0
60.845	6.0
60.86	3.0
60.875	5.0
60.89	5.0
60.905	4.0
60.92	5.0
60.935	8.0
60.95	8.0
60.965	3.0
60.98	11.0
60.995	7.0
61.01	8.0
61.025	8.0
61.04	4.0
61.055	7.0
61.07	6.0
61.085	7.0
61.1	4.0
61.115	9.0
61.13	3.0
61.145	5.0
61.16	5.0
61.175	3.0
61.191	6.0
61.206	6.0
61.221	5.0
61.236	3.0
61.251	3.0
61.266	3.0
61.281	2.0
61.296	0.0
61.311	2.0
61.326	4.0
61.341	4.0
61.356	2.0
61.371	4.0
61.386	4.0
61.401	1.0
61.416	1.0
61.431	2.0
61.446	4.0
61.461	5.0
61.476	5.0
61.491	5.0
61.506	6.0
61.521	7.0
61.536	5.0
61.551	3.0
61.566	3.0
61.581	8.0
61.596	3.0
61.611	6.0
61.626	6.0
61.641	3.0
61.656	8.0
61.672	6.0
61.687	6.0
61.702	4.0
61.717	5.0
61.732	5.0
61.747	3.0
61.762	3.0
61.777	3.0
61.792	3.0
61.807	3.0
61.822	3.0
61.837	7.0
61.852	3.0
61.867	5.0
61.882	3.0
61.897	3.0
61.912	9.0
61.927	4.0
61.943	6.0
61.958	7.0
61.973	7.0
61.988	4.0
62.003	10.0
62.018	3.0
62.033	7.0
62.048	10.0
62.063	6.0
62.078	2.0
62.093	4.0
62.108	3.0
62.123	1.0
62.138	0.0
62.153	5.0
62.169	7.0
62.184	2.0
62.199	6.0
62.214	3.0
62.229	4.0
62.244	3.0
62.259	2.0
62.274	3.0
62.289	4.0
62.304	2.0
62.319	4.0
62.335	4.0
62.35	3.0
62.365	1.0
62.38	9.0
62.395	5.0
62.41	1.0
62.425	7.0
62.44	2.0
62.455	3.0
62.47	7.0
62.485	4.0
62.501	7.0
62.516	1.0
62.531	5.0
62.546	3.0
62.561	6.0
62.576	5.0
62.591	1.0
62.606	4.0
62.621	7.0
62.636	3.0
62.652	3.0
62.667	4.0
62.682	1.0
62.697	5.0
62.712	5.0
62.727	5.0
62.742	2.0
62.757	3.0
62.772	7.0
62.787	2.0
62.803	5.0
62.818	6.0
62.833	2.0
62.848	6.0
62.863	3.0
62.878	5.0
62.893	2.0
62.908	4.0
62.923	3.0
62.939	7.0
62.954	4.0
62.969	4.0
62.984	0.0
62.999	2.0
63.014	1.0
63.029	2.0
63.044	4.0
63.059	5.0
63.074	3.0
63.09	3.0
63.105	3.0
63.12	3.0
63.135	8.0
63.15	7.0
63.165	5.0
63.18	3.0
63.195	2.0
63.21	3.0
63.226	4.0
63.241	7.0
63.256	1.0
63.271	2.0
63.286	3.0
63.301	7.0
63.316	6.0
63.331	7.0
63.346	4.0
63.362	3.0
63.377	8.0
63.392	8.0
63.407	5.0
63.422	12.0
63.437	5.0
63.452	6.0
63.467	6.0
63.482	5.0
63.497	5.0
63.513	7.0
63.528	5.0
63.543	7.0
63.558	3.0
63.573	5.0
63.588	4.0
63.603	4.0
63.618	3.0
63.633	5.0
63.648	4.0
63.664	2.0
63.679	3.0
63.694	6.0
63.709	3.0
63.724	2.0
63.739	9.0
63.754	3.0
63.769	4.0
63.784	3.0
63.799	4.0
63.814	8.0
63.83	6.0
63.845	4.0
63.86	5.0
63.875	3.0
63.89	4.0
63.905	4.0
63.92	4.0
63.935	6.0
63.95	4.0
63.965	6.0
63.98	5.0
63.996	0.0
64.011	3.0
64.026	1.0
64.041	6.0
64.056	8.0
64.071	4.0
64.086	3.0
64.101	7.0
64.116	6.0
64.131	0.0
64.146	3.0
64.161	4.0
64.176	7.0
64.191	2.0
64.207	4.0
64.222	8.0
64.237	2.0
64.252	3.0
64.267	2.0
64.282	6.0
64.297	4.0
64.312	3.0
64.327	4.0
64.342	5.0
64.357	2.0
64.372	4.0
64.387	4.0
64.402	5.0
64.417	6.0
64.433	6.0
64.448	4.0
64.463	1.0
64.478	4.0
64.493	3.0
64.508	2.0
64.523	3.0
64.538	4.0
64.553	4.0
64.568	6.0
64.583	8.0
64.598	1.0
64.613	2.0
64.628	3.0
64.643	8.0
64.658	4.0
64.673	3.0
64.688	2.0
64.703	3.0
64.718	3.0
64.734	2.0
64.749	6.0
64.764	5.0
64.779	2.0
64.794	2.0
64.809	5.0
64.824	3.0
64.839	2.0
64.854	6.0
64.869	6.0
64.884	6.0
64.899	3.0
64.914	11.0
64.929	6.0
64.944	4.0
64.959	4.0
64.974	3.0
64.989	3.0
65.004	6.0
65.019	3.0
65.034	2.0
65.049	7.0
65.064	6.0
65.079	3.0
65.094	2.0
65.109	3.0
65.125	8.0
65.14	8.0
65.155	5.0
65.17	5.0
65.185	4.0
65.2	5.0
65.215	3.0
65.23	8.0
65.245	5.0
65.26	7.0
65.275	4.0
65.29	7.0
65.305	6.0
65.32	3.0
65.335	4.0
65.35	0.0
65.365	5.0
65.38	2.0
65.395	3.0
65.41	4.0
65.425	5.0
65.44	1.0
65.455	5.0
65.47	3.0
65.485	3.0
65.5	3.0
65.515	6.0
65.53	3.0
65.545	3.0
65.56	2.0
65.575	7.0
65.59	5.0
65.605	2.0
65.62	3.0
65.635	6.0
65.65	4.0
65.666	2.0
65.681	3.0
65.696	6.0
65.711	4.0
65.726	6.0
65.741	6.0
65.756	4.0
65.771	7.0
65.786	2.0
65.801	7.0
65.816	5.0
65.831	3.0
65.846	2.0
65.861	4.0
65.876	2.0
65.891	3.0
65.906	4.0
65.921	5.0
65.936	7.0
65.951	1.0
65.966	3.0
65.981	3.0
65.996	1.0
66.011	6.0
66.026	2.0
66.041	5.0
66.056	4.0
66.071	2.0
66.086	2.0
66.101	1.0
66.116	6.0
66.131	6.0
66.146	8.0
66.161	8.0
66.176	11.0
66.191	12.0
66.206	5.0
66.221	12.0
66.236	4.0
66.251	9.0
66.266	8.0
66.281	2.0
66.296	5.0
66.311	4.0
66.327	5.0
66.342	2.0
66.357	1.0
66.372	3.0
66.387	1.0
66.402	1.0
66.417	4.0
66.432	5.0
66.447	4.0
66.462	6.0
66.477	6.0
66.492	4.0
66.507	4.0
66.522	2.0
66.537	8.0
66.552	7.0
66.567	8.0
66.582	8.0
66.597	8.0
66.612	2.0
66.627	1.0
66.642	6.0
66.657	4.0
66.672	6.0
66.687	4.0
66.702	3.0
66.717	4.0
66.732	5.0
66.747	4.0
66.762	4.0
66.777	7.0
66.792	2.0
66.807	3.0
66.822	4.0
66.837	5.0
66.853	5.0
66.868	4.0
66.883	4.0
66.898	7.0
66.913	4.0
66.928	3.0
66.943	3.0
66.958	4.0
66.973	3.0
66.988	5.0
67.003	2.0
67.018	5.0
67.033	4.0
67.048	8.0
67.063	4.0
67.078	6.0
67.093	5.0
67.108	6.0
67.123	8.0
67.138	4.0
67.153	3.0
67.168	4.0
67.183	2.0
67.198	7.0
67.214	5.0
67.229	3.0
67.244	2.0
67.259	2.0
67.274	3.0
67.289	6.0
67.304	5.0
67.319	2.0
67.334	2.0
67.349	4.0
67.364	2.0
67.379	0.0
67.394	5.0
67.409	0.0
67.424	4.0
67.439	5.0
67.454	6.0
67.469	5.0
67.484	3.0
67.5	2.0
67.515	6.0
67.53	5.0
67.545	3.0
67.56	2.0
67.575	4.0
67.59	6.0
67.605	6.0
67.62	8.0
67.635	2.0
67.65	4.0
67.665	2.0
67.68	3.0
67.695	2.0
67.71	1.0
67.726	3.0
67.741	4.0
67.756	3.0
67.771	3.0
67.786	4.0
67.801	4.0
67.816	2.0
67.831	2.0
67.846	4.0
67.861	2.0
67.876	3.0
67.891	3.0
67.906	3.0
67.922	5.0
67.937	4.0
67.952	6.0
67.967	4.0
67.982	6.0
67.997	2.0
68.012	5.0
68.027	5.0
68.042	3.0
68.057	5.0
68.072	3.0
68.087	3.0
68.103	0.0
68.118	3.0
68.133	3.0
68.148	7.0
68.163	5.0
68.178	3.0
68.193	2.0
68.208	2.0
68.223	3.0
68.238	3.0
68.254	3.0
68.269	2.0
68.284	5.0
68.299	6.0
68.314	7.0
68.329	4.0
68.344	4.0
68.359	6.0
68.374	2.0
68.389	6.0
68.405	3.0
68.42	7.0
68.435	2.0
68.45	2.0
68.465	2.0
68.48	4.0
68.495	3.0
68.51	4.0
68.525	1.0
68.54	2.0
68.556	7.0
68.571	3.0
68.586	5.0
68.601	9.0
68.616	3.0
68.631	2.0
68.646	4.0
68.661	4.0
68.676	3.0
68.691	5.0
68.707	5.0
68.722	0.0
68.737	2.0
68.752	6.0
68.767	2.0
68.782	3.0
68.797	1.0
68.812	4.0
68.827	4.0
68.842	6.0
68.857	1.0
68.873	2.0
68.888	5.0
68.903	4.0
68.918	7.0
68.933	0.0
68.948	2.0
68.963	1.0
68.978	7.0
68.993	3.0
69.008	1.0
69.023	4.0
69.038	4.0
69.054	3.0
69.069	6.0
69.084	4.0
69.099	6.0
69.114	2.0
69.129	2.0
69.144	4.0
69.159	1.0
69.174	3.0
69.189	4.0
69.204	2.0
69.219	3.0
69.234	5.0
69.249	5.0
69.264	4.0
69.279	3.0
69.295	1.0
69.31	5.0
69.325	5.0
69.34	4.0
69.355	1.0
69.37	3.0
69.385	3.0
69.4	1.0
69.415	8.0
69.43	5.0
69.445	3.0
69.46	4.0
69.475	4.0
69.49	5.0
69.505	2.0
69.52	5.0
69.535	5.0
69.55	2.0
69.565	4.0
69.58	7.0
69.595	3.0
69.61	2.0
69.625	2.0
69.64	3.0
69.655	3.0
69.67	7.0
69.685	1.0
69.7	6.0
69.715	6.0
69.73	9.0
69.745	4.0
69.76	8.0
69.775	4.0
69.79	5.0
69.805	4.0
69.82	6.0
69.835	4.0
69.85	5.0
69.865	3.0
69.88	6.0
69.895	11.0
69.909	3.0
69.924	8.0
69.939	1.0
69.954	2.0
69.969	5.0
69.984	2.0
69.999	9.0
70.014	3.0
70.029	2.0
70.044	5.0
70.059	9.0
70.074	6.0
70.088	3.0
70.103	5.0
70.118	4.0
70.133	2.0
70.148	4.0
70.163	2.0
70.178	5.0
70.193	2.0
70.208	5.0
70.222	3.0
70.237	4.0
70.252	7.0
70.267	4.0
70.282	3.0
70.297	7.0
70.312	8.0
70.327	8.0
70.341	8.0
70.356	2.0
70.371	5.0
70.386	5.0
70.401	5.0
70.416	6.0
70.43	3.0
70.445	1.0
70.46	5.0
70.475	3.0
70.49	6.0
70.505	4.0
70.519	2.0
70.534	4.0
70.549	2.0
70.564	1.0
70.579	6.0
70.594	7.0
70.608	5.0
70.623	8.0
70.638	2.0
70.653	8.0
70.668	5.0
70.683	7.0
70.697	8.0
70.712	6.0
70.727	5.0
70.742	6.0
70.757	3.0
70.771	3.0
70.786	5.0
70.801	5.0
70.816	4.0
70.831	3.0
70.845	4.0
70.86	7.0
70.875	3.0
70.89	1.0
70.905	0.0
70.92	2.0
70.934	3.0
70.949	1.0
70.964	1.0
70.979	5.0
70.994	6.0
71.008	1.0
71.023	6.0
71.038	5.0
71.053	4.0
71.068	3.0
71.082	3.0
71.097	3.0
71.112	2.0
71.127	4.0
71.142	4.0
71.156	4.0
71.171	5.0
71.186	6.0
71.201	5.0
71.216	3.0
71.231	2.0
71.245	6.0
71.26	2.0
71.275	4.0
71.29	4.0
71.305	2.0
71.319	6.0
71.334	4.0
71.349	2.0
71.364	3.0
71.379	2.0
71.394	1.0
71.408	4.0
71.423	8.0
71.438	2.0
71.453	4.0
71.468	5.0
71.483	2.0
71.497	3.0
71.512	4.0
71.527	3.0
71.542	1.0
71.557	7.0
71.572	2.0
71.586	1.0
71.601	2.0
71.616	7.0
71.631	1.0
71.646	1.0
71.661	6.0
71.676	2.0
71.69	1.0
71.705	1.0
71.72	4.0
71.735	0.0
71.75	3.0
71.765	2.0
71.78	5.0
71.795	4.0
71.81	5.0
71.824	2.0
71.839	0.0
71.854	1.0
71.869	6.0
71.884	1.0
71.899	0.0
71.914	2.0
71.929	1.0
71.944	5.0
71.959	3.0
71.974	3.0
71.988	3.0
72.003	3.0
72.018	4.0
72.033	3.0
72.048	3.0
72.063	1.0
72.078	3.0
72.093	8.0
72.108	2.0
72.123	5.0
72.138	2.0
72.153	4.0
72.168	6.0
72.183	2.0
72.198	1.0
72.213	5.0
72.228	5.0
72.243	8.0
72.258	4.0
72.273	2.0
72.288	6.0
72.303	2.0
72.318	1.0
72.333	2.0
72.348	4.0
72.363	2.0
72.378	6.0
72.393	4.0
72.408	0.0
72.423	6.0
72.438	3.0
72.453	3.0
72.468	6.0
72.483	2.0
72.498	2.0
72.513	2.0
72.528	4.0
72.543	1.0
72.558	1.0
72.573	3.0
72.588	4.0
72.603	3.0
72.618	3.0
72.633	3.0
72.649	2.0
72.664	7.0
72.679	3.0
72.694	1.0
72.709	3.0
72.724	9.0
72.739	0.0
72.754	2.0
72.769	2.0
72.784	0.0
72.799	4.0
72.814	1.0
72.829	4.0
72.845	3.0
72.86	8.0
72.875	2.0
72.89	2.0
72.905	1.0
72.92	4.0
72.935	5.0
72.95	2.0
72.965	4.0
72.98	4.0
72.996	2.0
73.011	5.0
73.026	2.0
73.041	0.0
73.056	1.0
73.071	7.0
73.086	4.0
73.101	2.0
73.117	3.0
73.132	4.0
73.147	1.0
73.162	3.0
73.177	4.0
73.192	3.0
73.207	6.0
73.222	4.0
73.238	2.0
73.253	0.0
73.268	3.0
73.283	1.0
73.298	4.0
73.313	3.0
73.328	8.0
73.343	6.0
73.359	2.0
73.374	5.0
73.389	8.0
73.404	5.0
73.419	3.0
73.434	4.0
73.449	5.0
73.465	5.0
73.48	2.0
73.495	8.0
73.51	1.0
73.525	3.0
73.54	2.0
73.556	3.0
73.571	3.0
73.586	1.0
73.601	7.0
73.616	0.0
73.631	2.0
73.646	3.0
73.662	4.0
73.677	2.0
73.692	2.0
73.707	6.0
73.722	3.0
73.737	6.0
73.752	7.0
73.768	1.0
73.783	1.0
73.798	6.0
73.813	5.0
73.828	3.0
73.843	3.0
73.859	5.0
73.874	0.0
73.889	1.0
73.904	2.0
73.919	2.0
73.934	5.0
73.949	5.0
73.965	4.0
73.98	5.0
73.995	3.0
74.01	1.0
74.025	3.0
74.04	3.0
74.056	0.0
74.071	6.0
74.086	4.0
74.101	7.0
74.116	1.0
74.131	3.0
74.146	6.0
74.162	5.0
74.177	3.0
74.192	9.0
74.207	7.0
74.222	4.0
74.237	3.0
74.252	3.0
74.268	4.0
74.283	3.0
74.298	4.0
74.313	5.0
74.328	4.0
74.343	4.0
74.358	7.0
74.374	0.0
74.389	3.0
74.404	1.0
74.419	3.0
74.434	1.0
74.449	4.0
74.464	4.0
74.48	5.0
74.495	0.0
74.51	2.0
74.525	3.0
74.54	6.0
74.555	2.0
74.57	2.0
74.586	5.0
74.601	1.0
74.616	2.0
74.631	4.0
74.646	9.0
74.661	4.0
74.676	7.0
74.691	3.0
74.707	2.0
74.722	8.0
74.737	4.0
74.752	2.0
74.767	0.0
74.782	3.0
74.797	3.0
74.813	6.0
74.828	3.0
74.843	5.0
74.858	1.0
74.873	3.0
74.888	3.0
74.903	2.0
74.918	4.0
74.934	4.0
74.949	2.0
74.964	5.0
74.979	8.0
74.994	6.0
75.009	4.0
75.024	2.0
75.04	3.0
75.055	3.0
75.07	5.0
75.085	4.0
75.1	5.0
75.115	6.0
75.13	4.0
75.145	2.0
75.161	2.0
75.176	1.0
75.191	3.0
75.206	4.0
75.221	5.0
75.236	4.0
75.251	0.0
75.266	4.0
75.282	2.0
75.297	7.0
75.312	3.0
75.327	4.0
75.342	5.0
75.357	2.0
75.372	1.0
75.387	2.0
75.403	2.0
75.418	2.0
75.433	5.0
75.448	2.0
75.463	4.0
75.478	7.0
75.493	3.0
75.509	2.0
75.524	4.0
75.539	6.0
75.554	3.0
75.569	7.0
75.584	0.0
75.599	3.0
75.614	9.0
75.63	6.0
75.645	6.0
75.66	7.0
75.675	4.0
75.69	3.0
75.705	5.0
75.72	5.0
75.735	6.0
75.751	4.0
75.766	2.0
75.781	5.0
75.796	4.0
75.811	3.0
75.826	6.0
75.841	3.0
75.856	2.0
75.872	3.0
75.887	3.0
75.902	3.0
75.917	5.0
75.932	2.0
75.947	2.0
75.962	7.0
75.977	2.0
75.993	4.0
76.008	1.0
76.023	7.0
76.038	3.0
76.053	4.0
76.068	6.0
76.083	4.0
76.098	2.0
76.114	4.0
76.129	10.0
76.144	2.0
76.159	3.0
76.174	3.0
76.189	1.0
76.204	4.0
76.22	3.0
76.235	3.0
76.25	3.0
76.265	2.0
76.28	3.0
76.295	3.0
76.31	5.0
76.325	2.0
76.341	5.0
76.356	6.0
76.371	5.0
76.386	5.0
76.401	3.0
76.416	0.0
76.431	3.0
76.446	3.0
76.462	2.0
76.477	6.0
76.492	4.0
76.507	3.0
76.522	5.0
76.537	3.0
76.552	2.0
76.567	0.0
76.583	3.0
76.598	2.0
76.613	2.0
76.628	4.0
76.643	4.0
76.658	5.0
76.673	3.0
76.688	1.0
76.704	5.0
76.719	3.0
76.734	6.0
76.749	5.0
76.764	5.0
76.779	2.0
76.794	6.0
76.809	4.0
76.824	4.0
76.84	2.0
76.855	9.0
76.87	8.0
76.885	4.0
76.9	5.0
76.915	5.0
76.93	6.0
76.945	5.0
76.96	4.0
76.976	4.0
76.991	3.0
77.006	6.0
77.021	2.0
77.036	6.0
77.051	4.0
77.066	3.0
77.081	2.0
77.096	5.0
77.112	5.0
77.127	8.0
77.142	1.0
77.157	5.0
77.172	1.0
77.187	5.0
77.202	5.0
77.217	3.0
77.232	3.0
77.247	1.0
77.263	4.0
77.278	3.0
77.293	2.0
77.308	5.0
77.323	7.0
77.338	4.0
77.353	5.0
77.368	3.0
77.383	4.0
77.398	7.0
77.413	2.0
77.428	3.0
77.444	4.0
77.459	1.0
77.474	4.0
77.489	1.0
77.504	6.0
77.519	3.0
77.534	5.0
77.549	4.0
77.564	6.0
77.579	4.0
77.594	7.0
77.609	3.0
77.624	10.0
77.64	4.0
77.655	4.0
77.67	5.0
77.685	8.0
77.7	4.0
77.715	6.0
77.73	11.0
77.745	5.0
77.76	1.0
77.775	4.0
77.79	5.0
77.805	1.0
77.82	1.0
77.835	1.0
77.85	2.0
77.865	10.0
77.88	3.0
77.895	5.0
77.91	3.0
77.926	4.0
77.941	5.0
77.956	1.0
77.971	6.0
77.986	3.0
78.001	5.0
78.016	2.0
78.031	2.0
78.046	6.0
78.061	5.0
78.076	4.0
78.091	5.0
78.106	4.0
78.121	6.0
78.136	3.0
78.151	4.0
78.166	6.0
78.181	5.0
78.196	6.0
78.211	6.0
78.226	4.0
78.241	3.0
78.256	5.0
78.271	1.0
78.286	8.0
78.301	4.0
78.316	3.0
78.331	2.0
78.346	2.0
78.361	6.0
78.376	3.0
78.391	5.0
78.406	3.0
78.421	1.0
78.436	2.0
78.451	3.0
78.466	2.0
78.481	3.0
78.496	3.0
78.511	3.0
78.526	5.0
78.541	2.0
78.556	3.0
78.571	3.0
78.586	0.0
78.601	3.0
78.616	6.0
78.631	0.0
78.646	5.0
78.661	4.0
78.676	4.0
78.691	1.0
78.706	2.0
78.721	3.0
78.736	3.0
78.751	3.0
78.766	6.0
78.781	3.0
78.796	2.0
78.811	3.0
78.826	3.0
78.841	3.0
78.856	4.0
78.871	4.0
78.885	4.0
78.9	3.0
78.915	3.0
78.93	4.0
78.945	2.0
78.96	3.0
78.975	2.0
78.99	1.0
79.005	2.0
79.02	6.0
79.035	1.0
79.05	3.0
79.065	2.0
79.08	6.0
79.095	2.0
79.11	2.0
79.125	3.0
79.14	2.0
79.155	4.0
79.17	2.0
79.185	7.0
79.2	5.0
79.215	1.0
79.23	4.0
79.245	2.0
79.26	3.0
79.275	2.0
79.29	4.0
79.304	3.0
79.319	3.0
79.334	4.0
79.349	4.0
79.364	4.0
79.379	4.0
79.394	6.0
79.409	1.0
79.424	1.0
79.439	5.0
79.454	3.0
79.469	6.0
79.484	4.0
79.499	2.0
79.514	7.0
79.529	0.0
79.544	1.0
79.559	2.0
79.574	6.0
79.589	1.0
79.604	3.0
79.619	4.0
79.634	6.0
79.649	0.0
79.664	3.0
79.679	3.0
79.693	8.0
79.708	0.0
79.723	0.0
79.738	4.0
79.753	5.0
79.768	4.0
79.783	4.0
79.798	2.0
79.813	3.0
79.828	5.0
79.843	5.0
79.858	0.0
79.873	4.0
79.888	3.0
79.903	4.0
79.918	2.0
79.933	3.0
79.948	5.0
79.963	4.0
79.978	1.0
79.993	3.0
80.008	4.0
80.023	4.0
80.038	2.0
80.053	3.0
80.068	1.0
80.083	4.0
80.098	7.0
80.113	0.0
80.128	9.0
80.143	6.0
80.158	2.0
80.173	7.0
80.188	6.0
80.202	1.0
80.217	8.0
80.232	5.0
80.247	1.0
80.262	5.0
80.277	4.0
80.292	5.0
80.307	2.0
80.322	5.0
80.337	2.0
80.352	2.0
80.367	2.0
80.382	4.0
80.397	5.0
80.412	3.0
80.427	0.0
80.442	3.0
80.457	3.0
80.472	3.0
80.487	5.0
80.502	1.0
80.517	2.0
80.532	4.0
80.547	2.0
80.562	6.0
80.577	1.0
80.592	6.0
80.607	2.0
80.622	4.0
80.637	2.0
80.652	5.0
80.667	3.0
80.682	2.0
80.697	7.0
80.712	9.0
80.727	1.0
80.742	1.0
80.757	4.0
80.772	1.0
80.787	2.0
80.802	4.0
80.817	5.0
80.832	5.0
80.847	1.0
80.862	4.0
80.877	2.0
80.892	5.0
80.907	3.0
80.922	1.0
80.937	2.0
80.952	4.0
80.967	1.0
80.982	2.0
80.997	4.0
81.012	2.0
81.027	2.0
81.042	3.0
81.057	2.0
81.072	2.0
81.087	2.0
81.101	2.0
81.116	4.0
81.131	5.0
81.146	3.0
81.161	5.0
81.176	3.0
81.191	2.0
81.206	4.0
81.221	2.0
81.236	7.0
81.251	2.0
81.266	3.0
81.281	1.0
81.296	3.0
81.311	3.0
81.326	2.0
81.341	2.0
81.356	4.0
81.371	4.0
81.386	3.0
81.401	5.0
81.416	5.0
81.431	4.0
81.446	5.0
81.461	2.0
81.476	2.0
81.491	2.0
81.506	3.0
81.521	0.0
81.536	2.0
81.55	2.0
81.565	1.0
81.58	3.0
81.595	2.0
81.61	1.0
81.625	5.0
81.64	0.0
81.655	4.0
81.67	3.0
81.685	1.0
81.7	0.0
81.715	2.0
81.73	3.0
81.745	7.0
81.76	3.0
81.775	2.0
81.79	1.0
81.805	5.0
81.819	1.0
81.834	5.0
81.849	6.0
81.864	5.0
81.879	4.0
81.894	2.0
81.909	4.0
81.924	5.0
81.939	3.0
81.954	6.0
81.969	4.0
81.984	1.0
81.999	0.0
82.013	2.0
82.028	3.0
82.043	1.0
82.058	2.0
82.073	5.0
82.088	3.0
82.103	3.0
82.118	0.0
82.133	1.0
82.148	2.0
82.163	1.0
82.177	1.0
82.192	2.0
82.207	0.0
82.222	3.0
82.237	0.0
82.252	1.0
82.267	3.0
82.282	1.0
82.297	4.0
82.312	0.0
82.326	5.0
82.341	2.0
82.356	3.0
82.371	3.0
82.386	4.0
82.401	2.0
82.416	4.0
82.431	4.0
82.445	2.0
82.46	3.0
82.475	4.0
82.49	4.0
82.505	4.0
82.52	5.0
82.535	6.0
82.55	6.0
82.565	2.0
82.579	1.0
82.594	3.0
82.609	2.0
82.624	2.0
82.639	1.0
82.654	4.0
82.669	2.0
82.684	4.0
82.698	3.0
82.713	4.0
82.728	2.0
82.743	0.0
82.758	1.0
82.773	2.0
82.788	2.0
82.803	4.0
82.817	5.0
82.832	4.0
82.847	3.0
82.862	4.0
82.877	3.0
82.892	4.0
82.907	5.0
82.922	5.0
82.937	2.0
82.951	4.0
82.966	4.0
82.981	2.0
82.996	0.0
83.011	3.0
83.026	5.0
83.041	1.0
83.056	4.0
83.07	1.0
83.085	3.0
83.1	3.0
83.115	6.0
83.13	3.0
83.145	3.0
83.16	2.0
83.175	1.0
83.19	5.0
83.204	3.0
83.219	3.0
83.234	2.0
83.249	3.0
83.264	5.0
83.279	2.0
83.294	0.0
83.309	2.0
83.324	0.0
83.339	2.0
83.353	3.0
83.368	5.0
83.383	4.0
83.398	2.0
83.413	2.0
83.428	3.0
83.443	2.0
83.458	1.0
83.473	1.0
83.488	3.0
83.503	8.0
83.517	6.0
83.532	4.0
83.547	1.0
83.562	2.0
83.577	6.0
83.592	3.0
83.607	4.0
83.622	1.0
83.637	3.0
83.652	1.0
83.667	3.0
83.682	4.0
83.697	1.0
83.712	2.0
83.727	2.0
83.741	0.0
83.756	3.0
83.771	5.0
83.786	0.0
83.801	4.0
83.816	5.0
83.831	1.0
83.846	2.0
83.861	3.0
83.876	5.0
83.891	5.0
83.906	3.0
83.921	2.0
83.936	7.0
83.951	6.0
83.966	4.0
83.981	4.0
83.996	4.0
84.011	1.0
84.026	3.0
84.041	1.0
84.056	0.0
84.071	7.0
84.086	5.0
84.101	7.0
84.116	9.0
84.131	5.0
84.146	2.0
84.161	7.0
84.176	5.0
84.191	2.0
84.206	5.0
84.221	3.0
84.236	0.0
84.251	6.0
84.266	5.0
84.281	1.0
84.296	4.0
84.311	3.0
84.326	1.0
84.341	4.0
84.356	4.0
84.371	4.0
84.386	5.0
84.401	8.0
84.416	2.0
84.431	2.0
84.446	3.0
84.461	5.0
84.476	2.0
84.492	3.0
84.507	5.0
84.522	6.0
84.537	3.0
84.552	3.0
84.567	4.0
84.582	1.0
84.597	1.0
84.612	2.0
84.627	1.0
84.642	2.0
84.657	1.0
84.672	1.0
84.687	4.0
84.702	3.0
84.717	3.0
84.733	2.0
84.748	5.0
84.763	6.0
84.778	4.0
84.793	5.0
84.808	5.0
84.823	0.0
84.838	3.0
84.853	5.0
84.868	5.0
84.883	2.0
84.898	4.0
84.913	1.0
84.929	1.0
84.944	1.0
84.959	4.0
84.974	4.0
84.989	2.0
85.004	3.0
85.019	4.0
85.034	2.0
85.049	3.0
85.064	6.0
85.079	3.0
85.094	3.0
85.11	4.0
85.125	3.0
85.14	2.0
85.155	2.0
85.17	3.0
85.185	3.0
85.2	5.0
85.215	2.0
85.23	7.0
85.245	3.0
85.26	2.0
85.276	5.0
85.291	1.0
85.306	2.0
85.321	3.0
85.336	4.0
85.351	4.0
85.366	1.0
85.381	3.0
85.396	3.0
85.411	0.0
85.426	1.0
85.441	3.0
85.457	2.0
85.472	2.0
85.487	1.0
85.502	1.0
85.517	1.0
85.532	0.0
85.547	2.0
85.562	2.0
85.577	2.0
85.592	2.0
85.607	3.0
85.622	1.0
85.637	2.0
85.653	1.0
85.668	5.0
85.683	4.0
85.698	3.0
85.713	0.0
85.728	1.0
85.743	3.0
85.758	1.0
85.773	5.0
85.788	2.0
85.803	2.0
85.818	2.0
85.833	4.0
85.848	1.0
85.863	3.0
85.879	3.0
85.894	1.0
85.909	1.0
85.924	3.0
85.939	2.0
85.954	3.0
85.969	4.0
85.984	5.0
85.999	1.0
86.014	5.0
86.029	3.0
86.044	3.0
86.059	3.0
86.074	5.0
86.089	4.0
86.104	5.0
86.119	4.0
86.134	4.0
86.149	4.0
86.164	4.0
86.179	3.0
86.194	3.0
86.209	5.0
86.224	3.0
86.239	4.0
86.254	1.0
86.269	1.0
86.284	3.0
86.299	5.0
86.314	4.0
86.33	2.0
86.345	4.0
86.36	3.0
86.375	4.0
86.39	3.0
86.405	4.0
86.42	6.0
86.435	3.0
86.45	3.0
86.465	5.0
86.48	2.0
86.495	4.0
86.51	1.0
86.525	1.0
86.54	2.0
86.555	2.0
86.57	0.0
86.585	3.0
86.6	4.0
86.615	1.0
86.63	1.0
86.645	6.0
86.659	5.0
86.674	6.0
86.689	1.0
86.704	3.0
86.719	5.0
86.734	5.0
86.749	2.0
86.764	1.0
86.779	7.0
86.794	3.0
86.809	2.0
86.824	4.0
86.839	1.0
86.854	2.0
86.869	6.0
86.884	5.0
86.899	3.0
86.914	3.0
86.929	6.0
86.944	4.0
86.959	2.0
86.974	10.0
86.989	8.0
87.004	3.0
87.019	6.0
87.034	4.0
87.049	3.0
87.064	2.0
87.079	6.0
87.094	3.0
87.109	2.0
87.124	4.0
87.139	4.0
87.154	5.0
87.169	3.0
87.184	2.0
87.199	1.0
87.214	4.0
87.229	3.0
87.244	1.0
87.259	6.0
87.274	3.0
87.289	0.0
87.304	0.0
87.319	6.0
87.334	3.0
87.349	2.0
87.364	4.0
87.379	3.0
87.394	1.0
87.409	3.0
87.424	2.0
87.438	2.0
87.453	8.0
87.468	6.0
87.483	3.0
87.498	4.0
87.513	6.0
87.528	3.0
87.543	3.0
87.558	5.0
87.573	6.0
87.588	6.0
87.603	7.0
87.618	2.0
87.633	1.0
87.648	5.0
87.663	4.0
87.678	4.0
87.693	2.0
87.708	1.0
87.723	7.0
87.738	1.0
87.753	5.0
87.768	8.0
87.783	5.0
87.798	6.0
87.813	2.0
87.828	4.0
87.843	2.0
87.858	3.0
87.873	5.0
87.888	1.0
87.903	1.0
87.918	5.0
87.933	5.0
87.948	2.0
87.963	2.0
87.978	4.0
87.993	3.0
88.008	3.0
88.023	3.0
88.038	3.0
88.053	5.0
88.068	2.0
88.083	3.0
88.098	6.0
88.113	0.0
88.128	2.0
88.143	5.0
88.158	4.0
88.174	3.0
88.189	4.0
88.204	6.0
88.219	2.0
88.234	4.0
88.249	1.0
88.264	5.0
88.279	7.0
88.294	2.0
88.309	3.0
88.324	2.0
88.339	4.0
88.354	4.0
88.369	7.0
88.384	2.0
88.399	3.0
88.414	1.0
88.429	3.0
88.444	4.0
88.459	3.0
88.474	2.0
88.489	3.0
88.504	7.0
88.519	3.0
88.534	2.0
88.549	2.0
88.564	6.0
88.58	6.0
88.595	2.0
88.61	5.0
88.625	2.0
88.64	4.0
88.655	3.0
88.67	1.0
88.685	2.0
88.7	4.0
88.715	3.0
88.73	4.0
88.745	2.0
88.76	3.0
88.775	1.0
88.79	3.0
88.805	2.0
88.82	7.0
88.835	3.0
88.85	5.0
88.865	3.0
88.88	1.0
88.895	6.0
88.911	1.0
88.926	0.0
88.941	1.0
88.956	0.0
88.971	4.0
88.986	3.0
89.001	0.0
89.016	4.0
89.031	0.0
89.046	9.0
89.061	2.0
89.076	3.0
89.091	4.0
89.106	6.0
89.121	3.0
89.136	4.0
89.151	1.0
89.166	6.0
89.181	1.0
89.196	5.0
89.211	3.0
89.227	3.0
89.242	0.0
89.257	1.0
89.272	3.0
89.287	5.0
89.302	2.0
89.317	4.0
89.332	3.0
89.347	4.0
89.362	3.0
89.377	7.0
89.392	2.0
89.407	6.0
89.422	5.0
89.437	4.0
89.452	6.0
89.467	2.0
89.482	2.0
89.497	3.0
89.512	4.0
89.527	3.0
89.542	2.0
89.557	3.0
89.572	3.0
89.587	2.0
89.602	3.0
89.617	0.0
89.632	5.0
89.647	6.0
89.662	1.0
89.677	1.0
89.693	5.0
89.708	4.0
89.723	7.0
89.738	2.0
89.753	2.0
89.768	1.0
89.783	5.0
89.798	1.0
89.813	1.0
89.828	2.0
89.843	1.0
89.858	3.0
89.873	2.0
89.888	5.0
89.903	3.0
89.918	2.0
89.933	5.0
89.948	5.0
89.963	4.0
89.978	5.0
89.993	3.0
90.008	1.0
90.023	4.0
90.038	2.0
90.053	2.0
90.068	1.0
90.083	1.0
90.097	1.0
90.112	3.0
90.127	5.0
90.142	6.0
90.157	4.0
90.172	8.0
90.187	3.0
90.202	5.0
90.217	5.0
90.232	5.0
90.247	1.0
90.262	6.0
90.277	2.0
90.292	4.0
90.307	5.0
90.322	3.0
90.337	2.0
90.352	3.0
90.367	2.0
90.382	7.0
90.397	2.0
90.412	1.0
90.427	1.0
90.442	1.0
90.457	4.0
90.472	6.0
90.487	6.0
90.501	4.0
90.516	3.0
90.531	2.0
90.546	4.0
90.561	2.0
90.576	4.0
90.591	2.0
90.606	3.0
90.621	2.0
90.636	6.0
90.651	2.0
90.666	2.0
90.681	3.0
90.696	7.0
90.711	4.0
90.726	4.0
90.741	2.0
90.755	0.0
90.77	5.0
90.785	3.0
90.8	2.0
90.815	5.0
90.83	4.0
90.845	1.0
90.86	5.0
90.875	2.0
90.89	1.0
90.905	4.0
90.92	2.0
90.935	3.0
90.95	4.0
90.965	3.0
90.979	8.0
90.994	2.0
91.009	5.0
91.024	3.0
91.039	6.0
91.054	5.0
91.069	2.0
91.084	8.0
91.099	6.0
91.114	5.0
91.129	1.0
91.144	7.0
91.159	5.0
91.174	1.0
91.188	4.0
91.203	1.0
91.218	1.0
91.233	2.0
91.248	4.0
91.263	4.0
91.278	6.0
91.293	2.0
91.308	1.0
91.323	3.0
91.338	4.0
91.353	4.0
91.368	2.0
91.383	0.0
91.398	2.0
91.412	3.0
91.427	1.0
91.442	5.0
91.457	2.0
91.472	4.0
91.487	4.0
91.502	2.0
91.517	2.0
91.532	1.0
91.547	7.0
91.562	1.0
91.577	3.0
91.592	3.0
91.607	4.0
91.622	3.0
91.637	3.0
91.652	1.0
91.666	1.0
91.681	1.0
91.696	4.0
91.711	1.0
91.726	5.0
91.741	5.0
91.756	1.0
91.771	1.0
91.786	3.0
91.801	3.0
91.816	4.0
91.831	2.0
91.846	7.0
91.861	1.0
91.876	3.0
91.891	3.0
91.906	1.0
91.921	1.0
91.936	2.0
91.951	2.0
91.966	3.0
91.981	2.0
91.995	1.0
92.01	8.0
92.025	2.0
92.04	3.0
92.055	3.0
92.07	0.0
92.085	2.0
92.1	6.0
92.115	5.0
92.13	5.0
92.145	5.0
92.16	4.0
92.175	4.0
92.19	3.0
92.205	1.0
92.22	4.0
92.235	2.0
92.25	5.0
92.265	2.0
92.28	5.0
92.295	3.0
92.31	5.0
92.325	2.0
92.34	2.0
92.355	0.0
92.37	1.0
92.385	3.0
92.4	1.0
92.415	5.0
92.43	4.0
92.445	4.0
92.46	5.0
92.475	2.0
92.49	2.0
92.505	3.0
92.52	3.0
92.535	1.0
92.55	3.0
92.565	3.0
92.58	2.0
92.595	5.0
92.61	3.0
92.625	4.0
92.64	7.0
92.655	0.0
92.67	6.0
92.685	2.0
92.7	3.0
92.715	1.0
92.73	2.0
92.745	3.0
92.76	2.0
92.775	1.0
92.79	3.0
92.805	1.0
92.82	2.0
92.835	2.0
92.85	3.0
92.865	6.0
92.88	1.0
92.895	5.0
92.91	3.0
92.925	3.0
92.94	2.0
92.955	3.0
92.97	2.0
92.985	3.0
93.0	1.0
93.015	2.0
93.03	6.0
93.045	5.0
93.06	4.0
93.075	2.0
93.09	4.0
93.105	1.0
93.12	3.0
93.135	6.0
93.15	2.0
93.165	2.0
93.18	6.0
93.195	3.0
93.21	3.0
93.225	6.0
93.24	1.0
93.255	6.0
93.27	6.0
93.285	2.0
93.3	3.0
93.315	1.0
93.33	6.0
93.345	4.0
93.36	1.0
93.375	2.0
93.39	5.0
93.405	1.0
93.42	4.0
93.435	2.0
93.45	4.0
93.465	2.0
93.48	6.0
93.495	6.0
93.51	7.0
93.525	1.0
93.54	8.0
93.555	4.0
93.57	2.0
93.585	2.0
93.6	2.0
93.615	3.0
93.63	3.0
93.645	1.0
93.66	2.0
93.675	3.0
93.69	7.0
93.705	2.0
93.72	3.0
93.735	5.0
93.75	2.0
93.765	2.0
93.78	2.0
93.795	10.0
93.81	6.0
93.824	0.0
93.839	0.0
93.854	3.0
93.869	3.0
93.884	1.0
93.899	2.0
93.914	1.0
93.929	1.0
93.944	3.0
93.959	1.0
93.974	3.0
93.989	1.0
94.004	2.0
94.019	0.0
94.034	3.0
94.049	2.0
94.064	6.0
94.079	2.0
94.094	3.0
94.108	7.0
94.123	5.0
94.138	5.0
94.153	2.0
94.168	3.0
94.183	1.0
94.198	0.0
94.213	5.0
94.228	2.0
94.243	10.0
94.258	3.0
94.273	8.0
94.288	3.0
94.302	3.0
94.317	5.0
94.332	7.0
94.347	5.0
94.362	6.0
94.377	5.0
94.392	5.0
94.407	2.0
94.422	6.0
94.437	4.0
94.452	3.0
94.466	5.0
94.481	5.0
94.496	4.0
94.511	2.0
94.526	4.0
94.541	3.0
94.556	3.0
94.571	7.0
94.586	3.0
94.601	4.0
94.615	2.0
94.63	7.0
94.645	2.0
94.66	4.0
94.675	6.0
94.69	2.0
94.705	3.0
94.72	5.0
94.735	3.0
94.749	3.0
94.764	2.0
94.779	2.0
94.794	0.0
94.809	1.0
94.824	4.0
94.839	2.0
94.854	2.0
94.868	4.0
94.883	3.0
94.898	2.0
94.913	4.0
94.928	4.0
94.943	5.0
94.958	1.0
94.973	3.0
94.987	2.0
95.002	6.0
95.017	1.0
95.032	1.0
95.047	4.0
95.062	4.0
95.077	3.0
95.092	1.0
95.106	7.0
95.121	5.0
95.136	4.0
95.151	3.0
95.166	3.0
95.181	2.0
95.196	7.0
95.211	6.0
95.226	6.0
95.24	2.0
95.255	4.0
95.27	1.0
95.285	2.0
95.3	6.0
95.315	5.0
95.33	3.0
95.345	2.0
95.359	2.0
95.374	2.0
95.389	2.0
95.404	1.0
95.419	5.0
95.434	7.0
95.449	0.0
95.464	2.0
95.478	1.0
95.493	2.0
95.508	6.0
95.523	1.0
95.538	1.0
95.553	2.0
95.568	5.0
95.583	7.0
95.597	3.0
95.612	4.0
95.627	4.0
95.642	2.0
95.657	2.0
95.672	1.0
95.687	1.0
95.702	1.0
95.717	7.0
95.731	4.0
95.746	3.0
95.761	3.0
95.776	4.0
95.791	2.0
95.806	6.0
95.821	3.0
95.836	1.0
95.851	3.0
95.866	1.0
95.88	3.0
95.895	1.0
95.91	1.0
95.925	2.0
95.94	4.0
95.955	3.0
95.97	4.0
95.985	5.0
96.0	6.0
96.015	5.0
96.029	3.0
96.044	0.0
96.059	2.0
96.074	3.0
96.089	4.0
96.104	2.0
96.119	5.0
96.134	4.0
96.149	3.0
96.164	4.0
96.179	1.0
96.194	3.0
96.208	4.0
96.223	7.0
96.238	3.0
96.253	1.0
96.268	3.0
96.283	2.0
96.298	6.0
96.313	5.0
96.328	1.0
96.343	1.0
96.358	2.0
96.373	3.0
96.388	2.0
96.403	0.0
96.417	1.0
96.432	2.0
96.447	2.0
96.462	4.0
96.477	0.0
96.492	1.0
96.507	3.0
96.522	1.0
96.537	2.0
96.552	2.0
96.567	4.0
96.582	1.0
96.597	5.0
96.612	5.0
96.627	3.0
96.642	3.0
96.656	4.0
96.671	1.0
96.686	0.0
96.701	2.0
96.716	2.0
96.731	4.0
96.746	1.0
96.761	2.0
96.776	4.0
96.791	5.0
96.806	6.0
96.821	5.0
96.836	3.0
96.851	3.0
96.866	3.0
96.881	4.0
96.896	4.0
96.911	6.0
96.926	4.0
96.94	8.0
96.955	7.0
96.97	3.0
96.985	2.0
97.0	5.0
97.015	6.0
97.03	2.0
97.045	3.0
97.06	1.0
97.075	4.0
97.09	0.0
97.105	6.0
97.12	1.0
97.135	5.0
97.15	4.0
97.165	2.0
97.18	3.0
97.195	6.0
97.21	5.0
97.225	2.0
97.239	5.0
97.254	3.0
97.269	7.0
97.284	2.0
97.299	1.0
97.314	4.0
97.329	5.0
97.344	3.0
97.359	2.0
97.374	4.0
97.389	6.0
97.404	3.0
97.419	4.0
97.434	2.0
97.449	5.0
97.464	1.0
97.479	3.0
97.494	2.0
97.509	4.0
97.524	2.0
97.538	3.0
97.553	4.0
97.568	1.0
97.583	2.0
97.598	2.0
97.613	5.0
97.628	4.0
97.643	1.0
97.658	1.0
97.673	2.0
97.688	3.0
97.703	8.0
97.718	1.0
97.733	5.0
97.748	5.0
97.763	3.0
97.778	5.0
97.792	3.0
97.807	5.0
97.822	4.0
97.837	2.0
97.852	6.0
97.867	2.0
97.882	6.0
97.897	4.0
97.912	1.0
97.927	4.0
97.942	1.0
97.957	3.0
97.972	3.0
97.987	2.0
98.001	4.0
98.016	1.0
98.031	2.0
98.046	2.0
98.061	3.0
98.076	1.0
98.091	2.0
98.106	2.0
98.121	5.0
98.136	3.0
98.151	5.0
98.166	2.0
98.181	6.0
98.195	1.0
98.21	4.0
98.225	3.0
98.24	3.0
98.255	3.0
98.27	4.0
98.285	7.0
98.3	4.0
98.315	1.0
98.33	3.0
98.345	2.0
98.359	5.0
98.374	2.0
98.389	4.0
98.404	5.0
98.419	1.0
98.434	2.0
98.449	1.0
98.464	2.0
98.479	3.0
98.494	1.0
98.508	4.0
98.523	2.0
98.538	4.0
98.553	2.0
98.568	0.0
98.583	4.0
98.598	2.0
98.613	3.0
98.628	6.0
98.642	1.0
98.657	5.0
98.672	2.0
98.687	0.0
98.702	3.0
98.717	3.0
98.732	0.0
98.747	1.0
98.762	4.0
98.776	5.0
98.791	3.0
98.806	6.0
98.821	3.0
98.836	4.0
98.851	1.0
98.866	2.0
98.881	2.0
98.896	2.0
98.91	2.0
98.925	5.0
98.94	0.0
98.955	2.0
98.97	5.0
98.985	4.0
99.0	3.0
99.015	2.0
99.029	0.0
99.044	3.0
99.059	5.0
99.074	3.0
99.089	3.0
99.104	3.0
99.119	0.0
99.133	3.0
99.148	6.0
99.163	1.0
99.178	2.0
99.193	2.0
99.208	5.0
99.223	2.0
99.238	4.0
99.252	5.0
99.267	5.0
99.282	2.0
99.297	2.0
99.312	4.0
99.327	5.0
99.342	2.0
99.356	4.0
99.371	3.0
99.386	2.0
99.401	6.0
99.416	3.0
99.431	8.0
99.446	3.0
99.461	4.0
99.475	3.0
99.49	4.0
99.505	1.0
99.52	2.0
99.535	1.0
99.55	4.0
99.565	2.0
99.579	3.0
99.594	1.0
99.609	1.0
99.624	5.0
99.639	3.0
99.654	2.0
99.669	3.0
99.683	0.0
99.698	4.0
99.713	6.0
99.728	3.0
99.743	3.0
99.758	3.0
99.772	1.0
99.787	2.0
99.802	1.0
99.817	2.0
99.832	4.0
99.847	0.0
99.862	2.0
99.876	5.0
99.891	5.0
99.906	1.0
99.921	0.0
99.936	0.0
99.951	2.0
99.966	4.0
99.98	1.0
99.995	3.0
100.01	1.0
100.025	1.0
100.04	3.0
100.055	4.0
100.069	4.0
100.084	4.0
100.099	11.0
100.114	5.0
100.129	4.0
100.144	5.0
100.159	2.0
100.173	6.0
100.188	4.0
100.203	1.0
100.218	1.0
100.233	2.0
100.248	4.0
100.262	5.0
100.277	8.0
100.292	5.0
100.307	4.0
100.322	8.0
100.337	1.0
100.351	6.0
100.366	2.0
100.381	7.0
100.396	2.0
100.411	5.0
100.426	5.0
100.441	5.0
100.455	7.0
100.47	5.0
100.485	0.0
100.5	1.0
100.515	6.0
100.53	5.0
100.544	3.0
100.559	3.0
100.574	11.0
100.589	5.0
100.604	2.0
100.619	4.0
100.633	2.0
100.648	4.0
100.663	4.0
100.678	6.0
100.693	1.0
100.708	1.0
100.722	3.0
100.737	5.0
100.752	2.0
100.767	4.0
100.782	3.0
100.796	2.0
100.811	2.0
100.826	3.0
100.841	1.0
100.856	8.0
100.871	2.0
100.885	2.0
100.9	5.0
100.915	2.0
100.93	1.0
100.945	2.0
100.96	2.0
100.974	6.0
100.989	5.0
101.004	4.0
101.019	2.0
101.034	3.0
101.048	4.0
101.063	3.0
101.078	3.0
101.093	6.0
101.108	3.0
101.123	3.0
101.137	4.0
101.152	5.0
101.167	3.0
101.182	5.0
101.197	4.0
101.211	5.0
101.226	3.0
101.241	2.0
101.256	3.0
101.271	3.0
101.285	3.0
101.3	0.0
101.315	1.0
101.33	2.0
101.345	4.0
101.359	6.0
101.374	2.0
101.389	2.0
101.404	1.0
101.419	4.0
101.433	3.0
101.448	4.0
101.463	3.0
101.478	2.0
101.493	4.0
101.507	3.0
101.522	4.0
101.537	5.0
101.552	6.0
101.567	2.0
101.581	0.0
101.596	4.0
101.611	2.0
101.626	2.0
101.64	5.0
101.655	4.0
101.67	1.0
101.685	1.0
101.7	3.0
101.714	7.0
101.729	1.0
101.744	4.0
101.759	7.0
101.773	4.0
101.788	3.0
101.803	2.0
101.818	1.0
101.833	4.0
101.847	3.0
101.862	3.0
101.877	5.0
101.892	4.0
101.906	0.0
101.921	4.0
101.936	3.0
101.951	4.0
101.965	7.0
101.98	3.0
101.995	7.0
102.01	5.0
102.025	3.0
102.039	4.0
102.054	2.0
102.069	3.0
102.084	5.0
102.098	4.0
102.113	2.0
102.128	6.0
102.143	3.0
102.157	2.0
102.172	4.0
102.187	8.0
102.202	6.0
102.216	3.0
102.231	4.0
102.246	4.0
102.261	4.0
102.275	4.0
102.29	4.0
102.305	5.0
102.32	5.0
102.334	3.0
102.349	4.0
102.364	6.0
102.378	2.0
102.393	3.0
102.408	4.0
102.423	1.0
102.437	3.0
102.452	1.0
102.467	5.0
102.482	1.0
102.496	6.0
102.511	4.0
102.526	2.0
102.541	1.0
102.555	3.0
102.57	4.0
102.585	0.0
102.6	1.0
102.614	2.0
102.629	7.0
102.644	2.0
102.659	2.0
102.673	3.0
102.688	2.0
102.703	3.0
102.717	2.0
102.732	1.0
102.747	9.0
102.762	4.0
102.776	5.0
102.791	1.0
102.806	4.0
102.821	2.0
102.835	4.0
102.85	2.0
102.865	2.0
102.88	5.0
102.894	4.0
102.909	3.0
102.924	6.0
102.938	3.0
102.953	7.0
102.968	1.0
102.983	3.0
102.997	4.0
103.012	5.0
103.027	0.0
103.042	5.0
103.056	3.0
103.071	2.0
103.086	2.0
103.101	4.0
103.115	4.0
103.13	2.0
103.145	2.0
103.16	5.0
103.174	6.0
103.189	4.0
103.204	3.0
103.219	3.0
103.233	3.0
103.248	4.0
103.263	2.0
103.278	2.0
103.292	2.0
103.307	2.0
103.322	1.0
103.337	3.0
103.351	1.0
103.366	1.0
103.381	1.0
103.396	3.0
103.41	3.0
103.425	3.0
103.44	4.0
103.455	7.0
103.469	5.0
103.484	6.0
103.499	3.0
103.514	4.0
103.529	2.0
103.543	4.0
103.558	3.0
103.573	2.0
103.588	2.0
103.602	5.0
103.617	4.0
103.632	2.0
103.647	3.0
103.661	5.0
103.676	2.0
103.691	2.0
103.706	2.0
103.721	11.0
103.735	3.0
103.75	4.0
103.765	3.0
103.78	3.0
103.795	6.0
103.809	4.0
103.824	5.0
103.839	2.0
103.854	7.0
103.869	2.0
103.883	5.0
103.898	3.0
103.913	7.0
103.928	1.0
103.943	2.0
103.957	2.0
103.972	4.0
103.987	3.0
104.002	2.0
104.017	3.0
104.031	7.0
104.046	1.0
104.061	1.0
104.076	1.0
104.091	3.0
104.106	1.0
104.12	1.0
104.135	5.0
104.15	2.0
104.165	3.0
104.18	4.0
104.195	2.0
104.209	6.0
104.224	2.0
104.239	0.0
104.254	3.0
104.269	4.0
104.284	1.0
104.299	4.0
104.313	1.0
104.328	1.0
104.343	3.0
104.358	0.0
104.373	3.0
104.388	1.0
104.403	1.0
104.417	2.0
104.432	4.0
104.447	3.0
104.462	4.0
104.477	0.0
104.492	1.0
104.507	3.0
104.522	2.0
104.536	4.0
104.551	2.0
104.566	4.0
104.581	7.0
104.596	3.0
104.611	4.0
104.626	3.0
104.641	5.0
104.656	3.0
104.67	5.0
104.685	2.0
104.7	3.0
104.715	4.0
104.73	1.0
104.745	2.0
104.76	8.0
104.775	1.0
104.79	3.0
104.804	5.0
104.819	4.0
104.834	4.0
104.849	3.0
104.864	5.0
104.879	3.0
104.894	2.0
104.909	7.0
104.924	5.0
104.939	6.0
104.954	2.0
104.968	2.0
104.983	3.0
104.998	1.0
105.013	2.0
105.028	8.0
105.043	1.0
105.058	4.0
105.073	5.0
105.088	3.0
105.103	5.0
105.118	3.0
105.133	3.0
105.147	3.0
105.162	2.0
105.177	2.0
105.192	4.0
105.207	1.0
105.222	3.0
105.237	6.0
105.252	1.0
105.267	4.0
105.282	2.0
105.297	3.0
105.312	1.0
105.327	1.0
105.342	2.0
105.356	2.0
105.371	2.0
105.386	4.0
105.401	2.0
105.416	1.0
105.431	3.0
105.446	3.0
105.461	3.0
105.476	4.0
105.491	9.0
105.506	5.0
105.521	0.0
105.536	2.0
105.551	6.0
105.566	2.0
105.581	5.0
105.595	4.0
105.61	2.0
105.625	0.0
105.64	5.0
105.655	3.0
105.67	3.0
105.685	3.0
105.7	4.0
105.715	5.0
105.73	2.0
105.745	4.0
105.76	0.0
105.775	3.0
105.79	4.0
105.805	4.0
105.82	4.0
105.835	1.0
105.85	6.0
105.864	3.0
105.879	5.0
105.894	3.0
105.909	1.0
105.924	4.0
105.939	3.0
105.954	2.0
105.969	2.0
105.984	2.0
105.999	4.0
106.014	3.0
106.029	1.0
106.044	4.0
106.059	5.0
106.074	3.0
106.089	2.0
106.104	6.0
106.119	3.0
106.134	4.0
106.148	3.0
106.163	4.0
106.178	2.0
106.193	2.0
106.208	3.0
106.223	4.0
106.238	1.0
106.253	3.0
106.268	7.0
106.283	4.0
106.298	6.0
106.313	0.0
106.328	2.0
106.343	6.0
106.358	3.0
106.373	5.0
106.388	5.0
106.403	0.0
106.418	3.0
106.432	6.0
106.447	2.0
106.462	3.0
106.477	5.0
106.492	4.0
106.507	2.0
106.522	2.0
106.537	5.0
106.552	5.0
106.567	3.0
106.582	3.0
106.597	6.0
106.612	1.0
106.627	0.0
106.642	3.0
106.657	1.0
106.672	2.0
106.687	7.0
106.701	4.0
106.716	0.0
106.731	3.0
106.746	2.0
106.761	2.0
106.776	2.0
106.791	2.0
106.806	1.0
106.821	3.0
106.836	4.0
106.851	4.0
106.866	1.0
106.881	5.0
106.896	2.0
106.911	1.0
106.926	6.0
106.941	2.0
106.955	4.0
106.97	2.0
106.985	3.0
107.0	2.0
107.015	3.0
107.03	2.0
107.045	5.0
107.06	4.0
107.075	2.0
107.09	1.0
107.105	5.0
107.12	3.0
107.135	4.0
107.15	5.0
107.165	6.0
107.18	5.0
107.194	3.0
107.209	4.0
107.224	4.0
107.239	4.0
107.254	6.0
107.269	6.0
107.284	5.0
107.299	3.0
107.314	2.0
107.329	4.0
107.344	6.0
107.359	7.0
107.374	2.0
107.389	3.0
107.404	1.0
107.418	4.0
107.433	3.0
107.448	2.0
107.463	1.0
107.478	0.0
107.493	3.0
107.508	2.0
107.523	4.0
107.538	2.0
107.553	4.0
107.568	4.0
107.583	3.0
107.598	3.0
107.613	4.0
107.627	3.0
107.642	6.0
107.657	5.0
107.672	1.0
107.687	6.0
107.702	1.0
107.717	3.0
107.732	3.0
107.747	5.0
107.762	2.0
107.777	3.0
107.792	5.0
107.807	3.0
107.821	4.0
107.836	5.0
107.851	4.0
107.866	1.0
107.881	4.0
107.896	4.0
107.911	3.0
107.926	3.0
107.941	2.0
107.956	7.0
107.971	2.0
107.986	9.0
108.0	3.0
108.015	4.0
108.03	5.0
108.045	7.0
108.06	4.0
108.075	6.0
108.09	3.0
108.105	5.0
108.12	6.0
108.135	5.0
108.15	4.0
108.164	3.0
108.179	7.0
108.194	8.0
108.209	2.0
108.224	3.0
108.239	3.0
108.254	6.0
108.269	5.0
108.284	4.0
108.299	5.0
108.313	2.0
108.328	6.0
108.343	3.0
108.358	2.0
108.373	3.0
108.388	2.0
108.403	5.0
108.418	5.0
108.433	3.0
108.448	4.0
108.462	4.0
108.477	3.0
108.492	8.0
108.507	1.0
108.522	3.0
108.537	5.0
108.552	7.0
108.567	3.0
108.582	4.0
108.597	3.0
108.611	3.0
108.626	6.0
108.641	4.0
108.656	5.0
108.671	2.0
108.686	2.0
108.701	2.0
108.716	2.0
108.731	2.0
108.745	4.0
108.76	0.0
108.775	3.0
108.79	4.0
108.805	3.0
108.82	6.0
108.835	3.0
108.85	4.0
108.865	2.0
108.879	3.0
108.894	5.0
108.909	3.0
108.924	1.0
108.939	4.0
108.954	4.0
108.969	3.0
108.984	2.0
108.999	7.0
109.013	2.0
109.028	4.0
109.043	5.0
109.058	6.0
109.073	4.0
109.088	0.0
109.103	3.0
109.118	4.0
109.133	3.0
109.147	4.0
109.162	3.0
109.177	1.0
109.192	4.0
109.207	1.0
109.222	4.0
109.237	4.0
109.252	7.0
109.267	2.0
109.281	3.0
109.296	4.0
109.311	2.0
109.326	0.0
109.341	4.0
109.356	3.0
109.371	0.0
109.386	3.0
109.4	3.0
109.415	4.0
109.43	4.0
109.445	1.0
109.46	0.0
109.475	2.0
109.49	3.0
109.505	4.0
109.52	5.0
109.534	2.0
109.549	3.0
109.564	3.0
109.579	4.0
109.594	4.0
109.609	3.0
109.624	4.0
109.639	1.0
109.653	6.0
109.668	1.0
109.683	1.0
109.698	2.0
109.713	2.0
109.728	7.0
109.743	1.0
109.758	2.0
109.773	2.0
109.787	3.0
109.802	6.0
109.817	4.0
109.832	4.0
109.847	2.0
109.862	2.0
109.877	2.0
109.892	4.0
109.907	7.0
109.921	5.0
109.936	2.0
109.951	4.0
109.966	3.0
109.981	5.0
109.996	6.0
110.011	3.0
110.026	2.0
110.04	7.0
110.055	4.0
110.07	4.0
110.085	6.0
110.1	3.0
110.115	2.0
110.13	3.0
110.145	4.0
110.16	3.0
110.174	3.0
110.189	4.0
110.204	4.0
110.219	3.0
110.234	4.0
110.249	6.0
110.264	5.0
110.279	6.0
110.294	4.0
110.308	3.0
110.323	4.0
110.338	5.0
110.353	1.0
110.368	0.0
110.383	1.0
110.398	5.0
110.413	4.0
110.428	3.0
110.442	2.0
110.457	4.0
110.472	5.0
110.487	3.0
110.502	3.0
110.517	1.0
110.532	2.0
110.547	5.0
110.561	3.0
110.576	6.0
110.591	4.0
110.606	4.0
110.621	3.0
110.636	3.0
110.651	3.0
110.666	5.0
110.681	4.0
110.695	1.0
110.71	4.0
110.725	4.0
110.74	4.0
110.755	4.0
110.77	2.0
110.785	6.0
110.8	6.0
110.815	5.0
110.829	3.0
110.844	3.0
110.859	3.0
110.874	1.0
110.889	1.0
110.904	3.0
110.919	2.0
110.934	1.0
110.948	4.0
110.963	4.0
110.978	2.0
110.993	2.0
111.008	3.0
111.023	1.0
111.038	4.0
111.053	2.0
111.067	2.0
111.082	4.0
111.097	1.0
111.112	5.0
111.127	2.0
111.142	1.0
111.157	3.0
111.172	5.0
111.186	3.0
111.201	5.0
111.216	1.0
111.231	0.0
111.246	3.0
111.261	3.0
111.276	8.0
111.291	9.0
111.305	2.0
111.32	4.0
111.335	4.0
111.35	6.0
111.365	3.0
111.38	5.0
111.395	3.0
111.41	5.0
111.424	7.0
111.439	3.0
111.454	2.0
111.469	3.0
111.484	3.0
111.499	3.0
111.514	6.0
111.528	5.0
111.543	6.0
111.558	4.0
111.573	5.0
111.588	3.0
111.603	4.0
111.618	9.0
111.633	7.0
111.647	2.0
111.662	6.0
111.677	9.0
111.692	2.0
111.707	7.0
111.722	2.0
111.737	3.0
111.751	2.0
111.766	5.0
111.781	3.0
111.796	4.0
111.811	3.0
111.826	1.0
111.84	6.0
111.855	5.0
111.87	4.0
111.885	8.0
111.9	4.0
111.915	4.0
111.93	6.0
111.944	2.0
111.959	5.0
111.974	3.0
111.989	2.0
112.004	4.0
112.019	2.0
112.033	4.0
112.048	5.0
112.063	3.0
112.078	1.0
112.093	5.0
112.108	2.0
112.123	5.0
112.137	2.0
112.152	3.0
112.167	2.0
112.182	2.0
112.197	4.0
112.212	4.0
112.226	7.0
112.241	4.0
112.256	3.0
112.271	3.0
112.286	4.0
112.301	1.0
112.315	2.0
112.33	4.0
112.345	3.0
112.36	0.0
112.375	2.0
112.389	3.0
112.404	3.0
112.419	4.0
112.434	3.0
112.449	3.0
112.464	2.0
112.478	1.0
112.493	5.0
112.508	5.0
112.523	4.0
112.538	4.0
112.553	4.0
112.567	2.0
112.582	8.0
112.597	4.0
112.612	1.0
112.627	2.0
112.642	2.0
112.656	5.0
112.671	4.0
112.686	3.0
112.701	5.0
112.716	3.0
112.73	4.0
112.745	8.0
112.76	3.0
112.775	3.0
112.79	2.0
112.805	3.0
112.819	5.0
112.834	7.0
112.849	5.0
112.864	2.0
112.879	3.0
112.894	3.0
112.908	3.0
112.923	1.0
112.938	4.0
112.953	2.0
112.968	2.0
112.983	5.0
112.997	1.0
113.012	4.0
113.027	5.0
113.042	1.0
113.057	5.0
113.072	5.0
113.086	2.0
113.101	4.0
113.116	7.0
113.131	6.0
113.146	6.0
113.161	5.0
113.175	0.0
113.19	0.0
113.205	3.0
113.22	4.0
113.235	5.0
113.25	3.0
113.265	4.0
113.279	2.0
113.294	3.0
113.309	3.0
113.324	1.0
113.339	6.0
113.354	0.0
113.368	3.0
113.383	4.0
113.398	1.0
113.413	7.0
113.428	4.0
113.443	1.0
113.458	2.0
113.472	4.0
113.487	2.0
113.502	2.0
113.517	2.0
113.532	3.0
113.547	4.0
113.562	1.0
113.576	2.0
113.591	3.0
113.606	4.0
113.621	2.0
113.636	6.0
113.651	2.0
113.666	4.0
113.681	2.0
113.695	1.0
113.71	1.0
113.725	5.0
113.74	3.0
113.755	3.0
113.77	4.0
113.785	3.0
113.8	1.0
113.814	4.0
113.829	3.0
113.844	1.0
113.859	6.0
113.874	5.0
113.889	4.0
113.904	1.0
113.919	7.0
113.934	5.0
113.949	4.0
113.963	2.0
113.978	1.0
113.993	0.0
114.008	6.0
114.023	6.0
114.038	2.0
114.053	4.0
114.068	4.0
114.083	4.0
114.098	3.0
114.113	2.0
114.127	2.0
114.142	3.0
114.157	6.0
114.172	8.0
114.187	4.0
114.202	1.0
114.217	4.0
114.232	5.0
114.247	4.0
114.262	5.0
114.277	4.0
114.292	7.0
114.307	4.0
114.322	6.0
114.337	3.0
114.351	8.0
114.366	1.0
114.381	4.0
114.396	4.0
114.411	4.0
114.426	3.0
114.441	2.0
114.456	4.0
114.471	2.0
114.486	4.0
114.501	2.0
114.516	5.0
114.531	3.0
114.546	5.0
114.561	2.0
114.576	3.0
114.591	1.0
114.606	2.0
114.621	1.0
114.636	5.0
114.65	5.0
114.665	7.0
114.68	0.0
114.695	1.0
114.71	0.0
114.725	3.0
114.74	1.0
114.755	1.0
114.77	2.0
114.785	4.0
114.8	4.0
114.815	4.0
114.83	5.0
114.845	2.0
114.86	3.0
114.875	8.0
114.89	5.0
114.905	4.0
114.92	0.0
114.935	3.0
114.95	4.0
114.965	11.0
114.98	5.0
114.995	4.0
115.009	2.0
115.024	2.0
115.039	4.0
115.054	2.0
115.069	6.0
115.084	1.0
115.099	1.0
115.114	4.0
115.129	4.0
115.144	9.0
115.159	4.0
115.174	5.0
115.189	8.0
115.204	3.0
115.219	2.0
115.234	4.0
115.249	3.0
115.264	2.0
115.279	5.0
115.294	7.0
115.309	5.0
115.323	4.0
115.338	5.0
115.353	5.0
115.368	2.0
115.383	3.0
115.398	3.0
115.413	5.0
115.428	4.0
115.443	7.0
115.458	0.0
115.473	6.0
115.488	1.0
115.503	4.0
115.518	6.0
115.533	4.0
115.548	1.0
115.562	3.0
115.577	4.0
115.592	3.0
115.607	6.0
115.622	5.0
115.637	4.0
115.652	4.0
115.667	3.0
115.682	2.0
115.697	1.0
115.712	4.0
115.727	6.0
115.741	1.0
115.756	1.0
115.771	1.0
115.786	7.0
115.801	3.0
115.816	2.0
115.831	4.0
115.846	1.0
115.861	3.0
115.875	2.0
115.89	2.0
115.905	4.0
115.92	1.0
115.935	7.0
115.95	3.0
115.965	2.0
115.98	5.0
115.995	2.0
116.009	2.0
116.024	6.0
116.039	1.0
116.054	7.0
116.069	1.0
116.084	2.0
116.099	3.0
116.113	6.0
116.128	4.0
116.143	6.0
116.158	3.0
116.173	2.0
116.188	3.0
116.202	4.0
116.217	2.0
116.232	3.0
116.247	6.0
116.262	3.0
116.277	3.0
116.291	3.0
116.306	6.0
116.321	5.0
116.336	3.0
116.351	3.0
116.366	2.0
116.38	5.0
116.395	4.0
116.41	2.0
116.425	5.0
116.44	2.0
116.454	2.0
116.469	3.0
116.484	6.0
116.499	7.0
116.514	2.0
116.528	5.0
116.543	4.0
116.558	1.0
116.573	6.0
116.588	3.0
116.602	5.0
116.617	1.0
116.632	2.0
116.647	6.0
116.662	3.0
116.676	1.0
116.691	5.0
116.706	3.0
116.721	4.0
116.735	5.0
116.75	6.0
116.765	2.0
116.78	5.0
116.795	5.0
116.809	0.0
116.824	3.0
116.839	4.0
116.854	4.0
116.868	1.0
116.883	6.0
116.898	2.0
116.913	8.0
116.927	5.0
116.942	1.0
116.957	3.0
116.972	4.0
116.986	5.0
117.001	5.0
117.016	5.0
117.031	4.0
117.045	1.0
117.06	6.0
117.075	3.0
117.09	3.0
117.104	4.0
117.119	5.0
117.134	2.0
117.149	4.0
117.163	5.0
117.178	4.0
117.193	4.0
117.208	3.0
117.222	7.0
117.237	6.0
117.252	3.0
117.267	2.0
117.281	2.0
117.296	1.0
117.311	7.0
117.325	1.0
117.34	3.0
117.355	4.0
117.37	4.0
117.384	3.0
117.399	3.0
117.414	4.0
117.429	3.0
117.443	5.0
117.458	2.0
117.473	5.0
117.487	2.0
117.502	2.0
117.517	3.0
117.532	4.0
117.546	6.0
117.561	1.0
117.576	1.0
117.59	4.0
117.605	2.0
117.62	7.0
117.635	1.0
117.649	3.0
117.664	3.0
117.679	0.0
117.693	5.0
117.708	5.0
117.723	6.0
117.738	0.0
117.752	3.0
117.767	5.0
117.782	3.0
117.796	1.0
117.811	4.0
117.826	5.0
117.841	9.0
117.855	0.0
117.87	3.0
117.885	6.0
117.899	2.0
117.914	9.0
117.929	3.0
117.944	9.0
117.958	1.0
117.973	1.0
117.988	3.0
118.002	1.0
118.017	2.0
118.032	4.0
118.047	4.0
118.062	10.0
118.077	6.0
118.092	4.0
118.107	4.0
118.121	5.0
118.136	4.0
118.151	7.0
118.166	10.0
118.181	3.0
118.196	3.0
118.211	2.0
118.225	7.0
118.24	5.0
118.255	3.0
118.27	2.0
118.285	5.0
118.3	2.0
118.315	5.0
118.33	2.0
118.344	4.0
118.359	2.0
118.374	5.0
118.389	4.0
118.404	5.0
118.419	3.0
118.434	2.0
118.449	3.0
118.463	0.0
118.478	3.0
118.493	7.0
118.508	1.0
118.523	3.0
118.538	5.0
118.553	7.0
118.567	6.0
118.582	5.0
118.597	5.0
118.612	2.0
118.627	5.0
118.642	5.0
118.657	0.0
118.672	6.0
118.686	4.0
118.701	4.0
118.716	2.0
118.731	7.0
118.746	0.0
118.761	2.0
118.776	1.0
118.791	2.0
118.805	5.0
118.82	3.0
118.835	3.0
118.85	2.0
118.865	6.0
118.88	3.0
118.895	2.0
118.909	6.0
118.924	5.0
118.939	4.0
118.954	6.0
118.969	3.0
118.984	0.0
118.999	2.0
119.014	4.0
119.028	4.0
119.043	2.0
119.058	6.0
119.073	3.0
119.088	3.0
119.103	5.0
119.118	3.0
119.133	2.0
119.147	1.0
119.162	1.0
119.177	8.0
119.192	4.0
119.207	3.0
119.222	4.0
119.237	6.0
119.251	6.0
119.266	6.0
119.281	4.0
119.296	5.0
119.311	4.0
119.326	1.0
119.341	3.0
119.356	2.0
119.37	4.0
119.385	6.0
119.4	3.0
119.415	5.0
119.43	4.0
119.445	3.0
119.46	6.0
119.475	3.0
119.489	5.0
119.504	1.0
119.519	2.0
119.534	5.0
119.549	2.0
119.564	5.0
119.579	3.0
119.593	4.0
119.608	3.0
119.623	4.0
119.638	3.0
119.653	1.0
119.668	6.0
119.683	5.0
119.698	2.0
119.712	3.0
119.727	5.0
119.742	4.0
119.757	5.0
119.772	1.0
119.787	4.0
119.802	4.0
119.817	1.0
119.831	2.0
119.846	3.0
119.861	3.0
119.876	2.0
119.891	2.0
119.906	4.0
119.921	4.0
119.935	2.0
119.95	2.0
119.965	0.0
119.98	4.0
119.995	0.0
120.01	4.0
120.025	2.0
120.04	5.0
120.054	1.0
120.069	2.0
120.084	3.0
120.099	2.0
120.114	1.0
120.129	6.0
120.144	1.0
120.159	2.0
120.173	1.0
120.188	0.0
120.203	1.0
120.218	0.0
120.233	2.0
120.248	0.0
120.263	2.0
120.277	2.0
120.292	2.0
120.307	1.0
120.322	0.0
120.337	0.0
120.352	0.0
120.367	0.0
120.382	0.0
120.396	0.0
120.411	0.0
120.426	0.0
120.441	0.0
120.456	0.0
120.471	0.0
120.486	0.0
120.501	0.0
120.515	0.0
120.53	0.0
120.545	1.0
120.56	1.0
120.575	0.0
120.59	0.0
120.605	0.0
120.619	0.0
120.634	0.0
120.649	0.0
120.664	1.0
120.679	0.0
120.694	0.0
120.709	0.0
120.724	0.0
120.738	0.0
120.753	1.0
120.768	0.0
120.783	0.0
120.798	0.0
120.813	1.0
120.828	0.0
120.843	0.0
120.857	0.0
120.872	0.0
120.887	0.0
120.902	0.0
120.917	0.0
120.932	0.0
120.947	0.0
120.961	0.0
120.976	0.0
