-1.217	0.0
-1.202	0.0
-1.187	0.0
-1.172	0.0
-1.157	0.0
-1.142	0.0
-1.128	0.0
-1.113	0.0
-1.098	0.0
-1.083	1.0
-1.068	0.0
-1.054	0.0
-1.039	0.0
-1.024	0.0
-1.009	0.0
-0.994	0.0
-0.979	0.0
-0.965	0.0
-0.95	0.0
-0.935	0.0
-0.92	0.0
-0.905	0.0
-0.891	0.0
-0.876	0.0
-0.861	0.0
-0.846	0.0
-0.831	0.0
-0.816	0.0
-0.802	0.0
-0.787	0.0
-0.772	0.0
-0.757	1.0
-0.742	0.0
-0.728	0.0
-0.713	0.0
-0.698	0.0
-0.683	0.0
-0.668	0.0
-0.653	0.0
-0.639	0.0
-0.624	0.0
-0.609	0.0
-0.594	0.0
-0.579	0.0
-0.565	0.0
-0.55	0.0
-0.535	0.0
-0.52	0.0
-0.505	0.0
-0.49	0.0
-0.476	0.0
-0.461	0.0
-0.446	0.0
-0.431	0.0
-0.416	0.0
-0.401	0.0
-0.387	0.0
-0.372	0.0
-0.357	0.0
-0.342	0.0
-0.327	0.0
-0.313	0.0
-0.298	0.0
-0.283	0.0
-0.268	0.0
-0.253	0.0
-0.238	0.0
-0.224	0.0
-0.209	0.0
-0.194	0.0
-0.179	0.0
-0.164	0.0
-0.15	0.0
-0.135	0.0
-0.12	0.0
-0.105	0.0
-0.09	0.0
-0.075	0.0
-0.061	0.0
-0.046	0.0
-0.031	0.0
-0.016	0.0
-0.001	0.0
0.013	0.0
0.028	0.0
0.043	0.0
0.058	0.0
0.073	0.0
0.088	0.0
0.102	0.0
0.117	0.0
0.132	0.0
0.147	0.0
0.162	0.0
0.176	0.0
0.191	0.0
0.206	1.0
0.221	0.0
0.236	0.0
0.251	0.0
0.265	0.0
0.28	0.0
0.295	0.0
0.31	0.0
0.325	0.0
0.339	0.0
0.354	0.0
0.369	0.0
0.384	0.0
0.399	0.0
0.414	0.0
0.428	0.0
0.443	0.0
0.458	0.0
0.473	0.0
0.488	0.0
0.502	0.0
0.517	0.0
0.532	0.0
0.547	0.0
0.562	0.0
0.577	0.0
0.591	0.0
0.606	0.0
0.621	0.0
0.636	0.0
0.651	0.0
0.665	0.0
0.68	0.0
0.695	0.0
0.71	0.0
0.725	0.0
0.74	0.0
0.754	0.0
0.769	0.0
0.784	0.0
0.799	0.0
0.814	0.0
0.828	0.0
0.843	0.0
0.858	0.0
0.873	0.0
0.888	0.0
0.903	0.0
0.917	0.0
0.932	0.0
0.947	0.0
0.962	0.0
0.977	0.0
0.991	0.0
1.006	0.0
1.021	1.0
1.036	0.0
1.051	0.0
1.065	0.0
1.08	0.0
1.095	0.0
1.11	0.0
1.125	0.0
1.14	0.0
1.154	0.0
1.169	0.0
1.184	1.0
1.199	0.0
1.214	0.0
1.228	0.0
1.243	0.0
1.258	0.0
1.273	0.0
1.288	0.0
1.302	0.0
1.317	0.0
1.332	0.0
1.347	0.0
1.362	0.0
1.376	0.0
1.391	0.0
1.406	0.0
1.421	0.0
1.436	0.0
1.45	0.0
1.465	0.0
1.48	0.0
1.495	0.0
1.51	1.0
1.524	0.0
1.539	0.0
1.554	0.0
1.569	0.0
1.584	0.0
1.598	0.0
1.613	0.0
1.628	0.0
1.643	0.0
1.658	0.0
1.672	0.0
1.687	0.0
1.702	1.0
1.717	0.0
1.732	0.0
1.746	0.0
1.761	0.0
1.776	0.0
1.791	0.0
1.806	0.0
1.82	0.0
1.835	0.0
1.85	0.0
1.865	0.0
1.88	0.0
1.894	0.0
1.909	0.0
1.924	0.0
1.939	0.0
1.954	1.0
1.968	0.0
1.983	0.0
1.998	0.0
2.013	0.0
2.028	0.0
2.042	0.0
2.057	0.0
2.072	0.0
2.087	0.0
2.101	0.0
2.116	0.0
2.131	0.0
2.146	0.0
2.161	1.0
2.175	0.0
2.19	0.0
2.205	0.0
2.22	0.0
2.235	0.0
2.249	0.0
2.264	1.0
2.279	0.0
2.294	0.0
2.308	0.0
2.323	0.0
2.338	1.0
2.353	0.0
2.368	2.0
2.382	1.0
2.397	0.0
2.412	1.0
2.427	1.0
2.442	1.0
2.456	2.0
2.471	0.0
2.486	2.0
2.501	1.0
2.515	1.0
2.53	1.0
2.545	0.0
2.56	2.0
2.575	3.0
2.589	2.0
2.604	2.0
2.619	3.0
2.634	0.0
2.649	5.0
2.663	1.0
2.678	4.0
2.693	0.0
2.708	1.0
2.722	5.0
2.737	1.0
2.752	3.0
2.767	4.0
2.782	3.0
2.796	1.0
2.811	5.0
2.826	6.0
2.841	3.0
2.856	0.0
2.87	1.0
2.885	3.0
2.9	2.0
2.915	1.0
2.93	5.0
2.944	5.0
2.959	2.0
2.974	5.0
2.989	5.0
3.004	5.0
3.018	1.0
3.033	3.0
3.048	4.0
3.063	6.0
3.078	4.0
3.092	5.0
3.107	5.0
3.122	5.0
3.137	4.0
3.152	1.0
3.166	9.0
3.181	3.0
3.196	4.0
3.211	6.0
3.226	7.0
3.24	7.0
3.255	2.0
3.27	6.0
3.285	8.0
3.3	4.0
3.315	3.0
3.329	4.0
3.344	3.0
3.359	9.0
3.374	1.0
3.389	4.0
3.403	5.0
3.418	5.0
3.433	3.0
3.448	6.0
3.463	2.0
3.478	5.0
3.492	6.0
3.507	3.0
3.522	9.0
3.537	4.0
3.552	2.0
3.567	5.0
3.581	8.0
3.596	3.0
3.611	3.0
3.626	6.0
3.641	8.0
3.656	8.0
3.671	8.0
3.685	5.0
3.7	7.0
3.715	6.0
3.73	3.0
3.745	7.0
3.76	4.0
3.775	3.0
3.789	8.0
3.804	4.0
3.819	5.0
3.834	7.0
3.849	4.0
3.864	4.0
3.879	7.0
3.894	5.0
3.908	4.0
3.923	9.0
3.938	3.0
3.953	2.0
3.968	6.0
3.983	7.0
3.998	5.0
4.013	9.0
4.027	9.0
4.042	2.0
4.057	9.0
4.072	6.0
4.087	8.0
4.102	6.0
4.117	4.0
4.132	4.0
4.147	4.0
4.162	7.0
4.176	5.0
4.191	7.0
4.206	10.0
4.221	10.0
4.236	5.0
4.251	6.0
4.266	7.0
4.281	9.0
4.296	6.0
4.311	6.0
4.326	7.0
4.341	7.0
4.356	3.0
4.37	9.0
4.385	4.0
4.4	8.0
4.415	10.0
4.43	7.0
4.445	6.0
4.46	6.0
4.475	9.0
4.49	7.0
4.505	7.0
4.52	5.0
4.535	6.0
4.55	4.0
4.565	9.0
4.58	4.0
4.595	10.0
4.61	9.0
4.625	13.0
4.639	6.0
4.654	4.0
4.669	5.0
4.684	7.0
4.699	6.0
4.714	8.0
4.729	6.0
4.744	10.0
4.759	6.0
4.774	6.0
4.789	9.0
4.804	7.0
4.819	10.0
4.834	6.0
4.849	2.0
4.864	5.0
4.879	14.0
4.894	7.0
4.909	7.0
4.924	5.0
4.939	5.0
4.954	6.0
4.969	9.0
4.984	7.0
4.999	8.0
5.014	6.0
5.029	9.0
5.044	6.0
5.059	5.0
5.074	7.0
5.089	6.0
5.104	10.0
5.119	7.0
5.134	10.0
5.149	4.0
5.164	14.0
5.179	9.0
5.194	12.0
5.209	6.0
5.224	2.0
5.239	5.0
5.254	9.0
5.269	7.0
5.284	6.0
5.299	15.0
5.314	9.0
5.329	5.0
5.344	12.0
5.359	5.0
5.374	7.0
5.389	11.0
5.404	10.0
5.419	7.0
5.434	12.0
5.449	5.0
5.464	10.0
5.479	8.0
5.494	5.0
5.509	6.0
5.524	6.0
5.539	16.0
5.554	4.0
5.569	8.0
5.584	15.0
5.599	7.0
5.614	10.0
5.629	11.0
5.644	7.0
5.659	11.0
5.674	11.0
5.689	8.0
5.704	8.0
5.719	9.0
5.734	9.0
5.749	13.0
5.764	9.0
5.779	8.0
5.794	4.0
5.809	7.0
5.824	7.0
5.839	6.0
5.854	9.0
5.869	9.0
5.884	7.0
5.899	11.0
5.914	6.0
5.929	7.0
5.944	6.0
5.959	8.0
5.974	11.0
5.989	9.0
6.004	1.0
6.019	10.0
6.034	16.0
6.049	9.0
6.064	8.0
6.079	10.0
6.094	8.0
6.109	3.0
6.124	6.0
6.139	13.0
6.154	7.0
6.169	6.0
6.184	5.0
6.199	8.0
6.214	6.0
6.229	2.0
6.244	10.0
6.259	9.0
6.274	6.0
6.289	8.0
6.304	10.0
6.319	8.0
6.334	5.0
6.349	9.0
6.364	11.0
6.379	7.0
6.394	4.0
6.409	5.0
6.424	5.0
6.439	8.0
6.454	5.0
6.469	12.0
6.484	4.0
6.499	12.0
6.514	11.0
6.529	5.0
6.544	10.0
6.559	10.0
6.574	13.0
6.589	9.0
6.604	8.0
6.619	8.0
6.634	7.0
6.649	7.0
6.664	9.0
6.679	12.0
6.694	10.0
6.709	6.0
6.724	9.0
6.739	9.0
6.754	9.0
6.769	10.0
6.784	4.0
6.799	11.0
6.814	7.0
6.829	7.0
6.844	9.0
6.859	6.0
6.873	9.0
6.888	9.0
6.903	9.0
6.918	12.0
6.933	5.0
6.948	13.0
6.963	7.0
6.978	7.0
6.993	9.0
7.008	9.0
7.023	6.0
7.038	7.0
7.053	10.0
7.068	8.0
7.083	10.0
7.098	10.0
7.113	6.0
7.128	4.0
7.143	11.0
7.157	7.0
7.172	10.0
7.187	11.0
7.202	4.0
7.217	8.0
7.232	9.0
7.247	7.0
7.262	17.0
7.277	12.0
7.292	8.0
7.307	10.0
7.322	13.0
7.336	6.0
7.351	9.0
7.366	13.0
7.381	6.0
7.396	7.0
7.411	16.0
7.426	8.0
7.441	7.0
7.456	11.0
7.471	6.0
7.485	5.0
7.5	11.0
7.515	7.0
7.53	8.0
7.545	7.0
7.56	8.0
7.575	9.0
7.59	13.0
7.604	11.0
7.619	9.0
7.634	9.0
7.649	13.0
7.664	5.0
7.679	4.0
7.693	10.0
7.708	11.0
7.723	5.0
7.738	7.0
7.753	9.0
7.768	10.0
7.783	5.0
7.797	9.0
7.812	9.0
7.827	9.0
7.842	9.0
7.857	12.0
7.871	8.0
7.886	13.0
7.901	3.0
7.916	8.0
7.931	10.0
7.945	10.0
7.96	9.0
7.975	11.0
7.99	8.0
8.005	7.0
8.019	9.0
8.034	5.0
8.049	7.0
8.064	16.0
8.078	11.0
8.093	12.0
8.108	6.0
8.123	8.0
8.137	4.0
8.152	6.0
8.167	10.0
8.182	7.0
8.196	9.0
8.211	10.0
8.226	13.0
8.241	4.0
8.255	9.0
8.27	7.0
8.285	14.0
8.3	5.0
8.314	9.0
8.329	3.0
8.344	10.0
8.358	13.0
8.373	10.0
8.388	11.0
8.403	7.0
8.417	13.0
8.432	11.0
8.447	4.0
8.461	7.0
8.476	5.0
8.491	11.0
8.505	7.0
8.52	16.0
8.535	5.0
8.55	10.0
8.564	9.0
8.579	4.0
8.594	11.0
8.608	9.0
8.623	11.0
8.638	5.0
8.652	7.0
8.667	4.0
8.682	4.0
8.696	10.0
8.711	12.0
8.726	8.0
8.74	5.0
8.755	11.0
8.77	10.0
8.784	9.0
8.799	7.0
8.814	10.0
8.828	5.0
8.843	7.0
8.858	5.0
8.872	12.0
8.887	8.0
8.902	11.0
8.916	14.0
8.931	10.0
8.946	9.0
8.96	7.0
8.975	5.0
8.99	10.0
9.004	12.0
9.019	4.0
9.034	5.0
9.048	5.0
9.063	11.0
9.077	10.0
9.092	8.0
9.107	9.0
9.121	5.0
9.136	6.0
9.151	7.0
9.165	7.0
9.18	9.0
9.195	6.0
9.209	12.0
9.224	7.0
9.239	13.0
9.253	6.0
9.268	11.0
9.283	8.0
9.297	7.0
9.312	14.0
9.327	10.0
9.341	8.0
9.356	6.0
9.371	6.0
9.385	5.0
9.4	4.0
9.415	8.0
9.429	10.0
9.444	4.0
9.458	5.0
9.473	5.0
9.488	10.0
9.502	5.0
9.517	6.0
9.532	9.0
9.546	8.0
9.561	11.0
9.576	7.0
9.59	9.0
9.605	13.0
9.62	8.0
9.635	5.0
9.649	13.0
9.664	8.0
9.679	5.0
9.693	7.0
9.708	11.0
9.723	8.0
9.737	9.0
9.752	9.0
9.767	4.0
9.781	6.0
9.796	7.0
9.811	13.0
9.825	7.0
9.84	9.0
9.855	9.0
9.87	6.0
9.884	7.0
9.899	12.0
9.914	12.0
9.928	8.0
9.943	8.0
9.958	13.0
9.973	7.0
9.987	11.0
10.002	7.0
10.017	8.0
10.031	5.0
10.046	8.0
10.061	9.0
10.076	9.0
10.09	9.0
10.105	6.0
10.12	4.0
10.135	7.0
10.149	9.0
10.164	12.0
10.179	9.0
10.194	6.0
10.208	7.0
10.223	6.0
10.238	9.0
10.253	6.0
10.267	5.0
10.282	6.0
10.297	7.0
10.312	9.0
10.326	13.0
10.341	8.0
10.356	13.0
10.371	6.0
10.386	16.0
10.4	12.0
10.415	4.0
10.43	8.0
10.445	4.0
10.46	6.0
10.474	8.0
10.489	7.0
10.504	10.0
10.519	6.0
10.533	7.0
10.548	6.0
10.563	11.0
10.578	15.0
10.593	5.0
10.608	7.0
10.622	7.0
10.637	16.0
10.652	8.0
10.667	6.0
10.682	7.0
10.696	11.0
10.711	8.0
10.726	9.0
10.741	11.0
10.756	7.0
10.771	8.0
10.785	9.0
10.8	9.0
10.815	6.0
10.83	10.0
10.845	13.0
10.86	9.0
10.874	5.0
10.889	11.0
10.904	10.0
10.919	8.0
10.934	10.0
10.949	6.0
10.963	11.0
10.978	7.0
10.993	7.0
11.008	11.0
11.023	8.0
11.038	7.0
11.053	8.0
11.067	5.0
11.082	7.0
11.097	11.0
11.112	6.0
11.127	5.0
11.142	12.0
11.157	8.0
11.172	8.0
11.186	8.0
11.201	5.0
11.216	10.0
11.231	11.0
11.246	5.0
11.261	3.0
11.276	8.0
11.291	10.0
11.305	4.0
11.32	16.0
11.335	6.0
11.35	7.0
11.365	5.0
11.38	6.0
11.395	10.0
11.41	9.0
11.424	8.0
11.439	10.0
11.454	11.0
11.469	13.0
11.484	4.0
11.499	6.0
11.514	6.0
11.529	9.0
11.544	5.0
11.558	9.0
11.573	6.0
11.588	2.0
11.603	7.0
11.618	5.0
11.633	6.0
11.648	6.0
11.663	6.0
11.678	6.0
11.693	4.0
11.707	9.0
11.722	13.0
11.737	5.0
11.752	5.0
11.767	8.0
11.782	7.0
11.797	8.0
11.812	13.0
11.827	13.0
11.842	8.0
11.856	6.0
11.871	10.0
11.886	9.0
11.901	4.0
11.916	9.0
11.931	9.0
11.946	8.0
11.961	5.0
11.976	8.0
11.991	3.0
12.006	8.0
12.02	7.0
12.035	8.0
12.05	9.0
12.065	13.0
12.08	14.0
12.095	10.0
12.11	7.0
12.125	10.0
12.14	10.0
12.155	8.0
12.17	6.0
12.184	9.0
12.199	7.0
12.214	6.0
12.229	11.0
12.244	7.0
12.259	7.0
12.274	13.0
12.289	9.0
12.304	17.0
12.319	5.0
12.334	8.0
12.348	16.0
12.363	9.0
12.378	11.0
12.393	14.0
12.408	9.0
12.423	13.0
12.438	16.0
12.453	10.0
12.468	7.0
12.483	19.0
12.498	12.0
12.513	10.0
12.527	12.0
12.542	12.0
12.557	12.0
12.572	9.0
12.587	11.0
12.602	13.0
12.617	16.0
12.632	12.0
12.647	15.0
12.662	12.0
12.677	9.0
12.692	15.0
12.707	11.0
12.721	8.0
12.736	12.0
12.751	16.0
12.766	13.0
12.781	13.0
12.796	12.0
12.811	16.0
12.826	16.0
12.841	19.0
12.856	18.0
12.871	19.0
12.886	16.0
12.9	7.0
12.915	10.0
12.93	12.0
12.945	13.0
12.96	14.0
12.975	18.0
12.99	22.0
13.005	20.0
13.02	15.0
13.035	10.0
13.05	17.0
13.065	10.0
13.08	23.0
13.094	16.0
13.109	15.0
13.124	26.0
13.139	23.0
13.154	16.0
13.169	26.0
13.184	19.0
13.199	18.0
13.214	18.0
13.229	23.0
13.244	22.0
13.259	28.0
13.274	19.0
13.288	12.0
13.303	15.0
13.318	18.0
13.333	19.0
13.348	23.0
13.363	29.0
13.378	27.0
13.393	26.0
13.408	24.0
13.423	27.0
13.438	19.0
13.453	38.0
13.468	28.0
13.482	30.0
13.497	35.0
13.512	37.0
13.527	34.0
13.542	40.0
13.557	48.0
13.572	40.0
13.587	55.0
13.602	62.0
13.617	45.0
13.632	72.0
13.647	79.0
13.662	78.0
13.677	101.0
13.691	89.0
13.706	74.0
13.721	92.0
13.736	101.0
13.751	109.0
13.766	122.0
13.781	136.0
13.796	127.0
13.811	130.0
13.826	125.0
13.841	108.0
13.856	128.0
13.871	121.0
13.885	107.0
13.9	70.0
13.915	85.0
13.93	61.0
13.945	53.0
13.96	56.0
13.975	63.0
13.99	29.0
14.005	39.0
14.02	22.0
14.035	25.0
14.05	22.0
14.065	27.0
14.08	20.0
14.094	15.0
14.109	12.0
14.124	17.0
14.139	30.0
14.154	24.0
14.169	25.0
14.184	20.0
14.199	15.0
14.214	17.0
14.229	23.0
14.244	17.0
14.259	15.0
14.274	14.0
14.288	20.0
14.303	25.0
14.318	20.0
14.333	11.0
14.348	18.0
14.363	22.0
14.378	21.0
14.393	17.0
14.408	19.0
14.423	20.0
14.438	20.0
14.453	19.0
14.468	27.0
14.482	16.0
14.497	18.0
14.512	21.0
14.527	17.0
14.542	28.0
14.557	18.0
14.572	19.0
14.587	19.0
14.602	17.0
14.617	12.0
14.632	22.0
14.647	17.0
14.661	24.0
14.676	16.0
14.691	12.0
14.706	12.0
14.721	16.0
14.736	9.0
14.751	16.0
14.766	12.0
14.781	23.0
14.796	17.0
14.811	14.0
14.826	12.0
14.84	19.0
14.855	20.0
14.87	13.0
14.885	9.0
14.9	12.0
14.915	13.0
14.93	16.0
14.945	17.0
14.96	16.0
14.975	22.0
14.989	9.0
15.004	29.0
15.019	17.0
15.034	16.0
15.049	14.0
15.064	17.0
15.079	16.0
15.094	14.0
15.109	11.0
15.124	10.0
15.138	11.0
15.153	16.0
15.168	16.0
15.183	12.0
15.198	19.0
15.213	12.0
15.228	13.0
15.243	19.0
15.258	9.0
15.272	15.0
15.287	8.0
15.302	7.0
15.317	19.0
15.332	11.0
15.347	15.0
15.362	12.0
15.377	13.0
15.391	10.0
15.406	12.0
15.421	14.0
15.436	15.0
15.451	13.0
15.466	19.0
15.481	8.0
15.496	10.0
15.51	22.0
15.525	8.0
15.54	10.0
15.555	7.0
15.57	10.0
15.585	13.0
15.6	17.0
15.614	22.0
15.629	16.0
15.644	10.0
15.659	14.0
15.674	11.0
15.689	12.0
15.704	18.0
15.718	11.0
15.733	13.0
15.748	10.0
15.763	13.0
15.778	7.0
15.793	15.0
15.808	11.0
15.822	16.0
15.837	12.0
15.852	17.0
15.867	10.0
15.882	20.0
15.897	13.0
15.911	15.0
15.926	19.0
15.941	21.0
15.956	6.0
15.971	15.0
15.986	7.0
16.0	11.0
16.015	22.0
16.03	7.0
16.045	11.0
16.06	15.0
16.074	13.0
16.089	15.0
16.104	12.0
16.119	17.0
16.134	14.0
16.149	19.0
16.163	17.0
16.178	12.0
16.193	11.0
16.208	11.0
16.223	18.0
16.237	16.0
16.252	8.0
16.267	12.0
16.282	16.0
16.297	20.0
16.311	12.0
16.326	10.0
16.341	14.0
16.356	9.0
16.37	21.0
16.385	12.0
16.4	9.0
16.415	12.0
16.43	13.0
16.444	17.0
16.459	21.0
16.474	18.0
16.489	12.0
16.504	14.0
16.518	14.0
16.533	12.0
16.548	20.0
16.563	13.0
16.577	18.0
16.592	26.0
16.607	18.0
16.622	19.0
16.637	16.0
16.651	15.0
16.666	32.0
16.681	17.0
16.696	27.0
16.71	27.0
16.725	22.0
16.74	31.0
16.755	28.0
16.77	38.0
16.784	23.0
16.799	39.0
16.814	44.0
16.829	51.0
16.843	43.0
16.858	60.0
16.873	55.0
16.888	66.0
16.902	77.0
16.917	67.0
16.932	87.0
16.947	62.0
16.961	84.0
16.976	61.0
16.991	63.0
17.006	52.0
17.021	60.0
17.035	49.0
17.05	50.0
17.065	54.0
17.08	39.0
17.094	35.0
17.109	26.0
17.124	36.0
17.139	22.0
17.153	14.0
17.168	24.0
17.183	20.0
17.198	23.0
17.212	13.0
17.227	16.0
17.242	12.0
17.257	16.0
17.271	13.0
17.286	15.0
17.301	11.0
17.316	12.0
17.33	15.0
17.345	16.0
17.36	14.0
17.375	12.0
17.39	15.0
17.404	10.0
17.419	15.0
17.434	10.0
17.449	10.0
17.463	11.0
17.478	4.0
17.493	11.0
17.508	15.0
17.522	14.0
17.537	18.0
17.552	7.0
17.567	15.0
17.581	10.0
17.596	24.0
17.611	14.0
17.626	9.0
17.641	5.0
17.655	7.0
17.67	11.0
17.685	14.0
17.7	10.0
17.714	5.0
17.729	8.0
17.744	17.0
17.759	13.0
17.773	13.0
17.788	8.0
17.803	18.0
17.818	7.0
17.833	6.0
17.847	17.0
17.862	12.0
17.877	12.0
17.892	13.0
17.906	12.0
17.921	16.0
17.936	5.0
17.951	11.0
17.966	8.0
17.98	9.0
17.995	14.0
18.01	10.0
18.025	14.0
18.04	8.0
18.054	17.0
18.069	12.0
18.084	13.0
18.099	11.0
18.114	12.0
18.128	12.0
18.143	14.0
18.158	17.0
18.173	12.0
18.188	12.0
18.202	22.0
18.217	11.0
18.232	10.0
18.247	13.0
18.262	10.0
18.276	9.0
18.291	9.0
18.306	16.0
18.321	10.0
18.336	11.0
18.35	13.0
18.365	13.0
18.38	8.0
18.395	9.0
18.41	21.0
18.424	11.0
18.439	6.0
18.454	8.0
18.469	7.0
18.484	12.0
18.498	8.0
18.513	13.0
18.528	11.0
18.543	5.0
18.558	8.0
18.573	6.0
18.587	6.0
18.602	15.0
18.617	13.0
18.632	7.0
18.647	13.0
18.661	8.0
18.676	12.0
18.691	18.0
18.706	13.0
18.721	9.0
18.736	16.0
18.75	15.0
18.765	8.0
18.78	10.0
18.795	11.0
18.81	10.0
18.825	9.0
18.839	13.0
18.854	14.0
18.869	14.0
18.884	9.0
18.899	11.0
18.913	11.0
18.928	11.0
18.943	12.0
18.958	11.0
18.973	11.0
18.988	11.0
19.002	8.0
19.017	9.0
19.032	15.0
19.047	10.0
19.062	12.0
19.077	9.0
19.091	11.0
19.106	16.0
19.121	9.0
19.136	6.0
19.151	7.0
19.165	13.0
19.18	11.0
19.195	15.0
19.21	12.0
19.225	17.0
19.24	9.0
19.254	20.0
19.269	15.0
19.284	8.0
19.299	22.0
19.314	18.0
19.329	15.0
19.343	13.0
19.358	12.0
19.373	14.0
19.388	19.0
19.403	17.0
19.417	8.0
19.432	21.0
19.447	25.0
19.462	24.0
19.477	24.0
19.492	19.0
19.506	40.0
19.521	36.0
19.536	23.0
19.551	42.0
19.566	39.0
19.58	30.0
19.595	44.0
19.61	42.0
19.625	50.0
19.64	31.0
19.655	35.0
19.669	45.0
19.684	35.0
19.699	27.0
19.714	37.0
19.729	27.0
19.743	28.0
19.758	17.0
19.773	20.0
19.788	22.0
19.803	11.0
19.817	22.0
19.832	13.0
19.847	15.0
19.862	10.0
19.877	18.0
19.891	9.0
19.906	9.0
19.921	21.0
19.936	9.0
19.951	12.0
19.965	11.0
19.98	14.0
19.995	19.0
20.01	13.0
20.025	13.0
20.039	12.0
20.054	14.0
20.069	12.0
20.084	14.0
20.099	17.0
20.113	10.0
20.128	5.0
20.143	15.0
20.158	8.0
20.173	11.0
20.187	6.0
20.202	6.0
20.217	5.0
20.232	12.0
20.246	4.0
20.261	7.0
20.276	10.0
20.291	6.0
20.306	11.0
20.32	9.0
20.335	14.0
20.35	17.0
20.365	11.0
20.38	12.0
20.394	14.0
20.409	9.0
20.424	8.0
20.439	8.0
20.453	12.0
20.468	12.0
20.483	13.0
20.498	13.0
20.513	8.0
20.527	7.0
20.542	8.0
20.557	6.0
20.572	15.0
20.586	12.0
20.601	8.0
20.616	15.0
20.631	11.0
20.646	14.0
20.66	8.0
20.675	13.0
20.69	12.0
20.705	12.0
20.719	12.0
20.734	12.0
20.749	16.0
20.764	11.0
20.779	13.0
20.793	7.0
20.808	10.0
20.823	12.0
20.838	4.0
20.853	13.0
20.867	9.0
20.882	5.0
20.897	9.0
20.912	14.0
20.926	10.0
20.941	5.0
20.956	7.0
20.971	11.0
20.986	7.0
21.0	10.0
21.015	9.0
21.03	9.0
21.045	16.0
21.06	10.0
21.074	11.0
21.089	13.0
21.104	10.0
21.119	10.0
21.134	6.0
21.148	9.0
21.163	7.0
21.178	11.0
21.193	14.0
21.208	4.0
21.222	9.0
21.237	10.0
21.252	14.0
21.267	7.0
21.282	13.0
21.296	11.0
21.311	14.0
21.326	11.0
21.341	15.0
21.356	8.0
21.37	11.0
21.385	11.0
21.4	12.0
21.415	13.0
21.43	9.0
21.444	7.0
21.459	12.0
21.474	13.0
21.489	14.0
21.504	15.0
21.519	7.0
21.533	12.0
21.548	8.0
21.563	6.0
21.578	21.0
21.593	23.0
21.608	21.0
21.622	14.0
21.637	12.0
21.652	21.0
21.667	16.0
21.682	16.0
21.697	15.0
21.712	25.0
21.726	27.0
21.741	26.0
21.756	28.0
21.771	31.0
21.786	24.0
21.801	39.0
21.816	42.0
21.83	34.0
21.845	50.0
21.86	55.0
21.875	61.0
21.89	57.0
21.905	54.0
21.92	88.0
21.935	76.0
21.949	86.0
21.964	72.0
21.979	87.0
21.994	72.0
22.009	73.0
22.024	58.0
22.039	40.0
22.054	43.0
22.069	48.0
22.083	42.0
22.098	43.0
22.113	37.0
22.128	35.0
22.143	32.0
22.158	24.0
22.173	24.0
22.188	26.0
22.203	17.0
22.218	12.0
22.233	12.0
22.248	17.0
22.262	8.0
22.277	17.0
22.292	19.0
22.307	19.0
22.322	16.0
22.337	21.0
22.352	14.0
22.367	15.0
22.382	11.0
22.397	9.0
22.412	16.0
22.427	11.0
22.442	13.0
22.457	6.0
22.472	12.0
22.487	9.0
22.502	10.0
22.516	10.0
22.531	15.0
22.546	12.0
22.561	9.0
22.576	17.0
22.591	17.0
22.606	9.0
22.621	10.0
22.636	10.0
22.651	4.0
22.666	13.0
22.681	16.0
22.696	13.0
22.711	10.0
22.726	10.0
22.741	11.0
22.756	7.0
22.771	11.0
22.786	10.0
22.801	17.0
22.816	15.0
22.831	6.0
22.846	12.0
22.861	9.0
22.876	12.0
22.891	9.0
22.906	14.0
22.92	10.0
22.935	8.0
22.95	10.0
22.965	19.0
22.98	18.0
22.995	8.0
23.01	6.0
23.025	8.0
23.04	10.0
23.055	7.0
23.07	14.0
23.085	11.0
23.1	8.0
23.115	7.0
23.13	10.0
23.145	10.0
23.16	10.0
23.175	8.0
23.19	7.0
23.205	9.0
23.22	15.0
23.235	12.0
23.25	17.0
23.265	6.0
23.28	8.0
23.295	7.0
23.31	13.0
23.325	8.0
23.34	12.0
23.355	13.0
23.37	5.0
23.384	8.0
23.399	10.0
23.414	10.0
23.429	13.0
23.444	12.0
23.459	9.0
23.474	7.0
23.489	10.0
23.504	14.0
23.519	10.0
23.534	12.0
23.549	13.0
23.564	14.0
23.579	16.0
23.594	13.0
23.609	14.0
23.624	9.0
23.639	11.0
23.654	14.0
23.668	8.0
23.683	16.0
23.698	8.0
23.713	16.0
23.728	11.0
23.743	14.0
23.758	8.0
23.773	7.0
23.788	10.0
23.803	12.0
23.818	16.0
23.833	11.0
23.848	16.0
23.862	17.0
23.877	19.0
23.892	15.0
23.907	18.0
23.922	28.0
23.937	24.0
23.952	19.0
23.967	31.0
23.982	29.0
23.997	36.0
24.011	45.0
24.026	52.0
24.041	41.0
24.056	39.0
24.071	51.0
24.086	52.0
24.101	52.0
24.116	49.0
24.131	53.0
24.145	35.0
24.16	34.0
24.175	34.0
24.19	31.0
24.205	28.0
24.22	36.0
24.235	34.0
24.249	40.0
24.264	20.0
24.279	27.0
24.294	14.0
24.309	12.0
24.324	18.0
24.338	12.0
24.353	11.0
24.368	15.0
24.383	18.0
24.398	16.0
24.413	16.0
24.428	16.0
24.442	12.0
24.457	12.0
24.472	12.0
24.487	8.0
24.502	8.0
24.516	13.0
24.531	16.0
24.546	18.0
24.561	10.0
24.576	14.0
24.591	13.0
24.605	10.0
24.62	13.0
24.635	10.0
24.65	11.0
24.665	13.0
24.679	14.0
24.694	15.0
24.709	8.0
24.724	9.0
24.739	14.0
24.753	5.0
24.768	11.0
24.783	15.0
24.798	6.0
24.813	9.0
24.827	10.0
24.842	11.0
24.857	13.0
24.872	6.0
24.886	10.0
24.901	11.0
24.916	7.0
24.931	10.0
24.946	8.0
24.96	8.0
24.975	13.0
24.99	10.0
25.005	12.0
25.019	14.0
25.034	9.0
25.049	7.0
25.064	9.0
25.078	6.0
25.093	15.0
25.108	18.0
25.123	9.0
25.138	9.0
25.152	16.0
25.167	9.0
25.182	16.0
25.197	12.0
25.211	5.0
25.226	14.0
25.241	13.0
25.256	13.0
25.27	13.0
25.285	10.0
25.3	7.0
25.315	4.0
25.329	8.0
25.344	6.0
25.359	11.0
25.374	14.0
25.388	7.0
25.403	11.0
25.418	10.0
25.433	9.0
25.447	5.0
25.462	12.0
25.477	11.0
25.492	5.0
25.506	11.0
25.521	10.0
25.536	11.0
25.55	7.0
25.565	14.0
25.58	14.0
25.595	6.0
25.609	7.0
25.624	12.0
25.639	10.0
25.654	12.0
25.668	13.0
25.683	10.0
25.698	8.0
25.713	10.0
25.727	11.0
25.742	9.0
25.757	7.0
25.772	9.0
25.786	8.0
25.801	10.0
25.816	10.0
25.83	14.0
25.845	9.0
25.86	5.0
25.875	5.0
25.889	13.0
25.904	6.0
25.919	8.0
25.934	8.0
25.948	12.0
25.963	14.0
25.978	8.0
25.992	9.0
26.007	11.0
26.022	9.0
26.037	11.0
26.051	16.0
26.066	6.0
26.081	6.0
26.096	12.0
26.11	16.0
26.125	12.0
26.14	14.0
26.155	8.0
26.169	10.0
26.184	7.0
26.199	12.0
26.213	12.0
26.228	10.0
26.243	8.0
26.258	10.0
26.272	7.0
26.287	10.0
26.302	5.0
26.317	5.0
26.331	13.0
26.346	9.0
26.361	9.0
26.376	7.0
26.39	8.0
26.405	9.0
26.42	9.0
26.434	13.0
26.449	13.0
26.464	10.0
26.479	9.0
26.493	8.0
26.508	10.0
26.523	9.0
26.538	11.0
26.552	7.0
26.567	5.0
26.582	6.0
26.597	10.0
26.611	9.0
26.626	10.0
26.641	8.0
26.656	7.0
26.67	8.0
26.685	5.0
26.7	6.0
26.715	11.0
26.729	12.0
26.744	12.0
26.759	5.0
26.773	5.0
26.788	9.0
26.803	9.0
26.818	11.0
26.832	18.0
26.847	10.0
26.862	9.0
26.877	6.0
26.891	8.0
26.906	3.0
26.921	6.0
26.936	12.0
26.95	4.0
26.965	13.0
26.98	18.0
26.995	10.0
27.01	10.0
27.024	7.0
27.039	4.0
27.054	8.0
27.069	7.0
27.083	14.0
27.098	7.0
27.113	7.0
27.128	8.0
27.142	9.0
27.157	10.0
27.172	14.0
27.187	12.0
27.201	8.0
27.216	7.0
27.231	13.0
27.246	8.0
27.261	9.0
27.275	9.0
27.29	12.0
27.305	8.0
27.32	10.0
27.334	13.0
27.349	10.0
27.364	12.0
27.379	9.0
27.394	12.0
27.408	9.0
27.423	9.0
27.438	7.0
27.453	6.0
27.467	9.0
27.482	9.0
27.497	14.0
27.512	7.0
27.527	6.0
27.541	14.0
27.556	6.0
27.571	4.0
27.586	9.0
27.601	10.0
27.615	9.0
27.63	10.0
27.645	18.0
27.66	6.0
27.675	10.0
27.689	15.0
27.704	21.0
27.719	20.0
27.734	15.0
27.749	13.0
27.763	12.0
27.778	35.0
27.793	12.0
27.808	20.0
27.823	23.0
27.838	30.0
27.852	17.0
27.867	19.0
27.882	25.0
27.897	20.0
27.912	26.0
27.926	20.0
27.941	28.0
27.956	22.0
27.971	19.0
27.986	14.0
28.001	11.0
28.015	15.0
28.03	16.0
28.045	20.0
28.06	18.0
28.075	18.0
28.09	20.0
28.105	15.0
28.119	15.0
28.134	13.0
28.149	12.0
28.164	12.0
28.179	15.0
28.194	11.0
28.208	7.0
28.223	8.0
28.238	8.0
28.253	12.0
28.268	13.0
28.283	13.0
28.298	9.0
28.312	7.0
28.327	9.0
28.342	10.0
28.357	12.0
28.372	10.0
28.387	8.0
28.402	7.0
28.417	10.0
28.431	14.0
28.446	11.0
28.461	6.0
28.476	11.0
28.491	8.0
28.506	9.0
28.521	11.0
28.536	6.0
28.55	17.0
28.565	9.0
28.58	13.0
28.595	11.0
28.61	11.0
28.625	15.0
28.64	11.0
28.655	11.0
28.669	7.0
28.684	14.0
28.699	10.0
28.714	9.0
28.729	11.0
28.744	13.0
28.759	14.0
28.774	4.0
28.788	17.0
28.803	11.0
28.818	6.0
28.833	14.0
28.848	12.0
28.863	6.0
28.878	12.0
28.893	8.0
28.908	9.0
28.922	12.0
28.937	11.0
28.952	15.0
28.967	9.0
28.982	11.0
28.997	7.0
29.012	12.0
29.027	12.0
29.041	16.0
29.056	16.0
29.071	10.0
29.086	10.0
29.101	10.0
29.116	10.0
29.131	12.0
29.146	6.0
29.16	16.0
29.175	19.0
29.19	10.0
29.205	10.0
29.22	18.0
29.235	8.0
29.25	12.0
29.265	11.0
29.279	12.0
29.294	6.0
29.309	12.0
29.324	13.0
29.339	16.0
29.354	14.0
29.369	13.0
29.384	16.0
29.398	16.0
29.413	15.0
29.428	15.0
29.443	19.0
29.458	26.0
29.473	32.0
29.488	29.0
29.502	23.0
29.517	39.0
29.532	36.0
29.547	41.0
29.562	50.0
29.577	43.0
29.592	59.0
29.606	46.0
29.621	54.0
29.636	46.0
29.651	38.0
29.666	39.0
29.681	48.0
29.695	42.0
29.71	34.0
29.725	37.0
29.74	34.0
29.755	33.0
29.77	30.0
29.784	38.0
29.799	29.0
29.814	22.0
29.829	33.0
29.844	19.0
29.859	26.0
29.873	14.0
29.888	18.0
29.903	18.0
29.918	7.0
29.933	15.0
29.947	11.0
29.962	18.0
29.977	9.0
29.992	12.0
30.007	11.0
30.021	10.0
30.036	13.0
30.051	10.0
30.066	9.0
30.081	9.0
30.095	14.0
30.11	13.0
30.125	13.0
30.14	12.0
30.155	17.0
30.169	9.0
30.184	8.0
30.199	10.0
30.214	16.0
30.228	11.0
30.243	15.0
30.258	9.0
30.273	11.0
30.288	14.0
30.302	9.0
30.317	11.0
30.332	11.0
30.347	10.0
30.361	10.0
30.376	10.0
30.391	13.0
30.406	3.0
30.42	12.0
30.435	13.0
30.45	9.0
30.465	11.0
30.479	10.0
30.494	9.0
30.509	13.0
30.524	13.0
30.538	10.0
30.553	7.0
30.568	18.0
30.583	11.0
30.597	7.0
30.612	7.0
30.627	4.0
30.641	10.0
30.656	9.0
30.671	7.0
30.686	8.0
30.7	11.0
30.715	9.0
30.73	8.0
30.745	5.0
30.759	12.0
30.774	10.0
30.789	11.0
30.803	10.0
30.818	11.0
30.833	11.0
30.848	10.0
30.862	8.0
30.877	10.0
30.892	17.0
30.906	9.0
30.921	6.0
30.936	12.0
30.951	12.0
30.965	9.0
30.98	10.0
30.995	7.0
31.009	10.0
31.024	18.0
31.039	15.0
31.053	17.0
31.068	14.0
31.083	11.0
31.098	11.0
31.112	15.0
31.127	16.0
31.142	26.0
31.156	18.0
31.171	15.0
31.186	25.0
31.2	31.0
31.215	32.0
31.23	29.0
31.245	38.0
31.259	40.0
31.274	41.0
31.289	38.0
31.303	31.0
31.318	28.0
31.333	23.0
31.347	23.0
31.362	26.0
31.377	29.0
31.392	31.0
31.406	27.0
31.421	27.0
31.436	30.0
31.45	22.0
31.465	27.0
31.48	13.0
31.494	11.0
31.509	28.0
31.524	21.0
31.538	19.0
31.553	13.0
31.568	10.0
31.583	15.0
31.597	11.0
31.612	9.0
31.627	5.0
31.641	10.0
31.656	15.0
31.671	11.0
31.685	14.0
31.7	20.0
31.715	7.0
31.729	9.0
31.744	9.0
31.759	9.0
31.774	7.0
31.788	5.0
31.803	13.0
31.818	15.0
31.832	10.0
31.847	7.0
31.862	4.0
31.876	11.0
31.891	13.0
31.906	8.0
31.92	15.0
31.935	12.0
31.95	10.0
31.965	9.0
31.979	10.0
31.994	10.0
32.009	13.0
32.023	7.0
32.038	14.0
32.053	10.0
32.067	8.0
32.082	8.0
32.097	12.0
32.112	10.0
32.126	12.0
32.141	16.0
32.156	8.0
32.17	9.0
32.185	9.0
32.2	11.0
32.214	9.0
32.229	11.0
32.244	6.0
32.259	20.0
32.273	14.0
32.288	10.0
32.303	7.0
32.317	7.0
32.332	9.0
32.347	9.0
32.362	9.0
32.376	6.0
32.391	13.0
32.406	9.0
32.42	12.0
32.435	8.0
32.45	10.0
32.465	11.0
32.479	8.0
32.494	17.0
32.509	2.0
32.523	5.0
32.538	12.0
32.553	11.0
32.568	8.0
32.582	14.0
32.597	6.0
32.612	12.0
32.627	15.0
32.641	12.0
32.656	14.0
32.671	15.0
32.685	13.0
32.7	16.0
32.715	19.0
32.73	21.0
32.744	14.0
32.759	22.0
32.774	20.0
32.788	27.0
32.803	26.0
32.818	23.0
32.833	23.0
32.847	30.0
32.862	23.0
32.877	26.0
32.892	21.0
32.906	18.0
32.921	19.0
32.936	19.0
32.951	22.0
32.965	22.0
32.98	21.0
32.995	20.0
33.009	19.0
33.024	11.0
33.039	19.0
33.054	8.0
33.068	17.0
33.083	12.0
33.098	9.0
33.113	16.0
33.127	13.0
33.142	8.0
33.157	13.0
33.172	9.0
33.186	11.0
33.201	9.0
33.216	12.0
33.231	9.0
33.245	4.0
33.26	12.0
33.275	15.0
33.29	5.0
33.304	7.0
33.319	7.0
33.334	8.0
33.349	9.0
33.363	7.0
33.378	17.0
33.393	9.0
33.408	8.0
33.422	5.0
33.437	8.0
33.452	10.0
33.467	5.0
33.481	3.0
33.496	6.0
33.511	11.0
33.526	12.0
33.54	7.0
33.555	8.0
33.57	15.0
33.585	15.0
33.599	10.0
33.614	6.0
33.629	8.0
33.644	7.0
33.658	8.0
33.673	12.0
33.688	4.0
33.703	9.0
33.718	11.0
33.732	6.0
33.747	4.0
33.762	11.0
33.777	4.0
33.791	6.0
33.806	8.0
33.821	12.0
33.836	7.0
33.85	15.0
33.865	8.0
33.88	11.0
33.895	11.0
33.91	9.0
33.924	13.0
33.939	6.0
33.954	8.0
33.969	13.0
33.983	13.0
33.998	8.0
34.013	14.0
34.028	4.0
34.042	8.0
34.057	7.0
34.072	13.0
34.087	7.0
34.102	17.0
34.116	15.0
34.131	11.0
34.146	13.0
34.161	13.0
34.175	13.0
34.19	10.0
34.205	12.0
34.22	7.0
34.235	11.0
34.249	16.0
34.264	6.0
34.279	13.0
34.294	12.0
34.309	9.0
34.323	17.0
34.338	14.0
34.353	14.0
34.368	16.0
34.382	16.0
34.397	11.0
34.412	11.0
34.427	16.0
34.442	11.0
34.456	7.0
34.471	14.0
34.486	12.0
34.501	6.0
34.516	12.0
34.53	7.0
34.545	11.0
34.56	18.0
34.575	4.0
34.59	9.0
34.604	12.0
34.619	17.0
34.634	13.0
34.649	10.0
34.664	18.0
34.678	9.0
34.693	8.0
34.708	8.0
34.723	12.0
34.738	11.0
34.752	11.0
34.767	13.0
34.782	8.0
34.797	13.0
34.812	8.0
34.826	10.0
34.841	3.0
34.856	10.0
34.871	8.0
34.886	6.0
34.9	3.0
34.915	10.0
34.93	11.0
34.945	5.0
34.96	6.0
34.974	9.0
34.989	9.0
35.004	9.0
35.019	7.0
35.034	6.0
35.048	9.0
35.063	10.0
35.078	19.0
35.093	11.0
35.108	7.0
35.122	9.0
35.137	5.0
35.152	7.0
35.167	7.0
35.182	9.0
35.196	13.0
35.211	8.0
35.226	10.0
35.241	6.0
35.256	12.0
35.27	9.0
35.285	11.0
35.3	7.0
35.315	10.0
35.33	10.0
35.344	12.0
35.359	14.0
35.374	12.0
35.389	9.0
35.404	7.0
35.418	4.0
35.433	4.0
35.448	4.0
35.463	7.0
35.478	11.0
35.493	7.0
35.507	5.0
35.522	7.0
35.537	8.0
35.552	8.0
35.567	12.0
35.581	10.0
35.596	6.0
35.611	12.0
35.626	11.0
35.641	10.0
35.655	16.0
35.67	16.0
35.685	19.0
35.7	16.0
35.715	10.0
35.729	14.0
35.744	20.0
35.759	30.0
35.774	11.0
35.789	19.0
35.804	26.0
35.818	22.0
35.833	20.0
35.848	16.0
35.863	20.0
35.878	15.0
35.892	14.0
35.907	16.0
35.922	12.0
35.937	11.0
35.952	21.0
35.966	8.0
35.981	10.0
35.996	14.0
36.011	14.0
36.026	13.0
36.04	6.0
36.055	9.0
36.07	7.0
36.085	9.0
36.1	11.0
36.114	11.0
36.129	10.0
36.144	7.0
36.159	7.0
36.174	4.0
36.189	4.0
36.203	7.0
36.218	6.0
36.233	7.0
36.248	11.0
36.263	15.0
36.277	7.0
36.292	9.0
36.307	8.0
36.322	7.0
36.337	4.0
36.351	10.0
36.366	10.0
36.381	6.0
36.396	10.0
36.411	11.0
36.426	4.0
36.44	4.0
36.455	4.0
36.47	4.0
36.485	9.0
36.5	6.0
36.514	7.0
36.529	10.0
36.544	10.0
36.559	13.0
36.574	7.0
36.589	7.0
36.603	7.0
36.618	9.0
36.633	7.0
36.648	8.0
36.663	5.0
36.677	5.0
36.692	10.0
36.707	8.0
36.722	8.0
36.737	11.0
36.752	3.0
36.766	7.0
36.781	6.0
36.796	8.0
36.811	10.0
36.826	4.0
36.841	7.0
36.855	6.0
36.87	7.0
36.885	14.0
36.9	6.0
36.915	8.0
36.93	10.0
36.944	10.0
36.959	9.0
36.974	16.0
36.989	6.0
37.004	13.0
37.019	15.0
37.033	7.0
37.048	13.0
37.063	20.0
37.078	18.0
37.093	16.0
37.108	23.0
37.123	16.0
37.137	32.0
37.152	30.0
37.167	32.0
37.182	20.0
37.197	29.0
37.212	30.0
37.226	21.0
37.241	12.0
37.256	31.0
37.271	26.0
37.286	15.0
37.301	14.0
37.316	21.0
37.331	17.0
37.345	10.0
37.36	28.0
37.375	16.0
37.39	19.0
37.405	15.0
37.42	20.0
37.435	20.0
37.45	15.0
37.464	19.0
37.479	15.0
37.494	16.0
37.509	9.0
37.524	13.0
37.539	10.0
37.554	6.0
37.569	11.0
37.583	8.0
37.598	10.0
37.613	9.0
37.628	8.0
37.643	3.0
37.658	12.0
37.673	6.0
37.688	8.0
37.703	8.0
37.718	12.0
37.733	8.0
37.747	0.0
37.762	16.0
37.777	5.0
37.792	6.0
37.807	6.0
37.822	9.0
37.837	6.0
37.852	4.0
37.867	10.0
37.882	11.0
37.897	5.0
37.912	1.0
37.927	7.0
37.941	7.0
37.956	10.0
37.971	6.0
37.986	4.0
38.001	6.0
38.016	10.0
38.031	6.0
38.046	8.0
38.061	3.0
38.076	3.0
38.091	6.0
38.106	6.0
38.121	7.0
38.136	7.0
38.151	7.0
38.166	4.0
38.181	5.0
38.196	2.0
38.211	8.0
38.226	3.0
38.241	9.0
38.256	8.0
38.271	7.0
38.285	7.0
38.3	6.0
38.315	6.0
38.33	8.0
38.345	5.0
38.36	10.0
38.375	8.0
38.39	9.0
38.405	4.0
38.42	6.0
38.435	7.0
38.45	6.0
38.465	2.0
38.48	7.0
38.495	4.0
38.51	11.0
38.525	3.0
38.54	6.0
38.555	6.0
38.57	8.0
38.585	7.0
38.6	8.0
38.615	6.0
38.63	8.0
38.645	3.0
38.66	5.0
38.675	3.0
38.69	4.0
38.705	4.0
38.72	8.0
38.735	6.0
38.75	2.0
38.765	6.0
38.78	5.0
38.795	11.0
38.81	2.0
38.825	6.0
38.84	6.0
38.855	5.0
38.87	9.0
38.885	5.0
38.9	7.0
38.915	7.0
38.93	7.0
38.945	3.0
38.96	5.0
38.975	2.0
38.99	7.0
39.005	11.0
39.02	6.0
39.035	2.0
39.05	4.0
39.065	8.0
39.08	2.0
39.095	6.0
39.11	3.0
39.125	6.0
39.14	11.0
39.155	1.0
39.17	5.0
39.185	6.0
39.2	7.0
39.215	6.0
39.23	4.0
39.245	3.0
39.26	8.0
39.275	8.0
39.29	8.0
39.305	9.0
39.32	6.0
39.335	6.0
39.35	4.0
39.365	6.0
39.38	8.0
39.395	7.0
39.409	6.0
39.424	5.0
39.439	1.0
39.454	1.0
39.469	5.0
39.484	7.0
39.499	9.0
39.514	6.0
39.529	5.0
39.544	11.0
39.559	6.0
39.574	4.0
39.589	6.0
39.604	4.0
39.619	4.0
39.634	2.0
39.649	3.0
39.664	3.0
39.678	5.0
39.693	3.0
39.708	7.0
39.723	6.0
39.738	4.0
39.753	6.0
39.768	5.0
39.783	2.0
39.798	7.0
39.813	7.0
39.827	12.0
39.842	10.0
39.857	10.0
39.872	9.0
39.887	5.0
39.902	7.0
39.917	13.0
39.932	2.0
39.947	4.0
39.961	5.0
39.976	7.0
39.991	6.0
40.006	5.0
40.021	8.0
40.036	8.0
40.051	11.0
40.065	3.0
40.08	7.0
40.095	7.0
40.11	5.0
40.125	5.0
40.14	9.0
40.154	5.0
40.169	8.0
40.184	5.0
40.199	11.0
40.214	5.0
40.228	7.0
40.243	7.0
40.258	10.0
40.273	7.0
40.288	5.0
40.302	5.0
40.317	5.0
40.332	7.0
40.347	4.0
40.362	2.0
40.376	6.0
40.391	4.0
40.406	5.0
40.421	9.0
40.436	9.0
40.45	5.0
40.465	7.0
40.48	3.0
40.495	11.0
40.509	5.0
40.524	8.0
40.539	4.0
40.554	6.0
40.568	6.0
40.583	6.0
40.598	5.0
40.613	6.0
40.627	3.0
40.642	7.0
40.657	8.0
40.672	8.0
40.686	4.0
40.701	5.0
40.716	1.0
40.731	3.0
40.745	12.0
40.76	6.0
40.775	5.0
40.79	6.0
40.804	5.0
40.819	4.0
40.834	7.0
40.849	6.0
40.863	7.0
40.878	2.0
40.893	5.0
40.907	4.0
40.922	2.0
40.937	9.0
40.952	8.0
40.966	8.0
40.981	8.0
40.996	10.0
41.011	5.0
41.025	12.0
41.04	8.0
41.055	9.0
41.069	14.0
41.084	8.0
41.099	12.0
41.114	21.0
41.128	18.0
41.143	16.0
41.158	19.0
41.173	19.0
41.187	18.0
41.202	15.0
41.217	17.0
41.231	12.0
41.246	10.0
41.261	15.0
41.276	15.0
41.29	12.0
41.305	17.0
41.32	8.0
41.335	15.0
41.349	19.0
41.364	15.0
41.379	11.0
41.393	14.0
41.408	11.0
41.423	15.0
41.438	18.0
41.452	12.0
41.467	11.0
41.482	3.0
41.497	12.0
41.511	8.0
41.526	11.0
41.541	11.0
41.556	4.0
41.57	5.0
41.585	2.0
41.6	7.0
41.615	5.0
41.629	6.0
41.644	9.0
41.659	8.0
41.674	7.0
41.688	7.0
41.703	6.0
41.718	2.0
41.733	9.0
41.747	11.0
41.762	6.0
41.777	4.0
41.792	3.0
41.806	4.0
41.821	4.0
41.836	5.0
41.851	5.0
41.866	9.0
41.88	6.0
41.895	9.0
41.91	3.0
41.925	7.0
41.939	5.0
41.954	4.0
41.969	8.0
41.984	14.0
41.999	4.0
42.013	4.0
42.028	5.0
42.043	4.0
42.058	5.0
42.073	5.0
42.088	5.0
42.102	1.0
42.117	13.0
42.132	6.0
42.147	3.0
42.162	3.0
42.176	5.0
42.191	5.0
42.206	10.0
42.221	13.0
42.236	7.0
42.251	10.0
42.266	5.0
42.28	10.0
42.295	11.0
42.31	9.0
42.325	10.0
42.34	18.0
42.355	15.0
42.369	13.0
42.384	12.0
42.399	20.0
42.414	15.0
42.429	11.0
42.444	13.0
42.459	18.0
42.474	13.0
42.488	9.0
42.503	13.0
42.518	10.0
42.533	9.0
42.548	9.0
42.563	8.0
42.578	8.0
42.593	7.0
42.608	5.0
42.622	11.0
42.637	8.0
42.652	11.0
42.667	12.0
42.682	18.0
42.697	8.0
42.712	9.0
42.727	7.0
42.742	6.0
42.757	3.0
42.772	7.0
42.786	6.0
42.801	5.0
42.816	6.0
42.831	7.0
42.846	9.0
42.861	6.0
42.876	6.0
42.891	5.0
42.906	9.0
42.921	4.0
42.936	6.0
42.951	5.0
42.966	3.0
42.981	5.0
42.996	11.0
43.011	1.0
43.025	5.0
43.04	4.0
43.055	7.0
43.07	3.0
43.085	2.0
43.1	8.0
43.115	5.0
43.13	7.0
43.145	5.0
43.16	5.0
43.175	3.0
43.19	9.0
43.205	5.0
43.22	5.0
43.235	5.0
43.25	3.0
43.265	6.0
43.28	6.0
43.295	9.0
43.31	4.0
43.325	2.0
43.34	5.0
43.355	9.0
43.37	4.0
43.385	5.0
43.4	5.0
43.415	5.0
43.43	8.0
43.445	7.0
43.46	8.0
43.475	8.0
43.49	8.0
43.505	8.0
43.52	7.0
43.535	4.0
43.55	9.0
43.565	10.0
43.58	11.0
43.595	12.0
43.61	9.0
43.625	11.0
43.64	7.0
43.655	10.0
43.67	9.0
43.685	5.0
43.7	5.0
43.715	6.0
43.73	5.0
43.745	10.0
43.76	7.0
43.775	5.0
43.79	4.0
43.805	6.0
43.82	9.0
43.835	7.0
43.85	8.0
43.865	4.0
43.88	15.0
43.895	4.0
43.91	9.0
43.925	4.0
43.94	5.0
43.955	5.0
43.97	6.0
43.985	5.0
44.0	6.0
44.015	2.0
44.03	3.0
44.045	4.0
44.061	6.0
44.076	6.0
44.091	4.0
44.106	8.0
44.121	1.0
44.136	1.0
44.151	8.0
44.166	2.0
44.181	4.0
44.196	6.0
44.211	3.0
44.226	3.0
44.241	5.0
44.256	4.0
44.271	4.0
44.286	9.0
44.301	7.0
44.316	6.0
44.331	6.0
44.346	6.0
44.361	2.0
44.377	4.0
44.392	7.0
44.407	11.0
44.422	5.0
44.437	5.0
44.452	5.0
44.467	3.0
44.482	7.0
44.497	6.0
44.512	5.0
44.527	3.0
44.542	6.0
44.557	4.0
44.572	6.0
44.587	13.0
44.602	7.0
44.617	9.0
44.632	6.0
44.647	4.0
44.663	5.0
44.678	8.0
44.693	9.0
44.708	6.0
44.723	6.0
44.738	4.0
44.753	3.0
44.768	12.0
44.783	12.0
44.798	17.0
44.813	9.0
44.828	12.0
44.843	7.0
44.858	6.0
44.873	7.0
44.888	11.0
44.903	10.0
44.918	9.0
44.933	8.0
44.948	4.0
44.964	5.0
44.979	3.0
44.994	7.0
45.009	4.0
45.024	6.0
45.039	5.0
45.054	4.0
45.069	9.0
45.084	10.0
45.099	10.0
45.114	10.0
45.129	4.0
45.144	8.0
45.159	7.0
45.174	3.0
45.189	5.0
45.204	11.0
45.219	6.0
45.234	7.0
45.249	6.0
45.264	5.0
45.279	6.0
45.294	0.0
45.309	3.0
45.324	5.0
45.339	3.0
45.354	1.0
45.369	6.0
45.384	4.0
45.399	3.0
45.414	4.0
45.429	6.0
45.444	2.0
45.459	4.0
45.474	7.0
45.489	5.0
45.504	1.0
45.519	2.0
45.534	10.0
45.549	5.0
45.564	3.0
45.579	6.0
45.594	6.0
45.609	7.0
45.624	7.0
45.639	9.0
45.654	7.0
45.669	4.0
45.684	5.0
45.699	6.0
45.714	2.0
45.729	4.0
45.744	4.0
45.759	2.0
45.774	5.0
45.789	5.0
45.804	11.0
45.819	4.0
45.834	6.0
45.849	11.0
45.864	13.0
45.879	4.0
45.894	8.0
45.909	9.0
45.924	20.0
45.939	16.0
45.954	15.0
45.969	21.0
45.984	19.0
45.998	11.0
46.013	16.0
46.028	12.0
46.043	12.0
46.058	10.0
46.073	9.0
46.088	13.0
46.103	10.0
46.118	5.0
46.133	8.0
46.148	6.0
46.163	7.0
46.178	9.0
46.192	7.0
46.207	12.0
46.222	6.0
46.237	7.0
46.252	10.0
46.267	7.0
46.282	14.0
46.297	15.0
46.312	9.0
46.327	7.0
46.341	9.0
46.356	7.0
46.371	6.0
46.386	6.0
46.401	3.0
46.416	7.0
46.431	10.0
46.446	4.0
46.46	5.0
46.475	3.0
46.49	6.0
46.505	8.0
46.52	3.0
46.535	3.0
46.55	8.0
46.564	2.0
46.579	3.0
46.594	7.0
46.609	2.0
46.624	2.0
46.639	5.0
46.654	9.0
46.668	4.0
46.683	8.0
46.698	6.0
46.713	3.0
46.728	4.0
46.743	3.0
46.758	5.0
46.772	4.0
46.787	7.0
46.802	1.0
46.817	5.0
46.832	7.0
46.847	2.0
46.861	3.0
46.876	3.0
46.891	4.0
46.906	4.0
46.921	4.0
46.936	4.0
46.95	5.0
46.965	7.0
46.98	4.0
46.995	4.0
47.01	4.0
47.025	4.0
47.039	2.0
47.054	5.0
47.069	13.0
47.084	11.0
47.099	5.0
47.113	8.0
47.128	13.0
47.143	11.0
47.158	12.0
47.173	6.0
47.188	6.0
47.202	8.0
47.217	8.0
47.232	7.0
47.247	8.0
47.262	5.0
47.277	14.0
47.291	8.0
47.306	6.0
47.321	4.0
47.336	6.0
47.351	5.0
47.365	6.0
47.38	10.0
47.395	8.0
47.41	11.0
47.425	5.0
47.44	7.0
47.454	4.0
47.469	11.0
47.484	7.0
47.499	11.0
47.514	5.0
47.528	6.0
47.543	8.0
47.558	2.0
47.573	5.0
47.588	4.0
47.603	2.0
47.617	3.0
47.632	2.0
47.647	3.0
47.662	4.0
47.677	1.0
47.691	8.0
47.706	3.0
47.721	2.0
47.736	5.0
47.751	2.0
47.766	5.0
47.78	5.0
47.795	5.0
47.81	5.0
47.825	4.0
47.84	8.0
47.855	5.0
47.869	7.0
47.884	1.0
47.899	5.0
47.914	6.0
47.929	1.0
47.944	4.0
47.958	7.0
47.973	8.0
47.988	5.0
48.003	5.0
48.018	1.0
48.033	3.0
48.047	5.0
48.062	4.0
48.077	3.0
48.092	7.0
48.107	7.0
48.122	2.0
48.137	5.0
48.151	2.0
48.166	8.0
48.181	8.0
48.196	8.0
48.211	6.0
48.226	3.0
48.241	3.0
48.255	7.0
48.27	2.0
48.285	6.0
48.3	4.0
48.315	12.0
48.33	6.0
48.345	5.0
48.359	4.0
48.374	5.0
48.389	4.0
48.404	6.0
48.419	2.0
48.434	3.0
48.449	3.0
48.464	4.0
48.478	6.0
48.493	4.0
48.508	2.0
48.523	4.0
48.538	1.0
48.553	3.0
48.568	6.0
48.583	2.0
48.597	7.0
48.612	5.0
48.627	5.0
48.642	6.0
48.657	5.0
48.672	2.0
48.687	5.0
48.702	5.0
48.717	7.0
48.731	8.0
48.746	6.0
48.761	4.0
48.776	6.0
48.791	6.0
48.806	4.0
48.821	8.0
48.836	5.0
48.851	4.0
48.866	3.0
48.88	5.0
48.895	8.0
48.91	1.0
48.925	7.0
48.94	1.0
48.955	8.0
48.97	5.0
48.985	7.0
49.0	3.0
49.015	1.0
49.03	6.0
49.044	8.0
49.059	2.0
49.074	5.0
49.089	1.0
49.104	12.0
49.119	5.0
49.134	4.0
49.149	4.0
49.164	3.0
49.179	5.0
49.194	9.0
49.209	5.0
49.224	3.0
49.238	7.0
49.253	5.0
49.268	8.0
49.283	6.0
49.298	3.0
49.313	5.0
49.328	5.0
49.343	6.0
49.358	7.0
49.373	9.0
49.388	13.0
49.403	7.0
49.418	4.0
49.433	5.0
49.448	10.0
49.463	2.0
49.478	5.0
49.492	4.0
49.507	7.0
49.522	3.0
49.537	2.0
49.552	2.0
49.567	2.0
49.582	9.0
49.597	2.0
49.612	1.0
49.627	1.0
49.642	8.0
49.657	5.0
49.672	7.0
49.687	8.0
49.702	7.0
49.717	9.0
49.732	3.0
49.747	7.0
49.762	7.0
49.777	4.0
49.792	5.0
49.807	3.0
49.822	4.0
49.837	5.0
49.852	3.0
49.867	2.0
49.882	5.0
49.897	2.0
49.912	5.0
49.927	3.0
49.942	7.0
49.957	5.0
49.971	6.0
49.986	3.0
50.001	5.0
50.016	7.0
50.031	4.0
50.046	7.0
50.061	7.0
50.076	7.0
50.091	5.0
50.106	2.0
50.121	6.0
50.136	5.0
50.151	2.0
50.166	4.0
50.181	7.0
50.196	4.0
50.211	2.0
50.226	2.0
50.241	3.0
50.256	3.0
50.271	1.0
50.286	5.0
50.302	3.0
50.317	7.0
50.332	5.0
50.347	9.0
50.362	3.0
50.377	8.0
50.392	3.0
50.407	8.0
50.422	6.0
50.437	7.0
50.452	5.0
50.467	5.0
50.482	8.0
50.497	7.0
50.512	4.0
50.527	6.0
50.542	8.0
50.557	6.0
50.572	9.0
50.587	7.0
50.602	5.0
50.617	6.0
50.632	3.0
50.647	5.0
50.662	7.0
50.677	8.0
50.692	8.0
50.707	7.0
50.722	4.0
50.737	8.0
50.752	9.0
50.767	5.0
50.782	4.0
50.797	6.0
50.812	6.0
50.828	10.0
50.843	11.0
50.858	2.0
50.873	6.0
50.888	4.0
50.903	6.0
50.918	5.0
50.933	3.0
50.948	8.0
50.963	6.0
50.978	3.0
50.993	6.0
51.008	6.0
51.023	5.0
51.038	6.0
51.053	2.0
51.068	1.0
51.083	3.0
51.098	2.0
51.114	6.0
51.129	8.0
51.144	3.0
51.159	6.0
51.174	7.0
51.189	4.0
51.204	6.0
51.219	3.0
51.234	6.0
51.249	6.0
51.264	4.0
51.279	4.0
51.294	6.0
51.309	6.0
51.324	4.0
51.34	5.0
51.355	6.0
51.37	9.0
51.385	8.0
51.4	7.0
51.415	4.0
51.43	10.0
51.445	14.0
51.46	17.0
51.475	5.0
51.49	14.0
51.505	21.0
51.52	22.0
51.535	17.0
51.551	13.0
51.566	18.0
51.581	12.0
51.596	12.0
51.611	7.0
51.626	10.0
51.641	9.0
51.656	4.0
51.671	10.0
51.686	7.0
51.701	8.0
51.716	7.0
51.732	3.0
51.747	5.0
51.762	7.0
51.777	7.0
51.792	12.0
51.807	7.0
51.822	9.0
51.837	12.0
51.852	13.0
51.867	13.0
51.882	8.0
51.898	6.0
51.913	8.0
51.928	8.0
51.943	10.0
51.958	13.0
51.973	6.0
51.988	2.0
52.003	5.0
52.018	5.0
52.033	3.0
52.048	4.0
52.064	3.0
52.079	6.0
52.094	0.0
52.109	5.0
52.124	2.0
52.139	4.0
52.154	7.0
52.169	3.0
52.184	4.0
52.199	6.0
52.215	4.0
52.23	6.0
52.245	3.0
52.26	5.0
52.275	4.0
52.29	4.0
52.305	5.0
52.32	7.0
52.335	3.0
52.35	4.0
52.366	5.0
52.381	3.0
52.396	3.0
52.411	4.0
52.426	4.0
52.441	5.0
52.456	6.0
52.471	6.0
52.486	5.0
52.502	9.0
52.517	5.0
52.532	7.0
52.547	8.0
52.562	10.0
52.577	11.0
52.592	8.0
52.607	6.0
52.622	9.0
52.637	8.0
52.653	7.0
52.668	5.0
52.683	5.0
52.698	14.0
52.713	3.0
52.728	9.0
52.743	4.0
52.758	4.0
52.774	5.0
52.789	7.0
52.804	5.0
52.819	6.0
52.834	9.0
52.849	10.0
52.864	9.0
52.879	5.0
52.894	9.0
52.91	8.0
52.925	7.0
52.94	6.0
52.955	2.0
52.97	6.0
52.985	4.0
53.0	5.0
53.015	6.0
53.031	7.0
53.046	4.0
53.061	4.0
53.076	6.0
53.091	3.0
53.106	4.0
53.121	4.0
53.136	3.0
53.152	5.0
53.167	4.0
53.182	3.0
53.197	3.0
53.212	6.0
53.227	7.0
53.242	4.0
53.257	5.0
53.273	7.0
53.288	4.0
53.303	5.0
53.318	6.0
53.333	7.0
53.348	2.0
53.363	6.0
53.379	7.0
53.394	10.0
53.409	4.0
53.424	2.0
53.439	6.0
53.454	3.0
53.469	6.0
53.484	4.0
53.5	3.0
53.515	2.0
53.53	3.0
53.545	5.0
53.56	2.0
53.575	6.0
53.59	3.0
53.606	4.0
53.621	5.0
53.636	3.0
53.651	5.0
53.666	4.0
53.681	6.0
53.696	5.0
53.712	5.0
53.727	3.0
53.742	6.0
53.757	7.0
53.772	3.0
53.787	10.0
53.802	4.0
53.818	6.0
53.833	2.0
53.848	3.0
53.863	6.0
53.878	2.0
53.893	4.0
53.909	6.0
53.924	7.0
53.939	3.0
53.954	7.0
53.969	6.0
53.984	4.0
53.999	4.0
54.015	6.0
54.03	5.0
54.045	2.0
54.06	2.0
54.075	3.0
54.09	5.0
54.106	5.0
54.121	6.0
54.136	4.0
54.151	2.0
54.166	3.0
54.181	4.0
54.197	1.0
54.212	3.0
54.227	7.0
54.242	11.0
54.257	1.0
54.272	4.0
54.288	5.0
54.303	1.0
54.318	5.0
54.333	4.0
54.348	4.0
54.363	9.0
54.379	5.0
54.394	3.0
54.409	3.0
54.424	5.0
54.439	4.0
54.454	2.0
54.47	5.0
54.485	8.0
54.5	5.0
54.515	6.0
54.53	11.0
54.545	3.0
54.561	9.0
54.576	11.0
54.591	4.0
54.606	11.0
54.621	6.0
54.636	14.0
54.652	9.0
54.667	12.0
54.682	12.0
54.697	13.0
54.712	10.0
54.727	5.0
54.743	6.0
54.758	8.0
54.773	5.0
54.788	1.0
54.803	9.0
54.819	4.0
54.834	2.0
54.849	7.0
54.864	4.0
54.879	8.0
54.894	4.0
54.91	7.0
54.925	10.0
54.94	7.0
54.955	16.0
54.97	9.0
54.985	10.0
55.001	11.0
55.016	10.0
55.031	9.0
55.046	5.0
55.061	5.0
55.077	2.0
55.092	5.0
55.107	6.0
55.122	10.0
55.137	5.0
55.152	4.0
55.168	3.0
55.183	6.0
55.198	7.0
55.213	4.0
55.228	2.0
55.243	4.0
55.259	7.0
55.274	4.0
55.289	7.0
55.304	3.0
55.319	5.0
55.335	5.0
55.35	9.0
55.365	3.0
55.38	7.0
55.395	7.0
55.41	0.0
55.426	6.0
55.441	2.0
55.456	6.0
55.471	10.0
55.486	4.0
55.501	9.0
55.517	2.0
55.532	7.0
55.547	6.0
55.562	6.0
55.577	7.0
55.592	6.0
55.608	3.0
55.623	5.0
55.638	4.0
55.653	7.0
55.668	8.0
55.683	11.0
55.699	6.0
55.714	8.0
55.729	7.0
55.744	2.0
55.759	5.0
55.774	8.0
55.79	4.0
55.805	7.0
55.82	2.0
55.835	3.0
55.85	7.0
55.865	6.0
55.881	4.0
55.896	2.0
55.911	3.0
55.926	5.0
55.941	4.0
55.956	9.0
55.972	4.0
55.987	2.0
56.002	2.0
56.017	5.0
56.032	5.0
56.047	4.0
56.063	7.0
56.078	4.0
56.093	2.0
56.108	3.0
56.123	8.0
56.138	1.0
56.154	11.0
56.169	2.0
56.184	3.0
56.199	5.0
56.214	8.0
56.229	3.0
56.244	6.0
56.26	4.0
56.275	3.0
56.29	3.0
56.305	4.0
56.32	6.0
56.335	2.0
56.351	3.0
56.366	2.0
56.381	3.0
56.396	5.0
56.411	5.0
56.426	5.0
56.441	3.0
56.457	3.0
56.472	7.0
56.487	1.0
56.502	4.0
56.517	2.0
56.532	6.0
56.547	3.0
56.563	6.0
56.578	1.0
56.593	5.0
56.608	1.0
56.623	3.0
56.638	1.0
56.653	2.0
56.668	2.0
56.684	5.0
56.699	1.0
56.714	4.0
56.729	7.0
56.744	5.0
56.759	2.0
56.774	5.0
56.79	3.0
56.805	3.0
56.82	4.0
56.835	1.0
56.85	3.0
56.865	3.0
56.88	6.0
56.895	2.0
56.911	5.0
56.926	7.0
56.941	1.0
56.956	1.0
56.971	3.0
56.986	3.0
57.001	5.0
57.016	2.0
57.031	2.0
57.047	4.0
57.062	3.0
57.077	5.0
57.092	6.0
57.107	4.0
57.122	4.0
57.137	5.0
57.152	3.0
57.167	8.0
57.183	7.0
57.198	4.0
57.213	8.0
57.228	0.0
57.243	4.0
57.258	8.0
57.273	2.0
57.288	3.0
57.303	3.0
57.318	3.0
57.334	5.0
57.349	6.0
57.364	1.0
57.379	3.0
57.394	8.0
57.409	5.0
57.424	6.0
57.439	4.0
57.454	6.0
57.469	6.0
57.484	8.0
57.5	2.0
57.515	5.0
57.53	4.0
57.545	2.0
57.56	7.0
57.575	5.0
57.59	5.0
57.605	3.0
57.62	4.0
57.635	5.0
57.65	5.0
57.665	4.0
57.68	8.0
57.696	4.0
57.711	5.0
57.726	1.0
57.741	5.0
57.756	4.0
57.771	3.0
57.786	6.0
57.801	4.0
57.816	4.0
57.831	4.0
57.846	3.0
57.861	4.0
57.876	4.0
57.891	8.0
57.906	6.0
57.921	4.0
57.937	5.0
57.952	7.0
57.967	3.0
57.982	5.0
57.997	4.0
58.012	1.0
58.027	7.0
58.042	5.0
58.057	2.0
58.072	4.0
58.087	5.0
58.102	3.0
58.117	3.0
58.132	6.0
58.147	5.0
58.162	5.0
58.177	3.0
58.192	2.0
58.207	8.0
58.222	2.0
58.237	9.0
58.252	4.0
58.267	5.0
58.282	10.0
58.297	4.0
58.312	4.0
58.327	6.0
58.342	6.0
58.357	3.0
58.372	3.0
58.387	3.0
58.402	3.0
58.418	4.0
58.433	6.0
58.448	0.0
58.463	7.0
58.478	3.0
58.493	5.0
58.508	4.0
58.523	8.0
58.538	3.0
58.553	2.0
58.568	7.0
58.583	5.0
58.598	5.0
58.613	8.0
58.628	10.0
58.643	14.0
58.658	7.0
58.673	13.0
58.688	14.0
58.703	7.0
58.718	6.0
58.733	8.0
58.748	3.0
58.763	6.0
58.778	2.0
58.793	7.0
58.808	8.0
58.823	1.0
58.838	5.0
58.853	1.0
58.868	2.0
58.883	4.0
58.898	2.0
58.913	5.0
58.928	6.0
58.942	3.0
58.957	11.0
58.972	8.0
58.987	8.0
59.002	4.0
59.017	9.0
59.032	10.0
59.047	8.0
59.062	5.0
59.077	3.0
59.092	5.0
59.107	3.0
59.122	3.0
59.137	7.0
59.152	1.0
59.167	5.0
59.182	4.0
59.197	6.0
59.212	3.0
59.227	2.0
59.242	4.0
59.257	4.0
59.272	7.0
59.287	4.0
59.302	2.0
59.317	4.0
59.332	5.0
59.347	2.0
59.362	7.0
59.377	4.0
59.392	4.0
59.407	3.0
59.422	3.0
59.437	1.0
59.452	6.0
59.467	7.0
59.482	4.0
59.497	1.0
59.512	2.0
59.527	2.0
59.542	4.0
59.557	9.0
59.572	15.0
59.587	11.0
59.602	4.0
59.617	7.0
59.632	9.0
59.647	7.0
59.661	9.0
59.676	5.0
59.691	8.0
59.706	6.0
59.721	6.0
59.736	3.0
59.751	2.0
59.766	6.0
59.781	5.0
59.796	2.0
59.811	3.0
59.826	5.0
59.841	2.0
59.856	3.0
59.871	1.0
59.886	4.0
59.901	6.0
59.916	2.0
59.931	4.0
59.946	4.0
59.961	5.0
59.976	5.0
59.991	9.0
60.006	5.0
60.021	8.0
60.036	6.0
60.051	5.0
60.066	2.0
60.081	7.0
60.096	6.0
60.111	11.0
60.126	2.0
60.141	5.0
60.156	4.0
60.171	3.0
60.186	7.0
60.201	9.0
60.216	3.0
60.231	4.0
60.246	4.0
60.261	3.0
60.276	5.0
60.291	5.0
60.306	4.0
60.321	6.0
60.336	5.0
60.35	6.0
60.365	6.0
60.38	7.0
60.395	3.0
60.41	3.0
60.425	1.0
60.44	7.0
60.455	6.0
60.47	8.0
60.485	6.0
60.5	3.0
60.515	6.0
60.53	4.0
60.545	9.0
60.56	10.0
60.575	6.0
60.59	7.0
60.605	7.0
60.62	4.0
60.635	4.0
60.65	7.0
60.665	7.0
60.68	5.0
60.695	6.0
60.71	5.0
60.725	3.0
60.74	3.0
60.755	2.0
60.77	4.0
60.785	3.0
60.8	2.0
60.815	4.0
60.83	4.0
60.845	2.0
60.86	6.0
60.875	3.0
60.89	3.0
60.905	2.0
60.92	3.0
60.935	3.0
60.95	12.0
60.965	7.0
60.98	8.0
60.995	6.0
61.01	5.0
61.025	8.0
61.04	5.0
61.055	3.0
61.07	3.0
61.085	4.0
61.1	8.0
61.115	5.0
61.13	6.0
61.145	2.0
61.16	4.0
61.175	4.0
61.191	3.0
61.206	5.0
61.221	5.0
61.236	3.0
61.251	5.0
61.266	4.0
61.281	2.0
61.296	4.0
61.311	3.0
61.326	3.0
61.341	4.0
61.356	11.0
61.371	3.0
61.386	5.0
61.401	5.0
61.416	5.0
61.431	8.0
61.446	1.0
61.461	4.0
61.476	0.0
61.491	3.0
61.506	5.0
61.521	7.0
61.536	4.0
61.551	10.0
61.566	5.0
61.581	6.0
61.596	6.0
61.611	7.0
61.626	9.0
61.641	4.0
61.656	4.0
61.672	2.0
61.687	3.0
61.702	3.0
61.717	2.0
61.732	5.0
61.747	4.0
61.762	3.0
61.777	6.0
61.792	1.0
61.807	4.0
61.822	5.0
61.837	2.0
61.852	7.0
61.867	5.0
61.882	11.0
61.897	6.0
61.912	4.0
61.927	5.0
61.943	2.0
61.958	5.0
61.973	4.0
61.988	5.0
62.003	5.0
62.018	4.0
62.033	6.0
62.048	4.0
62.063	3.0
62.078	8.0
62.093	4.0
62.108	3.0
62.123	2.0
62.138	4.0
62.153	4.0
62.169	4.0
62.184	3.0
62.199	1.0
62.214	6.0
62.229	5.0
62.244	7.0
62.259	3.0
62.274	2.0
62.289	2.0
62.304	3.0
62.319	4.0
62.335	4.0
62.35	3.0
62.365	1.0
62.38	4.0
62.395	2.0
62.41	3.0
62.425	2.0
62.44	4.0
62.455	3.0
62.47	6.0
62.485	5.0
62.501	4.0
62.516	6.0
62.531	7.0
62.546	3.0
62.561	4.0
62.576	4.0
62.591	5.0
62.606	4.0
62.621	3.0
62.636	6.0
62.652	4.0
62.667	3.0
62.682	3.0
62.697	3.0
62.712	2.0
62.727	3.0
62.742	4.0
62.757	5.0
62.772	1.0
62.787	5.0
62.803	2.0
62.818	4.0
62.833	6.0
62.848	4.0
62.863	2.0
62.878	3.0
62.893	8.0
62.908	3.0
62.923	5.0
62.939	4.0
62.954	7.0
62.969	1.0
62.984	10.0
62.999	3.0
63.014	4.0
63.029	4.0
63.044	4.0
63.059	6.0
63.074	3.0
63.09	4.0
63.105	3.0
63.12	4.0
63.135	5.0
63.15	5.0
63.165	0.0
63.18	2.0
63.195	5.0
63.21	4.0
63.226	1.0
63.241	1.0
63.256	6.0
63.271	3.0
63.286	3.0
63.301	4.0
63.316	3.0
63.331	3.0
63.346	5.0
63.362	3.0
63.377	11.0
63.392	4.0
63.407	4.0
63.422	5.0
63.437	5.0
63.452	9.0
63.467	6.0
63.482	6.0
63.497	8.0
63.513	2.0
63.528	4.0
63.543	5.0
63.558	3.0
63.573	2.0
63.588	4.0
63.603	7.0
63.618	2.0
63.633	4.0
63.648	3.0
63.664	4.0
63.679	3.0
63.694	4.0
63.709	10.0
63.724	6.0
63.739	8.0
63.754	8.0
63.769	6.0
63.784	3.0
63.799	5.0
63.814	3.0
63.83	9.0
63.845	8.0
63.86	4.0
63.875	2.0
63.89	5.0
63.905	2.0
63.92	4.0
63.935	2.0
63.95	4.0
63.965	5.0
63.98	2.0
63.996	4.0
64.011	2.0
64.026	5.0
64.041	3.0
64.056	5.0
64.071	4.0
64.086	2.0
64.101	4.0
64.116	2.0
64.131	2.0
64.146	4.0
64.161	5.0
64.176	2.0
64.191	4.0
64.207	3.0
64.222	8.0
64.237	3.0
64.252	2.0
64.267	4.0
64.282	1.0
64.297	2.0
64.312	2.0
64.327	3.0
64.342	5.0
64.357	4.0
64.372	3.0
64.387	5.0
64.402	6.0
64.417	3.0
64.433	2.0
64.448	3.0
64.463	4.0
64.478	5.0
64.493	4.0
64.508	7.0
64.523	2.0
64.538	1.0
64.553	1.0
64.568	6.0
64.583	3.0
64.598	2.0
64.613	6.0
64.628	6.0
64.643	2.0
64.658	3.0
64.673	0.0
64.688	3.0
64.703	5.0
64.718	2.0
64.734	6.0
64.749	2.0
64.764	2.0
64.779	4.0
64.794	4.0
64.809	2.0
64.824	5.0
64.839	4.0
64.854	2.0
64.869	6.0
64.884	1.0
64.899	4.0
64.914	2.0
64.929	4.0
64.944	5.0
64.959	1.0
64.974	3.0
64.989	2.0
65.004	3.0
65.019	3.0
65.034	5.0
65.049	3.0
65.064	4.0
65.079	6.0
65.094	2.0
65.109	8.0
65.125	5.0
65.14	7.0
65.155	3.0
65.17	3.0
65.185	10.0
65.2	4.0
65.215	6.0
65.23	4.0
65.245	4.0
65.26	3.0
65.275	5.0
65.29	6.0
65.305	5.0
65.32	2.0
65.335	2.0
65.35	5.0
65.365	1.0
65.38	2.0
65.395	2.0
65.41	5.0
65.425	6.0
65.44	2.0
65.455	5.0
65.47	2.0
65.485	2.0
65.5	5.0
65.515	5.0
65.53	2.0
65.545	4.0
65.56	1.0
65.575	5.0
65.59	7.0
65.605	4.0
65.62	3.0
65.635	2.0
65.65	1.0
65.666	5.0
65.681	5.0
65.696	5.0
65.711	5.0
65.726	8.0
65.741	3.0
65.756	6.0
65.771	6.0
65.786	2.0
65.801	6.0
65.816	2.0
65.831	1.0
65.846	1.0
65.861	7.0
65.876	2.0
65.891	3.0
65.906	5.0
65.921	5.0
65.936	3.0
65.951	1.0
65.966	5.0
65.981	1.0
65.996	5.0
66.011	5.0
66.026	4.0
66.041	3.0
66.056	3.0
66.071	7.0
66.086	8.0
66.101	8.0
66.116	5.0
66.131	5.0
66.146	6.0
66.161	8.0
66.176	4.0
66.191	9.0
66.206	7.0
66.221	5.0
66.236	11.0
66.251	3.0
66.266	5.0
66.281	5.0
66.296	5.0
66.311	8.0
66.327	2.0
66.342	7.0
66.357	7.0
66.372	6.0
66.387	5.0
66.402	6.0
66.417	2.0
66.432	1.0
66.447	6.0
66.462	1.0
66.477	3.0
66.492	4.0
66.507	6.0
66.522	4.0
66.537	1.0
66.552	3.0
66.567	3.0
66.582	10.0
66.597	4.0
66.612	7.0
66.627	5.0
66.642	5.0
66.657	11.0
66.672	4.0
66.687	8.0
66.702	5.0
66.717	5.0
66.732	4.0
66.747	5.0
66.762	5.0
66.777	2.0
66.792	1.0
66.807	2.0
66.822	3.0
66.837	2.0
66.853	2.0
66.868	2.0
66.883	2.0
66.898	2.0
66.913	4.0
66.928	0.0
66.943	3.0
66.958	2.0
66.973	4.0
66.988	5.0
67.003	7.0
67.018	1.0
67.033	5.0
67.048	3.0
67.063	2.0
67.078	2.0
67.093	6.0
67.108	6.0
67.123	9.0
67.138	5.0
67.153	4.0
67.168	8.0
67.183	5.0
67.198	0.0
67.214	7.0
67.229	6.0
67.244	5.0
67.259	9.0
67.274	8.0
67.289	5.0
67.304	2.0
67.319	4.0
67.334	5.0
67.349	4.0
67.364	6.0
67.379	2.0
67.394	2.0
67.409	6.0
67.424	2.0
67.439	1.0
67.454	3.0
67.469	5.0
67.484	3.0
67.5	10.0
67.515	2.0
67.53	4.0
67.545	5.0
67.56	7.0
67.575	3.0
67.59	3.0
67.605	5.0
67.62	3.0
67.635	6.0
67.65	0.0
67.665	3.0
67.68	3.0
67.695	2.0
67.71	7.0
67.726	5.0
67.741	6.0
67.756	4.0
67.771	2.0
67.786	3.0
67.801	5.0
67.816	6.0
67.831	2.0
67.846	4.0
67.861	2.0
67.876	1.0
67.891	1.0
67.906	2.0
67.922	2.0
67.937	3.0
67.952	9.0
67.967	3.0
67.982	6.0
67.997	1.0
68.012	3.0
68.027	7.0
68.042	2.0
68.057	2.0
68.072	4.0
68.087	3.0
68.103	5.0
68.118	3.0
68.133	3.0
68.148	3.0
68.163	4.0
68.178	4.0
68.193	1.0
68.208	9.0
68.223	2.0
68.238	4.0
68.254	4.0
68.269	4.0
68.284	6.0
68.299	4.0
68.314	3.0
68.329	2.0
68.344	1.0
68.359	2.0
68.374	4.0
68.389	6.0
68.405	4.0
68.42	4.0
68.435	6.0
68.45	2.0
68.465	2.0
68.48	1.0
68.495	2.0
68.51	2.0
68.525	6.0
68.54	6.0
68.556	4.0
68.571	6.0
68.586	2.0
68.601	3.0
68.616	5.0
68.631	9.0
68.646	3.0
68.661	6.0
68.676	5.0
68.691	5.0
68.707	1.0
68.722	3.0
68.737	3.0
68.752	1.0
68.767	4.0
68.782	5.0
68.797	2.0
68.812	6.0
68.827	1.0
68.842	2.0
68.857	3.0
68.873	10.0
68.888	7.0
68.903	8.0
68.918	6.0
68.933	1.0
68.948	2.0
68.963	3.0
68.978	3.0
68.993	4.0
69.008	4.0
69.023	1.0
69.038	3.0
69.054	2.0
69.069	0.0
69.084	1.0
69.099	5.0
69.114	3.0
69.129	0.0
69.144	3.0
69.159	0.0
69.174	2.0
69.189	6.0
69.204	4.0
69.219	4.0
69.234	5.0
69.249	4.0
69.264	6.0
69.279	3.0
69.295	2.0
69.31	2.0
69.325	7.0
69.34	2.0
69.355	4.0
69.37	2.0
69.385	8.0
69.4	3.0
69.415	4.0
69.43	2.0
69.445	3.0
69.46	3.0
69.475	2.0
69.49	6.0
69.505	2.0
69.52	5.0
69.535	2.0
69.55	3.0
69.565	1.0
69.58	5.0
69.595	8.0
69.61	5.0
69.625	4.0
69.64	6.0
69.655	5.0
69.67	4.0
69.685	4.0
69.7	4.0
69.715	3.0
69.73	5.0
69.745	3.0
69.76	6.0
69.775	13.0
69.79	6.0
69.805	4.0
69.82	5.0
69.835	5.0
69.85	6.0
69.865	2.0
69.88	6.0
69.895	3.0
69.909	3.0
69.924	4.0
69.939	5.0
69.954	2.0
69.969	4.0
69.984	1.0
69.999	3.0
70.014	4.0
70.029	7.0
70.044	6.0
70.059	4.0
70.074	5.0
70.088	1.0
70.103	2.0
70.118	5.0
70.133	5.0
70.148	1.0
70.163	2.0
70.178	4.0
70.193	5.0
70.208	4.0
70.222	3.0
70.237	4.0
70.252	7.0
70.267	10.0
70.282	3.0
70.297	6.0
70.312	9.0
70.327	7.0
70.341	9.0
70.356	5.0
70.371	6.0
70.386	4.0
70.401	3.0
70.416	0.0
70.43	4.0
70.445	1.0
70.46	2.0
70.475	4.0
70.49	7.0
70.505	4.0
70.519	4.0
70.534	3.0
70.549	5.0
70.564	2.0
70.579	1.0
70.594	5.0
70.608	5.0
70.623	5.0
70.638	4.0
70.653	4.0
70.668	7.0
70.683	4.0
70.697	1.0
70.712	5.0
70.727	1.0
70.742	4.0
70.757	5.0
70.771	3.0
70.786	0.0
70.801	1.0
70.816	4.0
70.831	1.0
70.845	3.0
70.86	5.0
70.875	6.0
70.89	1.0
70.905	2.0
70.92	2.0
70.934	1.0
70.949	5.0
70.964	7.0
70.979	2.0
70.994	1.0
71.008	4.0
71.023	3.0
71.038	1.0
71.053	1.0
71.068	4.0
71.082	5.0
71.097	5.0
71.112	6.0
71.127	4.0
71.142	12.0
71.156	2.0
71.171	8.0
71.186	3.0
71.201	4.0
71.216	4.0
71.231	4.0
71.245	4.0
71.26	2.0
71.275	11.0
71.29	3.0
71.305	5.0
71.319	3.0
71.334	1.0
71.349	10.0
71.364	4.0
71.379	6.0
71.394	5.0
71.408	3.0
71.423	7.0
71.438	6.0
71.453	6.0
71.468	6.0
71.483	5.0
71.497	7.0
71.512	5.0
71.527	3.0
71.542	8.0
71.557	1.0
71.572	4.0
71.586	6.0
71.601	7.0
71.616	3.0
71.631	6.0
71.646	6.0
71.661	6.0
71.676	2.0
71.69	2.0
71.705	2.0
71.72	2.0
71.735	1.0
71.75	2.0
71.765	2.0
71.78	2.0
71.795	0.0
71.81	6.0
71.824	2.0
71.839	3.0
71.854	5.0
71.869	4.0
71.884	5.0
71.899	2.0
71.914	1.0
71.929	2.0
71.944	7.0
71.959	3.0
71.974	4.0
71.988	2.0
72.003	2.0
72.018	3.0
72.033	2.0
72.048	4.0
72.063	2.0
72.078	1.0
72.093	3.0
72.108	6.0
72.123	5.0
72.138	2.0
72.153	1.0
72.168	7.0
72.183	4.0
72.198	2.0
72.213	4.0
72.228	4.0
72.243	2.0
72.258	2.0
72.273	4.0
72.288	3.0
72.303	3.0
72.318	5.0
72.333	4.0
72.348	5.0
72.363	3.0
72.378	2.0
72.393	2.0
72.408	5.0
72.423	5.0
72.438	3.0
72.453	4.0
72.468	3.0
72.483	3.0
72.498	2.0
72.513	4.0
72.528	3.0
72.543	5.0
72.558	8.0
72.573	3.0
72.588	2.0
72.603	7.0
72.618	2.0
72.633	3.0
72.649	2.0
72.664	2.0
72.679	0.0
72.694	4.0
72.709	3.0
72.724	3.0
72.739	1.0
72.754	5.0
72.769	4.0
72.784	2.0
72.799	1.0
72.814	6.0
72.829	3.0
72.845	5.0
72.86	2.0
72.875	2.0
72.89	2.0
72.905	4.0
72.92	3.0
72.935	5.0
72.95	2.0
72.965	1.0
72.98	1.0
72.996	4.0
73.011	2.0
73.026	0.0
73.041	3.0
73.056	5.0
73.071	2.0
73.086	2.0
73.101	3.0
73.117	4.0
73.132	5.0
73.147	1.0
73.162	5.0
73.177	2.0
73.192	5.0
73.207	6.0
73.222	7.0
73.238	3.0
73.253	1.0
73.268	2.0
73.283	9.0
73.298	4.0
73.313	3.0
73.328	9.0
73.343	2.0
73.359	2.0
73.374	4.0
73.389	2.0
73.404	9.0
73.419	3.0
73.434	0.0
73.449	3.0
73.465	7.0
73.48	3.0
73.495	4.0
73.51	2.0
73.525	1.0
73.54	2.0
73.556	3.0
73.571	2.0
73.586	5.0
73.601	1.0
73.616	5.0
73.631	3.0
73.646	1.0
73.662	4.0
73.677	4.0
73.692	1.0
73.707	2.0
73.722	0.0
73.737	5.0
73.752	2.0
73.768	4.0
73.783	10.0
73.798	5.0
73.813	4.0
73.828	4.0
73.843	3.0
73.859	2.0
73.874	6.0
73.889	7.0
73.904	3.0
73.919	3.0
73.934	1.0
73.949	1.0
73.965	6.0
73.98	3.0
73.995	4.0
74.01	2.0
74.025	4.0
74.04	1.0
74.056	4.0
74.071	5.0
74.086	3.0
74.101	3.0
74.116	7.0
74.131	2.0
74.146	2.0
74.162	4.0
74.177	2.0
74.192	7.0
74.207	5.0
74.222	3.0
74.237	9.0
74.252	4.0
74.268	2.0
74.283	4.0
74.298	3.0
74.313	3.0
74.328	6.0
74.343	6.0
74.358	5.0
74.374	2.0
74.389	0.0
74.404	6.0
74.419	3.0
74.434	3.0
74.449	3.0
74.464	5.0
74.48	4.0
74.495	5.0
74.51	0.0
74.525	6.0
74.54	3.0
74.555	5.0
74.57	4.0
74.586	1.0
74.601	3.0
74.616	5.0
74.631	6.0
74.646	2.0
74.661	3.0
74.676	3.0
74.691	2.0
74.707	3.0
74.722	3.0
74.737	5.0
74.752	5.0
74.767	5.0
74.782	4.0
74.797	2.0
74.813	1.0
74.828	5.0
74.843	0.0
74.858	4.0
74.873	2.0
74.888	4.0
74.903	3.0
74.918	3.0
74.934	1.0
74.949	4.0
74.964	7.0
74.979	7.0
74.994	3.0
75.009	4.0
75.024	4.0
75.04	5.0
75.055	7.0
75.07	5.0
75.085	6.0
75.1	4.0
75.115	0.0
75.13	7.0
75.145	7.0
75.161	2.0
75.176	4.0
75.191	2.0
75.206	4.0
75.221	5.0
75.236	4.0
75.251	5.0
75.266	3.0
75.282	8.0
75.297	2.0
75.312	5.0
75.327	4.0
75.342	2.0
75.357	4.0
75.372	1.0
75.387	3.0
75.403	1.0
75.418	3.0
75.433	5.0
75.448	3.0
75.463	1.0
75.478	3.0
75.493	2.0
75.509	6.0
75.524	0.0
75.539	7.0
75.554	3.0
75.569	8.0
75.584	6.0
75.599	3.0
75.614	7.0
75.63	3.0
75.645	5.0
75.66	2.0
75.675	7.0
75.69	3.0
75.705	3.0
75.72	1.0
75.735	3.0
75.751	7.0
75.766	4.0
75.781	4.0
75.796	4.0
75.811	3.0
75.826	1.0
75.841	2.0
75.856	2.0
75.872	3.0
75.887	4.0
75.902	3.0
75.917	2.0
75.932	6.0
75.947	2.0
75.962	2.0
75.977	6.0
75.993	5.0
76.008	1.0
76.023	2.0
76.038	5.0
76.053	4.0
76.068	4.0
76.083	4.0
76.098	3.0
76.114	4.0
76.129	3.0
76.144	2.0
76.159	0.0
76.174	4.0
76.189	4.0
76.204	3.0
76.22	0.0
76.235	5.0
76.25	6.0
76.265	3.0
76.28	2.0
76.295	2.0
76.31	0.0
76.325	4.0
76.341	3.0
76.356	4.0
76.371	3.0
76.386	3.0
76.401	6.0
76.416	0.0
76.431	2.0
76.446	3.0
76.462	6.0
76.477	2.0
76.492	4.0
76.507	4.0
76.522	4.0
76.537	5.0
76.552	4.0
76.567	3.0
76.583	6.0
76.598	4.0
76.613	2.0
76.628	3.0
76.643	3.0
76.658	7.0
76.673	4.0
76.688	3.0
76.704	5.0
76.719	3.0
76.734	6.0
76.749	3.0
76.764	2.0
76.779	6.0
76.794	7.0
76.809	4.0
76.824	2.0
76.84	6.0
76.855	5.0
76.87	4.0
76.885	1.0
76.9	3.0
76.915	2.0
76.93	0.0
76.945	4.0
76.96	2.0
76.976	5.0
76.991	5.0
77.006	1.0
77.021	1.0
77.036	1.0
77.051	3.0
77.066	4.0
77.081	1.0
77.096	4.0
77.112	1.0
77.127	5.0
77.142	1.0
77.157	5.0
77.172	1.0
77.187	4.0
77.202	2.0
77.217	1.0
77.232	3.0
77.247	1.0
77.263	0.0
77.278	5.0
77.293	1.0
77.308	3.0
77.323	4.0
77.338	2.0
77.353	3.0
77.368	2.0
77.383	6.0
77.398	3.0
77.413	1.0
77.428	3.0
77.444	4.0
77.459	0.0
77.474	4.0
77.489	6.0
77.504	5.0
77.519	3.0
77.534	7.0
77.549	2.0
77.564	1.0
77.579	4.0
77.594	4.0
77.609	4.0
77.624	5.0
77.64	7.0
77.655	4.0
77.67	4.0
77.685	7.0
77.7	3.0
77.715	3.0
77.73	3.0
77.745	4.0
77.76	4.0
77.775	1.0
77.79	2.0
77.805	7.0
77.82	3.0
77.835	7.0
77.85	4.0
77.865	4.0
77.88	4.0
77.895	6.0
77.91	4.0
77.926	2.0
77.941	1.0
77.956	6.0
77.971	1.0
77.986	2.0
78.001	6.0
78.016	2.0
78.031	2.0
78.046	0.0
78.061	3.0
78.076	1.0
78.091	6.0
78.106	5.0
78.121	6.0
78.136	7.0
78.151	5.0
78.166	6.0
78.181	4.0
78.196	5.0
78.211	4.0
78.226	3.0
78.241	3.0
78.256	3.0
78.271	4.0
78.286	2.0
78.301	1.0
78.316	2.0
78.331	0.0
78.346	8.0
78.361	2.0
78.376	6.0
78.391	1.0
78.406	2.0
78.421	0.0
78.436	2.0
78.451	2.0
78.466	2.0
78.481	4.0
78.496	2.0
78.511	4.0
78.526	3.0
78.541	2.0
78.556	4.0
78.571	0.0
78.586	6.0
78.601	4.0
78.616	3.0
78.631	2.0
78.646	4.0
78.661	2.0
78.676	4.0
78.691	1.0
78.706	5.0
78.721	4.0
78.736	1.0
78.751	5.0
78.766	4.0
78.781	4.0
78.796	5.0
78.811	3.0
78.826	2.0
78.841	2.0
78.856	1.0
78.871	4.0
78.885	0.0
78.9	2.0
78.915	5.0
78.93	1.0
78.945	1.0
78.96	3.0
78.975	2.0
78.99	6.0
79.005	2.0
79.02	7.0
79.035	2.0
79.05	4.0
79.065	2.0
79.08	4.0
79.095	4.0
79.11	3.0
79.125	3.0
79.14	1.0
79.155	5.0
79.17	5.0
79.185	2.0
79.2	7.0
79.215	6.0
79.23	3.0
79.245	2.0
79.26	3.0
79.275	2.0
79.29	5.0
79.304	6.0
79.319	3.0
79.334	0.0
79.349	3.0
79.364	4.0
79.379	0.0
79.394	6.0
79.409	3.0
79.424	0.0
79.439	3.0
79.454	2.0
79.469	4.0
79.484	4.0
79.499	1.0
79.514	1.0
79.529	4.0
79.544	3.0
79.559	1.0
79.574	4.0
79.589	3.0
79.604	6.0
79.619	3.0
79.634	2.0
79.649	1.0
79.664	0.0
79.679	3.0
79.693	5.0
79.708	2.0
79.723	2.0
79.738	4.0
79.753	3.0
79.768	3.0
79.783	3.0
79.798	0.0
79.813	1.0
79.828	1.0
79.843	2.0
79.858	1.0
79.873	2.0
79.888	0.0
79.903	5.0
79.918	3.0
79.933	2.0
79.948	1.0
79.963	4.0
79.978	3.0
79.993	3.0
80.008	1.0
80.023	0.0
80.038	0.0
80.053	3.0
80.068	1.0
80.083	4.0
80.098	2.0
80.113	3.0
80.128	2.0
80.143	3.0
80.158	1.0
80.173	5.0
80.188	3.0
80.202	7.0
80.217	4.0
80.232	4.0
80.247	1.0
80.262	2.0
80.277	1.0
80.292	5.0
80.307	3.0
80.322	3.0
80.337	3.0
80.352	0.0
80.367	4.0
80.382	3.0
80.397	2.0
80.412	4.0
80.427	5.0
80.442	3.0
80.457	2.0
80.472	5.0
80.487	4.0
80.502	4.0
80.517	2.0
80.532	2.0
80.547	5.0
80.562	3.0
80.577	5.0
80.592	1.0
80.607	6.0
80.622	0.0
80.637	1.0
80.652	2.0
80.667	1.0
80.682	2.0
80.697	2.0
80.712	2.0
80.727	2.0
80.742	6.0
80.757	2.0
80.772	3.0
80.787	4.0
80.802	6.0
80.817	7.0
80.832	2.0
80.847	4.0
80.862	2.0
80.877	1.0
80.892	1.0
80.907	4.0
80.922	5.0
80.937	2.0
80.952	3.0
80.967	6.0
80.982	3.0
80.997	3.0
81.012	6.0
81.027	4.0
81.042	5.0
81.057	3.0
81.072	5.0
81.087	3.0
81.101	1.0
81.116	1.0
81.131	4.0
81.146	2.0
81.161	3.0
81.176	3.0
81.191	0.0
81.206	1.0
81.221	0.0
81.236	5.0
81.251	5.0
81.266	1.0
81.281	4.0
81.296	2.0
81.311	5.0
81.326	6.0
81.341	6.0
81.356	4.0
81.371	3.0
81.386	4.0
81.401	4.0
81.416	4.0
81.431	2.0
81.446	3.0
81.461	3.0
81.476	3.0
81.491	2.0
81.506	3.0
81.521	3.0
81.536	3.0
81.55	4.0
81.565	2.0
81.58	3.0
81.595	5.0
81.61	6.0
81.625	3.0
81.64	5.0
81.655	3.0
81.67	8.0
81.685	3.0
81.7	2.0
81.715	3.0
81.73	5.0
81.745	3.0
81.76	5.0
81.775	3.0
81.79	2.0
81.805	5.0
81.819	1.0
81.834	2.0
81.849	3.0
81.864	6.0
81.879	4.0
81.894	5.0
81.909	4.0
81.924	3.0
81.939	1.0
81.954	6.0
81.969	1.0
81.984	2.0
81.999	3.0
82.013	4.0
82.028	4.0
82.043	1.0
82.058	3.0
82.073	3.0
82.088	2.0
82.103	2.0
82.118	2.0
82.133	5.0
82.148	2.0
82.163	3.0
82.177	4.0
82.192	1.0
82.207	1.0
82.222	3.0
82.237	3.0
82.252	6.0
82.267	2.0
82.282	2.0
82.297	2.0
82.312	4.0
82.326	4.0
82.341	4.0
82.356	2.0
82.371	3.0
82.386	2.0
82.401	2.0
82.416	3.0
82.431	4.0
82.445	5.0
82.46	1.0
82.475	4.0
82.49	1.0
82.505	3.0
82.52	1.0
82.535	2.0
82.55	1.0
82.565	5.0
82.579	8.0
82.594	6.0
82.609	4.0
82.624	3.0
82.639	3.0
82.654	1.0
82.669	4.0
82.684	4.0
82.698	3.0
82.713	2.0
82.728	3.0
82.743	1.0
82.758	4.0
82.773	3.0
82.788	6.0
82.803	1.0
82.817	0.0
82.832	2.0
82.847	6.0
82.862	2.0
82.877	2.0
82.892	5.0
82.907	1.0
82.922	3.0
82.937	3.0
82.951	1.0
82.966	5.0
82.981	3.0
82.996	1.0
83.011	4.0
83.026	2.0
83.041	6.0
83.056	2.0
83.07	2.0
83.085	0.0
83.1	2.0
83.115	3.0
83.13	1.0
83.145	4.0
83.16	5.0
83.175	4.0
83.19	1.0
83.204	1.0
83.219	1.0
83.234	3.0
83.249	3.0
83.264	2.0
83.279	4.0
83.294	2.0
83.309	3.0
83.324	2.0
83.339	5.0
83.353	3.0
83.368	4.0
83.383	4.0
83.398	5.0
83.413	4.0
83.428	3.0
83.443	9.0
83.458	3.0
83.473	4.0
83.488	5.0
83.503	3.0
83.517	6.0
83.532	0.0
83.547	6.0
83.562	5.0
83.577	3.0
83.592	5.0
83.607	3.0
83.622	4.0
83.637	3.0
83.652	4.0
83.667	2.0
83.682	3.0
83.697	2.0
83.712	3.0
83.727	1.0
83.741	1.0
83.756	0.0
83.771	2.0
83.786	4.0
83.801	4.0
83.816	3.0
83.831	5.0
83.846	2.0
83.861	6.0
83.876	5.0
83.891	6.0
83.906	3.0
83.921	4.0
83.936	1.0
83.951	0.0
83.966	4.0
83.981	3.0
83.996	4.0
84.011	2.0
84.026	6.0
84.041	3.0
84.056	2.0
84.071	5.0
84.086	2.0
84.101	3.0
84.116	6.0
84.131	9.0
84.146	4.0
84.161	6.0
84.176	1.0
84.191	2.0
84.206	5.0
84.221	7.0
84.236	3.0
84.251	1.0
84.266	4.0
84.281	3.0
84.296	3.0
84.311	4.0
84.326	1.0
84.341	2.0
84.356	3.0
84.371	7.0
84.386	3.0
84.401	4.0
84.416	6.0
84.431	1.0
84.446	4.0
84.461	3.0
84.476	2.0
84.492	3.0
84.507	4.0
84.522	3.0
84.537	5.0
84.552	4.0
84.567	2.0
84.582	4.0
84.597	3.0
84.612	3.0
84.627	1.0
84.642	2.0
84.657	2.0
84.672	1.0
84.687	3.0
84.702	2.0
84.717	5.0
84.733	2.0
84.748	3.0
84.763	3.0
84.778	2.0
84.793	2.0
84.808	4.0
84.823	2.0
84.838	6.0
84.853	3.0
84.868	6.0
84.883	3.0
84.898	4.0
84.913	1.0
84.929	4.0
84.944	3.0
84.959	3.0
84.974	9.0
84.989	2.0
85.004	4.0
85.019	5.0
85.034	6.0
85.049	4.0
85.064	2.0
85.079	5.0
85.094	4.0
85.11	0.0
85.125	2.0
85.14	2.0
85.155	2.0
85.17	4.0
85.185	0.0
85.2	5.0
85.215	0.0
85.23	1.0
85.245	1.0
85.26	3.0
85.276	5.0
85.291	3.0
85.306	0.0
85.321	3.0
85.336	0.0
85.351	4.0
85.366	3.0
85.381	6.0
85.396	3.0
85.411	0.0
85.426	1.0
85.441	5.0
85.457	6.0
85.472	1.0
85.487	3.0
85.502	4.0
85.517	2.0
85.532	2.0
85.547	6.0
85.562	3.0
85.577	3.0
85.592	6.0
85.607	4.0
85.622	3.0
85.637	3.0
85.653	4.0
85.668	1.0
85.683	3.0
85.698	4.0
85.713	2.0
85.728	1.0
85.743	1.0
85.758	0.0
85.773	3.0
85.788	3.0
85.803	2.0
85.818	2.0
85.833	3.0
85.848	4.0
85.863	6.0
85.879	3.0
85.894	4.0
85.909	4.0
85.924	3.0
85.939	2.0
85.954	2.0
85.969	0.0
85.984	3.0
85.999	4.0
86.014	5.0
86.029	8.0
86.044	5.0
86.059	4.0
86.074	3.0
86.089	1.0
86.104	2.0
86.119	5.0
86.134	2.0
86.149	1.0
86.164	3.0
86.179	2.0
86.194	5.0
86.209	0.0
86.224	4.0
86.239	3.0
86.254	8.0
86.269	4.0
86.284	0.0
86.299	2.0
86.314	2.0
86.33	2.0
86.345	2.0
86.36	5.0
86.375	1.0
86.39	5.0
86.405	4.0
86.42	3.0
86.435	2.0
86.45	3.0
86.465	3.0
86.48	1.0
86.495	4.0
86.51	2.0
86.525	5.0
86.54	4.0
86.555	3.0
86.57	4.0
86.585	1.0
86.6	2.0
86.615	1.0
86.63	3.0
86.645	3.0
86.659	3.0
86.674	2.0
86.689	2.0
86.704	5.0
86.719	2.0
86.734	5.0
86.749	3.0
86.764	2.0
86.779	2.0
86.794	5.0
86.809	5.0
86.824	4.0
86.839	2.0
86.854	5.0
86.869	6.0
86.884	3.0
86.899	5.0
86.914	3.0
86.929	2.0
86.944	2.0
86.959	4.0
86.974	4.0
86.989	3.0
87.004	6.0
87.019	5.0
87.034	1.0
87.049	4.0
87.064	1.0
87.079	4.0
87.094	4.0
87.109	5.0
87.124	1.0
87.139	6.0
87.154	5.0
87.169	3.0
87.184	1.0
87.199	2.0
87.214	5.0
87.229	4.0
87.244	2.0
87.259	1.0
87.274	1.0
87.289	5.0
87.304	2.0
87.319	4.0
87.334	3.0
87.349	5.0
87.364	1.0
87.379	6.0
87.394	2.0
87.409	3.0
87.424	5.0
87.438	3.0
87.453	1.0
87.468	3.0
87.483	4.0
87.498	0.0
87.513	6.0
87.528	5.0
87.543	7.0
87.558	3.0
87.573	2.0
87.588	5.0
87.603	2.0
87.618	4.0
87.633	5.0
87.648	6.0
87.663	3.0
87.678	6.0
87.693	4.0
87.708	1.0
87.723	4.0
87.738	3.0
87.753	4.0
87.768	8.0
87.783	2.0
87.798	3.0
87.813	5.0
87.828	4.0
87.843	3.0
87.858	3.0
87.873	2.0
87.888	5.0
87.903	4.0
87.918	3.0
87.933	2.0
87.948	1.0
87.963	3.0
87.978	1.0
87.993	5.0
88.008	5.0
88.023	2.0
88.038	2.0
88.053	1.0
88.068	5.0
88.083	3.0
88.098	3.0
88.113	2.0
88.128	3.0
88.143	4.0
88.158	0.0
88.174	4.0
88.189	1.0
88.204	2.0
88.219	1.0
88.234	6.0
88.249	4.0
88.264	1.0
88.279	2.0
88.294	3.0
88.309	2.0
88.324	2.0
88.339	5.0
88.354	7.0
88.369	5.0
88.384	1.0
88.399	4.0
88.414	1.0
88.429	2.0
88.444	3.0
88.459	3.0
88.474	1.0
88.489	2.0
88.504	2.0
88.519	3.0
88.534	4.0
88.549	4.0
88.564	3.0
88.58	9.0
88.595	2.0
88.61	5.0
88.625	3.0
88.64	1.0
88.655	2.0
88.67	3.0
88.685	2.0
88.7	2.0
88.715	1.0
88.73	0.0
88.745	3.0
88.76	3.0
88.775	3.0
88.79	2.0
88.805	6.0
88.82	1.0
88.835	2.0
88.85	3.0
88.865	4.0
88.88	0.0
88.895	3.0
88.911	3.0
88.926	1.0
88.941	3.0
88.956	1.0
88.971	3.0
88.986	2.0
89.001	0.0
89.016	2.0
89.031	5.0
89.046	2.0
89.061	4.0
89.076	4.0
89.091	3.0
89.106	4.0
89.121	1.0
89.136	2.0
89.151	3.0
89.166	4.0
89.181	1.0
89.196	2.0
89.211	2.0
89.227	3.0
89.242	4.0
89.257	5.0
89.272	1.0
89.287	4.0
89.302	3.0
89.317	3.0
89.332	3.0
89.347	5.0
89.362	5.0
89.377	3.0
89.392	4.0
89.407	3.0
89.422	5.0
89.437	5.0
89.452	1.0
89.467	3.0
89.482	6.0
89.497	4.0
89.512	3.0
89.527	6.0
89.542	2.0
89.557	3.0
89.572	1.0
89.587	2.0
89.602	0.0
89.617	3.0
89.632	2.0
89.647	0.0
89.662	3.0
89.677	3.0
89.693	2.0
89.708	2.0
89.723	1.0
89.738	5.0
89.753	5.0
89.768	3.0
89.783	2.0
89.798	0.0
89.813	3.0
89.828	4.0
89.843	3.0
89.858	3.0
89.873	1.0
89.888	4.0
89.903	11.0
89.918	4.0
89.933	4.0
89.948	2.0
89.963	3.0
89.978	2.0
89.993	4.0
90.008	1.0
90.023	4.0
90.038	6.0
90.053	2.0
90.068	5.0
90.083	3.0
90.097	3.0
90.112	4.0
90.127	3.0
90.142	6.0
90.157	6.0
90.172	4.0
90.187	1.0
90.202	5.0
90.217	3.0
90.232	2.0
90.247	1.0
90.262	2.0
90.277	4.0
90.292	3.0
90.307	8.0
90.322	1.0
90.337	5.0
90.352	3.0
90.367	6.0
90.382	5.0
90.397	2.0
90.412	3.0
90.427	2.0
90.442	3.0
90.457	2.0
90.472	3.0
90.487	3.0
90.501	2.0
90.516	4.0
90.531	1.0
90.546	2.0
90.561	3.0
90.576	3.0
90.591	3.0
90.606	2.0
90.621	3.0
90.636	1.0
90.651	2.0
90.666	7.0
90.681	4.0
90.696	1.0
90.711	2.0
90.726	5.0
90.741	5.0
90.755	4.0
90.77	2.0
90.785	5.0
90.8	3.0
90.815	7.0
90.83	2.0
90.845	2.0
90.86	2.0
90.875	1.0
90.89	2.0
90.905	6.0
90.92	3.0
90.935	4.0
90.95	2.0
90.965	5.0
90.979	6.0
90.994	3.0
91.009	4.0
91.024	2.0
91.039	2.0
91.054	3.0
91.069	5.0
91.084	3.0
91.099	8.0
91.114	2.0
91.129	4.0
91.144	2.0
91.159	2.0
91.174	1.0
91.188	1.0
91.203	2.0
91.218	3.0
91.233	5.0
91.248	1.0
91.263	1.0
91.278	2.0
91.293	1.0
91.308	1.0
91.323	5.0
91.338	2.0
91.353	2.0
91.368	3.0
91.383	5.0
91.398	4.0
91.412	2.0
91.427	3.0
91.442	1.0
91.457	3.0
91.472	5.0
91.487	5.0
91.502	5.0
91.517	6.0
91.532	3.0
91.547	1.0
91.562	3.0
91.577	2.0
91.592	4.0
91.607	5.0
91.622	4.0
91.637	1.0
91.652	1.0
91.666	3.0
91.681	2.0
91.696	2.0
91.711	5.0
91.726	2.0
91.741	3.0
91.756	4.0
91.771	6.0
91.786	2.0
91.801	5.0
91.816	0.0
91.831	4.0
91.846	3.0
91.861	1.0
91.876	3.0
91.891	2.0
91.906	7.0
91.921	3.0
91.936	4.0
91.951	2.0
91.966	2.0
91.981	1.0
91.995	3.0
92.01	4.0
92.025	5.0
92.04	2.0
92.055	4.0
92.07	3.0
92.085	1.0
92.1	2.0
92.115	4.0
92.13	2.0
92.145	3.0
92.16	4.0
92.175	3.0
92.19	4.0
92.205	3.0
92.22	4.0
92.235	0.0
92.25	1.0
92.265	5.0
92.28	5.0
92.295	3.0
92.31	1.0
92.325	3.0
92.34	2.0
92.355	1.0
92.37	2.0
92.385	3.0
92.4	3.0
92.415	0.0
92.43	1.0
92.445	4.0
92.46	4.0
92.475	3.0
92.49	8.0
92.505	4.0
92.52	4.0
92.535	4.0
92.55	3.0
92.565	4.0
92.58	7.0
92.595	1.0
92.61	5.0
92.625	5.0
92.64	2.0
92.655	1.0
92.67	2.0
92.685	4.0
92.7	3.0
92.715	1.0
92.73	3.0
92.745	1.0
92.76	1.0
92.775	1.0
92.79	3.0
92.805	2.0
92.82	4.0
92.835	3.0
92.85	4.0
92.865	3.0
92.88	6.0
92.895	2.0
92.91	0.0
92.925	4.0
92.94	3.0
92.955	0.0
92.97	3.0
92.985	3.0
93.0	2.0
93.015	9.0
93.03	3.0
93.045	1.0
93.06	2.0
93.075	4.0
93.09	6.0
93.105	1.0
93.12	3.0
93.135	2.0
93.15	5.0
93.165	1.0
93.18	5.0
93.195	2.0
93.21	0.0
93.225	2.0
93.24	2.0
93.255	0.0
93.27	4.0
93.285	1.0
93.3	5.0
93.315	0.0
93.33	3.0
93.345	3.0
93.36	6.0
93.375	5.0
93.39	5.0
93.405	3.0
93.42	1.0
93.435	3.0
93.45	1.0
93.465	4.0
93.48	2.0
93.495	1.0
93.51	4.0
93.525	3.0
93.54	6.0
93.555	4.0
93.57	4.0
93.585	4.0
93.6	1.0
93.615	3.0
93.63	4.0
93.645	3.0
93.66	3.0
93.675	2.0
93.69	4.0
93.705	3.0
93.72	6.0
93.735	4.0
93.75	4.0
93.765	7.0
93.78	4.0
93.795	1.0
93.81	1.0
93.824	4.0
93.839	3.0
93.854	4.0
93.869	6.0
93.884	3.0
93.899	6.0
93.914	5.0
93.929	1.0
93.944	1.0
93.959	1.0
93.974	7.0
93.989	3.0
94.004	2.0
94.019	4.0
94.034	4.0
94.049	2.0
94.064	3.0
94.079	2.0
94.094	4.0
94.108	4.0
94.123	7.0
94.138	1.0
94.153	2.0
94.168	3.0
94.183	0.0
94.198	2.0
94.213	1.0
94.228	2.0
94.243	3.0
94.258	3.0
94.273	5.0
94.288	0.0
94.302	3.0
94.317	5.0
94.332	4.0
94.347	5.0
94.362	7.0
94.377	8.0
94.392	3.0
94.407	3.0
94.422	4.0
94.437	3.0
94.452	3.0
94.466	7.0
94.481	5.0
94.496	5.0
94.511	0.0
94.526	4.0
94.541	3.0
94.556	5.0
94.571	3.0
94.586	6.0
94.601	2.0
94.615	3.0
94.63	2.0
94.645	3.0
94.66	3.0
94.675	7.0
94.69	2.0
94.705	1.0
94.72	1.0
94.735	4.0
94.749	2.0
94.764	1.0
94.779	3.0
94.794	3.0
94.809	5.0
94.824	1.0
94.839	1.0
94.854	4.0
94.868	7.0
94.883	5.0
94.898	3.0
94.913	4.0
94.928	7.0
94.943	3.0
94.958	1.0
94.973	4.0
94.987	2.0
95.002	3.0
95.017	2.0
95.032	4.0
95.047	3.0
95.062	2.0
95.077	3.0
95.092	4.0
95.106	2.0
95.121	6.0
95.136	6.0
95.151	4.0
95.166	5.0
95.181	8.0
95.196	6.0
95.211	2.0
95.226	1.0
95.24	4.0
95.255	0.0
95.27	5.0
95.285	2.0
95.3	1.0
95.315	3.0
95.33	7.0
95.345	2.0
95.359	2.0
95.374	7.0
95.389	6.0
95.404	3.0
95.419	5.0
95.434	4.0
95.449	1.0
95.464	3.0
95.478	1.0
95.493	3.0
95.508	3.0
95.523	4.0
95.538	3.0
95.553	5.0
95.568	2.0
95.583	1.0
95.597	2.0
95.612	5.0
95.627	6.0
95.642	1.0
95.657	3.0
95.672	1.0
95.687	3.0
95.702	3.0
95.717	3.0
95.731	2.0
95.746	6.0
95.761	4.0
95.776	2.0
95.791	3.0
95.806	3.0
95.821	4.0
95.836	4.0
95.851	4.0
95.866	5.0
95.88	2.0
95.895	1.0
95.91	2.0
95.925	4.0
95.94	4.0
95.955	4.0
95.97	6.0
95.985	5.0
96.0	1.0
96.015	3.0
96.029	5.0
96.044	4.0
96.059	5.0
96.074	3.0
96.089	2.0
96.104	3.0
96.119	5.0
96.134	2.0
96.149	4.0
96.164	2.0
96.179	1.0
96.194	7.0
96.208	6.0
96.223	0.0
96.238	4.0
96.253	2.0
96.268	2.0
96.283	3.0
96.298	5.0
96.313	3.0
96.328	2.0
96.343	4.0
96.358	3.0
96.373	7.0
96.388	3.0
96.403	4.0
96.417	5.0
96.432	2.0
96.447	5.0
96.462	4.0
96.477	1.0
96.492	1.0
96.507	3.0
96.522	6.0
96.537	1.0
96.552	1.0
96.567	3.0
96.582	1.0
96.597	3.0
96.612	5.0
96.627	3.0
96.642	3.0
96.656	1.0
96.671	3.0
96.686	3.0
96.701	4.0
96.716	8.0
96.731	5.0
96.746	0.0
96.761	3.0
96.776	3.0
96.791	6.0
96.806	4.0
96.821	5.0
96.836	5.0
96.851	5.0
96.866	1.0
96.881	3.0
96.896	2.0
96.911	1.0
96.926	4.0
96.94	7.0
96.955	7.0
96.97	7.0
96.985	4.0
97.0	2.0
97.015	4.0
97.03	7.0
97.045	4.0
97.06	2.0
97.075	2.0
97.09	2.0
97.105	4.0
97.12	2.0
97.135	1.0
97.15	5.0
97.165	1.0
97.18	0.0
97.195	6.0
97.21	2.0
97.225	3.0
97.239	6.0
97.254	1.0
97.269	3.0
97.284	7.0
97.299	1.0
97.314	4.0
97.329	5.0
97.344	2.0
97.359	2.0
97.374	2.0
97.389	0.0
97.404	3.0
97.419	3.0
97.434	3.0
97.449	1.0
97.464	3.0
97.479	7.0
97.494	3.0
97.509	7.0
97.524	4.0
97.538	2.0
97.553	1.0
97.568	1.0
97.583	4.0
97.598	4.0
97.613	6.0
97.628	3.0
97.643	4.0
97.658	3.0
97.673	6.0
97.688	3.0
97.703	6.0
97.718	4.0
97.733	3.0
97.748	5.0
97.763	7.0
97.778	2.0
97.792	1.0
97.807	4.0
97.822	4.0
97.837	3.0
97.852	5.0
97.867	7.0
97.882	0.0
97.897	5.0
97.912	4.0
97.927	3.0
97.942	2.0
97.957	3.0
97.972	2.0
97.987	10.0
98.001	2.0
98.016	4.0
98.031	2.0
98.046	4.0
98.061	3.0
98.076	6.0
98.091	5.0
98.106	1.0
98.121	2.0
98.136	0.0
98.151	3.0
98.166	1.0
98.181	1.0
98.195	2.0
98.21	3.0
98.225	3.0
98.24	5.0
98.255	2.0
98.27	2.0
98.285	4.0
98.3	3.0
98.315	4.0
98.33	3.0
98.345	5.0
98.359	2.0
98.374	0.0
98.389	6.0
98.404	2.0
98.419	4.0
98.434	1.0
98.449	2.0
98.464	4.0
98.479	3.0
98.494	2.0
98.508	4.0
98.523	4.0
98.538	3.0
98.553	2.0
98.568	5.0
98.583	3.0
98.598	4.0
98.613	2.0
98.628	2.0
98.642	5.0
98.657	12.0
98.672	5.0
98.687	3.0
98.702	3.0
98.717	2.0
98.732	3.0
98.747	1.0
98.762	2.0
98.776	3.0
98.791	3.0
98.806	3.0
98.821	4.0
98.836	5.0
98.851	3.0
98.866	2.0
98.881	5.0
98.896	1.0
98.91	5.0
98.925	1.0
98.94	2.0
98.955	1.0
98.97	3.0
98.985	1.0
99.0	7.0
99.015	2.0
99.029	2.0
99.044	1.0
99.059	4.0
99.074	0.0
99.089	1.0
99.104	3.0
99.119	2.0
99.133	5.0
99.148	2.0
99.163	3.0
99.178	6.0
99.193	2.0
99.208	2.0
99.223	1.0
99.238	1.0
99.252	5.0
99.267	5.0
99.282	3.0
99.297	5.0
99.312	3.0
99.327	2.0
99.342	1.0
99.356	5.0
99.371	3.0
99.386	2.0
99.401	3.0
99.416	4.0
99.431	4.0
99.446	4.0
99.461	7.0
99.475	3.0
99.49	3.0
99.505	3.0
99.52	3.0
99.535	4.0
99.55	2.0
99.565	8.0
99.579	3.0
99.594	3.0
99.609	4.0
99.624	3.0
99.639	2.0
99.654	2.0
99.669	1.0
99.683	4.0
99.698	2.0
99.713	1.0
99.728	4.0
99.743	2.0
99.758	2.0
99.772	2.0
99.787	4.0
99.802	1.0
99.817	2.0
99.832	5.0
99.847	3.0
99.862	0.0
99.876	2.0
99.891	2.0
99.906	1.0
99.921	3.0
99.936	0.0
99.951	0.0
99.966	1.0
99.98	4.0
99.995	2.0
100.01	4.0
100.025	3.0
100.04	1.0
100.055	1.0
100.069	3.0
100.084	4.0
100.099	8.0
100.114	2.0
100.129	2.0
100.144	1.0
100.159	3.0
100.173	3.0
100.188	3.0
100.203	3.0
100.218	2.0
100.233	1.0
100.248	4.0
100.262	6.0
100.277	4.0
100.292	1.0
100.307	2.0
100.322	5.0
100.337	4.0
100.351	1.0
100.366	5.0
100.381	1.0
100.396	2.0
100.411	4.0
100.426	5.0
100.441	2.0
100.455	5.0
100.47	0.0
100.485	2.0
100.5	8.0
100.515	2.0
100.53	3.0
100.544	4.0
100.559	3.0
100.574	2.0
100.589	3.0
100.604	2.0
100.619	5.0
100.633	4.0
100.648	4.0
100.663	6.0
100.678	5.0
100.693	3.0
100.708	2.0
100.722	2.0
100.737	4.0
100.752	6.0
100.767	1.0
100.782	3.0
100.796	5.0
100.811	2.0
100.826	7.0
100.841	3.0
100.856	5.0
100.871	4.0
100.885	3.0
100.9	3.0
100.915	4.0
100.93	4.0
100.945	2.0
100.96	6.0
100.974	2.0
100.989	2.0
101.004	4.0
101.019	4.0
101.034	1.0
101.048	2.0
101.063	6.0
101.078	4.0
101.093	3.0
101.108	3.0
101.123	4.0
101.137	3.0
101.152	2.0
101.167	4.0
101.182	2.0
101.197	4.0
101.211	3.0
101.226	6.0
101.241	4.0
101.256	5.0
101.271	2.0
101.285	4.0
101.3	2.0
101.315	2.0
101.33	2.0
101.345	1.0
101.359	4.0
101.374	1.0
101.389	2.0
101.404	3.0
101.419	4.0
101.433	2.0
101.448	3.0
101.463	7.0
101.478	2.0
101.493	1.0
101.507	4.0
101.522	3.0
101.537	0.0
101.552	2.0
101.567	4.0
101.581	5.0
101.596	2.0
101.611	1.0
101.626	2.0
101.64	5.0
101.655	3.0
101.67	1.0
101.685	2.0
101.7	7.0
101.714	3.0
101.729	1.0
101.744	2.0
101.759	4.0
101.773	4.0
101.788	3.0
101.803	1.0
101.818	6.0
101.833	5.0
101.847	3.0
101.862	3.0
101.877	3.0
101.892	3.0
101.906	6.0
101.921	4.0
101.936	1.0
101.951	1.0
101.965	0.0
101.98	3.0
101.995	4.0
102.01	4.0
102.025	6.0
102.039	4.0
102.054	1.0
102.069	5.0
102.084	5.0
102.098	3.0
102.113	1.0
102.128	3.0
102.143	3.0
102.157	2.0
102.172	0.0
102.187	6.0
102.202	0.0
102.216	2.0
102.231	5.0
102.246	2.0
102.261	2.0
102.275	3.0
102.29	4.0
102.305	2.0
102.32	3.0
102.334	3.0
102.349	2.0
102.364	4.0
102.378	4.0
102.393	7.0
102.408	4.0
102.423	4.0
102.437	2.0
102.452	5.0
102.467	1.0
102.482	1.0
102.496	4.0
102.511	2.0
102.526	3.0
102.541	2.0
102.555	2.0
102.57	6.0
102.585	4.0
102.6	2.0
102.614	3.0
102.629	5.0
102.644	8.0
102.659	2.0
102.673	3.0
102.688	3.0
102.703	4.0
102.717	1.0
102.732	5.0
102.747	6.0
102.762	1.0
102.776	1.0
102.791	3.0
102.806	5.0
102.821	3.0
102.835	4.0
102.85	5.0
102.865	2.0
102.88	3.0
102.894	10.0
102.909	5.0
102.924	4.0
102.938	5.0
102.953	4.0
102.968	4.0
102.983	3.0
102.997	2.0
103.012	4.0
103.027	3.0
103.042	3.0
103.056	0.0
103.071	4.0
103.086	2.0
103.101	2.0
103.115	6.0
103.13	3.0
103.145	5.0
103.16	1.0
103.174	1.0
103.189	5.0
103.204	3.0
103.219	1.0
103.233	4.0
103.248	5.0
103.263	1.0
103.278	2.0
103.292	3.0
103.307	4.0
103.322	1.0
103.337	3.0
103.351	2.0
103.366	3.0
103.381	2.0
103.396	6.0
103.41	2.0
103.425	2.0
103.44	4.0
103.455	4.0
103.469	7.0
103.484	2.0
103.499	1.0
103.514	4.0
103.529	4.0
103.543	3.0
103.558	4.0
103.573	1.0
103.588	2.0
103.602	2.0
103.617	0.0
103.632	2.0
103.647	2.0
103.661	6.0
103.676	1.0
103.691	5.0
103.706	1.0
103.721	6.0
103.735	3.0
103.75	3.0
103.765	4.0
103.78	1.0
103.795	3.0
103.809	3.0
103.824	3.0
103.839	3.0
103.854	3.0
103.869	2.0
103.883	3.0
103.898	1.0
103.913	7.0
103.928	1.0
103.943	1.0
103.957	4.0
103.972	5.0
103.987	3.0
104.002	0.0
104.017	4.0
104.031	4.0
104.046	5.0
104.061	4.0
104.076	4.0
104.091	4.0
104.106	8.0
104.12	3.0
104.135	3.0
104.15	4.0
104.165	2.0
104.18	1.0
104.195	3.0
104.209	3.0
104.224	6.0
104.239	1.0
104.254	1.0
104.269	2.0
104.284	5.0
104.299	2.0
104.313	3.0
104.328	4.0
104.343	4.0
104.358	6.0
104.373	5.0
104.388	4.0
104.403	2.0
104.417	1.0
104.432	3.0
104.447	0.0
104.462	5.0
104.477	1.0
104.492	6.0
104.507	6.0
104.522	3.0
104.536	4.0
104.551	3.0
104.566	5.0
104.581	6.0
104.596	8.0
104.611	6.0
104.626	9.0
104.641	4.0
104.656	4.0
104.67	5.0
104.685	0.0
104.7	6.0
104.715	1.0
104.73	5.0
104.745	2.0
104.76	1.0
104.775	2.0
104.79	1.0
104.804	7.0
104.819	2.0
104.834	2.0
104.849	5.0
104.864	4.0
104.879	1.0
104.894	1.0
104.909	3.0
104.924	3.0
104.939	7.0
104.954	4.0
104.968	1.0
104.983	2.0
104.998	5.0
105.013	4.0
105.028	5.0
105.043	5.0
105.058	6.0
105.073	3.0
105.088	2.0
105.103	3.0
105.118	3.0
105.133	2.0
105.147	1.0
105.162	1.0
105.177	1.0
105.192	6.0
105.207	2.0
105.222	1.0
105.237	2.0
105.252	1.0
105.267	3.0
105.282	0.0
105.297	1.0
105.312	2.0
105.327	0.0
105.342	3.0
105.356	6.0
105.371	6.0
105.386	5.0
105.401	2.0
105.416	7.0
105.431	0.0
105.446	5.0
105.461	1.0
105.476	6.0
105.491	5.0
105.506	3.0
105.521	3.0
105.536	6.0
105.551	1.0
105.566	3.0
105.581	1.0
105.595	6.0
105.61	5.0
105.625	2.0
105.64	4.0
105.655	2.0
105.67	6.0
105.685	2.0
105.7	6.0
105.715	3.0
105.73	2.0
105.745	2.0
105.76	0.0
105.775	3.0
105.79	3.0
105.805	4.0
105.82	2.0
105.835	2.0
105.85	4.0
105.864	6.0
105.879	1.0
105.894	3.0
105.909	6.0
105.924	1.0
105.939	2.0
105.954	1.0
105.969	5.0
105.984	5.0
105.999	2.0
106.014	4.0
106.029	2.0
106.044	2.0
106.059	3.0
106.074	2.0
106.089	4.0
106.104	4.0
106.119	1.0
106.134	4.0
106.148	3.0
106.163	2.0
106.178	4.0
106.193	3.0
106.208	4.0
106.223	3.0
106.238	4.0
106.253	2.0
106.268	2.0
106.283	3.0
106.298	1.0
106.313	3.0
106.328	3.0
106.343	5.0
106.358	9.0
106.373	2.0
106.388	5.0
106.403	0.0
106.418	8.0
106.432	2.0
106.447	1.0
106.462	2.0
106.477	4.0
106.492	3.0
106.507	5.0
106.522	2.0
106.537	1.0
106.552	5.0
106.567	2.0
106.582	5.0
106.597	5.0
106.612	5.0
106.627	5.0
106.642	3.0
106.657	6.0
106.672	2.0
106.687	3.0
106.701	1.0
106.716	3.0
106.731	5.0
106.746	4.0
106.761	0.0
106.776	2.0
106.791	5.0
106.806	2.0
106.821	4.0
106.836	4.0
106.851	3.0
106.866	3.0
106.881	6.0
106.896	3.0
106.911	3.0
106.926	3.0
106.941	4.0
106.955	2.0
106.97	4.0
106.985	5.0
107.0	2.0
107.015	2.0
107.03	2.0
107.045	1.0
107.06	2.0
107.075	0.0
107.09	1.0
107.105	1.0
107.12	3.0
107.135	6.0
107.15	2.0
107.165	4.0
107.18	5.0
107.194	6.0
107.209	6.0
107.224	4.0
107.239	4.0
107.254	5.0
107.269	6.0
107.284	5.0
107.299	3.0
107.314	1.0
107.329	6.0
107.344	3.0
107.359	1.0
107.374	3.0
107.389	3.0
107.404	5.0
107.418	2.0
107.433	2.0
107.448	1.0
107.463	5.0
107.478	3.0
107.493	2.0
107.508	3.0
107.523	4.0
107.538	5.0
107.553	3.0
107.568	2.0
107.583	1.0
107.598	5.0
107.613	2.0
107.627	4.0
107.642	4.0
107.657	4.0
107.672	4.0
107.687	1.0
107.702	5.0
107.717	2.0
107.732	5.0
107.747	1.0
107.762	4.0
107.777	3.0
107.792	0.0
107.807	4.0
107.821	2.0
107.836	3.0
107.851	2.0
107.866	1.0
107.881	2.0
107.896	4.0
107.911	4.0
107.926	3.0
107.941	7.0
107.956	4.0
107.971	4.0
107.986	3.0
108.0	2.0
108.015	7.0
108.03	5.0
108.045	4.0
108.06	4.0
108.075	8.0
108.09	4.0
108.105	6.0
108.12	4.0
108.135	4.0
108.15	4.0
108.164	2.0
108.179	4.0
108.194	4.0
108.209	4.0
108.224	6.0
108.239	2.0
108.254	3.0
108.269	2.0
108.284	2.0
108.299	3.0
108.313	5.0
108.328	3.0
108.343	3.0
108.358	3.0
108.373	2.0
108.388	2.0
108.403	4.0
108.418	5.0
108.433	4.0
108.448	4.0
108.462	4.0
108.477	1.0
108.492	2.0
108.507	4.0
108.522	4.0
108.537	1.0
108.552	4.0
108.567	1.0
108.582	2.0
108.597	4.0
108.611	4.0
108.626	1.0
108.641	5.0
108.656	1.0
108.671	2.0
108.686	3.0
108.701	4.0
108.716	1.0
108.731	1.0
108.745	3.0
108.76	5.0
108.775	4.0
108.79	3.0
108.805	5.0
108.82	6.0
108.835	1.0
108.85	2.0
108.865	4.0
108.879	5.0
108.894	2.0
108.909	1.0
108.924	3.0
108.939	5.0
108.954	6.0
108.969	2.0
108.984	5.0
108.999	3.0
109.013	0.0
109.028	1.0
109.043	2.0
109.058	2.0
109.073	5.0
109.088	4.0
109.103	1.0
109.118	4.0
109.133	3.0
109.147	2.0
109.162	2.0
109.177	4.0
109.192	2.0
109.207	2.0
109.222	1.0
109.237	1.0
109.252	6.0
109.267	4.0
109.281	3.0
109.296	4.0
109.311	0.0
109.326	1.0
109.341	2.0
109.356	1.0
109.371	2.0
109.386	1.0
109.4	2.0
109.415	2.0
109.43	3.0
109.445	1.0
109.46	2.0
109.475	4.0
109.49	3.0
109.505	2.0
109.52	5.0
109.534	1.0
109.549	3.0
109.564	2.0
109.579	4.0
109.594	1.0
109.609	1.0
109.624	1.0
109.639	4.0
109.653	0.0
109.668	3.0
109.683	4.0
109.698	4.0
109.713	3.0
109.728	4.0
109.743	1.0
109.758	4.0
109.773	0.0
109.787	7.0
109.802	3.0
109.817	5.0
109.832	5.0
109.847	1.0
109.862	2.0
109.877	1.0
109.892	6.0
109.907	1.0
109.921	3.0
109.936	2.0
109.951	6.0
109.966	5.0
109.981	1.0
109.996	3.0
110.011	1.0
110.026	4.0
110.04	1.0
110.055	6.0
110.07	6.0
110.085	4.0
110.1	1.0
110.115	4.0
110.13	5.0
110.145	3.0
110.16	2.0
110.174	3.0
110.189	1.0
110.204	2.0
110.219	2.0
110.234	1.0
110.249	1.0
110.264	3.0
110.279	1.0
110.294	3.0
110.308	1.0
110.323	0.0
110.338	6.0
110.353	6.0
110.368	4.0
110.383	0.0
110.398	3.0
110.413	7.0
110.428	2.0
110.442	3.0
110.457	6.0
110.472	2.0
110.487	1.0
110.502	5.0
110.517	3.0
110.532	2.0
110.547	2.0
110.561	6.0
110.576	4.0
110.591	4.0
110.606	3.0
110.621	7.0
110.636	4.0
110.651	2.0
110.666	3.0
110.681	4.0
110.695	3.0
110.71	2.0
110.725	8.0
110.74	5.0
110.755	3.0
110.77	1.0
110.785	5.0
110.8	4.0
110.815	1.0
110.829	4.0
110.844	4.0
110.859	9.0
110.874	4.0
110.889	6.0
110.904	4.0
110.919	0.0
110.934	5.0
110.948	3.0
110.963	3.0
110.978	4.0
110.993	1.0
111.008	1.0
111.023	4.0
111.038	1.0
111.053	2.0
111.067	3.0
111.082	3.0
111.097	1.0
111.112	2.0
111.127	2.0
111.142	3.0
111.157	1.0
111.172	3.0
111.186	2.0
111.201	3.0
111.216	1.0
111.231	2.0
111.246	5.0
111.261	6.0
111.276	7.0
111.291	4.0
111.305	0.0
111.32	2.0
111.335	2.0
111.35	4.0
111.365	0.0
111.38	3.0
111.395	1.0
111.41	8.0
111.424	0.0
111.439	1.0
111.454	1.0
111.469	3.0
111.484	4.0
111.499	3.0
111.514	2.0
111.528	0.0
111.543	2.0
111.558	6.0
111.573	3.0
111.588	1.0
111.603	1.0
111.618	3.0
111.633	3.0
111.647	4.0
111.662	3.0
111.677	6.0
111.692	3.0
111.707	6.0
111.722	2.0
111.737	4.0
111.751	2.0
111.766	2.0
111.781	2.0
111.796	2.0
111.811	5.0
111.826	7.0
111.84	4.0
111.855	4.0
111.87	3.0
111.885	1.0
111.9	1.0
111.915	4.0
111.93	3.0
111.944	7.0
111.959	2.0
111.974	5.0
111.989	6.0
112.004	2.0
112.019	3.0
112.033	6.0
112.048	2.0
112.063	3.0
112.078	2.0
112.093	2.0
112.108	3.0
112.123	2.0
112.137	2.0
112.152	6.0
112.167	5.0
112.182	3.0
112.197	5.0
112.212	1.0
112.226	3.0
112.241	0.0
112.256	4.0
112.271	1.0
112.286	3.0
112.301	1.0
112.315	0.0
112.33	5.0
112.345	4.0
112.36	4.0
112.375	5.0
112.389	4.0
112.404	1.0
112.419	1.0
112.434	5.0
112.449	1.0
112.464	0.0
112.478	1.0
112.493	2.0
112.508	4.0
112.523	2.0
112.538	4.0
112.553	3.0
112.567	1.0
112.582	3.0
112.597	2.0
112.612	5.0
112.627	7.0
112.642	1.0
112.656	2.0
112.671	7.0
112.686	2.0
112.701	2.0
112.716	4.0
112.73	2.0
112.745	0.0
112.76	7.0
112.775	3.0
112.79	4.0
112.805	4.0
112.819	6.0
112.834	4.0
112.849	5.0
112.864	3.0
112.879	2.0
112.894	5.0
112.908	4.0
112.923	3.0
112.938	5.0
112.953	1.0
112.968	4.0
112.983	4.0
112.997	4.0
113.012	3.0
113.027	4.0
113.042	5.0
113.057	6.0
113.072	0.0
113.086	4.0
113.101	5.0
113.116	0.0
113.131	4.0
113.146	4.0
113.161	1.0
113.175	6.0
113.19	5.0
113.205	2.0
113.22	3.0
113.235	3.0
113.25	7.0
113.265	3.0
113.279	6.0
113.294	4.0
113.309	2.0
113.324	1.0
113.339	3.0
113.354	6.0
113.368	6.0
113.383	5.0
113.398	7.0
113.413	1.0
113.428	0.0
113.443	1.0
113.458	1.0
113.472	2.0
113.487	3.0
113.502	1.0
113.517	2.0
113.532	4.0
113.547	4.0
113.562	0.0
113.576	3.0
113.591	4.0
113.606	4.0
113.621	3.0
113.636	2.0
113.651	3.0
113.666	4.0
113.681	3.0
113.695	2.0
113.71	4.0
113.725	3.0
113.74	2.0
113.755	3.0
113.77	4.0
113.785	1.0
113.8	4.0
113.814	3.0
113.829	2.0
113.844	2.0
113.859	5.0
113.874	4.0
113.889	1.0
113.904	0.0
113.919	4.0
113.934	4.0
113.949	2.0
113.963	2.0
113.978	5.0
113.993	4.0
114.008	4.0
114.023	5.0
114.038	5.0
114.053	1.0
114.068	0.0
114.083	2.0
114.098	0.0
114.113	2.0
114.127	2.0
114.142	5.0
114.157	0.0
114.172	4.0
114.187	1.0
114.202	4.0
114.217	2.0
114.232	2.0
114.247	2.0
114.262	4.0
114.277	1.0
114.292	4.0
114.307	3.0
114.322	7.0
114.337	5.0
114.351	5.0
114.366	2.0
114.381	2.0
114.396	2.0
114.411	2.0
114.426	2.0
114.441	3.0
114.456	3.0
114.471	2.0
114.486	3.0
114.501	1.0
114.516	5.0
114.531	3.0
114.546	6.0
114.561	5.0
114.576	2.0
114.591	6.0
114.606	4.0
114.621	3.0
114.636	3.0
114.65	7.0
114.665	6.0
114.68	7.0
114.695	2.0
114.71	4.0
114.725	5.0
114.74	5.0
114.755	4.0
114.77	3.0
114.785	4.0
114.8	4.0
114.815	2.0
114.83	3.0
114.845	4.0
114.86	8.0
114.875	3.0
114.89	1.0
114.905	2.0
114.92	6.0
114.935	0.0
114.95	6.0
114.965	2.0
114.98	4.0
114.995	4.0
115.009	4.0
115.024	4.0
115.039	0.0
115.054	1.0
115.069	5.0
115.084	0.0
115.099	2.0
115.114	1.0
115.129	5.0
115.144	3.0
115.159	2.0
115.174	3.0
115.189	3.0
115.204	7.0
115.219	4.0
115.234	2.0
115.249	2.0
115.264	5.0
115.279	0.0
115.294	3.0
115.309	7.0
115.323	6.0
115.338	4.0
115.353	5.0
115.368	3.0
115.383	3.0
115.398	2.0
115.413	2.0
115.428	8.0
115.443	6.0
115.458	2.0
115.473	4.0
115.488	0.0
115.503	3.0
115.518	5.0
115.533	5.0
115.548	3.0
115.562	6.0
115.577	2.0
115.592	5.0
115.607	4.0
115.622	1.0
115.637	4.0
115.652	3.0
115.667	4.0
115.682	2.0
115.697	6.0
115.712	0.0
115.727	5.0
115.741	4.0
115.756	4.0
115.771	3.0
115.786	1.0
115.801	1.0
115.816	2.0
115.831	2.0
115.846	2.0
115.861	6.0
115.875	3.0
115.89	3.0
115.905	2.0
115.92	0.0
115.935	4.0
115.95	5.0
115.965	1.0
115.98	3.0
115.995	7.0
116.009	5.0
116.024	4.0
116.039	2.0
116.054	2.0
116.069	5.0
116.084	6.0
116.099	3.0
116.113	2.0
116.128	5.0
116.143	2.0
116.158	5.0
116.173	3.0
116.188	4.0
116.202	6.0
116.217	7.0
116.232	2.0
116.247	2.0
116.262	2.0
116.277	5.0
116.291	7.0
116.306	7.0
116.321	3.0
116.336	2.0
116.351	2.0
116.366	4.0
116.38	2.0
116.395	7.0
116.41	4.0
116.425	2.0
116.44	4.0
116.454	2.0
116.469	4.0
116.484	3.0
116.499	3.0
116.514	0.0
116.528	5.0
116.543	5.0
116.558	3.0
116.573	2.0
116.588	1.0
116.602	1.0
116.617	5.0
116.632	7.0
116.647	5.0
116.662	5.0
116.676	4.0
116.691	1.0
116.706	6.0
116.721	4.0
116.735	4.0
116.75	3.0
116.765	4.0
116.78	4.0
116.795	2.0
116.809	1.0
116.824	0.0
116.839	3.0
116.854	5.0
116.868	4.0
116.883	2.0
116.898	6.0
116.913	6.0
116.927	4.0
116.942	4.0
116.957	3.0
116.972	2.0
116.986	1.0
117.001	0.0
117.016	1.0
117.031	5.0
117.045	3.0
117.06	4.0
117.075	1.0
117.09	5.0
117.104	5.0
117.119	3.0
117.134	7.0
117.149	1.0
117.163	2.0
117.178	2.0
117.193	2.0
117.208	2.0
117.222	4.0
117.237	4.0
117.252	4.0
117.267	0.0
117.281	0.0
117.296	2.0
117.311	6.0
117.325	3.0
117.34	2.0
117.355	3.0
117.37	7.0
117.384	4.0
117.399	3.0
117.414	4.0
117.429	4.0
117.443	3.0
117.458	4.0
117.473	3.0
117.487	1.0
117.502	5.0
117.517	0.0
117.532	2.0
117.546	6.0
117.561	5.0
117.576	2.0
117.59	4.0
117.605	4.0
117.62	6.0
117.635	4.0
117.649	0.0
117.664	2.0
117.679	3.0
117.693	2.0
117.708	4.0
117.723	4.0
117.738	4.0
117.752	1.0
117.767	3.0
117.782	2.0
117.796	9.0
117.811	6.0
117.826	6.0
117.841	5.0
117.855	3.0
117.87	2.0
117.885	8.0
117.899	2.0
117.914	4.0
117.929	2.0
117.944	1.0
117.958	3.0
117.973	6.0
117.988	4.0
118.002	2.0
118.017	2.0
118.032	9.0
118.047	4.0
118.062	4.0
118.077	4.0
118.092	4.0
118.107	5.0
118.121	7.0
118.136	3.0
118.151	3.0
118.166	4.0
118.181	6.0
118.196	2.0
118.211	5.0
118.225	4.0
118.24	4.0
118.255	4.0
118.27	3.0
118.285	7.0
118.3	4.0
118.315	6.0
118.33	7.0
118.344	5.0
118.359	6.0
118.374	3.0
118.389	2.0
118.404	3.0
118.419	3.0
118.434	4.0
118.449	4.0
118.463	5.0
118.478	2.0
118.493	5.0
118.508	3.0
118.523	1.0
118.538	2.0
118.553	1.0
118.567	4.0
118.582	4.0
118.597	5.0
118.612	0.0
118.627	3.0
118.642	3.0
118.657	2.0
118.672	4.0
118.686	1.0
118.701	3.0
118.716	8.0
118.731	3.0
118.746	2.0
118.761	5.0
118.776	3.0
118.791	1.0
118.805	1.0
118.82	2.0
118.835	6.0
118.85	3.0
118.865	4.0
118.88	3.0
118.895	5.0
118.909	3.0
118.924	2.0
118.939	4.0
118.954	1.0
118.969	3.0
118.984	4.0
118.999	3.0
119.014	3.0
119.028	6.0
119.043	4.0
119.058	4.0
119.073	7.0
119.088	7.0
119.103	6.0
119.118	5.0
119.133	4.0
119.147	5.0
119.162	2.0
119.177	4.0
119.192	2.0
119.207	5.0
119.222	4.0
119.237	1.0
119.251	1.0
119.266	5.0
119.281	6.0
119.296	9.0
119.311	3.0
119.326	5.0
119.341	4.0
119.356	4.0
119.37	5.0
119.385	9.0
119.4	5.0
119.415	3.0
119.43	8.0
119.445	2.0
119.46	3.0
119.475	8.0
119.489	3.0
119.504	1.0
119.519	1.0
119.534	0.0
119.549	3.0
119.564	2.0
119.579	1.0
119.593	5.0
119.608	6.0
119.623	2.0
119.638	5.0
119.653	3.0
119.668	1.0
119.683	2.0
119.698	4.0
119.712	1.0
119.727	2.0
119.742	2.0
119.757	4.0
119.772	1.0
119.787	2.0
119.802	1.0
119.817	2.0
119.831	3.0
119.846	4.0
119.861	1.0
119.876	2.0
119.891	2.0
119.906	2.0
119.921	4.0
119.935	5.0
119.95	3.0
119.965	5.0
119.98	2.0
119.995	2.0
120.01	1.0
120.025	4.0
120.04	5.0
120.054	3.0
120.069	2.0
120.084	2.0
120.099	3.0
120.114	2.0
120.129	0.0
120.144	1.0
120.159	1.0
120.173	0.0
120.188	1.0
120.203	2.0
120.218	2.0
120.233	1.0
120.248	1.0
120.263	1.0
120.277	0.0
120.292	0.0
120.307	1.0
120.322	1.0
120.337	0.0
120.352	1.0
120.367	0.0
120.382	0.0
120.396	1.0
120.411	0.0
120.426	1.0
120.441	0.0
120.456	0.0
120.471	0.0
120.486	1.0
120.501	0.0
120.515	0.0
120.53	0.0
120.545	0.0
120.56	0.0
120.575	1.0
120.59	0.0
120.605	0.0
120.619	0.0
120.634	0.0
120.649	0.0
120.664	0.0
120.679	0.0
120.694	1.0
120.709	0.0
120.724	0.0
120.738	0.0
120.753	0.0
120.768	0.0
120.783	0.0
120.798	1.0
120.813	0.0
120.828	0.0
120.843	0.0
120.857	0.0
120.872	0.0
120.887	0.0
120.902	0.0
120.917	0.0
120.932	0.0
120.947	0.0
120.961	0.0
120.976	0.0
