-1.217	0.0
-1.202	0.0
-1.187	0.0
-1.172	0.0
-1.157	0.0
-1.142	0.0
-1.128	0.0
-1.113	0.0
-1.098	0.0
-1.083	0.0
-1.068	0.0
-1.054	0.0
-1.039	0.0
-1.024	0.0
-1.009	0.0
-0.994	0.0
-0.979	0.0
-0.965	0.0
-0.95	0.0
-0.935	0.0
-0.92	0.0
-0.905	0.0
-0.891	0.0
-0.876	0.0
-0.861	0.0
-0.846	0.0
-0.831	0.0
-0.816	0.0
-0.802	0.0
-0.787	0.0
-0.772	0.0
-0.757	0.0
-0.742	0.0
-0.728	0.0
-0.713	0.0
-0.698	0.0
-0.683	0.0
-0.668	0.0
-0.653	0.0
-0.639	0.0
-0.624	0.0
-0.609	0.0
-0.594	0.0
-0.579	0.0
-0.565	0.0
-0.55	0.0
-0.535	0.0
-0.52	0.0
-0.505	0.0
-0.49	0.0
-0.476	0.0
-0.461	0.0
-0.446	0.0
-0.431	0.0
-0.416	0.0
-0.401	0.0
-0.387	0.0
-0.372	0.0
-0.357	0.0
-0.342	0.0
-0.327	0.0
-0.313	0.0
-0.298	0.0
-0.283	0.0
-0.268	0.0
-0.253	0.0
-0.238	0.0
-0.224	0.0
-0.209	0.0
-0.194	0.0
-0.179	0.0
-0.164	0.0
-0.15	0.0
-0.135	0.0
-0.12	0.0
-0.105	0.0
-0.09	0.0
-0.075	0.0
-0.061	0.0
-0.046	0.0
-0.031	0.0
-0.016	0.0
-0.001	0.0
0.013	0.0
0.028	0.0
0.043	0.0
0.058	0.0
0.073	0.0
0.088	0.0
0.102	0.0
0.117	0.0
0.132	0.0
0.147	0.0
0.162	0.0
0.176	0.0
0.191	0.0
0.206	0.0
0.221	0.0
0.236	0.0
0.251	0.0
0.265	0.0
0.28	0.0
0.295	0.0
0.31	0.0
0.325	0.0
0.339	0.0
0.354	0.0
0.369	0.0
0.384	0.0
0.399	0.0
0.414	0.0
0.428	0.0
0.443	0.0
0.458	0.0
0.473	0.0
0.488	0.0
0.502	0.0
0.517	0.0
0.532	0.0
0.547	1.0
0.562	0.0
0.577	0.0
0.591	0.0
0.606	0.0
0.621	0.0
0.636	0.0
0.651	0.0
0.665	0.0
0.68	0.0
0.695	0.0
0.71	0.0
0.725	0.0
0.74	0.0
0.754	0.0
0.769	0.0
0.784	0.0
0.799	0.0
0.814	0.0
0.828	0.0
0.843	0.0
0.858	0.0
0.873	0.0
0.888	0.0
0.903	0.0
0.917	0.0
0.932	0.0
0.947	0.0
0.962	0.0
0.977	0.0
0.991	0.0
1.006	0.0
1.021	0.0
1.036	0.0
1.051	0.0
1.065	0.0
1.08	0.0
1.095	0.0
1.11	0.0
1.125	0.0
1.14	0.0
1.154	0.0
1.169	0.0
1.184	0.0
1.199	1.0
1.214	0.0
1.228	0.0
1.243	0.0
1.258	0.0
1.273	0.0
1.288	0.0
1.302	0.0
1.317	0.0
1.332	0.0
1.347	0.0
1.362	0.0
1.376	0.0
1.391	0.0
1.406	0.0
1.421	0.0
1.436	0.0
1.45	0.0
1.465	0.0
1.48	0.0
1.495	1.0
1.51	0.0
1.524	0.0
1.539	0.0
1.554	0.0
1.569	0.0
1.584	0.0
1.598	0.0
1.613	0.0
1.628	0.0
1.643	0.0
1.658	0.0
1.672	0.0
1.687	1.0
1.702	0.0
1.717	1.0
1.732	0.0
1.746	0.0
1.761	0.0
1.776	0.0
1.791	0.0
1.806	0.0
1.82	0.0
1.835	1.0
1.85	0.0
1.865	0.0
1.88	0.0
1.894	0.0
1.909	0.0
1.924	0.0
1.939	1.0
1.954	0.0
1.968	0.0
1.983	0.0
1.998	0.0
2.013	0.0
2.028	0.0
2.042	0.0
2.057	0.0
2.072	0.0
2.087	2.0
2.101	1.0
2.116	1.0
2.131	1.0
2.146	1.0
2.161	0.0
2.175	0.0
2.19	0.0
2.205	1.0
2.22	1.0
2.235	0.0
2.249	1.0
2.264	0.0
2.279	0.0
2.294	1.0
2.308	0.0
2.323	1.0
2.338	1.0
2.353	4.0
2.368	1.0
2.382	1.0
2.397	0.0
2.412	3.0
2.427	3.0
2.442	3.0
2.456	1.0
2.471	1.0
2.486	3.0
2.501	0.0
2.515	0.0
2.53	4.0
2.545	0.0
2.56	4.0
2.575	2.0
2.589	1.0
2.604	1.0
2.619	1.0
2.634	1.0
2.649	3.0
2.663	2.0
2.678	3.0
2.693	2.0
2.708	2.0
2.722	4.0
2.737	2.0
2.752	3.0
2.767	6.0
2.782	4.0
2.796	5.0
2.811	6.0
2.826	7.0
2.841	0.0
2.856	4.0
2.87	3.0
2.885	6.0
2.9	2.0
2.915	1.0
2.93	6.0
2.944	3.0
2.959	5.0
2.974	6.0
2.989	5.0
3.004	4.0
3.018	2.0
3.033	2.0
3.048	5.0
3.063	2.0
3.078	6.0
3.092	1.0
3.107	2.0
3.122	4.0
3.137	5.0
3.152	4.0
3.166	3.0
3.181	3.0
3.196	6.0
3.211	4.0
3.226	2.0
3.24	5.0
3.255	6.0
3.27	6.0
3.285	11.0
3.3	6.0
3.315	2.0
3.329	3.0
3.344	1.0
3.359	2.0
3.374	0.0
3.389	2.0
3.403	0.0
3.418	7.0
3.433	2.0
3.448	2.0
3.463	7.0
3.478	2.0
3.492	5.0
3.507	4.0
3.522	4.0
3.537	3.0
3.552	9.0
3.567	6.0
3.581	4.0
3.596	6.0
3.611	4.0
3.626	5.0
3.641	5.0
3.656	4.0
3.671	11.0
3.685	6.0
3.7	9.0
3.715	6.0
3.73	6.0
3.745	8.0
3.76	6.0
3.775	8.0
3.789	11.0
3.804	4.0
3.819	5.0
3.834	7.0
3.849	7.0
3.864	11.0
3.879	6.0
3.894	6.0
3.908	6.0
3.923	2.0
3.938	9.0
3.953	12.0
3.968	8.0
3.983	11.0
3.998	5.0
4.013	5.0
4.027	7.0
4.042	11.0
4.057	5.0
4.072	7.0
4.087	4.0
4.102	4.0
4.117	9.0
4.132	12.0
4.147	1.0
4.162	7.0
4.176	7.0
4.191	10.0
4.206	2.0
4.221	6.0
4.236	3.0
4.251	3.0
4.266	5.0
4.281	4.0
4.296	8.0
4.311	9.0
4.326	7.0
4.341	6.0
4.356	12.0
4.37	3.0
4.385	7.0
4.4	3.0
4.415	8.0
4.43	5.0
4.445	3.0
4.46	5.0
4.475	7.0
4.49	7.0
4.505	12.0
4.52	4.0
4.535	3.0
4.55	9.0
4.565	4.0
4.58	8.0
4.595	6.0
4.61	10.0
4.625	9.0
4.639	6.0
4.654	11.0
4.669	7.0
4.684	5.0
4.699	7.0
4.714	9.0
4.729	2.0
4.744	3.0
4.759	9.0
4.774	6.0
4.789	13.0
4.804	8.0
4.819	8.0
4.834	9.0
4.849	10.0
4.864	7.0
4.879	6.0
4.894	4.0
4.909	7.0
4.924	14.0
4.939	5.0
4.954	6.0
4.969	5.0
4.984	5.0
4.999	11.0
5.014	3.0
5.029	11.0
5.044	9.0
5.059	6.0
5.074	3.0
5.089	6.0
5.104	6.0
5.119	5.0
5.134	12.0
5.149	7.0
5.164	11.0
5.179	11.0
5.194	10.0
5.209	11.0
5.224	12.0
5.239	8.0
5.254	9.0
5.269	13.0
5.284	8.0
5.299	8.0
5.314	11.0
5.329	6.0
5.344	5.0
5.359	7.0
5.374	9.0
5.389	10.0
5.404	6.0
5.419	8.0
5.434	10.0
5.449	9.0
5.464	6.0
5.479	5.0
5.494	8.0
5.509	3.0
5.524	8.0
5.539	8.0
5.554	7.0
5.569	5.0
5.584	8.0
5.599	9.0
5.614	6.0
5.629	8.0
5.644	8.0
5.659	14.0
5.674	13.0
5.689	9.0
5.704	7.0
5.719	6.0
5.734	9.0
5.749	4.0
5.764	7.0
5.779	8.0
5.794	5.0
5.809	10.0
5.824	6.0
5.839	8.0
5.854	13.0
5.869	5.0
5.884	9.0
5.899	8.0
5.914	10.0
5.929	6.0
5.944	10.0
5.959	8.0
5.974	12.0
5.989	12.0
6.004	9.0
6.019	7.0
6.034	7.0
6.049	7.0
6.064	8.0
6.079	9.0
6.094	7.0
6.109	11.0
6.124	4.0
6.139	8.0
6.154	5.0
6.169	8.0
6.184	9.0
6.199	9.0
6.214	7.0
6.229	9.0
6.244	7.0
6.259	14.0
6.274	11.0
6.289	8.0
6.304	14.0
6.319	2.0
6.334	5.0
6.349	6.0
6.364	8.0
6.379	9.0
6.394	9.0
6.409	6.0
6.424	7.0
6.439	5.0
6.454	9.0
6.469	8.0
6.484	9.0
6.499	7.0
6.514	6.0
6.529	8.0
6.544	6.0
6.559	11.0
6.574	12.0
6.589	12.0
6.604	9.0
6.619	11.0
6.634	8.0
6.649	7.0
6.664	12.0
6.679	3.0
6.694	9.0
6.709	11.0
6.724	7.0
6.739	8.0
6.754	8.0
6.769	6.0
6.784	7.0
6.799	6.0
6.814	12.0
6.829	11.0
6.844	7.0
6.859	11.0
6.873	13.0
6.888	8.0
6.903	5.0
6.918	8.0
6.933	7.0
6.948	11.0
6.963	9.0
6.978	12.0
6.993	6.0
7.008	9.0
7.023	7.0
7.038	12.0
7.053	8.0
7.068	9.0
7.083	7.0
7.098	8.0
7.113	4.0
7.128	13.0
7.143	11.0
7.157	4.0
7.172	9.0
7.187	7.0
7.202	3.0
7.217	4.0
7.232	8.0
7.247	8.0
7.262	8.0
7.277	6.0
7.292	10.0
7.307	11.0
7.322	6.0
7.336	11.0
7.351	5.0
7.366	14.0
7.381	11.0
7.396	11.0
7.411	5.0
7.426	10.0
7.441	8.0
7.456	8.0
7.471	15.0
7.485	14.0
7.5	6.0
7.515	8.0
7.53	5.0
7.545	11.0
7.56	3.0
7.575	5.0
7.59	9.0
7.604	10.0
7.619	6.0
7.634	7.0
7.649	12.0
7.664	10.0
7.679	8.0
7.693	12.0
7.708	7.0
7.723	10.0
7.738	6.0
7.753	6.0
7.768	15.0
7.783	7.0
7.797	7.0
7.812	15.0
7.827	10.0
7.842	11.0
7.857	10.0
7.871	9.0
7.886	10.0
7.901	9.0
7.916	4.0
7.931	8.0
7.945	7.0
7.96	9.0
7.975	9.0
7.99	4.0
8.005	9.0
8.019	11.0
8.034	3.0
8.049	8.0
8.064	6.0
8.078	6.0
8.093	8.0
8.108	12.0
8.123	6.0
8.137	8.0
8.152	6.0
8.167	12.0
8.182	5.0
8.196	8.0
8.211	9.0
8.226	7.0
8.241	7.0
8.255	6.0
8.27	5.0
8.285	12.0
8.3	12.0
8.314	8.0
8.329	7.0
8.344	6.0
8.358	8.0
8.373	8.0
8.388	5.0
8.403	8.0
8.417	12.0
8.432	5.0
8.447	9.0
8.461	9.0
8.476	3.0
8.491	7.0
8.505	18.0
8.52	13.0
8.535	9.0
8.55	5.0
8.564	4.0
8.579	11.0
8.594	9.0
8.608	10.0
8.623	5.0
8.638	9.0
8.652	9.0
8.667	5.0
8.682	5.0
8.696	9.0
8.711	9.0
8.726	6.0
8.74	6.0
8.755	9.0
8.77	6.0
8.784	9.0
8.799	10.0
8.814	11.0
8.828	4.0
8.843	6.0
8.858	6.0
8.872	8.0
8.887	11.0
8.902	13.0
8.916	7.0
8.931	7.0
8.946	7.0
8.96	10.0
8.975	9.0
8.99	7.0
9.004	9.0
9.019	10.0
9.034	10.0
9.048	6.0
9.063	10.0
9.077	5.0
9.092	6.0
9.107	10.0
9.121	6.0
9.136	7.0
9.151	9.0
9.165	9.0
9.18	13.0
9.195	4.0
9.209	6.0
9.224	7.0
9.239	10.0
9.253	14.0
9.268	12.0
9.283	9.0
9.297	9.0
9.312	14.0
9.327	9.0
9.341	7.0
9.356	17.0
9.371	7.0
9.385	6.0
9.4	14.0
9.415	7.0
9.429	6.0
9.444	8.0
9.458	9.0
9.473	10.0
9.488	10.0
9.502	9.0
9.517	9.0
9.532	10.0
9.546	8.0
9.561	13.0
9.576	10.0
9.59	14.0
9.605	3.0
9.62	13.0
9.635	7.0
9.649	4.0
9.664	6.0
9.679	9.0
9.693	5.0
9.708	7.0
9.723	7.0
9.737	6.0
9.752	8.0
9.767	6.0
9.781	12.0
9.796	7.0
9.811	2.0
9.825	7.0
9.84	11.0
9.855	6.0
9.87	8.0
9.884	6.0
9.899	7.0
9.914	7.0
9.928	11.0
9.943	10.0
9.958	7.0
9.973	8.0
9.987	11.0
10.002	9.0
10.017	10.0
10.031	7.0
10.046	11.0
10.061	7.0
10.076	12.0
10.09	13.0
10.105	10.0
10.12	10.0
10.135	9.0
10.149	12.0
10.164	11.0
10.179	6.0
10.194	15.0
10.208	7.0
10.223	8.0
10.238	12.0
10.253	17.0
10.267	4.0
10.282	9.0
10.297	6.0
10.312	10.0
10.326	6.0
10.341	6.0
10.356	7.0
10.371	9.0
10.386	3.0
10.4	6.0
10.415	4.0
10.43	11.0
10.445	8.0
10.46	7.0
10.474	5.0
10.489	8.0
10.504	11.0
10.519	8.0
10.533	11.0
10.548	10.0
10.563	4.0
10.578	9.0
10.593	13.0
10.608	14.0
10.622	8.0
10.637	11.0
10.652	10.0
10.667	10.0
10.682	7.0
10.696	9.0
10.711	5.0
10.726	4.0
10.741	9.0
10.756	12.0
10.771	6.0
10.785	10.0
10.8	9.0
10.815	8.0
10.83	12.0
10.845	6.0
10.86	7.0
10.874	9.0
10.889	9.0
10.904	3.0
10.919	5.0
10.934	5.0
10.949	9.0
10.963	7.0
10.978	8.0
10.993	4.0
11.008	8.0
11.023	8.0
11.038	10.0
11.053	15.0
11.067	10.0
11.082	11.0
11.097	7.0
11.112	4.0
11.127	5.0
11.142	10.0
11.157	8.0
11.172	10.0
11.186	8.0
11.201	11.0
11.216	7.0
11.231	9.0
11.246	6.0
11.261	13.0
11.276	6.0
11.291	6.0
11.305	10.0
11.32	11.0
11.335	7.0
11.35	6.0
11.365	12.0
11.38	10.0
11.395	10.0
11.41	8.0
11.424	8.0
11.439	7.0
11.454	10.0
11.469	3.0
11.484	4.0
11.499	8.0
11.514	10.0
11.529	5.0
11.544	3.0
11.558	8.0
11.573	7.0
11.588	8.0
11.603	10.0
11.618	8.0
11.633	8.0
11.648	11.0
11.663	12.0
11.678	5.0
11.693	8.0
11.707	10.0
11.722	4.0
11.737	11.0
11.752	13.0
11.767	12.0
11.782	8.0
11.797	11.0
11.812	9.0
11.827	9.0
11.842	6.0
11.856	5.0
11.871	9.0
11.886	6.0
11.901	3.0
11.916	14.0
11.931	11.0
11.946	8.0
11.961	5.0
11.976	7.0
11.991	9.0
12.006	10.0
12.02	5.0
12.035	8.0
12.05	10.0
12.065	10.0
12.08	10.0
12.095	19.0
12.11	5.0
12.125	9.0
12.14	6.0
12.155	12.0
12.17	11.0
12.184	12.0
12.199	10.0
12.214	7.0
12.229	9.0
12.244	7.0
12.259	5.0
12.274	13.0
12.289	12.0
12.304	9.0
12.319	11.0
12.334	13.0
12.348	14.0
12.363	11.0
12.378	11.0
12.393	13.0
12.408	7.0
12.423	11.0
12.438	11.0
12.453	9.0
12.468	7.0
12.483	13.0
12.498	13.0
12.513	7.0
12.527	11.0
12.542	9.0
12.557	8.0
12.572	13.0
12.587	10.0
12.602	10.0
12.617	16.0
12.632	16.0
12.647	13.0
12.662	8.0
12.677	14.0
12.692	13.0
12.707	13.0
12.721	7.0
12.736	12.0
12.751	11.0
12.766	6.0
12.781	15.0
12.796	13.0
12.811	13.0
12.826	24.0
12.841	12.0
12.856	12.0
12.871	11.0
12.886	12.0
12.9	11.0
12.915	16.0
12.93	21.0
12.945	10.0
12.96	18.0
12.975	16.0
12.99	21.0
13.005	17.0
13.02	19.0
13.035	15.0
13.05	14.0
13.065	14.0
13.08	14.0
13.094	17.0
13.109	14.0
13.124	21.0
13.139	13.0
13.154	23.0
13.169	13.0
13.184	18.0
13.199	7.0
13.214	22.0
13.229	18.0
13.244	16.0
13.259	19.0
13.274	18.0
13.288	20.0
13.303	14.0
13.318	15.0
13.333	17.0
13.348	19.0
13.363	13.0
13.378	28.0
13.393	20.0
13.408	24.0
13.423	29.0
13.438	35.0
13.453	32.0
13.468	36.0
13.482	28.0
13.497	37.0
13.512	35.0
13.527	33.0
13.542	53.0
13.557	49.0
13.572	51.0
13.587	70.0
13.602	58.0
13.617	58.0
13.632	75.0
13.647	62.0
13.662	73.0
13.677	72.0
13.691	82.0
13.706	78.0
13.721	102.0
13.736	101.0
13.751	117.0
13.766	108.0
13.781	113.0
13.796	119.0
13.811	131.0
13.826	128.0
13.841	119.0
13.856	143.0
13.871	125.0
13.885	107.0
13.9	103.0
13.915	64.0
13.93	53.0
13.945	62.0
13.96	42.0
13.975	48.0
13.99	32.0
14.005	31.0
14.02	32.0
14.035	27.0
14.05	24.0
14.065	20.0
14.08	29.0
14.094	24.0
14.109	27.0
14.124	23.0
14.139	16.0
14.154	22.0
14.169	23.0
14.184	20.0
14.199	21.0
14.214	21.0
14.229	24.0
14.244	16.0
14.259	25.0
14.274	22.0
14.288	17.0
14.303	21.0
14.318	18.0
14.333	18.0
14.348	18.0
14.363	15.0
14.378	13.0
14.393	25.0
14.408	14.0
14.423	24.0
14.438	20.0
14.453	25.0
14.468	21.0
14.482	19.0
14.497	15.0
14.512	13.0
14.527	13.0
14.542	16.0
14.557	17.0
14.572	14.0
14.587	23.0
14.602	18.0
14.617	23.0
14.632	15.0
14.647	12.0
14.661	13.0
14.676	15.0
14.691	16.0
14.706	15.0
14.721	15.0
14.736	11.0
14.751	14.0
14.766	10.0
14.781	20.0
14.796	16.0
14.811	19.0
14.826	13.0
14.84	17.0
14.855	20.0
14.87	16.0
14.885	17.0
14.9	20.0
14.915	16.0
14.93	10.0
14.945	11.0
14.96	15.0
14.975	15.0
14.989	10.0
15.004	15.0
15.019	19.0
15.034	8.0
15.049	13.0
15.064	16.0
15.079	20.0
15.094	8.0
15.109	13.0
15.124	12.0
15.138	11.0
15.153	15.0
15.168	14.0
15.183	19.0
15.198	15.0
15.213	14.0
15.228	10.0
15.243	11.0
15.258	7.0
15.272	9.0
15.287	17.0
15.302	13.0
15.317	11.0
15.332	18.0
15.347	18.0
15.362	11.0
15.377	10.0
15.391	20.0
15.406	16.0
15.421	20.0
15.436	17.0
15.451	15.0
15.466	12.0
15.481	17.0
15.496	11.0
15.51	11.0
15.525	12.0
15.54	9.0
15.555	19.0
15.57	16.0
15.585	11.0
15.6	10.0
15.614	13.0
15.629	9.0
15.644	13.0
15.659	14.0
15.674	11.0
15.689	14.0
15.704	15.0
15.718	13.0
15.733	7.0
15.748	17.0
15.763	14.0
15.778	17.0
15.793	12.0
15.808	8.0
15.822	15.0
15.837	27.0
15.852	13.0
15.867	13.0
15.882	12.0
15.897	5.0
15.911	9.0
15.926	12.0
15.941	14.0
15.956	18.0
15.971	11.0
15.986	7.0
16.0	13.0
16.015	16.0
16.03	11.0
16.045	19.0
16.06	19.0
16.074	13.0
16.089	13.0
16.104	11.0
16.119	14.0
16.134	14.0
16.149	15.0
16.163	12.0
16.178	16.0
16.193	15.0
16.208	20.0
16.223	13.0
16.237	14.0
16.252	12.0
16.267	12.0
16.282	8.0
16.297	7.0
16.311	11.0
16.326	18.0
16.341	11.0
16.356	19.0
16.37	19.0
16.385	17.0
16.4	16.0
16.415	15.0
16.43	13.0
16.444	15.0
16.459	13.0
16.474	17.0
16.489	15.0
16.504	19.0
16.518	14.0
16.533	11.0
16.548	13.0
16.563	17.0
16.577	15.0
16.592	8.0
16.607	20.0
16.622	20.0
16.637	18.0
16.651	27.0
16.666	17.0
16.681	19.0
16.696	24.0
16.71	24.0
16.725	25.0
16.74	35.0
16.755	35.0
16.77	41.0
16.784	28.0
16.799	28.0
16.814	41.0
16.829	41.0
16.843	43.0
16.858	48.0
16.873	47.0
16.888	58.0
16.902	56.0
16.917	70.0
16.932	58.0
16.947	75.0
16.961	73.0
16.976	57.0
16.991	80.0
17.006	63.0
17.021	56.0
17.035	59.0
17.05	46.0
17.065	30.0
17.08	37.0
17.094	39.0
17.109	30.0
17.124	27.0
17.139	25.0
17.153	20.0
17.168	19.0
17.183	10.0
17.198	18.0
17.212	22.0
17.227	16.0
17.242	9.0
17.257	20.0
17.271	11.0
17.286	13.0
17.301	19.0
17.316	14.0
17.33	17.0
17.345	16.0
17.36	10.0
17.375	15.0
17.39	9.0
17.404	5.0
17.419	16.0
17.434	17.0
17.449	13.0
17.463	14.0
17.478	13.0
17.493	14.0
17.508	13.0
17.522	9.0
17.537	9.0
17.552	9.0
17.567	13.0
17.581	10.0
17.596	14.0
17.611	10.0
17.626	16.0
17.641	14.0
17.655	13.0
17.67	16.0
17.685	10.0
17.7	15.0
17.714	14.0
17.729	15.0
17.744	14.0
17.759	10.0
17.773	17.0
17.788	9.0
17.803	12.0
17.818	13.0
17.833	10.0
17.847	9.0
17.862	12.0
17.877	14.0
17.892	13.0
17.906	10.0
17.921	12.0
17.936	13.0
17.951	14.0
17.966	10.0
17.98	10.0
17.995	9.0
18.01	8.0
18.025	13.0
18.04	11.0
18.054	10.0
18.069	12.0
18.084	16.0
18.099	16.0
18.114	13.0
18.128	9.0
18.143	16.0
18.158	17.0
18.173	6.0
18.188	10.0
18.202	8.0
18.217	12.0
18.232	17.0
18.247	13.0
18.262	8.0
18.276	9.0
18.291	6.0
18.306	15.0
18.321	9.0
18.336	16.0
18.35	6.0
18.365	10.0
18.38	8.0
18.395	9.0
18.41	14.0
18.424	12.0
18.439	13.0
18.454	8.0
18.469	6.0
18.484	11.0
18.498	15.0
18.513	10.0
18.528	11.0
18.543	15.0
18.558	7.0
18.573	13.0
18.587	8.0
18.602	10.0
18.617	13.0
18.632	11.0
18.647	11.0
18.661	11.0
18.676	7.0
18.691	9.0
18.706	11.0
18.721	19.0
18.736	11.0
18.75	3.0
18.765	13.0
18.78	6.0
18.795	13.0
18.81	12.0
18.825	16.0
18.839	13.0
18.854	18.0
18.869	16.0
18.884	17.0
18.899	12.0
18.913	11.0
18.928	18.0
18.943	13.0
18.958	8.0
18.973	11.0
18.988	9.0
19.002	10.0
19.017	11.0
19.032	10.0
19.047	14.0
19.062	16.0
19.077	13.0
19.091	7.0
19.106	8.0
19.121	6.0
19.136	10.0
19.151	11.0
19.165	9.0
19.18	13.0
19.195	17.0
19.21	9.0
19.225	14.0
19.24	12.0
19.254	20.0
19.269	10.0
19.284	13.0
19.299	11.0
19.314	17.0
19.329	15.0
19.343	16.0
19.358	11.0
19.373	15.0
19.388	13.0
19.403	13.0
19.417	18.0
19.432	17.0
19.447	23.0
19.462	21.0
19.477	30.0
19.492	39.0
19.506	23.0
19.521	32.0
19.536	31.0
19.551	35.0
19.566	50.0
19.58	45.0
19.595	37.0
19.61	43.0
19.625	32.0
19.64	38.0
19.655	37.0
19.669	43.0
19.684	29.0
19.699	31.0
19.714	30.0
19.729	29.0
19.743	27.0
19.758	21.0
19.773	20.0
19.788	19.0
19.803	25.0
19.817	13.0
19.832	16.0
19.847	9.0
19.862	14.0
19.877	20.0
19.891	12.0
19.906	8.0
19.921	7.0
19.936	12.0
19.951	14.0
19.965	18.0
19.98	12.0
19.995	13.0
20.01	10.0
20.025	12.0
20.039	16.0
20.054	10.0
20.069	10.0
20.084	13.0
20.099	7.0
20.113	17.0
20.128	11.0
20.143	10.0
20.158	12.0
20.173	14.0
20.187	9.0
20.202	12.0
20.217	8.0
20.232	13.0
20.246	9.0
20.261	13.0
20.276	9.0
20.291	13.0
20.306	13.0
20.32	12.0
20.335	11.0
20.35	12.0
20.365	5.0
20.38	10.0
20.394	12.0
20.409	14.0
20.424	7.0
20.439	15.0
20.453	9.0
20.468	11.0
20.483	7.0
20.498	18.0
20.513	9.0
20.527	13.0
20.542	10.0
20.557	19.0
20.572	12.0
20.586	4.0
20.601	12.0
20.616	12.0
20.631	12.0
20.646	8.0
20.66	10.0
20.675	8.0
20.69	11.0
20.705	15.0
20.719	11.0
20.734	9.0
20.749	15.0
20.764	11.0
20.779	9.0
20.793	4.0
20.808	21.0
20.823	10.0
20.838	10.0
20.853	9.0
20.867	5.0
20.882	11.0
20.897	10.0
20.912	9.0
20.926	15.0
20.941	9.0
20.956	19.0
20.971	17.0
20.986	9.0
21.0	8.0
21.015	8.0
21.03	16.0
21.045	11.0
21.06	14.0
21.074	20.0
21.089	9.0
21.104	11.0
21.119	11.0
21.134	12.0
21.148	13.0
21.163	5.0
21.178	10.0
21.193	10.0
21.208	15.0
21.222	9.0
21.237	15.0
21.252	10.0
21.267	14.0
21.282	12.0
21.296	18.0
21.311	17.0
21.326	9.0
21.341	12.0
21.356	13.0
21.37	11.0
21.385	8.0
21.4	13.0
21.415	18.0
21.43	12.0
21.444	9.0
21.459	9.0
21.474	15.0
21.489	10.0
21.504	12.0
21.519	13.0
21.533	9.0
21.548	10.0
21.563	14.0
21.578	13.0
21.593	14.0
21.608	23.0
21.622	14.0
21.637	16.0
21.652	14.0
21.667	20.0
21.682	15.0
21.697	21.0
21.712	22.0
21.726	20.0
21.741	30.0
21.756	31.0
21.771	36.0
21.786	34.0
21.801	38.0
21.816	47.0
21.83	41.0
21.845	44.0
21.86	70.0
21.875	67.0
21.89	69.0
21.905	71.0
21.92	74.0
21.935	77.0
21.949	78.0
21.964	68.0
21.979	77.0
21.994	81.0
22.009	63.0
22.024	52.0
22.039	63.0
22.054	35.0
22.069	65.0
22.083	47.0
22.098	41.0
22.113	30.0
22.128	36.0
22.143	26.0
22.158	25.0
22.173	24.0
22.188	16.0
22.203	19.0
22.218	15.0
22.233	17.0
22.248	10.0
22.262	12.0
22.277	15.0
22.292	15.0
22.307	13.0
22.322	15.0
22.337	16.0
22.352	18.0
22.367	12.0
22.382	10.0
22.397	14.0
22.412	16.0
22.427	6.0
22.442	17.0
22.457	10.0
22.472	13.0
22.487	10.0
22.502	14.0
22.516	10.0
22.531	12.0
22.546	9.0
22.561	8.0
22.576	21.0
22.591	16.0
22.606	17.0
22.621	3.0
22.636	4.0
22.651	7.0
22.666	12.0
22.681	15.0
22.696	11.0
22.711	17.0
22.726	9.0
22.741	13.0
22.756	6.0
22.771	10.0
22.786	14.0
22.801	11.0
22.816	15.0
22.831	10.0
22.846	12.0
22.861	8.0
22.876	4.0
22.891	10.0
22.906	13.0
22.92	12.0
22.935	15.0
22.95	11.0
22.965	10.0
22.98	11.0
22.995	9.0
23.01	8.0
23.025	8.0
23.04	8.0
23.055	9.0
23.07	8.0
23.085	10.0
23.1	6.0
23.115	6.0
23.13	5.0
23.145	8.0
23.16	10.0
23.175	6.0
23.19	7.0
23.205	10.0
23.22	9.0
23.235	12.0
23.25	11.0
23.265	9.0
23.28	7.0
23.295	6.0
23.31	10.0
23.325	6.0
23.34	13.0
23.355	10.0
23.37	10.0
23.384	5.0
23.399	13.0
23.414	7.0
23.429	12.0
23.444	14.0
23.459	16.0
23.474	7.0
23.489	7.0
23.504	10.0
23.519	8.0
23.534	16.0
23.549	13.0
23.564	14.0
23.579	10.0
23.594	9.0
23.609	14.0
23.624	17.0
23.639	13.0
23.654	11.0
23.668	8.0
23.683	17.0
23.698	9.0
23.713	11.0
23.728	7.0
23.743	8.0
23.758	16.0
23.773	14.0
23.788	10.0
23.803	13.0
23.818	17.0
23.833	11.0
23.848	17.0
23.862	22.0
23.877	18.0
23.892	26.0
23.907	16.0
23.922	24.0
23.937	28.0
23.952	19.0
23.967	35.0
23.982	32.0
23.997	36.0
24.011	48.0
24.026	45.0
24.041	42.0
24.056	42.0
24.071	43.0
24.086	53.0
24.101	58.0
24.116	46.0
24.131	44.0
24.145	41.0
24.16	41.0
24.175	37.0
24.19	32.0
24.205	39.0
24.22	30.0
24.235	22.0
24.249	39.0
24.264	21.0
24.279	19.0
24.294	20.0
24.309	14.0
24.324	29.0
24.338	15.0
24.353	18.0
24.368	19.0
24.383	12.0
24.398	13.0
24.413	11.0
24.428	10.0
24.442	8.0
24.457	13.0
24.472	10.0
24.487	11.0
24.502	17.0
24.516	6.0
24.531	10.0
24.546	8.0
24.561	18.0
24.576	14.0
24.591	10.0
24.605	9.0
24.62	9.0
24.635	11.0
24.65	8.0
24.665	9.0
24.679	16.0
24.694	9.0
24.709	15.0
24.724	10.0
24.739	11.0
24.753	7.0
24.768	10.0
24.783	16.0
24.798	7.0
24.813	11.0
24.827	11.0
24.842	11.0
24.857	11.0
24.872	11.0
24.886	4.0
24.901	12.0
24.916	9.0
24.931	7.0
24.946	22.0
24.96	10.0
24.975	11.0
24.99	8.0
25.005	9.0
25.019	11.0
25.034	6.0
25.049	6.0
25.064	8.0
25.078	10.0
25.093	8.0
25.108	10.0
25.123	13.0
25.138	9.0
25.152	6.0
25.167	9.0
25.182	8.0
25.197	12.0
25.211	10.0
25.226	11.0
25.241	11.0
25.256	8.0
25.27	5.0
25.285	10.0
25.3	3.0
25.315	10.0
25.329	7.0
25.344	9.0
25.359	14.0
25.374	7.0
25.388	12.0
25.403	7.0
25.418	12.0
25.433	8.0
25.447	12.0
25.462	9.0
25.477	10.0
25.492	12.0
25.506	9.0
25.521	16.0
25.536	8.0
25.55	10.0
25.565	9.0
25.58	10.0
25.595	10.0
25.609	3.0
25.624	11.0
25.639	6.0
25.654	6.0
25.668	10.0
25.683	8.0
25.698	10.0
25.713	9.0
25.727	3.0
25.742	12.0
25.757	11.0
25.772	16.0
25.786	14.0
25.801	10.0
25.816	10.0
25.83	11.0
25.845	6.0
25.86	9.0
25.875	4.0
25.889	13.0
25.904	11.0
25.919	9.0
25.934	15.0
25.948	3.0
25.963	11.0
25.978	9.0
25.992	12.0
26.007	9.0
26.022	9.0
26.037	8.0
26.051	7.0
26.066	13.0
26.081	13.0
26.096	9.0
26.11	9.0
26.125	10.0
26.14	9.0
26.155	8.0
26.169	10.0
26.184	11.0
26.199	16.0
26.213	12.0
26.228	16.0
26.243	13.0
26.258	9.0
26.272	13.0
26.287	9.0
26.302	8.0
26.317	14.0
26.331	18.0
26.346	6.0
26.361	17.0
26.376	7.0
26.39	18.0
26.405	7.0
26.42	7.0
26.434	9.0
26.449	13.0
26.464	15.0
26.479	7.0
26.493	13.0
26.508	6.0
26.523	13.0
26.538	7.0
26.552	11.0
26.567	8.0
26.582	9.0
26.597	11.0
26.611	17.0
26.626	6.0
26.641	10.0
26.656	7.0
26.67	4.0
26.685	8.0
26.7	6.0
26.715	14.0
26.729	7.0
26.744	8.0
26.759	12.0
26.773	8.0
26.788	8.0
26.803	10.0
26.818	7.0
26.832	8.0
26.847	7.0
26.862	6.0
26.877	8.0
26.891	9.0
26.906	10.0
26.921	11.0
26.936	12.0
26.95	8.0
26.965	7.0
26.98	10.0
26.995	10.0
27.01	7.0
27.024	12.0
27.039	9.0
27.054	9.0
27.069	13.0
27.083	7.0
27.098	10.0
27.113	6.0
27.128	3.0
27.142	6.0
27.157	12.0
27.172	4.0
27.187	5.0
27.201	9.0
27.216	11.0
27.231	10.0
27.246	9.0
27.261	9.0
27.275	10.0
27.29	6.0
27.305	16.0
27.32	7.0
27.334	10.0
27.349	5.0
27.364	8.0
27.379	13.0
27.394	11.0
27.408	9.0
27.423	7.0
27.438	13.0
27.453	10.0
27.467	7.0
27.482	6.0
27.497	12.0
27.512	9.0
27.527	13.0
27.541	6.0
27.556	14.0
27.571	10.0
27.586	7.0
27.601	13.0
27.615	11.0
27.63	11.0
27.645	12.0
27.66	9.0
27.675	12.0
27.689	6.0
27.704	25.0
27.719	8.0
27.734	22.0
27.749	19.0
27.763	9.0
27.778	22.0
27.793	18.0
27.808	18.0
27.823	14.0
27.838	8.0
27.852	23.0
27.867	21.0
27.882	15.0
27.897	19.0
27.912	18.0
27.926	26.0
27.941	18.0
27.956	17.0
27.971	27.0
27.986	17.0
28.001	13.0
28.015	14.0
28.03	17.0
28.045	16.0
28.06	15.0
28.075	17.0
28.09	14.0
28.105	12.0
28.119	11.0
28.134	10.0
28.149	9.0
28.164	12.0
28.179	9.0
28.194	11.0
28.208	10.0
28.223	11.0
28.238	11.0
28.253	6.0
28.268	10.0
28.283	9.0
28.298	17.0
28.312	11.0
28.327	8.0
28.342	12.0
28.357	13.0
28.372	3.0
28.387	10.0
28.402	5.0
28.417	11.0
28.431	16.0
28.446	7.0
28.461	8.0
28.476	12.0
28.491	10.0
28.506	8.0
28.521	10.0
28.536	6.0
28.55	7.0
28.565	10.0
28.58	5.0
28.595	11.0
28.61	17.0
28.625	9.0
28.64	10.0
28.655	7.0
28.669	7.0
28.684	11.0
28.699	4.0
28.714	14.0
28.729	18.0
28.744	5.0
28.759	7.0
28.774	12.0
28.788	9.0
28.803	7.0
28.818	14.0
28.833	12.0
28.848	10.0
28.863	15.0
28.878	8.0
28.893	9.0
28.908	9.0
28.922	9.0
28.937	7.0
28.952	5.0
28.967	11.0
28.982	5.0
28.997	10.0
29.012	9.0
29.027	6.0
29.041	8.0
29.056	10.0
29.071	12.0
29.086	5.0
29.101	15.0
29.116	10.0
29.131	13.0
29.146	17.0
29.16	6.0
29.175	8.0
29.19	6.0
29.205	13.0
29.22	8.0
29.235	8.0
29.25	18.0
29.265	10.0
29.279	12.0
29.294	10.0
29.309	11.0
29.324	16.0
29.339	11.0
29.354	21.0
29.369	15.0
29.384	13.0
29.398	19.0
29.413	19.0
29.428	18.0
29.443	16.0
29.458	16.0
29.473	20.0
29.488	34.0
29.502	32.0
29.517	37.0
29.532	40.0
29.547	45.0
29.562	44.0
29.577	42.0
29.592	31.0
29.606	56.0
29.621	53.0
29.636	48.0
29.651	52.0
29.666	54.0
29.681	47.0
29.695	42.0
29.71	32.0
29.725	29.0
29.74	40.0
29.755	31.0
29.77	23.0
29.784	37.0
29.799	24.0
29.814	29.0
29.829	22.0
29.844	20.0
29.859	29.0
29.873	22.0
29.888	14.0
29.903	17.0
29.918	13.0
29.933	12.0
29.947	11.0
29.962	8.0
29.977	12.0
29.992	17.0
30.007	15.0
30.021	14.0
30.036	10.0
30.051	9.0
30.066	9.0
30.081	9.0
30.095	12.0
30.11	10.0
30.125	7.0
30.14	9.0
30.155	10.0
30.169	11.0
30.184	11.0
30.199	11.0
30.214	7.0
30.228	13.0
30.243	10.0
30.258	5.0
30.273	7.0
30.288	7.0
30.302	11.0
30.317	12.0
30.332	4.0
30.347	9.0
30.361	11.0
30.376	15.0
30.391	13.0
30.406	9.0
30.42	11.0
30.435	18.0
30.45	7.0
30.465	10.0
30.479	11.0
30.494	10.0
30.509	11.0
30.524	19.0
30.538	9.0
30.553	8.0
30.568	12.0
30.583	7.0
30.597	15.0
30.612	10.0
30.627	10.0
30.641	5.0
30.656	12.0
30.671	14.0
30.686	15.0
30.7	12.0
30.715	14.0
30.73	12.0
30.745	12.0
30.759	6.0
30.774	6.0
30.789	8.0
30.803	12.0
30.818	8.0
30.833	11.0
30.848	12.0
30.862	9.0
30.877	14.0
30.892	15.0
30.906	11.0
30.921	8.0
30.936	10.0
30.951	8.0
30.965	5.0
30.98	10.0
30.995	16.0
31.009	8.0
31.024	17.0
31.039	15.0
31.053	10.0
31.068	13.0
31.083	21.0
31.098	16.0
31.112	13.0
31.127	15.0
31.142	25.0
31.156	26.0
31.171	31.0
31.186	32.0
31.2	30.0
31.215	34.0
31.23	39.0
31.245	41.0
31.259	32.0
31.274	27.0
31.289	45.0
31.303	43.0
31.318	34.0
31.333	40.0
31.347	37.0
31.362	29.0
31.377	29.0
31.392	35.0
31.406	26.0
31.421	26.0
31.436	23.0
31.45	32.0
31.465	25.0
31.48	21.0
31.494	19.0
31.509	26.0
31.524	14.0
31.538	13.0
31.553	12.0
31.568	13.0
31.583	6.0
31.597	15.0
31.612	11.0
31.627	9.0
31.641	10.0
31.656	16.0
31.671	12.0
31.685	16.0
31.7	13.0
31.715	15.0
31.729	6.0
31.744	12.0
31.759	11.0
31.774	15.0
31.788	11.0
31.803	13.0
31.818	12.0
31.832	5.0
31.847	11.0
31.862	16.0
31.876	7.0
31.891	4.0
31.906	11.0
31.92	10.0
31.935	9.0
31.95	9.0
31.965	14.0
31.979	11.0
31.994	13.0
32.009	13.0
32.023	13.0
32.038	13.0
32.053	9.0
32.067	13.0
32.082	6.0
32.097	10.0
32.112	4.0
32.126	7.0
32.141	8.0
32.156	6.0
32.17	7.0
32.185	8.0
32.2	10.0
32.214	12.0
32.229	16.0
32.244	14.0
32.259	13.0
32.273	8.0
32.288	15.0
32.303	8.0
32.317	9.0
32.332	14.0
32.347	6.0
32.362	8.0
32.376	10.0
32.391	15.0
32.406	13.0
32.42	6.0
32.435	7.0
32.45	8.0
32.465	8.0
32.479	7.0
32.494	9.0
32.509	8.0
32.523	12.0
32.538	11.0
32.553	10.0
32.568	9.0
32.582	9.0
32.597	10.0
32.612	12.0
32.627	12.0
32.641	10.0
32.656	18.0
32.671	13.0
32.685	11.0
32.7	13.0
32.715	23.0
32.73	19.0
32.744	18.0
32.759	16.0
32.774	22.0
32.788	26.0
32.803	30.0
32.818	23.0
32.833	18.0
32.847	26.0
32.862	14.0
32.877	24.0
32.892	25.0
32.906	19.0
32.921	22.0
32.936	16.0
32.951	9.0
32.965	21.0
32.98	16.0
32.995	22.0
33.009	19.0
33.024	23.0
33.039	17.0
33.054	23.0
33.068	17.0
33.083	14.0
33.098	16.0
33.113	10.0
33.127	8.0
33.142	5.0
33.157	11.0
33.172	10.0
33.186	10.0
33.201	11.0
33.216	12.0
33.231	8.0
33.245	8.0
33.26	9.0
33.275	8.0
33.29	7.0
33.304	9.0
33.319	10.0
33.334	6.0
33.349	8.0
33.363	14.0
33.378	17.0
33.393	10.0
33.408	8.0
33.422	10.0
33.437	13.0
33.452	11.0
33.467	9.0
33.481	7.0
33.496	8.0
33.511	6.0
33.526	10.0
33.54	10.0
33.555	15.0
33.57	11.0
33.585	5.0
33.599	14.0
33.614	4.0
33.629	13.0
33.644	7.0
33.658	7.0
33.673	8.0
33.688	8.0
33.703	5.0
33.718	8.0
33.732	13.0
33.747	9.0
33.762	12.0
33.777	12.0
33.791	9.0
33.806	11.0
33.821	13.0
33.836	11.0
33.85	10.0
33.865	7.0
33.88	10.0
33.895	13.0
33.91	9.0
33.924	5.0
33.939	12.0
33.954	9.0
33.969	6.0
33.983	14.0
33.998	11.0
34.013	12.0
34.028	10.0
34.042	12.0
34.057	10.0
34.072	6.0
34.087	18.0
34.102	11.0
34.116	11.0
34.131	12.0
34.146	8.0
34.161	8.0
34.175	8.0
34.19	15.0
34.205	17.0
34.22	7.0
34.235	15.0
34.249	14.0
34.264	14.0
34.279	10.0
34.294	15.0
34.309	12.0
34.323	21.0
34.338	12.0
34.353	13.0
34.368	11.0
34.382	16.0
34.397	15.0
34.412	10.0
34.427	12.0
34.442	15.0
34.456	7.0
34.471	10.0
34.486	15.0
34.501	9.0
34.516	12.0
34.53	12.0
34.545	10.0
34.56	13.0
34.575	12.0
34.59	8.0
34.604	10.0
34.619	4.0
34.634	15.0
34.649	7.0
34.664	13.0
34.678	8.0
34.693	11.0
34.708	5.0
34.723	6.0
34.738	9.0
34.752	11.0
34.767	11.0
34.782	13.0
34.797	16.0
34.812	2.0
34.826	7.0
34.841	8.0
34.856	10.0
34.871	9.0
34.886	13.0
34.9	5.0
34.915	5.0
34.93	7.0
34.945	7.0
34.96	10.0
34.974	12.0
34.989	12.0
35.004	9.0
35.019	9.0
35.034	9.0
35.048	9.0
35.063	6.0
35.078	8.0
35.093	10.0
35.108	8.0
35.122	7.0
35.137	7.0
35.152	11.0
35.167	7.0
35.182	9.0
35.196	6.0
35.211	10.0
35.226	15.0
35.241	10.0
35.256	16.0
35.27	7.0
35.285	8.0
35.3	6.0
35.315	12.0
35.33	5.0
35.344	8.0
35.359	10.0
35.374	15.0
35.389	7.0
35.404	13.0
35.418	11.0
35.433	6.0
35.448	7.0
35.463	6.0
35.478	10.0
35.493	11.0
35.507	9.0
35.522	6.0
35.537	4.0
35.552	10.0
35.567	13.0
35.581	15.0
35.596	7.0
35.611	5.0
35.626	9.0
35.641	15.0
35.655	12.0
35.67	10.0
35.685	13.0
35.7	15.0
35.715	19.0
35.729	11.0
35.744	16.0
35.759	16.0
35.774	16.0
35.789	25.0
35.804	12.0
35.818	16.0
35.833	17.0
35.848	13.0
35.863	20.0
35.878	10.0
35.892	10.0
35.907	9.0
35.922	10.0
35.937	18.0
35.952	23.0
35.966	12.0
35.981	13.0
35.996	13.0
36.011	24.0
36.026	12.0
36.04	14.0
36.055	8.0
36.07	15.0
36.085	11.0
36.1	10.0
36.114	16.0
36.129	11.0
36.144	6.0
36.159	11.0
36.174	9.0
36.189	11.0
36.203	10.0
36.218	8.0
36.233	11.0
36.248	3.0
36.263	6.0
36.277	15.0
36.292	6.0
36.307	12.0
36.322	8.0
36.337	4.0
36.351	6.0
36.366	8.0
36.381	15.0
36.396	8.0
36.411	9.0
36.426	4.0
36.44	6.0
36.455	8.0
36.47	10.0
36.485	12.0
36.5	4.0
36.514	9.0
36.529	7.0
36.544	8.0
36.559	6.0
36.574	9.0
36.589	5.0
36.603	2.0
36.618	7.0
36.633	8.0
36.648	10.0
36.663	8.0
36.677	10.0
36.692	7.0
36.707	10.0
36.722	14.0
36.737	9.0
36.752	14.0
36.766	7.0
36.781	8.0
36.796	7.0
36.811	6.0
36.826	6.0
36.841	11.0
36.855	14.0
36.87	6.0
36.885	8.0
36.9	5.0
36.915	9.0
36.93	8.0
36.944	9.0
36.959	8.0
36.974	12.0
36.989	7.0
37.004	9.0
37.019	9.0
37.033	19.0
37.048	14.0
37.063	12.0
37.078	20.0
37.093	18.0
37.108	20.0
37.123	15.0
37.137	27.0
37.152	22.0
37.167	28.0
37.182	28.0
37.197	29.0
37.212	18.0
37.226	25.0
37.241	27.0
37.256	24.0
37.271	16.0
37.286	20.0
37.301	18.0
37.316	16.0
37.331	14.0
37.345	20.0
37.36	17.0
37.375	13.0
37.39	18.0
37.405	26.0
37.42	15.0
37.435	14.0
37.45	18.0
37.464	17.0
37.479	15.0
37.494	13.0
37.509	10.0
37.524	9.0
37.539	7.0
37.554	5.0
37.569	8.0
37.583	5.0
37.598	7.0
37.613	9.0
37.628	11.0
37.643	10.0
37.658	10.0
37.673	5.0
37.688	13.0
37.703	2.0
37.718	10.0
37.733	11.0
37.747	15.0
37.762	1.0
37.777	6.0
37.792	10.0
37.807	10.0
37.822	6.0
37.837	6.0
37.852	7.0
37.867	5.0
37.882	7.0
37.897	8.0
37.912	6.0
37.927	6.0
37.941	7.0
37.956	8.0
37.971	5.0
37.986	4.0
38.001	3.0
38.016	4.0
38.031	6.0
38.046	6.0
38.061	5.0
38.076	5.0
38.091	6.0
38.106	9.0
38.121	5.0
38.136	7.0
38.151	5.0
38.166	6.0
38.181	9.0
38.196	4.0
38.211	6.0
38.226	6.0
38.241	3.0
38.256	8.0
38.271	8.0
38.285	5.0
38.3	8.0
38.315	7.0
38.33	7.0
38.345	6.0
38.36	6.0
38.375	3.0
38.39	6.0
38.405	12.0
38.42	4.0
38.435	5.0
38.45	10.0
38.465	5.0
38.48	9.0
38.495	7.0
38.51	4.0
38.525	3.0
38.54	2.0
38.555	3.0
38.57	6.0
38.585	9.0
38.6	0.0
38.615	6.0
38.63	6.0
38.645	9.0
38.66	9.0
38.675	8.0
38.69	4.0
38.705	5.0
38.72	4.0
38.735	6.0
38.75	6.0
38.765	2.0
38.78	4.0
38.795	5.0
38.81	5.0
38.825	6.0
38.84	7.0
38.855	9.0
38.87	10.0
38.885	7.0
38.9	4.0
38.915	11.0
38.93	5.0
38.945	8.0
38.96	6.0
38.975	8.0
38.99	7.0
39.005	5.0
39.02	4.0
39.035	6.0
39.05	5.0
39.065	3.0
39.08	8.0
39.095	13.0
39.11	10.0
39.125	5.0
39.14	5.0
39.155	7.0
39.17	5.0
39.185	7.0
39.2	9.0
39.215	8.0
39.23	4.0
39.245	4.0
39.26	8.0
39.275	4.0
39.29	8.0
39.305	4.0
39.32	3.0
39.335	8.0
39.35	1.0
39.365	3.0
39.38	11.0
39.395	6.0
39.409	3.0
39.424	7.0
39.439	2.0
39.454	5.0
39.469	4.0
39.484	5.0
39.499	7.0
39.514	4.0
39.529	3.0
39.544	4.0
39.559	6.0
39.574	7.0
39.589	9.0
39.604	3.0
39.619	2.0
39.634	10.0
39.649	10.0
39.664	8.0
39.678	4.0
39.693	10.0
39.708	7.0
39.723	17.0
39.738	5.0
39.753	7.0
39.768	9.0
39.783	8.0
39.798	9.0
39.813	5.0
39.827	11.0
39.842	11.0
39.857	15.0
39.872	11.0
39.887	8.0
39.902	7.0
39.917	13.0
39.932	14.0
39.947	8.0
39.961	4.0
39.976	9.0
39.991	10.0
40.006	7.0
40.021	6.0
40.036	11.0
40.051	8.0
40.065	10.0
40.08	9.0
40.095	3.0
40.11	8.0
40.125	10.0
40.14	5.0
40.154	4.0
40.169	10.0
40.184	5.0
40.199	4.0
40.214	3.0
40.228	8.0
40.243	7.0
40.258	5.0
40.273	7.0
40.288	6.0
40.302	6.0
40.317	7.0
40.332	8.0
40.347	11.0
40.362	10.0
40.376	4.0
40.391	5.0
40.406	4.0
40.421	8.0
40.436	9.0
40.45	4.0
40.465	6.0
40.48	7.0
40.495	7.0
40.509	7.0
40.524	6.0
40.539	5.0
40.554	7.0
40.568	8.0
40.583	5.0
40.598	5.0
40.613	6.0
40.627	3.0
40.642	11.0
40.657	7.0
40.672	0.0
40.686	6.0
40.701	9.0
40.716	5.0
40.731	5.0
40.745	3.0
40.76	3.0
40.775	3.0
40.79	4.0
40.804	4.0
40.819	7.0
40.834	6.0
40.849	6.0
40.863	3.0
40.878	6.0
40.893	9.0
40.907	7.0
40.922	12.0
40.937	7.0
40.952	2.0
40.966	5.0
40.981	10.0
40.996	9.0
41.011	10.0
41.025	15.0
41.04	11.0
41.055	12.0
41.069	10.0
41.084	15.0
41.099	23.0
41.114	15.0
41.128	15.0
41.143	20.0
41.158	22.0
41.173	22.0
41.187	17.0
41.202	16.0
41.217	23.0
41.231	14.0
41.246	16.0
41.261	16.0
41.276	13.0
41.29	9.0
41.305	7.0
41.32	12.0
41.335	8.0
41.349	15.0
41.364	12.0
41.379	13.0
41.393	14.0
41.408	15.0
41.423	17.0
41.438	10.0
41.452	8.0
41.467	16.0
41.482	10.0
41.497	7.0
41.511	8.0
41.526	7.0
41.541	8.0
41.556	8.0
41.57	2.0
41.585	5.0
41.6	8.0
41.615	4.0
41.629	6.0
41.644	3.0
41.659	6.0
41.674	5.0
41.688	7.0
41.703	4.0
41.718	6.0
41.733	4.0
41.747	7.0
41.762	4.0
41.777	10.0
41.792	3.0
41.806	3.0
41.821	3.0
41.836	5.0
41.851	6.0
41.866	6.0
41.88	6.0
41.895	5.0
41.91	3.0
41.925	6.0
41.939	3.0
41.954	2.0
41.969	5.0
41.984	8.0
41.999	2.0
42.013	2.0
42.028	3.0
42.043	2.0
42.058	8.0
42.073	7.0
42.088	8.0
42.102	5.0
42.117	8.0
42.132	4.0
42.147	5.0
42.162	6.0
42.176	9.0
42.191	6.0
42.206	10.0
42.221	6.0
42.236	5.0
42.251	7.0
42.266	7.0
42.28	8.0
42.295	13.0
42.31	11.0
42.325	10.0
42.34	14.0
42.355	15.0
42.369	14.0
42.384	20.0
42.399	25.0
42.414	24.0
42.429	14.0
42.444	9.0
42.459	13.0
42.474	13.0
42.488	13.0
42.503	10.0
42.518	11.0
42.533	12.0
42.548	11.0
42.563	14.0
42.578	11.0
42.593	11.0
42.608	7.0
42.622	15.0
42.637	8.0
42.652	11.0
42.667	12.0
42.682	10.0
42.697	8.0
42.712	3.0
42.727	7.0
42.742	7.0
42.757	8.0
42.772	6.0
42.786	9.0
42.801	3.0
42.816	9.0
42.831	2.0
42.846	4.0
42.861	8.0
42.876	11.0
42.891	7.0
42.906	6.0
42.921	8.0
42.936	4.0
42.951	0.0
42.966	6.0
42.981	5.0
42.996	8.0
43.011	5.0
43.025	8.0
43.04	4.0
43.055	5.0
43.07	7.0
43.085	4.0
43.1	3.0
43.115	5.0
43.13	5.0
43.145	5.0
43.16	5.0
43.175	3.0
43.19	1.0
43.205	3.0
43.22	5.0
43.235	7.0
43.25	3.0
43.265	8.0
43.28	3.0
43.295	5.0
43.31	4.0
43.325	1.0
43.34	4.0
43.355	5.0
43.37	6.0
43.385	5.0
43.4	11.0
43.415	7.0
43.43	2.0
43.445	1.0
43.46	6.0
43.475	7.0
43.49	3.0
43.505	5.0
43.52	9.0
43.535	7.0
43.55	8.0
43.565	10.0
43.58	8.0
43.595	8.0
43.61	10.0
43.625	10.0
43.64	13.0
43.655	6.0
43.67	8.0
43.685	5.0
43.7	9.0
43.715	11.0
43.73	8.0
43.745	9.0
43.76	4.0
43.775	6.0
43.79	12.0
43.805	5.0
43.82	10.0
43.835	6.0
43.85	7.0
43.865	11.0
43.88	7.0
43.895	9.0
43.91	5.0
43.925	8.0
43.94	8.0
43.955	9.0
43.97	9.0
43.985	3.0
44.0	4.0
44.015	9.0
44.03	6.0
44.045	6.0
44.061	2.0
44.076	6.0
44.091	4.0
44.106	7.0
44.121	13.0
44.136	9.0
44.151	3.0
44.166	9.0
44.181	7.0
44.196	4.0
44.211	6.0
44.226	6.0
44.241	5.0
44.256	4.0
44.271	11.0
44.286	2.0
44.301	4.0
44.316	4.0
44.331	6.0
44.346	3.0
44.361	8.0
44.377	1.0
44.392	8.0
44.407	8.0
44.422	9.0
44.437	5.0
44.452	3.0
44.467	4.0
44.482	6.0
44.497	7.0
44.512	6.0
44.527	3.0
44.542	5.0
44.557	4.0
44.572	8.0
44.587	3.0
44.602	4.0
44.617	5.0
44.632	8.0
44.647	9.0
44.663	4.0
44.678	6.0
44.693	10.0
44.708	11.0
44.723	3.0
44.738	5.0
44.753	7.0
44.768	7.0
44.783	10.0
44.798	8.0
44.813	12.0
44.828	19.0
44.843	14.0
44.858	8.0
44.873	11.0
44.888	6.0
44.903	10.0
44.918	5.0
44.933	6.0
44.948	7.0
44.964	7.0
44.979	3.0
44.994	9.0
45.009	8.0
45.024	9.0
45.039	4.0
45.054	12.0
45.069	10.0
45.084	8.0
45.099	9.0
45.114	6.0
45.129	5.0
45.144	7.0
45.159	8.0
45.174	3.0
45.189	9.0
45.204	7.0
45.219	1.0
45.234	4.0
45.249	3.0
45.264	5.0
45.279	5.0
45.294	10.0
45.309	6.0
45.324	2.0
45.339	4.0
45.354	6.0
45.369	3.0
45.384	5.0
45.399	5.0
45.414	1.0
45.429	0.0
45.444	8.0
45.459	3.0
45.474	7.0
45.489	4.0
45.504	7.0
45.519	5.0
45.534	9.0
45.549	4.0
45.564	7.0
45.579	7.0
45.594	6.0
45.609	7.0
45.624	10.0
45.639	3.0
45.654	2.0
45.669	4.0
45.684	10.0
45.699	2.0
45.714	5.0
45.729	3.0
45.744	2.0
45.759	3.0
45.774	5.0
45.789	8.0
45.804	6.0
45.819	3.0
45.834	3.0
45.849	10.0
45.864	10.0
45.879	5.0
45.894	12.0
45.909	12.0
45.924	7.0
45.939	14.0
45.954	15.0
45.969	19.0
45.984	17.0
45.998	18.0
46.013	10.0
46.028	11.0
46.043	18.0
46.058	5.0
46.073	6.0
46.088	10.0
46.103	4.0
46.118	4.0
46.133	9.0
46.148	9.0
46.163	10.0
46.178	6.0
46.192	12.0
46.207	6.0
46.222	9.0
46.237	14.0
46.252	13.0
46.267	10.0
46.282	20.0
46.297	13.0
46.312	10.0
46.327	8.0
46.341	5.0
46.356	11.0
46.371	8.0
46.386	6.0
46.401	3.0
46.416	7.0
46.431	2.0
46.446	6.0
46.46	5.0
46.475	9.0
46.49	14.0
46.505	4.0
46.52	4.0
46.535	4.0
46.55	5.0
46.564	2.0
46.579	6.0
46.594	5.0
46.609	9.0
46.624	6.0
46.639	1.0
46.654	8.0
46.668	4.0
46.683	3.0
46.698	6.0
46.713	4.0
46.728	8.0
46.743	2.0
46.758	3.0
46.772	3.0
46.787	9.0
46.802	4.0
46.817	3.0
46.832	4.0
46.847	8.0
46.861	7.0
46.876	1.0
46.891	6.0
46.906	5.0
46.921	3.0
46.936	2.0
46.95	12.0
46.965	4.0
46.98	5.0
46.995	5.0
47.01	4.0
47.025	7.0
47.039	9.0
47.054	10.0
47.069	11.0
47.084	9.0
47.099	14.0
47.113	11.0
47.128	7.0
47.143	14.0
47.158	8.0
47.173	7.0
47.188	9.0
47.202	9.0
47.217	7.0
47.232	9.0
47.247	8.0
47.262	5.0
47.277	4.0
47.291	4.0
47.306	5.0
47.321	1.0
47.336	4.0
47.351	3.0
47.365	11.0
47.38	9.0
47.395	5.0
47.41	9.0
47.425	8.0
47.44	6.0
47.454	12.0
47.469	7.0
47.484	6.0
47.499	3.0
47.514	2.0
47.528	6.0
47.543	4.0
47.558	4.0
47.573	8.0
47.588	4.0
47.603	7.0
47.617	3.0
47.632	6.0
47.647	4.0
47.662	5.0
47.677	8.0
47.691	4.0
47.706	7.0
47.721	3.0
47.736	6.0
47.751	4.0
47.766	9.0
47.78	5.0
47.795	3.0
47.81	7.0
47.825	6.0
47.84	8.0
47.855	2.0
47.869	6.0
47.884	7.0
47.899	9.0
47.914	4.0
47.929	6.0
47.944	4.0
47.958	4.0
47.973	11.0
47.988	7.0
48.003	7.0
48.018	5.0
48.033	4.0
48.047	2.0
48.062	3.0
48.077	5.0
48.092	10.0
48.107	5.0
48.122	2.0
48.137	3.0
48.151	5.0
48.166	6.0
48.181	8.0
48.196	3.0
48.211	9.0
48.226	5.0
48.241	1.0
48.255	6.0
48.27	6.0
48.285	2.0
48.3	3.0
48.315	2.0
48.33	1.0
48.345	4.0
48.359	2.0
48.374	6.0
48.389	13.0
48.404	7.0
48.419	5.0
48.434	7.0
48.449	1.0
48.464	2.0
48.478	9.0
48.493	8.0
48.508	3.0
48.523	2.0
48.538	4.0
48.553	6.0
48.568	3.0
48.583	1.0
48.597	7.0
48.612	5.0
48.627	3.0
48.642	2.0
48.657	6.0
48.672	2.0
48.687	4.0
48.702	6.0
48.717	7.0
48.731	9.0
48.746	5.0
48.761	8.0
48.776	1.0
48.791	5.0
48.806	2.0
48.821	6.0
48.836	3.0
48.851	4.0
48.866	7.0
48.88	5.0
48.895	3.0
48.91	1.0
48.925	4.0
48.94	8.0
48.955	2.0
48.97	8.0
48.985	7.0
49.0	2.0
49.015	3.0
49.03	3.0
49.044	2.0
49.059	4.0
49.074	4.0
49.089	4.0
49.104	3.0
49.119	7.0
49.134	5.0
49.149	5.0
49.164	8.0
49.179	9.0
49.194	3.0
49.209	8.0
49.224	8.0
49.238	5.0
49.253	7.0
49.268	1.0
49.283	5.0
49.298	7.0
49.313	4.0
49.328	6.0
49.343	9.0
49.358	7.0
49.373	11.0
49.388	7.0
49.403	8.0
49.418	8.0
49.433	7.0
49.448	7.0
49.463	7.0
49.478	6.0
49.492	6.0
49.507	4.0
49.522	3.0
49.537	7.0
49.552	6.0
49.567	9.0
49.582	7.0
49.597	8.0
49.612	6.0
49.627	7.0
49.642	5.0
49.657	10.0
49.672	8.0
49.687	6.0
49.702	9.0
49.717	5.0
49.732	5.0
49.747	9.0
49.762	6.0
49.777	5.0
49.792	9.0
49.807	6.0
49.822	5.0
49.837	6.0
49.852	5.0
49.867	8.0
49.882	2.0
49.897	1.0
49.912	11.0
49.927	7.0
49.942	4.0
49.957	6.0
49.971	6.0
49.986	4.0
50.001	9.0
50.016	5.0
50.031	4.0
50.046	4.0
50.061	6.0
50.076	4.0
50.091	5.0
50.106	9.0
50.121	3.0
50.136	5.0
50.151	4.0
50.166	5.0
50.181	6.0
50.196	10.0
50.211	3.0
50.226	4.0
50.241	8.0
50.256	8.0
50.271	5.0
50.286	12.0
50.302	8.0
50.317	5.0
50.332	3.0
50.347	4.0
50.362	4.0
50.377	1.0
50.392	8.0
50.407	3.0
50.422	12.0
50.437	14.0
50.452	11.0
50.467	7.0
50.482	11.0
50.497	5.0
50.512	10.0
50.527	7.0
50.542	4.0
50.557	9.0
50.572	6.0
50.587	7.0
50.602	6.0
50.617	5.0
50.632	9.0
50.647	7.0
50.662	3.0
50.677	3.0
50.692	4.0
50.707	6.0
50.722	7.0
50.737	3.0
50.752	3.0
50.767	2.0
50.782	3.0
50.797	5.0
50.812	5.0
50.828	8.0
50.843	5.0
50.858	5.0
50.873	10.0
50.888	5.0
50.903	10.0
50.918	5.0
50.933	7.0
50.948	6.0
50.963	8.0
50.978	9.0
50.993	9.0
51.008	2.0
51.023	6.0
51.038	3.0
51.053	5.0
51.068	8.0
51.083	6.0
51.098	4.0
51.114	4.0
51.129	3.0
51.144	0.0
51.159	8.0
51.174	4.0
51.189	4.0
51.204	3.0
51.219	5.0
51.234	6.0
51.249	4.0
51.264	7.0
51.279	3.0
51.294	5.0
51.309	5.0
51.324	4.0
51.34	7.0
51.355	3.0
51.37	9.0
51.385	3.0
51.4	8.0
51.415	9.0
51.43	11.0
51.445	13.0
51.46	10.0
51.475	13.0
51.49	9.0
51.505	14.0
51.52	21.0
51.535	14.0
51.551	20.0
51.566	11.0
51.581	16.0
51.596	11.0
51.611	7.0
51.626	14.0
51.641	11.0
51.656	8.0
51.671	10.0
51.686	8.0
51.701	9.0
51.716	5.0
51.732	3.0
51.747	3.0
51.762	9.0
51.777	11.0
51.792	13.0
51.807	11.0
51.822	5.0
51.837	14.0
51.852	15.0
51.867	8.0
51.882	13.0
51.898	12.0
51.913	4.0
51.928	5.0
51.943	4.0
51.958	8.0
51.973	8.0
51.988	6.0
52.003	3.0
52.018	2.0
52.033	7.0
52.048	3.0
52.064	2.0
52.079	8.0
52.094	5.0
52.109	6.0
52.124	3.0
52.139	5.0
52.154	4.0
52.169	4.0
52.184	6.0
52.199	4.0
52.215	2.0
52.23	8.0
52.245	3.0
52.26	5.0
52.275	7.0
52.29	6.0
52.305	6.0
52.32	8.0
52.335	2.0
52.35	6.0
52.366	1.0
52.381	7.0
52.396	4.0
52.411	8.0
52.426	6.0
52.441	6.0
52.456	6.0
52.471	4.0
52.486	8.0
52.502	7.0
52.517	13.0
52.532	14.0
52.547	8.0
52.562	13.0
52.577	8.0
52.592	10.0
52.607	7.0
52.622	6.0
52.637	7.0
52.653	8.0
52.668	6.0
52.683	7.0
52.698	8.0
52.713	6.0
52.728	9.0
52.743	8.0
52.758	4.0
52.774	1.0
52.789	8.0
52.804	6.0
52.819	4.0
52.834	2.0
52.849	8.0
52.864	7.0
52.879	12.0
52.894	6.0
52.91	4.0
52.925	9.0
52.94	6.0
52.955	9.0
52.97	8.0
52.985	4.0
53.0	8.0
53.015	11.0
53.031	9.0
53.046	8.0
53.061	2.0
53.076	5.0
53.091	2.0
53.106	8.0
53.121	3.0
53.136	3.0
53.152	4.0
53.167	5.0
53.182	3.0
53.197	5.0
53.212	4.0
53.227	4.0
53.242	6.0
53.257	5.0
53.273	5.0
53.288	6.0
53.303	5.0
53.318	3.0
53.333	3.0
53.348	3.0
53.363	2.0
53.379	3.0
53.394	3.0
53.409	4.0
53.424	5.0
53.439	4.0
53.454	2.0
53.469	2.0
53.484	7.0
53.5	5.0
53.515	5.0
53.53	2.0
53.545	3.0
53.56	3.0
53.575	4.0
53.59	4.0
53.606	3.0
53.621	7.0
53.636	4.0
53.651	4.0
53.666	4.0
53.681	6.0
53.696	6.0
53.712	3.0
53.727	2.0
53.742	1.0
53.757	1.0
53.772	7.0
53.787	7.0
53.802	3.0
53.818	5.0
53.833	4.0
53.848	3.0
53.863	5.0
53.878	3.0
53.893	5.0
53.909	6.0
53.924	1.0
53.939	4.0
53.954	7.0
53.969	9.0
53.984	3.0
53.999	6.0
54.015	6.0
54.03	3.0
54.045	6.0
54.06	3.0
54.075	5.0
54.09	1.0
54.106	2.0
54.121	5.0
54.136	2.0
54.151	2.0
54.166	3.0
54.181	4.0
54.197	4.0
54.212	1.0
54.227	1.0
54.242	2.0
54.257	2.0
54.272	3.0
54.288	3.0
54.303	4.0
54.318	4.0
54.333	6.0
54.348	6.0
54.363	6.0
54.379	7.0
54.394	4.0
54.409	5.0
54.424	4.0
54.439	5.0
54.454	7.0
54.47	5.0
54.485	7.0
54.5	4.0
54.515	8.0
54.53	4.0
54.545	16.0
54.561	8.0
54.576	6.0
54.591	6.0
54.606	13.0
54.621	17.0
54.636	9.0
54.652	14.0
54.667	10.0
54.682	13.0
54.697	11.0
54.712	15.0
54.727	10.0
54.743	8.0
54.758	11.0
54.773	2.0
54.788	5.0
54.803	10.0
54.819	9.0
54.834	6.0
54.849	5.0
54.864	8.0
54.879	2.0
54.894	7.0
54.91	8.0
54.925	9.0
54.94	6.0
54.955	9.0
54.97	5.0
54.985	10.0
55.001	9.0
55.016	11.0
55.031	6.0
55.046	9.0
55.061	14.0
55.077	6.0
55.092	9.0
55.107	3.0
55.122	6.0
55.137	6.0
55.152	4.0
55.168	2.0
55.183	5.0
55.198	6.0
55.213	6.0
55.228	5.0
55.243	9.0
55.259	3.0
55.274	4.0
55.289	2.0
55.304	3.0
55.319	8.0
55.335	7.0
55.35	3.0
55.365	3.0
55.38	2.0
55.395	8.0
55.41	6.0
55.426	3.0
55.441	7.0
55.456	5.0
55.471	11.0
55.486	4.0
55.501	5.0
55.517	6.0
55.532	2.0
55.547	2.0
55.562	7.0
55.577	13.0
55.592	8.0
55.608	11.0
55.623	6.0
55.638	11.0
55.653	8.0
55.668	6.0
55.683	7.0
55.699	5.0
55.714	7.0
55.729	5.0
55.744	3.0
55.759	5.0
55.774	4.0
55.79	3.0
55.805	8.0
55.82	4.0
55.835	3.0
55.85	4.0
55.865	5.0
55.881	6.0
55.896	9.0
55.911	1.0
55.926	5.0
55.941	4.0
55.956	4.0
55.972	7.0
55.987	15.0
56.002	1.0
56.017	4.0
56.032	4.0
56.047	8.0
56.063	12.0
56.078	10.0
56.093	4.0
56.108	3.0
56.123	3.0
56.138	6.0
56.154	3.0
56.169	5.0
56.184	5.0
56.199	5.0
56.214	2.0
56.229	3.0
56.244	4.0
56.26	5.0
56.275	3.0
56.29	2.0
56.305	5.0
56.32	3.0
56.335	3.0
56.351	3.0
56.366	1.0
56.381	4.0
56.396	6.0
56.411	3.0
56.426	3.0
56.441	5.0
56.457	5.0
56.472	5.0
56.487	6.0
56.502	3.0
56.517	4.0
56.532	1.0
56.547	10.0
56.563	2.0
56.578	7.0
56.593	7.0
56.608	6.0
56.623	5.0
56.638	7.0
56.653	2.0
56.668	6.0
56.684	7.0
56.699	2.0
56.714	1.0
56.729	7.0
56.744	5.0
56.759	5.0
56.774	3.0
56.79	8.0
56.805	1.0
56.82	4.0
56.835	3.0
56.85	9.0
56.865	2.0
56.88	4.0
56.895	4.0
56.911	6.0
56.926	4.0
56.941	4.0
56.956	1.0
56.971	3.0
56.986	2.0
57.001	3.0
57.016	7.0
57.031	5.0
57.047	3.0
57.062	1.0
57.077	4.0
57.092	2.0
57.107	2.0
57.122	1.0
57.137	6.0
57.152	5.0
57.167	2.0
57.183	3.0
57.198	4.0
57.213	5.0
57.228	4.0
57.243	5.0
57.258	6.0
57.273	5.0
57.288	3.0
57.303	5.0
57.318	5.0
57.334	2.0
57.349	5.0
57.364	3.0
57.379	4.0
57.394	2.0
57.409	1.0
57.424	3.0
57.439	6.0
57.454	3.0
57.469	5.0
57.484	4.0
57.5	9.0
57.515	3.0
57.53	6.0
57.545	3.0
57.56	5.0
57.575	3.0
57.59	6.0
57.605	7.0
57.62	6.0
57.635	2.0
57.65	9.0
57.665	5.0
57.68	6.0
57.696	6.0
57.711	5.0
57.726	4.0
57.741	5.0
57.756	3.0
57.771	5.0
57.786	1.0
57.801	0.0
57.816	2.0
57.831	4.0
57.846	3.0
57.861	8.0
57.876	6.0
57.891	4.0
57.906	2.0
57.921	4.0
57.937	1.0
57.952	6.0
57.967	3.0
57.982	7.0
57.997	4.0
58.012	6.0
58.027	8.0
58.042	6.0
58.057	1.0
58.072	4.0
58.087	2.0
58.102	6.0
58.117	4.0
58.132	3.0
58.147	6.0
58.162	8.0
58.177	7.0
58.192	6.0
58.207	6.0
58.222	8.0
58.237	0.0
58.252	4.0
58.267	4.0
58.282	6.0
58.297	7.0
58.312	6.0
58.327	2.0
58.342	6.0
58.357	3.0
58.372	6.0
58.387	7.0
58.402	6.0
58.418	2.0
58.433	2.0
58.448	3.0
58.463	3.0
58.478	4.0
58.493	11.0
58.508	6.0
58.523	2.0
58.538	5.0
58.553	8.0
58.568	6.0
58.583	9.0
58.598	10.0
58.613	4.0
58.628	9.0
58.643	13.0
58.658	9.0
58.673	6.0
58.688	8.0
58.703	10.0
58.718	7.0
58.733	5.0
58.748	9.0
58.763	6.0
58.778	1.0
58.793	5.0
58.808	6.0
58.823	5.0
58.838	6.0
58.853	3.0
58.868	3.0
58.883	5.0
58.898	8.0
58.913	2.0
58.928	3.0
58.942	7.0
58.957	4.0
58.972	5.0
58.987	4.0
59.002	5.0
59.017	11.0
59.032	9.0
59.047	7.0
59.062	3.0
59.077	2.0
59.092	7.0
59.107	6.0
59.122	5.0
59.137	10.0
59.152	2.0
59.167	4.0
59.182	7.0
59.197	4.0
59.212	4.0
59.227	5.0
59.242	7.0
59.257	4.0
59.272	2.0
59.287	5.0
59.302	5.0
59.317	7.0
59.332	7.0
59.347	5.0
59.362	4.0
59.377	4.0
59.392	4.0
59.407	9.0
59.422	4.0
59.437	4.0
59.452	6.0
59.467	7.0
59.482	8.0
59.497	11.0
59.512	9.0
59.527	7.0
59.542	4.0
59.557	3.0
59.572	8.0
59.587	9.0
59.602	11.0
59.617	9.0
59.632	10.0
59.647	6.0
59.661	4.0
59.676	6.0
59.691	4.0
59.706	6.0
59.721	3.0
59.736	5.0
59.751	1.0
59.766	4.0
59.781	5.0
59.796	5.0
59.811	2.0
59.826	4.0
59.841	6.0
59.856	4.0
59.871	4.0
59.886	3.0
59.901	5.0
59.916	4.0
59.931	6.0
59.946	9.0
59.961	3.0
59.976	4.0
59.991	4.0
60.006	7.0
60.021	11.0
60.036	8.0
60.051	5.0
60.066	6.0
60.081	3.0
60.096	4.0
60.111	3.0
60.126	7.0
60.141	1.0
60.156	5.0
60.171	1.0
60.186	2.0
60.201	5.0
60.216	5.0
60.231	2.0
60.246	2.0
60.261	2.0
60.276	5.0
60.291	2.0
60.306	2.0
60.321	2.0
60.336	3.0
60.35	5.0
60.365	6.0
60.38	2.0
60.395	3.0
60.41	3.0
60.425	3.0
60.44	5.0
60.455	3.0
60.47	6.0
60.485	4.0
60.5	6.0
60.515	2.0
60.53	7.0
60.545	7.0
60.56	5.0
60.575	10.0
60.59	12.0
60.605	8.0
60.62	8.0
60.635	3.0
60.65	6.0
60.665	2.0
60.68	2.0
60.695	2.0
60.71	3.0
60.725	5.0
60.74	5.0
60.755	6.0
60.77	2.0
60.785	5.0
60.8	5.0
60.815	1.0
60.83	3.0
60.845	5.0
60.86	3.0
60.875	7.0
60.89	2.0
60.905	4.0
60.92	5.0
60.935	11.0
60.95	11.0
60.965	5.0
60.98	5.0
60.995	5.0
61.01	11.0
61.025	2.0
61.04	9.0
61.055	2.0
61.07	2.0
61.085	4.0
61.1	3.0
61.115	3.0
61.13	2.0
61.145	1.0
61.16	4.0
61.175	2.0
61.191	1.0
61.206	2.0
61.221	1.0
61.236	2.0
61.251	4.0
61.266	1.0
61.281	5.0
61.296	2.0
61.311	2.0
61.326	1.0
61.341	2.0
61.356	6.0
61.371	2.0
61.386	4.0
61.401	4.0
61.416	4.0
61.431	5.0
61.446	5.0
61.461	1.0
61.476	0.0
61.491	5.0
61.506	7.0
61.521	13.0
61.536	8.0
61.551	2.0
61.566	3.0
61.581	1.0
61.596	3.0
61.611	10.0
61.626	3.0
61.641	5.0
61.656	5.0
61.672	4.0
61.687	2.0
61.702	4.0
61.717	3.0
61.732	2.0
61.747	5.0
61.762	2.0
61.777	5.0
61.792	3.0
61.807	6.0
61.822	2.0
61.837	2.0
61.852	7.0
61.867	3.0
61.882	4.0
61.897	5.0
61.912	1.0
61.927	4.0
61.943	3.0
61.958	8.0
61.973	5.0
61.988	2.0
62.003	3.0
62.018	3.0
62.033	4.0
62.048	1.0
62.063	4.0
62.078	4.0
62.093	1.0
62.108	3.0
62.123	2.0
62.138	3.0
62.153	3.0
62.169	3.0
62.184	7.0
62.199	6.0
62.214	3.0
62.229	2.0
62.244	1.0
62.259	4.0
62.274	5.0
62.289	3.0
62.304	2.0
62.319	3.0
62.335	1.0
62.35	1.0
62.365	4.0
62.38	2.0
62.395	3.0
62.41	6.0
62.425	3.0
62.44	3.0
62.455	5.0
62.47	6.0
62.485	4.0
62.501	11.0
62.516	4.0
62.531	5.0
62.546	4.0
62.561	3.0
62.576	4.0
62.591	1.0
62.606	4.0
62.621	4.0
62.636	4.0
62.652	5.0
62.667	6.0
62.682	4.0
62.697	5.0
62.712	4.0
62.727	2.0
62.742	1.0
62.757	2.0
62.772	4.0
62.787	4.0
62.803	2.0
62.818	4.0
62.833	4.0
62.848	1.0
62.863	6.0
62.878	6.0
62.893	5.0
62.908	4.0
62.923	3.0
62.939	4.0
62.954	7.0
62.969	3.0
62.984	1.0
62.999	1.0
63.014	4.0
63.029	2.0
63.044	3.0
63.059	4.0
63.074	5.0
63.09	5.0
63.105	9.0
63.12	9.0
63.135	6.0
63.15	6.0
63.165	2.0
63.18	3.0
63.195	2.0
63.21	5.0
63.226	4.0
63.241	6.0
63.256	5.0
63.271	2.0
63.286	4.0
63.301	3.0
63.316	3.0
63.331	5.0
63.346	6.0
63.362	10.0
63.377	8.0
63.392	8.0
63.407	5.0
63.422	4.0
63.437	9.0
63.452	6.0
63.467	4.0
63.482	4.0
63.497	6.0
63.513	2.0
63.528	3.0
63.543	4.0
63.558	2.0
63.573	8.0
63.588	5.0
63.603	5.0
63.618	6.0
63.633	3.0
63.648	4.0
63.664	5.0
63.679	4.0
63.694	3.0
63.709	5.0
63.724	3.0
63.739	5.0
63.754	3.0
63.769	0.0
63.784	5.0
63.799	4.0
63.814	4.0
63.83	2.0
63.845	9.0
63.86	2.0
63.875	5.0
63.89	5.0
63.905	8.0
63.92	6.0
63.935	5.0
63.95	4.0
63.965	2.0
63.98	3.0
63.996	0.0
64.011	6.0
64.026	5.0
64.041	0.0
64.056	2.0
64.071	4.0
64.086	3.0
64.101	7.0
64.116	1.0
64.131	5.0
64.146	5.0
64.161	2.0
64.176	6.0
64.191	2.0
64.207	3.0
64.222	2.0
64.237	10.0
64.252	1.0
64.267	5.0
64.282	4.0
64.297	6.0
64.312	2.0
64.327	3.0
64.342	4.0
64.357	4.0
64.372	2.0
64.387	4.0
64.402	7.0
64.417	7.0
64.433	4.0
64.448	6.0
64.463	4.0
64.478	3.0
64.493	7.0
64.508	4.0
64.523	4.0
64.538	8.0
64.553	6.0
64.568	1.0
64.583	5.0
64.598	3.0
64.613	4.0
64.628	2.0
64.643	2.0
64.658	2.0
64.673	4.0
64.688	3.0
64.703	6.0
64.718	2.0
64.734	3.0
64.749	4.0
64.764	3.0
64.779	4.0
64.794	6.0
64.809	0.0
64.824	5.0
64.839	2.0
64.854	0.0
64.869	2.0
64.884	2.0
64.899	7.0
64.914	2.0
64.929	7.0
64.944	2.0
64.959	2.0
64.974	5.0
64.989	8.0
65.004	4.0
65.019	8.0
65.034	3.0
65.049	7.0
65.064	6.0
65.079	6.0
65.094	7.0
65.109	5.0
65.125	0.0
65.14	1.0
65.155	2.0
65.17	3.0
65.185	4.0
65.2	2.0
65.215	6.0
65.23	6.0
65.245	5.0
65.26	5.0
65.275	4.0
65.29	7.0
65.305	3.0
65.32	7.0
65.335	9.0
65.35	4.0
65.365	0.0
65.38	3.0
65.395	2.0
65.41	7.0
65.425	7.0
65.44	4.0
65.455	0.0
65.47	4.0
65.485	4.0
65.5	2.0
65.515	5.0
65.53	7.0
65.545	8.0
65.56	8.0
65.575	6.0
65.59	4.0
65.605	3.0
65.62	4.0
65.635	5.0
65.65	4.0
65.666	2.0
65.681	4.0
65.696	5.0
65.711	5.0
65.726	2.0
65.741	4.0
65.756	4.0
65.771	8.0
65.786	6.0
65.801	9.0
65.816	7.0
65.831	2.0
65.846	3.0
65.861	4.0
65.876	6.0
65.891	2.0
65.906	2.0
65.921	2.0
65.936	4.0
65.951	3.0
65.966	2.0
65.981	5.0
65.996	1.0
66.011	2.0
66.026	1.0
66.041	5.0
66.056	2.0
66.071	6.0
66.086	5.0
66.101	7.0
66.116	6.0
66.131	6.0
66.146	9.0
66.161	7.0
66.176	6.0
66.191	7.0
66.206	8.0
66.221	9.0
66.236	8.0
66.251	3.0
66.266	12.0
66.281	6.0
66.296	9.0
66.311	2.0
66.327	8.0
66.342	6.0
66.357	2.0
66.372	5.0
66.387	3.0
66.402	1.0
66.417	3.0
66.432	3.0
66.447	3.0
66.462	2.0
66.477	5.0
66.492	6.0
66.507	6.0
66.522	5.0
66.537	8.0
66.552	6.0
66.567	9.0
66.582	4.0
66.597	6.0
66.612	7.0
66.627	5.0
66.642	7.0
66.657	8.0
66.672	5.0
66.687	7.0
66.702	5.0
66.717	1.0
66.732	4.0
66.747	2.0
66.762	5.0
66.777	2.0
66.792	3.0
66.807	2.0
66.822	2.0
66.837	1.0
66.853	4.0
66.868	3.0
66.883	2.0
66.898	6.0
66.913	4.0
66.928	4.0
66.943	3.0
66.958	1.0
66.973	3.0
66.988	3.0
67.003	3.0
67.018	4.0
67.033	4.0
67.048	7.0
67.063	8.0
67.078	3.0
67.093	3.0
67.108	4.0
67.123	2.0
67.138	4.0
67.153	2.0
67.168	4.0
67.183	4.0
67.198	4.0
67.214	4.0
67.229	2.0
67.244	3.0
67.259	2.0
67.274	4.0
67.289	4.0
67.304	5.0
67.319	3.0
67.334	2.0
67.349	1.0
67.364	6.0
67.379	2.0
67.394	3.0
67.409	3.0
67.424	3.0
67.439	5.0
67.454	2.0
67.469	2.0
67.484	3.0
67.5	5.0
67.515	6.0
67.53	3.0
67.545	2.0
67.56	6.0
67.575	4.0
67.59	6.0
67.605	4.0
67.62	4.0
67.635	4.0
67.65	3.0
67.665	2.0
67.68	1.0
67.695	2.0
67.71	4.0
67.726	1.0
67.741	6.0
67.756	5.0
67.771	1.0
67.786	3.0
67.801	3.0
67.816	2.0
67.831	3.0
67.846	2.0
67.861	1.0
67.876	7.0
67.891	3.0
67.906	5.0
67.922	5.0
67.937	2.0
67.952	2.0
67.967	5.0
67.982	5.0
67.997	4.0
68.012	3.0
68.027	3.0
68.042	3.0
68.057	4.0
68.072	5.0
68.087	6.0
68.103	2.0
68.118	7.0
68.133	5.0
68.148	5.0
68.163	1.0
68.178	4.0
68.193	3.0
68.208	2.0
68.223	7.0
68.238	2.0
68.254	5.0
68.269	2.0
68.284	1.0
68.299	2.0
68.314	1.0
68.329	2.0
68.344	6.0
68.359	6.0
68.374	2.0
68.389	2.0
68.405	7.0
68.42	1.0
68.435	4.0
68.45	4.0
68.465	0.0
68.48	8.0
68.495	9.0
68.51	5.0
68.525	6.0
68.54	5.0
68.556	3.0
68.571	0.0
68.586	5.0
68.601	4.0
68.616	1.0
68.631	2.0
68.646	4.0
68.661	5.0
68.676	8.0
68.691	3.0
68.707	5.0
68.722	3.0
68.737	1.0
68.752	7.0
68.767	2.0
68.782	2.0
68.797	6.0
68.812	7.0
68.827	5.0
68.842	4.0
68.857	0.0
68.873	4.0
68.888	6.0
68.903	2.0
68.918	4.0
68.933	4.0
68.948	1.0
68.963	3.0
68.978	4.0
68.993	1.0
69.008	2.0
69.023	1.0
69.038	4.0
69.054	5.0
69.069	4.0
69.084	1.0
69.099	3.0
69.114	3.0
69.129	3.0
69.144	3.0
69.159	2.0
69.174	1.0
69.189	3.0
69.204	1.0
69.219	0.0
69.234	3.0
69.249	4.0
69.264	1.0
69.279	3.0
69.295	2.0
69.31	2.0
69.325	4.0
69.34	3.0
69.355	2.0
69.37	3.0
69.385	3.0
69.4	6.0
69.415	3.0
69.43	3.0
69.445	3.0
69.46	3.0
69.475	4.0
69.49	2.0
69.505	4.0
69.52	3.0
69.535	4.0
69.55	4.0
69.565	3.0
69.58	8.0
69.595	4.0
69.61	2.0
69.625	7.0
69.64	5.0
69.655	4.0
69.67	6.0
69.685	6.0
69.7	4.0
69.715	4.0
69.73	8.0
69.745	5.0
69.76	5.0
69.775	10.0
69.79	9.0
69.805	8.0
69.82	2.0
69.835	6.0
69.85	11.0
69.865	10.0
69.88	2.0
69.895	7.0
69.909	3.0
69.924	5.0
69.939	2.0
69.954	1.0
69.969	3.0
69.984	2.0
69.999	7.0
70.014	4.0
70.029	1.0
70.044	6.0
70.059	2.0
70.074	6.0
70.088	2.0
70.103	2.0
70.118	4.0
70.133	1.0
70.148	5.0
70.163	4.0
70.178	2.0
70.193	3.0
70.208	5.0
70.222	7.0
70.237	3.0
70.252	9.0
70.267	4.0
70.282	5.0
70.297	4.0
70.312	7.0
70.327	9.0
70.341	5.0
70.356	5.0
70.371	9.0
70.386	4.0
70.401	5.0
70.416	2.0
70.43	6.0
70.445	4.0
70.46	3.0
70.475	5.0
70.49	3.0
70.505	2.0
70.519	4.0
70.534	4.0
70.549	3.0
70.564	2.0
70.579	3.0
70.594	6.0
70.608	4.0
70.623	5.0
70.638	7.0
70.653	4.0
70.668	6.0
70.683	8.0
70.697	7.0
70.712	5.0
70.727	7.0
70.742	5.0
70.757	6.0
70.771	6.0
70.786	5.0
70.801	1.0
70.816	4.0
70.831	2.0
70.845	2.0
70.86	3.0
70.875	3.0
70.89	2.0
70.905	4.0
70.92	0.0
70.934	5.0
70.949	2.0
70.964	4.0
70.979	5.0
70.994	1.0
71.008	3.0
71.023	1.0
71.038	2.0
71.053	1.0
71.068	1.0
71.082	2.0
71.097	6.0
71.112	4.0
71.127	2.0
71.142	6.0
71.156	4.0
71.171	5.0
71.186	3.0
71.201	4.0
71.216	4.0
71.231	2.0
71.245	3.0
71.26	5.0
71.275	3.0
71.29	4.0
71.305	2.0
71.319	3.0
71.334	3.0
71.349	1.0
71.364	5.0
71.379	4.0
71.394	4.0
71.408	8.0
71.423	4.0
71.438	4.0
71.453	3.0
71.468	2.0
71.483	2.0
71.497	2.0
71.512	2.0
71.527	3.0
71.542	2.0
71.557	3.0
71.572	3.0
71.586	7.0
71.601	5.0
71.616	1.0
71.631	4.0
71.646	4.0
71.661	4.0
71.676	4.0
71.69	2.0
71.705	2.0
71.72	3.0
71.735	2.0
71.75	2.0
71.765	4.0
71.78	5.0
71.795	3.0
71.81	5.0
71.824	4.0
71.839	1.0
71.854	3.0
71.869	3.0
71.884	6.0
71.899	3.0
71.914	3.0
71.929	1.0
71.944	4.0
71.959	5.0
71.974	2.0
71.988	5.0
72.003	3.0
72.018	2.0
72.033	5.0
72.048	5.0
72.063	5.0
72.078	3.0
72.093	1.0
72.108	4.0
72.123	2.0
72.138	4.0
72.153	4.0
72.168	2.0
72.183	2.0
72.198	1.0
72.213	2.0
72.228	2.0
72.243	5.0
72.258	7.0
72.273	3.0
72.288	1.0
72.303	2.0
72.318	4.0
72.333	1.0
72.348	2.0
72.363	3.0
72.378	5.0
72.393	4.0
72.408	8.0
72.423	1.0
72.438	3.0
72.453	3.0
72.468	2.0
72.483	5.0
72.498	2.0
72.513	6.0
72.528	2.0
72.543	6.0
72.558	1.0
72.573	2.0
72.588	4.0
72.603	3.0
72.618	1.0
72.633	4.0
72.649	2.0
72.664	7.0
72.679	3.0
72.694	4.0
72.709	3.0
72.724	1.0
72.739	4.0
72.754	6.0
72.769	5.0
72.784	2.0
72.799	2.0
72.814	4.0
72.829	2.0
72.845	3.0
72.86	4.0
72.875	3.0
72.89	4.0
72.905	2.0
72.92	0.0
72.935	6.0
72.95	4.0
72.965	2.0
72.98	8.0
72.996	2.0
73.011	3.0
73.026	0.0
73.041	1.0
73.056	4.0
73.071	3.0
73.086	1.0
73.101	4.0
73.117	4.0
73.132	2.0
73.147	5.0
73.162	2.0
73.177	4.0
73.192	2.0
73.207	3.0
73.222	1.0
73.238	2.0
73.253	2.0
73.268	4.0
73.283	7.0
73.298	3.0
73.313	3.0
73.328	2.0
73.343	2.0
73.359	6.0
73.374	6.0
73.389	4.0
73.404	4.0
73.419	4.0
73.434	3.0
73.449	9.0
73.465	6.0
73.48	3.0
73.495	3.0
73.51	0.0
73.525	4.0
73.54	4.0
73.556	2.0
73.571	3.0
73.586	1.0
73.601	3.0
73.616	2.0
73.631	5.0
73.646	2.0
73.662	8.0
73.677	6.0
73.692	3.0
73.707	1.0
73.722	0.0
73.737	3.0
73.752	5.0
73.768	5.0
73.783	6.0
73.798	6.0
73.813	5.0
73.828	3.0
73.843	3.0
73.859	2.0
73.874	5.0
73.889	1.0
73.904	6.0
73.919	5.0
73.934	3.0
73.949	6.0
73.965	4.0
73.98	2.0
73.995	2.0
74.01	2.0
74.025	4.0
74.04	4.0
74.056	5.0
74.071	3.0
74.086	3.0
74.101	7.0
74.116	5.0
74.131	6.0
74.146	2.0
74.162	4.0
74.177	7.0
74.192	11.0
74.207	5.0
74.222	8.0
74.237	5.0
74.252	10.0
74.268	6.0
74.283	2.0
74.298	3.0
74.313	2.0
74.328	3.0
74.343	5.0
74.358	4.0
74.374	2.0
74.389	0.0
74.404	2.0
74.419	2.0
74.434	3.0
74.449	4.0
74.464	4.0
74.48	2.0
74.495	5.0
74.51	2.0
74.525	1.0
74.54	1.0
74.555	1.0
74.57	3.0
74.586	1.0
74.601	4.0
74.616	6.0
74.631	5.0
74.646	6.0
74.661	3.0
74.676	2.0
74.691	6.0
74.707	4.0
74.722	4.0
74.737	7.0
74.752	2.0
74.767	9.0
74.782	3.0
74.797	5.0
74.813	2.0
74.828	4.0
74.843	3.0
74.858	4.0
74.873	2.0
74.888	4.0
74.903	1.0
74.918	2.0
74.934	3.0
74.949	4.0
74.964	2.0
74.979	4.0
74.994	7.0
75.009	8.0
75.024	4.0
75.04	5.0
75.055	5.0
75.07	5.0
75.085	5.0
75.1	3.0
75.115	5.0
75.13	3.0
75.145	1.0
75.161	7.0
75.176	5.0
75.191	0.0
75.206	4.0
75.221	3.0
75.236	5.0
75.251	6.0
75.266	3.0
75.282	3.0
75.297	2.0
75.312	2.0
75.327	2.0
75.342	9.0
75.357	2.0
75.372	1.0
75.387	1.0
75.403	3.0
75.418	2.0
75.433	3.0
75.448	3.0
75.463	8.0
75.478	3.0
75.493	4.0
75.509	3.0
75.524	3.0
75.539	3.0
75.554	2.0
75.569	4.0
75.584	5.0
75.599	2.0
75.614	4.0
75.63	3.0
75.645	0.0
75.66	3.0
75.675	3.0
75.69	3.0
75.705	4.0
75.72	3.0
75.735	3.0
75.751	3.0
75.766	2.0
75.781	2.0
75.796	3.0
75.811	3.0
75.826	2.0
75.841	3.0
75.856	6.0
75.872	1.0
75.887	2.0
75.902	1.0
75.917	2.0
75.932	2.0
75.947	1.0
75.962	7.0
75.977	3.0
75.993	4.0
76.008	4.0
76.023	1.0
76.038	6.0
76.053	2.0
76.068	1.0
76.083	7.0
76.098	10.0
76.114	3.0
76.129	2.0
76.144	1.0
76.159	3.0
76.174	7.0
76.189	3.0
76.204	2.0
76.22	3.0
76.235	1.0
76.25	4.0
76.265	3.0
76.28	1.0
76.295	4.0
76.31	5.0
76.325	3.0
76.341	9.0
76.356	2.0
76.371	4.0
76.386	2.0
76.401	2.0
76.416	1.0
76.431	3.0
76.446	2.0
76.462	1.0
76.477	7.0
76.492	5.0
76.507	4.0
76.522	6.0
76.537	1.0
76.552	7.0
76.567	3.0
76.583	2.0
76.598	4.0
76.613	5.0
76.628	1.0
76.643	4.0
76.658	5.0
76.673	4.0
76.688	4.0
76.704	1.0
76.719	3.0
76.734	2.0
76.749	5.0
76.764	2.0
76.779	5.0
76.794	5.0
76.809	5.0
76.824	3.0
76.84	4.0
76.855	2.0
76.87	3.0
76.885	3.0
76.9	6.0
76.915	6.0
76.93	2.0
76.945	3.0
76.96	4.0
76.976	1.0
76.991	2.0
77.006	2.0
77.021	3.0
77.036	4.0
77.051	5.0
77.066	3.0
77.081	2.0
77.096	2.0
77.112	4.0
77.127	1.0
77.142	3.0
77.157	3.0
77.172	2.0
77.187	3.0
77.202	8.0
77.217	5.0
77.232	3.0
77.247	5.0
77.263	7.0
77.278	5.0
77.293	4.0
77.308	1.0
77.323	3.0
77.338	4.0
77.353	2.0
77.368	7.0
77.383	5.0
77.398	4.0
77.413	2.0
77.428	6.0
77.444	7.0
77.459	0.0
77.474	6.0
77.489	2.0
77.504	2.0
77.519	2.0
77.534	6.0
77.549	4.0
77.564	3.0
77.579	8.0
77.594	4.0
77.609	4.0
77.624	3.0
77.64	6.0
77.655	4.0
77.67	5.0
77.685	6.0
77.7	4.0
77.715	0.0
77.73	2.0
77.745	2.0
77.76	2.0
77.775	2.0
77.79	6.0
77.805	3.0
77.82	1.0
77.835	3.0
77.85	3.0
77.865	3.0
77.88	5.0
77.895	2.0
77.91	3.0
77.926	2.0
77.941	5.0
77.956	1.0
77.971	3.0
77.986	5.0
78.001	0.0
78.016	7.0
78.031	1.0
78.046	2.0
78.061	4.0
78.076	11.0
78.091	5.0
78.106	3.0
78.121	7.0
78.136	3.0
78.151	3.0
78.166	3.0
78.181	4.0
78.196	5.0
78.211	3.0
78.226	4.0
78.241	9.0
78.256	5.0
78.271	2.0
78.286	1.0
78.301	3.0
78.316	2.0
78.331	1.0
78.346	2.0
78.361	7.0
78.376	4.0
78.391	5.0
78.406	3.0
78.421	4.0
78.436	2.0
78.451	2.0
78.466	6.0
78.481	4.0
78.496	3.0
78.511	3.0
78.526	3.0
78.541	3.0
78.556	4.0
78.571	1.0
78.586	6.0
78.601	4.0
78.616	7.0
78.631	1.0
78.646	4.0
78.661	5.0
78.676	1.0
78.691	2.0
78.706	4.0
78.721	1.0
78.736	3.0
78.751	1.0
78.766	1.0
78.781	3.0
78.796	4.0
78.811	3.0
78.826	5.0
78.841	2.0
78.856	3.0
78.871	2.0
78.885	1.0
78.9	2.0
78.915	2.0
78.93	3.0
78.945	2.0
78.96	1.0
78.975	1.0
78.99	1.0
79.005	4.0
79.02	4.0
79.035	4.0
79.05	2.0
79.065	5.0
79.08	5.0
79.095	2.0
79.11	2.0
79.125	2.0
79.14	1.0
79.155	4.0
79.17	2.0
79.185	3.0
79.2	3.0
79.215	4.0
79.23	5.0
79.245	4.0
79.26	2.0
79.275	6.0
79.29	6.0
79.304	0.0
79.319	4.0
79.334	4.0
79.349	3.0
79.364	2.0
79.379	4.0
79.394	1.0
79.409	3.0
79.424	3.0
79.439	2.0
79.454	4.0
79.469	5.0
79.484	2.0
79.499	1.0
79.514	3.0
79.529	2.0
79.544	3.0
79.559	2.0
79.574	7.0
79.589	0.0
79.604	4.0
79.619	3.0
79.634	2.0
79.649	4.0
79.664	4.0
79.679	2.0
79.693	4.0
79.708	6.0
79.723	3.0
79.738	3.0
79.753	0.0
79.768	1.0
79.783	4.0
79.798	1.0
79.813	6.0
79.828	2.0
79.843	0.0
79.858	1.0
79.873	2.0
79.888	2.0
79.903	3.0
79.918	4.0
79.933	2.0
79.948	1.0
79.963	4.0
79.978	5.0
79.993	1.0
80.008	4.0
80.023	2.0
80.038	2.0
80.053	2.0
80.068	2.0
80.083	6.0
80.098	1.0
80.113	6.0
80.128	4.0
80.143	6.0
80.158	1.0
80.173	2.0
80.188	3.0
80.202	4.0
80.217	4.0
80.232	1.0
80.247	2.0
80.262	3.0
80.277	1.0
80.292	6.0
80.307	0.0
80.322	4.0
80.337	5.0
80.352	2.0
80.367	5.0
80.382	4.0
80.397	0.0
80.412	1.0
80.427	4.0
80.442	6.0
80.457	3.0
80.472	2.0
80.487	3.0
80.502	3.0
80.517	4.0
80.532	1.0
80.547	2.0
80.562	2.0
80.577	6.0
80.592	8.0
80.607	4.0
80.622	3.0
80.637	1.0
80.652	2.0
80.667	4.0
80.682	6.0
80.697	8.0
80.712	2.0
80.727	1.0
80.742	2.0
80.757	6.0
80.772	2.0
80.787	1.0
80.802	0.0
80.817	7.0
80.832	5.0
80.847	1.0
80.862	4.0
80.877	1.0
80.892	4.0
80.907	1.0
80.922	5.0
80.937	1.0
80.952	6.0
80.967	3.0
80.982	1.0
80.997	5.0
81.012	1.0
81.027	5.0
81.042	2.0
81.057	4.0
81.072	5.0
81.087	2.0
81.101	4.0
81.116	1.0
81.131	2.0
81.146	4.0
81.161	6.0
81.176	1.0
81.191	1.0
81.206	2.0
81.221	5.0
81.236	2.0
81.251	4.0
81.266	4.0
81.281	6.0
81.296	4.0
81.311	5.0
81.326	3.0
81.341	2.0
81.356	1.0
81.371	1.0
81.386	5.0
81.401	6.0
81.416	2.0
81.431	2.0
81.446	3.0
81.461	4.0
81.476	0.0
81.491	1.0
81.506	1.0
81.521	2.0
81.536	3.0
81.55	5.0
81.565	2.0
81.58	2.0
81.595	4.0
81.61	1.0
81.625	4.0
81.64	6.0
81.655	2.0
81.67	2.0
81.685	6.0
81.7	4.0
81.715	3.0
81.73	3.0
81.745	2.0
81.76	3.0
81.775	3.0
81.79	5.0
81.805	5.0
81.819	3.0
81.834	3.0
81.849	2.0
81.864	6.0
81.879	4.0
81.894	4.0
81.909	6.0
81.924	4.0
81.939	4.0
81.954	1.0
81.969	2.0
81.984	3.0
81.999	6.0
82.013	2.0
82.028	3.0
82.043	2.0
82.058	5.0
82.073	1.0
82.088	4.0
82.103	1.0
82.118	1.0
82.133	4.0
82.148	3.0
82.163	5.0
82.177	3.0
82.192	0.0
82.207	3.0
82.222	1.0
82.237	2.0
82.252	2.0
82.267	2.0
82.282	4.0
82.297	2.0
82.312	2.0
82.326	2.0
82.341	1.0
82.356	2.0
82.371	4.0
82.386	1.0
82.401	3.0
82.416	3.0
82.431	2.0
82.445	4.0
82.46	2.0
82.475	1.0
82.49	3.0
82.505	1.0
82.52	4.0
82.535	2.0
82.55	2.0
82.565	5.0
82.579	4.0
82.594	5.0
82.609	2.0
82.624	0.0
82.639	6.0
82.654	3.0
82.669	2.0
82.684	1.0
82.698	2.0
82.713	1.0
82.728	0.0
82.743	0.0
82.758	3.0
82.773	4.0
82.788	1.0
82.803	2.0
82.817	4.0
82.832	1.0
82.847	3.0
82.862	5.0
82.877	3.0
82.892	3.0
82.907	4.0
82.922	1.0
82.937	3.0
82.951	3.0
82.966	0.0
82.981	4.0
82.996	4.0
83.011	5.0
83.026	3.0
83.041	0.0
83.056	4.0
83.07	3.0
83.085	3.0
83.1	6.0
83.115	4.0
83.13	1.0
83.145	4.0
83.16	7.0
83.175	4.0
83.19	2.0
83.204	2.0
83.219	3.0
83.234	2.0
83.249	2.0
83.264	4.0
83.279	3.0
83.294	5.0
83.309	2.0
83.324	0.0
83.339	0.0
83.353	3.0
83.368	1.0
83.383	3.0
83.398	4.0
83.413	2.0
83.428	3.0
83.443	2.0
83.458	3.0
83.473	5.0
83.488	2.0
83.503	5.0
83.517	6.0
83.532	0.0
83.547	7.0
83.562	4.0
83.577	4.0
83.592	5.0
83.607	1.0
83.622	1.0
83.637	1.0
83.652	4.0
83.667	1.0
83.682	3.0
83.697	5.0
83.712	3.0
83.727	8.0
83.741	2.0
83.756	2.0
83.771	0.0
83.786	6.0
83.801	6.0
83.816	3.0
83.831	1.0
83.846	4.0
83.861	4.0
83.876	1.0
83.891	6.0
83.906	4.0
83.921	2.0
83.936	0.0
83.951	3.0
83.966	3.0
83.981	3.0
83.996	3.0
84.011	3.0
84.026	0.0
84.041	3.0
84.056	6.0
84.071	6.0
84.086	4.0
84.101	4.0
84.116	3.0
84.131	2.0
84.146	6.0
84.161	0.0
84.176	3.0
84.191	2.0
84.206	2.0
84.221	6.0
84.236	6.0
84.251	2.0
84.266	3.0
84.281	5.0
84.296	4.0
84.311	0.0
84.326	3.0
84.341	3.0
84.356	3.0
84.371	2.0
84.386	10.0
84.401	3.0
84.416	4.0
84.431	2.0
84.446	4.0
84.461	6.0
84.476	3.0
84.492	3.0
84.507	4.0
84.522	2.0
84.537	2.0
84.552	2.0
84.567	1.0
84.582	3.0
84.597	2.0
84.612	2.0
84.627	4.0
84.642	3.0
84.657	3.0
84.672	3.0
84.687	3.0
84.702	7.0
84.717	1.0
84.733	4.0
84.748	2.0
84.763	4.0
84.778	7.0
84.793	5.0
84.808	1.0
84.823	5.0
84.838	3.0
84.853	1.0
84.868	4.0
84.883	0.0
84.898	5.0
84.913	1.0
84.929	2.0
84.944	4.0
84.959	5.0
84.974	2.0
84.989	6.0
85.004	4.0
85.019	9.0
85.034	4.0
85.049	0.0
85.064	3.0
85.079	2.0
85.094	3.0
85.11	3.0
85.125	2.0
85.14	3.0
85.155	2.0
85.17	1.0
85.185	1.0
85.2	2.0
85.215	2.0
85.23	3.0
85.245	3.0
85.26	2.0
85.276	3.0
85.291	2.0
85.306	1.0
85.321	7.0
85.336	4.0
85.351	1.0
85.366	3.0
85.381	3.0
85.396	2.0
85.411	2.0
85.426	1.0
85.441	2.0
85.457	2.0
85.472	5.0
85.487	2.0
85.502	4.0
85.517	1.0
85.532	3.0
85.547	0.0
85.562	1.0
85.577	3.0
85.592	1.0
85.607	2.0
85.622	2.0
85.637	4.0
85.653	1.0
85.668	2.0
85.683	0.0
85.698	3.0
85.713	1.0
85.728	3.0
85.743	2.0
85.758	3.0
85.773	1.0
85.788	0.0
85.803	2.0
85.818	3.0
85.833	5.0
85.848	2.0
85.863	3.0
85.879	1.0
85.894	4.0
85.909	2.0
85.924	1.0
85.939	2.0
85.954	4.0
85.969	0.0
85.984	4.0
85.999	3.0
86.014	3.0
86.029	3.0
86.044	1.0
86.059	0.0
86.074	1.0
86.089	3.0
86.104	0.0
86.119	8.0
86.134	2.0
86.149	1.0
86.164	3.0
86.179	2.0
86.194	2.0
86.209	4.0
86.224	1.0
86.239	6.0
86.254	1.0
86.269	3.0
86.284	3.0
86.299	3.0
86.314	3.0
86.33	4.0
86.345	0.0
86.36	2.0
86.375	3.0
86.39	3.0
86.405	0.0
86.42	3.0
86.435	5.0
86.45	2.0
86.465	6.0
86.48	2.0
86.495	7.0
86.51	4.0
86.525	1.0
86.54	5.0
86.555	6.0
86.57	4.0
86.585	4.0
86.6	3.0
86.615	2.0
86.63	1.0
86.645	3.0
86.659	6.0
86.674	3.0
86.689	0.0
86.704	2.0
86.719	6.0
86.734	1.0
86.749	2.0
86.764	2.0
86.779	1.0
86.794	8.0
86.809	3.0
86.824	8.0
86.839	5.0
86.854	2.0
86.869	5.0
86.884	3.0
86.899	3.0
86.914	2.0
86.929	6.0
86.944	6.0
86.959	8.0
86.974	3.0
86.989	4.0
87.004	2.0
87.019	1.0
87.034	3.0
87.049	2.0
87.064	4.0
87.079	7.0
87.094	3.0
87.109	4.0
87.124	1.0
87.139	1.0
87.154	4.0
87.169	1.0
87.184	4.0
87.199	5.0
87.214	7.0
87.229	2.0
87.244	2.0
87.259	5.0
87.274	3.0
87.289	5.0
87.304	1.0
87.319	4.0
87.334	4.0
87.349	2.0
87.364	4.0
87.379	4.0
87.394	7.0
87.409	6.0
87.424	2.0
87.438	4.0
87.453	2.0
87.468	0.0
87.483	2.0
87.498	4.0
87.513	4.0
87.528	3.0
87.543	3.0
87.558	3.0
87.573	2.0
87.588	5.0
87.603	1.0
87.618	4.0
87.633	2.0
87.648	1.0
87.663	5.0
87.678	2.0
87.693	8.0
87.708	3.0
87.723	3.0
87.738	3.0
87.753	3.0
87.768	4.0
87.783	3.0
87.798	5.0
87.813	4.0
87.828	6.0
87.843	1.0
87.858	4.0
87.873	4.0
87.888	2.0
87.903	4.0
87.918	1.0
87.933	3.0
87.948	5.0
87.963	1.0
87.978	3.0
87.993	4.0
88.008	2.0
88.023	3.0
88.038	2.0
88.053	4.0
88.068	3.0
88.083	3.0
88.098	2.0
88.113	1.0
88.128	4.0
88.143	3.0
88.158	4.0
88.174	1.0
88.189	2.0
88.204	3.0
88.219	2.0
88.234	3.0
88.249	5.0
88.264	5.0
88.279	2.0
88.294	2.0
88.309	2.0
88.324	4.0
88.339	2.0
88.354	1.0
88.369	6.0
88.384	7.0
88.399	2.0
88.414	1.0
88.429	1.0
88.444	2.0
88.459	5.0
88.474	2.0
88.489	5.0
88.504	4.0
88.519	5.0
88.534	1.0
88.549	2.0
88.564	6.0
88.58	5.0
88.595	4.0
88.61	7.0
88.625	1.0
88.64	2.0
88.655	5.0
88.67	1.0
88.685	3.0
88.7	3.0
88.715	4.0
88.73	3.0
88.745	4.0
88.76	1.0
88.775	5.0
88.79	4.0
88.805	3.0
88.82	4.0
88.835	7.0
88.85	6.0
88.865	3.0
88.88	3.0
88.895	2.0
88.911	3.0
88.926	3.0
88.941	4.0
88.956	2.0
88.971	4.0
88.986	1.0
89.001	2.0
89.016	2.0
89.031	4.0
89.046	2.0
89.061	3.0
89.076	3.0
89.091	6.0
89.106	2.0
89.121	1.0
89.136	2.0
89.151	1.0
89.166	3.0
89.181	7.0
89.196	4.0
89.211	0.0
89.227	0.0
89.242	1.0
89.257	2.0
89.272	2.0
89.287	1.0
89.302	5.0
89.317	4.0
89.332	5.0
89.347	3.0
89.362	4.0
89.377	2.0
89.392	6.0
89.407	2.0
89.422	2.0
89.437	5.0
89.452	2.0
89.467	1.0
89.482	3.0
89.497	1.0
89.512	3.0
89.527	3.0
89.542	2.0
89.557	3.0
89.572	2.0
89.587	2.0
89.602	2.0
89.617	4.0
89.632	3.0
89.647	2.0
89.662	2.0
89.677	3.0
89.693	3.0
89.708	3.0
89.723	1.0
89.738	1.0
89.753	1.0
89.768	5.0
89.783	3.0
89.798	3.0
89.813	2.0
89.828	8.0
89.843	1.0
89.858	4.0
89.873	3.0
89.888	3.0
89.903	4.0
89.918	0.0
89.933	5.0
89.948	3.0
89.963	1.0
89.978	2.0
89.993	1.0
90.008	5.0
90.023	4.0
90.038	1.0
90.053	3.0
90.068	5.0
90.083	4.0
90.097	1.0
90.112	5.0
90.127	2.0
90.142	4.0
90.157	7.0
90.172	7.0
90.187	8.0
90.202	3.0
90.217	1.0
90.232	4.0
90.247	5.0
90.262	3.0
90.277	2.0
90.292	4.0
90.307	5.0
90.322	3.0
90.337	4.0
90.352	2.0
90.367	1.0
90.382	2.0
90.397	4.0
90.412	2.0
90.427	3.0
90.442	4.0
90.457	3.0
90.472	1.0
90.487	3.0
90.501	1.0
90.516	1.0
90.531	2.0
90.546	2.0
90.561	3.0
90.576	2.0
90.591	5.0
90.606	3.0
90.621	5.0
90.636	1.0
90.651	0.0
90.666	0.0
90.681	5.0
90.696	4.0
90.711	3.0
90.726	1.0
90.741	5.0
90.755	5.0
90.77	4.0
90.785	3.0
90.8	1.0
90.815	5.0
90.83	4.0
90.845	5.0
90.86	1.0
90.875	4.0
90.89	2.0
90.905	0.0
90.92	3.0
90.935	1.0
90.95	3.0
90.965	4.0
90.979	4.0
90.994	4.0
91.009	10.0
91.024	3.0
91.039	3.0
91.054	2.0
91.069	7.0
91.084	4.0
91.099	4.0
91.114	7.0
91.129	3.0
91.144	3.0
91.159	2.0
91.174	3.0
91.188	2.0
91.203	2.0
91.218	5.0
91.233	3.0
91.248	8.0
91.263	3.0
91.278	4.0
91.293	5.0
91.308	2.0
91.323	1.0
91.338	2.0
91.353	0.0
91.368	4.0
91.383	5.0
91.398	1.0
91.412	3.0
91.427	2.0
91.442	5.0
91.457	5.0
91.472	1.0
91.487	0.0
91.502	3.0
91.517	2.0
91.532	3.0
91.547	1.0
91.562	2.0
91.577	3.0
91.592	4.0
91.607	1.0
91.622	4.0
91.637	3.0
91.652	1.0
91.666	1.0
91.681	0.0
91.696	1.0
91.711	1.0
91.726	6.0
91.741	3.0
91.756	2.0
91.771	5.0
91.786	5.0
91.801	2.0
91.816	3.0
91.831	0.0
91.846	4.0
91.861	3.0
91.876	2.0
91.891	2.0
91.906	4.0
91.921	0.0
91.936	4.0
91.951	5.0
91.966	2.0
91.981	6.0
91.995	3.0
92.01	2.0
92.025	1.0
92.04	0.0
92.055	1.0
92.07	6.0
92.085	3.0
92.1	2.0
92.115	1.0
92.13	2.0
92.145	1.0
92.16	2.0
92.175	2.0
92.19	1.0
92.205	1.0
92.22	2.0
92.235	2.0
92.25	2.0
92.265	2.0
92.28	4.0
92.295	3.0
92.31	1.0
92.325	6.0
92.34	3.0
92.355	1.0
92.37	3.0
92.385	3.0
92.4	3.0
92.415	3.0
92.43	2.0
92.445	0.0
92.46	4.0
92.475	4.0
92.49	4.0
92.505	0.0
92.52	3.0
92.535	3.0
92.55	1.0
92.565	1.0
92.58	1.0
92.595	4.0
92.61	3.0
92.625	2.0
92.64	1.0
92.655	6.0
92.67	4.0
92.685	2.0
92.7	2.0
92.715	4.0
92.73	4.0
92.745	4.0
92.76	6.0
92.775	3.0
92.79	1.0
92.805	4.0
92.82	1.0
92.835	5.0
92.85	1.0
92.865	1.0
92.88	3.0
92.895	1.0
92.91	4.0
92.925	4.0
92.94	4.0
92.955	2.0
92.97	1.0
92.985	6.0
93.0	5.0
93.015	4.0
93.03	5.0
93.045	2.0
93.06	4.0
93.075	3.0
93.09	4.0
93.105	1.0
93.12	1.0
93.135	1.0
93.15	1.0
93.165	0.0
93.18	4.0
93.195	2.0
93.21	5.0
93.225	2.0
93.24	3.0
93.255	3.0
93.27	2.0
93.285	3.0
93.3	4.0
93.315	3.0
93.33	3.0
93.345	4.0
93.36	7.0
93.375	2.0
93.39	3.0
93.405	2.0
93.42	2.0
93.435	3.0
93.45	6.0
93.465	4.0
93.48	2.0
93.495	3.0
93.51	7.0
93.525	1.0
93.54	1.0
93.555	6.0
93.57	8.0
93.585	2.0
93.6	6.0
93.615	4.0
93.63	2.0
93.645	3.0
93.66	6.0
93.675	8.0
93.69	1.0
93.705	1.0
93.72	2.0
93.735	2.0
93.75	4.0
93.765	3.0
93.78	1.0
93.795	3.0
93.81	4.0
93.824	4.0
93.839	3.0
93.854	3.0
93.869	8.0
93.884	7.0
93.899	1.0
93.914	3.0
93.929	1.0
93.944	2.0
93.959	9.0
93.974	4.0
93.989	3.0
94.004	2.0
94.019	3.0
94.034	3.0
94.049	6.0
94.064	1.0
94.079	1.0
94.094	2.0
94.108	1.0
94.123	1.0
94.138	6.0
94.153	1.0
94.168	4.0
94.183	5.0
94.198	5.0
94.213	1.0
94.228	4.0
94.243	3.0
94.258	5.0
94.273	2.0
94.288	4.0
94.302	3.0
94.317	3.0
94.332	5.0
94.347	2.0
94.362	6.0
94.377	3.0
94.392	6.0
94.407	3.0
94.422	8.0
94.437	3.0
94.452	5.0
94.466	2.0
94.481	6.0
94.496	3.0
94.511	5.0
94.526	3.0
94.541	3.0
94.556	2.0
94.571	6.0
94.586	2.0
94.601	3.0
94.615	3.0
94.63	4.0
94.645	3.0
94.66	8.0
94.675	3.0
94.69	7.0
94.705	7.0
94.72	3.0
94.735	4.0
94.749	2.0
94.764	3.0
94.779	3.0
94.794	2.0
94.809	5.0
94.824	2.0
94.839	3.0
94.854	0.0
94.868	1.0
94.883	2.0
94.898	3.0
94.913	3.0
94.928	3.0
94.943	5.0
94.958	1.0
94.973	2.0
94.987	6.0
95.002	2.0
95.017	3.0
95.032	5.0
95.047	5.0
95.062	3.0
95.077	2.0
95.092	1.0
95.106	2.0
95.121	3.0
95.136	7.0
95.151	6.0
95.166	1.0
95.181	4.0
95.196	4.0
95.211	6.0
95.226	5.0
95.24	7.0
95.255	4.0
95.27	4.0
95.285	5.0
95.3	3.0
95.315	5.0
95.33	9.0
95.345	3.0
95.359	3.0
95.374	4.0
95.389	3.0
95.404	3.0
95.419	3.0
95.434	6.0
95.449	2.0
95.464	3.0
95.478	0.0
95.493	1.0
95.508	4.0
95.523	4.0
95.538	4.0
95.553	3.0
95.568	4.0
95.583	6.0
95.597	4.0
95.612	4.0
95.627	5.0
95.642	2.0
95.657	3.0
95.672	2.0
95.687	2.0
95.702	3.0
95.717	1.0
95.731	3.0
95.746	2.0
95.761	5.0
95.776	2.0
95.791	4.0
95.806	1.0
95.821	3.0
95.836	2.0
95.851	1.0
95.866	3.0
95.88	2.0
95.895	1.0
95.91	3.0
95.925	6.0
95.94	2.0
95.955	5.0
95.97	1.0
95.985	6.0
96.0	4.0
96.015	2.0
96.029	2.0
96.044	2.0
96.059	3.0
96.074	5.0
96.089	4.0
96.104	3.0
96.119	3.0
96.134	1.0
96.149	3.0
96.164	5.0
96.179	4.0
96.194	1.0
96.208	5.0
96.223	3.0
96.238	5.0
96.253	6.0
96.268	1.0
96.283	2.0
96.298	2.0
96.313	1.0
96.328	6.0
96.343	4.0
96.358	2.0
96.373	2.0
96.388	4.0
96.403	5.0
96.417	1.0
96.432	0.0
96.447	2.0
96.462	2.0
96.477	1.0
96.492	2.0
96.507	2.0
96.522	4.0
96.537	4.0
96.552	0.0
96.567	1.0
96.582	1.0
96.597	4.0
96.612	2.0
96.627	4.0
96.642	2.0
96.656	3.0
96.671	2.0
96.686	5.0
96.701	4.0
96.716	3.0
96.731	1.0
96.746	6.0
96.761	0.0
96.776	8.0
96.791	4.0
96.806	0.0
96.821	3.0
96.836	3.0
96.851	2.0
96.866	4.0
96.881	6.0
96.896	2.0
96.911	10.0
96.926	6.0
96.94	2.0
96.955	0.0
96.97	3.0
96.985	4.0
97.0	2.0
97.015	4.0
97.03	1.0
97.045	3.0
97.06	5.0
97.075	5.0
97.09	3.0
97.105	1.0
97.12	4.0
97.135	0.0
97.15	5.0
97.165	1.0
97.18	5.0
97.195	1.0
97.21	3.0
97.225	2.0
97.239	3.0
97.254	8.0
97.269	5.0
97.284	2.0
97.299	3.0
97.314	1.0
97.329	5.0
97.344	3.0
97.359	3.0
97.374	2.0
97.389	1.0
97.404	7.0
97.419	4.0
97.434	6.0
97.449	6.0
97.464	3.0
97.479	2.0
97.494	5.0
97.509	4.0
97.524	1.0
97.538	6.0
97.553	3.0
97.568	2.0
97.583	2.0
97.598	1.0
97.613	3.0
97.628	5.0
97.643	4.0
97.658	4.0
97.673	4.0
97.688	5.0
97.703	3.0
97.718	1.0
97.733	4.0
97.748	2.0
97.763	2.0
97.778	4.0
97.792	4.0
97.807	5.0
97.822	3.0
97.837	4.0
97.852	0.0
97.867	4.0
97.882	1.0
97.897	2.0
97.912	4.0
97.927	4.0
97.942	2.0
97.957	4.0
97.972	3.0
97.987	2.0
98.001	0.0
98.016	1.0
98.031	4.0
98.046	8.0
98.061	3.0
98.076	2.0
98.091	6.0
98.106	7.0
98.121	0.0
98.136	4.0
98.151	2.0
98.166	2.0
98.181	3.0
98.195	3.0
98.21	4.0
98.225	2.0
98.24	2.0
98.255	2.0
98.27	1.0
98.285	5.0
98.3	3.0
98.315	4.0
98.33	3.0
98.345	4.0
98.359	1.0
98.374	3.0
98.389	3.0
98.404	4.0
98.419	3.0
98.434	4.0
98.449	3.0
98.464	4.0
98.479	2.0
98.494	4.0
98.508	2.0
98.523	1.0
98.538	5.0
98.553	4.0
98.568	3.0
98.583	3.0
98.598	4.0
98.613	6.0
98.628	2.0
98.642	5.0
98.657	6.0
98.672	1.0
98.687	2.0
98.702	3.0
98.717	4.0
98.732	3.0
98.747	1.0
98.762	2.0
98.776	4.0
98.791	4.0
98.806	2.0
98.821	2.0
98.836	2.0
98.851	1.0
98.866	4.0
98.881	4.0
98.896	3.0
98.91	0.0
98.925	0.0
98.94	4.0
98.955	7.0
98.97	1.0
98.985	4.0
99.0	2.0
99.015	1.0
99.029	3.0
99.044	3.0
99.059	5.0
99.074	3.0
99.089	2.0
99.104	6.0
99.119	2.0
99.133	2.0
99.148	2.0
99.163	4.0
99.178	2.0
99.193	4.0
99.208	1.0
99.223	3.0
99.238	0.0
99.252	2.0
99.267	4.0
99.282	2.0
99.297	5.0
99.312	2.0
99.327	2.0
99.342	4.0
99.356	1.0
99.371	2.0
99.386	2.0
99.401	5.0
99.416	1.0
99.431	2.0
99.446	5.0
99.461	2.0
99.475	3.0
99.49	4.0
99.505	1.0
99.52	3.0
99.535	5.0
99.55	1.0
99.565	3.0
99.579	5.0
99.594	7.0
99.609	3.0
99.624	1.0
99.639	2.0
99.654	1.0
99.669	0.0
99.683	3.0
99.698	3.0
99.713	4.0
99.728	3.0
99.743	2.0
99.758	4.0
99.772	5.0
99.787	2.0
99.802	5.0
99.817	4.0
99.832	6.0
99.847	7.0
99.862	6.0
99.876	1.0
99.891	3.0
99.906	4.0
99.921	1.0
99.936	3.0
99.951	2.0
99.966	3.0
99.98	4.0
99.995	3.0
100.01	3.0
100.025	0.0
100.04	4.0
100.055	4.0
100.069	2.0
100.084	3.0
100.099	3.0
100.114	5.0
100.129	3.0
100.144	1.0
100.159	5.0
100.173	2.0
100.188	4.0
100.203	3.0
100.218	5.0
100.233	3.0
100.248	6.0
100.262	6.0
100.277	1.0
100.292	7.0
100.307	4.0
100.322	4.0
100.337	4.0
100.351	7.0
100.366	4.0
100.381	4.0
100.396	2.0
100.411	7.0
100.426	2.0
100.441	3.0
100.455	2.0
100.47	3.0
100.485	5.0
100.5	2.0
100.515	2.0
100.53	3.0
100.544	3.0
100.559	4.0
100.574	1.0
100.589	1.0
100.604	2.0
100.619	3.0
100.633	5.0
100.648	4.0
100.663	1.0
100.678	1.0
100.693	5.0
100.708	6.0
100.722	2.0
100.737	2.0
100.752	3.0
100.767	5.0
100.782	9.0
100.796	2.0
100.811	3.0
100.826	4.0
100.841	4.0
100.856	3.0
100.871	3.0
100.885	1.0
100.9	3.0
100.915	5.0
100.93	3.0
100.945	3.0
100.96	0.0
100.974	6.0
100.989	3.0
101.004	5.0
101.019	3.0
101.034	3.0
101.048	4.0
101.063	7.0
101.078	5.0
101.093	1.0
101.108	3.0
101.123	3.0
101.137	8.0
101.152	1.0
101.167	3.0
101.182	3.0
101.197	2.0
101.211	4.0
101.226	4.0
101.241	4.0
101.256	3.0
101.271	4.0
101.285	2.0
101.3	2.0
101.315	6.0
101.33	1.0
101.345	3.0
101.359	8.0
101.374	3.0
101.389	2.0
101.404	5.0
101.419	4.0
101.433	2.0
101.448	5.0
101.463	1.0
101.478	5.0
101.493	1.0
101.507	3.0
101.522	0.0
101.537	2.0
101.552	2.0
101.567	5.0
101.581	3.0
101.596	3.0
101.611	2.0
101.626	0.0
101.64	1.0
101.655	3.0
101.67	5.0
101.685	4.0
101.7	1.0
101.714	4.0
101.729	2.0
101.744	3.0
101.759	4.0
101.773	2.0
101.788	1.0
101.803	2.0
101.818	3.0
101.833	3.0
101.847	3.0
101.862	3.0
101.877	2.0
101.892	4.0
101.906	1.0
101.921	5.0
101.936	6.0
101.951	3.0
101.965	2.0
101.98	3.0
101.995	2.0
102.01	4.0
102.025	2.0
102.039	7.0
102.054	3.0
102.069	4.0
102.084	1.0
102.098	6.0
102.113	4.0
102.128	2.0
102.143	3.0
102.157	4.0
102.172	1.0
102.187	9.0
102.202	6.0
102.216	4.0
102.231	2.0
102.246	1.0
102.261	4.0
102.275	4.0
102.29	3.0
102.305	4.0
102.32	1.0
102.334	5.0
102.349	0.0
102.364	2.0
102.378	4.0
102.393	3.0
102.408	4.0
102.423	9.0
102.437	5.0
102.452	4.0
102.467	6.0
102.482	6.0
102.496	5.0
102.511	5.0
102.526	4.0
102.541	1.0
102.555	3.0
102.57	4.0
102.585	2.0
102.6	2.0
102.614	1.0
102.629	3.0
102.644	3.0
102.659	2.0
102.673	0.0
102.688	3.0
102.703	2.0
102.717	5.0
102.732	3.0
102.747	3.0
102.762	2.0
102.776	4.0
102.791	6.0
102.806	1.0
102.821	3.0
102.835	6.0
102.85	1.0
102.865	1.0
102.88	1.0
102.894	1.0
102.909	1.0
102.924	0.0
102.938	1.0
102.953	3.0
102.968	5.0
102.983	0.0
102.997	8.0
103.012	2.0
103.027	6.0
103.042	3.0
103.056	2.0
103.071	1.0
103.086	4.0
103.101	2.0
103.115	5.0
103.13	5.0
103.145	1.0
103.16	3.0
103.174	4.0
103.189	1.0
103.204	4.0
103.219	5.0
103.233	4.0
103.248	5.0
103.263	2.0
103.278	2.0
103.292	3.0
103.307	6.0
103.322	1.0
103.337	2.0
103.351	5.0
103.366	4.0
103.381	1.0
103.396	4.0
103.41	3.0
103.425	1.0
103.44	5.0
103.455	3.0
103.469	2.0
103.484	2.0
103.499	2.0
103.514	1.0
103.529	4.0
103.543	6.0
103.558	3.0
103.573	2.0
103.588	1.0
103.602	3.0
103.617	5.0
103.632	3.0
103.647	4.0
103.661	5.0
103.676	2.0
103.691	4.0
103.706	3.0
103.721	2.0
103.735	5.0
103.75	4.0
103.765	2.0
103.78	5.0
103.795	3.0
103.809	2.0
103.824	8.0
103.839	4.0
103.854	3.0
103.869	2.0
103.883	3.0
103.898	6.0
103.913	2.0
103.928	4.0
103.943	3.0
103.957	2.0
103.972	2.0
103.987	2.0
104.002	0.0
104.017	9.0
104.031	5.0
104.046	5.0
104.061	5.0
104.076	6.0
104.091	1.0
104.106	2.0
104.12	3.0
104.135	4.0
104.15	4.0
104.165	0.0
104.18	2.0
104.195	2.0
104.209	2.0
104.224	5.0
104.239	8.0
104.254	3.0
104.269	1.0
104.284	2.0
104.299	3.0
104.313	3.0
104.328	3.0
104.343	2.0
104.358	1.0
104.373	2.0
104.388	7.0
104.403	2.0
104.417	6.0
104.432	1.0
104.447	3.0
104.462	4.0
104.477	0.0
104.492	4.0
104.507	1.0
104.522	2.0
104.536	2.0
104.551	5.0
104.566	6.0
104.581	4.0
104.596	4.0
104.611	5.0
104.626	4.0
104.641	2.0
104.656	6.0
104.67	4.0
104.685	3.0
104.7	3.0
104.715	4.0
104.73	3.0
104.745	4.0
104.76	0.0
104.775	3.0
104.79	2.0
104.804	2.0
104.819	2.0
104.834	5.0
104.849	3.0
104.864	7.0
104.879	3.0
104.894	5.0
104.909	4.0
104.924	0.0
104.939	2.0
104.954	3.0
104.968	7.0
104.983	5.0
104.998	5.0
105.013	2.0
105.028	3.0
105.043	5.0
105.058	3.0
105.073	4.0
105.088	4.0
105.103	3.0
105.118	5.0
105.133	1.0
105.147	3.0
105.162	2.0
105.177	1.0
105.192	1.0
105.207	4.0
105.222	2.0
105.237	3.0
105.252	3.0
105.267	4.0
105.282	3.0
105.297	4.0
105.312	0.0
105.327	2.0
105.342	4.0
105.356	3.0
105.371	1.0
105.386	2.0
105.401	3.0
105.416	2.0
105.431	3.0
105.446	4.0
105.461	5.0
105.476	6.0
105.491	7.0
105.506	2.0
105.521	2.0
105.536	0.0
105.551	5.0
105.566	1.0
105.581	5.0
105.595	1.0
105.61	3.0
105.625	4.0
105.64	5.0
105.655	3.0
105.67	2.0
105.685	2.0
105.7	5.0
105.715	2.0
105.73	8.0
105.745	5.0
105.76	1.0
105.775	4.0
105.79	2.0
105.805	5.0
105.82	6.0
105.835	4.0
105.85	4.0
105.864	3.0
105.879	1.0
105.894	1.0
105.909	1.0
105.924	4.0
105.939	2.0
105.954	3.0
105.969	4.0
105.984	4.0
105.999	6.0
106.014	2.0
106.029	2.0
106.044	1.0
106.059	3.0
106.074	4.0
106.089	3.0
106.104	0.0
106.119	5.0
106.134	1.0
106.148	3.0
106.163	2.0
106.178	1.0
106.193	3.0
106.208	7.0
106.223	3.0
106.238	2.0
106.253	1.0
106.268	1.0
106.283	3.0
106.298	4.0
106.313	2.0
106.328	2.0
106.343	5.0
106.358	6.0
106.373	4.0
106.388	5.0
106.403	2.0
106.418	0.0
106.432	5.0
106.447	2.0
106.462	5.0
106.477	6.0
106.492	3.0
106.507	5.0
106.522	3.0
106.537	2.0
106.552	3.0
106.567	1.0
106.582	3.0
106.597	3.0
106.612	3.0
106.627	2.0
106.642	2.0
106.657	4.0
106.672	3.0
106.687	2.0
106.701	1.0
106.716	5.0
106.731	5.0
106.746	3.0
106.761	2.0
106.776	3.0
106.791	6.0
106.806	4.0
106.821	4.0
106.836	1.0
106.851	2.0
106.866	6.0
106.881	1.0
106.896	2.0
106.911	2.0
106.926	4.0
106.941	5.0
106.955	4.0
106.97	5.0
106.985	2.0
107.0	5.0
107.015	7.0
107.03	0.0
107.045	5.0
107.06	9.0
107.075	1.0
107.09	6.0
107.105	4.0
107.12	1.0
107.135	0.0
107.15	3.0
107.165	4.0
107.18	5.0
107.194	7.0
107.209	5.0
107.224	5.0
107.239	2.0
107.254	2.0
107.269	6.0
107.284	2.0
107.299	3.0
107.314	5.0
107.329	5.0
107.344	5.0
107.359	1.0
107.374	4.0
107.389	3.0
107.404	5.0
107.418	4.0
107.433	3.0
107.448	1.0
107.463	4.0
107.478	0.0
107.493	3.0
107.508	4.0
107.523	5.0
107.538	4.0
107.553	0.0
107.568	8.0
107.583	2.0
107.598	2.0
107.613	2.0
107.627	5.0
107.642	4.0
107.657	4.0
107.672	6.0
107.687	3.0
107.702	5.0
107.717	3.0
107.732	7.0
107.747	1.0
107.762	2.0
107.777	5.0
107.792	1.0
107.807	3.0
107.821	2.0
107.836	5.0
107.851	2.0
107.866	0.0
107.881	5.0
107.896	2.0
107.911	2.0
107.926	4.0
107.941	5.0
107.956	1.0
107.971	6.0
107.986	5.0
108.0	1.0
108.015	4.0
108.03	3.0
108.045	5.0
108.06	0.0
108.075	3.0
108.09	4.0
108.105	3.0
108.12	3.0
108.135	5.0
108.15	3.0
108.164	4.0
108.179	1.0
108.194	1.0
108.209	4.0
108.224	3.0
108.239	4.0
108.254	2.0
108.269	3.0
108.284	2.0
108.299	4.0
108.313	5.0
108.328	4.0
108.343	3.0
108.358	1.0
108.373	1.0
108.388	5.0
108.403	3.0
108.418	0.0
108.433	2.0
108.448	2.0
108.462	9.0
108.477	5.0
108.492	3.0
108.507	5.0
108.522	3.0
108.537	4.0
108.552	1.0
108.567	2.0
108.582	1.0
108.597	1.0
108.611	1.0
108.626	2.0
108.641	5.0
108.656	1.0
108.671	3.0
108.686	4.0
108.701	3.0
108.716	1.0
108.731	2.0
108.745	2.0
108.76	4.0
108.775	2.0
108.79	4.0
108.805	3.0
108.82	4.0
108.835	2.0
108.85	3.0
108.865	0.0
108.879	0.0
108.894	3.0
108.909	3.0
108.924	4.0
108.939	4.0
108.954	1.0
108.969	4.0
108.984	1.0
108.999	5.0
109.013	1.0
109.028	5.0
109.043	3.0
109.058	3.0
109.073	5.0
109.088	3.0
109.103	4.0
109.118	1.0
109.133	3.0
109.147	7.0
109.162	4.0
109.177	5.0
109.192	2.0
109.207	4.0
109.222	2.0
109.237	1.0
109.252	1.0
109.267	2.0
109.281	3.0
109.296	2.0
109.311	2.0
109.326	3.0
109.341	3.0
109.356	1.0
109.371	4.0
109.386	4.0
109.4	4.0
109.415	2.0
109.43	2.0
109.445	1.0
109.46	1.0
109.475	4.0
109.49	3.0
109.505	3.0
109.52	4.0
109.534	6.0
109.549	2.0
109.564	0.0
109.579	4.0
109.594	4.0
109.609	4.0
109.624	7.0
109.639	4.0
109.653	4.0
109.668	7.0
109.683	4.0
109.698	2.0
109.713	3.0
109.728	2.0
109.743	2.0
109.758	6.0
109.773	4.0
109.787	4.0
109.802	3.0
109.817	3.0
109.832	5.0
109.847	1.0
109.862	3.0
109.877	1.0
109.892	3.0
109.907	1.0
109.921	1.0
109.936	4.0
109.951	1.0
109.966	5.0
109.981	4.0
109.996	5.0
110.011	3.0
110.026	3.0
110.04	5.0
110.055	2.0
110.07	2.0
110.085	5.0
110.1	3.0
110.115	2.0
110.13	2.0
110.145	3.0
110.16	7.0
110.174	8.0
110.189	3.0
110.204	3.0
110.219	5.0
110.234	5.0
110.249	3.0
110.264	3.0
110.279	2.0
110.294	2.0
110.308	3.0
110.323	3.0
110.338	5.0
110.353	5.0
110.368	1.0
110.383	2.0
110.398	2.0
110.413	3.0
110.428	4.0
110.442	5.0
110.457	6.0
110.472	2.0
110.487	2.0
110.502	3.0
110.517	5.0
110.532	2.0
110.547	4.0
110.561	1.0
110.576	4.0
110.591	5.0
110.606	4.0
110.621	3.0
110.636	3.0
110.651	3.0
110.666	6.0
110.681	7.0
110.695	4.0
110.71	2.0
110.725	2.0
110.74	3.0
110.755	4.0
110.77	2.0
110.785	1.0
110.8	4.0
110.815	2.0
110.829	4.0
110.844	4.0
110.859	6.0
110.874	2.0
110.889	1.0
110.904	4.0
110.919	4.0
110.934	2.0
110.948	2.0
110.963	2.0
110.978	6.0
110.993	0.0
111.008	1.0
111.023	3.0
111.038	3.0
111.053	3.0
111.067	2.0
111.082	1.0
111.097	4.0
111.112	4.0
111.127	2.0
111.142	3.0
111.157	3.0
111.172	3.0
111.186	1.0
111.201	6.0
111.216	1.0
111.231	0.0
111.246	1.0
111.261	3.0
111.276	3.0
111.291	2.0
111.305	3.0
111.32	7.0
111.335	1.0
111.35	4.0
111.365	4.0
111.38	4.0
111.395	7.0
111.41	2.0
111.424	1.0
111.439	1.0
111.454	7.0
111.469	1.0
111.484	3.0
111.499	0.0
111.514	5.0
111.528	2.0
111.543	5.0
111.558	2.0
111.573	2.0
111.588	2.0
111.603	6.0
111.618	4.0
111.633	5.0
111.647	3.0
111.662	8.0
111.677	1.0
111.692	2.0
111.707	2.0
111.722	7.0
111.737	2.0
111.751	1.0
111.766	6.0
111.781	6.0
111.796	3.0
111.811	1.0
111.826	1.0
111.84	4.0
111.855	4.0
111.87	4.0
111.885	1.0
111.9	1.0
111.915	3.0
111.93	3.0
111.944	6.0
111.959	3.0
111.974	4.0
111.989	2.0
112.004	1.0
112.019	3.0
112.033	2.0
112.048	4.0
112.063	2.0
112.078	3.0
112.093	3.0
112.108	4.0
112.123	2.0
112.137	1.0
112.152	3.0
112.167	1.0
112.182	4.0
112.197	5.0
112.212	1.0
112.226	1.0
112.241	1.0
112.256	3.0
112.271	2.0
112.286	5.0
112.301	2.0
112.315	2.0
112.33	5.0
112.345	5.0
112.36	2.0
112.375	7.0
112.389	1.0
112.404	2.0
112.419	4.0
112.434	2.0
112.449	5.0
112.464	2.0
112.478	2.0
112.493	3.0
112.508	4.0
112.523	3.0
112.538	4.0
112.553	1.0
112.567	9.0
112.582	4.0
112.597	1.0
112.612	5.0
112.627	1.0
112.642	6.0
112.656	1.0
112.671	5.0
112.686	5.0
112.701	6.0
112.716	3.0
112.73	2.0
112.745	7.0
112.76	1.0
112.775	2.0
112.79	5.0
112.805	2.0
112.819	5.0
112.834	4.0
112.849	3.0
112.864	1.0
112.879	5.0
112.894	9.0
112.908	4.0
112.923	1.0
112.938	3.0
112.953	2.0
112.968	4.0
112.983	3.0
112.997	3.0
113.012	4.0
113.027	4.0
113.042	3.0
113.057	4.0
113.072	3.0
113.086	2.0
113.101	9.0
113.116	5.0
113.131	2.0
113.146	5.0
113.161	2.0
113.175	4.0
113.19	3.0
113.205	0.0
113.22	8.0
113.235	5.0
113.25	6.0
113.265	6.0
113.279	4.0
113.294	4.0
113.309	1.0
113.324	5.0
113.339	1.0
113.354	2.0
113.368	2.0
113.383	1.0
113.398	2.0
113.413	2.0
113.428	2.0
113.443	6.0
113.458	4.0
113.472	4.0
113.487	3.0
113.502	2.0
113.517	4.0
113.532	6.0
113.547	5.0
113.562	6.0
113.576	0.0
113.591	3.0
113.606	3.0
113.621	0.0
113.636	7.0
113.651	0.0
113.666	4.0
113.681	0.0
113.695	7.0
113.71	2.0
113.725	1.0
113.74	6.0
113.755	2.0
113.77	2.0
113.785	7.0
113.8	3.0
113.814	4.0
113.829	6.0
113.844	8.0
113.859	3.0
113.874	7.0
113.889	5.0
113.904	1.0
113.919	2.0
113.934	3.0
113.949	2.0
113.963	5.0
113.978	2.0
113.993	5.0
114.008	4.0
114.023	3.0
114.038	5.0
114.053	4.0
114.068	3.0
114.083	6.0
114.098	7.0
114.113	4.0
114.127	2.0
114.142	2.0
114.157	0.0
114.172	1.0
114.187	5.0
114.202	3.0
114.217	3.0
114.232	2.0
114.247	3.0
114.262	1.0
114.277	6.0
114.292	5.0
114.307	3.0
114.322	4.0
114.337	3.0
114.351	4.0
114.366	5.0
114.381	4.0
114.396	4.0
114.411	2.0
114.426	2.0
114.441	5.0
114.456	1.0
114.471	2.0
114.486	5.0
114.501	0.0
114.516	2.0
114.531	2.0
114.546	1.0
114.561	4.0
114.576	6.0
114.591	6.0
114.606	5.0
114.621	5.0
114.636	5.0
114.65	4.0
114.665	3.0
114.68	3.0
114.695	2.0
114.71	1.0
114.725	5.0
114.74	2.0
114.755	7.0
114.77	3.0
114.785	3.0
114.8	3.0
114.815	6.0
114.83	2.0
114.845	4.0
114.86	2.0
114.875	1.0
114.89	3.0
114.905	2.0
114.92	1.0
114.935	8.0
114.95	0.0
114.965	2.0
114.98	4.0
114.995	3.0
115.009	0.0
115.024	5.0
115.039	3.0
115.054	1.0
115.069	1.0
115.084	1.0
115.099	5.0
115.114	2.0
115.129	4.0
115.144	5.0
115.159	8.0
115.174	1.0
115.189	1.0
115.204	2.0
115.219	4.0
115.234	3.0
115.249	3.0
115.264	5.0
115.279	5.0
115.294	4.0
115.309	2.0
115.323	3.0
115.338	7.0
115.353	7.0
115.368	5.0
115.383	7.0
115.398	2.0
115.413	3.0
115.428	7.0
115.443	5.0
115.458	4.0
115.473	3.0
115.488	5.0
115.503	6.0
115.518	3.0
115.533	3.0
115.548	4.0
115.562	2.0
115.577	2.0
115.592	1.0
115.607	3.0
115.622	0.0
115.637	3.0
115.652	2.0
115.667	4.0
115.682	6.0
115.697	0.0
115.712	3.0
115.727	8.0
115.741	4.0
115.756	3.0
115.771	5.0
115.786	5.0
115.801	1.0
115.816	4.0
115.831	0.0
115.846	2.0
115.861	4.0
115.875	3.0
115.89	3.0
115.905	2.0
115.92	5.0
115.935	3.0
115.95	3.0
115.965	3.0
115.98	5.0
115.995	6.0
116.009	3.0
116.024	5.0
116.039	4.0
116.054	5.0
116.069	1.0
116.084	7.0
116.099	9.0
116.113	3.0
116.128	4.0
116.143	3.0
116.158	0.0
116.173	5.0
116.188	4.0
116.202	6.0
116.217	4.0
116.232	3.0
116.247	4.0
116.262	7.0
116.277	6.0
116.291	2.0
116.306	7.0
116.321	5.0
116.336	5.0
116.351	5.0
116.366	3.0
116.38	6.0
116.395	5.0
116.41	0.0
116.425	5.0
116.44	4.0
116.454	3.0
116.469	6.0
116.484	4.0
116.499	2.0
116.514	4.0
116.528	2.0
116.543	5.0
116.558	3.0
116.573	4.0
116.588	4.0
116.602	2.0
116.617	6.0
116.632	4.0
116.647	7.0
116.662	3.0
116.676	3.0
116.691	5.0
116.706	4.0
116.721	2.0
116.735	4.0
116.75	2.0
116.765	2.0
116.78	3.0
116.795	0.0
116.809	4.0
116.824	3.0
116.839	0.0
116.854	2.0
116.868	4.0
116.883	3.0
116.898	1.0
116.913	2.0
116.927	1.0
116.942	0.0
116.957	4.0
116.972	2.0
116.986	3.0
117.001	7.0
117.016	5.0
117.031	7.0
117.045	7.0
117.06	2.0
117.075	1.0
117.09	3.0
117.104	3.0
117.119	3.0
117.134	1.0
117.149	3.0
117.163	4.0
117.178	3.0
117.193	3.0
117.208	3.0
117.222	2.0
117.237	2.0
117.252	9.0
117.267	6.0
117.281	4.0
117.296	2.0
117.311	4.0
117.325	6.0
117.34	4.0
117.355	3.0
117.37	7.0
117.384	8.0
117.399	2.0
117.414	1.0
117.429	5.0
117.443	1.0
117.458	6.0
117.473	1.0
117.487	2.0
117.502	5.0
117.517	2.0
117.532	1.0
117.546	4.0
117.561	3.0
117.576	0.0
117.59	2.0
117.605	3.0
117.62	3.0
117.635	2.0
117.649	4.0
117.664	3.0
117.679	4.0
117.693	3.0
117.708	5.0
117.723	5.0
117.738	4.0
117.752	5.0
117.767	2.0
117.782	1.0
117.796	6.0
117.811	4.0
117.826	4.0
117.841	1.0
117.855	3.0
117.87	0.0
117.885	2.0
117.899	6.0
117.914	6.0
117.929	3.0
117.944	3.0
117.958	5.0
117.973	4.0
117.988	3.0
118.002	7.0
118.017	4.0
118.032	5.0
118.047	8.0
118.062	0.0
118.077	3.0
118.092	5.0
118.107	6.0
118.121	5.0
118.136	3.0
118.151	5.0
118.166	5.0
118.181	2.0
118.196	0.0
118.211	4.0
118.225	0.0
118.24	9.0
118.255	3.0
118.27	5.0
118.285	3.0
118.3	4.0
118.315	6.0
118.33	5.0
118.344	4.0
118.359	1.0
118.374	3.0
118.389	8.0
118.404	2.0
118.419	6.0
118.434	1.0
118.449	4.0
118.463	7.0
118.478	2.0
118.493	1.0
118.508	3.0
118.523	2.0
118.538	2.0
118.553	4.0
118.567	6.0
118.582	3.0
118.597	4.0
118.612	1.0
118.627	3.0
118.642	3.0
118.657	2.0
118.672	3.0
118.686	4.0
118.701	0.0
118.716	3.0
118.731	2.0
118.746	3.0
118.761	3.0
118.776	2.0
118.791	2.0
118.805	3.0
118.82	4.0
118.835	2.0
118.85	1.0
118.865	4.0
118.88	2.0
118.895	2.0
118.909	5.0
118.924	5.0
118.939	3.0
118.954	1.0
118.969	2.0
118.984	5.0
118.999	5.0
119.014	6.0
119.028	2.0
119.043	1.0
119.058	2.0
119.073	2.0
119.088	6.0
119.103	5.0
119.118	3.0
119.133	2.0
119.147	4.0
119.162	1.0
119.177	0.0
119.192	2.0
119.207	6.0
119.222	4.0
119.237	7.0
119.251	2.0
119.266	2.0
119.281	4.0
119.296	3.0
119.311	4.0
119.326	3.0
119.341	5.0
119.356	4.0
119.37	1.0
119.385	4.0
119.4	3.0
119.415	2.0
119.43	3.0
119.445	3.0
119.46	4.0
119.475	1.0
119.489	0.0
119.504	2.0
119.519	2.0
119.534	5.0
119.549	3.0
119.564	3.0
119.579	1.0
119.593	4.0
119.608	5.0
119.623	4.0
119.638	5.0
119.653	4.0
119.668	1.0
119.683	7.0
119.698	2.0
119.712	5.0
119.727	5.0
119.742	2.0
119.757	3.0
119.772	3.0
119.787	2.0
119.802	3.0
119.817	2.0
119.831	3.0
119.846	4.0
119.861	2.0
119.876	3.0
119.891	1.0
119.906	1.0
119.921	6.0
119.935	1.0
119.95	4.0
119.965	6.0
119.98	2.0
119.995	3.0
120.01	2.0
120.025	2.0
120.04	2.0
120.054	2.0
120.069	1.0
120.084	2.0
120.099	1.0
120.114	0.0
120.129	2.0
120.144	5.0
120.159	3.0
120.173	1.0
120.188	4.0
120.203	1.0
120.218	0.0
120.233	2.0
120.248	2.0
120.263	3.0
120.277	2.0
120.292	0.0
120.307	1.0
120.322	0.0
120.337	1.0
120.352	1.0
120.367	0.0
120.382	0.0
120.396	0.0
120.411	0.0
120.426	0.0
120.441	0.0
120.456	0.0
120.471	0.0
120.486	0.0
120.501	0.0
120.515	0.0
120.53	0.0
120.545	0.0
120.56	0.0
120.575	0.0
120.59	0.0
120.605	0.0
120.619	0.0
120.634	0.0
120.649	0.0
120.664	0.0
120.679	0.0
120.694	0.0
120.709	0.0
120.724	0.0
120.738	0.0
120.753	1.0
120.768	0.0
120.783	0.0
120.798	0.0
120.813	0.0
120.828	0.0
120.843	0.0
120.857	0.0
120.872	0.0
120.887	1.0
120.902	0.0
120.917	0.0
120.932	0.0
120.947	1.0
120.961	0.0
120.976	0.0
