-1.217	0.0
-1.202	0.0
-1.187	0.0
-1.172	0.0
-1.157	0.0
-1.142	0.0
-1.128	0.0
-1.113	0.0
-1.098	0.0
-1.083	0.0
-1.068	0.0
-1.054	0.0
-1.039	0.0
-1.024	0.0
-1.009	1.0
-0.994	0.0
-0.979	0.0
-0.965	0.0
-0.95	0.0
-0.935	0.0
-0.92	0.0
-0.905	0.0
-0.891	0.0
-0.876	0.0
-0.861	0.0
-0.846	0.0
-0.831	0.0
-0.816	0.0
-0.802	0.0
-0.787	0.0
-0.772	0.0
-0.757	0.0
-0.742	0.0
-0.728	0.0
-0.713	0.0
-0.698	0.0
-0.683	0.0
-0.668	0.0
-0.653	0.0
-0.639	0.0
-0.624	0.0
-0.609	0.0
-0.594	0.0
-0.579	0.0
-0.565	0.0
-0.55	0.0
-0.535	1.0
-0.52	0.0
-0.505	0.0
-0.49	0.0
-0.476	0.0
-0.461	0.0
-0.446	0.0
-0.431	0.0
-0.416	0.0
-0.401	0.0
-0.387	0.0
-0.372	0.0
-0.357	0.0
-0.342	0.0
-0.327	0.0
-0.313	0.0
-0.298	0.0
-0.283	0.0
-0.268	0.0
-0.253	0.0
-0.238	0.0
-0.224	0.0
-0.209	0.0
-0.194	0.0
-0.179	0.0
-0.164	0.0
-0.15	0.0
-0.135	0.0
-0.12	0.0
-0.105	0.0
-0.09	0.0
-0.075	0.0
-0.061	1.0
-0.046	0.0
-0.031	0.0
-0.016	0.0
-0.001	0.0
0.013	0.0
0.028	0.0
0.043	0.0
0.058	0.0
0.073	1.0
0.088	0.0
0.102	0.0
0.117	0.0
0.132	0.0
0.147	0.0
0.162	0.0
0.176	0.0
0.191	0.0
0.206	0.0
0.221	0.0
0.236	0.0
0.251	0.0
0.265	0.0
0.28	0.0
0.295	0.0
0.31	0.0
0.325	0.0
0.339	0.0
0.354	0.0
0.369	0.0
0.384	0.0
0.399	0.0
0.414	0.0
0.428	0.0
0.443	0.0
0.458	0.0
0.473	0.0
0.488	0.0
0.502	0.0
0.517	0.0
0.532	0.0
0.547	0.0
0.562	0.0
0.577	0.0
0.591	0.0
0.606	0.0
0.621	0.0
0.636	0.0
0.651	0.0
0.665	0.0
0.68	0.0
0.695	0.0
0.71	0.0
0.725	0.0
0.74	0.0
0.754	0.0
0.769	0.0
0.784	0.0
0.799	0.0
0.814	0.0
0.828	0.0
0.843	0.0
0.858	0.0
0.873	0.0
0.888	0.0
0.903	0.0
0.917	0.0
0.932	0.0
0.947	0.0
0.962	0.0
0.977	0.0
0.991	0.0
1.006	0.0
1.021	0.0
1.036	0.0
1.051	0.0
1.065	0.0
1.08	0.0
1.095	0.0
1.11	0.0
1.125	0.0
1.14	0.0
1.154	0.0
1.169	0.0
1.184	0.0
1.199	1.0
1.214	0.0
1.228	0.0
1.243	0.0
1.258	0.0
1.273	0.0
1.288	2.0
1.302	0.0
1.317	0.0
1.332	0.0
1.347	0.0
1.362	0.0
1.376	1.0
1.391	0.0
1.406	0.0
1.421	0.0
1.436	1.0
1.45	0.0
1.465	0.0
1.48	0.0
1.495	0.0
1.51	0.0
1.524	0.0
1.539	0.0
1.554	0.0
1.569	0.0
1.584	0.0
1.598	0.0
1.613	0.0
1.628	0.0
1.643	0.0
1.658	0.0
1.672	0.0
1.687	0.0
1.702	0.0
1.717	0.0
1.732	0.0
1.746	0.0
1.761	1.0
1.776	1.0
1.791	0.0
1.806	0.0
1.82	0.0
1.835	0.0
1.85	0.0
1.865	0.0
1.88	0.0
1.894	1.0
1.909	0.0
1.924	0.0
1.939	0.0
1.954	1.0
1.968	0.0
1.983	0.0
1.998	0.0
2.013	0.0
2.028	0.0
2.042	0.0
2.057	0.0
2.072	0.0
2.087	0.0
2.101	0.0
2.116	0.0
2.131	0.0
2.146	0.0
2.161	1.0
2.175	0.0
2.19	0.0
2.205	0.0
2.22	0.0
2.235	0.0
2.249	0.0
2.264	0.0
2.279	0.0
2.294	0.0
2.308	2.0
2.323	0.0
2.338	1.0
2.353	0.0
2.368	0.0
2.382	0.0
2.397	2.0
2.412	0.0
2.427	0.0
2.442	1.0
2.456	0.0
2.471	0.0
2.486	1.0
2.501	2.0
2.515	2.0
2.53	6.0
2.545	3.0
2.56	5.0
2.575	2.0
2.589	0.0
2.604	0.0
2.619	3.0
2.634	3.0
2.649	0.0
2.663	4.0
2.678	1.0
2.693	4.0
2.708	1.0
2.722	2.0
2.737	6.0
2.752	1.0
2.767	2.0
2.782	2.0
2.796	2.0
2.811	2.0
2.826	4.0
2.841	1.0
2.856	3.0
2.87	3.0
2.885	2.0
2.9	5.0
2.915	2.0
2.93	3.0
2.944	4.0
2.959	6.0
2.974	5.0
2.989	6.0
3.004	5.0
3.018	3.0
3.033	8.0
3.048	2.0
3.063	1.0
3.078	2.0
3.092	5.0
3.107	6.0
3.122	5.0
3.137	3.0
3.152	4.0
3.166	2.0
3.181	1.0
3.196	4.0
3.211	4.0
3.226	4.0
3.24	4.0
3.255	2.0
3.27	2.0
3.285	6.0
3.3	3.0
3.315	7.0
3.329	3.0
3.344	5.0
3.359	6.0
3.374	7.0
3.389	3.0
3.403	3.0
3.418	3.0
3.433	5.0
3.448	8.0
3.463	4.0
3.478	2.0
3.492	7.0
3.507	3.0
3.522	4.0
3.537	3.0
3.552	8.0
3.567	4.0
3.581	5.0
3.596	2.0
3.611	3.0
3.626	5.0
3.641	10.0
3.656	7.0
3.671	3.0
3.685	5.0
3.7	4.0
3.715	7.0
3.73	6.0
3.745	6.0
3.76	5.0
3.775	8.0
3.789	2.0
3.804	9.0
3.819	12.0
3.834	5.0
3.849	11.0
3.864	8.0
3.879	3.0
3.894	15.0
3.908	6.0
3.923	5.0
3.938	7.0
3.953	4.0
3.968	7.0
3.983	3.0
3.998	8.0
4.013	7.0
4.027	12.0
4.042	6.0
4.057	4.0
4.072	10.0
4.087	6.0
4.102	9.0
4.117	9.0
4.132	8.0
4.147	7.0
4.162	7.0
4.176	7.0
4.191	9.0
4.206	10.0
4.221	8.0
4.236	10.0
4.251	6.0
4.266	7.0
4.281	2.0
4.296	9.0
4.311	9.0
4.326	7.0
4.341	9.0
4.356	10.0
4.37	7.0
4.385	5.0
4.4	8.0
4.415	4.0
4.43	8.0
4.445	5.0
4.46	5.0
4.475	8.0
4.49	12.0
4.505	6.0
4.52	8.0
4.535	10.0
4.55	4.0
4.565	7.0
4.58	7.0
4.595	10.0
4.61	8.0
4.625	11.0
4.639	7.0
4.654	2.0
4.669	9.0
4.684	11.0
4.699	12.0
4.714	8.0
4.729	10.0
4.744	7.0
4.759	9.0
4.774	4.0
4.789	11.0
4.804	7.0
4.819	7.0
4.834	4.0
4.849	11.0
4.864	3.0
4.879	9.0
4.894	5.0
4.909	4.0
4.924	8.0
4.939	6.0
4.954	8.0
4.969	8.0
4.984	3.0
4.999	9.0
5.014	10.0
5.029	2.0
5.044	14.0
5.059	9.0
5.074	12.0
5.089	10.0
5.104	9.0
5.119	7.0
5.134	8.0
5.149	12.0
5.164	10.0
5.179	8.0
5.194	5.0
5.209	8.0
5.224	6.0
5.239	9.0
5.254	10.0
5.269	7.0
5.284	6.0
5.299	7.0
5.314	8.0
5.329	10.0
5.344	5.0
5.359	13.0
5.374	8.0
5.389	2.0
5.404	5.0
5.419	12.0
5.434	11.0
5.449	11.0
5.464	9.0
5.479	7.0
5.494	5.0
5.509	9.0
5.524	4.0
5.539	10.0
5.554	13.0
5.569	11.0
5.584	6.0
5.599	8.0
5.614	11.0
5.629	9.0
5.644	8.0
5.659	11.0
5.674	8.0
5.689	7.0
5.704	6.0
5.719	6.0
5.734	11.0
5.749	7.0
5.764	8.0
5.779	10.0
5.794	4.0
5.809	16.0
5.824	8.0
5.839	11.0
5.854	10.0
5.869	9.0
5.884	12.0
5.899	9.0
5.914	4.0
5.929	13.0
5.944	7.0
5.959	11.0
5.974	16.0
5.989	8.0
6.004	6.0
6.019	9.0
6.034	8.0
6.049	10.0
6.064	11.0
6.079	7.0
6.094	8.0
6.109	6.0
6.124	8.0
6.139	6.0
6.154	7.0
6.169	10.0
6.184	6.0
6.199	4.0
6.214	11.0
6.229	11.0
6.244	12.0
6.259	12.0
6.274	6.0
6.289	10.0
6.304	7.0
6.319	13.0
6.334	6.0
6.349	7.0
6.364	13.0
6.379	11.0
6.394	10.0
6.409	7.0
6.424	11.0
6.439	8.0
6.454	7.0
6.469	11.0
6.484	12.0
6.499	15.0
6.514	11.0
6.529	15.0
6.544	3.0
6.559	8.0
6.574	11.0
6.589	11.0
6.604	9.0
6.619	8.0
6.634	4.0
6.649	8.0
6.664	8.0
6.679	11.0
6.694	10.0
6.709	6.0
6.724	15.0
6.739	9.0
6.754	11.0
6.769	8.0
6.784	10.0
6.799	11.0
6.814	6.0
6.829	3.0
6.844	9.0
6.859	8.0
6.873	10.0
6.888	8.0
6.903	7.0
6.918	7.0
6.933	11.0
6.948	11.0
6.963	6.0
6.978	10.0
6.993	4.0
7.008	7.0
7.023	7.0
7.038	13.0
7.053	5.0
7.068	15.0
7.083	11.0
7.098	5.0
7.113	12.0
7.128	6.0
7.143	10.0
7.157	11.0
7.172	9.0
7.187	11.0
7.202	8.0
7.217	13.0
7.232	8.0
7.247	10.0
7.262	13.0
7.277	9.0
7.292	9.0
7.307	7.0
7.322	7.0
7.336	12.0
7.351	15.0
7.366	5.0
7.381	11.0
7.396	7.0
7.411	7.0
7.426	12.0
7.441	6.0
7.456	8.0
7.471	8.0
7.485	7.0
7.5	8.0
7.515	9.0
7.53	8.0
7.545	14.0
7.56	9.0
7.575	7.0
7.59	8.0
7.604	8.0
7.619	10.0
7.634	7.0
7.649	14.0
7.664	8.0
7.679	10.0
7.693	3.0
7.708	10.0
7.723	5.0
7.738	12.0
7.753	12.0
7.768	10.0
7.783	11.0
7.797	11.0
7.812	12.0
7.827	9.0
7.842	8.0
7.857	8.0
7.871	11.0
7.886	8.0
7.901	7.0
7.916	11.0
7.931	7.0
7.945	6.0
7.96	8.0
7.975	10.0
7.99	14.0
8.005	12.0
8.019	15.0
8.034	13.0
8.049	12.0
8.064	7.0
8.078	11.0
8.093	10.0
8.108	8.0
8.123	11.0
8.137	8.0
8.152	7.0
8.167	6.0
8.182	12.0
8.196	8.0
8.211	11.0
8.226	5.0
8.241	9.0
8.255	9.0
8.27	5.0
8.285	2.0
8.3	9.0
8.314	10.0
8.329	9.0
8.344	8.0
8.358	13.0
8.373	7.0
8.388	8.0
8.403	10.0
8.417	6.0
8.432	9.0
8.447	8.0
8.461	7.0
8.476	6.0
8.491	13.0
8.505	5.0
8.52	4.0
8.535	7.0
8.55	8.0
8.564	10.0
8.579	8.0
8.594	11.0
8.608	5.0
8.623	9.0
8.638	8.0
8.652	8.0
8.667	10.0
8.682	6.0
8.696	9.0
8.711	5.0
8.726	9.0
8.74	12.0
8.755	8.0
8.77	8.0
8.784	12.0
8.799	9.0
8.814	8.0
8.828	9.0
8.843	7.0
8.858	7.0
8.872	5.0
8.887	7.0
8.902	12.0
8.916	10.0
8.931	7.0
8.946	8.0
8.96	8.0
8.975	13.0
8.99	6.0
9.004	6.0
9.019	4.0
9.034	3.0
9.048	5.0
9.063	12.0
9.077	4.0
9.092	6.0
9.107	9.0
9.121	10.0
9.136	8.0
9.151	11.0
9.165	10.0
9.18	5.0
9.195	10.0
9.209	7.0
9.224	4.0
9.239	3.0
9.253	11.0
9.268	10.0
9.283	7.0
9.297	7.0
9.312	13.0
9.327	11.0
9.341	7.0
9.356	11.0
9.371	12.0
9.385	9.0
9.4	6.0
9.415	16.0
9.429	9.0
9.444	7.0
9.458	5.0
9.473	9.0
9.488	8.0
9.502	8.0
9.517	12.0
9.532	9.0
9.546	11.0
9.561	5.0
9.576	6.0
9.59	6.0
9.605	9.0
9.62	5.0
9.635	8.0
9.649	6.0
9.664	5.0
9.679	13.0
9.693	5.0
9.708	14.0
9.723	13.0
9.737	7.0
9.752	12.0
9.767	8.0
9.781	14.0
9.796	13.0
9.811	12.0
9.825	9.0
9.84	8.0
9.855	3.0
9.87	11.0
9.884	10.0
9.899	12.0
9.914	11.0
9.928	4.0
9.943	7.0
9.958	11.0
9.973	5.0
9.987	8.0
10.002	6.0
10.017	12.0
10.031	6.0
10.046	10.0
10.061	10.0
10.076	8.0
10.09	8.0
10.105	10.0
10.12	6.0
10.135	5.0
10.149	6.0
10.164	3.0
10.179	9.0
10.194	8.0
10.208	5.0
10.223	5.0
10.238	12.0
10.253	8.0
10.267	9.0
10.282	9.0
10.297	7.0
10.312	10.0
10.326	8.0
10.341	5.0
10.356	7.0
10.371	4.0
10.386	9.0
10.4	6.0
10.415	8.0
10.43	8.0
10.445	11.0
10.46	8.0
10.474	12.0
10.489	11.0
10.504	9.0
10.519	12.0
10.533	7.0
10.548	5.0
10.563	6.0
10.578	3.0
10.593	12.0
10.608	10.0
10.622	10.0
10.637	6.0
10.652	6.0
10.667	8.0
10.682	8.0
10.696	9.0
10.711	5.0
10.726	12.0
10.741	9.0
10.756	7.0
10.771	6.0
10.785	8.0
10.8	5.0
10.815	9.0
10.83	6.0
10.845	8.0
10.86	7.0
10.874	1.0
10.889	6.0
10.904	2.0
10.919	9.0
10.934	7.0
10.949	15.0
10.963	7.0
10.978	10.0
10.993	8.0
11.008	4.0
11.023	8.0
11.038	4.0
11.053	6.0
11.067	12.0
11.082	4.0
11.097	7.0
11.112	6.0
11.127	4.0
11.142	8.0
11.157	5.0
11.172	4.0
11.186	6.0
11.201	9.0
11.216	7.0
11.231	5.0
11.246	4.0
11.261	10.0
11.276	9.0
11.291	8.0
11.305	10.0
11.32	8.0
11.335	12.0
11.35	10.0
11.365	8.0
11.38	4.0
11.395	8.0
11.41	6.0
11.424	10.0
11.439	11.0
11.454	11.0
11.469	5.0
11.484	12.0
11.499	5.0
11.514	9.0
11.529	9.0
11.544	11.0
11.558	6.0
11.573	7.0
11.588	6.0
11.603	7.0
11.618	9.0
11.633	10.0
11.648	8.0
11.663	9.0
11.678	8.0
11.693	5.0
11.707	6.0
11.722	12.0
11.737	9.0
11.752	8.0
11.767	7.0
11.782	14.0
11.797	10.0
11.812	8.0
11.827	8.0
11.842	6.0
11.856	14.0
11.871	8.0
11.886	11.0
11.901	9.0
11.916	11.0
11.931	11.0
11.946	10.0
11.961	4.0
11.976	7.0
11.991	7.0
12.006	13.0
12.02	6.0
12.035	14.0
12.05	14.0
12.065	8.0
12.08	8.0
12.095	11.0
12.11	14.0
12.125	11.0
12.14	10.0
12.155	13.0
12.17	15.0
12.184	9.0
12.199	8.0
12.214	5.0
12.229	8.0
12.244	9.0
12.259	9.0
12.274	10.0
12.289	13.0
12.304	11.0
12.319	13.0
12.334	8.0
12.348	8.0
12.363	8.0
12.378	14.0
12.393	14.0
12.408	8.0
12.423	9.0
12.438	10.0
12.453	9.0
12.468	9.0
12.483	5.0
12.498	13.0
12.513	15.0
12.527	15.0
12.542	12.0
12.557	17.0
12.572	12.0
12.587	15.0
12.602	12.0
12.617	12.0
12.632	16.0
12.647	14.0
12.662	12.0
12.677	11.0
12.692	14.0
12.707	14.0
12.721	16.0
12.736	10.0
12.751	7.0
12.766	18.0
12.781	12.0
12.796	19.0
12.811	12.0
12.826	19.0
12.841	10.0
12.856	14.0
12.871	29.0
12.886	19.0
12.9	8.0
12.915	17.0
12.93	24.0
12.945	12.0
12.96	15.0
12.975	27.0
12.99	14.0
13.005	8.0
13.02	18.0
13.035	17.0
13.05	18.0
13.065	17.0
13.08	16.0
13.094	20.0
13.109	22.0
13.124	12.0
13.139	17.0
13.154	14.0
13.169	13.0
13.184	18.0
13.199	17.0
13.214	27.0
13.229	25.0
13.244	21.0
13.259	15.0
13.274	22.0
13.288	16.0
13.303	22.0
13.318	13.0
13.333	17.0
13.348	18.0
13.363	22.0
13.378	29.0
13.393	33.0
13.408	17.0
13.423	31.0
13.438	33.0
13.453	39.0
13.468	38.0
13.482	31.0
13.497	35.0
13.512	42.0
13.527	34.0
13.542	57.0
13.557	48.0
13.572	59.0
13.587	61.0
13.602	65.0
13.617	51.0
13.632	65.0
13.647	64.0
13.662	84.0
13.677	85.0
13.691	94.0
13.706	111.0
13.721	101.0
13.736	103.0
13.751	107.0
13.766	106.0
13.781	123.0
13.796	112.0
13.811	119.0
13.826	133.0
13.841	138.0
13.856	115.0
13.871	125.0
13.885	109.0
13.9	98.0
13.915	80.0
13.93	69.0
13.945	57.0
13.96	62.0
13.975	55.0
13.99	49.0
14.005	32.0
14.02	26.0
14.035	36.0
14.05	26.0
14.065	29.0
14.08	23.0
14.094	22.0
14.109	25.0
14.124	17.0
14.139	27.0
14.154	22.0
14.169	17.0
14.184	24.0
14.199	21.0
14.214	23.0
14.229	17.0
14.244	17.0
14.259	18.0
14.274	16.0
14.288	20.0
14.303	23.0
14.318	15.0
14.333	20.0
14.348	22.0
14.363	22.0
14.378	18.0
14.393	20.0
14.408	12.0
14.423	17.0
14.438	17.0
14.453	20.0
14.468	25.0
14.482	22.0
14.497	17.0
14.512	21.0
14.527	17.0
14.542	17.0
14.557	24.0
14.572	16.0
14.587	15.0
14.602	21.0
14.617	23.0
14.632	14.0
14.647	16.0
14.661	22.0
14.676	19.0
14.691	19.0
14.706	19.0
14.721	18.0
14.736	22.0
14.751	20.0
14.766	11.0
14.781	12.0
14.796	17.0
14.811	13.0
14.826	14.0
14.84	12.0
14.855	18.0
14.87	12.0
14.885	15.0
14.9	25.0
14.915	13.0
14.93	19.0
14.945	12.0
14.96	13.0
14.975	13.0
14.989	11.0
15.004	14.0
15.019	19.0
15.034	24.0
15.049	16.0
15.064	15.0
15.079	16.0
15.094	11.0
15.109	14.0
15.124	21.0
15.138	18.0
15.153	11.0
15.168	14.0
15.183	15.0
15.198	12.0
15.213	10.0
15.228	17.0
15.243	10.0
15.258	15.0
15.272	20.0
15.287	12.0
15.302	13.0
15.317	11.0
15.332	16.0
15.347	12.0
15.362	10.0
15.377	13.0
15.391	10.0
15.406	16.0
15.421	19.0
15.436	17.0
15.451	12.0
15.466	14.0
15.481	4.0
15.496	9.0
15.51	21.0
15.525	17.0
15.54	12.0
15.555	14.0
15.57	20.0
15.585	12.0
15.6	14.0
15.614	16.0
15.629	13.0
15.644	17.0
15.659	16.0
15.674	16.0
15.689	15.0
15.704	16.0
15.718	13.0
15.733	18.0
15.748	14.0
15.763	19.0
15.778	18.0
15.793	7.0
15.808	15.0
15.822	10.0
15.837	12.0
15.852	13.0
15.867	18.0
15.882	15.0
15.897	9.0
15.911	16.0
15.926	10.0
15.941	20.0
15.956	18.0
15.971	13.0
15.986	12.0
16.0	17.0
16.015	15.0
16.03	11.0
16.045	9.0
16.06	13.0
16.074	16.0
16.089	15.0
16.104	12.0
16.119	12.0
16.134	14.0
16.149	13.0
16.163	19.0
16.178	13.0
16.193	14.0
16.208	24.0
16.223	17.0
16.237	15.0
16.252	9.0
16.267	11.0
16.282	16.0
16.297	17.0
16.311	19.0
16.326	12.0
16.341	14.0
16.356	19.0
16.37	20.0
16.385	13.0
16.4	9.0
16.415	10.0
16.43	13.0
16.444	18.0
16.459	19.0
16.474	20.0
16.489	21.0
16.504	11.0
16.518	17.0
16.533	23.0
16.548	18.0
16.563	22.0
16.577	9.0
16.592	19.0
16.607	15.0
16.622	17.0
16.637	21.0
16.651	10.0
16.666	14.0
16.681	20.0
16.696	28.0
16.71	26.0
16.725	36.0
16.74	25.0
16.755	30.0
16.77	39.0
16.784	34.0
16.799	40.0
16.814	33.0
16.829	35.0
16.843	31.0
16.858	49.0
16.873	58.0
16.888	55.0
16.902	58.0
16.917	76.0
16.932	69.0
16.947	73.0
16.961	80.0
16.976	68.0
16.991	60.0
17.006	76.0
17.021	55.0
17.035	53.0
17.05	55.0
17.065	26.0
17.08	43.0
17.094	30.0
17.109	29.0
17.124	27.0
17.139	18.0
17.153	16.0
17.168	17.0
17.183	21.0
17.198	15.0
17.212	23.0
17.227	17.0
17.242	10.0
17.257	12.0
17.271	17.0
17.286	16.0
17.301	18.0
17.316	17.0
17.33	11.0
17.345	14.0
17.36	13.0
17.375	10.0
17.39	19.0
17.404	11.0
17.419	11.0
17.434	16.0
17.449	12.0
17.463	16.0
17.478	13.0
17.493	21.0
17.508	16.0
17.522	17.0
17.537	11.0
17.552	15.0
17.567	9.0
17.581	13.0
17.596	16.0
17.611	11.0
17.626	14.0
17.641	10.0
17.655	10.0
17.67	11.0
17.685	11.0
17.7	10.0
17.714	11.0
17.729	13.0
17.744	9.0
17.759	10.0
17.773	9.0
17.788	11.0
17.803	8.0
17.818	11.0
17.833	11.0
17.847	8.0
17.862	12.0
17.877	9.0
17.892	16.0
17.906	12.0
17.921	15.0
17.936	23.0
17.951	10.0
17.966	11.0
17.98	10.0
17.995	10.0
18.01	8.0
18.025	5.0
18.04	12.0
18.054	11.0
18.069	13.0
18.084	13.0
18.099	19.0
18.114	9.0
18.128	9.0
18.143	16.0
18.158	8.0
18.173	13.0
18.188	9.0
18.202	10.0
18.217	9.0
18.232	15.0
18.247	10.0
18.262	9.0
18.276	14.0
18.291	12.0
18.306	16.0
18.321	7.0
18.336	14.0
18.35	13.0
18.365	10.0
18.38	8.0
18.395	8.0
18.41	11.0
18.424	9.0
18.439	12.0
18.454	10.0
18.469	7.0
18.484	11.0
18.498	14.0
18.513	13.0
18.528	8.0
18.543	12.0
18.558	11.0
18.573	12.0
18.587	13.0
18.602	17.0
18.617	13.0
18.632	15.0
18.647	7.0
18.661	11.0
18.676	10.0
18.691	15.0
18.706	14.0
18.721	11.0
18.736	10.0
18.75	14.0
18.765	6.0
18.78	8.0
18.795	12.0
18.81	8.0
18.825	13.0
18.839	5.0
18.854	11.0
18.869	12.0
18.884	8.0
18.899	14.0
18.913	6.0
18.928	14.0
18.943	14.0
18.958	9.0
18.973	10.0
18.988	11.0
19.002	18.0
19.017	12.0
19.032	19.0
19.047	12.0
19.062	6.0
19.077	13.0
19.091	13.0
19.106	6.0
19.121	15.0
19.136	5.0
19.151	9.0
19.165	11.0
19.18	13.0
19.195	11.0
19.21	14.0
19.225	11.0
19.24	13.0
19.254	11.0
19.269	7.0
19.284	7.0
19.299	15.0
19.314	15.0
19.329	17.0
19.343	8.0
19.358	18.0
19.373	23.0
19.388	17.0
19.403	17.0
19.417	16.0
19.432	20.0
19.447	24.0
19.462	16.0
19.477	36.0
19.492	24.0
19.506	29.0
19.521	33.0
19.536	36.0
19.551	36.0
19.566	34.0
19.58	48.0
19.595	48.0
19.61	41.0
19.625	46.0
19.64	36.0
19.655	31.0
19.669	45.0
19.684	35.0
19.699	32.0
19.714	26.0
19.729	36.0
19.743	35.0
19.758	14.0
19.773	17.0
19.788	19.0
19.803	11.0
19.817	19.0
19.832	15.0
19.847	17.0
19.862	13.0
19.877	14.0
19.891	21.0
19.906	6.0
19.921	10.0
19.936	9.0
19.951	18.0
19.965	12.0
19.98	11.0
19.995	8.0
20.01	16.0
20.025	15.0
20.039	11.0
20.054	13.0
20.069	11.0
20.084	13.0
20.099	15.0
20.113	12.0
20.128	12.0
20.143	11.0
20.158	12.0
20.173	13.0
20.187	12.0
20.202	9.0
20.217	12.0
20.232	8.0
20.246	8.0
20.261	11.0
20.276	14.0
20.291	13.0
20.306	12.0
20.32	15.0
20.335	15.0
20.35	13.0
20.365	10.0
20.38	13.0
20.394	14.0
20.409	11.0
20.424	8.0
20.439	12.0
20.453	6.0
20.468	12.0
20.483	20.0
20.498	9.0
20.513	11.0
20.527	13.0
20.542	6.0
20.557	9.0
20.572	12.0
20.586	13.0
20.601	12.0
20.616	10.0
20.631	6.0
20.646	9.0
20.66	12.0
20.675	4.0
20.69	4.0
20.705	12.0
20.719	10.0
20.734	11.0
20.749	13.0
20.764	11.0
20.779	11.0
20.793	11.0
20.808	12.0
20.823	10.0
20.838	16.0
20.853	13.0
20.867	13.0
20.882	11.0
20.897	8.0
20.912	14.0
20.926	7.0
20.941	16.0
20.956	12.0
20.971	12.0
20.986	7.0
21.0	9.0
21.015	14.0
21.03	16.0
21.045	14.0
21.06	11.0
21.074	16.0
21.089	14.0
21.104	13.0
21.119	11.0
21.134	11.0
21.148	11.0
21.163	8.0
21.178	12.0
21.193	14.0
21.208	9.0
21.222	13.0
21.237	19.0
21.252	14.0
21.267	19.0
21.282	11.0
21.296	9.0
21.311	15.0
21.326	7.0
21.341	7.0
21.356	7.0
21.37	11.0
21.385	4.0
21.4	17.0
21.415	10.0
21.43	15.0
21.444	12.0
21.459	12.0
21.474	11.0
21.489	7.0
21.504	8.0
21.519	16.0
21.533	8.0
21.548	14.0
21.563	16.0
21.578	9.0
21.593	13.0
21.608	17.0
21.622	12.0
21.637	12.0
21.652	15.0
21.667	17.0
21.682	14.0
21.697	18.0
21.712	20.0
21.726	22.0
21.741	22.0
21.756	41.0
21.771	30.0
21.786	34.0
21.801	38.0
21.816	44.0
21.83	39.0
21.845	55.0
21.86	48.0
21.875	70.0
21.89	76.0
21.905	68.0
21.92	75.0
21.935	75.0
21.949	70.0
21.964	78.0
21.979	74.0
21.994	59.0
22.009	67.0
22.024	69.0
22.039	63.0
22.054	45.0
22.069	54.0
22.083	46.0
22.098	41.0
22.113	37.0
22.128	40.0
22.143	35.0
22.158	27.0
22.173	22.0
22.188	19.0
22.203	21.0
22.218	15.0
22.233	13.0
22.248	12.0
22.262	10.0
22.277	15.0
22.292	3.0
22.307	20.0
22.322	13.0
22.337	9.0
22.352	12.0
22.367	10.0
22.382	22.0
22.397	13.0
22.412	22.0
22.427	17.0
22.442	8.0
22.457	12.0
22.472	8.0
22.487	15.0
22.502	12.0
22.516	13.0
22.531	8.0
22.546	10.0
22.561	16.0
22.576	17.0
22.591	16.0
22.606	16.0
22.621	15.0
22.636	11.0
22.651	10.0
22.666	5.0
22.681	9.0
22.696	6.0
22.711	12.0
22.726	6.0
22.741	14.0
22.756	11.0
22.771	9.0
22.786	11.0
22.801	14.0
22.816	9.0
22.831	14.0
22.846	17.0
22.861	15.0
22.876	14.0
22.891	13.0
22.906	13.0
22.92	17.0
22.935	5.0
22.95	13.0
22.965	7.0
22.98	7.0
22.995	12.0
23.01	10.0
23.025	9.0
23.04	15.0
23.055	8.0
23.07	15.0
23.085	14.0
23.1	9.0
23.115	5.0
23.13	4.0
23.145	8.0
23.16	11.0
23.175	12.0
23.19	9.0
23.205	9.0
23.22	18.0
23.235	7.0
23.25	9.0
23.265	8.0
23.28	11.0
23.295	9.0
23.31	8.0
23.325	11.0
23.34	11.0
23.355	13.0
23.37	7.0
23.384	12.0
23.399	6.0
23.414	3.0
23.429	8.0
23.444	12.0
23.459	9.0
23.474	8.0
23.489	9.0
23.504	7.0
23.519	7.0
23.534	9.0
23.549	8.0
23.564	13.0
23.579	13.0
23.594	10.0
23.609	11.0
23.624	15.0
23.639	10.0
23.654	10.0
23.668	13.0
23.683	6.0
23.698	8.0
23.713	13.0
23.728	12.0
23.743	13.0
23.758	8.0
23.773	17.0
23.788	13.0
23.803	9.0
23.818	11.0
23.833	13.0
23.848	17.0
23.862	22.0
23.877	19.0
23.892	24.0
23.907	20.0
23.922	27.0
23.937	18.0
23.952	33.0
23.967	33.0
23.982	24.0
23.997	34.0
24.011	42.0
24.026	47.0
24.041	62.0
24.056	53.0
24.071	52.0
24.086	48.0
24.101	35.0
24.116	57.0
24.131	46.0
24.145	46.0
24.16	36.0
24.175	29.0
24.19	35.0
24.205	35.0
24.22	39.0
24.235	42.0
24.249	35.0
24.264	39.0
24.279	26.0
24.294	19.0
24.309	20.0
24.324	14.0
24.338	20.0
24.353	13.0
24.368	8.0
24.383	13.0
24.398	14.0
24.413	19.0
24.428	12.0
24.442	12.0
24.457	8.0
24.472	13.0
24.487	11.0
24.502	7.0
24.516	15.0
24.531	11.0
24.546	11.0
24.561	5.0
24.576	16.0
24.591	8.0
24.605	13.0
24.62	12.0
24.635	8.0
24.65	13.0
24.665	12.0
24.679	11.0
24.694	14.0
24.709	10.0
24.724	15.0
24.739	11.0
24.753	11.0
24.768	12.0
24.783	7.0
24.798	12.0
24.813	9.0
24.827	11.0
24.842	13.0
24.857	12.0
24.872	11.0
24.886	9.0
24.901	12.0
24.916	11.0
24.931	7.0
24.946	10.0
24.96	15.0
24.975	11.0
24.99	7.0
25.005	11.0
25.019	10.0
25.034	8.0
25.049	9.0
25.064	10.0
25.078	9.0
25.093	11.0
25.108	10.0
25.123	13.0
25.138	8.0
25.152	8.0
25.167	12.0
25.182	9.0
25.197	8.0
25.211	4.0
25.226	10.0
25.241	6.0
25.256	8.0
25.27	10.0
25.285	12.0
25.3	12.0
25.315	17.0
25.329	10.0
25.344	8.0
25.359	7.0
25.374	11.0
25.388	7.0
25.403	8.0
25.418	7.0
25.433	16.0
25.447	11.0
25.462	12.0
25.477	7.0
25.492	10.0
25.506	14.0
25.521	16.0
25.536	8.0
25.55	13.0
25.565	12.0
25.58	12.0
25.595	5.0
25.609	10.0
25.624	10.0
25.639	9.0
25.654	14.0
25.668	8.0
25.683	11.0
25.698	8.0
25.713	10.0
25.727	11.0
25.742	9.0
25.757	14.0
25.772	4.0
25.786	11.0
25.801	10.0
25.816	10.0
25.83	8.0
25.845	8.0
25.86	7.0
25.875	6.0
25.889	9.0
25.904	7.0
25.919	9.0
25.934	8.0
25.948	10.0
25.963	13.0
25.978	11.0
25.992	10.0
26.007	17.0
26.022	7.0
26.037	4.0
26.051	10.0
26.066	15.0
26.081	11.0
26.096	9.0
26.11	12.0
26.125	14.0
26.14	12.0
26.155	10.0
26.169	13.0
26.184	13.0
26.199	8.0
26.213	8.0
26.228	7.0
26.243	8.0
26.258	4.0
26.272	15.0
26.287	9.0
26.302	11.0
26.317	11.0
26.331	10.0
26.346	8.0
26.361	10.0
26.376	6.0
26.39	11.0
26.405	7.0
26.42	12.0
26.434	13.0
26.449	8.0
26.464	11.0
26.479	11.0
26.493	8.0
26.508	10.0
26.523	11.0
26.538	9.0
26.552	9.0
26.567	10.0
26.582	11.0
26.597	6.0
26.611	16.0
26.626	9.0
26.641	11.0
26.656	12.0
26.67	7.0
26.685	12.0
26.7	9.0
26.715	16.0
26.729	8.0
26.744	6.0
26.759	10.0
26.773	9.0
26.788	12.0
26.803	10.0
26.818	11.0
26.832	14.0
26.847	13.0
26.862	9.0
26.877	6.0
26.891	8.0
26.906	8.0
26.921	10.0
26.936	11.0
26.95	8.0
26.965	13.0
26.98	3.0
26.995	10.0
27.01	4.0
27.024	12.0
27.039	15.0
27.054	14.0
27.069	13.0
27.083	12.0
27.098	7.0
27.113	11.0
27.128	8.0
27.142	8.0
27.157	9.0
27.172	5.0
27.187	5.0
27.201	14.0
27.216	15.0
27.231	11.0
27.246	10.0
27.261	11.0
27.275	13.0
27.29	7.0
27.305	11.0
27.32	13.0
27.334	10.0
27.349	13.0
27.364	14.0
27.379	8.0
27.394	13.0
27.408	16.0
27.423	5.0
27.438	5.0
27.453	8.0
27.467	8.0
27.482	8.0
27.497	7.0
27.512	4.0
27.527	10.0
27.541	6.0
27.556	7.0
27.571	7.0
27.586	16.0
27.601	10.0
27.615	8.0
27.63	11.0
27.645	13.0
27.66	15.0
27.675	11.0
27.689	23.0
27.704	20.0
27.719	13.0
27.734	13.0
27.749	11.0
27.763	15.0
27.778	21.0
27.793	21.0
27.808	26.0
27.823	20.0
27.838	33.0
27.852	24.0
27.867	24.0
27.882	25.0
27.897	19.0
27.912	21.0
27.926	19.0
27.941	22.0
27.956	21.0
27.971	19.0
27.986	13.0
28.001	24.0
28.015	21.0
28.03	16.0
28.045	20.0
28.06	23.0
28.075	15.0
28.09	13.0
28.105	12.0
28.119	9.0
28.134	13.0
28.149	15.0
28.164	10.0
28.179	10.0
28.194	14.0
28.208	16.0
28.223	14.0
28.238	10.0
28.253	11.0
28.268	11.0
28.283	9.0
28.298	12.0
28.312	13.0
28.327	12.0
28.342	5.0
28.357	17.0
28.372	8.0
28.387	12.0
28.402	11.0
28.417	10.0
28.431	10.0
28.446	14.0
28.461	20.0
28.476	9.0
28.491	7.0
28.506	12.0
28.521	12.0
28.536	11.0
28.55	8.0
28.565	5.0
28.58	7.0
28.595	10.0
28.61	10.0
28.625	8.0
28.64	10.0
28.655	11.0
28.669	8.0
28.684	16.0
28.699	8.0
28.714	12.0
28.729	9.0
28.744	6.0
28.759	14.0
28.774	10.0
28.788	15.0
28.803	11.0
28.818	13.0
28.833	8.0
28.848	7.0
28.863	17.0
28.878	9.0
28.893	8.0
28.908	11.0
28.922	10.0
28.937	9.0
28.952	8.0
28.967	8.0
28.982	9.0
28.997	8.0
29.012	6.0
29.027	8.0
29.041	13.0
29.056	9.0
29.071	12.0
29.086	7.0
29.101	13.0
29.116	8.0
29.131	9.0
29.146	9.0
29.16	15.0
29.175	14.0
29.19	11.0
29.205	13.0
29.22	11.0
29.235	5.0
29.25	11.0
29.265	7.0
29.279	14.0
29.294	14.0
29.309	15.0
29.324	12.0
29.339	10.0
29.354	14.0
29.369	16.0
29.384	20.0
29.398	17.0
29.413	15.0
29.428	19.0
29.443	18.0
29.458	13.0
29.473	30.0
29.488	25.0
29.502	21.0
29.517	23.0
29.532	35.0
29.547	44.0
29.562	43.0
29.577	40.0
29.592	40.0
29.606	52.0
29.621	50.0
29.636	71.0
29.651	39.0
29.666	47.0
29.681	37.0
29.695	42.0
29.71	29.0
29.725	36.0
29.74	40.0
29.755	36.0
29.77	18.0
29.784	23.0
29.799	34.0
29.814	30.0
29.829	22.0
29.844	31.0
29.859	20.0
29.873	13.0
29.888	17.0
29.903	15.0
29.918	9.0
29.933	7.0
29.947	15.0
29.962	17.0
29.977	8.0
29.992	7.0
30.007	10.0
30.021	8.0
30.036	12.0
30.051	12.0
30.066	15.0
30.081	21.0
30.095	15.0
30.11	13.0
30.125	11.0
30.14	14.0
30.155	10.0
30.169	7.0
30.184	12.0
30.199	12.0
30.214	8.0
30.228	9.0
30.243	15.0
30.258	10.0
30.273	14.0
30.288	8.0
30.302	12.0
30.317	11.0
30.332	10.0
30.347	10.0
30.361	11.0
30.376	10.0
30.391	7.0
30.406	12.0
30.42	13.0
30.435	11.0
30.45	6.0
30.465	12.0
30.479	12.0
30.494	8.0
30.509	11.0
30.524	7.0
30.538	15.0
30.553	16.0
30.568	13.0
30.583	9.0
30.597	10.0
30.612	11.0
30.627	14.0
30.641	16.0
30.656	13.0
30.671	8.0
30.686	11.0
30.7	8.0
30.715	11.0
30.73	9.0
30.745	11.0
30.759	9.0
30.774	10.0
30.789	8.0
30.803	10.0
30.818	16.0
30.833	14.0
30.848	6.0
30.862	19.0
30.877	9.0
30.892	12.0
30.906	14.0
30.921	4.0
30.936	14.0
30.951	11.0
30.965	14.0
30.98	11.0
30.995	9.0
31.009	11.0
31.024	14.0
31.039	19.0
31.053	12.0
31.068	17.0
31.083	13.0
31.098	13.0
31.112	18.0
31.127	21.0
31.142	24.0
31.156	17.0
31.171	30.0
31.186	32.0
31.2	35.0
31.215	28.0
31.23	31.0
31.245	34.0
31.259	30.0
31.274	35.0
31.289	39.0
31.303	35.0
31.318	32.0
31.333	23.0
31.347	27.0
31.362	34.0
31.377	24.0
31.392	26.0
31.406	29.0
31.421	28.0
31.436	22.0
31.45	36.0
31.465	29.0
31.48	19.0
31.494	22.0
31.509	29.0
31.524	18.0
31.538	18.0
31.553	15.0
31.568	17.0
31.583	13.0
31.597	12.0
31.612	14.0
31.627	11.0
31.641	11.0
31.656	11.0
31.671	6.0
31.685	12.0
31.7	12.0
31.715	9.0
31.729	7.0
31.744	8.0
31.759	12.0
31.774	14.0
31.788	6.0
31.803	11.0
31.818	14.0
31.832	10.0
31.847	12.0
31.862	13.0
31.876	16.0
31.891	12.0
31.906	10.0
31.92	8.0
31.935	9.0
31.95	11.0
31.965	4.0
31.979	13.0
31.994	11.0
32.009	14.0
32.023	4.0
32.038	10.0
32.053	14.0
32.067	7.0
32.082	8.0
32.097	10.0
32.112	8.0
32.126	11.0
32.141	7.0
32.156	7.0
32.17	14.0
32.185	12.0
32.2	10.0
32.214	9.0
32.229	13.0
32.244	8.0
32.259	8.0
32.273	17.0
32.288	13.0
32.303	8.0
32.317	11.0
32.332	11.0
32.347	8.0
32.362	19.0
32.376	10.0
32.391	6.0
32.406	10.0
32.42	17.0
32.435	9.0
32.45	10.0
32.465	8.0
32.479	14.0
32.494	8.0
32.509	14.0
32.523	16.0
32.538	8.0
32.553	15.0
32.568	17.0
32.582	7.0
32.597	18.0
32.612	12.0
32.627	10.0
32.641	18.0
32.656	13.0
32.671	12.0
32.685	15.0
32.7	14.0
32.715	14.0
32.73	22.0
32.744	24.0
32.759	37.0
32.774	22.0
32.788	31.0
32.803	35.0
32.818	21.0
32.833	19.0
32.847	25.0
32.862	31.0
32.877	20.0
32.892	21.0
32.906	19.0
32.921	20.0
32.936	19.0
32.951	21.0
32.965	19.0
32.98	13.0
32.995	19.0
33.009	20.0
33.024	19.0
33.039	18.0
33.054	32.0
33.068	18.0
33.083	17.0
33.098	17.0
33.113	11.0
33.127	13.0
33.142	13.0
33.157	12.0
33.172	13.0
33.186	16.0
33.201	9.0
33.216	10.0
33.231	12.0
33.245	11.0
33.26	12.0
33.275	9.0
33.29	8.0
33.304	10.0
33.319	8.0
33.334	9.0
33.349	15.0
33.363	12.0
33.378	5.0
33.393	9.0
33.408	9.0
33.422	10.0
33.437	11.0
33.452	3.0
33.467	14.0
33.481	7.0
33.496	5.0
33.511	14.0
33.526	13.0
33.54	11.0
33.555	15.0
33.57	7.0
33.585	6.0
33.599	12.0
33.614	14.0
33.629	10.0
33.644	8.0
33.658	7.0
33.673	7.0
33.688	10.0
33.703	10.0
33.718	8.0
33.732	7.0
33.747	7.0
33.762	15.0
33.777	10.0
33.791	9.0
33.806	8.0
33.821	20.0
33.836	10.0
33.85	7.0
33.865	7.0
33.88	6.0
33.895	10.0
33.91	12.0
33.924	9.0
33.939	11.0
33.954	7.0
33.969	9.0
33.983	5.0
33.998	6.0
34.013	7.0
34.028	7.0
34.042	10.0
34.057	10.0
34.072	9.0
34.087	9.0
34.102	12.0
34.116	10.0
34.131	10.0
34.146	12.0
34.161	11.0
34.175	17.0
34.19	14.0
34.205	14.0
34.22	10.0
34.235	16.0
34.249	9.0
34.264	16.0
34.279	19.0
34.294	11.0
34.309	15.0
34.323	15.0
34.338	8.0
34.353	17.0
34.368	18.0
34.382	12.0
34.397	12.0
34.412	11.0
34.427	12.0
34.442	14.0
34.456	10.0
34.471	11.0
34.486	12.0
34.501	7.0
34.516	13.0
34.53	13.0
34.545	10.0
34.56	11.0
34.575	13.0
34.59	9.0
34.604	17.0
34.619	15.0
34.634	6.0
34.649	9.0
34.664	8.0
34.678	10.0
34.693	7.0
34.708	11.0
34.723	8.0
34.738	13.0
34.752	8.0
34.767	10.0
34.782	8.0
34.797	6.0
34.812	7.0
34.826	14.0
34.841	10.0
34.856	13.0
34.871	5.0
34.886	9.0
34.9	8.0
34.915	11.0
34.93	5.0
34.945	6.0
34.96	8.0
34.974	12.0
34.989	11.0
35.004	15.0
35.019	13.0
35.034	10.0
35.048	9.0
35.063	8.0
35.078	11.0
35.093	13.0
35.108	15.0
35.122	6.0
35.137	8.0
35.152	8.0
35.167	6.0
35.182	9.0
35.196	6.0
35.211	10.0
35.226	14.0
35.241	7.0
35.256	6.0
35.27	9.0
35.285	12.0
35.3	6.0
35.315	8.0
35.33	6.0
35.344	14.0
35.359	11.0
35.374	11.0
35.389	8.0
35.404	5.0
35.418	7.0
35.433	13.0
35.448	16.0
35.463	14.0
35.478	7.0
35.493	10.0
35.507	13.0
35.522	14.0
35.537	11.0
35.552	7.0
35.567	13.0
35.581	9.0
35.596	9.0
35.611	4.0
35.626	12.0
35.641	19.0
35.655	5.0
35.67	16.0
35.685	16.0
35.7	13.0
35.715	15.0
35.729	16.0
35.744	19.0
35.759	5.0
35.774	16.0
35.789	18.0
35.804	20.0
35.818	17.0
35.833	25.0
35.848	14.0
35.863	19.0
35.878	17.0
35.892	8.0
35.907	18.0
35.922	13.0
35.937	15.0
35.952	15.0
35.966	18.0
35.981	13.0
35.996	10.0
36.011	16.0
36.026	12.0
36.04	18.0
36.055	14.0
36.07	10.0
36.085	8.0
36.1	12.0
36.114	9.0
36.129	8.0
36.144	15.0
36.159	9.0
36.174	4.0
36.189	3.0
36.203	7.0
36.218	8.0
36.233	9.0
36.248	9.0
36.263	7.0
36.277	5.0
36.292	8.0
36.307	10.0
36.322	7.0
36.337	10.0
36.351	8.0
36.366	9.0
36.381	8.0
36.396	11.0
36.411	8.0
36.426	6.0
36.44	13.0
36.455	5.0
36.47	11.0
36.485	7.0
36.5	6.0
36.514	7.0
36.529	11.0
36.544	10.0
36.559	5.0
36.574	8.0
36.589	10.0
36.603	10.0
36.618	7.0
36.633	10.0
36.648	5.0
36.663	14.0
36.677	9.0
36.692	9.0
36.707	12.0
36.722	12.0
36.737	7.0
36.752	11.0
36.766	10.0
36.781	6.0
36.796	5.0
36.811	9.0
36.826	7.0
36.841	6.0
36.855	14.0
36.87	11.0
36.885	5.0
36.9	8.0
36.915	5.0
36.93	6.0
36.944	8.0
36.959	5.0
36.974	13.0
36.989	6.0
37.004	14.0
37.019	7.0
37.033	9.0
37.048	8.0
37.063	11.0
37.078	21.0
37.093	19.0
37.108	24.0
37.123	26.0
37.137	34.0
37.152	19.0
37.167	27.0
37.182	28.0
37.197	20.0
37.212	19.0
37.226	30.0
37.241	24.0
37.256	20.0
37.271	13.0
37.286	17.0
37.301	15.0
37.316	24.0
37.331	15.0
37.345	21.0
37.36	24.0
37.375	16.0
37.39	11.0
37.405	23.0
37.42	19.0
37.435	20.0
37.45	24.0
37.464	12.0
37.479	13.0
37.494	15.0
37.509	9.0
37.524	11.0
37.539	8.0
37.554	9.0
37.569	7.0
37.583	5.0
37.598	7.0
37.613	10.0
37.628	6.0
37.643	8.0
37.658	9.0
37.673	4.0
37.688	6.0
37.703	4.0
37.718	9.0
37.733	5.0
37.747	9.0
37.762	2.0
37.777	3.0
37.792	9.0
37.807	8.0
37.822	7.0
37.837	9.0
37.852	6.0
37.867	12.0
37.882	6.0
37.897	6.0
37.912	6.0
37.927	6.0
37.941	8.0
37.956	5.0
37.971	9.0
37.986	5.0
38.001	7.0
38.016	7.0
38.031	5.0
38.046	5.0
38.061	7.0
38.076	11.0
38.091	8.0
38.106	7.0
38.121	8.0
38.136	10.0
38.151	5.0
38.166	12.0
38.181	10.0
38.196	12.0
38.211	4.0
38.226	8.0
38.241	6.0
38.256	5.0
38.271	7.0
38.285	4.0
38.3	9.0
38.315	1.0
38.33	5.0
38.345	5.0
38.36	7.0
38.375	8.0
38.39	10.0
38.405	6.0
38.42	7.0
38.435	6.0
38.45	8.0
38.465	8.0
38.48	6.0
38.495	13.0
38.51	7.0
38.525	3.0
38.54	5.0
38.555	10.0
38.57	4.0
38.585	7.0
38.6	4.0
38.615	6.0
38.63	4.0
38.645	6.0
38.66	3.0
38.675	7.0
38.69	6.0
38.705	3.0
38.72	6.0
38.735	9.0
38.75	4.0
38.765	9.0
38.78	10.0
38.795	7.0
38.81	13.0
38.825	7.0
38.84	10.0
38.855	4.0
38.87	7.0
38.885	5.0
38.9	3.0
38.915	6.0
38.93	8.0
38.945	9.0
38.96	6.0
38.975	5.0
38.99	6.0
39.005	7.0
39.02	11.0
39.035	8.0
39.05	3.0
39.065	4.0
39.08	8.0
39.095	4.0
39.11	6.0
39.125	5.0
39.14	6.0
39.155	7.0
39.17	6.0
39.185	8.0
39.2	8.0
39.215	8.0
39.23	8.0
39.245	6.0
39.26	3.0
39.275	6.0
39.29	7.0
39.305	11.0
39.32	7.0
39.335	7.0
39.35	8.0
39.365	7.0
39.38	7.0
39.395	2.0
39.409	6.0
39.424	4.0
39.439	6.0
39.454	6.0
39.469	8.0
39.484	7.0
39.499	9.0
39.514	6.0
39.529	6.0
39.544	11.0
39.559	4.0
39.574	6.0
39.589	1.0
39.604	7.0
39.619	9.0
39.634	11.0
39.649	8.0
39.664	5.0
39.678	6.0
39.693	11.0
39.708	9.0
39.723	6.0
39.738	8.0
39.753	6.0
39.768	9.0
39.783	9.0
39.798	13.0
39.813	7.0
39.827	10.0
39.842	11.0
39.857	7.0
39.872	8.0
39.887	5.0
39.902	10.0
39.917	8.0
39.932	15.0
39.947	8.0
39.961	8.0
39.976	10.0
39.991	7.0
40.006	7.0
40.021	9.0
40.036	6.0
40.051	6.0
40.065	12.0
40.08	7.0
40.095	6.0
40.11	12.0
40.125	10.0
40.14	6.0
40.154	9.0
40.169	8.0
40.184	10.0
40.199	5.0
40.214	9.0
40.228	3.0
40.243	6.0
40.258	3.0
40.273	7.0
40.288	2.0
40.302	5.0
40.317	8.0
40.332	5.0
40.347	5.0
40.362	4.0
40.376	6.0
40.391	2.0
40.406	8.0
40.421	5.0
40.436	10.0
40.45	6.0
40.465	9.0
40.48	4.0
40.495	11.0
40.509	4.0
40.524	6.0
40.539	6.0
40.554	6.0
40.568	4.0
40.583	9.0
40.598	1.0
40.613	5.0
40.627	6.0
40.642	9.0
40.657	5.0
40.672	8.0
40.686	5.0
40.701	5.0
40.716	5.0
40.731	8.0
40.745	4.0
40.76	9.0
40.775	3.0
40.79	4.0
40.804	8.0
40.819	10.0
40.834	7.0
40.849	10.0
40.863	5.0
40.878	4.0
40.893	10.0
40.907	9.0
40.922	2.0
40.937	9.0
40.952	7.0
40.966	6.0
40.981	6.0
40.996	15.0
41.011	7.0
41.025	15.0
41.04	9.0
41.055	4.0
41.069	21.0
41.084	21.0
41.099	17.0
41.114	12.0
41.128	25.0
41.143	19.0
41.158	24.0
41.173	31.0
41.187	16.0
41.202	18.0
41.217	14.0
41.231	16.0
41.246	12.0
41.261	9.0
41.276	16.0
41.29	11.0
41.305	9.0
41.32	11.0
41.335	17.0
41.349	15.0
41.364	8.0
41.379	11.0
41.393	20.0
41.408	19.0
41.423	9.0
41.438	17.0
41.452	12.0
41.467	14.0
41.482	9.0
41.497	8.0
41.511	8.0
41.526	5.0
41.541	3.0
41.556	12.0
41.57	8.0
41.585	7.0
41.6	5.0
41.615	4.0
41.629	4.0
41.644	5.0
41.659	3.0
41.674	4.0
41.688	7.0
41.703	4.0
41.718	5.0
41.733	5.0
41.747	5.0
41.762	5.0
41.777	8.0
41.792	5.0
41.806	8.0
41.821	6.0
41.836	5.0
41.851	4.0
41.866	3.0
41.88	5.0
41.895	8.0
41.91	7.0
41.925	8.0
41.939	8.0
41.954	8.0
41.969	5.0
41.984	5.0
41.999	9.0
42.013	4.0
42.028	5.0
42.043	1.0
42.058	8.0
42.073	9.0
42.088	6.0
42.102	7.0
42.117	1.0
42.132	9.0
42.147	3.0
42.162	6.0
42.176	5.0
42.191	3.0
42.206	3.0
42.221	5.0
42.236	6.0
42.251	9.0
42.266	10.0
42.28	11.0
42.295	9.0
42.31	13.0
42.325	12.0
42.34	21.0
42.355	14.0
42.369	17.0
42.384	9.0
42.399	18.0
42.414	18.0
42.429	16.0
42.444	22.0
42.459	17.0
42.474	14.0
42.488	18.0
42.503	6.0
42.518	10.0
42.533	10.0
42.548	5.0
42.563	8.0
42.578	9.0
42.593	9.0
42.608	13.0
42.622	16.0
42.637	18.0
42.652	11.0
42.667	9.0
42.682	17.0
42.697	14.0
42.712	9.0
42.727	9.0
42.742	8.0
42.757	11.0
42.772	13.0
42.786	6.0
42.801	6.0
42.816	8.0
42.831	10.0
42.846	4.0
42.861	5.0
42.876	8.0
42.891	5.0
42.906	5.0
42.921	2.0
42.936	8.0
42.951	3.0
42.966	8.0
42.981	4.0
42.996	4.0
43.011	5.0
43.025	10.0
43.04	5.0
43.055	6.0
43.07	4.0
43.085	4.0
43.1	8.0
43.115	5.0
43.13	3.0
43.145	4.0
43.16	1.0
43.175	2.0
43.19	3.0
43.205	5.0
43.22	5.0
43.235	5.0
43.25	6.0
43.265	4.0
43.28	6.0
43.295	5.0
43.31	4.0
43.325	2.0
43.34	6.0
43.355	5.0
43.37	10.0
43.385	10.0
43.4	9.0
43.415	2.0
43.43	5.0
43.445	4.0
43.46	6.0
43.475	6.0
43.49	8.0
43.505	4.0
43.52	10.0
43.535	5.0
43.55	10.0
43.565	6.0
43.58	16.0
43.595	8.0
43.61	15.0
43.625	10.0
43.64	15.0
43.655	9.0
43.67	10.0
43.685	9.0
43.7	6.0
43.715	5.0
43.73	5.0
43.745	8.0
43.76	11.0
43.775	5.0
43.79	9.0
43.805	8.0
43.82	4.0
43.835	10.0
43.85	10.0
43.865	12.0
43.88	5.0
43.895	5.0
43.91	8.0
43.925	11.0
43.94	4.0
43.955	9.0
43.97	12.0
43.985	2.0
44.0	6.0
44.015	0.0
44.03	5.0
44.045	8.0
44.061	4.0
44.076	7.0
44.091	5.0
44.106	3.0
44.121	10.0
44.136	1.0
44.151	2.0
44.166	6.0
44.181	4.0
44.196	7.0
44.211	6.0
44.226	4.0
44.241	4.0
44.256	5.0
44.271	3.0
44.286	2.0
44.301	4.0
44.316	3.0
44.331	2.0
44.346	3.0
44.361	6.0
44.377	8.0
44.392	5.0
44.407	7.0
44.422	4.0
44.437	5.0
44.452	6.0
44.467	5.0
44.482	5.0
44.497	6.0
44.512	6.0
44.527	4.0
44.542	1.0
44.557	9.0
44.572	2.0
44.587	4.0
44.602	7.0
44.617	7.0
44.632	6.0
44.647	8.0
44.663	5.0
44.678	6.0
44.693	6.0
44.708	7.0
44.723	5.0
44.738	12.0
44.753	5.0
44.768	10.0
44.783	13.0
44.798	11.0
44.813	12.0
44.828	12.0
44.843	12.0
44.858	12.0
44.873	6.0
44.888	8.0
44.903	15.0
44.918	11.0
44.933	3.0
44.948	7.0
44.964	7.0
44.979	5.0
44.994	6.0
45.009	6.0
45.024	7.0
45.039	12.0
45.054	9.0
45.069	10.0
45.084	11.0
45.099	13.0
45.114	9.0
45.129	5.0
45.144	8.0
45.159	7.0
45.174	8.0
45.189	10.0
45.204	7.0
45.219	8.0
45.234	1.0
45.249	4.0
45.264	3.0
45.279	6.0
45.294	5.0
45.309	5.0
45.324	8.0
45.339	6.0
45.354	5.0
45.369	6.0
45.384	7.0
45.399	5.0
45.414	5.0
45.429	6.0
45.444	3.0
45.459	3.0
45.474	6.0
45.489	4.0
45.504	8.0
45.519	3.0
45.534	4.0
45.549	4.0
45.564	4.0
45.579	2.0
45.594	5.0
45.609	1.0
45.624	5.0
45.639	3.0
45.654	5.0
45.669	7.0
45.684	4.0
45.699	4.0
45.714	8.0
45.729	9.0
45.744	6.0
45.759	10.0
45.774	5.0
45.789	4.0
45.804	7.0
45.819	11.0
45.834	5.0
45.849	8.0
45.864	10.0
45.879	11.0
45.894	11.0
45.909	6.0
45.924	24.0
45.939	21.0
45.954	16.0
45.969	17.0
45.984	14.0
45.998	18.0
46.013	16.0
46.028	19.0
46.043	11.0
46.058	16.0
46.073	8.0
46.088	12.0
46.103	9.0
46.118	14.0
46.133	3.0
46.148	3.0
46.163	9.0
46.178	10.0
46.192	14.0
46.207	11.0
46.222	15.0
46.237	10.0
46.252	11.0
46.267	17.0
46.282	9.0
46.297	11.0
46.312	11.0
46.327	13.0
46.341	14.0
46.356	6.0
46.371	12.0
46.386	4.0
46.401	4.0
46.416	0.0
46.431	2.0
46.446	2.0
46.46	4.0
46.475	6.0
46.49	5.0
46.505	4.0
46.52	6.0
46.535	6.0
46.55	7.0
46.564	7.0
46.579	8.0
46.594	6.0
46.609	7.0
46.624	6.0
46.639	10.0
46.654	5.0
46.668	7.0
46.683	3.0
46.698	6.0
46.713	4.0
46.728	4.0
46.743	7.0
46.758	5.0
46.772	9.0
46.787	3.0
46.802	4.0
46.817	7.0
46.832	4.0
46.847	6.0
46.861	7.0
46.876	4.0
46.891	1.0
46.906	7.0
46.921	4.0
46.936	4.0
46.95	7.0
46.965	5.0
46.98	5.0
46.995	10.0
47.01	2.0
47.025	6.0
47.039	6.0
47.054	7.0
47.069	10.0
47.084	8.0
47.099	7.0
47.113	9.0
47.128	8.0
47.143	11.0
47.158	18.0
47.173	9.0
47.188	9.0
47.202	4.0
47.217	9.0
47.232	6.0
47.247	3.0
47.262	1.0
47.277	3.0
47.291	6.0
47.306	7.0
47.321	8.0
47.336	5.0
47.351	6.0
47.365	5.0
47.38	6.0
47.395	9.0
47.41	5.0
47.425	12.0
47.44	10.0
47.454	10.0
47.469	4.0
47.484	7.0
47.499	10.0
47.514	5.0
47.528	4.0
47.543	3.0
47.558	6.0
47.573	3.0
47.588	7.0
47.603	6.0
47.617	3.0
47.632	12.0
47.647	7.0
47.662	9.0
47.677	5.0
47.691	6.0
47.706	5.0
47.721	5.0
47.736	2.0
47.751	8.0
47.766	4.0
47.78	4.0
47.795	2.0
47.81	7.0
47.825	4.0
47.84	7.0
47.855	4.0
47.869	2.0
47.884	4.0
47.899	5.0
47.914	3.0
47.929	8.0
47.944	4.0
47.958	9.0
47.973	7.0
47.988	4.0
48.003	9.0
48.018	7.0
48.033	7.0
48.047	3.0
48.062	4.0
48.077	6.0
48.092	8.0
48.107	3.0
48.122	6.0
48.137	7.0
48.151	6.0
48.166	3.0
48.181	4.0
48.196	6.0
48.211	5.0
48.226	3.0
48.241	5.0
48.255	3.0
48.27	2.0
48.285	8.0
48.3	3.0
48.315	5.0
48.33	1.0
48.345	2.0
48.359	3.0
48.374	9.0
48.389	7.0
48.404	5.0
48.419	5.0
48.434	3.0
48.449	5.0
48.464	3.0
48.478	3.0
48.493	4.0
48.508	4.0
48.523	10.0
48.538	4.0
48.553	6.0
48.568	6.0
48.583	4.0
48.597	8.0
48.612	7.0
48.627	0.0
48.642	8.0
48.657	3.0
48.672	0.0
48.687	3.0
48.702	4.0
48.717	8.0
48.731	4.0
48.746	7.0
48.761	4.0
48.776	5.0
48.791	6.0
48.806	5.0
48.821	2.0
48.836	4.0
48.851	7.0
48.866	4.0
48.88	2.0
48.895	2.0
48.91	7.0
48.925	6.0
48.94	5.0
48.955	4.0
48.97	6.0
48.985	7.0
49.0	3.0
49.015	2.0
49.03	1.0
49.044	3.0
49.059	5.0
49.074	5.0
49.089	4.0
49.104	2.0
49.119	3.0
49.134	5.0
49.149	9.0
49.164	7.0
49.179	5.0
49.194	5.0
49.209	5.0
49.224	5.0
49.238	0.0
49.253	5.0
49.268	5.0
49.283	9.0
49.298	3.0
49.313	6.0
49.328	7.0
49.343	6.0
49.358	8.0
49.373	4.0
49.388	4.0
49.403	8.0
49.418	3.0
49.433	5.0
49.448	11.0
49.463	6.0
49.478	3.0
49.492	6.0
49.507	4.0
49.522	5.0
49.537	1.0
49.552	6.0
49.567	4.0
49.582	2.0
49.597	3.0
49.612	6.0
49.627	2.0
49.642	6.0
49.657	6.0
49.672	4.0
49.687	6.0
49.702	4.0
49.717	6.0
49.732	6.0
49.747	9.0
49.762	6.0
49.777	10.0
49.792	5.0
49.807	3.0
49.822	6.0
49.837	6.0
49.852	2.0
49.867	6.0
49.882	4.0
49.897	7.0
49.912	6.0
49.927	4.0
49.942	5.0
49.957	4.0
49.971	2.0
49.986	6.0
50.001	4.0
50.016	3.0
50.031	4.0
50.046	6.0
50.061	4.0
50.076	4.0
50.091	4.0
50.106	8.0
50.121	2.0
50.136	8.0
50.151	6.0
50.166	3.0
50.181	1.0
50.196	5.0
50.211	6.0
50.226	5.0
50.241	11.0
50.256	5.0
50.271	2.0
50.286	3.0
50.302	7.0
50.317	5.0
50.332	5.0
50.347	7.0
50.362	6.0
50.377	2.0
50.392	5.0
50.407	9.0
50.422	3.0
50.437	12.0
50.452	8.0
50.467	6.0
50.482	6.0
50.497	10.0
50.512	6.0
50.527	9.0
50.542	2.0
50.557	8.0
50.572	4.0
50.587	3.0
50.602	7.0
50.617	6.0
50.632	5.0
50.647	5.0
50.662	6.0
50.677	5.0
50.692	5.0
50.707	6.0
50.722	6.0
50.737	10.0
50.752	7.0
50.767	5.0
50.782	2.0
50.797	6.0
50.812	3.0
50.828	13.0
50.843	4.0
50.858	5.0
50.873	4.0
50.888	7.0
50.903	4.0
50.918	5.0
50.933	5.0
50.948	5.0
50.963	7.0
50.978	7.0
50.993	4.0
51.008	3.0
51.023	3.0
51.038	3.0
51.053	5.0
51.068	4.0
51.083	6.0
51.098	10.0
51.114	3.0
51.129	6.0
51.144	3.0
51.159	2.0
51.174	7.0
51.189	2.0
51.204	5.0
51.219	2.0
51.234	4.0
51.249	8.0
51.264	5.0
51.279	1.0
51.294	7.0
51.309	4.0
51.324	5.0
51.34	4.0
51.355	3.0
51.37	8.0
51.385	5.0
51.4	9.0
51.415	5.0
51.43	5.0
51.445	11.0
51.46	11.0
51.475	10.0
51.49	14.0
51.505	13.0
51.52	18.0
51.535	9.0
51.551	19.0
51.566	13.0
51.581	15.0
51.596	8.0
51.611	13.0
51.626	8.0
51.641	7.0
51.656	13.0
51.671	8.0
51.686	8.0
51.701	8.0
51.716	4.0
51.732	9.0
51.747	6.0
51.762	10.0
51.777	11.0
51.792	8.0
51.807	9.0
51.822	10.0
51.837	9.0
51.852	11.0
51.867	6.0
51.882	11.0
51.898	7.0
51.913	9.0
51.928	12.0
51.943	7.0
51.958	7.0
51.973	9.0
51.988	4.0
52.003	6.0
52.018	5.0
52.033	3.0
52.048	3.0
52.064	3.0
52.079	0.0
52.094	6.0
52.109	7.0
52.124	5.0
52.139	4.0
52.154	6.0
52.169	7.0
52.184	8.0
52.199	3.0
52.215	6.0
52.23	3.0
52.245	2.0
52.26	2.0
52.275	4.0
52.29	10.0
52.305	6.0
52.32	5.0
52.335	7.0
52.35	3.0
52.366	3.0
52.381	3.0
52.396	6.0
52.411	7.0
52.426	6.0
52.441	10.0
52.456	4.0
52.471	9.0
52.486	5.0
52.502	5.0
52.517	12.0
52.532	9.0
52.547	7.0
52.562	9.0
52.577	13.0
52.592	12.0
52.607	6.0
52.622	7.0
52.637	9.0
52.653	8.0
52.668	6.0
52.683	10.0
52.698	2.0
52.713	4.0
52.728	8.0
52.743	4.0
52.758	2.0
52.774	3.0
52.789	10.0
52.804	5.0
52.819	9.0
52.834	5.0
52.849	11.0
52.864	11.0
52.879	2.0
52.894	7.0
52.91	6.0
52.925	10.0
52.94	8.0
52.955	6.0
52.97	9.0
52.985	11.0
53.0	5.0
53.015	7.0
53.031	3.0
53.046	7.0
53.061	5.0
53.076	1.0
53.091	2.0
53.106	2.0
53.121	5.0
53.136	4.0
53.152	5.0
53.167	4.0
53.182	5.0
53.197	9.0
53.212	2.0
53.227	5.0
53.242	4.0
53.257	7.0
53.273	3.0
53.288	5.0
53.303	4.0
53.318	5.0
53.333	3.0
53.348	6.0
53.363	2.0
53.379	5.0
53.394	5.0
53.409	5.0
53.424	8.0
53.439	10.0
53.454	4.0
53.469	3.0
53.484	1.0
53.5	5.0
53.515	4.0
53.53	2.0
53.545	5.0
53.56	8.0
53.575	5.0
53.59	2.0
53.606	5.0
53.621	5.0
53.636	6.0
53.651	7.0
53.666	3.0
53.681	2.0
53.696	6.0
53.712	5.0
53.727	5.0
53.742	3.0
53.757	5.0
53.772	4.0
53.787	5.0
53.802	4.0
53.818	5.0
53.833	7.0
53.848	4.0
53.863	3.0
53.878	3.0
53.893	5.0
53.909	3.0
53.924	6.0
53.939	2.0
53.954	3.0
53.969	1.0
53.984	4.0
53.999	4.0
54.015	1.0
54.03	9.0
54.045	5.0
54.06	5.0
54.075	8.0
54.09	5.0
54.106	6.0
54.121	7.0
54.136	3.0
54.151	7.0
54.166	6.0
54.181	6.0
54.197	2.0
54.212	6.0
54.227	2.0
54.242	6.0
54.257	3.0
54.272	6.0
54.288	4.0
54.303	6.0
54.318	5.0
54.333	4.0
54.348	5.0
54.363	5.0
54.379	5.0
54.394	3.0
54.409	5.0
54.424	3.0
54.439	4.0
54.454	5.0
54.47	3.0
54.485	3.0
54.5	3.0
54.515	4.0
54.53	5.0
54.545	6.0
54.561	5.0
54.576	7.0
54.591	4.0
54.606	11.0
54.621	15.0
54.636	16.0
54.652	10.0
54.667	11.0
54.682	8.0
54.697	18.0
54.712	14.0
54.727	8.0
54.743	11.0
54.758	6.0
54.773	5.0
54.788	6.0
54.803	7.0
54.819	7.0
54.834	9.0
54.849	3.0
54.864	4.0
54.879	5.0
54.894	8.0
54.91	9.0
54.925	7.0
54.94	12.0
54.955	7.0
54.97	3.0
54.985	7.0
55.001	8.0
55.016	12.0
55.031	8.0
55.046	7.0
55.061	6.0
55.077	8.0
55.092	7.0
55.107	1.0
55.122	10.0
55.137	8.0
55.152	9.0
55.168	1.0
55.183	9.0
55.198	6.0
55.213	4.0
55.228	4.0
55.243	2.0
55.259	9.0
55.274	10.0
55.289	2.0
55.304	10.0
55.319	3.0
55.335	5.0
55.35	8.0
55.365	5.0
55.38	6.0
55.395	6.0
55.41	3.0
55.426	5.0
55.441	4.0
55.456	5.0
55.471	7.0
55.486	9.0
55.501	6.0
55.517	5.0
55.532	3.0
55.547	5.0
55.562	2.0
55.577	3.0
55.592	5.0
55.608	8.0
55.623	8.0
55.638	13.0
55.653	6.0
55.668	8.0
55.683	8.0
55.699	12.0
55.714	4.0
55.729	2.0
55.744	9.0
55.759	3.0
55.774	9.0
55.79	3.0
55.805	4.0
55.82	6.0
55.835	3.0
55.85	4.0
55.865	4.0
55.881	7.0
55.896	3.0
55.911	3.0
55.926	6.0
55.941	5.0
55.956	7.0
55.972	6.0
55.987	6.0
56.002	5.0
56.017	6.0
56.032	2.0
56.047	4.0
56.063	5.0
56.078	5.0
56.093	8.0
56.108	3.0
56.123	5.0
56.138	4.0
56.154	9.0
56.169	5.0
56.184	5.0
56.199	5.0
56.214	5.0
56.229	1.0
56.244	7.0
56.26	8.0
56.275	5.0
56.29	2.0
56.305	2.0
56.32	5.0
56.335	2.0
56.351	2.0
56.366	3.0
56.381	1.0
56.396	7.0
56.411	6.0
56.426	6.0
56.441	5.0
56.457	2.0
56.472	5.0
56.487	4.0
56.502	4.0
56.517	4.0
56.532	3.0
56.547	4.0
56.563	6.0
56.578	5.0
56.593	6.0
56.608	7.0
56.623	6.0
56.638	3.0
56.653	8.0
56.668	7.0
56.684	3.0
56.699	7.0
56.714	4.0
56.729	8.0
56.744	9.0
56.759	1.0
56.774	11.0
56.79	7.0
56.805	6.0
56.82	5.0
56.835	6.0
56.85	4.0
56.865	4.0
56.88	4.0
56.895	3.0
56.911	3.0
56.926	6.0
56.941	1.0
56.956	4.0
56.971	4.0
56.986	4.0
57.001	4.0
57.016	6.0
57.031	1.0
57.047	4.0
57.062	1.0
57.077	3.0
57.092	6.0
57.107	8.0
57.122	3.0
57.137	6.0
57.152	3.0
57.167	9.0
57.183	3.0
57.198	7.0
57.213	1.0
57.228	5.0
57.243	5.0
57.258	2.0
57.273	3.0
57.288	6.0
57.303	4.0
57.318	2.0
57.334	6.0
57.349	4.0
57.364	3.0
57.379	6.0
57.394	6.0
57.409	2.0
57.424	6.0
57.439	4.0
57.454	4.0
57.469	6.0
57.484	5.0
57.5	6.0
57.515	1.0
57.53	6.0
57.545	6.0
57.56	3.0
57.575	2.0
57.59	7.0
57.605	5.0
57.62	4.0
57.635	6.0
57.65	7.0
57.665	9.0
57.68	4.0
57.696	4.0
57.711	6.0
57.726	1.0
57.741	5.0
57.756	6.0
57.771	5.0
57.786	8.0
57.801	3.0
57.816	8.0
57.831	4.0
57.846	3.0
57.861	4.0
57.876	0.0
57.891	11.0
57.906	4.0
57.921	3.0
57.937	1.0
57.952	5.0
57.967	2.0
57.982	5.0
57.997	4.0
58.012	4.0
58.027	4.0
58.042	6.0
58.057	3.0
58.072	7.0
58.087	6.0
58.102	7.0
58.117	3.0
58.132	6.0
58.147	0.0
58.162	2.0
58.177	1.0
58.192	5.0
58.207	5.0
58.222	7.0
58.237	1.0
58.252	2.0
58.267	3.0
58.282	0.0
58.297	4.0
58.312	3.0
58.327	1.0
58.342	7.0
58.357	4.0
58.372	3.0
58.387	9.0
58.402	9.0
58.418	5.0
58.433	7.0
58.448	7.0
58.463	5.0
58.478	7.0
58.493	2.0
58.508	6.0
58.523	5.0
58.538	9.0
58.553	10.0
58.568	2.0
58.583	5.0
58.598	6.0
58.613	9.0
58.628	15.0
58.643	7.0
58.658	6.0
58.673	11.0
58.688	9.0
58.703	8.0
58.718	9.0
58.733	6.0
58.748	9.0
58.763	6.0
58.778	1.0
58.793	3.0
58.808	4.0
58.823	5.0
58.838	3.0
58.853	3.0
58.868	6.0
58.883	6.0
58.898	7.0
58.913	3.0
58.928	4.0
58.942	6.0
58.957	6.0
58.972	11.0
58.987	6.0
59.002	14.0
59.017	3.0
59.032	7.0
59.047	3.0
59.062	3.0
59.077	4.0
59.092	6.0
59.107	4.0
59.122	5.0
59.137	5.0
59.152	7.0
59.167	8.0
59.182	4.0
59.197	2.0
59.212	4.0
59.227	3.0
59.242	3.0
59.257	4.0
59.272	7.0
59.287	4.0
59.302	4.0
59.317	5.0
59.332	7.0
59.347	3.0
59.362	3.0
59.377	3.0
59.392	3.0
59.407	5.0
59.422	7.0
59.437	4.0
59.452	3.0
59.467	2.0
59.482	4.0
59.497	7.0
59.512	6.0
59.527	5.0
59.542	8.0
59.557	6.0
59.572	5.0
59.587	9.0
59.602	8.0
59.617	9.0
59.632	5.0
59.647	1.0
59.661	6.0
59.676	9.0
59.691	3.0
59.706	4.0
59.721	4.0
59.736	1.0
59.751	4.0
59.766	4.0
59.781	3.0
59.796	1.0
59.811	2.0
59.826	3.0
59.841	7.0
59.856	1.0
59.871	2.0
59.886	0.0
59.901	7.0
59.916	6.0
59.931	4.0
59.946	7.0
59.961	7.0
59.976	3.0
59.991	8.0
60.006	7.0
60.021	6.0
60.036	8.0
60.051	8.0
60.066	6.0
60.081	6.0
60.096	8.0
60.111	8.0
60.126	5.0
60.141	4.0
60.156	8.0
60.171	2.0
60.186	3.0
60.201	4.0
60.216	3.0
60.231	1.0
60.246	4.0
60.261	4.0
60.276	4.0
60.291	3.0
60.306	1.0
60.321	5.0
60.336	5.0
60.35	2.0
60.365	5.0
60.38	8.0
60.395	5.0
60.41	7.0
60.425	1.0
60.44	4.0
60.455	6.0
60.47	5.0
60.485	7.0
60.5	7.0
60.515	5.0
60.53	7.0
60.545	6.0
60.56	12.0
60.575	8.0
60.59	4.0
60.605	8.0
60.62	3.0
60.635	4.0
60.65	4.0
60.665	5.0
60.68	5.0
60.695	4.0
60.71	6.0
60.725	5.0
60.74	8.0
60.755	3.0
60.77	3.0
60.785	0.0
60.8	6.0
60.815	3.0
60.83	4.0
60.845	6.0
60.86	3.0
60.875	9.0
60.89	7.0
60.905	5.0
60.92	10.0
60.935	7.0
60.95	7.0
60.965	7.0
60.98	7.0
60.995	7.0
61.01	7.0
61.025	8.0
61.04	5.0
61.055	5.0
61.07	6.0
61.085	3.0
61.1	3.0
61.115	4.0
61.13	3.0
61.145	2.0
61.16	3.0
61.175	3.0
61.191	5.0
61.206	2.0
61.221	4.0
61.236	5.0
61.251	1.0
61.266	2.0
61.281	4.0
61.296	2.0
61.311	6.0
61.326	5.0
61.341	4.0
61.356	6.0
61.371	4.0
61.386	5.0
61.401	8.0
61.416	1.0
61.431	6.0
61.446	4.0
61.461	5.0
61.476	7.0
61.491	6.0
61.506	7.0
61.521	9.0
61.536	2.0
61.551	2.0
61.566	9.0
61.581	2.0
61.596	8.0
61.611	6.0
61.626	4.0
61.641	6.0
61.656	7.0
61.672	0.0
61.687	6.0
61.702	6.0
61.717	2.0
61.732	3.0
61.747	5.0
61.762	2.0
61.777	5.0
61.792	2.0
61.807	5.0
61.822	3.0
61.837	5.0
61.852	3.0
61.867	1.0
61.882	5.0
61.897	6.0
61.912	2.0
61.927	4.0
61.943	7.0
61.958	1.0
61.973	4.0
61.988	4.0
62.003	2.0
62.018	6.0
62.033	4.0
62.048	3.0
62.063	4.0
62.078	7.0
62.093	4.0
62.108	4.0
62.123	2.0
62.138	4.0
62.153	4.0
62.169	8.0
62.184	1.0
62.199	6.0
62.214	6.0
62.229	3.0
62.244	2.0
62.259	3.0
62.274	2.0
62.289	4.0
62.304	4.0
62.319	7.0
62.335	6.0
62.35	7.0
62.365	7.0
62.38	3.0
62.395	5.0
62.41	3.0
62.425	4.0
62.44	4.0
62.455	0.0
62.47	5.0
62.485	1.0
62.501	7.0
62.516	5.0
62.531	3.0
62.546	3.0
62.561	5.0
62.576	3.0
62.591	1.0
62.606	1.0
62.621	6.0
62.636	9.0
62.652	5.0
62.667	4.0
62.682	2.0
62.697	4.0
62.712	3.0
62.727	1.0
62.742	5.0
62.757	6.0
62.772	3.0
62.787	3.0
62.803	6.0
62.818	4.0
62.833	4.0
62.848	4.0
62.863	3.0
62.878	1.0
62.893	1.0
62.908	4.0
62.923	4.0
62.939	4.0
62.954	3.0
62.969	7.0
62.984	6.0
62.999	2.0
63.014	6.0
63.029	4.0
63.044	4.0
63.059	3.0
63.074	7.0
63.09	4.0
63.105	5.0
63.12	4.0
63.135	2.0
63.15	1.0
63.165	5.0
63.18	3.0
63.195	6.0
63.21	3.0
63.226	3.0
63.241	5.0
63.256	3.0
63.271	1.0
63.286	1.0
63.301	5.0
63.316	11.0
63.331	5.0
63.346	2.0
63.362	11.0
63.377	12.0
63.392	7.0
63.407	9.0
63.422	8.0
63.437	9.0
63.452	3.0
63.467	7.0
63.482	9.0
63.497	4.0
63.513	4.0
63.528	4.0
63.543	5.0
63.558	3.0
63.573	4.0
63.588	2.0
63.603	9.0
63.618	3.0
63.633	6.0
63.648	4.0
63.664	2.0
63.679	3.0
63.694	5.0
63.709	4.0
63.724	3.0
63.739	1.0
63.754	4.0
63.769	4.0
63.784	5.0
63.799	4.0
63.814	8.0
63.83	4.0
63.845	7.0
63.86	5.0
63.875	9.0
63.89	2.0
63.905	5.0
63.92	5.0
63.935	4.0
63.95	2.0
63.965	5.0
63.98	5.0
63.996	3.0
64.011	3.0
64.026	3.0
64.041	3.0
64.056	8.0
64.071	4.0
64.086	12.0
64.101	3.0
64.116	1.0
64.131	4.0
64.146	2.0
64.161	4.0
64.176	3.0
64.191	6.0
64.207	1.0
64.222	3.0
64.237	5.0
64.252	5.0
64.267	2.0
64.282	4.0
64.297	4.0
64.312	3.0
64.327	2.0
64.342	8.0
64.357	3.0
64.372	1.0
64.387	2.0
64.402	6.0
64.417	4.0
64.433	7.0
64.448	3.0
64.463	2.0
64.478	3.0
64.493	4.0
64.508	2.0
64.523	5.0
64.538	8.0
64.553	3.0
64.568	2.0
64.583	4.0
64.598	4.0
64.613	5.0
64.628	2.0
64.643	8.0
64.658	3.0
64.673	5.0
64.688	4.0
64.703	4.0
64.718	3.0
64.734	2.0
64.749	6.0
64.764	4.0
64.779	4.0
64.794	4.0
64.809	2.0
64.824	5.0
64.839	10.0
64.854	6.0
64.869	11.0
64.884	6.0
64.899	2.0
64.914	3.0
64.929	1.0
64.944	5.0
64.959	8.0
64.974	2.0
64.989	4.0
65.004	2.0
65.019	4.0
65.034	3.0
65.049	4.0
65.064	10.0
65.079	5.0
65.094	3.0
65.109	5.0
65.125	7.0
65.14	3.0
65.155	4.0
65.17	4.0
65.185	4.0
65.2	2.0
65.215	1.0
65.23	5.0
65.245	6.0
65.26	6.0
65.275	2.0
65.29	5.0
65.305	4.0
65.32	10.0
65.335	8.0
65.35	7.0
65.365	7.0
65.38	3.0
65.395	3.0
65.41	0.0
65.425	2.0
65.44	6.0
65.455	5.0
65.47	5.0
65.485	3.0
65.5	7.0
65.515	6.0
65.53	3.0
65.545	3.0
65.56	6.0
65.575	4.0
65.59	8.0
65.605	2.0
65.62	7.0
65.635	3.0
65.65	1.0
65.666	4.0
65.681	5.0
65.696	4.0
65.711	1.0
65.726	3.0
65.741	3.0
65.756	2.0
65.771	4.0
65.786	4.0
65.801	1.0
65.816	3.0
65.831	2.0
65.846	3.0
65.861	3.0
65.876	3.0
65.891	9.0
65.906	4.0
65.921	5.0
65.936	7.0
65.951	3.0
65.966	3.0
65.981	4.0
65.996	4.0
66.011	6.0
66.026	4.0
66.041	3.0
66.056	6.0
66.071	5.0
66.086	5.0
66.101	7.0
66.116	5.0
66.131	3.0
66.146	7.0
66.161	9.0
66.176	9.0
66.191	6.0
66.206	10.0
66.221	9.0
66.236	3.0
66.251	5.0
66.266	10.0
66.281	4.0
66.296	4.0
66.311	9.0
66.327	2.0
66.342	3.0
66.357	1.0
66.372	3.0
66.387	4.0
66.402	1.0
66.417	1.0
66.432	2.0
66.447	2.0
66.462	4.0
66.477	3.0
66.492	7.0
66.507	5.0
66.522	4.0
66.537	5.0
66.552	6.0
66.567	9.0
66.582	5.0
66.597	6.0
66.612	11.0
66.627	6.0
66.642	3.0
66.657	7.0
66.672	9.0
66.687	7.0
66.702	4.0
66.717	12.0
66.732	8.0
66.747	3.0
66.762	9.0
66.777	6.0
66.792	3.0
66.807	4.0
66.822	2.0
66.837	3.0
66.853	5.0
66.868	5.0
66.883	6.0
66.898	3.0
66.913	5.0
66.928	5.0
66.943	2.0
66.958	6.0
66.973	1.0
66.988	6.0
67.003	4.0
67.018	4.0
67.033	6.0
67.048	7.0
67.063	3.0
67.078	1.0
67.093	5.0
67.108	6.0
67.123	8.0
67.138	3.0
67.153	4.0
67.168	6.0
67.183	2.0
67.198	3.0
67.214	4.0
67.229	5.0
67.244	3.0
67.259	4.0
67.274	2.0
67.289	3.0
67.304	1.0
67.319	1.0
67.334	3.0
67.349	3.0
67.364	3.0
67.379	3.0
67.394	4.0
67.409	4.0
67.424	3.0
67.439	3.0
67.454	2.0
67.469	5.0
67.484	10.0
67.5	4.0
67.515	6.0
67.53	8.0
67.545	3.0
67.56	3.0
67.575	2.0
67.59	0.0
67.605	6.0
67.62	6.0
67.635	4.0
67.65	3.0
67.665	4.0
67.68	3.0
67.695	5.0
67.71	3.0
67.726	2.0
67.741	4.0
67.756	4.0
67.771	4.0
67.786	2.0
67.801	0.0
67.816	5.0
67.831	3.0
67.846	4.0
67.861	2.0
67.876	4.0
67.891	3.0
67.906	3.0
67.922	5.0
67.937	6.0
67.952	7.0
67.967	4.0
67.982	4.0
67.997	7.0
68.012	1.0
68.027	7.0
68.042	2.0
68.057	6.0
68.072	5.0
68.087	2.0
68.103	2.0
68.118	2.0
68.133	2.0
68.148	5.0
68.163	5.0
68.178	3.0
68.193	1.0
68.208	4.0
68.223	5.0
68.238	2.0
68.254	7.0
68.269	2.0
68.284	2.0
68.299	3.0
68.314	5.0
68.329	2.0
68.344	2.0
68.359	4.0
68.374	3.0
68.389	1.0
68.405	6.0
68.42	1.0
68.435	1.0
68.45	1.0
68.465	4.0
68.48	3.0
68.495	3.0
68.51	5.0
68.525	0.0
68.54	3.0
68.556	2.0
68.571	0.0
68.586	5.0
68.601	3.0
68.616	6.0
68.631	3.0
68.646	4.0
68.661	0.0
68.676	3.0
68.691	4.0
68.707	5.0
68.722	2.0
68.737	2.0
68.752	0.0
68.767	1.0
68.782	2.0
68.797	5.0
68.812	7.0
68.827	8.0
68.842	3.0
68.857	8.0
68.873	4.0
68.888	6.0
68.903	1.0
68.918	4.0
68.933	5.0
68.948	3.0
68.963	8.0
68.978	4.0
68.993	3.0
69.008	1.0
69.023	3.0
69.038	2.0
69.054	4.0
69.069	1.0
69.084	5.0
69.099	4.0
69.114	4.0
69.129	4.0
69.144	5.0
69.159	4.0
69.174	4.0
69.189	3.0
69.204	4.0
69.219	2.0
69.234	3.0
69.249	6.0
69.264	3.0
69.279	3.0
69.295	6.0
69.31	2.0
69.325	3.0
69.34	8.0
69.355	2.0
69.37	5.0
69.385	5.0
69.4	6.0
69.415	6.0
69.43	1.0
69.445	9.0
69.46	3.0
69.475	5.0
69.49	5.0
69.505	2.0
69.52	4.0
69.535	1.0
69.55	0.0
69.565	1.0
69.58	3.0
69.595	4.0
69.61	4.0
69.625	5.0
69.64	3.0
69.655	7.0
69.67	4.0
69.685	3.0
69.7	8.0
69.715	4.0
69.73	1.0
69.745	5.0
69.76	7.0
69.775	7.0
69.79	6.0
69.805	3.0
69.82	5.0
69.835	7.0
69.85	5.0
69.865	8.0
69.88	7.0
69.895	5.0
69.909	6.0
69.924	6.0
69.939	2.0
69.954	3.0
69.969	2.0
69.984	4.0
69.999	7.0
70.014	3.0
70.029	5.0
70.044	2.0
70.059	3.0
70.074	7.0
70.088	2.0
70.103	3.0
70.118	7.0
70.133	2.0
70.148	4.0
70.163	1.0
70.178	2.0
70.193	3.0
70.208	11.0
70.222	4.0
70.237	12.0
70.252	9.0
70.267	9.0
70.282	3.0
70.297	6.0
70.312	5.0
70.327	6.0
70.341	6.0
70.356	2.0
70.371	5.0
70.386	3.0
70.401	5.0
70.416	1.0
70.43	4.0
70.445	3.0
70.46	2.0
70.475	5.0
70.49	4.0
70.505	3.0
70.519	8.0
70.534	6.0
70.549	4.0
70.564	2.0
70.579	1.0
70.594	5.0
70.608	5.0
70.623	5.0
70.638	5.0
70.653	1.0
70.668	7.0
70.683	6.0
70.697	3.0
70.712	5.0
70.727	8.0
70.742	5.0
70.757	3.0
70.771	6.0
70.786	4.0
70.801	5.0
70.816	4.0
70.831	3.0
70.845	3.0
70.86	2.0
70.875	4.0
70.89	2.0
70.905	4.0
70.92	2.0
70.934	2.0
70.949	5.0
70.964	5.0
70.979	4.0
70.994	0.0
71.008	1.0
71.023	4.0
71.038	3.0
71.053	2.0
71.068	6.0
71.082	6.0
71.097	3.0
71.112	6.0
71.127	4.0
71.142	8.0
71.156	9.0
71.171	4.0
71.186	4.0
71.201	3.0
71.216	2.0
71.231	3.0
71.245	3.0
71.26	9.0
71.275	4.0
71.29	2.0
71.305	2.0
71.319	2.0
71.334	4.0
71.349	4.0
71.364	2.0
71.379	2.0
71.394	2.0
71.408	2.0
71.423	3.0
71.438	9.0
71.453	4.0
71.468	4.0
71.483	2.0
71.497	6.0
71.512	3.0
71.527	4.0
71.542	4.0
71.557	4.0
71.572	4.0
71.586	5.0
71.601	6.0
71.616	6.0
71.631	2.0
71.646	6.0
71.661	5.0
71.676	3.0
71.69	2.0
71.705	1.0
71.72	5.0
71.735	5.0
71.75	2.0
71.765	5.0
71.78	1.0
71.795	4.0
71.81	3.0
71.824	4.0
71.839	2.0
71.854	1.0
71.869	4.0
71.884	6.0
71.899	3.0
71.914	2.0
71.929	3.0
71.944	3.0
71.959	2.0
71.974	5.0
71.988	4.0
72.003	4.0
72.018	6.0
72.033	4.0
72.048	9.0
72.063	4.0
72.078	3.0
72.093	0.0
72.108	1.0
72.123	4.0
72.138	2.0
72.153	7.0
72.168	0.0
72.183	4.0
72.198	1.0
72.213	4.0
72.228	1.0
72.243	1.0
72.258	3.0
72.273	4.0
72.288	4.0
72.303	8.0
72.318	1.0
72.333	2.0
72.348	3.0
72.363	1.0
72.378	3.0
72.393	2.0
72.408	3.0
72.423	2.0
72.438	4.0
72.453	4.0
72.468	2.0
72.483	2.0
72.498	5.0
72.513	2.0
72.528	1.0
72.543	1.0
72.558	4.0
72.573	5.0
72.588	5.0
72.603	4.0
72.618	1.0
72.633	5.0
72.649	4.0
72.664	0.0
72.679	3.0
72.694	4.0
72.709	4.0
72.724	4.0
72.739	3.0
72.754	4.0
72.769	6.0
72.784	1.0
72.799	3.0
72.814	6.0
72.829	3.0
72.845	4.0
72.86	3.0
72.875	1.0
72.89	3.0
72.905	5.0
72.92	2.0
72.935	5.0
72.95	7.0
72.965	3.0
72.98	6.0
72.996	4.0
73.011	3.0
73.026	6.0
73.041	3.0
73.056	2.0
73.071	6.0
73.086	4.0
73.101	2.0
73.117	7.0
73.132	3.0
73.147	1.0
73.162	1.0
73.177	3.0
73.192	9.0
73.207	4.0
73.222	4.0
73.238	4.0
73.253	5.0
73.268	5.0
73.283	4.0
73.298	2.0
73.313	4.0
73.328	4.0
73.343	6.0
73.359	4.0
73.374	4.0
73.389	4.0
73.404	1.0
73.419	3.0
73.434	2.0
73.449	7.0
73.465	6.0
73.48	4.0
73.495	4.0
73.51	7.0
73.525	2.0
73.54	7.0
73.556	2.0
73.571	1.0
73.586	4.0
73.601	2.0
73.616	1.0
73.631	1.0
73.646	5.0
73.662	5.0
73.677	9.0
73.692	1.0
73.707	2.0
73.722	1.0
73.737	3.0
73.752	6.0
73.768	4.0
73.783	5.0
73.798	4.0
73.813	4.0
73.828	4.0
73.843	6.0
73.859	5.0
73.874	2.0
73.889	0.0
73.904	2.0
73.919	3.0
73.934	4.0
73.949	5.0
73.965	4.0
73.98	9.0
73.995	4.0
74.01	5.0
74.025	2.0
74.04	4.0
74.056	4.0
74.071	5.0
74.086	5.0
74.101	2.0
74.116	1.0
74.131	5.0
74.146	3.0
74.162	7.0
74.177	11.0
74.192	4.0
74.207	1.0
74.222	5.0
74.237	6.0
74.252	7.0
74.268	3.0
74.283	2.0
74.298	2.0
74.313	5.0
74.328	4.0
74.343	3.0
74.358	4.0
74.374	2.0
74.389	5.0
74.404	0.0
74.419	4.0
74.434	3.0
74.449	5.0
74.464	3.0
74.48	2.0
74.495	2.0
74.51	2.0
74.525	2.0
74.54	4.0
74.555	4.0
74.57	4.0
74.586	3.0
74.601	8.0
74.616	2.0
74.631	1.0
74.646	4.0
74.661	2.0
74.676	6.0
74.691	6.0
74.707	4.0
74.722	5.0
74.737	3.0
74.752	3.0
74.767	4.0
74.782	6.0
74.797	5.0
74.813	3.0
74.828	2.0
74.843	3.0
74.858	3.0
74.873	3.0
74.888	4.0
74.903	4.0
74.918	4.0
74.934	9.0
74.949	3.0
74.964	3.0
74.979	3.0
74.994	3.0
75.009	3.0
75.024	7.0
75.04	7.0
75.055	6.0
75.07	3.0
75.085	3.0
75.1	7.0
75.115	3.0
75.13	0.0
75.145	8.0
75.161	1.0
75.176	6.0
75.191	3.0
75.206	5.0
75.221	4.0
75.236	0.0
75.251	6.0
75.266	3.0
75.282	4.0
75.297	2.0
75.312	2.0
75.327	5.0
75.342	1.0
75.357	4.0
75.372	3.0
75.387	1.0
75.403	6.0
75.418	3.0
75.433	0.0
75.448	2.0
75.463	1.0
75.478	3.0
75.493	7.0
75.509	1.0
75.524	4.0
75.539	5.0
75.554	4.0
75.569	0.0
75.584	10.0
75.599	6.0
75.614	3.0
75.63	8.0
75.645	3.0
75.66	3.0
75.675	3.0
75.69	3.0
75.705	6.0
75.72	6.0
75.735	2.0
75.751	4.0
75.766	3.0
75.781	6.0
75.796	0.0
75.811	2.0
75.826	1.0
75.841	5.0
75.856	6.0
75.872	4.0
75.887	4.0
75.902	6.0
75.917	1.0
75.932	4.0
75.947	4.0
75.962	5.0
75.977	3.0
75.993	5.0
76.008	1.0
76.023	2.0
76.038	3.0
76.053	6.0
76.068	2.0
76.083	4.0
76.098	5.0
76.114	0.0
76.129	0.0
76.144	1.0
76.159	7.0
76.174	2.0
76.189	4.0
76.204	4.0
76.22	6.0
76.235	1.0
76.25	2.0
76.265	4.0
76.28	5.0
76.295	6.0
76.31	0.0
76.325	2.0
76.341	4.0
76.356	4.0
76.371	5.0
76.386	3.0
76.401	4.0
76.416	4.0
76.431	3.0
76.446	3.0
76.462	2.0
76.477	4.0
76.492	3.0
76.507	0.0
76.522	4.0
76.537	1.0
76.552	1.0
76.567	1.0
76.583	4.0
76.598	1.0
76.613	4.0
76.628	2.0
76.643	3.0
76.658	1.0
76.673	7.0
76.688	5.0
76.704	4.0
76.719	6.0
76.734	2.0
76.749	2.0
76.764	4.0
76.779	6.0
76.794	4.0
76.809	2.0
76.824	3.0
76.84	5.0
76.855	3.0
76.87	2.0
76.885	0.0
76.9	5.0
76.915	4.0
76.93	6.0
76.945	3.0
76.96	2.0
76.976	4.0
76.991	5.0
77.006	3.0
77.021	2.0
77.036	4.0
77.051	1.0
77.066	2.0
77.081	3.0
77.096	5.0
77.112	3.0
77.127	3.0
77.142	4.0
77.157	2.0
77.172	2.0
77.187	5.0
77.202	2.0
77.217	6.0
77.232	5.0
77.247	5.0
77.263	6.0
77.278	4.0
77.293	3.0
77.308	4.0
77.323	4.0
77.338	4.0
77.353	0.0
77.368	3.0
77.383	3.0
77.398	2.0
77.413	3.0
77.428	4.0
77.444	5.0
77.459	3.0
77.474	1.0
77.489	4.0
77.504	5.0
77.519	6.0
77.534	5.0
77.549	6.0
77.564	5.0
77.579	9.0
77.594	5.0
77.609	9.0
77.624	6.0
77.64	5.0
77.655	2.0
77.67	6.0
77.685	4.0
77.7	7.0
77.715	2.0
77.73	1.0
77.745	5.0
77.76	2.0
77.775	1.0
77.79	3.0
77.805	3.0
77.82	3.0
77.835	1.0
77.85	6.0
77.865	4.0
77.88	4.0
77.895	1.0
77.91	7.0
77.926	4.0
77.941	3.0
77.956	5.0
77.971	4.0
77.986	1.0
78.001	3.0
78.016	3.0
78.031	4.0
78.046	3.0
78.061	2.0
78.076	2.0
78.091	3.0
78.106	8.0
78.121	6.0
78.136	4.0
78.151	1.0
78.166	3.0
78.181	4.0
78.196	3.0
78.211	5.0
78.226	5.0
78.241	2.0
78.256	0.0
78.271	2.0
78.286	2.0
78.301	4.0
78.316	2.0
78.331	4.0
78.346	2.0
78.361	6.0
78.376	1.0
78.391	7.0
78.406	1.0
78.421	2.0
78.436	3.0
78.451	1.0
78.466	4.0
78.481	3.0
78.496	2.0
78.511	5.0
78.526	4.0
78.541	4.0
78.556	4.0
78.571	3.0
78.586	3.0
78.601	4.0
78.616	4.0
78.631	3.0
78.646	1.0
78.661	1.0
78.676	0.0
78.691	1.0
78.706	5.0
78.721	5.0
78.736	4.0
78.751	2.0
78.766	4.0
78.781	2.0
78.796	2.0
78.811	4.0
78.826	3.0
78.841	2.0
78.856	3.0
78.871	4.0
78.885	3.0
78.9	6.0
78.915	5.0
78.93	3.0
78.945	8.0
78.96	2.0
78.975	4.0
78.99	2.0
79.005	6.0
79.02	8.0
79.035	2.0
79.05	5.0
79.065	2.0
79.08	3.0
79.095	2.0
79.11	2.0
79.125	1.0
79.14	0.0
79.155	2.0
79.17	5.0
79.185	0.0
79.2	5.0
79.215	2.0
79.23	3.0
79.245	3.0
79.26	5.0
79.275	5.0
79.29	3.0
79.304	5.0
79.319	4.0
79.334	3.0
79.349	3.0
79.364	6.0
79.379	2.0
79.394	4.0
79.409	0.0
79.424	0.0
79.439	3.0
79.454	1.0
79.469	4.0
79.484	3.0
79.499	3.0
79.514	2.0
79.529	1.0
79.544	2.0
79.559	1.0
79.574	2.0
79.589	6.0
79.604	5.0
79.619	3.0
79.634	5.0
79.649	2.0
79.664	1.0
79.679	3.0
79.693	3.0
79.708	2.0
79.723	2.0
79.738	0.0
79.753	3.0
79.768	2.0
79.783	3.0
79.798	3.0
79.813	1.0
79.828	4.0
79.843	3.0
79.858	2.0
79.873	3.0
79.888	3.0
79.903	4.0
79.918	4.0
79.933	3.0
79.948	4.0
79.963	4.0
79.978	4.0
79.993	5.0
80.008	4.0
80.023	2.0
80.038	4.0
80.053	2.0
80.068	2.0
80.083	4.0
80.098	1.0
80.113	3.0
80.128	2.0
80.143	7.0
80.158	2.0
80.173	3.0
80.188	5.0
80.202	3.0
80.217	3.0
80.232	4.0
80.247	1.0
80.262	0.0
80.277	4.0
80.292	4.0
80.307	2.0
80.322	1.0
80.337	5.0
80.352	2.0
80.367	4.0
80.382	1.0
80.397	3.0
80.412	4.0
80.427	2.0
80.442	6.0
80.457	4.0
80.472	6.0
80.487	4.0
80.502	4.0
80.517	2.0
80.532	4.0
80.547	3.0
80.562	4.0
80.577	6.0
80.592	4.0
80.607	4.0
80.622	4.0
80.637	1.0
80.652	4.0
80.667	4.0
80.682	4.0
80.697	5.0
80.712	0.0
80.727	2.0
80.742	5.0
80.757	6.0
80.772	1.0
80.787	2.0
80.802	6.0
80.817	5.0
80.832	2.0
80.847	3.0
80.862	3.0
80.877	4.0
80.892	3.0
80.907	4.0
80.922	1.0
80.937	2.0
80.952	2.0
80.967	0.0
80.982	0.0
80.997	3.0
81.012	4.0
81.027	2.0
81.042	3.0
81.057	1.0
81.072	1.0
81.087	4.0
81.101	6.0
81.116	4.0
81.131	5.0
81.146	3.0
81.161	8.0
81.176	1.0
81.191	1.0
81.206	5.0
81.221	3.0
81.236	4.0
81.251	5.0
81.266	5.0
81.281	10.0
81.296	2.0
81.311	0.0
81.326	4.0
81.341	3.0
81.356	5.0
81.371	3.0
81.386	3.0
81.401	3.0
81.416	2.0
81.431	6.0
81.446	2.0
81.461	2.0
81.476	5.0
81.491	1.0
81.506	6.0
81.521	3.0
81.536	3.0
81.55	6.0
81.565	3.0
81.58	4.0
81.595	2.0
81.61	3.0
81.625	7.0
81.64	6.0
81.655	0.0
81.67	2.0
81.685	4.0
81.7	2.0
81.715	1.0
81.73	0.0
81.745	4.0
81.76	2.0
81.775	5.0
81.79	1.0
81.805	3.0
81.819	5.0
81.834	4.0
81.849	5.0
81.864	2.0
81.879	3.0
81.894	2.0
81.909	3.0
81.924	5.0
81.939	5.0
81.954	4.0
81.969	1.0
81.984	2.0
81.999	2.0
82.013	2.0
82.028	6.0
82.043	4.0
82.058	2.0
82.073	4.0
82.088	5.0
82.103	0.0
82.118	5.0
82.133	3.0
82.148	4.0
82.163	5.0
82.177	5.0
82.192	4.0
82.207	3.0
82.222	3.0
82.237	4.0
82.252	4.0
82.267	3.0
82.282	2.0
82.297	3.0
82.312	1.0
82.326	5.0
82.341	3.0
82.356	5.0
82.371	3.0
82.386	6.0
82.401	3.0
82.416	0.0
82.431	2.0
82.445	2.0
82.46	4.0
82.475	3.0
82.49	3.0
82.505	0.0
82.52	3.0
82.535	1.0
82.55	3.0
82.565	3.0
82.579	2.0
82.594	0.0
82.609	5.0
82.624	3.0
82.639	6.0
82.654	4.0
82.669	2.0
82.684	3.0
82.698	4.0
82.713	4.0
82.728	9.0
82.743	3.0
82.758	5.0
82.773	2.0
82.788	7.0
82.803	4.0
82.817	1.0
82.832	4.0
82.847	0.0
82.862	4.0
82.877	2.0
82.892	1.0
82.907	3.0
82.922	1.0
82.937	2.0
82.951	0.0
82.966	0.0
82.981	4.0
82.996	2.0
83.011	2.0
83.026	1.0
83.041	2.0
83.056	5.0
83.07	3.0
83.085	1.0
83.1	0.0
83.115	2.0
83.13	4.0
83.145	4.0
83.16	4.0
83.175	2.0
83.19	5.0
83.204	2.0
83.219	2.0
83.234	2.0
83.249	4.0
83.264	3.0
83.279	6.0
83.294	4.0
83.309	4.0
83.324	5.0
83.339	3.0
83.353	3.0
83.368	1.0
83.383	2.0
83.398	4.0
83.413	1.0
83.428	2.0
83.443	3.0
83.458	6.0
83.473	2.0
83.488	7.0
83.503	4.0
83.517	3.0
83.532	5.0
83.547	4.0
83.562	3.0
83.577	2.0
83.592	6.0
83.607	2.0
83.622	9.0
83.637	1.0
83.652	2.0
83.667	2.0
83.682	2.0
83.697	3.0
83.712	1.0
83.727	3.0
83.741	1.0
83.756	5.0
83.771	1.0
83.786	2.0
83.801	2.0
83.816	2.0
83.831	6.0
83.846	2.0
83.861	3.0
83.876	5.0
83.891	2.0
83.906	2.0
83.921	1.0
83.936	0.0
83.951	2.0
83.966	1.0
83.981	2.0
83.996	3.0
84.011	2.0
84.026	3.0
84.041	6.0
84.056	4.0
84.071	5.0
84.086	7.0
84.101	2.0
84.116	5.0
84.131	1.0
84.146	5.0
84.161	6.0
84.176	1.0
84.191	3.0
84.206	6.0
84.221	3.0
84.236	2.0
84.251	6.0
84.266	2.0
84.281	2.0
84.296	2.0
84.311	7.0
84.326	7.0
84.341	6.0
84.356	4.0
84.371	4.0
84.386	3.0
84.401	4.0
84.416	5.0
84.431	3.0
84.446	3.0
84.461	1.0
84.476	2.0
84.492	9.0
84.507	3.0
84.522	8.0
84.537	2.0
84.552	3.0
84.567	4.0
84.582	3.0
84.597	2.0
84.612	3.0
84.627	3.0
84.642	2.0
84.657	2.0
84.672	2.0
84.687	1.0
84.702	4.0
84.717	3.0
84.733	1.0
84.748	2.0
84.763	2.0
84.778	1.0
84.793	2.0
84.808	5.0
84.823	2.0
84.838	2.0
84.853	1.0
84.868	3.0
84.883	3.0
84.898	3.0
84.913	3.0
84.929	3.0
84.944	3.0
84.959	2.0
84.974	0.0
84.989	3.0
85.004	4.0
85.019	6.0
85.034	2.0
85.049	0.0
85.064	3.0
85.079	6.0
85.094	4.0
85.11	4.0
85.125	3.0
85.14	2.0
85.155	1.0
85.17	8.0
85.185	1.0
85.2	2.0
85.215	3.0
85.23	2.0
85.245	2.0
85.26	3.0
85.276	4.0
85.291	4.0
85.306	2.0
85.321	5.0
85.336	2.0
85.351	3.0
85.366	3.0
85.381	4.0
85.396	2.0
85.411	3.0
85.426	2.0
85.441	3.0
85.457	2.0
85.472	3.0
85.487	1.0
85.502	5.0
85.517	3.0
85.532	5.0
85.547	0.0
85.562	7.0
85.577	3.0
85.592	4.0
85.607	5.0
85.622	1.0
85.637	3.0
85.653	8.0
85.668	1.0
85.683	3.0
85.698	2.0
85.713	5.0
85.728	2.0
85.743	3.0
85.758	2.0
85.773	7.0
85.788	3.0
85.803	3.0
85.818	4.0
85.833	4.0
85.848	0.0
85.863	3.0
85.879	5.0
85.894	3.0
85.909	1.0
85.924	2.0
85.939	1.0
85.954	2.0
85.969	4.0
85.984	5.0
85.999	6.0
86.014	4.0
86.029	4.0
86.044	2.0
86.059	6.0
86.074	1.0
86.089	1.0
86.104	1.0
86.119	1.0
86.134	2.0
86.149	3.0
86.164	4.0
86.179	3.0
86.194	3.0
86.209	1.0
86.224	2.0
86.239	0.0
86.254	2.0
86.269	2.0
86.284	0.0
86.299	1.0
86.314	3.0
86.33	2.0
86.345	2.0
86.36	8.0
86.375	1.0
86.39	4.0
86.405	3.0
86.42	2.0
86.435	4.0
86.45	3.0
86.465	3.0
86.48	6.0
86.495	2.0
86.51	2.0
86.525	4.0
86.54	2.0
86.555	3.0
86.57	0.0
86.585	3.0
86.6	2.0
86.615	4.0
86.63	2.0
86.645	3.0
86.659	4.0
86.674	3.0
86.689	3.0
86.704	2.0
86.719	9.0
86.734	3.0
86.749	2.0
86.764	4.0
86.779	1.0
86.794	4.0
86.809	2.0
86.824	3.0
86.839	3.0
86.854	5.0
86.869	2.0
86.884	6.0
86.899	4.0
86.914	6.0
86.929	6.0
86.944	3.0
86.959	7.0
86.974	6.0
86.989	4.0
87.004	5.0
87.019	1.0
87.034	0.0
87.049	2.0
87.064	2.0
87.079	4.0
87.094	3.0
87.109	3.0
87.124	2.0
87.139	2.0
87.154	1.0
87.169	1.0
87.184	4.0
87.199	5.0
87.214	3.0
87.229	3.0
87.244	3.0
87.259	7.0
87.274	1.0
87.289	4.0
87.304	2.0
87.319	4.0
87.334	1.0
87.349	2.0
87.364	4.0
87.379	3.0
87.394	7.0
87.409	3.0
87.424	2.0
87.438	3.0
87.453	5.0
87.468	3.0
87.483	1.0
87.498	7.0
87.513	2.0
87.528	1.0
87.543	8.0
87.558	1.0
87.573	2.0
87.588	5.0
87.603	7.0
87.618	0.0
87.633	2.0
87.648	8.0
87.663	7.0
87.678	3.0
87.693	6.0
87.708	6.0
87.723	5.0
87.738	6.0
87.753	8.0
87.768	3.0
87.783	4.0
87.798	2.0
87.813	1.0
87.828	2.0
87.843	2.0
87.858	1.0
87.873	1.0
87.888	4.0
87.903	2.0
87.918	6.0
87.933	4.0
87.948	4.0
87.963	4.0
87.978	1.0
87.993	1.0
88.008	2.0
88.023	2.0
88.038	2.0
88.053	0.0
88.068	3.0
88.083	3.0
88.098	3.0
88.113	1.0
88.128	0.0
88.143	2.0
88.158	2.0
88.174	2.0
88.189	3.0
88.204	4.0
88.219	6.0
88.234	5.0
88.249	2.0
88.264	2.0
88.279	2.0
88.294	3.0
88.309	0.0
88.324	1.0
88.339	2.0
88.354	1.0
88.369	3.0
88.384	3.0
88.399	3.0
88.414	3.0
88.429	1.0
88.444	3.0
88.459	3.0
88.474	4.0
88.489	0.0
88.504	3.0
88.519	4.0
88.534	2.0
88.549	3.0
88.564	1.0
88.58	5.0
88.595	7.0
88.61	4.0
88.625	3.0
88.64	6.0
88.655	3.0
88.67	2.0
88.685	4.0
88.7	3.0
88.715	5.0
88.73	3.0
88.745	3.0
88.76	2.0
88.775	8.0
88.79	4.0
88.805	1.0
88.82	1.0
88.835	2.0
88.85	2.0
88.865	1.0
88.88	2.0
88.895	2.0
88.911	2.0
88.926	1.0
88.941	2.0
88.956	0.0
88.971	3.0
88.986	1.0
89.001	2.0
89.016	1.0
89.031	0.0
89.046	1.0
89.061	6.0
89.076	6.0
89.091	4.0
89.106	3.0
89.121	3.0
89.136	3.0
89.151	0.0
89.166	1.0
89.181	1.0
89.196	0.0
89.211	0.0
89.227	6.0
89.242	4.0
89.257	3.0
89.272	1.0
89.287	3.0
89.302	2.0
89.317	6.0
89.332	4.0
89.347	3.0
89.362	2.0
89.377	6.0
89.392	2.0
89.407	2.0
89.422	5.0
89.437	6.0
89.452	6.0
89.467	2.0
89.482	2.0
89.497	5.0
89.512	2.0
89.527	1.0
89.542	4.0
89.557	3.0
89.572	2.0
89.587	4.0
89.602	3.0
89.617	2.0
89.632	4.0
89.647	0.0
89.662	4.0
89.677	1.0
89.693	2.0
89.708	3.0
89.723	1.0
89.738	3.0
89.753	5.0
89.768	2.0
89.783	3.0
89.798	2.0
89.813	4.0
89.828	2.0
89.843	8.0
89.858	4.0
89.873	2.0
89.888	1.0
89.903	2.0
89.918	2.0
89.933	2.0
89.948	3.0
89.963	3.0
89.978	2.0
89.993	1.0
90.008	2.0
90.023	4.0
90.038	3.0
90.053	6.0
90.068	5.0
90.083	1.0
90.097	3.0
90.112	2.0
90.127	1.0
90.142	5.0
90.157	5.0
90.172	7.0
90.187	5.0
90.202	7.0
90.217	2.0
90.232	3.0
90.247	6.0
90.262	3.0
90.277	4.0
90.292	3.0
90.307	1.0
90.322	6.0
90.337	4.0
90.352	6.0
90.367	5.0
90.382	5.0
90.397	2.0
90.412	3.0
90.427	3.0
90.442	2.0
90.457	5.0
90.472	1.0
90.487	4.0
90.501	3.0
90.516	4.0
90.531	1.0
90.546	4.0
90.561	5.0
90.576	3.0
90.591	1.0
90.606	2.0
90.621	4.0
90.636	6.0
90.651	4.0
90.666	4.0
90.681	5.0
90.696	6.0
90.711	1.0
90.726	2.0
90.741	2.0
90.755	7.0
90.77	4.0
90.785	1.0
90.8	3.0
90.815	7.0
90.83	1.0
90.845	4.0
90.86	5.0
90.875	4.0
90.89	6.0
90.905	4.0
90.92	2.0
90.935	7.0
90.95	4.0
90.965	3.0
90.979	3.0
90.994	7.0
91.009	5.0
91.024	0.0
91.039	4.0
91.054	3.0
91.069	4.0
91.084	2.0
91.099	5.0
91.114	2.0
91.129	1.0
91.144	3.0
91.159	2.0
91.174	3.0
91.188	1.0
91.203	6.0
91.218	1.0
91.233	3.0
91.248	5.0
91.263	7.0
91.278	1.0
91.293	1.0
91.308	2.0
91.323	3.0
91.338	0.0
91.353	5.0
91.368	3.0
91.383	2.0
91.398	4.0
91.412	2.0
91.427	4.0
91.442	3.0
91.457	2.0
91.472	0.0
91.487	5.0
91.502	3.0
91.517	3.0
91.532	6.0
91.547	4.0
91.562	0.0
91.577	2.0
91.592	3.0
91.607	3.0
91.622	1.0
91.637	4.0
91.652	5.0
91.666	4.0
91.681	2.0
91.696	2.0
91.711	3.0
91.726	4.0
91.741	5.0
91.756	3.0
91.771	1.0
91.786	3.0
91.801	3.0
91.816	4.0
91.831	1.0
91.846	3.0
91.861	8.0
91.876	5.0
91.891	3.0
91.906	1.0
91.921	1.0
91.936	1.0
91.951	3.0
91.966	1.0
91.981	3.0
91.995	3.0
92.01	0.0
92.025	2.0
92.04	6.0
92.055	2.0
92.07	6.0
92.085	3.0
92.1	2.0
92.115	6.0
92.13	4.0
92.145	3.0
92.16	3.0
92.175	2.0
92.19	4.0
92.205	4.0
92.22	3.0
92.235	3.0
92.25	4.0
92.265	3.0
92.28	7.0
92.295	1.0
92.31	0.0
92.325	2.0
92.34	6.0
92.355	2.0
92.37	4.0
92.385	4.0
92.4	2.0
92.415	6.0
92.43	2.0
92.445	5.0
92.46	1.0
92.475	2.0
92.49	5.0
92.505	1.0
92.52	3.0
92.535	1.0
92.55	2.0
92.565	1.0
92.58	3.0
92.595	6.0
92.61	1.0
92.625	1.0
92.64	4.0
92.655	5.0
92.67	4.0
92.685	2.0
92.7	2.0
92.715	7.0
92.73	2.0
92.745	0.0
92.76	3.0
92.775	2.0
92.79	4.0
92.805	0.0
92.82	3.0
92.835	7.0
92.85	4.0
92.865	2.0
92.88	5.0
92.895	3.0
92.91	4.0
92.925	3.0
92.94	6.0
92.955	1.0
92.97	1.0
92.985	2.0
93.0	4.0
93.015	6.0
93.03	1.0
93.045	3.0
93.06	2.0
93.075	3.0
93.09	2.0
93.105	3.0
93.12	4.0
93.135	3.0
93.15	2.0
93.165	1.0
93.18	4.0
93.195	3.0
93.21	6.0
93.225	1.0
93.24	1.0
93.255	1.0
93.27	3.0
93.285	3.0
93.3	4.0
93.315	2.0
93.33	4.0
93.345	5.0
93.36	2.0
93.375	1.0
93.39	2.0
93.405	3.0
93.42	3.0
93.435	8.0
93.45	3.0
93.465	6.0
93.48	3.0
93.495	4.0
93.51	6.0
93.525	2.0
93.54	2.0
93.555	2.0
93.57	1.0
93.585	3.0
93.6	2.0
93.615	3.0
93.63	6.0
93.645	4.0
93.66	5.0
93.675	2.0
93.69	2.0
93.705	5.0
93.72	5.0
93.735	4.0
93.75	5.0
93.765	2.0
93.78	5.0
93.795	4.0
93.81	2.0
93.824	4.0
93.839	3.0
93.854	3.0
93.869	3.0
93.884	5.0
93.899	3.0
93.914	2.0
93.929	3.0
93.944	4.0
93.959	2.0
93.974	3.0
93.989	2.0
94.004	2.0
94.019	4.0
94.034	3.0
94.049	2.0
94.064	4.0
94.079	2.0
94.094	3.0
94.108	4.0
94.123	4.0
94.138	3.0
94.153	4.0
94.168	1.0
94.183	1.0
94.198	4.0
94.213	4.0
94.228	6.0
94.243	3.0
94.258	2.0
94.273	3.0
94.288	5.0
94.302	4.0
94.317	7.0
94.332	6.0
94.347	5.0
94.362	7.0
94.377	2.0
94.392	3.0
94.407	4.0
94.422	5.0
94.437	9.0
94.452	3.0
94.466	2.0
94.481	0.0
94.496	6.0
94.511	2.0
94.526	3.0
94.541	6.0
94.556	3.0
94.571	6.0
94.586	2.0
94.601	2.0
94.615	6.0
94.63	2.0
94.645	3.0
94.66	3.0
94.675	4.0
94.69	1.0
94.705	3.0
94.72	2.0
94.735	1.0
94.749	0.0
94.764	3.0
94.779	2.0
94.794	3.0
94.809	3.0
94.824	3.0
94.839	2.0
94.854	3.0
94.868	2.0
94.883	3.0
94.898	0.0
94.913	2.0
94.928	2.0
94.943	2.0
94.958	3.0
94.973	2.0
94.987	1.0
95.002	3.0
95.017	2.0
95.032	5.0
95.047	4.0
95.062	4.0
95.077	3.0
95.092	1.0
95.106	2.0
95.121	1.0
95.136	2.0
95.151	4.0
95.166	8.0
95.181	5.0
95.196	3.0
95.211	9.0
95.226	5.0
95.24	11.0
95.255	4.0
95.27	4.0
95.285	0.0
95.3	2.0
95.315	1.0
95.33	3.0
95.345	3.0
95.359	4.0
95.374	2.0
95.389	5.0
95.404	4.0
95.419	5.0
95.434	2.0
95.449	3.0
95.464	0.0
95.478	2.0
95.493	1.0
95.508	4.0
95.523	3.0
95.538	2.0
95.553	2.0
95.568	2.0
95.583	1.0
95.597	6.0
95.612	2.0
95.627	2.0
95.642	4.0
95.657	3.0
95.672	1.0
95.687	2.0
95.702	2.0
95.717	2.0
95.731	2.0
95.746	1.0
95.761	6.0
95.776	1.0
95.791	3.0
95.806	1.0
95.821	1.0
95.836	4.0
95.851	1.0
95.866	4.0
95.88	4.0
95.895	4.0
95.91	4.0
95.925	3.0
95.94	3.0
95.955	2.0
95.97	4.0
95.985	4.0
96.0	0.0
96.015	1.0
96.029	2.0
96.044	6.0
96.059	3.0
96.074	2.0
96.089	3.0
96.104	1.0
96.119	2.0
96.134	2.0
96.149	8.0
96.164	3.0
96.179	2.0
96.194	4.0
96.208	1.0
96.223	4.0
96.238	2.0
96.253	4.0
96.268	4.0
96.283	4.0
96.298	0.0
96.313	2.0
96.328	2.0
96.343	5.0
96.358	5.0
96.373	3.0
96.388	1.0
96.403	3.0
96.417	1.0
96.432	1.0
96.447	2.0
96.462	1.0
96.477	0.0
96.492	4.0
96.507	3.0
96.522	2.0
96.537	1.0
96.552	3.0
96.567	2.0
96.582	4.0
96.597	0.0
96.612	2.0
96.627	1.0
96.642	3.0
96.656	3.0
96.671	0.0
96.686	2.0
96.701	7.0
96.716	1.0
96.731	2.0
96.746	2.0
96.761	4.0
96.776	3.0
96.791	3.0
96.806	5.0
96.821	0.0
96.836	3.0
96.851	7.0
96.866	4.0
96.881	5.0
96.896	1.0
96.911	2.0
96.926	2.0
96.94	4.0
96.955	5.0
96.97	3.0
96.985	4.0
97.0	6.0
97.015	5.0
97.03	3.0
97.045	3.0
97.06	3.0
97.075	1.0
97.09	3.0
97.105	3.0
97.12	6.0
97.135	1.0
97.15	1.0
97.165	8.0
97.18	3.0
97.195	5.0
97.21	3.0
97.225	2.0
97.239	4.0
97.254	10.0
97.269	2.0
97.284	2.0
97.299	0.0
97.314	4.0
97.329	3.0
97.344	3.0
97.359	6.0
97.374	2.0
97.389	6.0
97.404	3.0
97.419	3.0
97.434	0.0
97.449	4.0
97.464	5.0
97.479	2.0
97.494	3.0
97.509	3.0
97.524	5.0
97.538	2.0
97.553	4.0
97.568	3.0
97.583	1.0
97.598	4.0
97.613	3.0
97.628	2.0
97.643	6.0
97.658	3.0
97.673	6.0
97.688	3.0
97.703	4.0
97.718	1.0
97.733	5.0
97.748	4.0
97.763	4.0
97.778	2.0
97.792	6.0
97.807	8.0
97.822	3.0
97.837	3.0
97.852	7.0
97.867	2.0
97.882	4.0
97.897	2.0
97.912	1.0
97.927	2.0
97.942	3.0
97.957	2.0
97.972	3.0
97.987	4.0
98.001	4.0
98.016	3.0
98.031	5.0
98.046	4.0
98.061	2.0
98.076	6.0
98.091	2.0
98.106	5.0
98.121	4.0
98.136	1.0
98.151	3.0
98.166	2.0
98.181	3.0
98.195	4.0
98.21	5.0
98.225	2.0
98.24	2.0
98.255	4.0
98.27	5.0
98.285	2.0
98.3	4.0
98.315	2.0
98.33	4.0
98.345	5.0
98.359	1.0
98.374	1.0
98.389	1.0
98.404	0.0
98.419	6.0
98.434	1.0
98.449	2.0
98.464	7.0
98.479	4.0
98.494	4.0
98.508	1.0
98.523	3.0
98.538	1.0
98.553	3.0
98.568	2.0
98.583	5.0
98.598	2.0
98.613	1.0
98.628	3.0
98.642	8.0
98.657	3.0
98.672	4.0
98.687	1.0
98.702	4.0
98.717	4.0
98.732	2.0
98.747	3.0
98.762	6.0
98.776	1.0
98.791	2.0
98.806	6.0
98.821	3.0
98.836	4.0
98.851	2.0
98.866	3.0
98.881	4.0
98.896	2.0
98.91	1.0
98.925	2.0
98.94	4.0
98.955	3.0
98.97	4.0
98.985	4.0
99.0	3.0
99.015	0.0
99.029	3.0
99.044	5.0
99.059	4.0
99.074	2.0
99.089	6.0
99.104	1.0
99.119	4.0
99.133	6.0
99.148	5.0
99.163	2.0
99.178	3.0
99.193	3.0
99.208	4.0
99.223	4.0
99.238	2.0
99.252	2.0
99.267	4.0
99.282	1.0
99.297	3.0
99.312	1.0
99.327	0.0
99.342	1.0
99.356	2.0
99.371	6.0
99.386	3.0
99.401	4.0
99.416	4.0
99.431	5.0
99.446	3.0
99.461	1.0
99.475	5.0
99.49	3.0
99.505	2.0
99.52	5.0
99.535	1.0
99.55	2.0
99.565	2.0
99.579	5.0
99.594	3.0
99.609	5.0
99.624	5.0
99.639	4.0
99.654	2.0
99.669	1.0
99.683	0.0
99.698	3.0
99.713	9.0
99.728	3.0
99.743	2.0
99.758	4.0
99.772	4.0
99.787	2.0
99.802	3.0
99.817	4.0
99.832	1.0
99.847	6.0
99.862	5.0
99.876	6.0
99.891	2.0
99.906	4.0
99.921	5.0
99.936	0.0
99.951	1.0
99.966	2.0
99.98	4.0
99.995	1.0
100.01	5.0
100.025	1.0
100.04	0.0
100.055	3.0
100.069	3.0
100.084	3.0
100.099	4.0
100.114	2.0
100.129	1.0
100.144	6.0
100.159	5.0
100.173	2.0
100.188	3.0
100.203	6.0
100.218	6.0
100.233	3.0
100.248	2.0
100.262	2.0
100.277	6.0
100.292	4.0
100.307	4.0
100.322	7.0
100.337	4.0
100.351	3.0
100.366	2.0
100.381	4.0
100.396	5.0
100.411	3.0
100.426	3.0
100.441	5.0
100.455	1.0
100.47	5.0
100.485	4.0
100.5	4.0
100.515	4.0
100.53	4.0
100.544	4.0
100.559	2.0
100.574	2.0
100.589	4.0
100.604	2.0
100.619	1.0
100.633	5.0
100.648	6.0
100.663	1.0
100.678	3.0
100.693	6.0
100.708	2.0
100.722	2.0
100.737	5.0
100.752	3.0
100.767	6.0
100.782	5.0
100.796	2.0
100.811	4.0
100.826	5.0
100.841	3.0
100.856	0.0
100.871	2.0
100.885	4.0
100.9	5.0
100.915	0.0
100.93	3.0
100.945	0.0
100.96	3.0
100.974	6.0
100.989	4.0
101.004	2.0
101.019	4.0
101.034	6.0
101.048	2.0
101.063	3.0
101.078	4.0
101.093	5.0
101.108	6.0
101.123	4.0
101.137	6.0
101.152	4.0
101.167	3.0
101.182	4.0
101.197	3.0
101.211	3.0
101.226	5.0
101.241	4.0
101.256	5.0
101.271	4.0
101.285	2.0
101.3	4.0
101.315	7.0
101.33	5.0
101.345	6.0
101.359	4.0
101.374	2.0
101.389	1.0
101.404	3.0
101.419	7.0
101.433	3.0
101.448	4.0
101.463	3.0
101.478	0.0
101.493	4.0
101.507	5.0
101.522	5.0
101.537	0.0
101.552	0.0
101.567	2.0
101.581	1.0
101.596	3.0
101.611	2.0
101.626	1.0
101.64	2.0
101.655	2.0
101.67	3.0
101.685	3.0
101.7	1.0
101.714	6.0
101.729	0.0
101.744	3.0
101.759	5.0
101.773	1.0
101.788	2.0
101.803	8.0
101.818	4.0
101.833	1.0
101.847	5.0
101.862	4.0
101.877	3.0
101.892	5.0
101.906	2.0
101.921	3.0
101.936	8.0
101.951	3.0
101.965	2.0
101.98	2.0
101.995	4.0
102.01	3.0
102.025	4.0
102.039	2.0
102.054	6.0
102.069	3.0
102.084	3.0
102.098	1.0
102.113	3.0
102.128	2.0
102.143	4.0
102.157	3.0
102.172	7.0
102.187	4.0
102.202	3.0
102.216	1.0
102.231	6.0
102.246	2.0
102.261	3.0
102.275	4.0
102.29	4.0
102.305	4.0
102.32	2.0
102.334	3.0
102.349	5.0
102.364	2.0
102.378	2.0
102.393	1.0
102.408	2.0
102.423	4.0
102.437	2.0
102.452	3.0
102.467	6.0
102.482	7.0
102.496	3.0
102.511	2.0
102.526	2.0
102.541	2.0
102.555	8.0
102.57	1.0
102.585	3.0
102.6	2.0
102.614	4.0
102.629	6.0
102.644	6.0
102.659	3.0
102.673	2.0
102.688	6.0
102.703	3.0
102.717	4.0
102.732	2.0
102.747	1.0
102.762	5.0
102.776	3.0
102.791	8.0
102.806	2.0
102.821	2.0
102.835	2.0
102.85	1.0
102.865	2.0
102.88	8.0
102.894	5.0
102.909	2.0
102.924	3.0
102.938	4.0
102.953	3.0
102.968	4.0
102.983	1.0
102.997	3.0
103.012	2.0
103.027	0.0
103.042	2.0
103.056	1.0
103.071	2.0
103.086	3.0
103.101	8.0
103.115	2.0
103.13	4.0
103.145	0.0
103.16	1.0
103.174	5.0
103.189	2.0
103.204	3.0
103.219	4.0
103.233	0.0
103.248	3.0
103.263	3.0
103.278	3.0
103.292	4.0
103.307	4.0
103.322	3.0
103.337	4.0
103.351	8.0
103.366	2.0
103.381	1.0
103.396	8.0
103.41	1.0
103.425	4.0
103.44	2.0
103.455	4.0
103.469	6.0
103.484	2.0
103.499	2.0
103.514	2.0
103.529	4.0
103.543	4.0
103.558	7.0
103.573	6.0
103.588	5.0
103.602	2.0
103.617	3.0
103.632	4.0
103.647	1.0
103.661	1.0
103.676	4.0
103.691	5.0
103.706	6.0
103.721	3.0
103.735	3.0
103.75	6.0
103.765	3.0
103.78	4.0
103.795	7.0
103.809	6.0
103.824	1.0
103.839	5.0
103.854	3.0
103.869	1.0
103.883	4.0
103.898	4.0
103.913	7.0
103.928	0.0
103.943	1.0
103.957	1.0
103.972	2.0
103.987	3.0
104.002	5.0
104.017	2.0
104.031	4.0
104.046	0.0
104.061	0.0
104.076	5.0
104.091	4.0
104.106	2.0
104.12	3.0
104.135	0.0
104.15	4.0
104.165	1.0
104.18	5.0
104.195	4.0
104.209	5.0
104.224	3.0
104.239	2.0
104.254	2.0
104.269	2.0
104.284	2.0
104.299	1.0
104.313	4.0
104.328	3.0
104.343	3.0
104.358	5.0
104.373	3.0
104.388	3.0
104.403	2.0
104.417	2.0
104.432	1.0
104.447	2.0
104.462	4.0
104.477	3.0
104.492	5.0
104.507	4.0
104.522	6.0
104.536	1.0
104.551	4.0
104.566	4.0
104.581	5.0
104.596	6.0
104.611	4.0
104.626	2.0
104.641	6.0
104.656	2.0
104.67	1.0
104.685	1.0
104.7	3.0
104.715	0.0
104.73	2.0
104.745	5.0
104.76	5.0
104.775	2.0
104.79	7.0
104.804	6.0
104.819	2.0
104.834	2.0
104.849	2.0
104.864	2.0
104.879	4.0
104.894	2.0
104.909	1.0
104.924	4.0
104.939	7.0
104.954	3.0
104.968	3.0
104.983	2.0
104.998	4.0
105.013	4.0
105.028	6.0
105.043	2.0
105.058	6.0
105.073	4.0
105.088	3.0
105.103	3.0
105.118	4.0
105.133	0.0
105.147	6.0
105.162	1.0
105.177	3.0
105.192	0.0
105.207	0.0
105.222	4.0
105.237	4.0
105.252	4.0
105.267	2.0
105.282	3.0
105.297	1.0
105.312	2.0
105.327	5.0
105.342	2.0
105.356	5.0
105.371	3.0
105.386	2.0
105.401	4.0
105.416	4.0
105.431	3.0
105.446	1.0
105.461	5.0
105.476	3.0
105.491	3.0
105.506	6.0
105.521	6.0
105.536	1.0
105.551	6.0
105.566	1.0
105.581	4.0
105.595	4.0
105.61	0.0
105.625	4.0
105.64	3.0
105.655	4.0
105.67	3.0
105.685	1.0
105.7	3.0
105.715	2.0
105.73	3.0
105.745	4.0
105.76	5.0
105.775	2.0
105.79	6.0
105.805	1.0
105.82	2.0
105.835	3.0
105.85	6.0
105.864	4.0
105.879	3.0
105.894	4.0
105.909	5.0
105.924	4.0
105.939	1.0
105.954	6.0
105.969	6.0
105.984	4.0
105.999	3.0
106.014	2.0
106.029	1.0
106.044	3.0
106.059	4.0
106.074	6.0
106.089	2.0
106.104	2.0
106.119	1.0
106.134	5.0
106.148	3.0
106.163	5.0
106.178	4.0
106.193	5.0
106.208	3.0
106.223	3.0
106.238	1.0
106.253	1.0
106.268	3.0
106.283	3.0
106.298	2.0
106.313	5.0
106.328	5.0
106.343	5.0
106.358	5.0
106.373	4.0
106.388	1.0
106.403	2.0
106.418	6.0
106.432	2.0
106.447	4.0
106.462	4.0
106.477	3.0
106.492	4.0
106.507	2.0
106.522	5.0
106.537	2.0
106.552	1.0
106.567	4.0
106.582	0.0
106.597	3.0
106.612	6.0
106.627	2.0
106.642	2.0
106.657	3.0
106.672	2.0
106.687	4.0
106.701	5.0
106.716	6.0
106.731	5.0
106.746	2.0
106.761	1.0
106.776	1.0
106.791	10.0
106.806	0.0
106.821	4.0
106.836	2.0
106.851	1.0
106.866	2.0
106.881	5.0
106.896	4.0
106.911	8.0
106.926	8.0
106.941	3.0
106.955	3.0
106.97	2.0
106.985	4.0
107.0	1.0
107.015	3.0
107.03	3.0
107.045	5.0
107.06	6.0
107.075	0.0
107.09	4.0
107.105	1.0
107.12	3.0
107.135	3.0
107.15	3.0
107.165	5.0
107.18	3.0
107.194	5.0
107.209	5.0
107.224	8.0
107.239	3.0
107.254	3.0
107.269	3.0
107.284	1.0
107.299	6.0
107.314	3.0
107.329	3.0
107.344	2.0
107.359	0.0
107.374	2.0
107.389	6.0
107.404	4.0
107.418	3.0
107.433	3.0
107.448	2.0
107.463	5.0
107.478	3.0
107.493	2.0
107.508	5.0
107.523	1.0
107.538	2.0
107.553	2.0
107.568	3.0
107.583	4.0
107.598	1.0
107.613	2.0
107.627	1.0
107.642	3.0
107.657	3.0
107.672	3.0
107.687	5.0
107.702	1.0
107.717	0.0
107.732	3.0
107.747	2.0
107.762	4.0
107.777	3.0
107.792	1.0
107.807	5.0
107.821	3.0
107.836	5.0
107.851	2.0
107.866	2.0
107.881	3.0
107.896	4.0
107.911	2.0
107.926	5.0
107.941	4.0
107.956	4.0
107.971	7.0
107.986	5.0
108.0	4.0
108.015	4.0
108.03	2.0
108.045	1.0
108.06	5.0
108.075	2.0
108.09	2.0
108.105	4.0
108.12	3.0
108.135	4.0
108.15	3.0
108.164	5.0
108.179	2.0
108.194	4.0
108.209	4.0
108.224	4.0
108.239	2.0
108.254	0.0
108.269	3.0
108.284	4.0
108.299	5.0
108.313	3.0
108.328	4.0
108.343	2.0
108.358	2.0
108.373	4.0
108.388	2.0
108.403	1.0
108.418	3.0
108.433	3.0
108.448	1.0
108.462	5.0
108.477	2.0
108.492	5.0
108.507	4.0
108.522	3.0
108.537	2.0
108.552	5.0
108.567	5.0
108.582	2.0
108.597	5.0
108.611	2.0
108.626	3.0
108.641	2.0
108.656	3.0
108.671	3.0
108.686	6.0
108.701	3.0
108.716	3.0
108.731	5.0
108.745	1.0
108.76	4.0
108.775	5.0
108.79	3.0
108.805	3.0
108.82	5.0
108.835	0.0
108.85	4.0
108.865	0.0
108.879	4.0
108.894	2.0
108.909	0.0
108.924	5.0
108.939	2.0
108.954	3.0
108.969	6.0
108.984	3.0
108.999	3.0
109.013	3.0
109.028	1.0
109.043	3.0
109.058	5.0
109.073	5.0
109.088	5.0
109.103	3.0
109.118	2.0
109.133	3.0
109.147	3.0
109.162	1.0
109.177	2.0
109.192	3.0
109.207	1.0
109.222	2.0
109.237	2.0
109.252	1.0
109.267	4.0
109.281	6.0
109.296	2.0
109.311	9.0
109.326	2.0
109.341	4.0
109.356	4.0
109.371	2.0
109.386	5.0
109.4	3.0
109.415	7.0
109.43	5.0
109.445	1.0
109.46	2.0
109.475	2.0
109.49	2.0
109.505	2.0
109.52	3.0
109.534	4.0
109.549	1.0
109.564	4.0
109.579	2.0
109.594	2.0
109.609	4.0
109.624	2.0
109.639	4.0
109.653	2.0
109.668	4.0
109.683	1.0
109.698	1.0
109.713	3.0
109.728	5.0
109.743	3.0
109.758	4.0
109.773	3.0
109.787	6.0
109.802	3.0
109.817	4.0
109.832	1.0
109.847	5.0
109.862	2.0
109.877	2.0
109.892	2.0
109.907	5.0
109.921	2.0
109.936	2.0
109.951	0.0
109.966	3.0
109.981	4.0
109.996	5.0
110.011	2.0
110.026	5.0
110.04	4.0
110.055	3.0
110.07	1.0
110.085	0.0
110.1	1.0
110.115	3.0
110.13	3.0
110.145	3.0
110.16	2.0
110.174	2.0
110.189	5.0
110.204	2.0
110.219	6.0
110.234	3.0
110.249	0.0
110.264	3.0
110.279	1.0
110.294	4.0
110.308	3.0
110.323	4.0
110.338	3.0
110.353	3.0
110.368	2.0
110.383	2.0
110.398	2.0
110.413	3.0
110.428	4.0
110.442	1.0
110.457	2.0
110.472	2.0
110.487	4.0
110.502	2.0
110.517	4.0
110.532	2.0
110.547	4.0
110.561	7.0
110.576	1.0
110.591	0.0
110.606	2.0
110.621	5.0
110.636	6.0
110.651	4.0
110.666	4.0
110.681	3.0
110.695	3.0
110.71	5.0
110.725	3.0
110.74	4.0
110.755	3.0
110.77	4.0
110.785	5.0
110.8	3.0
110.815	1.0
110.829	7.0
110.844	4.0
110.859	3.0
110.874	4.0
110.889	2.0
110.904	6.0
110.919	4.0
110.934	3.0
110.948	2.0
110.963	5.0
110.978	2.0
110.993	1.0
111.008	3.0
111.023	3.0
111.038	2.0
111.053	4.0
111.067	3.0
111.082	2.0
111.097	6.0
111.112	3.0
111.127	3.0
111.142	5.0
111.157	6.0
111.172	4.0
111.186	3.0
111.201	3.0
111.216	4.0
111.231	5.0
111.246	4.0
111.261	4.0
111.276	6.0
111.291	1.0
111.305	1.0
111.32	1.0
111.335	2.0
111.35	6.0
111.365	3.0
111.38	5.0
111.395	6.0
111.41	3.0
111.424	0.0
111.439	1.0
111.454	5.0
111.469	2.0
111.484	5.0
111.499	3.0
111.514	6.0
111.528	4.0
111.543	2.0
111.558	4.0
111.573	4.0
111.588	8.0
111.603	3.0
111.618	4.0
111.633	4.0
111.647	2.0
111.662	3.0
111.677	4.0
111.692	6.0
111.707	4.0
111.722	3.0
111.737	1.0
111.751	4.0
111.766	4.0
111.781	2.0
111.796	3.0
111.811	2.0
111.826	7.0
111.84	6.0
111.855	3.0
111.87	4.0
111.885	3.0
111.9	0.0
111.915	3.0
111.93	2.0
111.944	2.0
111.959	2.0
111.974	1.0
111.989	3.0
112.004	2.0
112.019	3.0
112.033	4.0
112.048	6.0
112.063	1.0
112.078	4.0
112.093	4.0
112.108	3.0
112.123	2.0
112.137	4.0
112.152	4.0
112.167	1.0
112.182	3.0
112.197	5.0
112.212	7.0
112.226	3.0
112.241	5.0
112.256	3.0
112.271	1.0
112.286	3.0
112.301	7.0
112.315	5.0
112.33	2.0
112.345	5.0
112.36	2.0
112.375	1.0
112.389	12.0
112.404	1.0
112.419	1.0
112.434	3.0
112.449	3.0
112.464	2.0
112.478	0.0
112.493	3.0
112.508	1.0
112.523	6.0
112.538	1.0
112.553	3.0
112.567	3.0
112.582	4.0
112.597	7.0
112.612	4.0
112.627	2.0
112.642	6.0
112.656	5.0
112.671	4.0
112.686	1.0
112.701	3.0
112.716	3.0
112.73	3.0
112.745	4.0
112.76	3.0
112.775	2.0
112.79	3.0
112.805	2.0
112.819	3.0
112.834	2.0
112.849	7.0
112.864	5.0
112.879	4.0
112.894	5.0
112.908	5.0
112.923	5.0
112.938	7.0
112.953	5.0
112.968	3.0
112.983	2.0
112.997	3.0
113.012	2.0
113.027	4.0
113.042	3.0
113.057	3.0
113.072	2.0
113.086	3.0
113.101	1.0
113.116	3.0
113.131	5.0
113.146	0.0
113.161	2.0
113.175	4.0
113.19	2.0
113.205	5.0
113.22	2.0
113.235	4.0
113.25	5.0
113.265	6.0
113.279	0.0
113.294	3.0
113.309	1.0
113.324	4.0
113.339	1.0
113.354	1.0
113.368	6.0
113.383	4.0
113.398	2.0
113.413	9.0
113.428	8.0
113.443	4.0
113.458	3.0
113.472	1.0
113.487	3.0
113.502	5.0
113.517	1.0
113.532	3.0
113.547	6.0
113.562	3.0
113.576	5.0
113.591	2.0
113.606	7.0
113.621	7.0
113.636	6.0
113.651	3.0
113.666	2.0
113.681	3.0
113.695	3.0
113.71	2.0
113.725	6.0
113.74	2.0
113.755	1.0
113.77	4.0
113.785	1.0
113.8	5.0
113.814	3.0
113.829	2.0
113.844	7.0
113.859	1.0
113.874	4.0
113.889	5.0
113.904	2.0
113.919	2.0
113.934	7.0
113.949	8.0
113.963	3.0
113.978	6.0
113.993	4.0
114.008	3.0
114.023	3.0
114.038	5.0
114.053	6.0
114.068	4.0
114.083	3.0
114.098	2.0
114.113	3.0
114.127	2.0
114.142	8.0
114.157	3.0
114.172	2.0
114.187	1.0
114.202	2.0
114.217	0.0
114.232	2.0
114.247	3.0
114.262	2.0
114.277	4.0
114.292	4.0
114.307	5.0
114.322	3.0
114.337	6.0
114.351	2.0
114.366	2.0
114.381	4.0
114.396	3.0
114.411	1.0
114.426	3.0
114.441	2.0
114.456	2.0
114.471	3.0
114.486	1.0
114.501	8.0
114.516	3.0
114.531	5.0
114.546	2.0
114.561	6.0
114.576	4.0
114.591	5.0
114.606	3.0
114.621	3.0
114.636	2.0
114.65	4.0
114.665	5.0
114.68	2.0
114.695	4.0
114.71	1.0
114.725	2.0
114.74	4.0
114.755	3.0
114.77	4.0
114.785	5.0
114.8	4.0
114.815	5.0
114.83	1.0
114.845	3.0
114.86	2.0
114.875	2.0
114.89	1.0
114.905	5.0
114.92	4.0
114.935	2.0
114.95	7.0
114.965	3.0
114.98	4.0
114.995	3.0
115.009	4.0
115.024	5.0
115.039	3.0
115.054	4.0
115.069	2.0
115.084	5.0
115.099	5.0
115.114	0.0
115.129	2.0
115.144	6.0
115.159	2.0
115.174	6.0
115.189	7.0
115.204	3.0
115.219	6.0
115.234	1.0
115.249	6.0
115.264	2.0
115.279	4.0
115.294	4.0
115.309	6.0
115.323	0.0
115.338	3.0
115.353	5.0
115.368	3.0
115.383	2.0
115.398	1.0
115.413	6.0
115.428	6.0
115.443	3.0
115.458	0.0
115.473	7.0
115.488	0.0
115.503	1.0
115.518	5.0
115.533	7.0
115.548	3.0
115.562	2.0
115.577	3.0
115.592	6.0
115.607	3.0
115.622	5.0
115.637	2.0
115.652	3.0
115.667	6.0
115.682	6.0
115.697	2.0
115.712	7.0
115.727	3.0
115.741	5.0
115.756	3.0
115.771	2.0
115.786	5.0
115.801	1.0
115.816	3.0
115.831	4.0
115.846	5.0
115.861	3.0
115.875	1.0
115.89	4.0
115.905	8.0
115.92	5.0
115.935	1.0
115.95	9.0
115.965	6.0
115.98	3.0
115.995	2.0
116.009	2.0
116.024	6.0
116.039	8.0
116.054	4.0
116.069	2.0
116.084	4.0
116.099	3.0
116.113	4.0
116.128	3.0
116.143	4.0
116.158	6.0
116.173	3.0
116.188	4.0
116.202	6.0
116.217	5.0
116.232	8.0
116.247	3.0
116.262	5.0
116.277	5.0
116.291	8.0
116.306	5.0
116.321	5.0
116.336	6.0
116.351	2.0
116.366	9.0
116.38	4.0
116.395	4.0
116.41	3.0
116.425	3.0
116.44	8.0
116.454	4.0
116.469	2.0
116.484	2.0
116.499	5.0
116.514	2.0
116.528	3.0
116.543	2.0
116.558	6.0
116.573	6.0
116.588	5.0
116.602	4.0
116.617	1.0
116.632	3.0
116.647	2.0
116.662	6.0
116.676	5.0
116.691	4.0
116.706	6.0
116.721	6.0
116.735	6.0
116.75	2.0
116.765	4.0
116.78	1.0
116.795	4.0
116.809	2.0
116.824	5.0
116.839	3.0
116.854	1.0
116.868	7.0
116.883	3.0
116.898	1.0
116.913	4.0
116.927	4.0
116.942	4.0
116.957	5.0
116.972	4.0
116.986	6.0
117.001	3.0
117.016	4.0
117.031	3.0
117.045	3.0
117.06	1.0
117.075	5.0
117.09	6.0
117.104	3.0
117.119	4.0
117.134	7.0
117.149	2.0
117.163	3.0
117.178	4.0
117.193	4.0
117.208	7.0
117.222	5.0
117.237	4.0
117.252	4.0
117.267	3.0
117.281	2.0
117.296	7.0
117.311	6.0
117.325	6.0
117.34	2.0
117.355	3.0
117.37	1.0
117.384	4.0
117.399	1.0
117.414	3.0
117.429	6.0
117.443	2.0
117.458	4.0
117.473	1.0
117.487	7.0
117.502	5.0
117.517	8.0
117.532	4.0
117.546	4.0
117.561	7.0
117.576	2.0
117.59	2.0
117.605	3.0
117.62	4.0
117.635	2.0
117.649	1.0
117.664	4.0
117.679	3.0
117.693	1.0
117.708	4.0
117.723	4.0
117.738	8.0
117.752	5.0
117.767	7.0
117.782	6.0
117.796	1.0
117.811	1.0
117.826	4.0
117.841	1.0
117.855	5.0
117.87	3.0
117.885	0.0
117.899	5.0
117.914	2.0
117.929	1.0
117.944	2.0
117.958	2.0
117.973	3.0
117.988	4.0
118.002	1.0
118.017	6.0
118.032	2.0
118.047	3.0
118.062	5.0
118.077	9.0
118.092	4.0
118.107	8.0
118.121	1.0
118.136	5.0
118.151	6.0
118.166	6.0
118.181	6.0
118.196	4.0
118.211	1.0
118.225	3.0
118.24	2.0
118.255	1.0
118.27	5.0
118.285	4.0
118.3	3.0
118.315	1.0
118.33	2.0
118.344	5.0
118.359	3.0
118.374	3.0
118.389	3.0
118.404	4.0
118.419	3.0
118.434	4.0
118.449	2.0
118.463	2.0
118.478	3.0
118.493	3.0
118.508	5.0
118.523	4.0
118.538	3.0
118.553	3.0
118.567	2.0
118.582	1.0
118.597	3.0
118.612	5.0
118.627	6.0
118.642	8.0
118.657	3.0
118.672	4.0
118.686	5.0
118.701	2.0
118.716	3.0
118.731	3.0
118.746	3.0
118.761	0.0
118.776	1.0
118.791	3.0
118.805	3.0
118.82	3.0
118.835	2.0
118.85	3.0
118.865	3.0
118.88	1.0
118.895	1.0
118.909	7.0
118.924	0.0
118.939	5.0
118.954	7.0
118.969	2.0
118.984	3.0
118.999	0.0
119.014	4.0
119.028	4.0
119.043	4.0
119.058	1.0
119.073	7.0
119.088	2.0
119.103	4.0
119.118	3.0
119.133	3.0
119.147	3.0
119.162	4.0
119.177	5.0
119.192	3.0
119.207	2.0
119.222	3.0
119.237	2.0
119.251	3.0
119.266	7.0
119.281	1.0
119.296	2.0
119.311	3.0
119.326	5.0
119.341	1.0
119.356	3.0
119.37	6.0
119.385	5.0
119.4	4.0
119.415	2.0
119.43	5.0
119.445	5.0
119.46	2.0
119.475	3.0
119.489	1.0
119.504	3.0
119.519	5.0
119.534	3.0
119.549	3.0
119.564	2.0
119.579	3.0
119.593	3.0
119.608	4.0
119.623	2.0
119.638	2.0
119.653	5.0
119.668	2.0
119.683	6.0
119.698	0.0
119.712	4.0
119.727	3.0
119.742	4.0
119.757	1.0
119.772	5.0
119.787	3.0
119.802	5.0
119.817	2.0
119.831	2.0
119.846	1.0
119.861	6.0
119.876	4.0
119.891	1.0
119.906	6.0
119.921	1.0
119.935	2.0
119.95	2.0
119.965	2.0
119.98	1.0
119.995	3.0
120.01	3.0
120.025	3.0
120.04	1.0
120.054	2.0
120.069	3.0
120.084	2.0
120.099	5.0
120.114	1.0
120.129	2.0
120.144	5.0
120.159	2.0
120.173	0.0
120.188	1.0
120.203	1.0
120.218	1.0
120.233	3.0
120.248	0.0
120.263	1.0
120.277	0.0
120.292	1.0
120.307	1.0
120.322	1.0
120.337	0.0
120.352	0.0
120.367	0.0
120.382	0.0
120.396	0.0
120.411	0.0
120.426	0.0
120.441	0.0
120.456	1.0
120.471	0.0
120.486	0.0
120.501	0.0
120.515	0.0
120.53	0.0
120.545	0.0
120.56	0.0
120.575	0.0
120.59	0.0
120.605	0.0
120.619	0.0
120.634	1.0
120.649	0.0
120.664	0.0
120.679	0.0
120.694	1.0
120.709	0.0
120.724	0.0
120.738	0.0
120.753	0.0
120.768	0.0
120.783	0.0
120.798	1.0
120.813	1.0
120.828	0.0
120.843	0.0
120.857	0.0
120.872	0.0
120.887	0.0
120.902	0.0
120.917	0.0
120.932	0.0
120.947	0.0
120.961	0.0
120.976	0.0
