-1.217	0.0
-1.202	0.0
-1.187	0.0
-1.172	0.0
-1.157	0.0
-1.142	0.0
-1.128	0.0
-1.113	1.0
-1.098	0.0
-1.083	0.0
-1.068	0.0
-1.054	0.0
-1.039	0.0
-1.024	0.0
-1.009	0.0
-0.994	0.0
-0.979	0.0
-0.965	0.0
-0.95	0.0
-0.935	0.0
-0.92	0.0
-0.905	0.0
-0.891	0.0
-0.876	0.0
-0.861	0.0
-0.846	0.0
-0.831	0.0
-0.816	0.0
-0.802	0.0
-0.787	0.0
-0.772	0.0
-0.757	0.0
-0.742	0.0
-0.728	0.0
-0.713	0.0
-0.698	0.0
-0.683	0.0
-0.668	0.0
-0.653	1.0
-0.639	0.0
-0.624	0.0
-0.609	0.0
-0.594	0.0
-0.579	0.0
-0.565	0.0
-0.55	0.0
-0.535	0.0
-0.52	0.0
-0.505	0.0
-0.49	0.0
-0.476	0.0
-0.461	0.0
-0.446	0.0
-0.431	0.0
-0.416	0.0
-0.401	0.0
-0.387	0.0
-0.372	0.0
-0.357	0.0
-0.342	0.0
-0.327	0.0
-0.313	0.0
-0.298	0.0
-0.283	0.0
-0.268	0.0
-0.253	0.0
-0.238	0.0
-0.224	0.0
-0.209	0.0
-0.194	1.0
-0.179	0.0
-0.164	0.0
-0.15	1.0
-0.135	0.0
-0.12	0.0
-0.105	0.0
-0.09	0.0
-0.075	0.0
-0.061	0.0
-0.046	0.0
-0.031	0.0
-0.016	0.0
-0.001	0.0
0.013	0.0
0.028	0.0
0.043	0.0
0.058	0.0
0.073	0.0
0.088	0.0
0.102	0.0
0.117	0.0
0.132	0.0
0.147	0.0
0.162	0.0
0.176	0.0
0.191	0.0
0.206	0.0
0.221	0.0
0.236	0.0
0.251	0.0
0.265	0.0
0.28	0.0
0.295	0.0
0.31	0.0
0.325	0.0
0.339	0.0
0.354	0.0
0.369	0.0
0.384	0.0
0.399	0.0
0.414	0.0
0.428	0.0
0.443	0.0
0.458	0.0
0.473	0.0
0.488	0.0
0.502	1.0
0.517	0.0
0.532	0.0
0.547	0.0
0.562	1.0
0.577	1.0
0.591	0.0
0.606	0.0
0.621	0.0
0.636	0.0
0.651	0.0
0.665	0.0
0.68	0.0
0.695	0.0
0.71	0.0
0.725	0.0
0.74	0.0
0.754	0.0
0.769	0.0
0.784	0.0
0.799	0.0
0.814	0.0
0.828	0.0
0.843	0.0
0.858	0.0
0.873	0.0
0.888	0.0
0.903	0.0
0.917	0.0
0.932	0.0
0.947	0.0
0.962	0.0
0.977	0.0
0.991	0.0
1.006	0.0
1.021	0.0
1.036	0.0
1.051	0.0
1.065	0.0
1.08	0.0
1.095	0.0
1.11	0.0
1.125	0.0
1.14	0.0
1.154	0.0
1.169	0.0
1.184	0.0
1.199	0.0
1.214	0.0
1.228	0.0
1.243	0.0
1.258	0.0
1.273	0.0
1.288	0.0
1.302	0.0
1.317	0.0
1.332	0.0
1.347	0.0
1.362	0.0
1.376	0.0
1.391	0.0
1.406	0.0
1.421	1.0
1.436	0.0
1.45	0.0
1.465	0.0
1.48	0.0
1.495	0.0
1.51	1.0
1.524	0.0
1.539	0.0
1.554	0.0
1.569	0.0
1.584	0.0
1.598	0.0
1.613	0.0
1.628	0.0
1.643	0.0
1.658	0.0
1.672	1.0
1.687	0.0
1.702	0.0
1.717	0.0
1.732	0.0
1.746	0.0
1.761	0.0
1.776	0.0
1.791	0.0
1.806	0.0
1.82	0.0
1.835	0.0
1.85	0.0
1.865	0.0
1.88	0.0
1.894	0.0
1.909	0.0
1.924	0.0
1.939	0.0
1.954	0.0
1.968	0.0
1.983	0.0
1.998	0.0
2.013	0.0
2.028	0.0
2.042	0.0
2.057	0.0
2.072	0.0
2.087	0.0
2.101	0.0
2.116	0.0
2.131	1.0
2.146	2.0
2.161	1.0
2.175	0.0
2.19	0.0
2.205	0.0
2.22	0.0
2.235	0.0
2.249	0.0
2.264	0.0
2.279	0.0
2.294	2.0
2.308	0.0
2.323	0.0
2.338	1.0
2.353	0.0
2.368	1.0
2.382	1.0
2.397	2.0
2.412	1.0
2.427	1.0
2.442	2.0
2.456	2.0
2.471	2.0
2.486	1.0
2.501	1.0
2.515	2.0
2.53	2.0
2.545	1.0
2.56	4.0
2.575	4.0
2.589	3.0
2.604	1.0
2.619	2.0
2.634	2.0
2.649	0.0
2.663	2.0
2.678	1.0
2.693	0.0
2.708	2.0
2.722	2.0
2.737	3.0
2.752	4.0
2.767	1.0
2.782	3.0
2.796	3.0
2.811	2.0
2.826	5.0
2.841	4.0
2.856	5.0
2.87	5.0
2.885	3.0
2.9	3.0
2.915	3.0
2.93	2.0
2.944	2.0
2.959	3.0
2.974	5.0
2.989	6.0
3.004	3.0
3.018	4.0
3.033	4.0
3.048	3.0
3.063	4.0
3.078	3.0
3.092	4.0
3.107	3.0
3.122	2.0
3.137	4.0
3.152	3.0
3.166	7.0
3.181	6.0
3.196	6.0
3.211	4.0
3.226	4.0
3.24	5.0
3.255	5.0
3.27	3.0
3.285	2.0
3.3	6.0
3.315	5.0
3.329	1.0
3.344	6.0
3.359	6.0
3.374	4.0
3.389	3.0
3.403	7.0
3.418	2.0
3.433	9.0
3.448	4.0
3.463	3.0
3.478	4.0
3.492	4.0
3.507	6.0
3.522	3.0
3.537	3.0
3.552	9.0
3.567	11.0
3.581	5.0
3.596	7.0
3.611	7.0
3.626	7.0
3.641	5.0
3.656	3.0
3.671	4.0
3.685	6.0
3.7	3.0
3.715	7.0
3.73	5.0
3.745	6.0
3.76	4.0
3.775	9.0
3.789	7.0
3.804	7.0
3.819	2.0
3.834	8.0
3.849	10.0
3.864	3.0
3.879	6.0
3.894	3.0
3.908	9.0
3.923	10.0
3.938	4.0
3.953	9.0
3.968	4.0
3.983	5.0
3.998	2.0
4.013	13.0
4.027	7.0
4.042	9.0
4.057	7.0
4.072	12.0
4.087	11.0
4.102	7.0
4.117	6.0
4.132	5.0
4.147	3.0
4.162	10.0
4.176	7.0
4.191	6.0
4.206	8.0
4.221	7.0
4.236	9.0
4.251	6.0
4.266	6.0
4.281	9.0
4.296	9.0
4.311	10.0
4.326	7.0
4.341	6.0
4.356	4.0
4.37	2.0
4.385	8.0
4.4	8.0
4.415	12.0
4.43	9.0
4.445	6.0
4.46	4.0
4.475	6.0
4.49	4.0
4.505	6.0
4.52	13.0
4.535	2.0
4.55	12.0
4.565	4.0
4.58	8.0
4.595	7.0
4.61	6.0
4.625	7.0
4.639	5.0
4.654	5.0
4.669	7.0
4.684	10.0
4.699	7.0
4.714	7.0
4.729	6.0
4.744	9.0
4.759	5.0
4.774	13.0
4.789	9.0
4.804	13.0
4.819	11.0
4.834	10.0
4.849	10.0
4.864	7.0
4.879	11.0
4.894	8.0
4.909	5.0
4.924	7.0
4.939	3.0
4.954	7.0
4.969	7.0
4.984	3.0
4.999	11.0
5.014	7.0
5.029	14.0
5.044	9.0
5.059	11.0
5.074	4.0
5.089	8.0
5.104	6.0
5.119	7.0
5.134	5.0
5.149	10.0
5.164	8.0
5.179	4.0
5.194	9.0
5.209	7.0
5.224	10.0
5.239	8.0
5.254	9.0
5.269	6.0
5.284	11.0
5.299	8.0
5.314	7.0
5.329	9.0
5.344	8.0
5.359	9.0
5.374	6.0
5.389	13.0
5.404	10.0
5.419	8.0
5.434	13.0
5.449	7.0
5.464	6.0
5.479	8.0
5.494	11.0
5.509	6.0
5.524	7.0
5.539	11.0
5.554	11.0
5.569	7.0
5.584	7.0
5.599	4.0
5.614	9.0
5.629	12.0
5.644	8.0
5.659	10.0
5.674	11.0
5.689	11.0
5.704	9.0
5.719	4.0
5.734	11.0
5.749	9.0
5.764	9.0
5.779	10.0
5.794	6.0
5.809	6.0
5.824	5.0
5.839	9.0
5.854	5.0
5.869	9.0
5.884	8.0
5.899	7.0
5.914	11.0
5.929	9.0
5.944	8.0
5.959	8.0
5.974	8.0
5.989	7.0
6.004	7.0
6.019	12.0
6.034	5.0
6.049	10.0
6.064	9.0
6.079	4.0
6.094	11.0
6.109	10.0
6.124	7.0
6.139	12.0
6.154	12.0
6.169	10.0
6.184	7.0
6.199	2.0
6.214	9.0
6.229	7.0
6.244	11.0
6.259	14.0
6.274	7.0
6.289	11.0
6.304	8.0
6.319	13.0
6.334	3.0
6.349	7.0
6.364	8.0
6.379	3.0
6.394	12.0
6.409	10.0
6.424	4.0
6.439	13.0
6.454	7.0
6.469	7.0
6.484	12.0
6.499	13.0
6.514	4.0
6.529	10.0
6.544	8.0
6.559	18.0
6.574	12.0
6.589	10.0
6.604	11.0
6.619	8.0
6.634	7.0
6.649	9.0
6.664	4.0
6.679	8.0
6.694	11.0
6.709	8.0
6.724	12.0
6.739	6.0
6.754	10.0
6.769	4.0
6.784	12.0
6.799	14.0
6.814	7.0
6.829	7.0
6.844	10.0
6.859	13.0
6.873	8.0
6.888	13.0
6.903	10.0
6.918	10.0
6.933	6.0
6.948	8.0
6.963	8.0
6.978	9.0
6.993	12.0
7.008	10.0
7.023	10.0
7.038	15.0
7.053	7.0
7.068	7.0
7.083	7.0
7.098	9.0
7.113	9.0
7.128	11.0
7.143	7.0
7.157	5.0
7.172	7.0
7.187	9.0
7.202	18.0
7.217	7.0
7.232	16.0
7.247	7.0
7.262	12.0
7.277	14.0
7.292	7.0
7.307	15.0
7.322	4.0
7.336	17.0
7.351	10.0
7.366	9.0
7.381	12.0
7.396	7.0
7.411	8.0
7.426	7.0
7.441	12.0
7.456	11.0
7.471	7.0
7.485	12.0
7.5	10.0
7.515	5.0
7.53	8.0
7.545	9.0
7.56	7.0
7.575	11.0
7.59	7.0
7.604	13.0
7.619	8.0
7.634	9.0
7.649	9.0
7.664	11.0
7.679	9.0
7.693	9.0
7.708	3.0
7.723	4.0
7.738	7.0
7.753	13.0
7.768	8.0
7.783	10.0
7.797	10.0
7.812	6.0
7.827	6.0
7.842	8.0
7.857	10.0
7.871	7.0
7.886	14.0
7.901	9.0
7.916	8.0
7.931	10.0
7.945	7.0
7.96	10.0
7.975	10.0
7.99	12.0
8.005	9.0
8.019	6.0
8.034	13.0
8.049	9.0
8.064	7.0
8.078	11.0
8.093	11.0
8.108	11.0
8.123	18.0
8.137	13.0
8.152	7.0
8.167	12.0
8.182	6.0
8.196	12.0
8.211	9.0
8.226	11.0
8.241	6.0
8.255	7.0
8.27	14.0
8.285	8.0
8.3	10.0
8.314	3.0
8.329	10.0
8.344	9.0
8.358	10.0
8.373	9.0
8.388	7.0
8.403	14.0
8.417	12.0
8.432	7.0
8.447	11.0
8.461	14.0
8.476	7.0
8.491	11.0
8.505	10.0
8.52	5.0
8.535	10.0
8.55	4.0
8.564	9.0
8.579	8.0
8.594	5.0
8.608	10.0
8.623	4.0
8.638	10.0
8.652	10.0
8.667	8.0
8.682	10.0
8.696	6.0
8.711	6.0
8.726	6.0
8.74	5.0
8.755	9.0
8.77	23.0
8.784	8.0
8.799	9.0
8.814	7.0
8.828	11.0
8.843	5.0
8.858	13.0
8.872	2.0
8.887	10.0
8.902	5.0
8.916	11.0
8.931	12.0
8.946	8.0
8.96	11.0
8.975	14.0
8.99	9.0
9.004	4.0
9.019	5.0
9.034	10.0
9.048	8.0
9.063	9.0
9.077	8.0
9.092	10.0
9.107	11.0
9.121	4.0
9.136	8.0
9.151	12.0
9.165	1.0
9.18	12.0
9.195	12.0
9.209	6.0
9.224	5.0
9.239	9.0
9.253	12.0
9.268	9.0
9.283	10.0
9.297	9.0
9.312	4.0
9.327	7.0
9.341	6.0
9.356	13.0
9.371	9.0
9.385	8.0
9.4	10.0
9.415	8.0
9.429	7.0
9.444	4.0
9.458	12.0
9.473	10.0
9.488	3.0
9.502	7.0
9.517	8.0
9.532	8.0
9.546	3.0
9.561	8.0
9.576	10.0
9.59	4.0
9.605	10.0
9.62	8.0
9.635	12.0
9.649	8.0
9.664	10.0
9.679	10.0
9.693	9.0
9.708	8.0
9.723	3.0
9.737	9.0
9.752	8.0
9.767	8.0
9.781	8.0
9.796	5.0
9.811	7.0
9.825	3.0
9.84	10.0
9.855	11.0
9.87	10.0
9.884	7.0
9.899	6.0
9.914	8.0
9.928	10.0
9.943	10.0
9.958	6.0
9.973	5.0
9.987	4.0
10.002	8.0
10.017	4.0
10.031	7.0
10.046	13.0
10.061	9.0
10.076	9.0
10.09	12.0
10.105	13.0
10.12	8.0
10.135	5.0
10.149	9.0
10.164	17.0
10.179	11.0
10.194	9.0
10.208	10.0
10.223	7.0
10.238	6.0
10.253	8.0
10.267	11.0
10.282	12.0
10.297	11.0
10.312	14.0
10.326	14.0
10.341	7.0
10.356	9.0
10.371	17.0
10.386	10.0
10.4	9.0
10.415	9.0
10.43	4.0
10.445	8.0
10.46	4.0
10.474	5.0
10.489	5.0
10.504	8.0
10.519	10.0
10.533	8.0
10.548	10.0
10.563	10.0
10.578	7.0
10.593	5.0
10.608	10.0
10.622	6.0
10.637	7.0
10.652	11.0
10.667	4.0
10.682	8.0
10.696	9.0
10.711	13.0
10.726	6.0
10.741	6.0
10.756	9.0
10.771	6.0
10.785	9.0
10.8	9.0
10.815	7.0
10.83	11.0
10.845	6.0
10.86	13.0
10.874	6.0
10.889	18.0
10.904	6.0
10.919	8.0
10.934	8.0
10.949	5.0
10.963	9.0
10.978	7.0
10.993	9.0
11.008	7.0
11.023	6.0
11.038	9.0
11.053	13.0
11.067	7.0
11.082	7.0
11.097	7.0
11.112	9.0
11.127	10.0
11.142	6.0
11.157	4.0
11.172	9.0
11.186	5.0
11.201	9.0
11.216	8.0
11.231	6.0
11.246	7.0
11.261	11.0
11.276	14.0
11.291	7.0
11.305	6.0
11.32	8.0
11.335	9.0
11.35	7.0
11.365	12.0
11.38	10.0
11.395	5.0
11.41	10.0
11.424	7.0
11.439	8.0
11.454	10.0
11.469	5.0
11.484	9.0
11.499	10.0
11.514	9.0
11.529	7.0
11.544	10.0
11.558	10.0
11.573	5.0
11.588	5.0
11.603	8.0
11.618	8.0
11.633	10.0
11.648	9.0
11.663	10.0
11.678	9.0
11.693	5.0
11.707	7.0
11.722	9.0
11.737	9.0
11.752	6.0
11.767	10.0
11.782	6.0
11.797	11.0
11.812	6.0
11.827	5.0
11.842	4.0
11.856	9.0
11.871	10.0
11.886	5.0
11.901	7.0
11.916	7.0
11.931	11.0
11.946	8.0
11.961	14.0
11.976	8.0
11.991	8.0
12.006	8.0
12.02	7.0
12.035	12.0
12.05	6.0
12.065	10.0
12.08	9.0
12.095	12.0
12.11	13.0
12.125	6.0
12.14	15.0
12.155	6.0
12.17	12.0
12.184	13.0
12.199	8.0
12.214	9.0
12.229	9.0
12.244	6.0
12.259	10.0
12.274	7.0
12.289	13.0
12.304	15.0
12.319	7.0
12.334	10.0
12.348	9.0
12.363	8.0
12.378	12.0
12.393	14.0
12.408	9.0
12.423	20.0
12.438	11.0
12.453	7.0
12.468	9.0
12.483	7.0
12.498	12.0
12.513	13.0
12.527	15.0
12.542	10.0
12.557	8.0
12.572	12.0
12.587	9.0
12.602	17.0
12.617	15.0
12.632	13.0
12.647	10.0
12.662	11.0
12.677	14.0
12.692	12.0
12.707	13.0
12.721	20.0
12.736	9.0
12.751	10.0
12.766	18.0
12.781	15.0
12.796	15.0
12.811	14.0
12.826	19.0
12.841	17.0
12.856	11.0
12.871	15.0
12.886	16.0
12.9	17.0
12.915	12.0
12.93	11.0
12.945	21.0
12.96	17.0
12.975	13.0
12.99	12.0
13.005	16.0
13.02	17.0
13.035	18.0
13.05	17.0
13.065	29.0
13.08	26.0
13.094	21.0
13.109	23.0
13.124	13.0
13.139	10.0
13.154	14.0
13.169	14.0
13.184	18.0
13.199	19.0
13.214	16.0
13.229	14.0
13.244	16.0
13.259	22.0
13.274	15.0
13.288	18.0
13.303	13.0
13.318	18.0
13.333	26.0
13.348	29.0
13.363	12.0
13.378	27.0
13.393	31.0
13.408	26.0
13.423	31.0
13.438	37.0
13.453	31.0
13.468	29.0
13.482	34.0
13.497	33.0
13.512	46.0
13.527	49.0
13.542	40.0
13.557	52.0
13.572	68.0
13.587	59.0
13.602	64.0
13.617	71.0
13.632	75.0
13.647	80.0
13.662	67.0
13.677	85.0
13.691	79.0
13.706	83.0
13.721	109.0
13.736	87.0
13.751	105.0
13.766	119.0
13.781	112.0
13.796	131.0
13.811	119.0
13.826	146.0
13.841	121.0
13.856	146.0
13.871	107.0
13.885	94.0
13.9	107.0
13.915	82.0
13.93	66.0
13.945	49.0
13.96	54.0
13.975	32.0
13.99	30.0
14.005	35.0
14.02	29.0
14.035	40.0
14.05	31.0
14.065	18.0
14.08	23.0
14.094	30.0
14.109	26.0
14.124	21.0
14.139	21.0
14.154	24.0
14.169	15.0
14.184	16.0
14.199	20.0
14.214	24.0
14.229	28.0
14.244	17.0
14.259	23.0
14.274	19.0
14.288	20.0
14.303	18.0
14.318	13.0
14.333	15.0
14.348	22.0
14.363	18.0
14.378	18.0
14.393	21.0
14.408	20.0
14.423	14.0
14.438	18.0
14.453	20.0
14.468	10.0
14.482	18.0
14.497	25.0
14.512	17.0
14.527	23.0
14.542	18.0
14.557	16.0
14.572	14.0
14.587	18.0
14.602	15.0
14.617	17.0
14.632	22.0
14.647	14.0
14.661	21.0
14.676	16.0
14.691	16.0
14.706	18.0
14.721	18.0
14.736	12.0
14.751	16.0
14.766	16.0
14.781	11.0
14.796	14.0
14.811	22.0
14.826	19.0
14.84	17.0
14.855	24.0
14.87	22.0
14.885	10.0
14.9	19.0
14.915	18.0
14.93	19.0
14.945	12.0
14.96	20.0
14.975	19.0
14.989	19.0
15.004	25.0
15.019	10.0
15.034	13.0
15.049	16.0
15.064	18.0
15.079	16.0
15.094	19.0
15.109	18.0
15.124	18.0
15.138	14.0
15.153	14.0
15.168	12.0
15.183	17.0
15.198	17.0
15.213	19.0
15.228	12.0
15.243	18.0
15.258	14.0
15.272	10.0
15.287	18.0
15.302	22.0
15.317	13.0
15.332	15.0
15.347	23.0
15.362	20.0
15.377	12.0
15.391	14.0
15.406	18.0
15.421	15.0
15.436	22.0
15.451	19.0
15.466	15.0
15.481	14.0
15.496	13.0
15.51	10.0
15.525	16.0
15.54	14.0
15.555	16.0
15.57	11.0
15.585	16.0
15.6	24.0
15.614	12.0
15.629	13.0
15.644	13.0
15.659	13.0
15.674	18.0
15.689	12.0
15.704	17.0
15.718	15.0
15.733	12.0
15.748	11.0
15.763	19.0
15.778	18.0
15.793	11.0
15.808	11.0
15.822	19.0
15.837	17.0
15.852	10.0
15.867	15.0
15.882	17.0
15.897	16.0
15.911	17.0
15.926	26.0
15.941	11.0
15.956	16.0
15.971	17.0
15.986	15.0
16.0	11.0
16.015	18.0
16.03	12.0
16.045	19.0
16.06	16.0
16.074	9.0
16.089	25.0
16.104	15.0
16.119	13.0
16.134	13.0
16.149	13.0
16.163	17.0
16.178	18.0
16.193	22.0
16.208	15.0
16.223	8.0
16.237	12.0
16.252	9.0
16.267	14.0
16.282	12.0
16.297	15.0
16.311	17.0
16.326	16.0
16.341	12.0
16.356	11.0
16.37	17.0
16.385	19.0
16.4	18.0
16.415	12.0
16.43	18.0
16.444	12.0
16.459	14.0
16.474	17.0
16.489	16.0
16.504	13.0
16.518	13.0
16.533	8.0
16.548	19.0
16.563	19.0
16.577	15.0
16.592	17.0
16.607	16.0
16.622	10.0
16.637	17.0
16.651	23.0
16.666	16.0
16.681	23.0
16.696	16.0
16.71	30.0
16.725	27.0
16.74	34.0
16.755	36.0
16.77	26.0
16.784	32.0
16.799	38.0
16.814	39.0
16.829	53.0
16.843	51.0
16.858	63.0
16.873	63.0
16.888	55.0
16.902	71.0
16.917	76.0
16.932	86.0
16.947	67.0
16.961	106.0
16.976	68.0
16.991	73.0
17.006	70.0
17.021	55.0
17.035	45.0
17.05	44.0
17.065	59.0
17.08	52.0
17.094	29.0
17.109	34.0
17.124	25.0
17.139	30.0
17.153	25.0
17.168	16.0
17.183	17.0
17.198	14.0
17.212	15.0
17.227	19.0
17.242	18.0
17.257	16.0
17.271	14.0
17.286	11.0
17.301	15.0
17.316	11.0
17.33	14.0
17.345	15.0
17.36	17.0
17.375	18.0
17.39	11.0
17.404	18.0
17.419	15.0
17.434	10.0
17.449	17.0
17.463	17.0
17.478	14.0
17.493	12.0
17.508	12.0
17.522	19.0
17.537	18.0
17.552	15.0
17.567	13.0
17.581	7.0
17.596	9.0
17.611	11.0
17.626	15.0
17.641	14.0
17.655	14.0
17.67	21.0
17.685	7.0
17.7	14.0
17.714	11.0
17.729	18.0
17.744	6.0
17.759	17.0
17.773	20.0
17.788	13.0
17.803	15.0
17.818	6.0
17.833	12.0
17.847	7.0
17.862	14.0
17.877	15.0
17.892	12.0
17.906	8.0
17.921	17.0
17.936	9.0
17.951	4.0
17.966	11.0
17.98	6.0
17.995	6.0
18.01	14.0
18.025	13.0
18.04	16.0
18.054	10.0
18.069	13.0
18.084	16.0
18.099	10.0
18.114	8.0
18.128	12.0
18.143	7.0
18.158	12.0
18.173	7.0
18.188	10.0
18.202	15.0
18.217	17.0
18.232	10.0
18.247	13.0
18.262	13.0
18.276	14.0
18.291	4.0
18.306	14.0
18.321	12.0
18.336	14.0
18.35	7.0
18.365	17.0
18.38	6.0
18.395	13.0
18.41	19.0
18.424	9.0
18.439	15.0
18.454	10.0
18.469	9.0
18.484	10.0
18.498	17.0
18.513	11.0
18.528	4.0
18.543	8.0
18.558	19.0
18.573	11.0
18.587	11.0
18.602	6.0
18.617	21.0
18.632	12.0
18.647	8.0
18.661	6.0
18.676	8.0
18.691	11.0
18.706	6.0
18.721	7.0
18.736	12.0
18.75	8.0
18.765	6.0
18.78	6.0
18.795	14.0
18.81	13.0
18.825	13.0
18.839	10.0
18.854	10.0
18.869	15.0
18.884	6.0
18.899	10.0
18.913	14.0
18.928	9.0
18.943	14.0
18.958	20.0
18.973	5.0
18.988	13.0
19.002	11.0
19.017	13.0
19.032	12.0
19.047	16.0
19.062	16.0
19.077	10.0
19.091	13.0
19.106	9.0
19.121	11.0
19.136	11.0
19.151	12.0
19.165	9.0
19.18	9.0
19.195	15.0
19.21	11.0
19.225	8.0
19.24	5.0
19.254	18.0
19.269	16.0
19.284	13.0
19.299	11.0
19.314	18.0
19.329	16.0
19.343	11.0
19.358	17.0
19.373	9.0
19.388	20.0
19.403	15.0
19.417	18.0
19.432	17.0
19.447	21.0
19.462	26.0
19.477	39.0
19.492	29.0
19.506	24.0
19.521	37.0
19.536	43.0
19.551	34.0
19.566	34.0
19.58	35.0
19.595	45.0
19.61	36.0
19.625	38.0
19.64	57.0
19.655	42.0
19.669	41.0
19.684	42.0
19.699	31.0
19.714	32.0
19.729	22.0
19.743	36.0
19.758	35.0
19.773	23.0
19.788	21.0
19.803	20.0
19.817	15.0
19.832	14.0
19.847	17.0
19.862	9.0
19.877	14.0
19.891	10.0
19.906	11.0
19.921	15.0
19.936	13.0
19.951	10.0
19.965	10.0
19.98	23.0
19.995	9.0
20.01	12.0
20.025	12.0
20.039	8.0
20.054	5.0
20.069	16.0
20.084	13.0
20.099	17.0
20.113	8.0
20.128	12.0
20.143	12.0
20.158	17.0
20.173	13.0
20.187	12.0
20.202	7.0
20.217	12.0
20.232	10.0
20.246	20.0
20.261	9.0
20.276	16.0
20.291	12.0
20.306	12.0
20.32	11.0
20.335	8.0
20.35	12.0
20.365	14.0
20.38	12.0
20.394	6.0
20.409	6.0
20.424	10.0
20.439	8.0
20.453	7.0
20.468	9.0
20.483	13.0
20.498	15.0
20.513	12.0
20.527	12.0
20.542	8.0
20.557	9.0
20.572	12.0
20.586	10.0
20.601	13.0
20.616	9.0
20.631	14.0
20.646	10.0
20.66	15.0
20.675	19.0
20.69	15.0
20.705	13.0
20.719	10.0
20.734	9.0
20.749	19.0
20.764	9.0
20.779	15.0
20.793	15.0
20.808	14.0
20.823	11.0
20.838	15.0
20.853	7.0
20.867	11.0
20.882	12.0
20.897	12.0
20.912	11.0
20.926	20.0
20.941	15.0
20.956	5.0
20.971	10.0
20.986	10.0
21.0	12.0
21.015	9.0
21.03	9.0
21.045	12.0
21.06	14.0
21.074	13.0
21.089	13.0
21.104	19.0
21.119	10.0
21.134	18.0
21.148	10.0
21.163	11.0
21.178	12.0
21.193	10.0
21.208	7.0
21.222	17.0
21.237	13.0
21.252	7.0
21.267	15.0
21.282	11.0
21.296	16.0
21.311	8.0
21.326	4.0
21.341	9.0
21.356	10.0
21.37	13.0
21.385	21.0
21.4	14.0
21.415	11.0
21.43	12.0
21.444	16.0
21.459	10.0
21.474	13.0
21.489	11.0
21.504	14.0
21.519	17.0
21.533	16.0
21.548	16.0
21.563	19.0
21.578	16.0
21.593	12.0
21.608	19.0
21.622	13.0
21.637	15.0
21.652	16.0
21.667	14.0
21.682	20.0
21.697	20.0
21.712	17.0
21.726	13.0
21.741	22.0
21.756	25.0
21.771	39.0
21.786	35.0
21.801	27.0
21.816	45.0
21.83	52.0
21.845	58.0
21.86	68.0
21.875	59.0
21.89	63.0
21.905	75.0
21.92	80.0
21.935	87.0
21.949	84.0
21.964	97.0
21.979	83.0
21.994	75.0
22.009	86.0
22.024	72.0
22.039	62.0
22.054	62.0
22.069	42.0
22.083	66.0
22.098	46.0
22.113	37.0
22.128	29.0
22.143	30.0
22.158	21.0
22.173	21.0
22.188	19.0
22.203	24.0
22.218	15.0
22.233	13.0
22.248	14.0
22.262	19.0
22.277	12.0
22.292	13.0
22.307	16.0
22.322	12.0
22.337	11.0
22.352	14.0
22.367	16.0
22.382	9.0
22.397	15.0
22.412	7.0
22.427	10.0
22.442	12.0
22.457	15.0
22.472	12.0
22.487	13.0
22.502	16.0
22.516	13.0
22.531	13.0
22.546	10.0
22.561	6.0
22.576	8.0
22.591	18.0
22.606	11.0
22.621	15.0
22.636	13.0
22.651	9.0
22.666	18.0
22.681	14.0
22.696	4.0
22.711	10.0
22.726	16.0
22.741	9.0
22.756	6.0
22.771	12.0
22.786	16.0
22.801	8.0
22.816	7.0
22.831	7.0
22.846	7.0
22.861	10.0
22.876	9.0
22.891	12.0
22.906	11.0
22.92	10.0
22.935	8.0
22.95	17.0
22.965	14.0
22.98	11.0
22.995	12.0
23.01	17.0
23.025	6.0
23.04	8.0
23.055	10.0
23.07	13.0
23.085	12.0
23.1	13.0
23.115	9.0
23.13	7.0
23.145	10.0
23.16	8.0
23.175	9.0
23.19	8.0
23.205	11.0
23.22	9.0
23.235	8.0
23.25	7.0
23.265	6.0
23.28	7.0
23.295	6.0
23.31	8.0
23.325	11.0
23.34	10.0
23.355	10.0
23.37	13.0
23.384	9.0
23.399	12.0
23.414	11.0
23.429	14.0
23.444	14.0
23.459	10.0
23.474	11.0
23.489	12.0
23.504	9.0
23.519	4.0
23.534	11.0
23.549	9.0
23.564	13.0
23.579	11.0
23.594	6.0
23.609	10.0
23.624	11.0
23.639	16.0
23.654	6.0
23.668	11.0
23.683	13.0
23.698	15.0
23.713	12.0
23.728	12.0
23.743	11.0
23.758	12.0
23.773	8.0
23.788	15.0
23.803	19.0
23.818	17.0
23.833	14.0
23.848	9.0
23.862	18.0
23.877	16.0
23.892	19.0
23.907	14.0
23.922	18.0
23.937	31.0
23.952	22.0
23.967	34.0
23.982	29.0
23.997	32.0
24.011	39.0
24.026	42.0
24.041	56.0
24.056	48.0
24.071	41.0
24.086	50.0
24.101	43.0
24.116	50.0
24.131	49.0
24.145	40.0
24.16	39.0
24.175	37.0
24.19	25.0
24.205	31.0
24.22	35.0
24.235	34.0
24.249	19.0
24.264	28.0
24.279	17.0
24.294	28.0
24.309	27.0
24.324	14.0
24.338	16.0
24.353	15.0
24.368	9.0
24.383	17.0
24.398	13.0
24.413	10.0
24.428	13.0
24.442	7.0
24.457	10.0
24.472	14.0
24.487	8.0
24.502	13.0
24.516	12.0
24.531	8.0
24.546	17.0
24.561	10.0
24.576	11.0
24.591	10.0
24.605	8.0
24.62	13.0
24.635	12.0
24.65	11.0
24.665	12.0
24.679	11.0
24.694	5.0
24.709	14.0
24.724	16.0
24.739	7.0
24.753	13.0
24.768	11.0
24.783	14.0
24.798	14.0
24.813	12.0
24.827	10.0
24.842	14.0
24.857	14.0
24.872	11.0
24.886	5.0
24.901	11.0
24.916	14.0
24.931	8.0
24.946	13.0
24.96	5.0
24.975	12.0
24.99	7.0
25.005	9.0
25.019	12.0
25.034	9.0
25.049	11.0
25.064	3.0
25.078	13.0
25.093	12.0
25.108	14.0
25.123	5.0
25.138	11.0
25.152	11.0
25.167	10.0
25.182	6.0
25.197	16.0
25.211	10.0
25.226	10.0
25.241	7.0
25.256	12.0
25.27	14.0
25.285	5.0
25.3	10.0
25.315	13.0
25.329	10.0
25.344	8.0
25.359	10.0
25.374	16.0
25.388	10.0
25.403	13.0
25.418	9.0
25.433	12.0
25.447	8.0
25.462	8.0
25.477	11.0
25.492	10.0
25.506	8.0
25.521	15.0
25.536	6.0
25.55	16.0
25.565	8.0
25.58	12.0
25.595	6.0
25.609	8.0
25.624	8.0
25.639	3.0
25.654	10.0
25.668	8.0
25.683	15.0
25.698	8.0
25.713	9.0
25.727	8.0
25.742	9.0
25.757	7.0
25.772	6.0
25.786	10.0
25.801	11.0
25.816	8.0
25.83	6.0
25.845	8.0
25.86	8.0
25.875	4.0
25.889	6.0
25.904	5.0
25.919	8.0
25.934	14.0
25.948	15.0
25.963	10.0
25.978	2.0
25.992	11.0
26.007	10.0
26.022	10.0
26.037	13.0
26.051	16.0
26.066	5.0
26.081	8.0
26.096	8.0
26.11	14.0
26.125	11.0
26.14	13.0
26.155	9.0
26.169	10.0
26.184	12.0
26.199	14.0
26.213	4.0
26.228	6.0
26.243	7.0
26.258	12.0
26.272	7.0
26.287	7.0
26.302	17.0
26.317	9.0
26.331	10.0
26.346	9.0
26.361	10.0
26.376	14.0
26.39	13.0
26.405	9.0
26.42	13.0
26.434	12.0
26.449	11.0
26.464	9.0
26.479	10.0
26.493	10.0
26.508	9.0
26.523	7.0
26.538	14.0
26.552	9.0
26.567	6.0
26.582	9.0
26.597	9.0
26.611	13.0
26.626	9.0
26.641	5.0
26.656	11.0
26.67	7.0
26.685	6.0
26.7	7.0
26.715	12.0
26.729	6.0
26.744	9.0
26.759	5.0
26.773	15.0
26.788	9.0
26.803	6.0
26.818	11.0
26.832	12.0
26.847	4.0
26.862	5.0
26.877	8.0
26.891	12.0
26.906	5.0
26.921	13.0
26.936	9.0
26.95	7.0
26.965	6.0
26.98	12.0
26.995	8.0
27.01	7.0
27.024	7.0
27.039	8.0
27.054	11.0
27.069	13.0
27.083	12.0
27.098	3.0
27.113	11.0
27.128	9.0
27.142	12.0
27.157	13.0
27.172	11.0
27.187	14.0
27.201	12.0
27.216	14.0
27.231	9.0
27.246	11.0
27.261	15.0
27.275	4.0
27.29	13.0
27.305	9.0
27.32	14.0
27.334	9.0
27.349	11.0
27.364	6.0
27.379	11.0
27.394	12.0
27.408	13.0
27.423	10.0
27.438	12.0
27.453	16.0
27.467	15.0
27.482	7.0
27.497	3.0
27.512	9.0
27.527	15.0
27.541	14.0
27.556	11.0
27.571	10.0
27.586	19.0
27.601	10.0
27.615	11.0
27.63	12.0
27.645	6.0
27.66	5.0
27.675	11.0
27.689	9.0
27.704	13.0
27.719	11.0
27.734	20.0
27.749	13.0
27.763	24.0
27.778	21.0
27.793	18.0
27.808	26.0
27.823	12.0
27.838	21.0
27.852	24.0
27.867	24.0
27.882	20.0
27.897	23.0
27.912	16.0
27.926	20.0
27.941	18.0
27.956	19.0
27.971	22.0
27.986	17.0
28.001	10.0
28.015	25.0
28.03	19.0
28.045	26.0
28.06	9.0
28.075	17.0
28.09	8.0
28.105	17.0
28.119	13.0
28.134	19.0
28.149	7.0
28.164	12.0
28.179	10.0
28.194	15.0
28.208	13.0
28.223	16.0
28.238	10.0
28.253	9.0
28.268	11.0
28.283	14.0
28.298	11.0
28.312	11.0
28.327	16.0
28.342	12.0
28.357	12.0
28.372	11.0
28.387	10.0
28.402	14.0
28.417	10.0
28.431	9.0
28.446	14.0
28.461	10.0
28.476	10.0
28.491	16.0
28.506	12.0
28.521	11.0
28.536	15.0
28.55	10.0
28.565	8.0
28.58	9.0
28.595	6.0
28.61	9.0
28.625	8.0
28.64	6.0
28.655	7.0
28.669	10.0
28.684	12.0
28.699	13.0
28.714	8.0
28.729	16.0
28.744	13.0
28.759	16.0
28.774	8.0
28.788	15.0
28.803	13.0
28.818	8.0
28.833	15.0
28.848	13.0
28.863	12.0
28.878	12.0
28.893	15.0
28.908	15.0
28.922	5.0
28.937	6.0
28.952	11.0
28.967	13.0
28.982	16.0
28.997	10.0
29.012	9.0
29.027	16.0
29.041	9.0
29.056	14.0
29.071	21.0
29.086	8.0
29.101	10.0
29.116	10.0
29.131	13.0
29.146	12.0
29.16	14.0
29.175	11.0
29.19	11.0
29.205	7.0
29.22	13.0
29.235	8.0
29.25	12.0
29.265	9.0
29.279	10.0
29.294	15.0
29.309	7.0
29.324	13.0
29.339	16.0
29.354	10.0
29.369	17.0
29.384	16.0
29.398	15.0
29.413	16.0
29.428	19.0
29.443	7.0
29.458	16.0
29.473	33.0
29.488	33.0
29.502	30.0
29.517	34.0
29.532	36.0
29.547	40.0
29.562	49.0
29.577	37.0
29.592	53.0
29.606	57.0
29.621	36.0
29.636	47.0
29.651	55.0
29.666	39.0
29.681	41.0
29.695	37.0
29.71	43.0
29.725	28.0
29.74	40.0
29.755	30.0
29.77	24.0
29.784	27.0
29.799	32.0
29.814	26.0
29.829	24.0
29.844	24.0
29.859	23.0
29.873	16.0
29.888	16.0
29.903	19.0
29.918	9.0
29.933	22.0
29.947	15.0
29.962	10.0
29.977	10.0
29.992	14.0
30.007	6.0
30.021	7.0
30.036	5.0
30.051	9.0
30.066	15.0
30.081	9.0
30.095	12.0
30.11	11.0
30.125	14.0
30.14	18.0
30.155	18.0
30.169	10.0
30.184	13.0
30.199	12.0
30.214	12.0
30.228	5.0
30.243	12.0
30.258	14.0
30.273	11.0
30.288	11.0
30.302	16.0
30.317	12.0
30.332	18.0
30.347	8.0
30.361	10.0
30.376	12.0
30.391	10.0
30.406	7.0
30.42	11.0
30.435	13.0
30.45	12.0
30.465	10.0
30.479	13.0
30.494	7.0
30.509	5.0
30.524	6.0
30.538	8.0
30.553	16.0
30.568	11.0
30.583	11.0
30.597	10.0
30.612	7.0
30.627	9.0
30.641	9.0
30.656	10.0
30.671	6.0
30.686	16.0
30.7	14.0
30.715	11.0
30.73	8.0
30.745	13.0
30.759	16.0
30.774	10.0
30.789	12.0
30.803	11.0
30.818	18.0
30.833	10.0
30.848	14.0
30.862	11.0
30.877	13.0
30.892	14.0
30.906	6.0
30.921	10.0
30.936	14.0
30.951	16.0
30.965	9.0
30.98	6.0
30.995	8.0
31.009	20.0
31.024	17.0
31.039	16.0
31.053	16.0
31.068	21.0
31.083	14.0
31.098	21.0
31.112	19.0
31.127	27.0
31.142	21.0
31.156	21.0
31.171	23.0
31.186	26.0
31.2	30.0
31.215	27.0
31.23	29.0
31.245	35.0
31.259	28.0
31.274	39.0
31.289	34.0
31.303	42.0
31.318	39.0
31.333	26.0
31.347	21.0
31.362	35.0
31.377	26.0
31.392	39.0
31.406	26.0
31.421	30.0
31.436	28.0
31.45	34.0
31.465	20.0
31.48	25.0
31.494	20.0
31.509	20.0
31.524	21.0
31.538	14.0
31.553	19.0
31.568	14.0
31.583	10.0
31.597	12.0
31.612	9.0
31.627	9.0
31.641	9.0
31.656	11.0
31.671	5.0
31.685	14.0
31.7	18.0
31.715	7.0
31.729	15.0
31.744	10.0
31.759	10.0
31.774	11.0
31.788	14.0
31.803	13.0
31.818	17.0
31.832	4.0
31.847	5.0
31.862	13.0
31.876	11.0
31.891	11.0
31.906	11.0
31.92	14.0
31.935	10.0
31.95	15.0
31.965	16.0
31.979	11.0
31.994	3.0
32.009	10.0
32.023	16.0
32.038	8.0
32.053	13.0
32.067	12.0
32.082	12.0
32.097	8.0
32.112	9.0
32.126	14.0
32.141	7.0
32.156	13.0
32.17	8.0
32.185	9.0
32.2	6.0
32.214	9.0
32.229	12.0
32.244	12.0
32.259	13.0
32.273	10.0
32.288	19.0
32.303	12.0
32.317	9.0
32.332	15.0
32.347	11.0
32.362	13.0
32.376	9.0
32.391	9.0
32.406	8.0
32.42	10.0
32.435	4.0
32.45	18.0
32.465	8.0
32.479	12.0
32.494	12.0
32.509	8.0
32.523	13.0
32.538	13.0
32.553	10.0
32.568	6.0
32.582	20.0
32.597	3.0
32.612	5.0
32.627	13.0
32.641	18.0
32.656	7.0
32.671	11.0
32.685	14.0
32.7	15.0
32.715	17.0
32.73	15.0
32.744	24.0
32.759	25.0
32.774	30.0
32.788	30.0
32.803	29.0
32.818	26.0
32.833	21.0
32.847	32.0
32.862	29.0
32.877	23.0
32.892	25.0
32.906	23.0
32.921	24.0
32.936	12.0
32.951	21.0
32.965	18.0
32.98	18.0
32.995	16.0
33.009	16.0
33.024	23.0
33.039	21.0
33.054	18.0
33.068	25.0
33.083	19.0
33.098	15.0
33.113	15.0
33.127	10.0
33.142	11.0
33.157	17.0
33.172	14.0
33.186	8.0
33.201	5.0
33.216	12.0
33.231	13.0
33.245	9.0
33.26	10.0
33.275	10.0
33.29	11.0
33.304	14.0
33.319	7.0
33.334	6.0
33.349	10.0
33.363	10.0
33.378	15.0
33.393	8.0
33.408	9.0
33.422	7.0
33.437	14.0
33.452	12.0
33.467	9.0
33.481	9.0
33.496	4.0
33.511	10.0
33.526	11.0
33.54	8.0
33.555	15.0
33.57	9.0
33.585	9.0
33.599	10.0
33.614	8.0
33.629	4.0
33.644	9.0
33.658	6.0
33.673	8.0
33.688	12.0
33.703	6.0
33.718	10.0
33.732	19.0
33.747	18.0
33.762	11.0
33.777	13.0
33.791	7.0
33.806	7.0
33.821	7.0
33.836	14.0
33.85	5.0
33.865	11.0
33.88	9.0
33.895	12.0
33.91	9.0
33.924	7.0
33.939	9.0
33.954	3.0
33.969	7.0
33.983	9.0
33.998	12.0
34.013	12.0
34.028	15.0
34.042	6.0
34.057	14.0
34.072	13.0
34.087	9.0
34.102	10.0
34.116	8.0
34.131	11.0
34.146	18.0
34.161	12.0
34.175	9.0
34.19	19.0
34.205	11.0
34.22	16.0
34.235	7.0
34.249	14.0
34.264	13.0
34.279	17.0
34.294	15.0
34.309	15.0
34.323	9.0
34.338	13.0
34.353	20.0
34.368	18.0
34.382	12.0
34.397	19.0
34.412	8.0
34.427	6.0
34.442	17.0
34.456	8.0
34.471	11.0
34.486	9.0
34.501	14.0
34.516	16.0
34.53	7.0
34.545	9.0
34.56	8.0
34.575	13.0
34.59	10.0
34.604	13.0
34.619	13.0
34.634	12.0
34.649	9.0
34.664	14.0
34.678	8.0
34.693	8.0
34.708	10.0
34.723	7.0
34.738	7.0
34.752	5.0
34.767	8.0
34.782	9.0
34.797	11.0
34.812	2.0
34.826	6.0
34.841	10.0
34.856	7.0
34.871	9.0
34.886	8.0
34.9	12.0
34.915	7.0
34.93	13.0
34.945	10.0
34.96	8.0
34.974	6.0
34.989	11.0
35.004	9.0
35.019	8.0
35.034	7.0
35.048	10.0
35.063	9.0
35.078	11.0
35.093	6.0
35.108	5.0
35.122	10.0
35.137	17.0
35.152	7.0
35.167	13.0
35.182	8.0
35.196	6.0
35.211	8.0
35.226	7.0
35.241	3.0
35.256	12.0
35.27	10.0
35.285	5.0
35.3	12.0
35.315	12.0
35.33	9.0
35.344	11.0
35.359	7.0
35.374	9.0
35.389	11.0
35.404	12.0
35.418	6.0
35.433	6.0
35.448	4.0
35.463	8.0
35.478	7.0
35.493	10.0
35.507	8.0
35.522	6.0
35.537	14.0
35.552	10.0
35.567	13.0
35.581	11.0
35.596	5.0
35.611	14.0
35.626	17.0
35.641	12.0
35.655	13.0
35.67	12.0
35.685	21.0
35.7	13.0
35.715	12.0
35.729	13.0
35.744	25.0
35.759	19.0
35.774	25.0
35.789	21.0
35.804	22.0
35.818	11.0
35.833	19.0
35.848	14.0
35.863	13.0
35.878	19.0
35.892	15.0
35.907	13.0
35.922	14.0
35.937	11.0
35.952	13.0
35.966	5.0
35.981	14.0
35.996	18.0
36.011	21.0
36.026	8.0
36.04	12.0
36.055	14.0
36.07	11.0
36.085	6.0
36.1	13.0
36.114	10.0
36.129	7.0
36.144	6.0
36.159	11.0
36.174	10.0
36.189	11.0
36.203	8.0
36.218	11.0
36.233	7.0
36.248	5.0
36.263	10.0
36.277	7.0
36.292	5.0
36.307	6.0
36.322	10.0
36.337	11.0
36.351	15.0
36.366	5.0
36.381	5.0
36.396	14.0
36.411	7.0
36.426	6.0
36.44	7.0
36.455	5.0
36.47	8.0
36.485	7.0
36.5	9.0
36.514	9.0
36.529	3.0
36.544	12.0
36.559	11.0
36.574	8.0
36.589	10.0
36.603	5.0
36.618	4.0
36.633	9.0
36.648	9.0
36.663	3.0
36.677	5.0
36.692	6.0
36.707	1.0
36.722	8.0
36.737	14.0
36.752	13.0
36.766	7.0
36.781	8.0
36.796	11.0
36.811	7.0
36.826	11.0
36.841	9.0
36.855	6.0
36.87	10.0
36.885	7.0
36.9	9.0
36.915	10.0
36.93	11.0
36.944	10.0
36.959	9.0
36.974	16.0
36.989	9.0
37.004	16.0
37.019	15.0
37.033	14.0
37.048	14.0
37.063	10.0
37.078	15.0
37.093	20.0
37.108	18.0
37.123	30.0
37.137	17.0
37.152	31.0
37.167	30.0
37.182	32.0
37.197	24.0
37.212	28.0
37.226	27.0
37.241	19.0
37.256	16.0
37.271	22.0
37.286	14.0
37.301	18.0
37.316	18.0
37.331	18.0
37.345	18.0
37.36	13.0
37.375	22.0
37.39	14.0
37.405	19.0
37.42	19.0
37.435	22.0
37.45	21.0
37.464	14.0
37.479	15.0
37.494	9.0
37.509	9.0
37.524	13.0
37.539	11.0
37.554	6.0
37.569	12.0
37.583	5.0
37.598	9.0
37.613	1.0
37.628	6.0
37.643	7.0
37.658	15.0
37.673	8.0
37.688	15.0
37.703	3.0
37.718	9.0
37.733	8.0
37.747	5.0
37.762	9.0
37.777	5.0
37.792	15.0
37.807	7.0
37.822	7.0
37.837	6.0
37.852	14.0
37.867	8.0
37.882	10.0
37.897	4.0
37.912	8.0
37.927	8.0
37.941	8.0
37.956	7.0
37.971	11.0
37.986	5.0
38.001	6.0
38.016	3.0
38.031	9.0
38.046	6.0
38.061	4.0
38.076	11.0
38.091	9.0
38.106	8.0
38.121	6.0
38.136	4.0
38.151	6.0
38.166	5.0
38.181	7.0
38.196	7.0
38.211	5.0
38.226	2.0
38.241	11.0
38.256	6.0
38.271	2.0
38.285	7.0
38.3	7.0
38.315	3.0
38.33	4.0
38.345	5.0
38.36	3.0
38.375	2.0
38.39	14.0
38.405	6.0
38.42	10.0
38.435	4.0
38.45	7.0
38.465	8.0
38.48	8.0
38.495	6.0
38.51	7.0
38.525	0.0
38.54	5.0
38.555	3.0
38.57	5.0
38.585	6.0
38.6	12.0
38.615	3.0
38.63	4.0
38.645	7.0
38.66	7.0
38.675	2.0
38.69	9.0
38.705	2.0
38.72	6.0
38.735	9.0
38.75	6.0
38.765	5.0
38.78	7.0
38.795	10.0
38.81	9.0
38.825	3.0
38.84	8.0
38.855	4.0
38.87	9.0
38.885	7.0
38.9	4.0
38.915	6.0
38.93	6.0
38.945	13.0
38.96	5.0
38.975	7.0
38.99	7.0
39.005	6.0
39.02	10.0
39.035	8.0
39.05	3.0
39.065	5.0
39.08	8.0
39.095	7.0
39.11	3.0
39.125	7.0
39.14	7.0
39.155	7.0
39.17	14.0
39.185	6.0
39.2	5.0
39.215	7.0
39.23	2.0
39.245	4.0
39.26	8.0
39.275	5.0
39.29	7.0
39.305	6.0
39.32	3.0
39.335	8.0
39.35	4.0
39.365	4.0
39.38	4.0
39.395	8.0
39.409	11.0
39.424	7.0
39.439	6.0
39.454	6.0
39.469	6.0
39.484	10.0
39.499	5.0
39.514	4.0
39.529	6.0
39.544	3.0
39.559	4.0
39.574	5.0
39.589	3.0
39.604	4.0
39.619	7.0
39.634	10.0
39.649	7.0
39.664	6.0
39.678	5.0
39.693	8.0
39.708	3.0
39.723	5.0
39.738	7.0
39.753	8.0
39.768	3.0
39.783	9.0
39.798	7.0
39.813	9.0
39.827	14.0
39.842	13.0
39.857	10.0
39.872	7.0
39.887	12.0
39.902	9.0
39.917	11.0
39.932	9.0
39.947	5.0
39.961	6.0
39.976	6.0
39.991	7.0
40.006	11.0
40.021	5.0
40.036	9.0
40.051	3.0
40.065	5.0
40.08	9.0
40.095	6.0
40.11	6.0
40.125	6.0
40.14	9.0
40.154	3.0
40.169	4.0
40.184	8.0
40.199	2.0
40.214	10.0
40.228	5.0
40.243	5.0
40.258	4.0
40.273	9.0
40.288	6.0
40.302	5.0
40.317	2.0
40.332	4.0
40.347	4.0
40.362	9.0
40.376	10.0
40.391	6.0
40.406	3.0
40.421	7.0
40.436	6.0
40.45	5.0
40.465	10.0
40.48	4.0
40.495	5.0
40.509	9.0
40.524	5.0
40.539	12.0
40.554	7.0
40.568	4.0
40.583	5.0
40.598	2.0
40.613	2.0
40.627	8.0
40.642	7.0
40.657	4.0
40.672	7.0
40.686	3.0
40.701	10.0
40.716	9.0
40.731	5.0
40.745	8.0
40.76	9.0
40.775	7.0
40.79	7.0
40.804	10.0
40.819	7.0
40.834	4.0
40.849	6.0
40.863	3.0
40.878	9.0
40.893	8.0
40.907	7.0
40.922	5.0
40.937	8.0
40.952	9.0
40.966	7.0
40.981	6.0
40.996	9.0
41.011	10.0
41.025	6.0
41.04	12.0
41.055	17.0
41.069	18.0
41.084	21.0
41.099	13.0
41.114	18.0
41.128	17.0
41.143	18.0
41.158	18.0
41.173	19.0
41.187	22.0
41.202	20.0
41.217	8.0
41.231	8.0
41.246	17.0
41.261	7.0
41.276	14.0
41.29	9.0
41.305	13.0
41.32	8.0
41.335	9.0
41.349	16.0
41.364	18.0
41.379	11.0
41.393	9.0
41.408	13.0
41.423	12.0
41.438	15.0
41.452	11.0
41.467	7.0
41.482	12.0
41.497	7.0
41.511	12.0
41.526	9.0
41.541	5.0
41.556	5.0
41.57	5.0
41.585	5.0
41.6	8.0
41.615	8.0
41.629	7.0
41.644	6.0
41.659	6.0
41.674	7.0
41.688	4.0
41.703	5.0
41.718	8.0
41.733	5.0
41.747	10.0
41.762	6.0
41.777	3.0
41.792	4.0
41.806	9.0
41.821	7.0
41.836	10.0
41.851	4.0
41.866	4.0
41.88	3.0
41.895	3.0
41.91	7.0
41.925	3.0
41.939	2.0
41.954	13.0
41.969	5.0
41.984	6.0
41.999	6.0
42.013	5.0
42.028	9.0
42.043	7.0
42.058	8.0
42.073	6.0
42.088	4.0
42.102	4.0
42.117	13.0
42.132	7.0
42.147	3.0
42.162	4.0
42.176	5.0
42.191	6.0
42.206	7.0
42.221	12.0
42.236	9.0
42.251	13.0
42.266	5.0
42.28	9.0
42.295	12.0
42.31	14.0
42.325	9.0
42.34	15.0
42.355	10.0
42.369	11.0
42.384	13.0
42.399	15.0
42.414	29.0
42.429	10.0
42.444	16.0
42.459	16.0
42.474	11.0
42.488	13.0
42.503	10.0
42.518	2.0
42.533	7.0
42.548	8.0
42.563	12.0
42.578	7.0
42.593	12.0
42.608	17.0
42.622	7.0
42.637	14.0
42.652	13.0
42.667	16.0
42.682	15.0
42.697	9.0
42.712	12.0
42.727	7.0
42.742	13.0
42.757	7.0
42.772	2.0
42.786	4.0
42.801	4.0
42.816	1.0
42.831	3.0
42.846	9.0
42.861	3.0
42.876	7.0
42.891	6.0
42.906	6.0
42.921	7.0
42.936	7.0
42.951	5.0
42.966	6.0
42.981	8.0
42.996	2.0
43.011	7.0
43.025	8.0
43.04	3.0
43.055	3.0
43.07	1.0
43.085	3.0
43.1	6.0
43.115	2.0
43.13	6.0
43.145	3.0
43.16	8.0
43.175	8.0
43.19	6.0
43.205	4.0
43.22	5.0
43.235	6.0
43.25	7.0
43.265	7.0
43.28	5.0
43.295	3.0
43.31	8.0
43.325	2.0
43.34	2.0
43.355	9.0
43.37	6.0
43.385	9.0
43.4	4.0
43.415	4.0
43.43	5.0
43.445	6.0
43.46	7.0
43.475	5.0
43.49	6.0
43.505	5.0
43.52	6.0
43.535	10.0
43.55	5.0
43.565	11.0
43.58	11.0
43.595	14.0
43.61	10.0
43.625	6.0
43.64	11.0
43.655	8.0
43.67	3.0
43.685	6.0
43.7	6.0
43.715	8.0
43.73	6.0
43.745	5.0
43.76	3.0
43.775	4.0
43.79	7.0
43.805	9.0
43.82	4.0
43.835	9.0
43.85	5.0
43.865	10.0
43.88	10.0
43.895	5.0
43.91	5.0
43.925	10.0
43.94	6.0
43.955	11.0
43.97	5.0
43.985	8.0
44.0	11.0
44.015	3.0
44.03	6.0
44.045	5.0
44.061	3.0
44.076	6.0
44.091	7.0
44.106	7.0
44.121	4.0
44.136	6.0
44.151	6.0
44.166	6.0
44.181	6.0
44.196	9.0
44.211	5.0
44.226	11.0
44.241	7.0
44.256	6.0
44.271	10.0
44.286	6.0
44.301	5.0
44.316	4.0
44.331	7.0
44.346	4.0
44.361	6.0
44.377	6.0
44.392	5.0
44.407	4.0
44.422	6.0
44.437	5.0
44.452	2.0
44.467	5.0
44.482	4.0
44.497	5.0
44.512	5.0
44.527	3.0
44.542	6.0
44.557	6.0
44.572	4.0
44.587	6.0
44.602	4.0
44.617	4.0
44.632	8.0
44.647	3.0
44.663	2.0
44.678	6.0
44.693	9.0
44.708	5.0
44.723	9.0
44.738	11.0
44.753	12.0
44.768	5.0
44.783	9.0
44.798	6.0
44.813	8.0
44.828	10.0
44.843	11.0
44.858	12.0
44.873	5.0
44.888	14.0
44.903	9.0
44.918	8.0
44.933	9.0
44.948	10.0
44.964	9.0
44.979	9.0
44.994	3.0
45.009	12.0
45.024	11.0
45.039	7.0
45.054	8.0
45.069	3.0
45.084	5.0
45.099	9.0
45.114	6.0
45.129	12.0
45.144	7.0
45.159	12.0
45.174	6.0
45.189	5.0
45.204	8.0
45.219	7.0
45.234	9.0
45.249	8.0
45.264	6.0
45.279	2.0
45.294	3.0
45.309	5.0
45.324	7.0
45.339	4.0
45.354	4.0
45.369	4.0
45.384	5.0
45.399	2.0
45.414	2.0
45.429	5.0
45.444	11.0
45.459	6.0
45.474	2.0
45.489	7.0
45.504	7.0
45.519	7.0
45.534	4.0
45.549	5.0
45.564	8.0
45.579	4.0
45.594	7.0
45.609	9.0
45.624	8.0
45.639	9.0
45.654	4.0
45.669	4.0
45.684	6.0
45.699	7.0
45.714	6.0
45.729	8.0
45.744	6.0
45.759	7.0
45.774	3.0
45.789	6.0
45.804	8.0
45.819	4.0
45.834	9.0
45.849	3.0
45.864	5.0
45.879	11.0
45.894	6.0
45.909	14.0
45.924	13.0
45.939	15.0
45.954	12.0
45.969	14.0
45.984	18.0
45.998	9.0
46.013	19.0
46.028	16.0
46.043	15.0
46.058	10.0
46.073	7.0
46.088	14.0
46.103	6.0
46.118	9.0
46.133	13.0
46.148	8.0
46.163	6.0
46.178	10.0
46.192	5.0
46.207	9.0
46.222	11.0
46.237	5.0
46.252	10.0
46.267	13.0
46.282	10.0
46.297	13.0
46.312	12.0
46.327	5.0
46.341	9.0
46.356	5.0
46.371	10.0
46.386	1.0
46.401	3.0
46.416	5.0
46.431	3.0
46.446	8.0
46.46	3.0
46.475	5.0
46.49	3.0
46.505	10.0
46.52	3.0
46.535	9.0
46.55	9.0
46.564	9.0
46.579	3.0
46.594	8.0
46.609	7.0
46.624	6.0
46.639	7.0
46.654	5.0
46.668	4.0
46.683	3.0
46.698	7.0
46.713	4.0
46.728	6.0
46.743	5.0
46.758	4.0
46.772	5.0
46.787	8.0
46.802	6.0
46.817	1.0
46.832	1.0
46.847	5.0
46.861	1.0
46.876	7.0
46.891	4.0
46.906	3.0
46.921	6.0
46.936	6.0
46.95	5.0
46.965	3.0
46.98	5.0
46.995	5.0
47.01	11.0
47.025	3.0
47.039	8.0
47.054	6.0
47.069	10.0
47.084	13.0
47.099	7.0
47.113	15.0
47.128	6.0
47.143	12.0
47.158	12.0
47.173	9.0
47.188	13.0
47.202	12.0
47.217	6.0
47.232	5.0
47.247	8.0
47.262	10.0
47.277	6.0
47.291	4.0
47.306	3.0
47.321	6.0
47.336	3.0
47.351	2.0
47.365	5.0
47.38	5.0
47.395	6.0
47.41	2.0
47.425	7.0
47.44	6.0
47.454	6.0
47.469	9.0
47.484	5.0
47.499	5.0
47.514	7.0
47.528	8.0
47.543	6.0
47.558	5.0
47.573	7.0
47.588	7.0
47.603	2.0
47.617	8.0
47.632	2.0
47.647	2.0
47.662	8.0
47.677	3.0
47.691	4.0
47.706	5.0
47.721	2.0
47.736	7.0
47.751	1.0
47.766	3.0
47.78	4.0
47.795	5.0
47.81	4.0
47.825	5.0
47.84	5.0
47.855	4.0
47.869	2.0
47.884	5.0
47.899	2.0
47.914	1.0
47.929	4.0
47.944	2.0
47.958	7.0
47.973	4.0
47.988	5.0
48.003	8.0
48.018	7.0
48.033	4.0
48.047	5.0
48.062	5.0
48.077	4.0
48.092	4.0
48.107	6.0
48.122	6.0
48.137	3.0
48.151	5.0
48.166	4.0
48.181	8.0
48.196	1.0
48.211	5.0
48.226	2.0
48.241	3.0
48.255	5.0
48.27	7.0
48.285	7.0
48.3	4.0
48.315	3.0
48.33	2.0
48.345	4.0
48.359	5.0
48.374	7.0
48.389	4.0
48.404	8.0
48.419	6.0
48.434	5.0
48.449	7.0
48.464	2.0
48.478	3.0
48.493	1.0
48.508	4.0
48.523	7.0
48.538	3.0
48.553	5.0
48.568	4.0
48.583	8.0
48.597	7.0
48.612	3.0
48.627	7.0
48.642	5.0
48.657	5.0
48.672	3.0
48.687	4.0
48.702	6.0
48.717	3.0
48.731	6.0
48.746	12.0
48.761	8.0
48.776	4.0
48.791	9.0
48.806	4.0
48.821	8.0
48.836	4.0
48.851	5.0
48.866	5.0
48.88	4.0
48.895	5.0
48.91	4.0
48.925	3.0
48.94	4.0
48.955	5.0
48.97	4.0
48.985	6.0
49.0	4.0
49.015	2.0
49.03	6.0
49.044	4.0
49.059	9.0
49.074	4.0
49.089	4.0
49.104	7.0
49.119	7.0
49.134	3.0
49.149	4.0
49.164	10.0
49.179	4.0
49.194	5.0
49.209	6.0
49.224	3.0
49.238	7.0
49.253	7.0
49.268	5.0
49.283	4.0
49.298	1.0
49.313	6.0
49.328	7.0
49.343	10.0
49.358	9.0
49.373	8.0
49.388	6.0
49.403	11.0
49.418	5.0
49.433	3.0
49.448	3.0
49.463	9.0
49.478	5.0
49.492	5.0
49.507	9.0
49.522	7.0
49.537	3.0
49.552	7.0
49.567	6.0
49.582	5.0
49.597	8.0
49.612	5.0
49.627	7.0
49.642	6.0
49.657	9.0
49.672	6.0
49.687	6.0
49.702	3.0
49.717	9.0
49.732	8.0
49.747	2.0
49.762	8.0
49.777	4.0
49.792	3.0
49.807	4.0
49.822	6.0
49.837	3.0
49.852	6.0
49.867	7.0
49.882	4.0
49.897	5.0
49.912	7.0
49.927	6.0
49.942	7.0
49.957	4.0
49.971	2.0
49.986	1.0
50.001	4.0
50.016	4.0
50.031	4.0
50.046	5.0
50.061	4.0
50.076	1.0
50.091	3.0
50.106	2.0
50.121	7.0
50.136	11.0
50.151	6.0
50.166	5.0
50.181	3.0
50.196	4.0
50.211	7.0
50.226	6.0
50.241	4.0
50.256	4.0
50.271	2.0
50.286	3.0
50.302	5.0
50.317	6.0
50.332	5.0
50.347	12.0
50.362	7.0
50.377	5.0
50.392	8.0
50.407	9.0
50.422	3.0
50.437	11.0
50.452	3.0
50.467	6.0
50.482	9.0
50.497	12.0
50.512	7.0
50.527	8.0
50.542	5.0
50.557	7.0
50.572	8.0
50.587	4.0
50.602	4.0
50.617	7.0
50.632	10.0
50.647	4.0
50.662	10.0
50.677	6.0
50.692	4.0
50.707	5.0
50.722	6.0
50.737	4.0
50.752	6.0
50.767	5.0
50.782	5.0
50.797	5.0
50.812	10.0
50.828	7.0
50.843	5.0
50.858	5.0
50.873	3.0
50.888	9.0
50.903	6.0
50.918	3.0
50.933	4.0
50.948	4.0
50.963	9.0
50.978	8.0
50.993	8.0
51.008	5.0
51.023	5.0
51.038	4.0
51.053	4.0
51.068	11.0
51.083	6.0
51.098	4.0
51.114	5.0
51.129	3.0
51.144	4.0
51.159	3.0
51.174	4.0
51.189	5.0
51.204	3.0
51.219	3.0
51.234	1.0
51.249	3.0
51.264	8.0
51.279	7.0
51.294	9.0
51.309	2.0
51.324	9.0
51.34	7.0
51.355	9.0
51.37	2.0
51.385	5.0
51.4	10.0
51.415	5.0
51.43	10.0
51.445	14.0
51.46	12.0
51.475	8.0
51.49	15.0
51.505	21.0
51.52	21.0
51.535	24.0
51.551	13.0
51.566	28.0
51.581	17.0
51.596	13.0
51.611	11.0
51.626	11.0
51.641	9.0
51.656	4.0
51.671	5.0
51.686	7.0
51.701	7.0
51.716	5.0
51.732	7.0
51.747	10.0
51.762	13.0
51.777	8.0
51.792	7.0
51.807	8.0
51.822	6.0
51.837	12.0
51.852	10.0
51.867	10.0
51.882	10.0
51.898	6.0
51.913	10.0
51.928	7.0
51.943	8.0
51.958	9.0
51.973	8.0
51.988	13.0
52.003	3.0
52.018	3.0
52.033	1.0
52.048	4.0
52.064	6.0
52.079	5.0
52.094	7.0
52.109	5.0
52.124	6.0
52.139	6.0
52.154	5.0
52.169	8.0
52.184	5.0
52.199	5.0
52.215	6.0
52.23	3.0
52.245	4.0
52.26	8.0
52.275	4.0
52.29	0.0
52.305	8.0
52.32	6.0
52.335	4.0
52.35	7.0
52.366	5.0
52.381	4.0
52.396	7.0
52.411	3.0
52.426	4.0
52.441	5.0
52.456	3.0
52.471	5.0
52.486	8.0
52.502	6.0
52.517	10.0
52.532	12.0
52.547	7.0
52.562	13.0
52.577	10.0
52.592	6.0
52.607	9.0
52.622	12.0
52.637	8.0
52.653	8.0
52.668	6.0
52.683	10.0
52.698	7.0
52.713	6.0
52.728	5.0
52.743	6.0
52.758	3.0
52.774	3.0
52.789	8.0
52.804	3.0
52.819	6.0
52.834	4.0
52.849	4.0
52.864	5.0
52.879	11.0
52.894	8.0
52.91	3.0
52.925	6.0
52.94	8.0
52.955	12.0
52.97	5.0
52.985	7.0
53.0	6.0
53.015	6.0
53.031	4.0
53.046	8.0
53.061	4.0
53.076	4.0
53.091	6.0
53.106	3.0
53.121	6.0
53.136	6.0
53.152	5.0
53.167	5.0
53.182	3.0
53.197	8.0
53.212	6.0
53.227	3.0
53.242	1.0
53.257	5.0
53.273	2.0
53.288	3.0
53.303	4.0
53.318	9.0
53.333	9.0
53.348	3.0
53.363	3.0
53.379	4.0
53.394	2.0
53.409	4.0
53.424	3.0
53.439	3.0
53.454	6.0
53.469	8.0
53.484	5.0
53.5	3.0
53.515	6.0
53.53	3.0
53.545	3.0
53.56	5.0
53.575	7.0
53.59	8.0
53.606	5.0
53.621	5.0
53.636	2.0
53.651	2.0
53.666	3.0
53.681	3.0
53.696	2.0
53.712	3.0
53.727	11.0
53.742	7.0
53.757	9.0
53.772	5.0
53.787	3.0
53.802	2.0
53.818	4.0
53.833	7.0
53.848	3.0
53.863	5.0
53.878	6.0
53.893	4.0
53.909	2.0
53.924	2.0
53.939	6.0
53.954	4.0
53.969	4.0
53.984	7.0
53.999	3.0
54.015	7.0
54.03	3.0
54.045	6.0
54.06	4.0
54.075	4.0
54.09	2.0
54.106	5.0
54.121	7.0
54.136	8.0
54.151	4.0
54.166	8.0
54.181	4.0
54.197	4.0
54.212	1.0
54.227	5.0
54.242	6.0
54.257	2.0
54.272	5.0
54.288	3.0
54.303	8.0
54.318	6.0
54.333	2.0
54.348	8.0
54.363	3.0
54.379	8.0
54.394	7.0
54.409	6.0
54.424	4.0
54.439	6.0
54.454	2.0
54.47	5.0
54.485	5.0
54.5	7.0
54.515	6.0
54.53	13.0
54.545	12.0
54.561	10.0
54.576	15.0
54.591	11.0
54.606	15.0
54.621	8.0
54.636	10.0
54.652	11.0
54.667	14.0
54.682	13.0
54.697	5.0
54.712	17.0
54.727	7.0
54.743	8.0
54.758	9.0
54.773	9.0
54.788	9.0
54.803	10.0
54.819	4.0
54.834	5.0
54.849	7.0
54.864	2.0
54.879	3.0
54.894	4.0
54.91	6.0
54.925	5.0
54.94	12.0
54.955	7.0
54.97	10.0
54.985	9.0
55.001	12.0
55.016	8.0
55.031	9.0
55.046	10.0
55.061	10.0
55.077	4.0
55.092	4.0
55.107	8.0
55.122	7.0
55.137	4.0
55.152	8.0
55.168	9.0
55.183	5.0
55.198	10.0
55.213	3.0
55.228	8.0
55.243	6.0
55.259	10.0
55.274	4.0
55.289	4.0
55.304	8.0
55.319	6.0
55.335	4.0
55.35	5.0
55.365	6.0
55.38	2.0
55.395	7.0
55.41	5.0
55.426	3.0
55.441	7.0
55.456	5.0
55.471	5.0
55.486	5.0
55.501	3.0
55.517	7.0
55.532	2.0
55.547	2.0
55.562	5.0
55.577	4.0
55.592	2.0
55.608	6.0
55.623	5.0
55.638	2.0
55.653	5.0
55.668	7.0
55.683	11.0
55.699	8.0
55.714	7.0
55.729	3.0
55.744	6.0
55.759	10.0
55.774	5.0
55.79	0.0
55.805	5.0
55.82	4.0
55.835	3.0
55.85	3.0
55.865	5.0
55.881	4.0
55.896	8.0
55.911	7.0
55.926	2.0
55.941	5.0
55.956	9.0
55.972	7.0
55.987	2.0
56.002	7.0
56.017	12.0
56.032	5.0
56.047	7.0
56.063	3.0
56.078	3.0
56.093	4.0
56.108	8.0
56.123	3.0
56.138	3.0
56.154	3.0
56.169	0.0
56.184	8.0
56.199	3.0
56.214	2.0
56.229	4.0
56.244	6.0
56.26	5.0
56.275	7.0
56.29	2.0
56.305	3.0
56.32	5.0
56.335	9.0
56.351	4.0
56.366	5.0
56.381	9.0
56.396	4.0
56.411	4.0
56.426	8.0
56.441	2.0
56.457	5.0
56.472	6.0
56.487	5.0
56.502	2.0
56.517	2.0
56.532	4.0
56.547	6.0
56.563	6.0
56.578	9.0
56.593	2.0
56.608	6.0
56.623	2.0
56.638	6.0
56.653	8.0
56.668	2.0
56.684	3.0
56.699	3.0
56.714	5.0
56.729	3.0
56.744	8.0
56.759	5.0
56.774	2.0
56.79	2.0
56.805	7.0
56.82	3.0
56.835	8.0
56.85	2.0
56.865	4.0
56.88	4.0
56.895	10.0
56.911	7.0
56.926	6.0
56.941	3.0
56.956	5.0
56.971	5.0
56.986	5.0
57.001	5.0
57.016	7.0
57.031	5.0
57.047	7.0
57.062	3.0
57.077	6.0
57.092	1.0
57.107	4.0
57.122	2.0
57.137	8.0
57.152	4.0
57.167	6.0
57.183	3.0
57.198	2.0
57.213	3.0
57.228	4.0
57.243	7.0
57.258	3.0
57.273	6.0
57.288	5.0
57.303	4.0
57.318	4.0
57.334	0.0
57.349	6.0
57.364	3.0
57.379	4.0
57.394	4.0
57.409	1.0
57.424	8.0
57.439	2.0
57.454	2.0
57.469	4.0
57.484	3.0
57.5	8.0
57.515	3.0
57.53	5.0
57.545	5.0
57.56	7.0
57.575	6.0
57.59	5.0
57.605	8.0
57.62	4.0
57.635	9.0
57.65	5.0
57.665	4.0
57.68	5.0
57.696	4.0
57.711	6.0
57.726	3.0
57.741	5.0
57.756	6.0
57.771	3.0
57.786	6.0
57.801	6.0
57.816	0.0
57.831	5.0
57.846	6.0
57.861	3.0
57.876	5.0
57.891	3.0
57.906	4.0
57.921	2.0
57.937	2.0
57.952	7.0
57.967	7.0
57.982	6.0
57.997	5.0
58.012	5.0
58.027	3.0
58.042	5.0
58.057	5.0
58.072	1.0
58.087	3.0
58.102	3.0
58.117	8.0
58.132	9.0
58.147	5.0
58.162	6.0
58.177	2.0
58.192	4.0
58.207	7.0
58.222	4.0
58.237	12.0
58.252	4.0
58.267	6.0
58.282	6.0
58.297	6.0
58.312	6.0
58.327	5.0
58.342	2.0
58.357	3.0
58.372	1.0
58.387	3.0
58.402	4.0
58.418	7.0
58.433	4.0
58.448	7.0
58.463	5.0
58.478	5.0
58.493	5.0
58.508	4.0
58.523	6.0
58.538	6.0
58.553	3.0
58.568	11.0
58.583	5.0
58.598	8.0
58.613	13.0
58.628	11.0
58.643	8.0
58.658	5.0
58.673	7.0
58.688	9.0
58.703	8.0
58.718	9.0
58.733	10.0
58.748	3.0
58.763	11.0
58.778	4.0
58.793	2.0
58.808	11.0
58.823	7.0
58.838	3.0
58.853	5.0
58.868	4.0
58.883	7.0
58.898	5.0
58.913	8.0
58.928	4.0
58.942	9.0
58.957	7.0
58.972	3.0
58.987	4.0
59.002	5.0
59.017	8.0
59.032	6.0
59.047	10.0
59.062	8.0
59.077	5.0
59.092	6.0
59.107	7.0
59.122	5.0
59.137	4.0
59.152	7.0
59.167	5.0
59.182	4.0
59.197	2.0
59.212	2.0
59.227	2.0
59.242	4.0
59.257	6.0
59.272	9.0
59.287	2.0
59.302	3.0
59.317	5.0
59.332	2.0
59.347	4.0
59.362	6.0
59.377	8.0
59.392	1.0
59.407	2.0
59.422	1.0
59.437	3.0
59.452	3.0
59.467	7.0
59.482	8.0
59.497	8.0
59.512	3.0
59.527	4.0
59.542	9.0
59.557	6.0
59.572	16.0
59.587	8.0
59.602	2.0
59.617	10.0
59.632	8.0
59.647	6.0
59.661	7.0
59.676	6.0
59.691	13.0
59.706	7.0
59.721	3.0
59.736	9.0
59.751	8.0
59.766	3.0
59.781	6.0
59.796	1.0
59.811	6.0
59.826	1.0
59.841	9.0
59.856	4.0
59.871	6.0
59.886	5.0
59.901	5.0
59.916	5.0
59.931	6.0
59.946	5.0
59.961	8.0
59.976	8.0
59.991	3.0
60.006	7.0
60.021	6.0
60.036	8.0
60.051	8.0
60.066	9.0
60.081	6.0
60.096	3.0
60.111	7.0
60.126	6.0
60.141	6.0
60.156	5.0
60.171	4.0
60.186	4.0
60.201	3.0
60.216	5.0
60.231	9.0
60.246	1.0
60.261	5.0
60.276	5.0
60.291	1.0
60.306	2.0
60.321	2.0
60.336	5.0
60.35	6.0
60.365	5.0
60.38	5.0
60.395	4.0
60.41	5.0
60.425	5.0
60.44	4.0
60.455	5.0
60.47	5.0
60.485	5.0
60.5	9.0
60.515	4.0
60.53	8.0
60.545	12.0
60.56	8.0
60.575	9.0
60.59	5.0
60.605	1.0
60.62	8.0
60.635	9.0
60.65	7.0
60.665	6.0
60.68	4.0
60.695	2.0
60.71	7.0
60.725	3.0
60.74	3.0
60.755	9.0
60.77	6.0
60.785	5.0
60.8	2.0
60.815	2.0
60.83	4.0
60.845	2.0
60.86	4.0
60.875	5.0
60.89	3.0
60.905	5.0
60.92	2.0
60.935	7.0
60.95	8.0
60.965	7.0
60.98	5.0
60.995	4.0
61.01	5.0
61.025	8.0
61.04	2.0
61.055	5.0
61.07	4.0
61.085	12.0
61.1	1.0
61.115	4.0
61.13	4.0
61.145	4.0
61.16	2.0
61.175	3.0
61.191	4.0
61.206	4.0
61.221	5.0
61.236	3.0
61.251	1.0
61.266	6.0
61.281	3.0
61.296	6.0
61.311	5.0
61.326	3.0
61.341	3.0
61.356	7.0
61.371	5.0
61.386	5.0
61.401	6.0
61.416	2.0
61.431	7.0
61.446	6.0
61.461	5.0
61.476	5.0
61.491	3.0
61.506	5.0
61.521	1.0
61.536	4.0
61.551	7.0
61.566	10.0
61.581	9.0
61.596	7.0
61.611	3.0
61.626	9.0
61.641	2.0
61.656	5.0
61.672	1.0
61.687	3.0
61.702	3.0
61.717	3.0
61.732	4.0
61.747	9.0
61.762	7.0
61.777	4.0
61.792	5.0
61.807	5.0
61.822	3.0
61.837	5.0
61.852	1.0
61.867	3.0
61.882	4.0
61.897	4.0
61.912	5.0
61.927	5.0
61.943	4.0
61.958	4.0
61.973	2.0
61.988	3.0
62.003	7.0
62.018	4.0
62.033	6.0
62.048	2.0
62.063	4.0
62.078	2.0
62.093	5.0
62.108	0.0
62.123	3.0
62.138	3.0
62.153	6.0
62.169	4.0
62.184	5.0
62.199	4.0
62.214	8.0
62.229	2.0
62.244	5.0
62.259	6.0
62.274	3.0
62.289	2.0
62.304	1.0
62.319	12.0
62.335	3.0
62.35	5.0
62.365	5.0
62.38	2.0
62.395	4.0
62.41	7.0
62.425	2.0
62.44	4.0
62.455	6.0
62.47	3.0
62.485	4.0
62.501	3.0
62.516	6.0
62.531	3.0
62.546	5.0
62.561	1.0
62.576	4.0
62.591	2.0
62.606	2.0
62.621	5.0
62.636	3.0
62.652	3.0
62.667	5.0
62.682	2.0
62.697	2.0
62.712	4.0
62.727	3.0
62.742	3.0
62.757	4.0
62.772	5.0
62.787	1.0
62.803	2.0
62.818	1.0
62.833	7.0
62.848	6.0
62.863	6.0
62.878	2.0
62.893	5.0
62.908	7.0
62.923	7.0
62.939	3.0
62.954	4.0
62.969	4.0
62.984	4.0
62.999	2.0
63.014	4.0
63.029	5.0
63.044	4.0
63.059	3.0
63.074	3.0
63.09	2.0
63.105	3.0
63.12	5.0
63.135	4.0
63.15	5.0
63.165	5.0
63.18	3.0
63.195	3.0
63.21	3.0
63.226	3.0
63.241	2.0
63.256	3.0
63.271	3.0
63.286	7.0
63.301	2.0
63.316	6.0
63.331	7.0
63.346	3.0
63.362	10.0
63.377	5.0
63.392	8.0
63.407	7.0
63.422	12.0
63.437	11.0
63.452	6.0
63.467	5.0
63.482	6.0
63.497	13.0
63.513	10.0
63.528	6.0
63.543	8.0
63.558	0.0
63.573	5.0
63.588	4.0
63.603	1.0
63.618	6.0
63.633	6.0
63.648	6.0
63.664	2.0
63.679	1.0
63.694	1.0
63.709	4.0
63.724	10.0
63.739	5.0
63.754	6.0
63.769	5.0
63.784	2.0
63.799	6.0
63.814	1.0
63.83	6.0
63.845	4.0
63.86	8.0
63.875	6.0
63.89	3.0
63.905	7.0
63.92	3.0
63.935	6.0
63.95	0.0
63.965	8.0
63.98	4.0
63.996	5.0
64.011	5.0
64.026	3.0
64.041	5.0
64.056	3.0
64.071	1.0
64.086	2.0
64.101	3.0
64.116	4.0
64.131	1.0
64.146	3.0
64.161	6.0
64.176	2.0
64.191	3.0
64.207	1.0
64.222	4.0
64.237	3.0
64.252	5.0
64.267	2.0
64.282	2.0
64.297	5.0
64.312	1.0
64.327	3.0
64.342	9.0
64.357	6.0
64.372	6.0
64.387	6.0
64.402	4.0
64.417	3.0
64.433	5.0
64.448	4.0
64.463	2.0
64.478	4.0
64.493	1.0
64.508	2.0
64.523	4.0
64.538	3.0
64.553	2.0
64.568	2.0
64.583	2.0
64.598	4.0
64.613	2.0
64.628	4.0
64.643	3.0
64.658	2.0
64.673	5.0
64.688	4.0
64.703	6.0
64.718	1.0
64.734	3.0
64.749	3.0
64.764	1.0
64.779	2.0
64.794	1.0
64.809	9.0
64.824	0.0
64.839	3.0
64.854	2.0
64.869	4.0
64.884	5.0
64.899	5.0
64.914	6.0
64.929	6.0
64.944	5.0
64.959	6.0
64.974	4.0
64.989	3.0
65.004	7.0
65.019	2.0
65.034	6.0
65.049	2.0
65.064	3.0
65.079	0.0
65.094	5.0
65.109	3.0
65.125	2.0
65.14	6.0
65.155	3.0
65.17	3.0
65.185	3.0
65.2	4.0
65.215	4.0
65.23	4.0
65.245	1.0
65.26	7.0
65.275	5.0
65.29	7.0
65.305	4.0
65.32	1.0
65.335	3.0
65.35	1.0
65.365	8.0
65.38	5.0
65.395	6.0
65.41	5.0
65.425	2.0
65.44	2.0
65.455	3.0
65.47	2.0
65.485	2.0
65.5	4.0
65.515	2.0
65.53	6.0
65.545	3.0
65.56	2.0
65.575	1.0
65.59	1.0
65.605	4.0
65.62	5.0
65.635	1.0
65.65	2.0
65.666	1.0
65.681	6.0
65.696	3.0
65.711	6.0
65.726	7.0
65.741	5.0
65.756	2.0
65.771	6.0
65.786	2.0
65.801	5.0
65.816	2.0
65.831	4.0
65.846	4.0
65.861	3.0
65.876	5.0
65.891	1.0
65.906	5.0
65.921	5.0
65.936	5.0
65.951	3.0
65.966	4.0
65.981	8.0
65.996	1.0
66.011	4.0
66.026	4.0
66.041	7.0
66.056	7.0
66.071	3.0
66.086	7.0
66.101	4.0
66.116	5.0
66.131	8.0
66.146	4.0
66.161	8.0
66.176	9.0
66.191	8.0
66.206	10.0
66.221	4.0
66.236	6.0
66.251	8.0
66.266	3.0
66.281	7.0
66.296	2.0
66.311	4.0
66.327	3.0
66.342	5.0
66.357	3.0
66.372	6.0
66.387	2.0
66.402	0.0
66.417	6.0
66.432	3.0
66.447	4.0
66.462	3.0
66.477	4.0
66.492	2.0
66.507	6.0
66.522	4.0
66.537	5.0
66.552	3.0
66.567	3.0
66.582	10.0
66.597	7.0
66.612	3.0
66.627	6.0
66.642	3.0
66.657	6.0
66.672	8.0
66.687	6.0
66.702	6.0
66.717	8.0
66.732	4.0
66.747	5.0
66.762	3.0
66.777	4.0
66.792	6.0
66.807	2.0
66.822	2.0
66.837	3.0
66.853	0.0
66.868	3.0
66.883	4.0
66.898	7.0
66.913	2.0
66.928	1.0
66.943	6.0
66.958	2.0
66.973	6.0
66.988	3.0
67.003	3.0
67.018	5.0
67.033	6.0
67.048	4.0
67.063	5.0
67.078	5.0
67.093	3.0
67.108	7.0
67.123	10.0
67.138	3.0
67.153	5.0
67.168	1.0
67.183	1.0
67.198	5.0
67.214	2.0
67.229	3.0
67.244	3.0
67.259	7.0
67.274	2.0
67.289	5.0
67.304	2.0
67.319	2.0
67.334	1.0
67.349	5.0
67.364	4.0
67.379	1.0
67.394	1.0
67.409	5.0
67.424	4.0
67.439	4.0
67.454	4.0
67.469	8.0
67.484	2.0
67.5	1.0
67.515	6.0
67.53	8.0
67.545	3.0
67.56	5.0
67.575	4.0
67.59	5.0
67.605	6.0
67.62	3.0
67.635	4.0
67.65	3.0
67.665	7.0
67.68	2.0
67.695	5.0
67.71	4.0
67.726	4.0
67.741	4.0
67.756	3.0
67.771	2.0
67.786	3.0
67.801	1.0
67.816	0.0
67.831	3.0
67.846	6.0
67.861	5.0
67.876	1.0
67.891	4.0
67.906	5.0
67.922	6.0
67.937	5.0
67.952	6.0
67.967	3.0
67.982	10.0
67.997	9.0
68.012	3.0
68.027	4.0
68.042	7.0
68.057	4.0
68.072	4.0
68.087	6.0
68.103	5.0
68.118	4.0
68.133	1.0
68.148	2.0
68.163	1.0
68.178	5.0
68.193	6.0
68.208	1.0
68.223	2.0
68.238	4.0
68.254	4.0
68.269	4.0
68.284	5.0
68.299	3.0
68.314	1.0
68.329	6.0
68.344	3.0
68.359	6.0
68.374	5.0
68.389	4.0
68.405	3.0
68.42	1.0
68.435	4.0
68.45	1.0
68.465	2.0
68.48	1.0
68.495	5.0
68.51	4.0
68.525	5.0
68.54	5.0
68.556	2.0
68.571	4.0
68.586	6.0
68.601	4.0
68.616	4.0
68.631	4.0
68.646	2.0
68.661	3.0
68.676	6.0
68.691	2.0
68.707	1.0
68.722	5.0
68.737	1.0
68.752	5.0
68.767	2.0
68.782	6.0
68.797	4.0
68.812	7.0
68.827	1.0
68.842	2.0
68.857	3.0
68.873	3.0
68.888	1.0
68.903	1.0
68.918	5.0
68.933	4.0
68.948	3.0
68.963	4.0
68.978	4.0
68.993	4.0
69.008	5.0
69.023	3.0
69.038	1.0
69.054	2.0
69.069	4.0
69.084	3.0
69.099	4.0
69.114	3.0
69.129	2.0
69.144	3.0
69.159	4.0
69.174	6.0
69.189	0.0
69.204	4.0
69.219	3.0
69.234	4.0
69.249	3.0
69.264	2.0
69.279	2.0
69.295	1.0
69.31	8.0
69.325	6.0
69.34	1.0
69.355	5.0
69.37	3.0
69.385	2.0
69.4	4.0
69.415	3.0
69.43	6.0
69.445	3.0
69.46	1.0
69.475	2.0
69.49	6.0
69.505	0.0
69.52	3.0
69.535	0.0
69.55	2.0
69.565	3.0
69.58	4.0
69.595	5.0
69.61	4.0
69.625	4.0
69.64	8.0
69.655	6.0
69.67	4.0
69.685	2.0
69.7	10.0
69.715	4.0
69.73	4.0
69.745	7.0
69.76	8.0
69.775	5.0
69.79	7.0
69.805	9.0
69.82	5.0
69.835	6.0
69.85	2.0
69.865	2.0
69.88	8.0
69.895	5.0
69.909	3.0
69.924	1.0
69.939	4.0
69.954	5.0
69.969	6.0
69.984	3.0
69.999	3.0
70.014	4.0
70.029	6.0
70.044	5.0
70.059	2.0
70.074	3.0
70.088	2.0
70.103	5.0
70.118	3.0
70.133	5.0
70.148	4.0
70.163	5.0
70.178	1.0
70.193	6.0
70.208	7.0
70.222	6.0
70.237	4.0
70.252	3.0
70.267	5.0
70.282	7.0
70.297	3.0
70.312	4.0
70.327	5.0
70.341	4.0
70.356	5.0
70.371	3.0
70.386	6.0
70.401	3.0
70.416	5.0
70.43	3.0
70.445	2.0
70.46	4.0
70.475	7.0
70.49	1.0
70.505	4.0
70.519	4.0
70.534	3.0
70.549	3.0
70.564	6.0
70.579	2.0
70.594	3.0
70.608	2.0
70.623	4.0
70.638	5.0
70.653	4.0
70.668	7.0
70.683	10.0
70.697	9.0
70.712	3.0
70.727	5.0
70.742	4.0
70.757	5.0
70.771	10.0
70.786	1.0
70.801	3.0
70.816	7.0
70.831	4.0
70.845	6.0
70.86	5.0
70.875	3.0
70.89	6.0
70.905	5.0
70.92	1.0
70.934	6.0
70.949	0.0
70.964	9.0
70.979	4.0
70.994	11.0
71.008	1.0
71.023	8.0
71.038	2.0
71.053	3.0
71.068	2.0
71.082	8.0
71.097	7.0
71.112	1.0
71.127	4.0
71.142	7.0
71.156	5.0
71.171	3.0
71.186	7.0
71.201	4.0
71.216	2.0
71.231	2.0
71.245	7.0
71.26	3.0
71.275	1.0
71.29	3.0
71.305	2.0
71.319	3.0
71.334	1.0
71.349	4.0
71.364	2.0
71.379	0.0
71.394	3.0
71.408	5.0
71.423	5.0
71.438	3.0
71.453	7.0
71.468	5.0
71.483	6.0
71.497	1.0
71.512	2.0
71.527	4.0
71.542	2.0
71.557	2.0
71.572	6.0
71.586	0.0
71.601	3.0
71.616	3.0
71.631	3.0
71.646	3.0
71.661	3.0
71.676	5.0
71.69	1.0
71.705	1.0
71.72	4.0
71.735	6.0
71.75	6.0
71.765	3.0
71.78	5.0
71.795	1.0
71.81	7.0
71.824	2.0
71.839	1.0
71.854	6.0
71.869	6.0
71.884	0.0
71.899	3.0
71.914	4.0
71.929	5.0
71.944	1.0
71.959	4.0
71.974	7.0
71.988	1.0
72.003	7.0
72.018	1.0
72.033	1.0
72.048	2.0
72.063	3.0
72.078	1.0
72.093	4.0
72.108	1.0
72.123	1.0
72.138	1.0
72.153	5.0
72.168	2.0
72.183	3.0
72.198	4.0
72.213	0.0
72.228	3.0
72.243	2.0
72.258	2.0
72.273	3.0
72.288	0.0
72.303	2.0
72.318	3.0
72.333	4.0
72.348	5.0
72.363	1.0
72.378	2.0
72.393	3.0
72.408	3.0
72.423	4.0
72.438	3.0
72.453	3.0
72.468	3.0
72.483	3.0
72.498	5.0
72.513	6.0
72.528	2.0
72.543	4.0
72.558	4.0
72.573	3.0
72.588	1.0
72.603	4.0
72.618	5.0
72.633	3.0
72.649	5.0
72.664	1.0
72.679	1.0
72.694	7.0
72.709	3.0
72.724	5.0
72.739	4.0
72.754	6.0
72.769	0.0
72.784	8.0
72.799	4.0
72.814	3.0
72.829	3.0
72.845	3.0
72.86	1.0
72.875	7.0
72.89	2.0
72.905	4.0
72.92	4.0
72.935	5.0
72.95	4.0
72.965	4.0
72.98	5.0
72.996	2.0
73.011	6.0
73.026	4.0
73.041	6.0
73.056	4.0
73.071	5.0
73.086	2.0
73.101	3.0
73.117	2.0
73.132	3.0
73.147	0.0
73.162	3.0
73.177	7.0
73.192	7.0
73.207	2.0
73.222	4.0
73.238	7.0
73.253	6.0
73.268	4.0
73.283	2.0
73.298	6.0
73.313	10.0
73.328	6.0
73.343	2.0
73.359	8.0
73.374	3.0
73.389	3.0
73.404	3.0
73.419	5.0
73.434	1.0
73.449	6.0
73.465	3.0
73.48	6.0
73.495	4.0
73.51	5.0
73.525	1.0
73.54	2.0
73.556	2.0
73.571	6.0
73.586	1.0
73.601	1.0
73.616	3.0
73.631	3.0
73.646	3.0
73.662	4.0
73.677	4.0
73.692	3.0
73.707	6.0
73.722	3.0
73.737	2.0
73.752	3.0
73.768	6.0
73.783	1.0
73.798	2.0
73.813	1.0
73.828	4.0
73.843	2.0
73.859	3.0
73.874	4.0
73.889	2.0
73.904	5.0
73.919	4.0
73.934	3.0
73.949	4.0
73.965	1.0
73.98	3.0
73.995	2.0
74.01	1.0
74.025	2.0
74.04	5.0
74.056	5.0
74.071	4.0
74.086	5.0
74.101	2.0
74.116	6.0
74.131	4.0
74.146	3.0
74.162	7.0
74.177	8.0
74.192	2.0
74.207	7.0
74.222	8.0
74.237	3.0
74.252	6.0
74.268	5.0
74.283	4.0
74.298	3.0
74.313	6.0
74.328	4.0
74.343	3.0
74.358	3.0
74.374	1.0
74.389	3.0
74.404	3.0
74.419	4.0
74.434	2.0
74.449	5.0
74.464	1.0
74.48	3.0
74.495	2.0
74.51	7.0
74.525	4.0
74.54	3.0
74.555	4.0
74.57	3.0
74.586	4.0
74.601	4.0
74.616	1.0
74.631	1.0
74.646	4.0
74.661	5.0
74.676	4.0
74.691	2.0
74.707	5.0
74.722	5.0
74.737	3.0
74.752	3.0
74.767	3.0
74.782	5.0
74.797	2.0
74.813	3.0
74.828	6.0
74.843	6.0
74.858	1.0
74.873	1.0
74.888	1.0
74.903	2.0
74.918	5.0
74.934	1.0
74.949	0.0
74.964	5.0
74.979	3.0
74.994	4.0
75.009	1.0
75.024	12.0
75.04	5.0
75.055	7.0
75.07	4.0
75.085	1.0
75.1	7.0
75.115	2.0
75.13	4.0
75.145	3.0
75.161	1.0
75.176	5.0
75.191	6.0
75.206	2.0
75.221	2.0
75.236	0.0
75.251	0.0
75.266	1.0
75.282	8.0
75.297	3.0
75.312	3.0
75.327	4.0
75.342	5.0
75.357	1.0
75.372	6.0
75.387	3.0
75.403	4.0
75.418	6.0
75.433	3.0
75.448	4.0
75.463	3.0
75.478	5.0
75.493	3.0
75.509	1.0
75.524	3.0
75.539	2.0
75.554	5.0
75.569	5.0
75.584	3.0
75.599	4.0
75.614	4.0
75.63	6.0
75.645	4.0
75.66	1.0
75.675	2.0
75.69	2.0
75.705	4.0
75.72	7.0
75.735	5.0
75.751	5.0
75.766	3.0
75.781	3.0
75.796	1.0
75.811	6.0
75.826	7.0
75.841	2.0
75.856	2.0
75.872	3.0
75.887	4.0
75.902	5.0
75.917	3.0
75.932	3.0
75.947	6.0
75.962	4.0
75.977	3.0
75.993	4.0
76.008	1.0
76.023	4.0
76.038	2.0
76.053	3.0
76.068	3.0
76.083	2.0
76.098	3.0
76.114	4.0
76.129	4.0
76.144	2.0
76.159	8.0
76.174	4.0
76.189	2.0
76.204	3.0
76.22	5.0
76.235	5.0
76.25	3.0
76.265	2.0
76.28	8.0
76.295	3.0
76.31	1.0
76.325	6.0
76.341	2.0
76.356	2.0
76.371	2.0
76.386	4.0
76.401	3.0
76.416	6.0
76.431	2.0
76.446	2.0
76.462	0.0
76.477	4.0
76.492	2.0
76.507	3.0
76.522	5.0
76.537	4.0
76.552	5.0
76.567	2.0
76.583	6.0
76.598	2.0
76.613	2.0
76.628	4.0
76.643	2.0
76.658	9.0
76.673	6.0
76.688	5.0
76.704	3.0
76.719	7.0
76.734	5.0
76.749	3.0
76.764	4.0
76.779	3.0
76.794	3.0
76.809	5.0
76.824	5.0
76.84	4.0
76.855	5.0
76.87	2.0
76.885	2.0
76.9	4.0
76.915	5.0
76.93	2.0
76.945	2.0
76.96	1.0
76.976	5.0
76.991	5.0
77.006	3.0
77.021	4.0
77.036	4.0
77.051	3.0
77.066	1.0
77.081	6.0
77.096	2.0
77.112	5.0
77.127	3.0
77.142	1.0
77.157	2.0
77.172	2.0
77.187	5.0
77.202	4.0
77.217	3.0
77.232	1.0
77.247	1.0
77.263	2.0
77.278	8.0
77.293	5.0
77.308	5.0
77.323	3.0
77.338	6.0
77.353	0.0
77.368	2.0
77.383	1.0
77.398	5.0
77.413	5.0
77.428	3.0
77.444	3.0
77.459	6.0
77.474	2.0
77.489	3.0
77.504	2.0
77.519	10.0
77.534	3.0
77.549	4.0
77.564	3.0
77.579	4.0
77.594	3.0
77.609	5.0
77.624	5.0
77.64	6.0
77.655	7.0
77.67	2.0
77.685	8.0
77.7	3.0
77.715	4.0
77.73	1.0
77.745	3.0
77.76	3.0
77.775	1.0
77.79	1.0
77.805	2.0
77.82	6.0
77.835	0.0
77.85	5.0
77.865	1.0
77.88	5.0
77.895	4.0
77.91	1.0
77.926	0.0
77.941	4.0
77.956	1.0
77.971	4.0
77.986	2.0
78.001	4.0
78.016	1.0
78.031	5.0
78.046	1.0
78.061	3.0
78.076	2.0
78.091	5.0
78.106	3.0
78.121	5.0
78.136	6.0
78.151	4.0
78.166	6.0
78.181	6.0
78.196	3.0
78.211	4.0
78.226	6.0
78.241	6.0
78.256	3.0
78.271	7.0
78.286	2.0
78.301	3.0
78.316	1.0
78.331	3.0
78.346	3.0
78.361	4.0
78.376	4.0
78.391	3.0
78.406	4.0
78.421	9.0
78.436	7.0
78.451	1.0
78.466	3.0
78.481	1.0
78.496	2.0
78.511	3.0
78.526	1.0
78.541	5.0
78.556	3.0
78.571	3.0
78.586	1.0
78.601	8.0
78.616	2.0
78.631	0.0
78.646	3.0
78.661	7.0
78.676	5.0
78.691	3.0
78.706	3.0
78.721	0.0
78.736	3.0
78.751	7.0
78.766	2.0
78.781	4.0
78.796	4.0
78.811	2.0
78.826	0.0
78.841	3.0
78.856	5.0
78.871	3.0
78.885	2.0
78.9	3.0
78.915	3.0
78.93	5.0
78.945	2.0
78.96	2.0
78.975	2.0
78.99	3.0
79.005	1.0
79.02	3.0
79.035	4.0
79.05	3.0
79.065	6.0
79.08	1.0
79.095	3.0
79.11	3.0
79.125	3.0
79.14	3.0
79.155	5.0
79.17	3.0
79.185	3.0
79.2	6.0
79.215	5.0
79.23	3.0
79.245	6.0
79.26	5.0
79.275	5.0
79.29	1.0
79.304	3.0
79.319	9.0
79.334	6.0
79.349	6.0
79.364	3.0
79.379	3.0
79.394	9.0
79.409	3.0
79.424	3.0
79.439	3.0
79.454	2.0
79.469	6.0
79.484	4.0
79.499	2.0
79.514	1.0
79.529	3.0
79.544	4.0
79.559	4.0
79.574	3.0
79.589	2.0
79.604	4.0
79.619	1.0
79.634	4.0
79.649	2.0
79.664	2.0
79.679	0.0
79.693	4.0
79.708	1.0
79.723	4.0
79.738	2.0
79.753	2.0
79.768	2.0
79.783	2.0
79.798	5.0
79.813	1.0
79.828	5.0
79.843	2.0
79.858	4.0
79.873	4.0
79.888	4.0
79.903	2.0
79.918	8.0
79.933	1.0
79.948	4.0
79.963	7.0
79.978	4.0
79.993	3.0
80.008	6.0
80.023	1.0
80.038	2.0
80.053	5.0
80.068	3.0
80.083	5.0
80.098	4.0
80.113	2.0
80.128	1.0
80.143	1.0
80.158	1.0
80.173	5.0
80.188	9.0
80.202	4.0
80.217	4.0
80.232	6.0
80.247	5.0
80.262	5.0
80.277	2.0
80.292	1.0
80.307	2.0
80.322	5.0
80.337	2.0
80.352	5.0
80.367	6.0
80.382	2.0
80.397	2.0
80.412	2.0
80.427	6.0
80.442	0.0
80.457	1.0
80.472	0.0
80.487	3.0
80.502	2.0
80.517	2.0
80.532	5.0
80.547	3.0
80.562	2.0
80.577	0.0
80.592	6.0
80.607	2.0
80.622	5.0
80.637	6.0
80.652	3.0
80.667	2.0
80.682	8.0
80.697	5.0
80.712	2.0
80.727	2.0
80.742	6.0
80.757	2.0
80.772	1.0
80.787	3.0
80.802	4.0
80.817	4.0
80.832	3.0
80.847	2.0
80.862	1.0
80.877	1.0
80.892	2.0
80.907	3.0
80.922	4.0
80.937	3.0
80.952	2.0
80.967	6.0
80.982	1.0
80.997	2.0
81.012	4.0
81.027	5.0
81.042	7.0
81.057	5.0
81.072	3.0
81.087	5.0
81.101	2.0
81.116	1.0
81.131	1.0
81.146	3.0
81.161	2.0
81.176	4.0
81.191	1.0
81.206	3.0
81.221	6.0
81.236	1.0
81.251	3.0
81.266	3.0
81.281	1.0
81.296	1.0
81.311	2.0
81.326	3.0
81.341	1.0
81.356	5.0
81.371	3.0
81.386	2.0
81.401	3.0
81.416	2.0
81.431	2.0
81.446	2.0
81.461	5.0
81.476	5.0
81.491	2.0
81.506	1.0
81.521	1.0
81.536	5.0
81.55	3.0
81.565	3.0
81.58	2.0
81.595	3.0
81.61	4.0
81.625	8.0
81.64	5.0
81.655	4.0
81.67	2.0
81.685	3.0
81.7	3.0
81.715	1.0
81.73	2.0
81.745	4.0
81.76	7.0
81.775	1.0
81.79	3.0
81.805	1.0
81.819	7.0
81.834	4.0
81.849	2.0
81.864	11.0
81.879	2.0
81.894	4.0
81.909	4.0
81.924	6.0
81.939	4.0
81.954	2.0
81.969	2.0
81.984	3.0
81.999	3.0
82.013	0.0
82.028	1.0
82.043	3.0
82.058	4.0
82.073	6.0
82.088	0.0
82.103	3.0
82.118	4.0
82.133	3.0
82.148	4.0
82.163	1.0
82.177	2.0
82.192	2.0
82.207	4.0
82.222	2.0
82.237	2.0
82.252	1.0
82.267	1.0
82.282	4.0
82.297	4.0
82.312	2.0
82.326	5.0
82.341	2.0
82.356	3.0
82.371	4.0
82.386	4.0
82.401	2.0
82.416	1.0
82.431	2.0
82.445	3.0
82.46	4.0
82.475	6.0
82.49	2.0
82.505	2.0
82.52	5.0
82.535	1.0
82.55	1.0
82.565	5.0
82.579	4.0
82.594	8.0
82.609	3.0
82.624	3.0
82.639	2.0
82.654	1.0
82.669	5.0
82.684	6.0
82.698	2.0
82.713	4.0
82.728	0.0
82.743	1.0
82.758	3.0
82.773	1.0
82.788	2.0
82.803	4.0
82.817	2.0
82.832	4.0
82.847	1.0
82.862	3.0
82.877	3.0
82.892	2.0
82.907	3.0
82.922	3.0
82.937	7.0
82.951	1.0
82.966	1.0
82.981	2.0
82.996	2.0
83.011	3.0
83.026	2.0
83.041	2.0
83.056	3.0
83.07	1.0
83.085	0.0
83.1	2.0
83.115	3.0
83.13	2.0
83.145	4.0
83.16	3.0
83.175	4.0
83.19	2.0
83.204	4.0
83.219	2.0
83.234	6.0
83.249	2.0
83.264	1.0
83.279	0.0
83.294	1.0
83.309	4.0
83.324	3.0
83.339	4.0
83.353	2.0
83.368	5.0
83.383	1.0
83.398	5.0
83.413	4.0
83.428	4.0
83.443	2.0
83.458	2.0
83.473	0.0
83.488	3.0
83.503	3.0
83.517	8.0
83.532	0.0
83.547	2.0
83.562	2.0
83.577	2.0
83.592	2.0
83.607	3.0
83.622	2.0
83.637	3.0
83.652	3.0
83.667	7.0
83.682	3.0
83.697	3.0
83.712	3.0
83.727	0.0
83.741	2.0
83.756	0.0
83.771	5.0
83.786	4.0
83.801	3.0
83.816	2.0
83.831	6.0
83.846	3.0
83.861	2.0
83.876	4.0
83.891	3.0
83.906	2.0
83.921	5.0
83.936	2.0
83.951	2.0
83.966	3.0
83.981	2.0
83.996	5.0
84.011	3.0
84.026	3.0
84.041	3.0
84.056	4.0
84.071	3.0
84.086	0.0
84.101	6.0
84.116	4.0
84.131	2.0
84.146	1.0
84.161	5.0
84.176	5.0
84.191	4.0
84.206	3.0
84.221	4.0
84.236	1.0
84.251	3.0
84.266	3.0
84.281	4.0
84.296	3.0
84.311	2.0
84.326	2.0
84.341	2.0
84.356	6.0
84.371	3.0
84.386	5.0
84.401	1.0
84.416	5.0
84.431	2.0
84.446	5.0
84.461	6.0
84.476	2.0
84.492	3.0
84.507	1.0
84.522	1.0
84.537	4.0
84.552	2.0
84.567	6.0
84.582	1.0
84.597	4.0
84.612	1.0
84.627	4.0
84.642	3.0
84.657	2.0
84.672	2.0
84.687	1.0
84.702	2.0
84.717	3.0
84.733	5.0
84.748	2.0
84.763	5.0
84.778	5.0
84.793	5.0
84.808	0.0
84.823	0.0
84.838	4.0
84.853	2.0
84.868	7.0
84.883	1.0
84.898	3.0
84.913	9.0
84.929	5.0
84.944	3.0
84.959	5.0
84.974	5.0
84.989	5.0
85.004	2.0
85.019	3.0
85.034	3.0
85.049	1.0
85.064	2.0
85.079	2.0
85.094	1.0
85.11	4.0
85.125	1.0
85.14	2.0
85.155	1.0
85.17	4.0
85.185	9.0
85.2	3.0
85.215	4.0
85.23	5.0
85.245	6.0
85.26	0.0
85.276	4.0
85.291	5.0
85.306	3.0
85.321	4.0
85.336	5.0
85.351	2.0
85.366	2.0
85.381	5.0
85.396	4.0
85.411	2.0
85.426	3.0
85.441	1.0
85.457	0.0
85.472	2.0
85.487	4.0
85.502	3.0
85.517	4.0
85.532	3.0
85.547	1.0
85.562	1.0
85.577	5.0
85.592	5.0
85.607	2.0
85.622	2.0
85.637	3.0
85.653	1.0
85.668	3.0
85.683	1.0
85.698	6.0
85.713	3.0
85.728	1.0
85.743	3.0
85.758	2.0
85.773	3.0
85.788	3.0
85.803	2.0
85.818	3.0
85.833	2.0
85.848	1.0
85.863	2.0
85.879	2.0
85.894	1.0
85.909	7.0
85.924	0.0
85.939	4.0
85.954	4.0
85.969	4.0
85.984	2.0
85.999	2.0
86.014	2.0
86.029	2.0
86.044	2.0
86.059	5.0
86.074	3.0
86.089	2.0
86.104	4.0
86.119	1.0
86.134	4.0
86.149	7.0
86.164	3.0
86.179	2.0
86.194	4.0
86.209	2.0
86.224	3.0
86.239	3.0
86.254	3.0
86.269	2.0
86.284	3.0
86.299	1.0
86.314	4.0
86.33	1.0
86.345	1.0
86.36	0.0
86.375	4.0
86.39	3.0
86.405	4.0
86.42	4.0
86.435	2.0
86.45	2.0
86.465	5.0
86.48	4.0
86.495	7.0
86.51	2.0
86.525	2.0
86.54	2.0
86.555	3.0
86.57	2.0
86.585	1.0
86.6	1.0
86.615	3.0
86.63	3.0
86.645	1.0
86.659	3.0
86.674	2.0
86.689	2.0
86.704	4.0
86.719	6.0
86.734	5.0
86.749	5.0
86.764	4.0
86.779	3.0
86.794	5.0
86.809	3.0
86.824	4.0
86.839	3.0
86.854	5.0
86.869	2.0
86.884	4.0
86.899	4.0
86.914	7.0
86.929	8.0
86.944	7.0
86.959	2.0
86.974	8.0
86.989	2.0
87.004	5.0
87.019	3.0
87.034	2.0
87.049	2.0
87.064	7.0
87.079	4.0
87.094	7.0
87.109	5.0
87.124	2.0
87.139	4.0
87.154	3.0
87.169	6.0
87.184	1.0
87.199	3.0
87.214	4.0
87.229	3.0
87.244	1.0
87.259	1.0
87.274	3.0
87.289	2.0
87.304	3.0
87.319	2.0
87.334	4.0
87.349	2.0
87.364	4.0
87.379	4.0
87.394	8.0
87.409	5.0
87.424	1.0
87.438	6.0
87.453	4.0
87.468	4.0
87.483	6.0
87.498	2.0
87.513	2.0
87.528	2.0
87.543	2.0
87.558	3.0
87.573	4.0
87.588	4.0
87.603	7.0
87.618	2.0
87.633	8.0
87.648	6.0
87.663	4.0
87.678	3.0
87.693	7.0
87.708	3.0
87.723	4.0
87.738	3.0
87.753	1.0
87.768	1.0
87.783	6.0
87.798	1.0
87.813	3.0
87.828	4.0
87.843	7.0
87.858	2.0
87.873	5.0
87.888	1.0
87.903	3.0
87.918	3.0
87.933	3.0
87.948	2.0
87.963	4.0
87.978	3.0
87.993	2.0
88.008	3.0
88.023	5.0
88.038	4.0
88.053	2.0
88.068	1.0
88.083	5.0
88.098	1.0
88.113	1.0
88.128	0.0
88.143	1.0
88.158	1.0
88.174	6.0
88.189	1.0
88.204	5.0
88.219	3.0
88.234	3.0
88.249	1.0
88.264	3.0
88.279	4.0
88.294	3.0
88.309	8.0
88.324	6.0
88.339	2.0
88.354	2.0
88.369	2.0
88.384	1.0
88.399	6.0
88.414	6.0
88.429	1.0
88.444	6.0
88.459	2.0
88.474	6.0
88.489	2.0
88.504	4.0
88.519	3.0
88.534	3.0
88.549	0.0
88.564	3.0
88.58	3.0
88.595	4.0
88.61	5.0
88.625	2.0
88.64	1.0
88.655	1.0
88.67	4.0
88.685	1.0
88.7	3.0
88.715	2.0
88.73	7.0
88.745	3.0
88.76	3.0
88.775	2.0
88.79	3.0
88.805	4.0
88.82	2.0
88.835	0.0
88.85	2.0
88.865	3.0
88.88	6.0
88.895	3.0
88.911	5.0
88.926	4.0
88.941	2.0
88.956	1.0
88.971	3.0
88.986	3.0
89.001	3.0
89.016	4.0
89.031	5.0
89.046	4.0
89.061	3.0
89.076	0.0
89.091	0.0
89.106	2.0
89.121	1.0
89.136	4.0
89.151	3.0
89.166	4.0
89.181	3.0
89.196	1.0
89.211	1.0
89.227	2.0
89.242	3.0
89.257	5.0
89.272	0.0
89.287	2.0
89.302	4.0
89.317	2.0
89.332	3.0
89.347	2.0
89.362	2.0
89.377	4.0
89.392	3.0
89.407	3.0
89.422	3.0
89.437	3.0
89.452	7.0
89.467	6.0
89.482	2.0
89.497	5.0
89.512	3.0
89.527	2.0
89.542	3.0
89.557	2.0
89.572	3.0
89.587	4.0
89.602	1.0
89.617	1.0
89.632	2.0
89.647	3.0
89.662	0.0
89.677	5.0
89.693	4.0
89.708	6.0
89.723	1.0
89.738	0.0
89.753	3.0
89.768	4.0
89.783	5.0
89.798	4.0
89.813	2.0
89.828	3.0
89.843	2.0
89.858	1.0
89.873	0.0
89.888	1.0
89.903	0.0
89.918	5.0
89.933	4.0
89.948	1.0
89.963	3.0
89.978	3.0
89.993	4.0
90.008	6.0
90.023	4.0
90.038	4.0
90.053	1.0
90.068	3.0
90.083	5.0
90.097	3.0
90.112	2.0
90.127	2.0
90.142	6.0
90.157	2.0
90.172	4.0
90.187	7.0
90.202	6.0
90.217	5.0
90.232	4.0
90.247	1.0
90.262	6.0
90.277	9.0
90.292	4.0
90.307	5.0
90.322	7.0
90.337	3.0
90.352	2.0
90.367	3.0
90.382	2.0
90.397	5.0
90.412	5.0
90.427	8.0
90.442	1.0
90.457	1.0
90.472	4.0
90.487	1.0
90.501	4.0
90.516	4.0
90.531	6.0
90.546	4.0
90.561	3.0
90.576	2.0
90.591	2.0
90.606	2.0
90.621	6.0
90.636	6.0
90.651	2.0
90.666	4.0
90.681	5.0
90.696	3.0
90.711	2.0
90.726	2.0
90.741	3.0
90.755	5.0
90.77	4.0
90.785	3.0
90.8	4.0
90.815	2.0
90.83	5.0
90.845	3.0
90.86	2.0
90.875	2.0
90.89	4.0
90.905	6.0
90.92	4.0
90.935	6.0
90.95	1.0
90.965	7.0
90.979	4.0
90.994	2.0
91.009	3.0
91.024	5.0
91.039	3.0
91.054	2.0
91.069	4.0
91.084	2.0
91.099	6.0
91.114	3.0
91.129	5.0
91.144	2.0
91.159	1.0
91.174	4.0
91.188	4.0
91.203	6.0
91.218	4.0
91.233	3.0
91.248	7.0
91.263	4.0
91.278	1.0
91.293	5.0
91.308	3.0
91.323	2.0
91.338	4.0
91.353	5.0
91.368	0.0
91.383	2.0
91.398	3.0
91.412	5.0
91.427	2.0
91.442	3.0
91.457	3.0
91.472	2.0
91.487	0.0
91.502	1.0
91.517	4.0
91.532	8.0
91.547	2.0
91.562	3.0
91.577	2.0
91.592	4.0
91.607	8.0
91.622	4.0
91.637	5.0
91.652	5.0
91.666	1.0
91.681	2.0
91.696	3.0
91.711	2.0
91.726	4.0
91.741	0.0
91.756	4.0
91.771	3.0
91.786	4.0
91.801	0.0
91.816	6.0
91.831	6.0
91.846	0.0
91.861	5.0
91.876	5.0
91.891	0.0
91.906	5.0
91.921	3.0
91.936	1.0
91.951	5.0
91.966	6.0
91.981	4.0
91.995	3.0
92.01	3.0
92.025	5.0
92.04	2.0
92.055	3.0
92.07	3.0
92.085	1.0
92.1	1.0
92.115	1.0
92.13	3.0
92.145	2.0
92.16	1.0
92.175	4.0
92.19	2.0
92.205	2.0
92.22	2.0
92.235	3.0
92.25	4.0
92.265	3.0
92.28	1.0
92.295	5.0
92.31	4.0
92.325	1.0
92.34	1.0
92.355	4.0
92.37	10.0
92.385	3.0
92.4	2.0
92.415	4.0
92.43	2.0
92.445	3.0
92.46	1.0
92.475	3.0
92.49	2.0
92.505	6.0
92.52	2.0
92.535	3.0
92.55	3.0
92.565	5.0
92.58	1.0
92.595	2.0
92.61	5.0
92.625	6.0
92.64	6.0
92.655	2.0
92.67	4.0
92.685	1.0
92.7	3.0
92.715	3.0
92.73	1.0
92.745	4.0
92.76	4.0
92.775	6.0
92.79	3.0
92.805	3.0
92.82	2.0
92.835	4.0
92.85	1.0
92.865	5.0
92.88	0.0
92.895	5.0
92.91	1.0
92.925	4.0
92.94	3.0
92.955	3.0
92.97	2.0
92.985	2.0
93.0	2.0
93.015	3.0
93.03	1.0
93.045	1.0
93.06	6.0
93.075	3.0
93.09	3.0
93.105	2.0
93.12	1.0
93.135	0.0
93.15	2.0
93.165	5.0
93.18	4.0
93.195	2.0
93.21	1.0
93.225	3.0
93.24	2.0
93.255	1.0
93.27	7.0
93.285	3.0
93.3	4.0
93.315	4.0
93.33	7.0
93.345	5.0
93.36	6.0
93.375	2.0
93.39	2.0
93.405	2.0
93.42	2.0
93.435	4.0
93.45	6.0
93.465	4.0
93.48	8.0
93.495	4.0
93.51	5.0
93.525	0.0
93.54	2.0
93.555	0.0
93.57	3.0
93.585	4.0
93.6	4.0
93.615	5.0
93.63	2.0
93.645	4.0
93.66	5.0
93.675	8.0
93.69	4.0
93.705	5.0
93.72	1.0
93.735	5.0
93.75	3.0
93.765	1.0
93.78	4.0
93.795	2.0
93.81	4.0
93.824	0.0
93.839	4.0
93.854	6.0
93.869	3.0
93.884	7.0
93.899	3.0
93.914	2.0
93.929	3.0
93.944	3.0
93.959	2.0
93.974	5.0
93.989	0.0
94.004	2.0
94.019	2.0
94.034	2.0
94.049	3.0
94.064	1.0
94.079	3.0
94.094	7.0
94.108	2.0
94.123	2.0
94.138	4.0
94.153	4.0
94.168	4.0
94.183	3.0
94.198	4.0
94.213	5.0
94.228	4.0
94.243	7.0
94.258	3.0
94.273	2.0
94.288	2.0
94.302	3.0
94.317	4.0
94.332	8.0
94.347	9.0
94.362	3.0
94.377	7.0
94.392	4.0
94.407	5.0
94.422	5.0
94.437	7.0
94.452	3.0
94.466	10.0
94.481	6.0
94.496	3.0
94.511	7.0
94.526	3.0
94.541	6.0
94.556	4.0
94.571	5.0
94.586	6.0
94.601	4.0
94.615	3.0
94.63	3.0
94.645	6.0
94.66	3.0
94.675	2.0
94.69	1.0
94.705	4.0
94.72	3.0
94.735	1.0
94.749	1.0
94.764	3.0
94.779	4.0
94.794	6.0
94.809	3.0
94.824	4.0
94.839	4.0
94.854	3.0
94.868	1.0
94.883	2.0
94.898	5.0
94.913	4.0
94.928	5.0
94.943	3.0
94.958	3.0
94.973	2.0
94.987	1.0
95.002	4.0
95.017	4.0
95.032	2.0
95.047	7.0
95.062	3.0
95.077	6.0
95.092	4.0
95.106	5.0
95.121	7.0
95.136	2.0
95.151	0.0
95.166	4.0
95.181	3.0
95.196	6.0
95.211	0.0
95.226	5.0
95.24	1.0
95.255	8.0
95.27	4.0
95.285	2.0
95.3	4.0
95.315	6.0
95.33	1.0
95.345	3.0
95.359	4.0
95.374	8.0
95.389	3.0
95.404	5.0
95.419	1.0
95.434	2.0
95.449	2.0
95.464	6.0
95.478	1.0
95.493	2.0
95.508	1.0
95.523	1.0
95.538	4.0
95.553	3.0
95.568	3.0
95.583	4.0
95.597	3.0
95.612	1.0
95.627	4.0
95.642	5.0
95.657	0.0
95.672	4.0
95.687	3.0
95.702	5.0
95.717	6.0
95.731	4.0
95.746	1.0
95.761	3.0
95.776	2.0
95.791	1.0
95.806	2.0
95.821	2.0
95.836	0.0
95.851	2.0
95.866	4.0
95.88	2.0
95.895	4.0
95.91	4.0
95.925	3.0
95.94	6.0
95.955	4.0
95.97	1.0
95.985	5.0
96.0	4.0
96.015	3.0
96.029	2.0
96.044	2.0
96.059	5.0
96.074	4.0
96.089	5.0
96.104	9.0
96.119	0.0
96.134	4.0
96.149	4.0
96.164	6.0
96.179	3.0
96.194	7.0
96.208	3.0
96.223	3.0
96.238	0.0
96.253	2.0
96.268	1.0
96.283	2.0
96.298	4.0
96.313	3.0
96.328	5.0
96.343	4.0
96.358	1.0
96.373	2.0
96.388	3.0
96.403	3.0
96.417	2.0
96.432	2.0
96.447	2.0
96.462	1.0
96.477	3.0
96.492	4.0
96.507	3.0
96.522	3.0
96.537	4.0
96.552	1.0
96.567	4.0
96.582	5.0
96.597	9.0
96.612	3.0
96.627	5.0
96.642	4.0
96.656	1.0
96.671	2.0
96.686	3.0
96.701	4.0
96.716	6.0
96.731	1.0
96.746	2.0
96.761	3.0
96.776	7.0
96.791	3.0
96.806	6.0
96.821	7.0
96.836	4.0
96.851	3.0
96.866	2.0
96.881	2.0
96.896	3.0
96.911	7.0
96.926	9.0
96.94	1.0
96.955	2.0
96.97	5.0
96.985	1.0
97.0	2.0
97.015	0.0
97.03	2.0
97.045	0.0
97.06	1.0
97.075	2.0
97.09	6.0
97.105	2.0
97.12	3.0
97.135	5.0
97.15	6.0
97.165	5.0
97.18	2.0
97.195	9.0
97.21	3.0
97.225	2.0
97.239	4.0
97.254	3.0
97.269	0.0
97.284	5.0
97.299	6.0
97.314	3.0
97.329	1.0
97.344	2.0
97.359	2.0
97.374	2.0
97.389	0.0
97.404	5.0
97.419	1.0
97.434	6.0
97.449	4.0
97.464	5.0
97.479	1.0
97.494	1.0
97.509	5.0
97.524	2.0
97.538	0.0
97.553	5.0
97.568	4.0
97.583	3.0
97.598	6.0
97.613	3.0
97.628	2.0
97.643	3.0
97.658	4.0
97.673	1.0
97.688	9.0
97.703	6.0
97.718	2.0
97.733	5.0
97.748	4.0
97.763	7.0
97.778	5.0
97.792	6.0
97.807	4.0
97.822	7.0
97.837	8.0
97.852	3.0
97.867	0.0
97.882	3.0
97.897	3.0
97.912	1.0
97.927	6.0
97.942	6.0
97.957	4.0
97.972	7.0
97.987	5.0
98.001	4.0
98.016	0.0
98.031	4.0
98.046	2.0
98.061	3.0
98.076	4.0
98.091	2.0
98.106	3.0
98.121	4.0
98.136	1.0
98.151	6.0
98.166	4.0
98.181	2.0
98.195	3.0
98.21	3.0
98.225	1.0
98.24	2.0
98.255	6.0
98.27	1.0
98.285	3.0
98.3	2.0
98.315	8.0
98.33	3.0
98.345	4.0
98.359	4.0
98.374	2.0
98.389	0.0
98.404	3.0
98.419	3.0
98.434	6.0
98.449	4.0
98.464	3.0
98.479	2.0
98.494	5.0
98.508	4.0
98.523	1.0
98.538	4.0
98.553	2.0
98.568	3.0
98.583	4.0
98.598	2.0
98.613	1.0
98.628	2.0
98.642	4.0
98.657	5.0
98.672	3.0
98.687	2.0
98.702	1.0
98.717	3.0
98.732	5.0
98.747	6.0
98.762	0.0
98.776	1.0
98.791	3.0
98.806	2.0
98.821	6.0
98.836	3.0
98.851	2.0
98.866	2.0
98.881	2.0
98.896	1.0
98.91	3.0
98.925	2.0
98.94	5.0
98.955	1.0
98.97	4.0
98.985	6.0
99.0	4.0
99.015	5.0
99.029	4.0
99.044	2.0
99.059	2.0
99.074	5.0
99.089	7.0
99.104	7.0
99.119	2.0
99.133	5.0
99.148	5.0
99.163	4.0
99.178	0.0
99.193	3.0
99.208	3.0
99.223	2.0
99.238	5.0
99.252	0.0
99.267	3.0
99.282	5.0
99.297	2.0
99.312	3.0
99.327	1.0
99.342	2.0
99.356	5.0
99.371	3.0
99.386	8.0
99.401	7.0
99.416	3.0
99.431	1.0
99.446	6.0
99.461	1.0
99.475	7.0
99.49	2.0
99.505	1.0
99.52	5.0
99.535	3.0
99.55	3.0
99.565	2.0
99.579	5.0
99.594	6.0
99.609	1.0
99.624	3.0
99.639	0.0
99.654	6.0
99.669	2.0
99.683	3.0
99.698	1.0
99.713	6.0
99.728	1.0
99.743	1.0
99.758	3.0
99.772	5.0
99.787	2.0
99.802	5.0
99.817	4.0
99.832	1.0
99.847	1.0
99.862	4.0
99.876	5.0
99.891	2.0
99.906	2.0
99.921	3.0
99.936	4.0
99.951	0.0
99.966	2.0
99.98	6.0
99.995	1.0
100.01	0.0
100.025	1.0
100.04	2.0
100.055	0.0
100.069	1.0
100.084	8.0
100.099	1.0
100.114	3.0
100.129	4.0
100.144	1.0
100.159	5.0
100.173	4.0
100.188	7.0
100.203	6.0
100.218	4.0
100.233	1.0
100.248	7.0
100.262	9.0
100.277	5.0
100.292	4.0
100.307	2.0
100.322	3.0
100.337	4.0
100.351	3.0
100.366	7.0
100.381	1.0
100.396	1.0
100.411	5.0
100.426	3.0
100.441	3.0
100.455	6.0
100.47	2.0
100.485	2.0
100.5	2.0
100.515	4.0
100.53	5.0
100.544	1.0
100.559	2.0
100.574	2.0
100.589	2.0
100.604	2.0
100.619	6.0
100.633	2.0
100.648	5.0
100.663	1.0
100.678	3.0
100.693	3.0
100.708	3.0
100.722	5.0
100.737	5.0
100.752	3.0
100.767	3.0
100.782	2.0
100.796	2.0
100.811	3.0
100.826	2.0
100.841	4.0
100.856	0.0
100.871	3.0
100.885	6.0
100.9	3.0
100.915	9.0
100.93	3.0
100.945	4.0
100.96	1.0
100.974	3.0
100.989	6.0
101.004	2.0
101.019	4.0
101.034	6.0
101.048	1.0
101.063	3.0
101.078	3.0
101.093	0.0
101.108	2.0
101.123	3.0
101.137	1.0
101.152	7.0
101.167	3.0
101.182	2.0
101.197	6.0
101.211	2.0
101.226	2.0
101.241	1.0
101.256	3.0
101.271	5.0
101.285	3.0
101.3	1.0
101.315	2.0
101.33	2.0
101.345	3.0
101.359	7.0
101.374	0.0
101.389	1.0
101.404	5.0
101.419	4.0
101.433	0.0
101.448	3.0
101.463	3.0
101.478	3.0
101.493	3.0
101.507	0.0
101.522	3.0
101.537	4.0
101.552	3.0
101.567	5.0
101.581	2.0
101.596	4.0
101.611	5.0
101.626	2.0
101.64	6.0
101.655	3.0
101.67	7.0
101.685	4.0
101.7	3.0
101.714	3.0
101.729	2.0
101.744	3.0
101.759	3.0
101.773	6.0
101.788	2.0
101.803	0.0
101.818	2.0
101.833	1.0
101.847	4.0
101.862	2.0
101.877	2.0
101.892	3.0
101.906	1.0
101.921	10.0
101.936	0.0
101.951	6.0
101.965	6.0
101.98	6.0
101.995	3.0
102.01	2.0
102.025	7.0
102.039	3.0
102.054	1.0
102.069	5.0
102.084	4.0
102.098	2.0
102.113	0.0
102.128	4.0
102.143	6.0
102.157	1.0
102.172	3.0
102.187	3.0
102.202	3.0
102.216	3.0
102.231	5.0
102.246	3.0
102.261	1.0
102.275	3.0
102.29	2.0
102.305	4.0
102.32	5.0
102.334	2.0
102.349	3.0
102.364	3.0
102.378	7.0
102.393	2.0
102.408	3.0
102.423	4.0
102.437	1.0
102.452	3.0
102.467	3.0
102.482	0.0
102.496	3.0
102.511	3.0
102.526	5.0
102.541	2.0
102.555	4.0
102.57	2.0
102.585	4.0
102.6	5.0
102.614	4.0
102.629	6.0
102.644	2.0
102.659	2.0
102.673	0.0
102.688	3.0
102.703	5.0
102.717	3.0
102.732	5.0
102.747	1.0
102.762	6.0
102.776	0.0
102.791	0.0
102.806	2.0
102.821	4.0
102.835	2.0
102.85	1.0
102.865	5.0
102.88	3.0
102.894	5.0
102.909	3.0
102.924	4.0
102.938	3.0
102.953	8.0
102.968	4.0
102.983	2.0
102.997	4.0
103.012	6.0
103.027	3.0
103.042	5.0
103.056	7.0
103.071	7.0
103.086	2.0
103.101	6.0
103.115	2.0
103.13	0.0
103.145	6.0
103.16	3.0
103.174	4.0
103.189	4.0
103.204	0.0
103.219	4.0
103.233	2.0
103.248	4.0
103.263	0.0
103.278	7.0
103.292	6.0
103.307	2.0
103.322	4.0
103.337	3.0
103.351	6.0
103.366	5.0
103.381	3.0
103.396	3.0
103.41	5.0
103.425	5.0
103.44	4.0
103.455	4.0
103.469	1.0
103.484	4.0
103.499	5.0
103.514	3.0
103.529	5.0
103.543	4.0
103.558	2.0
103.573	1.0
103.588	1.0
103.602	1.0
103.617	6.0
103.632	0.0
103.647	7.0
103.661	2.0
103.676	3.0
103.691	3.0
103.706	5.0
103.721	3.0
103.735	8.0
103.75	3.0
103.765	7.0
103.78	4.0
103.795	3.0
103.809	5.0
103.824	5.0
103.839	5.0
103.854	2.0
103.869	7.0
103.883	7.0
103.898	3.0
103.913	1.0
103.928	1.0
103.943	5.0
103.957	2.0
103.972	3.0
103.987	5.0
104.002	3.0
104.017	6.0
104.031	4.0
104.046	3.0
104.061	2.0
104.076	3.0
104.091	1.0
104.106	4.0
104.12	3.0
104.135	6.0
104.15	1.0
104.165	8.0
104.18	0.0
104.195	4.0
104.209	2.0
104.224	4.0
104.239	2.0
104.254	2.0
104.269	1.0
104.284	1.0
104.299	2.0
104.313	4.0
104.328	5.0
104.343	3.0
104.358	1.0
104.373	4.0
104.388	4.0
104.403	3.0
104.417	7.0
104.432	3.0
104.447	8.0
104.462	2.0
104.477	3.0
104.492	5.0
104.507	3.0
104.522	3.0
104.536	2.0
104.551	2.0
104.566	1.0
104.581	5.0
104.596	4.0
104.611	5.0
104.626	5.0
104.641	7.0
104.656	5.0
104.67	2.0
104.685	5.0
104.7	3.0
104.715	5.0
104.73	7.0
104.745	2.0
104.76	6.0
104.775	4.0
104.79	4.0
104.804	3.0
104.819	4.0
104.834	6.0
104.849	2.0
104.864	4.0
104.879	3.0
104.894	5.0
104.909	2.0
104.924	3.0
104.939	3.0
104.954	6.0
104.968	5.0
104.983	6.0
104.998	4.0
105.013	5.0
105.028	3.0
105.043	0.0
105.058	3.0
105.073	2.0
105.088	2.0
105.103	4.0
105.118	1.0
105.133	1.0
105.147	2.0
105.162	3.0
105.177	2.0
105.192	2.0
105.207	2.0
105.222	0.0
105.237	1.0
105.252	3.0
105.267	1.0
105.282	5.0
105.297	7.0
105.312	2.0
105.327	6.0
105.342	4.0
105.356	2.0
105.371	1.0
105.386	4.0
105.401	3.0
105.416	5.0
105.431	5.0
105.446	6.0
105.461	3.0
105.476	2.0
105.491	3.0
105.506	5.0
105.521	1.0
105.536	3.0
105.551	1.0
105.566	2.0
105.581	5.0
105.595	3.0
105.61	1.0
105.625	2.0
105.64	5.0
105.655	3.0
105.67	2.0
105.685	3.0
105.7	1.0
105.715	5.0
105.73	2.0
105.745	5.0
105.76	5.0
105.775	3.0
105.79	2.0
105.805	4.0
105.82	3.0
105.835	3.0
105.85	2.0
105.864	5.0
105.879	1.0
105.894	2.0
105.909	3.0
105.924	3.0
105.939	7.0
105.954	3.0
105.969	3.0
105.984	4.0
105.999	3.0
106.014	5.0
106.029	3.0
106.044	0.0
106.059	2.0
106.074	1.0
106.089	3.0
106.104	5.0
106.119	5.0
106.134	4.0
106.148	4.0
106.163	3.0
106.178	3.0
106.193	3.0
106.208	3.0
106.223	4.0
106.238	3.0
106.253	0.0
106.268	0.0
106.283	3.0
106.298	1.0
106.313	3.0
106.328	2.0
106.343	5.0
106.358	3.0
106.373	7.0
106.388	6.0
106.403	4.0
106.418	4.0
106.432	2.0
106.447	3.0
106.462	4.0
106.477	2.0
106.492	1.0
106.507	3.0
106.522	3.0
106.537	4.0
106.552	2.0
106.567	1.0
106.582	2.0
106.597	1.0
106.612	0.0
106.627	6.0
106.642	2.0
106.657	4.0
106.672	3.0
106.687	6.0
106.701	1.0
106.716	8.0
106.731	6.0
106.746	3.0
106.761	3.0
106.776	4.0
106.791	6.0
106.806	2.0
106.821	2.0
106.836	4.0
106.851	2.0
106.866	0.0
106.881	2.0
106.896	5.0
106.911	1.0
106.926	5.0
106.941	1.0
106.955	4.0
106.97	1.0
106.985	2.0
107.0	1.0
107.015	1.0
107.03	4.0
107.045	6.0
107.06	5.0
107.075	1.0
107.09	4.0
107.105	2.0
107.12	7.0
107.135	3.0
107.15	2.0
107.165	4.0
107.18	2.0
107.194	4.0
107.209	6.0
107.224	7.0
107.239	9.0
107.254	3.0
107.269	5.0
107.284	4.0
107.299	3.0
107.314	4.0
107.329	2.0
107.344	4.0
107.359	2.0
107.374	3.0
107.389	0.0
107.404	2.0
107.418	4.0
107.433	2.0
107.448	1.0
107.463	3.0
107.478	5.0
107.493	1.0
107.508	2.0
107.523	2.0
107.538	7.0
107.553	1.0
107.568	3.0
107.583	5.0
107.598	7.0
107.613	2.0
107.627	4.0
107.642	2.0
107.657	3.0
107.672	1.0
107.687	2.0
107.702	2.0
107.717	4.0
107.732	5.0
107.747	1.0
107.762	2.0
107.777	4.0
107.792	3.0
107.807	0.0
107.821	6.0
107.836	3.0
107.851	4.0
107.866	2.0
107.881	3.0
107.896	4.0
107.911	4.0
107.926	5.0
107.941	4.0
107.956	4.0
107.971	5.0
107.986	1.0
108.0	4.0
108.015	3.0
108.03	6.0
108.045	3.0
108.06	5.0
108.075	5.0
108.09	2.0
108.105	6.0
108.12	3.0
108.135	7.0
108.15	4.0
108.164	2.0
108.179	9.0
108.194	4.0
108.209	5.0
108.224	2.0
108.239	4.0
108.254	4.0
108.269	2.0
108.284	3.0
108.299	2.0
108.313	5.0
108.328	4.0
108.343	6.0
108.358	3.0
108.373	2.0
108.388	4.0
108.403	4.0
108.418	4.0
108.433	2.0
108.448	2.0
108.462	5.0
108.477	1.0
108.492	4.0
108.507	3.0
108.522	1.0
108.537	5.0
108.552	8.0
108.567	3.0
108.582	6.0
108.597	2.0
108.611	3.0
108.626	2.0
108.641	8.0
108.656	6.0
108.671	2.0
108.686	1.0
108.701	5.0
108.716	3.0
108.731	3.0
108.745	3.0
108.76	2.0
108.775	5.0
108.79	6.0
108.805	5.0
108.82	5.0
108.835	4.0
108.85	5.0
108.865	1.0
108.879	0.0
108.894	0.0
108.909	3.0
108.924	4.0
108.939	5.0
108.954	4.0
108.969	0.0
108.984	7.0
108.999	6.0
109.013	1.0
109.028	5.0
109.043	3.0
109.058	3.0
109.073	5.0
109.088	1.0
109.103	3.0
109.118	1.0
109.133	1.0
109.147	1.0
109.162	0.0
109.177	6.0
109.192	1.0
109.207	4.0
109.222	2.0
109.237	3.0
109.252	1.0
109.267	3.0
109.281	1.0
109.296	5.0
109.311	5.0
109.326	3.0
109.341	7.0
109.356	2.0
109.371	1.0
109.386	0.0
109.4	3.0
109.415	3.0
109.43	6.0
109.445	3.0
109.46	2.0
109.475	1.0
109.49	2.0
109.505	4.0
109.52	2.0
109.534	3.0
109.549	3.0
109.564	2.0
109.579	2.0
109.594	2.0
109.609	2.0
109.624	3.0
109.639	3.0
109.653	7.0
109.668	9.0
109.683	3.0
109.698	0.0
109.713	6.0
109.728	3.0
109.743	5.0
109.758	0.0
109.773	5.0
109.787	6.0
109.802	3.0
109.817	3.0
109.832	5.0
109.847	3.0
109.862	7.0
109.877	1.0
109.892	4.0
109.907	3.0
109.921	3.0
109.936	2.0
109.951	2.0
109.966	6.0
109.981	1.0
109.996	3.0
110.011	2.0
110.026	1.0
110.04	1.0
110.055	3.0
110.07	3.0
110.085	1.0
110.1	3.0
110.115	2.0
110.13	8.0
110.145	4.0
110.16	5.0
110.174	1.0
110.189	0.0
110.204	3.0
110.219	2.0
110.234	1.0
110.249	4.0
110.264	3.0
110.279	4.0
110.294	1.0
110.308	5.0
110.323	8.0
110.338	3.0
110.353	5.0
110.368	4.0
110.383	3.0
110.398	3.0
110.413	2.0
110.428	2.0
110.442	3.0
110.457	2.0
110.472	3.0
110.487	2.0
110.502	5.0
110.517	1.0
110.532	2.0
110.547	0.0
110.561	6.0
110.576	3.0
110.591	1.0
110.606	2.0
110.621	8.0
110.636	6.0
110.651	5.0
110.666	4.0
110.681	2.0
110.695	3.0
110.71	3.0
110.725	4.0
110.74	3.0
110.755	2.0
110.77	6.0
110.785	3.0
110.8	5.0
110.815	3.0
110.829	6.0
110.844	0.0
110.859	1.0
110.874	5.0
110.889	4.0
110.904	8.0
110.919	3.0
110.934	1.0
110.948	3.0
110.963	2.0
110.978	3.0
110.993	3.0
111.008	2.0
111.023	2.0
111.038	3.0
111.053	3.0
111.067	5.0
111.082	5.0
111.097	1.0
111.112	2.0
111.127	2.0
111.142	4.0
111.157	1.0
111.172	3.0
111.186	6.0
111.201	2.0
111.216	1.0
111.231	3.0
111.246	3.0
111.261	0.0
111.276	3.0
111.291	2.0
111.305	1.0
111.32	1.0
111.335	3.0
111.35	4.0
111.365	4.0
111.38	3.0
111.395	4.0
111.41	6.0
111.424	3.0
111.439	4.0
111.454	3.0
111.469	2.0
111.484	3.0
111.499	4.0
111.514	5.0
111.528	3.0
111.543	2.0
111.558	8.0
111.573	4.0
111.588	2.0
111.603	4.0
111.618	2.0
111.633	3.0
111.647	4.0
111.662	1.0
111.677	7.0
111.692	4.0
111.707	1.0
111.722	5.0
111.737	4.0
111.751	2.0
111.766	4.0
111.781	4.0
111.796	5.0
111.811	5.0
111.826	4.0
111.84	2.0
111.855	4.0
111.87	8.0
111.885	3.0
111.9	4.0
111.915	3.0
111.93	2.0
111.944	2.0
111.959	4.0
111.974	1.0
111.989	4.0
112.004	5.0
112.019	5.0
112.033	2.0
112.048	3.0
112.063	1.0
112.078	0.0
112.093	4.0
112.108	2.0
112.123	4.0
112.137	7.0
112.152	3.0
112.167	2.0
112.182	4.0
112.197	4.0
112.212	2.0
112.226	5.0
112.241	2.0
112.256	1.0
112.271	2.0
112.286	5.0
112.301	3.0
112.315	1.0
112.33	3.0
112.345	5.0
112.36	2.0
112.375	6.0
112.389	1.0
112.404	4.0
112.419	4.0
112.434	2.0
112.449	7.0
112.464	5.0
112.478	1.0
112.493	2.0
112.508	5.0
112.523	1.0
112.538	3.0
112.553	4.0
112.567	1.0
112.582	1.0
112.597	4.0
112.612	3.0
112.627	0.0
112.642	3.0
112.656	4.0
112.671	2.0
112.686	5.0
112.701	5.0
112.716	5.0
112.73	3.0
112.745	2.0
112.76	4.0
112.775	3.0
112.79	1.0
112.805	4.0
112.819	3.0
112.834	5.0
112.849	1.0
112.864	4.0
112.879	4.0
112.894	3.0
112.908	0.0
112.923	3.0
112.938	6.0
112.953	3.0
112.968	4.0
112.983	5.0
112.997	3.0
113.012	5.0
113.027	4.0
113.042	4.0
113.057	6.0
113.072	0.0
113.086	4.0
113.101	3.0
113.116	3.0
113.131	2.0
113.146	2.0
113.161	4.0
113.175	4.0
113.19	2.0
113.205	4.0
113.22	6.0
113.235	1.0
113.25	3.0
113.265	3.0
113.279	3.0
113.294	3.0
113.309	3.0
113.324	5.0
113.339	3.0
113.354	4.0
113.368	2.0
113.383	5.0
113.398	5.0
113.413	6.0
113.428	2.0
113.443	4.0
113.458	1.0
113.472	7.0
113.487	2.0
113.502	3.0
113.517	2.0
113.532	3.0
113.547	3.0
113.562	2.0
113.576	2.0
113.591	3.0
113.606	5.0
113.621	2.0
113.636	4.0
113.651	2.0
113.666	4.0
113.681	3.0
113.695	7.0
113.71	1.0
113.725	5.0
113.74	1.0
113.755	1.0
113.77	2.0
113.785	4.0
113.8	5.0
113.814	4.0
113.829	3.0
113.844	3.0
113.859	4.0
113.874	3.0
113.889	3.0
113.904	3.0
113.919	3.0
113.934	3.0
113.949	3.0
113.963	0.0
113.978	4.0
113.993	5.0
114.008	4.0
114.023	3.0
114.038	7.0
114.053	1.0
114.068	1.0
114.083	5.0
114.098	5.0
114.113	2.0
114.127	5.0
114.142	8.0
114.157	1.0
114.172	3.0
114.187	3.0
114.202	5.0
114.217	3.0
114.232	5.0
114.247	3.0
114.262	2.0
114.277	3.0
114.292	3.0
114.307	1.0
114.322	5.0
114.337	4.0
114.351	2.0
114.366	3.0
114.381	3.0
114.396	6.0
114.411	5.0
114.426	2.0
114.441	2.0
114.456	1.0
114.471	2.0
114.486	12.0
114.501	4.0
114.516	3.0
114.531	4.0
114.546	3.0
114.561	2.0
114.576	0.0
114.591	3.0
114.606	5.0
114.621	1.0
114.636	3.0
114.65	6.0
114.665	3.0
114.68	5.0
114.695	1.0
114.71	2.0
114.725	2.0
114.74	6.0
114.755	3.0
114.77	3.0
114.785	4.0
114.8	4.0
114.815	6.0
114.83	5.0
114.845	2.0
114.86	3.0
114.875	2.0
114.89	2.0
114.905	3.0
114.92	1.0
114.935	3.0
114.95	1.0
114.965	0.0
114.98	4.0
114.995	4.0
115.009	3.0
115.024	3.0
115.039	4.0
115.054	4.0
115.069	3.0
115.084	1.0
115.099	0.0
115.114	2.0
115.129	2.0
115.144	2.0
115.159	2.0
115.174	5.0
115.189	5.0
115.204	3.0
115.219	4.0
115.234	2.0
115.249	6.0
115.264	2.0
115.279	4.0
115.294	3.0
115.309	7.0
115.323	5.0
115.338	5.0
115.353	6.0
115.368	10.0
115.383	1.0
115.398	3.0
115.413	3.0
115.428	4.0
115.443	8.0
115.458	7.0
115.473	3.0
115.488	2.0
115.503	1.0
115.518	5.0
115.533	1.0
115.548	7.0
115.562	4.0
115.577	4.0
115.592	4.0
115.607	3.0
115.622	4.0
115.637	5.0
115.652	1.0
115.667	2.0
115.682	3.0
115.697	4.0
115.712	2.0
115.727	6.0
115.741	3.0
115.756	4.0
115.771	2.0
115.786	3.0
115.801	5.0
115.816	4.0
115.831	1.0
115.846	6.0
115.861	2.0
115.875	6.0
115.89	1.0
115.905	5.0
115.92	3.0
115.935	2.0
115.95	2.0
115.965	4.0
115.98	3.0
115.995	1.0
116.009	3.0
116.024	4.0
116.039	3.0
116.054	3.0
116.069	5.0
116.084	2.0
116.099	4.0
116.113	8.0
116.128	5.0
116.143	3.0
116.158	6.0
116.173	3.0
116.188	3.0
116.202	2.0
116.217	3.0
116.232	6.0
116.247	2.0
116.262	4.0
116.277	5.0
116.291	6.0
116.306	7.0
116.321	5.0
116.336	5.0
116.351	8.0
116.366	3.0
116.38	6.0
116.395	2.0
116.41	6.0
116.425	2.0
116.44	4.0
116.454	7.0
116.469	2.0
116.484	5.0
116.499	4.0
116.514	6.0
116.528	1.0
116.543	2.0
116.558	4.0
116.573	1.0
116.588	3.0
116.602	3.0
116.617	4.0
116.632	5.0
116.647	2.0
116.662	1.0
116.676	4.0
116.691	3.0
116.706	3.0
116.721	5.0
116.735	4.0
116.75	4.0
116.765	2.0
116.78	3.0
116.795	2.0
116.809	4.0
116.824	2.0
116.839	1.0
116.854	2.0
116.868	5.0
116.883	3.0
116.898	1.0
116.913	3.0
116.927	4.0
116.942	1.0
116.957	1.0
116.972	5.0
116.986	1.0
117.001	4.0
117.016	8.0
117.031	8.0
117.045	5.0
117.06	3.0
117.075	5.0
117.09	2.0
117.104	1.0
117.119	2.0
117.134	5.0
117.149	4.0
117.163	5.0
117.178	6.0
117.193	2.0
117.208	3.0
117.222	2.0
117.237	4.0
117.252	3.0
117.267	6.0
117.281	5.0
117.296	3.0
117.311	3.0
117.325	4.0
117.34	2.0
117.355	3.0
117.37	1.0
117.384	7.0
117.399	2.0
117.414	6.0
117.429	3.0
117.443	1.0
117.458	2.0
117.473	1.0
117.487	3.0
117.502	3.0
117.517	1.0
117.532	7.0
117.546	4.0
117.561	3.0
117.576	8.0
117.59	3.0
117.605	4.0
117.62	5.0
117.635	8.0
117.649	1.0
117.664	4.0
117.679	3.0
117.693	3.0
117.708	3.0
117.723	4.0
117.738	5.0
117.752	3.0
117.767	3.0
117.782	7.0
117.796	5.0
117.811	3.0
117.826	3.0
117.841	3.0
117.855	6.0
117.87	2.0
117.885	3.0
117.899	1.0
117.914	3.0
117.929	7.0
117.944	4.0
117.958	2.0
117.973	1.0
117.988	4.0
118.002	4.0
118.017	3.0
118.032	6.0
118.047	4.0
118.062	5.0
118.077	2.0
118.092	8.0
118.107	5.0
118.121	2.0
118.136	2.0
118.151	5.0
118.166	4.0
118.181	5.0
118.196	4.0
118.211	3.0
118.225	5.0
118.24	2.0
118.255	3.0
118.27	4.0
118.285	5.0
118.3	1.0
118.315	6.0
118.33	2.0
118.344	4.0
118.359	1.0
118.374	2.0
118.389	4.0
118.404	5.0
118.419	2.0
118.434	3.0
118.449	2.0
118.463	3.0
118.478	5.0
118.493	2.0
118.508	5.0
118.523	1.0
118.538	4.0
118.553	0.0
118.567	2.0
118.582	5.0
118.597	2.0
118.612	2.0
118.627	2.0
118.642	6.0
118.657	5.0
118.672	6.0
118.686	2.0
118.701	5.0
118.716	4.0
118.731	4.0
118.746	2.0
118.761	7.0
118.776	7.0
118.791	5.0
118.805	0.0
118.82	3.0
118.835	6.0
118.85	4.0
118.865	1.0
118.88	3.0
118.895	5.0
118.909	3.0
118.924	4.0
118.939	5.0
118.954	3.0
118.969	5.0
118.984	5.0
118.999	2.0
119.014	2.0
119.028	2.0
119.043	2.0
119.058	3.0
119.073	6.0
119.088	5.0
119.103	3.0
119.118	7.0
119.133	4.0
119.147	5.0
119.162	2.0
119.177	1.0
119.192	7.0
119.207	5.0
119.222	2.0
119.237	4.0
119.251	4.0
119.266	2.0
119.281	6.0
119.296	3.0
119.311	4.0
119.326	3.0
119.341	2.0
119.356	6.0
119.37	3.0
119.385	1.0
119.4	5.0
119.415	2.0
119.43	1.0
119.445	3.0
119.46	4.0
119.475	2.0
119.489	3.0
119.504	3.0
119.519	4.0
119.534	0.0
119.549	4.0
119.564	6.0
119.579	4.0
119.593	2.0
119.608	5.0
119.623	3.0
119.638	1.0
119.653	4.0
119.668	8.0
119.683	3.0
119.698	2.0
119.712	4.0
119.727	4.0
119.742	2.0
119.757	3.0
119.772	1.0
119.787	4.0
119.802	3.0
119.817	7.0
119.831	3.0
119.846	2.0
119.861	3.0
119.876	1.0
119.891	4.0
119.906	3.0
119.921	4.0
119.935	1.0
119.95	0.0
119.965	4.0
119.98	1.0
119.995	4.0
120.01	1.0
120.025	1.0
120.04	4.0
120.054	2.0
120.069	7.0
120.084	0.0
120.099	5.0
120.114	4.0
120.129	1.0
120.144	0.0
120.159	2.0
120.173	0.0
120.188	2.0
120.203	0.0
120.218	0.0
120.233	1.0
120.248	0.0
120.263	1.0
120.277	0.0
120.292	1.0
120.307	1.0
120.322	0.0
120.337	1.0
120.352	1.0
120.367	1.0
120.382	2.0
120.396	0.0
120.411	0.0
120.426	0.0
120.441	0.0
120.456	1.0
120.471	0.0
120.486	0.0
120.501	0.0
120.515	0.0
120.53	0.0
120.545	0.0
120.56	0.0
120.575	0.0
120.59	0.0
120.605	0.0
120.619	0.0
120.634	1.0
120.649	1.0
120.664	0.0
120.679	0.0
120.694	0.0
120.709	0.0
120.724	0.0
120.738	0.0
120.753	0.0
120.768	0.0
120.783	0.0
120.798	0.0
120.813	0.0
120.828	0.0
120.843	0.0
120.857	0.0
120.872	0.0
120.887	0.0
120.902	0.0
120.917	0.0
120.932	0.0
120.947	0.0
120.961	0.0
120.976	0.0
