-1.217	0.0
-1.202	0.0
-1.187	0.0
-1.172	0.0
-1.157	0.0
-1.142	0.0
-1.128	0.0
-1.113	0.0
-1.098	0.0
-1.083	0.0
-1.068	0.0
-1.054	0.0
-1.039	0.0
-1.024	0.0
-1.009	0.0
-0.994	0.0
-0.979	0.0
-0.965	0.0
-0.95	0.0
-0.935	0.0
-0.92	0.0
-0.905	0.0
-0.891	0.0
-0.876	0.0
-0.861	0.0
-0.846	0.0
-0.831	0.0
-0.816	0.0
-0.802	0.0
-0.787	0.0
-0.772	0.0
-0.757	0.0
-0.742	0.0
-0.728	0.0
-0.713	0.0
-0.698	0.0
-0.683	0.0
-0.668	0.0
-0.653	0.0
-0.639	0.0
-0.624	0.0
-0.609	0.0
-0.594	0.0
-0.579	0.0
-0.565	0.0
-0.55	0.0
-0.535	0.0
-0.52	0.0
-0.505	0.0
-0.49	0.0
-0.476	0.0
-0.461	0.0
-0.446	0.0
-0.431	0.0
-0.416	0.0
-0.401	0.0
-0.387	0.0
-0.372	0.0
-0.357	0.0
-0.342	0.0
-0.327	0.0
-0.313	0.0
-0.298	0.0
-0.283	0.0
-0.268	0.0
-0.253	0.0
-0.238	0.0
-0.224	0.0
-0.209	0.0
-0.194	0.0
-0.179	0.0
-0.164	0.0
-0.15	0.0
-0.135	0.0
-0.12	0.0
-0.105	0.0
-0.09	0.0
-0.075	0.0
-0.061	0.0
-0.046	1.0
-0.031	0.0
-0.016	0.0
-0.001	0.0
0.013	0.0
0.028	0.0
0.043	0.0
0.058	0.0
0.073	0.0
0.088	0.0
0.102	0.0
0.117	0.0
0.132	0.0
0.147	0.0
0.162	0.0
0.176	0.0
0.191	0.0
0.206	0.0
0.221	0.0
0.236	0.0
0.251	0.0
0.265	0.0
0.28	0.0
0.295	0.0
0.31	0.0
0.325	0.0
0.339	0.0
0.354	0.0
0.369	0.0
0.384	0.0
0.399	0.0
0.414	0.0
0.428	0.0
0.443	0.0
0.458	0.0
0.473	0.0
0.488	0.0
0.502	0.0
0.517	0.0
0.532	0.0
0.547	0.0
0.562	1.0
0.577	0.0
0.591	0.0
0.606	0.0
0.621	0.0
0.636	0.0
0.651	0.0
0.665	0.0
0.68	0.0
0.695	0.0
0.71	0.0
0.725	0.0
0.74	0.0
0.754	0.0
0.769	0.0
0.784	0.0
0.799	0.0
0.814	0.0
0.828	0.0
0.843	1.0
0.858	0.0
0.873	0.0
0.888	0.0
0.903	0.0
0.917	0.0
0.932	0.0
0.947	0.0
0.962	0.0
0.977	0.0
0.991	0.0
1.006	0.0
1.021	0.0
1.036	0.0
1.051	0.0
1.065	0.0
1.08	0.0
1.095	0.0
1.11	0.0
1.125	0.0
1.14	0.0
1.154	0.0
1.169	0.0
1.184	0.0
1.199	0.0
1.214	0.0
1.228	0.0
1.243	0.0
1.258	0.0
1.273	0.0
1.288	0.0
1.302	1.0
1.317	0.0
1.332	0.0
1.347	0.0
1.362	0.0
1.376	0.0
1.391	0.0
1.406	0.0
1.421	0.0
1.436	0.0
1.45	0.0
1.465	0.0
1.48	0.0
1.495	0.0
1.51	0.0
1.524	0.0
1.539	0.0
1.554	0.0
1.569	0.0
1.584	0.0
1.598	0.0
1.613	0.0
1.628	0.0
1.643	1.0
1.658	0.0
1.672	0.0
1.687	0.0
1.702	0.0
1.717	0.0
1.732	1.0
1.746	0.0
1.761	0.0
1.776	0.0
1.791	0.0
1.806	0.0
1.82	0.0
1.835	0.0
1.85	0.0
1.865	0.0
1.88	1.0
1.894	1.0
1.909	0.0
1.924	0.0
1.939	0.0
1.954	0.0
1.968	0.0
1.983	1.0
1.998	0.0
2.013	0.0
2.028	0.0
2.042	0.0
2.057	0.0
2.072	0.0
2.087	0.0
2.101	0.0
2.116	0.0
2.131	0.0
2.146	0.0
2.161	0.0
2.175	0.0
2.19	0.0
2.205	0.0
2.22	0.0
2.235	0.0
2.249	0.0
2.264	1.0
2.279	0.0
2.294	0.0
2.308	1.0
2.323	0.0
2.338	0.0
2.353	0.0
2.368	1.0
2.382	1.0
2.397	3.0
2.412	2.0
2.427	1.0
2.442	1.0
2.456	1.0
2.471	2.0
2.486	2.0
2.501	1.0
2.515	1.0
2.53	1.0
2.545	2.0
2.56	0.0
2.575	2.0
2.589	1.0
2.604	1.0
2.619	3.0
2.634	3.0
2.649	2.0
2.663	1.0
2.678	3.0
2.693	2.0
2.708	1.0
2.722	3.0
2.737	2.0
2.752	1.0
2.767	2.0
2.782	5.0
2.796	4.0
2.811	1.0
2.826	3.0
2.841	2.0
2.856	2.0
2.87	5.0
2.885	2.0
2.9	3.0
2.915	6.0
2.93	1.0
2.944	4.0
2.959	5.0
2.974	3.0
2.989	7.0
3.004	4.0
3.018	5.0
3.033	6.0
3.048	5.0
3.063	2.0
3.078	5.0
3.092	5.0
3.107	2.0
3.122	4.0
3.137	3.0
3.152	1.0
3.166	1.0
3.181	5.0
3.196	4.0
3.211	4.0
3.226	5.0
3.24	6.0
3.255	3.0
3.27	5.0
3.285	10.0
3.3	1.0
3.315	4.0
3.329	4.0
3.344	5.0
3.359	3.0
3.374	1.0
3.389	4.0
3.403	6.0
3.418	6.0
3.433	6.0
3.448	4.0
3.463	9.0
3.478	6.0
3.492	5.0
3.507	4.0
3.522	3.0
3.537	5.0
3.552	7.0
3.567	5.0
3.581	7.0
3.596	6.0
3.611	3.0
3.626	7.0
3.641	2.0
3.656	2.0
3.671	4.0
3.685	9.0
3.7	3.0
3.715	5.0
3.73	4.0
3.745	11.0
3.76	7.0
3.775	6.0
3.789	10.0
3.804	9.0
3.819	5.0
3.834	8.0
3.849	5.0
3.864	10.0
3.879	5.0
3.894	1.0
3.908	4.0
3.923	7.0
3.938	3.0
3.953	3.0
3.968	5.0
3.983	11.0
3.998	4.0
4.013	5.0
4.027	4.0
4.042	3.0
4.057	6.0
4.072	6.0
4.087	3.0
4.102	12.0
4.117	6.0
4.132	3.0
4.147	2.0
4.162	4.0
4.176	4.0
4.191	13.0
4.206	9.0
4.221	5.0
4.236	7.0
4.251	8.0
4.266	9.0
4.281	6.0
4.296	3.0
4.311	6.0
4.326	6.0
4.341	4.0
4.356	7.0
4.37	4.0
4.385	2.0
4.4	11.0
4.415	5.0
4.43	12.0
4.445	8.0
4.46	3.0
4.475	9.0
4.49	4.0
4.505	3.0
4.52	6.0
4.535	10.0
4.55	6.0
4.565	6.0
4.58	6.0
4.595	10.0
4.61	2.0
4.625	9.0
4.639	5.0
4.654	11.0
4.669	9.0
4.684	5.0
4.699	10.0
4.714	9.0
4.729	4.0
4.744	4.0
4.759	13.0
4.774	7.0
4.789	10.0
4.804	9.0
4.819	4.0
4.834	6.0
4.849	6.0
4.864	12.0
4.879	12.0
4.894	8.0
4.909	10.0
4.924	11.0
4.939	4.0
4.954	11.0
4.969	8.0
4.984	7.0
4.999	10.0
5.014	9.0
5.029	10.0
5.044	12.0
5.059	7.0
5.074	6.0
5.089	6.0
5.104	5.0
5.119	12.0
5.134	9.0
5.149	10.0
5.164	9.0
5.179	10.0
5.194	9.0
5.209	8.0
5.224	4.0
5.239	9.0
5.254	11.0
5.269	6.0
5.284	6.0
5.299	5.0
5.314	13.0
5.329	12.0
5.344	6.0
5.359	8.0
5.374	6.0
5.389	8.0
5.404	5.0
5.419	6.0
5.434	7.0
5.449	7.0
5.464	10.0
5.479	6.0
5.494	8.0
5.509	14.0
5.524	9.0
5.539	9.0
5.554	6.0
5.569	9.0
5.584	6.0
5.599	3.0
5.614	9.0
5.629	12.0
5.644	8.0
5.659	7.0
5.674	6.0
5.689	4.0
5.704	10.0
5.719	6.0
5.734	7.0
5.749	13.0
5.764	8.0
5.779	6.0
5.794	9.0
5.809	11.0
5.824	5.0
5.839	9.0
5.854	7.0
5.869	10.0
5.884	14.0
5.899	10.0
5.914	13.0
5.929	10.0
5.944	6.0
5.959	9.0
5.974	6.0
5.989	10.0
6.004	6.0
6.019	14.0
6.034	8.0
6.049	9.0
6.064	12.0
6.079	7.0
6.094	7.0
6.109	4.0
6.124	11.0
6.139	6.0
6.154	9.0
6.169	3.0
6.184	10.0
6.199	8.0
6.214	7.0
6.229	9.0
6.244	11.0
6.259	5.0
6.274	14.0
6.289	8.0
6.304	14.0
6.319	13.0
6.334	7.0
6.349	9.0
6.364	9.0
6.379	8.0
6.394	12.0
6.409	9.0
6.424	12.0
6.439	5.0
6.454	11.0
6.469	10.0
6.484	9.0
6.499	10.0
6.514	7.0
6.529	13.0
6.544	11.0
6.559	7.0
6.574	14.0
6.589	10.0
6.604	4.0
6.619	10.0
6.634	13.0
6.649	11.0
6.664	5.0
6.679	7.0
6.694	4.0
6.709	19.0
6.724	3.0
6.739	10.0
6.754	6.0
6.769	8.0
6.784	8.0
6.799	9.0
6.814	8.0
6.829	6.0
6.844	8.0
6.859	13.0
6.873	8.0
6.888	5.0
6.903	4.0
6.918	9.0
6.933	8.0
6.948	16.0
6.963	8.0
6.978	8.0
6.993	5.0
7.008	6.0
7.023	7.0
7.038	9.0
7.053	9.0
7.068	9.0
7.083	5.0
7.098	5.0
7.113	5.0
7.128	7.0
7.143	8.0
7.157	8.0
7.172	8.0
7.187	12.0
7.202	3.0
7.217	10.0
7.232	10.0
7.247	11.0
7.262	5.0
7.277	8.0
7.292	13.0
7.307	8.0
7.322	5.0
7.336	7.0
7.351	6.0
7.366	10.0
7.381	10.0
7.396	5.0
7.411	8.0
7.426	12.0
7.441	11.0
7.456	7.0
7.471	4.0
7.485	8.0
7.5	8.0
7.515	9.0
7.53	12.0
7.545	3.0
7.56	10.0
7.575	9.0
7.59	15.0
7.604	11.0
7.619	9.0
7.634	8.0
7.649	12.0
7.664	8.0
7.679	8.0
7.693	7.0
7.708	9.0
7.723	10.0
7.738	6.0
7.753	13.0
7.768	13.0
7.783	5.0
7.797	7.0
7.812	6.0
7.827	9.0
7.842	13.0
7.857	7.0
7.871	4.0
7.886	11.0
7.901	10.0
7.916	3.0
7.931	12.0
7.945	5.0
7.96	15.0
7.975	14.0
7.99	10.0
8.005	5.0
8.019	9.0
8.034	6.0
8.049	11.0
8.064	7.0
8.078	12.0
8.093	16.0
8.108	4.0
8.123	9.0
8.137	6.0
8.152	9.0
8.167	11.0
8.182	7.0
8.196	14.0
8.211	3.0
8.226	8.0
8.241	12.0
8.255	8.0
8.27	12.0
8.285	7.0
8.3	6.0
8.314	12.0
8.329	10.0
8.344	8.0
8.358	6.0
8.373	10.0
8.388	11.0
8.403	10.0
8.417	13.0
8.432	6.0
8.447	15.0
8.461	3.0
8.476	10.0
8.491	5.0
8.505	2.0
8.52	6.0
8.535	5.0
8.55	11.0
8.564	7.0
8.579	11.0
8.594	8.0
8.608	11.0
8.623	5.0
8.638	7.0
8.652	10.0
8.667	8.0
8.682	5.0
8.696	11.0
8.711	14.0
8.726	9.0
8.74	5.0
8.755	9.0
8.77	11.0
8.784	7.0
8.799	8.0
8.814	6.0
8.828	14.0
8.843	10.0
8.858	8.0
8.872	5.0
8.887	6.0
8.902	9.0
8.916	10.0
8.931	3.0
8.946	9.0
8.96	6.0
8.975	11.0
8.99	10.0
9.004	4.0
9.019	8.0
9.034	9.0
9.048	9.0
9.063	11.0
9.077	6.0
9.092	6.0
9.107	7.0
9.121	5.0
9.136	12.0
9.151	10.0
9.165	10.0
9.18	8.0
9.195	8.0
9.209	7.0
9.224	5.0
9.239	8.0
9.253	17.0
9.268	8.0
9.283	8.0
9.297	6.0
9.312	7.0
9.327	8.0
9.341	5.0
9.356	5.0
9.371	7.0
9.385	14.0
9.4	9.0
9.415	12.0
9.429	7.0
9.444	7.0
9.458	9.0
9.473	6.0
9.488	12.0
9.502	11.0
9.517	6.0
9.532	4.0
9.546	2.0
9.561	4.0
9.576	6.0
9.59	7.0
9.605	8.0
9.62	14.0
9.635	12.0
9.649	7.0
9.664	4.0
9.679	3.0
9.693	7.0
9.708	9.0
9.723	7.0
9.737	6.0
9.752	11.0
9.767	7.0
9.781	9.0
9.796	9.0
9.811	6.0
9.825	7.0
9.84	4.0
9.855	8.0
9.87	8.0
9.884	11.0
9.899	4.0
9.914	2.0
9.928	6.0
9.943	7.0
9.958	10.0
9.973	8.0
9.987	8.0
10.002	13.0
10.017	7.0
10.031	5.0
10.046	10.0
10.061	5.0
10.076	10.0
10.09	12.0
10.105	8.0
10.12	5.0
10.135	9.0
10.149	9.0
10.164	10.0
10.179	8.0
10.194	4.0
10.208	12.0
10.223	8.0
10.238	11.0
10.253	7.0
10.267	8.0
10.282	7.0
10.297	8.0
10.312	11.0
10.326	7.0
10.341	11.0
10.356	9.0
10.371	10.0
10.386	9.0
10.4	5.0
10.415	5.0
10.43	6.0
10.445	5.0
10.46	5.0
10.474	2.0
10.489	8.0
10.504	6.0
10.519	10.0
10.533	9.0
10.548	12.0
10.563	6.0
10.578	9.0
10.593	11.0
10.608	9.0
10.622	7.0
10.637	3.0
10.652	8.0
10.667	11.0
10.682	6.0
10.696	4.0
10.711	7.0
10.726	3.0
10.741	7.0
10.756	7.0
10.771	8.0
10.785	4.0
10.8	6.0
10.815	9.0
10.83	7.0
10.845	12.0
10.86	6.0
10.874	6.0
10.889	8.0
10.904	5.0
10.919	13.0
10.934	5.0
10.949	2.0
10.963	10.0
10.978	9.0
10.993	14.0
11.008	11.0
11.023	7.0
11.038	8.0
11.053	8.0
11.067	7.0
11.082	10.0
11.097	11.0
11.112	3.0
11.127	11.0
11.142	8.0
11.157	3.0
11.172	5.0
11.186	5.0
11.201	6.0
11.216	5.0
11.231	12.0
11.246	12.0
11.261	3.0
11.276	5.0
11.291	11.0
11.305	5.0
11.32	6.0
11.335	8.0
11.35	6.0
11.365	6.0
11.38	14.0
11.395	9.0
11.41	7.0
11.424	7.0
11.439	9.0
11.454	3.0
11.469	7.0
11.484	8.0
11.499	10.0
11.514	7.0
11.529	6.0
11.544	7.0
11.558	7.0
11.573	3.0
11.588	15.0
11.603	6.0
11.618	5.0
11.633	8.0
11.648	10.0
11.663	5.0
11.678	4.0
11.693	9.0
11.707	9.0
11.722	9.0
11.737	9.0
11.752	13.0
11.767	8.0
11.782	12.0
11.797	10.0
11.812	6.0
11.827	6.0
11.842	9.0
11.856	8.0
11.871	3.0
11.886	9.0
11.901	7.0
11.916	6.0
11.931	7.0
11.946	7.0
11.961	4.0
11.976	12.0
11.991	7.0
12.006	9.0
12.02	3.0
12.035	14.0
12.05	5.0
12.065	10.0
12.08	6.0
12.095	7.0
12.11	7.0
12.125	12.0
12.14	9.0
12.155	10.0
12.17	11.0
12.184	15.0
12.199	12.0
12.214	11.0
12.229	7.0
12.244	5.0
12.259	5.0
12.274	11.0
12.289	11.0
12.304	11.0
12.319	12.0
12.334	7.0
12.348	11.0
12.363	10.0
12.378	14.0
12.393	14.0
12.408	13.0
12.423	11.0
12.438	14.0
12.453	14.0
12.468	11.0
12.483	7.0
12.498	8.0
12.513	10.0
12.527	11.0
12.542	13.0
12.557	9.0
12.572	15.0
12.587	19.0
12.602	10.0
12.617	7.0
12.632	9.0
12.647	12.0
12.662	12.0
12.677	8.0
12.692	8.0
12.707	18.0
12.721	9.0
12.736	7.0
12.751	7.0
12.766	15.0
12.781	14.0
12.796	9.0
12.811	14.0
12.826	16.0
12.841	14.0
12.856	14.0
12.871	11.0
12.886	18.0
12.9	14.0
12.915	10.0
12.93	12.0
12.945	20.0
12.96	15.0
12.975	10.0
12.99	17.0
13.005	9.0
13.02	14.0
13.035	12.0
13.05	19.0
13.065	24.0
13.08	22.0
13.094	20.0
13.109	26.0
13.124	13.0
13.139	9.0
13.154	13.0
13.169	16.0
13.184	19.0
13.199	17.0
13.214	15.0
13.229	17.0
13.244	20.0
13.259	19.0
13.274	18.0
13.288	25.0
13.303	18.0
13.318	15.0
13.333	20.0
13.348	17.0
13.363	20.0
13.378	29.0
13.393	15.0
13.408	33.0
13.423	31.0
13.438	19.0
13.453	33.0
13.468	30.0
13.482	35.0
13.497	44.0
13.512	39.0
13.527	39.0
13.542	48.0
13.557	56.0
13.572	46.0
13.587	51.0
13.602	54.0
13.617	71.0
13.632	62.0
13.647	73.0
13.662	68.0
13.677	83.0
13.691	72.0
13.706	90.0
13.721	77.0
13.736	92.0
13.751	112.0
13.766	116.0
13.781	101.0
13.796	116.0
13.811	143.0
13.826	131.0
13.841	121.0
13.856	101.0
13.871	116.0
13.885	108.0
13.9	88.0
13.915	67.0
13.93	73.0
13.945	60.0
13.96	62.0
13.975	33.0
13.99	36.0
14.005	31.0
14.02	30.0
14.035	25.0
14.05	19.0
14.065	16.0
14.08	26.0
14.094	21.0
14.109	25.0
14.124	25.0
14.139	23.0
14.154	22.0
14.169	27.0
14.184	18.0
14.199	18.0
14.214	17.0
14.229	18.0
14.244	16.0
14.259	20.0
14.274	15.0
14.288	18.0
14.303	19.0
14.318	18.0
14.333	20.0
14.348	20.0
14.363	20.0
14.378	20.0
14.393	14.0
14.408	15.0
14.423	15.0
14.438	21.0
14.453	18.0
14.468	14.0
14.482	15.0
14.497	15.0
14.512	13.0
14.527	18.0
14.542	17.0
14.557	14.0
14.572	14.0
14.587	17.0
14.602	18.0
14.617	19.0
14.632	12.0
14.647	14.0
14.661	17.0
14.676	16.0
14.691	26.0
14.706	17.0
14.721	11.0
14.736	14.0
14.751	15.0
14.766	17.0
14.781	9.0
14.796	15.0
14.811	7.0
14.826	11.0
14.84	17.0
14.855	14.0
14.87	11.0
14.885	12.0
14.9	22.0
14.915	17.0
14.93	27.0
14.945	19.0
14.96	18.0
14.975	9.0
14.989	14.0
15.004	11.0
15.019	14.0
15.034	14.0
15.049	16.0
15.064	13.0
15.079	15.0
15.094	15.0
15.109	10.0
15.124	12.0
15.138	17.0
15.153	22.0
15.168	10.0
15.183	14.0
15.198	9.0
15.213	12.0
15.228	15.0
15.243	11.0
15.258	12.0
15.272	16.0
15.287	16.0
15.302	14.0
15.317	12.0
15.332	15.0
15.347	15.0
15.362	9.0
15.377	13.0
15.391	14.0
15.406	15.0
15.421	16.0
15.436	9.0
15.451	12.0
15.466	13.0
15.481	9.0
15.496	14.0
15.51	19.0
15.525	9.0
15.54	11.0
15.555	11.0
15.57	13.0
15.585	9.0
15.6	13.0
15.614	16.0
15.629	14.0
15.644	12.0
15.659	14.0
15.674	10.0
15.689	15.0
15.704	15.0
15.718	17.0
15.733	11.0
15.748	8.0
15.763	18.0
15.778	10.0
15.793	17.0
15.808	20.0
15.822	11.0
15.837	11.0
15.852	11.0
15.867	15.0
15.882	11.0
15.897	20.0
15.911	16.0
15.926	17.0
15.941	16.0
15.956	13.0
15.971	15.0
15.986	14.0
16.0	16.0
16.015	17.0
16.03	13.0
16.045	17.0
16.06	14.0
16.074	13.0
16.089	10.0
16.104	12.0
16.119	18.0
16.134	8.0
16.149	12.0
16.163	11.0
16.178	13.0
16.193	16.0
16.208	11.0
16.223	21.0
16.237	12.0
16.252	21.0
16.267	17.0
16.282	14.0
16.297	11.0
16.311	18.0
16.326	11.0
16.341	12.0
16.356	17.0
16.37	11.0
16.385	12.0
16.4	12.0
16.415	19.0
16.43	16.0
16.444	8.0
16.459	16.0
16.474	14.0
16.489	13.0
16.504	13.0
16.518	14.0
16.533	14.0
16.548	18.0
16.563	10.0
16.577	14.0
16.592	26.0
16.607	9.0
16.622	16.0
16.637	21.0
16.651	19.0
16.666	27.0
16.681	22.0
16.696	23.0
16.71	24.0
16.725	26.0
16.74	29.0
16.755	28.0
16.77	26.0
16.784	36.0
16.799	36.0
16.814	45.0
16.829	41.0
16.843	44.0
16.858	41.0
16.873	54.0
16.888	64.0
16.902	80.0
16.917	77.0
16.932	62.0
16.947	73.0
16.961	71.0
16.976	66.0
16.991	62.0
17.006	63.0
17.021	60.0
17.035	42.0
17.05	38.0
17.065	38.0
17.08	41.0
17.094	37.0
17.109	36.0
17.124	25.0
17.139	19.0
17.153	21.0
17.168	15.0
17.183	14.0
17.198	15.0
17.212	19.0
17.227	23.0
17.242	17.0
17.257	13.0
17.271	21.0
17.286	9.0
17.301	11.0
17.316	17.0
17.33	12.0
17.345	18.0
17.36	25.0
17.375	18.0
17.39	21.0
17.404	12.0
17.419	10.0
17.434	12.0
17.449	13.0
17.463	11.0
17.478	11.0
17.493	9.0
17.508	9.0
17.522	11.0
17.537	10.0
17.552	16.0
17.567	8.0
17.581	17.0
17.596	16.0
17.611	19.0
17.626	6.0
17.641	11.0
17.655	15.0
17.67	9.0
17.685	11.0
17.7	10.0
17.714	12.0
17.729	9.0
17.744	15.0
17.759	14.0
17.773	8.0
17.788	15.0
17.803	10.0
17.818	11.0
17.833	19.0
17.847	12.0
17.862	12.0
17.877	13.0
17.892	17.0
17.906	6.0
17.921	8.0
17.936	9.0
17.951	10.0
17.966	9.0
17.98	9.0
17.995	14.0
18.01	12.0
18.025	13.0
18.04	19.0
18.054	8.0
18.069	4.0
18.084	16.0
18.099	12.0
18.114	8.0
18.128	12.0
18.143	13.0
18.158	13.0
18.173	13.0
18.188	11.0
18.202	4.0
18.217	10.0
18.232	8.0
18.247	9.0
18.262	19.0
18.276	11.0
18.291	8.0
18.306	21.0
18.321	12.0
18.336	8.0
18.35	12.0
18.365	13.0
18.38	13.0
18.395	9.0
18.41	8.0
18.424	9.0
18.439	9.0
18.454	15.0
18.469	6.0
18.484	13.0
18.498	12.0
18.513	16.0
18.528	12.0
18.543	13.0
18.558	17.0
18.573	12.0
18.587	11.0
18.602	12.0
18.617	13.0
18.632	9.0
18.647	9.0
18.661	12.0
18.676	19.0
18.691	11.0
18.706	14.0
18.721	12.0
18.736	6.0
18.75	15.0
18.765	13.0
18.78	13.0
18.795	9.0
18.81	15.0
18.825	6.0
18.839	6.0
18.854	17.0
18.869	7.0
18.884	10.0
18.899	12.0
18.913	12.0
18.928	13.0
18.943	13.0
18.958	15.0
18.973	4.0
18.988	13.0
19.002	7.0
19.017	13.0
19.032	15.0
19.047	12.0
19.062	8.0
19.077	10.0
19.091	6.0
19.106	7.0
19.121	13.0
19.136	11.0
19.151	11.0
19.165	11.0
19.18	16.0
19.195	11.0
19.21	13.0
19.225	8.0
19.24	9.0
19.254	13.0
19.269	7.0
19.284	18.0
19.299	13.0
19.314	17.0
19.329	17.0
19.343	12.0
19.358	10.0
19.373	23.0
19.388	15.0
19.403	12.0
19.417	20.0
19.432	24.0
19.447	19.0
19.462	19.0
19.477	20.0
19.492	31.0
19.506	37.0
19.521	30.0
19.536	29.0
19.551	39.0
19.566	35.0
19.58	56.0
19.595	46.0
19.61	48.0
19.625	27.0
19.64	43.0
19.655	36.0
19.669	35.0
19.684	39.0
19.699	31.0
19.714	24.0
19.729	22.0
19.743	24.0
19.758	19.0
19.773	13.0
19.788	11.0
19.803	19.0
19.817	14.0
19.832	13.0
19.847	18.0
19.862	12.0
19.877	19.0
19.891	11.0
19.906	13.0
19.921	12.0
19.936	8.0
19.951	13.0
19.965	8.0
19.98	13.0
19.995	11.0
20.01	9.0
20.025	8.0
20.039	12.0
20.054	11.0
20.069	5.0
20.084	12.0
20.099	20.0
20.113	11.0
20.128	12.0
20.143	16.0
20.158	11.0
20.173	14.0
20.187	12.0
20.202	7.0
20.217	18.0
20.232	10.0
20.246	6.0
20.261	19.0
20.276	11.0
20.291	10.0
20.306	11.0
20.32	15.0
20.335	7.0
20.35	9.0
20.365	13.0
20.38	9.0
20.394	12.0
20.409	8.0
20.424	13.0
20.439	13.0
20.453	9.0
20.468	11.0
20.483	10.0
20.498	7.0
20.513	9.0
20.527	11.0
20.542	9.0
20.557	9.0
20.572	15.0
20.586	11.0
20.601	9.0
20.616	7.0
20.631	15.0
20.646	7.0
20.66	11.0
20.675	13.0
20.69	9.0
20.705	12.0
20.719	8.0
20.734	6.0
20.749	13.0
20.764	9.0
20.779	13.0
20.793	8.0
20.808	12.0
20.823	9.0
20.838	9.0
20.853	9.0
20.867	16.0
20.882	12.0
20.897	15.0
20.912	9.0
20.926	11.0
20.941	6.0
20.956	12.0
20.971	5.0
20.986	9.0
21.0	11.0
21.015	13.0
21.03	13.0
21.045	11.0
21.06	18.0
21.074	11.0
21.089	10.0
21.104	15.0
21.119	12.0
21.134	12.0
21.148	8.0
21.163	12.0
21.178	14.0
21.193	16.0
21.208	6.0
21.222	9.0
21.237	13.0
21.252	11.0
21.267	10.0
21.282	12.0
21.296	11.0
21.311	9.0
21.326	10.0
21.341	6.0
21.356	14.0
21.37	14.0
21.385	8.0
21.4	16.0
21.415	9.0
21.43	12.0
21.444	11.0
21.459	16.0
21.474	10.0
21.489	15.0
21.504	7.0
21.519	13.0
21.533	15.0
21.548	11.0
21.563	16.0
21.578	17.0
21.593	10.0
21.608	12.0
21.622	9.0
21.637	13.0
21.652	19.0
21.667	17.0
21.682	19.0
21.697	14.0
21.712	24.0
21.726	17.0
21.741	17.0
21.756	24.0
21.771	28.0
21.786	26.0
21.801	23.0
21.816	44.0
21.83	40.0
21.845	49.0
21.86	49.0
21.875	54.0
21.89	60.0
21.905	76.0
21.92	72.0
21.935	73.0
21.949	79.0
21.964	77.0
21.979	77.0
21.994	88.0
22.009	75.0
22.024	52.0
22.039	65.0
22.054	57.0
22.069	48.0
22.083	44.0
22.098	47.0
22.113	42.0
22.128	36.0
22.143	34.0
22.158	23.0
22.173	16.0
22.188	26.0
22.203	21.0
22.218	17.0
22.233	6.0
22.248	28.0
22.262	9.0
22.277	10.0
22.292	9.0
22.307	16.0
22.322	18.0
22.337	9.0
22.352	7.0
22.367	13.0
22.382	13.0
22.397	9.0
22.412	11.0
22.427	8.0
22.442	10.0
22.457	18.0
22.472	9.0
22.487	12.0
22.502	14.0
22.516	13.0
22.531	10.0
22.546	11.0
22.561	13.0
22.576	8.0
22.591	12.0
22.606	10.0
22.621	15.0
22.636	18.0
22.651	15.0
22.666	9.0
22.681	10.0
22.696	10.0
22.711	12.0
22.726	11.0
22.741	10.0
22.756	17.0
22.771	20.0
22.786	11.0
22.801	12.0
22.816	10.0
22.831	7.0
22.846	11.0
22.861	9.0
22.876	11.0
22.891	10.0
22.906	12.0
22.92	13.0
22.935	9.0
22.95	11.0
22.965	5.0
22.98	5.0
22.995	6.0
23.01	10.0
23.025	13.0
23.04	13.0
23.055	15.0
23.07	10.0
23.085	13.0
23.1	7.0
23.115	6.0
23.13	6.0
23.145	10.0
23.16	9.0
23.175	11.0
23.19	6.0
23.205	11.0
23.22	9.0
23.235	10.0
23.25	13.0
23.265	11.0
23.28	9.0
23.295	17.0
23.31	11.0
23.325	14.0
23.34	9.0
23.355	9.0
23.37	7.0
23.384	11.0
23.399	18.0
23.414	7.0
23.429	10.0
23.444	14.0
23.459	8.0
23.474	12.0
23.489	12.0
23.504	11.0
23.519	12.0
23.534	12.0
23.549	11.0
23.564	9.0
23.579	11.0
23.594	13.0
23.609	9.0
23.624	5.0
23.639	13.0
23.654	13.0
23.668	11.0
23.683	9.0
23.698	10.0
23.713	9.0
23.728	11.0
23.743	6.0
23.758	12.0
23.773	17.0
23.788	9.0
23.803	13.0
23.818	14.0
23.833	9.0
23.848	15.0
23.862	21.0
23.877	16.0
23.892	19.0
23.907	16.0
23.922	30.0
23.937	19.0
23.952	27.0
23.967	27.0
23.982	34.0
23.997	34.0
24.011	47.0
24.026	45.0
24.041	40.0
24.056	52.0
24.071	52.0
24.086	47.0
24.101	61.0
24.116	49.0
24.131	38.0
24.145	42.0
24.16	39.0
24.175	44.0
24.19	36.0
24.205	38.0
24.22	30.0
24.235	27.0
24.249	22.0
24.264	20.0
24.279	17.0
24.294	23.0
24.309	26.0
24.324	22.0
24.338	9.0
24.353	12.0
24.368	15.0
24.383	13.0
24.398	14.0
24.413	12.0
24.428	12.0
24.442	14.0
24.457	16.0
24.472	15.0
24.487	12.0
24.502	13.0
24.516	14.0
24.531	12.0
24.546	8.0
24.561	14.0
24.576	11.0
24.591	6.0
24.605	7.0
24.62	8.0
24.635	11.0
24.65	10.0
24.665	9.0
24.679	8.0
24.694	10.0
24.709	10.0
24.724	14.0
24.739	12.0
24.753	13.0
24.768	10.0
24.783	10.0
24.798	4.0
24.813	9.0
24.827	7.0
24.842	14.0
24.857	10.0
24.872	11.0
24.886	12.0
24.901	9.0
24.916	11.0
24.931	11.0
24.946	12.0
24.96	8.0
24.975	18.0
24.99	11.0
25.005	7.0
25.019	7.0
25.034	9.0
25.049	11.0
25.064	12.0
25.078	14.0
25.093	11.0
25.108	7.0
25.123	6.0
25.138	9.0
25.152	14.0
25.167	8.0
25.182	18.0
25.197	9.0
25.211	5.0
25.226	10.0
25.241	9.0
25.256	9.0
25.27	8.0
25.285	6.0
25.3	7.0
25.315	5.0
25.329	11.0
25.344	6.0
25.359	8.0
25.374	8.0
25.388	6.0
25.403	4.0
25.418	5.0
25.433	15.0
25.447	9.0
25.462	7.0
25.477	11.0
25.492	10.0
25.506	7.0
25.521	7.0
25.536	6.0
25.55	3.0
25.565	7.0
25.58	10.0
25.595	11.0
25.609	8.0
25.624	3.0
25.639	5.0
25.654	6.0
25.668	9.0
25.683	6.0
25.698	8.0
25.713	13.0
25.727	9.0
25.742	6.0
25.757	13.0
25.772	6.0
25.786	6.0
25.801	10.0
25.816	10.0
25.83	13.0
25.845	11.0
25.86	7.0
25.875	7.0
25.889	6.0
25.904	7.0
25.919	6.0
25.934	9.0
25.948	6.0
25.963	13.0
25.978	12.0
25.992	6.0
26.007	9.0
26.022	7.0
26.037	6.0
26.051	10.0
26.066	18.0
26.081	7.0
26.096	13.0
26.11	7.0
26.125	8.0
26.14	7.0
26.155	9.0
26.169	8.0
26.184	11.0
26.199	12.0
26.213	10.0
26.228	8.0
26.243	11.0
26.258	7.0
26.272	7.0
26.287	6.0
26.302	9.0
26.317	10.0
26.331	12.0
26.346	6.0
26.361	11.0
26.376	8.0
26.39	18.0
26.405	14.0
26.42	12.0
26.434	7.0
26.449	8.0
26.464	9.0
26.479	11.0
26.493	7.0
26.508	5.0
26.523	5.0
26.538	11.0
26.552	15.0
26.567	9.0
26.582	14.0
26.597	12.0
26.611	5.0
26.626	6.0
26.641	15.0
26.656	10.0
26.67	7.0
26.685	2.0
26.7	9.0
26.715	15.0
26.729	8.0
26.744	7.0
26.759	13.0
26.773	17.0
26.788	9.0
26.803	11.0
26.818	12.0
26.832	11.0
26.847	8.0
26.862	13.0
26.877	7.0
26.891	7.0
26.906	11.0
26.921	12.0
26.936	4.0
26.95	15.0
26.965	5.0
26.98	12.0
26.995	10.0
27.01	8.0
27.024	13.0
27.039	14.0
27.054	14.0
27.069	12.0
27.083	10.0
27.098	14.0
27.113	12.0
27.128	13.0
27.142	9.0
27.157	9.0
27.172	6.0
27.187	13.0
27.201	13.0
27.216	10.0
27.231	8.0
27.246	5.0
27.261	7.0
27.275	13.0
27.29	10.0
27.305	11.0
27.32	12.0
27.334	14.0
27.349	10.0
27.364	12.0
27.379	15.0
27.394	16.0
27.408	8.0
27.423	14.0
27.438	8.0
27.453	11.0
27.467	12.0
27.482	10.0
27.497	12.0
27.512	8.0
27.527	5.0
27.541	5.0
27.556	13.0
27.571	7.0
27.586	9.0
27.601	8.0
27.615	14.0
27.63	12.0
27.645	10.0
27.66	17.0
27.675	11.0
27.689	8.0
27.704	11.0
27.719	19.0
27.734	13.0
27.749	14.0
27.763	22.0
27.778	17.0
27.793	15.0
27.808	18.0
27.823	23.0
27.838	17.0
27.852	28.0
27.867	22.0
27.882	21.0
27.897	26.0
27.912	15.0
27.926	23.0
27.941	19.0
27.956	17.0
27.971	19.0
27.986	19.0
28.001	22.0
28.015	14.0
28.03	16.0
28.045	20.0
28.06	12.0
28.075	13.0
28.09	19.0
28.105	11.0
28.119	15.0
28.134	13.0
28.149	10.0
28.164	8.0
28.179	8.0
28.194	11.0
28.208	9.0
28.223	9.0
28.238	14.0
28.253	10.0
28.268	8.0
28.283	12.0
28.298	10.0
28.312	6.0
28.327	13.0
28.342	11.0
28.357	9.0
28.372	11.0
28.387	12.0
28.402	11.0
28.417	9.0
28.431	13.0
28.446	6.0
28.461	11.0
28.476	7.0
28.491	12.0
28.506	6.0
28.521	12.0
28.536	7.0
28.55	10.0
28.565	9.0
28.58	11.0
28.595	10.0
28.61	15.0
28.625	11.0
28.64	15.0
28.655	6.0
28.669	12.0
28.684	9.0
28.699	9.0
28.714	9.0
28.729	7.0
28.744	13.0
28.759	12.0
28.774	15.0
28.788	9.0
28.803	9.0
28.818	6.0
28.833	7.0
28.848	6.0
28.863	7.0
28.878	9.0
28.893	11.0
28.908	13.0
28.922	14.0
28.937	9.0
28.952	7.0
28.967	10.0
28.982	8.0
28.997	9.0
29.012	10.0
29.027	9.0
29.041	6.0
29.056	9.0
29.071	16.0
29.086	9.0
29.101	10.0
29.116	17.0
29.131	11.0
29.146	10.0
29.16	7.0
29.175	10.0
29.19	10.0
29.205	11.0
29.22	10.0
29.235	10.0
29.25	10.0
29.265	8.0
29.279	17.0
29.294	13.0
29.309	22.0
29.324	7.0
29.339	13.0
29.354	14.0
29.369	13.0
29.384	19.0
29.398	21.0
29.413	12.0
29.428	17.0
29.443	16.0
29.458	22.0
29.473	26.0
29.488	26.0
29.502	29.0
29.517	26.0
29.532	36.0
29.547	39.0
29.562	48.0
29.577	39.0
29.592	40.0
29.606	51.0
29.621	57.0
29.636	52.0
29.651	48.0
29.666	53.0
29.681	42.0
29.695	32.0
29.71	24.0
29.725	37.0
29.74	28.0
29.755	32.0
29.77	37.0
29.784	35.0
29.799	30.0
29.814	25.0
29.829	35.0
29.844	27.0
29.859	18.0
29.873	24.0
29.888	20.0
29.903	14.0
29.918	12.0
29.933	14.0
29.947	9.0
29.962	11.0
29.977	5.0
29.992	8.0
30.007	7.0
30.021	10.0
30.036	12.0
30.051	14.0
30.066	10.0
30.081	8.0
30.095	13.0
30.11	4.0
30.125	13.0
30.14	9.0
30.155	13.0
30.169	8.0
30.184	13.0
30.199	15.0
30.214	13.0
30.228	13.0
30.243	7.0
30.258	10.0
30.273	10.0
30.288	9.0
30.302	12.0
30.317	10.0
30.332	8.0
30.347	11.0
30.361	15.0
30.376	12.0
30.391	10.0
30.406	13.0
30.42	13.0
30.435	11.0
30.45	7.0
30.465	11.0
30.479	11.0
30.494	5.0
30.509	8.0
30.524	15.0
30.538	4.0
30.553	6.0
30.568	11.0
30.583	15.0
30.597	7.0
30.612	6.0
30.627	13.0
30.641	11.0
30.656	5.0
30.671	9.0
30.686	8.0
30.7	3.0
30.715	8.0
30.73	12.0
30.745	7.0
30.759	11.0
30.774	8.0
30.789	5.0
30.803	13.0
30.818	13.0
30.833	11.0
30.848	6.0
30.862	11.0
30.877	5.0
30.892	12.0
30.906	11.0
30.921	18.0
30.936	8.0
30.951	14.0
30.965	14.0
30.98	10.0
30.995	10.0
31.009	18.0
31.024	12.0
31.039	9.0
31.053	18.0
31.068	15.0
31.083	13.0
31.098	12.0
31.112	20.0
31.127	21.0
31.142	26.0
31.156	30.0
31.171	23.0
31.186	27.0
31.2	34.0
31.215	36.0
31.23	26.0
31.245	39.0
31.259	41.0
31.274	39.0
31.289	31.0
31.303	46.0
31.318	49.0
31.333	32.0
31.347	27.0
31.362	22.0
31.377	23.0
31.392	22.0
31.406	22.0
31.421	28.0
31.436	25.0
31.45	31.0
31.465	24.0
31.48	14.0
31.494	19.0
31.509	16.0
31.524	21.0
31.538	13.0
31.553	16.0
31.568	13.0
31.583	18.0
31.597	9.0
31.612	10.0
31.627	14.0
31.641	15.0
31.656	10.0
31.671	13.0
31.685	8.0
31.7	7.0
31.715	4.0
31.729	11.0
31.744	7.0
31.759	5.0
31.774	9.0
31.788	9.0
31.803	8.0
31.818	7.0
31.832	6.0
31.847	8.0
31.862	10.0
31.876	12.0
31.891	13.0
31.906	11.0
31.92	11.0
31.935	8.0
31.95	11.0
31.965	15.0
31.979	7.0
31.994	9.0
32.009	9.0
32.023	4.0
32.038	14.0
32.053	7.0
32.067	13.0
32.082	10.0
32.097	9.0
32.112	4.0
32.126	10.0
32.141	5.0
32.156	7.0
32.17	7.0
32.185	13.0
32.2	9.0
32.214	10.0
32.229	7.0
32.244	8.0
32.259	10.0
32.273	9.0
32.288	9.0
32.303	8.0
32.317	9.0
32.332	8.0
32.347	6.0
32.362	13.0
32.376	10.0
32.391	10.0
32.406	6.0
32.42	8.0
32.435	7.0
32.45	13.0
32.465	11.0
32.479	5.0
32.494	7.0
32.509	11.0
32.523	4.0
32.538	8.0
32.553	7.0
32.568	12.0
32.582	14.0
32.597	11.0
32.612	11.0
32.627	9.0
32.641	13.0
32.656	15.0
32.671	16.0
32.685	12.0
32.7	14.0
32.715	14.0
32.73	21.0
32.744	22.0
32.759	17.0
32.774	28.0
32.788	22.0
32.803	32.0
32.818	27.0
32.833	20.0
32.847	26.0
32.862	30.0
32.877	26.0
32.892	21.0
32.906	31.0
32.921	21.0
32.936	24.0
32.951	17.0
32.965	23.0
32.98	21.0
32.995	17.0
33.009	17.0
33.024	12.0
33.039	15.0
33.054	18.0
33.068	19.0
33.083	14.0
33.098	19.0
33.113	13.0
33.127	10.0
33.142	9.0
33.157	14.0
33.172	10.0
33.186	10.0
33.201	16.0
33.216	14.0
33.231	15.0
33.245	11.0
33.26	7.0
33.275	12.0
33.29	10.0
33.304	10.0
33.319	7.0
33.334	14.0
33.349	12.0
33.363	11.0
33.378	8.0
33.393	11.0
33.408	10.0
33.422	9.0
33.437	6.0
33.452	9.0
33.467	10.0
33.481	8.0
33.496	9.0
33.511	7.0
33.526	11.0
33.54	7.0
33.555	8.0
33.57	11.0
33.585	12.0
33.599	13.0
33.614	13.0
33.629	6.0
33.644	6.0
33.658	11.0
33.673	6.0
33.688	11.0
33.703	9.0
33.718	7.0
33.732	9.0
33.747	7.0
33.762	7.0
33.777	8.0
33.791	10.0
33.806	10.0
33.821	9.0
33.836	7.0
33.85	10.0
33.865	16.0
33.88	5.0
33.895	12.0
33.91	3.0
33.924	9.0
33.939	9.0
33.954	11.0
33.969	8.0
33.983	7.0
33.998	9.0
34.013	8.0
34.028	9.0
34.042	14.0
34.057	11.0
34.072	6.0
34.087	14.0
34.102	11.0
34.116	10.0
34.131	10.0
34.146	10.0
34.161	6.0
34.175	7.0
34.19	23.0
34.205	9.0
34.22	13.0
34.235	17.0
34.249	16.0
34.264	18.0
34.279	24.0
34.294	8.0
34.309	19.0
34.323	13.0
34.338	18.0
34.353	14.0
34.368	10.0
34.382	9.0
34.397	3.0
34.412	13.0
34.427	14.0
34.442	10.0
34.456	17.0
34.471	10.0
34.486	6.0
34.501	12.0
34.516	12.0
34.53	13.0
34.545	10.0
34.56	11.0
34.575	11.0
34.59	7.0
34.604	11.0
34.619	7.0
34.634	9.0
34.649	11.0
34.664	6.0
34.678	12.0
34.693	11.0
34.708	11.0
34.723	12.0
34.738	6.0
34.752	13.0
34.767	14.0
34.782	7.0
34.797	5.0
34.812	13.0
34.826	9.0
34.841	5.0
34.856	9.0
34.871	11.0
34.886	9.0
34.9	8.0
34.915	11.0
34.93	6.0
34.945	10.0
34.96	8.0
34.974	8.0
34.989	9.0
35.004	8.0
35.019	14.0
35.034	10.0
35.048	11.0
35.063	7.0
35.078	6.0
35.093	8.0
35.108	13.0
35.122	3.0
35.137	11.0
35.152	6.0
35.167	11.0
35.182	6.0
35.196	3.0
35.211	3.0
35.226	7.0
35.241	11.0
35.256	9.0
35.27	5.0
35.285	8.0
35.3	16.0
35.315	9.0
35.33	10.0
35.344	8.0
35.359	6.0
35.374	10.0
35.389	5.0
35.404	8.0
35.418	8.0
35.433	7.0
35.448	12.0
35.463	7.0
35.478	5.0
35.493	11.0
35.507	6.0
35.522	7.0
35.537	9.0
35.552	11.0
35.567	9.0
35.581	7.0
35.596	8.0
35.611	16.0
35.626	13.0
35.641	5.0
35.655	10.0
35.67	16.0
35.685	17.0
35.7	13.0
35.715	15.0
35.729	13.0
35.744	15.0
35.759	16.0
35.774	22.0
35.789	13.0
35.804	22.0
35.818	20.0
35.833	16.0
35.848	18.0
35.863	9.0
35.878	27.0
35.892	12.0
35.907	15.0
35.922	12.0
35.937	9.0
35.952	17.0
35.966	19.0
35.981	8.0
35.996	20.0
36.011	14.0
36.026	11.0
36.04	11.0
36.055	12.0
36.07	11.0
36.085	15.0
36.1	10.0
36.114	11.0
36.129	10.0
36.144	7.0
36.159	9.0
36.174	8.0
36.189	7.0
36.203	12.0
36.218	7.0
36.233	10.0
36.248	6.0
36.263	7.0
36.277	10.0
36.292	11.0
36.307	7.0
36.322	6.0
36.337	8.0
36.351	7.0
36.366	5.0
36.381	4.0
36.396	11.0
36.411	11.0
36.426	8.0
36.44	7.0
36.455	9.0
36.47	9.0
36.485	8.0
36.5	5.0
36.514	7.0
36.529	9.0
36.544	6.0
36.559	9.0
36.574	15.0
36.589	8.0
36.603	8.0
36.618	6.0
36.633	8.0
36.648	8.0
36.663	7.0
36.677	10.0
36.692	13.0
36.707	5.0
36.722	10.0
36.737	5.0
36.752	10.0
36.766	8.0
36.781	3.0
36.796	3.0
36.811	7.0
36.826	4.0
36.841	6.0
36.855	9.0
36.87	12.0
36.885	5.0
36.9	9.0
36.915	12.0
36.93	5.0
36.944	10.0
36.959	4.0
36.974	6.0
36.989	14.0
37.004	10.0
37.019	11.0
37.033	10.0
37.048	8.0
37.063	10.0
37.078	16.0
37.093	24.0
37.108	19.0
37.123	18.0
37.137	26.0
37.152	25.0
37.167	33.0
37.182	19.0
37.197	33.0
37.212	19.0
37.226	22.0
37.241	18.0
37.256	31.0
37.271	21.0
37.286	15.0
37.301	14.0
37.316	15.0
37.331	15.0
37.345	19.0
37.36	14.0
37.375	19.0
37.39	19.0
37.405	13.0
37.42	16.0
37.435	11.0
37.45	13.0
37.464	12.0
37.479	16.0
37.494	13.0
37.509	9.0
37.524	13.0
37.539	7.0
37.554	11.0
37.569	6.0
37.583	11.0
37.598	6.0
37.613	13.0
37.628	7.0
37.643	7.0
37.658	7.0
37.673	2.0
37.688	7.0
37.703	11.0
37.718	4.0
37.733	8.0
37.747	5.0
37.762	12.0
37.777	4.0
37.792	13.0
37.807	4.0
37.822	7.0
37.837	9.0
37.852	8.0
37.867	7.0
37.882	8.0
37.897	5.0
37.912	11.0
37.927	7.0
37.941	5.0
37.956	7.0
37.971	4.0
37.986	7.0
38.001	6.0
38.016	2.0
38.031	7.0
38.046	9.0
38.061	5.0
38.076	5.0
38.091	8.0
38.106	9.0
38.121	3.0
38.136	7.0
38.151	6.0
38.166	4.0
38.181	5.0
38.196	6.0
38.211	10.0
38.226	6.0
38.241	7.0
38.256	7.0
38.271	2.0
38.285	9.0
38.3	10.0
38.315	4.0
38.33	7.0
38.345	8.0
38.36	5.0
38.375	8.0
38.39	5.0
38.405	5.0
38.42	4.0
38.435	0.0
38.45	4.0
38.465	12.0
38.48	12.0
38.495	5.0
38.51	6.0
38.525	6.0
38.54	9.0
38.555	8.0
38.57	5.0
38.585	10.0
38.6	4.0
38.615	6.0
38.63	5.0
38.645	5.0
38.66	7.0
38.675	3.0
38.69	5.0
38.705	3.0
38.72	6.0
38.735	6.0
38.75	3.0
38.765	5.0
38.78	3.0
38.795	7.0
38.81	6.0
38.825	3.0
38.84	13.0
38.855	3.0
38.87	7.0
38.885	5.0
38.9	9.0
38.915	5.0
38.93	10.0
38.945	8.0
38.96	3.0
38.975	5.0
38.99	8.0
39.005	9.0
39.02	5.0
39.035	4.0
39.05	8.0
39.065	4.0
39.08	4.0
39.095	7.0
39.11	9.0
39.125	2.0
39.14	4.0
39.155	7.0
39.17	4.0
39.185	6.0
39.2	6.0
39.215	6.0
39.23	6.0
39.245	3.0
39.26	7.0
39.275	8.0
39.29	1.0
39.305	5.0
39.32	3.0
39.335	6.0
39.35	5.0
39.365	8.0
39.38	7.0
39.395	7.0
39.409	6.0
39.424	7.0
39.439	7.0
39.454	2.0
39.469	3.0
39.484	10.0
39.499	5.0
39.514	1.0
39.529	4.0
39.544	6.0
39.559	12.0
39.574	10.0
39.589	5.0
39.604	8.0
39.619	4.0
39.634	10.0
39.649	7.0
39.664	3.0
39.678	6.0
39.693	7.0
39.708	5.0
39.723	5.0
39.738	4.0
39.753	5.0
39.768	2.0
39.783	10.0
39.798	6.0
39.813	8.0
39.827	10.0
39.842	9.0
39.857	7.0
39.872	8.0
39.887	8.0
39.902	6.0
39.917	8.0
39.932	16.0
39.947	6.0
39.961	9.0
39.976	7.0
39.991	4.0
40.006	4.0
40.021	5.0
40.036	2.0
40.051	10.0
40.065	7.0
40.08	8.0
40.095	8.0
40.11	5.0
40.125	5.0
40.14	9.0
40.154	12.0
40.169	6.0
40.184	7.0
40.199	6.0
40.214	8.0
40.228	5.0
40.243	11.0
40.258	3.0
40.273	4.0
40.288	7.0
40.302	1.0
40.317	3.0
40.332	4.0
40.347	5.0
40.362	4.0
40.376	8.0
40.391	2.0
40.406	5.0
40.421	8.0
40.436	4.0
40.45	5.0
40.465	9.0
40.48	9.0
40.495	6.0
40.509	5.0
40.524	5.0
40.539	5.0
40.554	2.0
40.568	7.0
40.583	6.0
40.598	11.0
40.613	6.0
40.627	1.0
40.642	5.0
40.657	2.0
40.672	6.0
40.686	7.0
40.701	5.0
40.716	3.0
40.731	2.0
40.745	10.0
40.76	6.0
40.775	7.0
40.79	15.0
40.804	4.0
40.819	3.0
40.834	2.0
40.849	9.0
40.863	7.0
40.878	7.0
40.893	9.0
40.907	6.0
40.922	5.0
40.937	8.0
40.952	9.0
40.966	8.0
40.981	7.0
40.996	8.0
41.011	13.0
41.025	6.0
41.04	13.0
41.055	13.0
41.069	10.0
41.084	11.0
41.099	18.0
41.114	12.0
41.128	26.0
41.143	20.0
41.158	19.0
41.173	21.0
41.187	10.0
41.202	10.0
41.217	13.0
41.231	14.0
41.246	17.0
41.261	9.0
41.276	14.0
41.29	8.0
41.305	12.0
41.32	6.0
41.335	9.0
41.349	12.0
41.364	8.0
41.379	13.0
41.393	19.0
41.408	9.0
41.423	8.0
41.438	13.0
41.452	12.0
41.467	18.0
41.482	6.0
41.497	5.0
41.511	6.0
41.526	14.0
41.541	6.0
41.556	9.0
41.57	4.0
41.585	4.0
41.6	6.0
41.615	3.0
41.629	6.0
41.644	9.0
41.659	2.0
41.674	11.0
41.688	4.0
41.703	1.0
41.718	7.0
41.733	4.0
41.747	3.0
41.762	4.0
41.777	4.0
41.792	5.0
41.806	4.0
41.821	10.0
41.836	5.0
41.851	4.0
41.866	7.0
41.88	4.0
41.895	2.0
41.91	8.0
41.925	7.0
41.939	5.0
41.954	3.0
41.969	7.0
41.984	8.0
41.999	9.0
42.013	5.0
42.028	5.0
42.043	8.0
42.058	8.0
42.073	13.0
42.088	5.0
42.102	5.0
42.117	9.0
42.132	7.0
42.147	6.0
42.162	6.0
42.176	6.0
42.191	6.0
42.206	3.0
42.221	5.0
42.236	7.0
42.251	11.0
42.266	10.0
42.28	6.0
42.295	8.0
42.31	15.0
42.325	18.0
42.34	13.0
42.355	12.0
42.369	12.0
42.384	14.0
42.399	12.0
42.414	21.0
42.429	16.0
42.444	11.0
42.459	18.0
42.474	10.0
42.488	9.0
42.503	6.0
42.518	5.0
42.533	6.0
42.548	9.0
42.563	10.0
42.578	6.0
42.593	15.0
42.608	16.0
42.622	10.0
42.637	11.0
42.652	7.0
42.667	14.0
42.682	16.0
42.697	17.0
42.712	9.0
42.727	7.0
42.742	7.0
42.757	6.0
42.772	3.0
42.786	11.0
42.801	5.0
42.816	3.0
42.831	7.0
42.846	8.0
42.861	5.0
42.876	2.0
42.891	3.0
42.906	3.0
42.921	9.0
42.936	4.0
42.951	2.0
42.966	3.0
42.981	9.0
42.996	7.0
43.011	2.0
43.025	10.0
43.04	2.0
43.055	5.0
43.07	5.0
43.085	5.0
43.1	1.0
43.115	6.0
43.13	5.0
43.145	7.0
43.16	6.0
43.175	6.0
43.19	5.0
43.205	2.0
43.22	7.0
43.235	4.0
43.25	7.0
43.265	4.0
43.28	2.0
43.295	5.0
43.31	3.0
43.325	5.0
43.34	3.0
43.355	7.0
43.37	4.0
43.385	10.0
43.4	3.0
43.415	6.0
43.43	3.0
43.445	5.0
43.46	7.0
43.475	8.0
43.49	7.0
43.505	8.0
43.52	9.0
43.535	5.0
43.55	12.0
43.565	8.0
43.58	10.0
43.595	12.0
43.61	13.0
43.625	7.0
43.64	10.0
43.655	8.0
43.67	6.0
43.685	7.0
43.7	7.0
43.715	7.0
43.73	9.0
43.745	3.0
43.76	3.0
43.775	12.0
43.79	12.0
43.805	8.0
43.82	8.0
43.835	7.0
43.85	9.0
43.865	5.0
43.88	13.0
43.895	12.0
43.91	4.0
43.925	8.0
43.94	6.0
43.955	5.0
43.97	5.0
43.985	5.0
44.0	2.0
44.015	3.0
44.03	6.0
44.045	10.0
44.061	7.0
44.076	3.0
44.091	10.0
44.106	2.0
44.121	8.0
44.136	8.0
44.151	5.0
44.166	3.0
44.181	5.0
44.196	4.0
44.211	2.0
44.226	4.0
44.241	6.0
44.256	4.0
44.271	1.0
44.286	5.0
44.301	3.0
44.316	2.0
44.331	3.0
44.346	8.0
44.361	6.0
44.377	5.0
44.392	6.0
44.407	3.0
44.422	2.0
44.437	4.0
44.452	4.0
44.467	5.0
44.482	6.0
44.497	6.0
44.512	10.0
44.527	2.0
44.542	6.0
44.557	6.0
44.572	6.0
44.587	3.0
44.602	3.0
44.617	9.0
44.632	2.0
44.647	5.0
44.663	10.0
44.678	6.0
44.693	3.0
44.708	7.0
44.723	6.0
44.738	9.0
44.753	13.0
44.768	4.0
44.783	15.0
44.798	9.0
44.813	14.0
44.828	9.0
44.843	10.0
44.858	15.0
44.873	9.0
44.888	11.0
44.903	4.0
44.918	9.0
44.933	9.0
44.948	4.0
44.964	5.0
44.979	7.0
44.994	6.0
45.009	8.0
45.024	9.0
45.039	11.0
45.054	3.0
45.069	5.0
45.084	8.0
45.099	8.0
45.114	10.0
45.129	10.0
45.144	4.0
45.159	7.0
45.174	5.0
45.189	9.0
45.204	7.0
45.219	2.0
45.234	9.0
45.249	4.0
45.264	3.0
45.279	6.0
45.294	5.0
45.309	10.0
45.324	3.0
45.339	5.0
45.354	7.0
45.369	4.0
45.384	2.0
45.399	5.0
45.414	3.0
45.429	2.0
45.444	3.0
45.459	2.0
45.474	7.0
45.489	7.0
45.504	4.0
45.519	3.0
45.534	4.0
45.549	4.0
45.564	5.0
45.579	5.0
45.594	6.0
45.609	8.0
45.624	3.0
45.639	9.0
45.654	4.0
45.669	7.0
45.684	4.0
45.699	3.0
45.714	5.0
45.729	6.0
45.744	4.0
45.759	4.0
45.774	6.0
45.789	8.0
45.804	9.0
45.819	8.0
45.834	7.0
45.849	14.0
45.864	5.0
45.879	7.0
45.894	6.0
45.909	12.0
45.924	16.0
45.939	15.0
45.954	12.0
45.969	19.0
45.984	11.0
45.998	13.0
46.013	17.0
46.028	16.0
46.043	5.0
46.058	16.0
46.073	13.0
46.088	10.0
46.103	5.0
46.118	12.0
46.133	8.0
46.148	6.0
46.163	9.0
46.178	6.0
46.192	5.0
46.207	12.0
46.222	8.0
46.237	13.0
46.252	10.0
46.267	9.0
46.282	12.0
46.297	12.0
46.312	4.0
46.327	6.0
46.341	11.0
46.356	4.0
46.371	3.0
46.386	5.0
46.401	7.0
46.416	6.0
46.431	10.0
46.446	6.0
46.46	1.0
46.475	3.0
46.49	7.0
46.505	3.0
46.52	4.0
46.535	6.0
46.55	3.0
46.564	3.0
46.579	3.0
46.594	3.0
46.609	4.0
46.624	4.0
46.639	4.0
46.654	5.0
46.668	6.0
46.683	8.0
46.698	4.0
46.713	4.0
46.728	6.0
46.743	4.0
46.758	9.0
46.772	0.0
46.787	1.0
46.802	6.0
46.817	8.0
46.832	6.0
46.847	4.0
46.861	3.0
46.876	2.0
46.891	4.0
46.906	4.0
46.921	10.0
46.936	7.0
46.95	2.0
46.965	4.0
46.98	2.0
46.995	3.0
47.01	7.0
47.025	6.0
47.039	6.0
47.054	9.0
47.069	14.0
47.084	8.0
47.099	8.0
47.113	8.0
47.128	10.0
47.143	9.0
47.158	10.0
47.173	6.0
47.188	9.0
47.202	12.0
47.217	9.0
47.232	4.0
47.247	3.0
47.262	6.0
47.277	3.0
47.291	10.0
47.306	6.0
47.321	3.0
47.336	4.0
47.351	4.0
47.365	4.0
47.38	7.0
47.395	5.0
47.41	8.0
47.425	10.0
47.44	6.0
47.454	4.0
47.469	8.0
47.484	10.0
47.499	11.0
47.514	8.0
47.528	5.0
47.543	6.0
47.558	5.0
47.573	11.0
47.588	5.0
47.603	5.0
47.617	2.0
47.632	4.0
47.647	7.0
47.662	0.0
47.677	1.0
47.691	2.0
47.706	8.0
47.721	2.0
47.736	9.0
47.751	5.0
47.766	2.0
47.78	7.0
47.795	3.0
47.81	9.0
47.825	4.0
47.84	4.0
47.855	2.0
47.869	6.0
47.884	10.0
47.899	8.0
47.914	10.0
47.929	6.0
47.944	7.0
47.958	1.0
47.973	2.0
47.988	5.0
48.003	5.0
48.018	8.0
48.033	2.0
48.047	2.0
48.062	12.0
48.077	1.0
48.092	5.0
48.107	3.0
48.122	2.0
48.137	2.0
48.151	2.0
48.166	4.0
48.181	6.0
48.196	5.0
48.211	7.0
48.226	2.0
48.241	3.0
48.255	6.0
48.27	5.0
48.285	5.0
48.3	3.0
48.315	6.0
48.33	3.0
48.345	4.0
48.359	6.0
48.374	3.0
48.389	9.0
48.404	7.0
48.419	4.0
48.434	5.0
48.449	5.0
48.464	4.0
48.478	1.0
48.493	4.0
48.508	4.0
48.523	5.0
48.538	8.0
48.553	3.0
48.568	5.0
48.583	3.0
48.597	3.0
48.612	2.0
48.627	9.0
48.642	2.0
48.657	7.0
48.672	6.0
48.687	5.0
48.702	7.0
48.717	2.0
48.731	8.0
48.746	5.0
48.761	6.0
48.776	3.0
48.791	4.0
48.806	3.0
48.821	6.0
48.836	2.0
48.851	2.0
48.866	3.0
48.88	3.0
48.895	12.0
48.91	4.0
48.925	12.0
48.94	3.0
48.955	6.0
48.97	8.0
48.985	8.0
49.0	8.0
49.015	3.0
49.03	7.0
49.044	2.0
49.059	4.0
49.074	7.0
49.089	9.0
49.104	1.0
49.119	2.0
49.134	1.0
49.149	2.0
49.164	9.0
49.179	4.0
49.194	8.0
49.209	9.0
49.224	5.0
49.238	8.0
49.253	4.0
49.268	1.0
49.283	8.0
49.298	7.0
49.313	6.0
49.328	11.0
49.343	8.0
49.358	8.0
49.373	4.0
49.388	11.0
49.403	8.0
49.418	3.0
49.433	6.0
49.448	3.0
49.463	6.0
49.478	5.0
49.492	5.0
49.507	5.0
49.522	8.0
49.537	3.0
49.552	6.0
49.567	4.0
49.582	6.0
49.597	7.0
49.612	7.0
49.627	4.0
49.642	4.0
49.657	10.0
49.672	7.0
49.687	3.0
49.702	3.0
49.717	5.0
49.732	4.0
49.747	7.0
49.762	3.0
49.777	7.0
49.792	4.0
49.807	4.0
49.822	2.0
49.837	2.0
49.852	1.0
49.867	2.0
49.882	8.0
49.897	5.0
49.912	5.0
49.927	7.0
49.942	3.0
49.957	4.0
49.971	3.0
49.986	7.0
50.001	7.0
50.016	4.0
50.031	8.0
50.046	6.0
50.061	1.0
50.076	4.0
50.091	2.0
50.106	5.0
50.121	6.0
50.136	4.0
50.151	2.0
50.166	5.0
50.181	4.0
50.196	2.0
50.211	7.0
50.226	4.0
50.241	2.0
50.256	3.0
50.271	3.0
50.286	4.0
50.302	6.0
50.317	7.0
50.332	3.0
50.347	4.0
50.362	10.0
50.377	5.0
50.392	9.0
50.407	8.0
50.422	7.0
50.437	10.0
50.452	19.0
50.467	9.0
50.482	9.0
50.497	11.0
50.512	5.0
50.527	9.0
50.542	8.0
50.557	4.0
50.572	5.0
50.587	2.0
50.602	4.0
50.617	7.0
50.632	7.0
50.647	3.0
50.662	6.0
50.677	3.0
50.692	7.0
50.707	5.0
50.722	7.0
50.737	2.0
50.752	1.0
50.767	7.0
50.782	5.0
50.797	5.0
50.812	7.0
50.828	9.0
50.843	7.0
50.858	5.0
50.873	10.0
50.888	2.0
50.903	2.0
50.918	4.0
50.933	6.0
50.948	4.0
50.963	9.0
50.978	2.0
50.993	7.0
51.008	5.0
51.023	9.0
51.038	6.0
51.053	4.0
51.068	3.0
51.083	1.0
51.098	9.0
51.114	7.0
51.129	5.0
51.144	4.0
51.159	1.0
51.174	7.0
51.189	5.0
51.204	3.0
51.219	6.0
51.234	3.0
51.249	8.0
51.264	10.0
51.279	4.0
51.294	1.0
51.309	9.0
51.324	5.0
51.34	6.0
51.355	7.0
51.37	7.0
51.385	9.0
51.4	6.0
51.415	8.0
51.43	5.0
51.445	5.0
51.46	12.0
51.475	16.0
51.49	19.0
51.505	12.0
51.52	16.0
51.535	12.0
51.551	17.0
51.566	10.0
51.581	10.0
51.596	9.0
51.611	8.0
51.626	6.0
51.641	11.0
51.656	4.0
51.671	6.0
51.686	6.0
51.701	6.0
51.716	6.0
51.732	6.0
51.747	8.0
51.762	7.0
51.777	11.0
51.792	14.0
51.807	6.0
51.822	13.0
51.837	16.0
51.852	7.0
51.867	10.0
51.882	13.0
51.898	3.0
51.913	8.0
51.928	9.0
51.943	6.0
51.958	7.0
51.973	5.0
51.988	12.0
52.003	4.0
52.018	4.0
52.033	5.0
52.048	6.0
52.064	9.0
52.079	3.0
52.094	4.0
52.109	2.0
52.124	4.0
52.139	6.0
52.154	7.0
52.169	8.0
52.184	4.0
52.199	9.0
52.215	5.0
52.23	1.0
52.245	4.0
52.26	6.0
52.275	5.0
52.29	6.0
52.305	2.0
52.32	5.0
52.335	7.0
52.35	6.0
52.366	7.0
52.381	3.0
52.396	3.0
52.411	5.0
52.426	7.0
52.441	7.0
52.456	2.0
52.471	5.0
52.486	5.0
52.502	9.0
52.517	6.0
52.532	4.0
52.547	8.0
52.562	9.0
52.577	11.0
52.592	8.0
52.607	13.0
52.622	9.0
52.637	10.0
52.653	5.0
52.668	6.0
52.683	7.0
52.698	7.0
52.713	4.0
52.728	5.0
52.743	4.0
52.758	1.0
52.774	2.0
52.789	6.0
52.804	5.0
52.819	7.0
52.834	9.0
52.849	7.0
52.864	5.0
52.879	6.0
52.894	6.0
52.91	10.0
52.925	5.0
52.94	5.0
52.955	6.0
52.97	7.0
52.985	7.0
53.0	5.0
53.015	5.0
53.031	8.0
53.046	9.0
53.061	5.0
53.076	5.0
53.091	7.0
53.106	7.0
53.121	7.0
53.136	4.0
53.152	2.0
53.167	3.0
53.182	8.0
53.197	3.0
53.212	5.0
53.227	3.0
53.242	2.0
53.257	10.0
53.273	2.0
53.288	6.0
53.303	7.0
53.318	4.0
53.333	5.0
53.348	5.0
53.363	4.0
53.379	4.0
53.394	4.0
53.409	8.0
53.424	9.0
53.439	3.0
53.454	10.0
53.469	2.0
53.484	6.0
53.5	4.0
53.515	4.0
53.53	2.0
53.545	5.0
53.56	6.0
53.575	3.0
53.59	5.0
53.606	4.0
53.621	8.0
53.636	3.0
53.651	5.0
53.666	6.0
53.681	3.0
53.696	2.0
53.712	5.0
53.727	4.0
53.742	6.0
53.757	0.0
53.772	7.0
53.787	7.0
53.802	4.0
53.818	4.0
53.833	6.0
53.848	4.0
53.863	3.0
53.878	7.0
53.893	1.0
53.909	4.0
53.924	8.0
53.939	5.0
53.954	2.0
53.969	4.0
53.984	4.0
53.999	9.0
54.015	6.0
54.03	6.0
54.045	3.0
54.06	6.0
54.075	2.0
54.09	4.0
54.106	6.0
54.121	7.0
54.136	6.0
54.151	3.0
54.166	4.0
54.181	5.0
54.197	6.0
54.212	5.0
54.227	3.0
54.242	5.0
54.257	5.0
54.272	5.0
54.288	4.0
54.303	3.0
54.318	6.0
54.333	3.0
54.348	9.0
54.363	9.0
54.379	2.0
54.394	4.0
54.409	2.0
54.424	6.0
54.439	2.0
54.454	4.0
54.47	4.0
54.485	4.0
54.5	4.0
54.515	7.0
54.53	5.0
54.545	4.0
54.561	4.0
54.576	8.0
54.591	5.0
54.606	15.0
54.621	8.0
54.636	17.0
54.652	15.0
54.667	11.0
54.682	12.0
54.697	11.0
54.712	12.0
54.727	10.0
54.743	7.0
54.758	4.0
54.773	3.0
54.788	9.0
54.803	0.0
54.819	8.0
54.834	7.0
54.849	3.0
54.864	5.0
54.879	5.0
54.894	7.0
54.91	5.0
54.925	9.0
54.94	13.0
54.955	9.0
54.97	7.0
54.985	10.0
55.001	6.0
55.016	14.0
55.031	13.0
55.046	8.0
55.061	9.0
55.077	9.0
55.092	6.0
55.107	7.0
55.122	4.0
55.137	4.0
55.152	5.0
55.168	5.0
55.183	3.0
55.198	1.0
55.213	4.0
55.228	5.0
55.243	3.0
55.259	4.0
55.274	6.0
55.289	1.0
55.304	4.0
55.319	6.0
55.335	4.0
55.35	5.0
55.365	7.0
55.38	2.0
55.395	7.0
55.41	7.0
55.426	5.0
55.441	1.0
55.456	2.0
55.471	6.0
55.486	3.0
55.501	5.0
55.517	3.0
55.532	2.0
55.547	7.0
55.562	7.0
55.577	5.0
55.592	3.0
55.608	5.0
55.623	5.0
55.638	9.0
55.653	4.0
55.668	5.0
55.683	8.0
55.699	6.0
55.714	11.0
55.729	6.0
55.744	6.0
55.759	4.0
55.774	2.0
55.79	8.0
55.805	7.0
55.82	3.0
55.835	6.0
55.85	4.0
55.865	3.0
55.881	5.0
55.896	5.0
55.911	7.0
55.926	4.0
55.941	3.0
55.956	2.0
55.972	9.0
55.987	3.0
56.002	8.0
56.017	5.0
56.032	12.0
56.047	7.0
56.063	7.0
56.078	3.0
56.093	7.0
56.108	7.0
56.123	1.0
56.138	2.0
56.154	4.0
56.169	3.0
56.184	6.0
56.199	1.0
56.214	1.0
56.229	6.0
56.244	4.0
56.26	3.0
56.275	4.0
56.29	2.0
56.305	1.0
56.32	6.0
56.335	4.0
56.351	3.0
56.366	5.0
56.381	2.0
56.396	5.0
56.411	6.0
56.426	3.0
56.441	1.0
56.457	8.0
56.472	3.0
56.487	5.0
56.502	4.0
56.517	7.0
56.532	3.0
56.547	5.0
56.563	3.0
56.578	4.0
56.593	4.0
56.608	4.0
56.623	5.0
56.638	6.0
56.653	4.0
56.668	6.0
56.684	2.0
56.699	3.0
56.714	3.0
56.729	7.0
56.744	6.0
56.759	6.0
56.774	9.0
56.79	9.0
56.805	6.0
56.82	7.0
56.835	6.0
56.85	4.0
56.865	3.0
56.88	4.0
56.895	3.0
56.911	3.0
56.926	5.0
56.941	3.0
56.956	5.0
56.971	3.0
56.986	6.0
57.001	10.0
57.016	5.0
57.031	6.0
57.047	4.0
57.062	2.0
57.077	7.0
57.092	2.0
57.107	3.0
57.122	8.0
57.137	9.0
57.152	4.0
57.167	7.0
57.183	5.0
57.198	4.0
57.213	3.0
57.228	2.0
57.243	4.0
57.258	6.0
57.273	5.0
57.288	0.0
57.303	1.0
57.318	2.0
57.334	4.0
57.349	4.0
57.364	1.0
57.379	4.0
57.394	6.0
57.409	2.0
57.424	4.0
57.439	4.0
57.454	3.0
57.469	5.0
57.484	4.0
57.5	9.0
57.515	3.0
57.53	1.0
57.545	6.0
57.56	4.0
57.575	5.0
57.59	4.0
57.605	8.0
57.62	0.0
57.635	2.0
57.65	2.0
57.665	4.0
57.68	1.0
57.696	8.0
57.711	4.0
57.726	8.0
57.741	6.0
57.756	4.0
57.771	4.0
57.786	2.0
57.801	3.0
57.816	5.0
57.831	4.0
57.846	3.0
57.861	4.0
57.876	6.0
57.891	3.0
57.906	3.0
57.921	2.0
57.937	4.0
57.952	7.0
57.967	2.0
57.982	5.0
57.997	7.0
58.012	5.0
58.027	3.0
58.042	4.0
58.057	6.0
58.072	9.0
58.087	3.0
58.102	6.0
58.117	7.0
58.132	1.0
58.147	3.0
58.162	3.0
58.177	2.0
58.192	2.0
58.207	8.0
58.222	2.0
58.237	6.0
58.252	3.0
58.267	2.0
58.282	4.0
58.297	5.0
58.312	6.0
58.327	4.0
58.342	2.0
58.357	5.0
58.372	7.0
58.387	3.0
58.402	4.0
58.418	1.0
58.433	4.0
58.448	5.0
58.463	3.0
58.478	3.0
58.493	9.0
58.508	5.0
58.523	7.0
58.538	3.0
58.553	3.0
58.568	4.0
58.583	10.0
58.598	3.0
58.613	4.0
58.628	8.0
58.643	6.0
58.658	10.0
58.673	7.0
58.688	10.0
58.703	6.0
58.718	9.0
58.733	4.0
58.748	7.0
58.763	4.0
58.778	5.0
58.793	4.0
58.808	5.0
58.823	2.0
58.838	4.0
58.853	1.0
58.868	5.0
58.883	2.0
58.898	2.0
58.913	5.0
58.928	4.0
58.942	8.0
58.957	6.0
58.972	6.0
58.987	11.0
59.002	6.0
59.017	5.0
59.032	6.0
59.047	7.0
59.062	6.0
59.077	9.0
59.092	4.0
59.107	7.0
59.122	5.0
59.137	8.0
59.152	7.0
59.167	5.0
59.182	2.0
59.197	3.0
59.212	3.0
59.227	2.0
59.242	3.0
59.257	3.0
59.272	6.0
59.287	5.0
59.302	4.0
59.317	6.0
59.332	6.0
59.347	2.0
59.362	2.0
59.377	0.0
59.392	5.0
59.407	9.0
59.422	1.0
59.437	6.0
59.452	2.0
59.467	5.0
59.482	2.0
59.497	3.0
59.512	2.0
59.527	6.0
59.542	8.0
59.557	6.0
59.572	14.0
59.587	5.0
59.602	11.0
59.617	10.0
59.632	8.0
59.647	6.0
59.661	6.0
59.676	8.0
59.691	4.0
59.706	4.0
59.721	7.0
59.736	1.0
59.751	3.0
59.766	4.0
59.781	5.0
59.796	7.0
59.811	4.0
59.826	6.0
59.841	5.0
59.856	1.0
59.871	5.0
59.886	3.0
59.901	5.0
59.916	4.0
59.931	1.0
59.946	2.0
59.961	7.0
59.976	4.0
59.991	10.0
60.006	7.0
60.021	11.0
60.036	4.0
60.051	7.0
60.066	8.0
60.081	6.0
60.096	8.0
60.111	5.0
60.126	1.0
60.141	2.0
60.156	6.0
60.171	4.0
60.186	8.0
60.201	1.0
60.216	3.0
60.231	5.0
60.246	3.0
60.261	4.0
60.276	3.0
60.291	5.0
60.306	4.0
60.321	0.0
60.336	5.0
60.35	3.0
60.365	3.0
60.38	3.0
60.395	3.0
60.41	4.0
60.425	3.0
60.44	4.0
60.455	7.0
60.47	4.0
60.485	2.0
60.5	6.0
60.515	11.0
60.53	6.0
60.545	7.0
60.56	8.0
60.575	9.0
60.59	7.0
60.605	6.0
60.62	8.0
60.635	5.0
60.65	5.0
60.665	5.0
60.68	4.0
60.695	5.0
60.71	4.0
60.725	7.0
60.74	4.0
60.755	1.0
60.77	2.0
60.785	8.0
60.8	3.0
60.815	5.0
60.83	4.0
60.845	4.0
60.86	5.0
60.875	6.0
60.89	8.0
60.905	8.0
60.92	8.0
60.935	8.0
60.95	4.0
60.965	2.0
60.98	7.0
60.995	7.0
61.01	3.0
61.025	4.0
61.04	5.0
61.055	2.0
61.07	5.0
61.085	1.0
61.1	4.0
61.115	2.0
61.13	2.0
61.145	6.0
61.16	5.0
61.175	4.0
61.191	4.0
61.206	4.0
61.221	7.0
61.236	2.0
61.251	3.0
61.266	3.0
61.281	1.0
61.296	6.0
61.311	2.0
61.326	1.0
61.341	3.0
61.356	3.0
61.371	4.0
61.386	9.0
61.401	4.0
61.416	1.0
61.431	5.0
61.446	4.0
61.461	4.0
61.476	8.0
61.491	6.0
61.506	4.0
61.521	5.0
61.536	5.0
61.551	5.0
61.566	7.0
61.581	5.0
61.596	2.0
61.611	5.0
61.626	6.0
61.641	4.0
61.656	3.0
61.672	6.0
61.687	2.0
61.702	8.0
61.717	4.0
61.732	4.0
61.747	7.0
61.762	5.0
61.777	3.0
61.792	1.0
61.807	7.0
61.822	2.0
61.837	2.0
61.852	5.0
61.867	6.0
61.882	6.0
61.897	7.0
61.912	5.0
61.927	5.0
61.943	1.0
61.958	10.0
61.973	2.0
61.988	5.0
62.003	5.0
62.018	5.0
62.033	2.0
62.048	5.0
62.063	2.0
62.078	5.0
62.093	5.0
62.108	4.0
62.123	2.0
62.138	6.0
62.153	2.0
62.169	4.0
62.184	5.0
62.199	4.0
62.214	1.0
62.229	3.0
62.244	2.0
62.259	5.0
62.274	5.0
62.289	2.0
62.304	2.0
62.319	3.0
62.335	2.0
62.35	1.0
62.365	5.0
62.38	2.0
62.395	2.0
62.41	6.0
62.425	5.0
62.44	3.0
62.455	7.0
62.47	3.0
62.485	5.0
62.501	8.0
62.516	3.0
62.531	4.0
62.546	4.0
62.561	3.0
62.576	9.0
62.591	6.0
62.606	4.0
62.621	4.0
62.636	1.0
62.652	3.0
62.667	3.0
62.682	4.0
62.697	2.0
62.712	5.0
62.727	2.0
62.742	3.0
62.757	4.0
62.772	4.0
62.787	5.0
62.803	2.0
62.818	4.0
62.833	4.0
62.848	2.0
62.863	2.0
62.878	5.0
62.893	2.0
62.908	4.0
62.923	4.0
62.939	4.0
62.954	3.0
62.969	5.0
62.984	3.0
62.999	2.0
63.014	2.0
63.029	4.0
63.044	3.0
63.059	2.0
63.074	2.0
63.09	2.0
63.105	4.0
63.12	5.0
63.135	2.0
63.15	3.0
63.165	4.0
63.18	2.0
63.195	4.0
63.21	3.0
63.226	1.0
63.241	5.0
63.256	6.0
63.271	1.0
63.286	6.0
63.301	3.0
63.316	3.0
63.331	3.0
63.346	5.0
63.362	8.0
63.377	4.0
63.392	7.0
63.407	4.0
63.422	10.0
63.437	5.0
63.452	6.0
63.467	7.0
63.482	9.0
63.497	2.0
63.513	5.0
63.528	3.0
63.543	4.0
63.558	6.0
63.573	4.0
63.588	9.0
63.603	4.0
63.618	4.0
63.633	8.0
63.648	3.0
63.664	4.0
63.679	8.0
63.694	6.0
63.709	6.0
63.724	0.0
63.739	3.0
63.754	8.0
63.769	4.0
63.784	2.0
63.799	9.0
63.814	1.0
63.83	5.0
63.845	8.0
63.86	5.0
63.875	5.0
63.89	5.0
63.905	3.0
63.92	8.0
63.935	1.0
63.95	5.0
63.965	5.0
63.98	1.0
63.996	5.0
64.011	3.0
64.026	4.0
64.041	5.0
64.056	5.0
64.071	2.0
64.086	7.0
64.101	1.0
64.116	4.0
64.131	4.0
64.146	2.0
64.161	0.0
64.176	3.0
64.191	5.0
64.207	1.0
64.222	6.0
64.237	7.0
64.252	4.0
64.267	5.0
64.282	5.0
64.297	3.0
64.312	3.0
64.327	4.0
64.342	4.0
64.357	4.0
64.372	4.0
64.387	5.0
64.402	3.0
64.417	4.0
64.433	2.0
64.448	4.0
64.463	4.0
64.478	4.0
64.493	5.0
64.508	4.0
64.523	3.0
64.538	1.0
64.553	4.0
64.568	4.0
64.583	1.0
64.598	3.0
64.613	2.0
64.628	3.0
64.643	5.0
64.658	3.0
64.673	3.0
64.688	1.0
64.703	3.0
64.718	2.0
64.734	4.0
64.749	3.0
64.764	2.0
64.779	8.0
64.794	2.0
64.809	2.0
64.824	2.0
64.839	2.0
64.854	4.0
64.869	5.0
64.884	3.0
64.899	2.0
64.914	0.0
64.929	7.0
64.944	3.0
64.959	2.0
64.974	3.0
64.989	2.0
65.004	4.0
65.019	5.0
65.034	1.0
65.049	3.0
65.064	3.0
65.079	5.0
65.094	5.0
65.109	2.0
65.125	3.0
65.14	6.0
65.155	2.0
65.17	6.0
65.185	1.0
65.2	5.0
65.215	5.0
65.23	5.0
65.245	3.0
65.26	4.0
65.275	4.0
65.29	5.0
65.305	2.0
65.32	2.0
65.335	9.0
65.35	5.0
65.365	7.0
65.38	2.0
65.395	1.0
65.41	2.0
65.425	5.0
65.44	5.0
65.455	3.0
65.47	5.0
65.485	5.0
65.5	3.0
65.515	4.0
65.53	4.0
65.545	2.0
65.56	3.0
65.575	4.0
65.59	8.0
65.605	3.0
65.62	7.0
65.635	2.0
65.65	6.0
65.666	3.0
65.681	8.0
65.696	6.0
65.711	7.0
65.726	4.0
65.741	3.0
65.756	6.0
65.771	4.0
65.786	8.0
65.801	5.0
65.816	4.0
65.831	4.0
65.846	6.0
65.861	2.0
65.876	3.0
65.891	0.0
65.906	3.0
65.921	3.0
65.936	4.0
65.951	3.0
65.966	5.0
65.981	3.0
65.996	1.0
66.011	6.0
66.026	3.0
66.041	9.0
66.056	3.0
66.071	3.0
66.086	8.0
66.101	5.0
66.116	3.0
66.131	10.0
66.146	4.0
66.161	13.0
66.176	9.0
66.191	5.0
66.206	8.0
66.221	5.0
66.236	7.0
66.251	12.0
66.266	5.0
66.281	4.0
66.296	6.0
66.311	6.0
66.327	3.0
66.342	6.0
66.357	2.0
66.372	1.0
66.387	2.0
66.402	2.0
66.417	2.0
66.432	2.0
66.447	3.0
66.462	5.0
66.477	2.0
66.492	4.0
66.507	1.0
66.522	4.0
66.537	10.0
66.552	4.0
66.567	6.0
66.582	8.0
66.597	6.0
66.612	3.0
66.627	5.0
66.642	5.0
66.657	8.0
66.672	5.0
66.687	4.0
66.702	5.0
66.717	5.0
66.732	5.0
66.747	1.0
66.762	5.0
66.777	3.0
66.792	4.0
66.807	3.0
66.822	1.0
66.837	3.0
66.853	1.0
66.868	3.0
66.883	1.0
66.898	5.0
66.913	6.0
66.928	5.0
66.943	2.0
66.958	3.0
66.973	3.0
66.988	6.0
67.003	5.0
67.018	4.0
67.033	1.0
67.048	4.0
67.063	6.0
67.078	2.0
67.093	5.0
67.108	5.0
67.123	3.0
67.138	3.0
67.153	5.0
67.168	2.0
67.183	2.0
67.198	4.0
67.214	3.0
67.229	4.0
67.244	1.0
67.259	3.0
67.274	3.0
67.289	6.0
67.304	2.0
67.319	1.0
67.334	2.0
67.349	3.0
67.364	1.0
67.379	4.0
67.394	4.0
67.409	3.0
67.424	4.0
67.439	7.0
67.454	4.0
67.469	1.0
67.484	3.0
67.5	2.0
67.515	4.0
67.53	5.0
67.545	2.0
67.56	1.0
67.575	6.0
67.59	5.0
67.605	2.0
67.62	4.0
67.635	3.0
67.65	4.0
67.665	5.0
67.68	3.0
67.695	2.0
67.71	7.0
67.726	2.0
67.741	2.0
67.756	3.0
67.771	3.0
67.786	3.0
67.801	1.0
67.816	4.0
67.831	3.0
67.846	3.0
67.861	6.0
67.876	5.0
67.891	3.0
67.906	1.0
67.922	4.0
67.937	0.0
67.952	3.0
67.967	1.0
67.982	1.0
67.997	4.0
68.012	3.0
68.027	2.0
68.042	2.0
68.057	3.0
68.072	3.0
68.087	7.0
68.103	4.0
68.118	5.0
68.133	2.0
68.148	3.0
68.163	3.0
68.178	2.0
68.193	4.0
68.208	3.0
68.223	2.0
68.238	0.0
68.254	2.0
68.269	2.0
68.284	7.0
68.299	6.0
68.314	4.0
68.329	3.0
68.344	3.0
68.359	2.0
68.374	2.0
68.389	5.0
68.405	6.0
68.42	2.0
68.435	2.0
68.45	2.0
68.465	2.0
68.48	4.0
68.495	2.0
68.51	7.0
68.525	5.0
68.54	1.0
68.556	4.0
68.571	3.0
68.586	3.0
68.601	3.0
68.616	6.0
68.631	3.0
68.646	4.0
68.661	2.0
68.676	3.0
68.691	8.0
68.707	6.0
68.722	2.0
68.737	2.0
68.752	2.0
68.767	2.0
68.782	1.0
68.797	8.0
68.812	1.0
68.827	13.0
68.842	3.0
68.857	4.0
68.873	4.0
68.888	2.0
68.903	7.0
68.918	4.0
68.933	6.0
68.948	7.0
68.963	3.0
68.978	5.0
68.993	5.0
69.008	4.0
69.023	5.0
69.038	3.0
69.054	4.0
69.069	5.0
69.084	1.0
69.099	6.0
69.114	2.0
69.129	3.0
69.144	1.0
69.159	1.0
69.174	2.0
69.189	2.0
69.204	2.0
69.219	3.0
69.234	3.0
69.249	0.0
69.264	6.0
69.279	5.0
69.295	3.0
69.31	5.0
69.325	4.0
69.34	4.0
69.355	3.0
69.37	0.0
69.385	9.0
69.4	1.0
69.415	3.0
69.43	4.0
69.445	0.0
69.46	1.0
69.475	1.0
69.49	5.0
69.505	3.0
69.52	1.0
69.535	1.0
69.55	1.0
69.565	2.0
69.58	1.0
69.595	8.0
69.61	4.0
69.625	6.0
69.64	2.0
69.655	3.0
69.67	5.0
69.685	3.0
69.7	0.0
69.715	5.0
69.73	6.0
69.745	8.0
69.76	5.0
69.775	3.0
69.79	8.0
69.805	5.0
69.82	3.0
69.835	6.0
69.85	9.0
69.865	7.0
69.88	7.0
69.895	1.0
69.909	2.0
69.924	1.0
69.939	4.0
69.954	6.0
69.969	8.0
69.984	3.0
69.999	2.0
70.014	6.0
70.029	3.0
70.044	2.0
70.059	2.0
70.074	3.0
70.088	3.0
70.103	2.0
70.118	0.0
70.133	3.0
70.148	7.0
70.163	3.0
70.178	7.0
70.193	3.0
70.208	6.0
70.222	2.0
70.237	10.0
70.252	6.0
70.267	3.0
70.282	4.0
70.297	6.0
70.312	2.0
70.327	1.0
70.341	4.0
70.356	2.0
70.371	3.0
70.386	4.0
70.401	1.0
70.416	3.0
70.43	3.0
70.445	7.0
70.46	1.0
70.475	4.0
70.49	1.0
70.505	5.0
70.519	5.0
70.534	6.0
70.549	4.0
70.564	2.0
70.579	6.0
70.594	5.0
70.608	3.0
70.623	7.0
70.638	9.0
70.653	8.0
70.668	3.0
70.683	8.0
70.697	8.0
70.712	10.0
70.727	3.0
70.742	6.0
70.757	6.0
70.771	5.0
70.786	2.0
70.801	5.0
70.816	3.0
70.831	2.0
70.845	2.0
70.86	1.0
70.875	4.0
70.89	1.0
70.905	5.0
70.92	3.0
70.934	5.0
70.949	3.0
70.964	1.0
70.979	3.0
70.994	1.0
71.008	3.0
71.023	2.0
71.038	3.0
71.053	2.0
71.068	3.0
71.082	3.0
71.097	3.0
71.112	5.0
71.127	4.0
71.142	7.0
71.156	0.0
71.171	4.0
71.186	5.0
71.201	12.0
71.216	1.0
71.231	5.0
71.245	1.0
71.26	8.0
71.275	6.0
71.29	2.0
71.305	1.0
71.319	3.0
71.334	6.0
71.349	1.0
71.364	0.0
71.379	4.0
71.394	6.0
71.408	5.0
71.423	2.0
71.438	5.0
71.453	6.0
71.468	4.0
71.483	2.0
71.497	3.0
71.512	2.0
71.527	5.0
71.542	5.0
71.557	3.0
71.572	4.0
71.586	3.0
71.601	5.0
71.616	5.0
71.631	1.0
71.646	5.0
71.661	5.0
71.676	7.0
71.69	3.0
71.705	5.0
71.72	2.0
71.735	6.0
71.75	2.0
71.765	1.0
71.78	3.0
71.795	6.0
71.81	4.0
71.824	3.0
71.839	4.0
71.854	4.0
71.869	3.0
71.884	2.0
71.899	3.0
71.914	2.0
71.929	4.0
71.944	1.0
71.959	3.0
71.974	3.0
71.988	4.0
72.003	2.0
72.018	5.0
72.033	5.0
72.048	2.0
72.063	4.0
72.078	2.0
72.093	4.0
72.108	4.0
72.123	2.0
72.138	4.0
72.153	2.0
72.168	5.0
72.183	1.0
72.198	3.0
72.213	3.0
72.228	0.0
72.243	2.0
72.258	3.0
72.273	0.0
72.288	4.0
72.303	3.0
72.318	4.0
72.333	4.0
72.348	4.0
72.363	3.0
72.378	6.0
72.393	3.0
72.408	3.0
72.423	3.0
72.438	2.0
72.453	5.0
72.468	3.0
72.483	1.0
72.498	5.0
72.513	2.0
72.528	1.0
72.543	1.0
72.558	4.0
72.573	2.0
72.588	1.0
72.603	4.0
72.618	2.0
72.633	5.0
72.649	4.0
72.664	2.0
72.679	1.0
72.694	4.0
72.709	2.0
72.724	1.0
72.739	2.0
72.754	2.0
72.769	2.0
72.784	4.0
72.799	2.0
72.814	10.0
72.829	2.0
72.845	2.0
72.86	2.0
72.875	2.0
72.89	5.0
72.905	2.0
72.92	0.0
72.935	2.0
72.95	3.0
72.965	4.0
72.98	2.0
72.996	1.0
73.011	6.0
73.026	3.0
73.041	6.0
73.056	2.0
73.071	3.0
73.086	1.0
73.101	2.0
73.117	3.0
73.132	5.0
73.147	3.0
73.162	3.0
73.177	5.0
73.192	5.0
73.207	5.0
73.222	4.0
73.238	6.0
73.253	7.0
73.268	5.0
73.283	4.0
73.298	4.0
73.313	7.0
73.328	4.0
73.343	5.0
73.359	5.0
73.374	3.0
73.389	6.0
73.404	6.0
73.419	4.0
73.434	5.0
73.449	2.0
73.465	8.0
73.48	4.0
73.495	2.0
73.51	2.0
73.525	4.0
73.54	4.0
73.556	4.0
73.571	1.0
73.586	3.0
73.601	6.0
73.616	4.0
73.631	4.0
73.646	2.0
73.662	0.0
73.677	2.0
73.692	4.0
73.707	3.0
73.722	2.0
73.737	2.0
73.752	3.0
73.768	3.0
73.783	1.0
73.798	3.0
73.813	6.0
73.828	5.0
73.843	5.0
73.859	1.0
73.874	3.0
73.889	6.0
73.904	3.0
73.919	5.0
73.934	5.0
73.949	5.0
73.965	1.0
73.98	1.0
73.995	2.0
74.01	1.0
74.025	2.0
74.04	5.0
74.056	5.0
74.071	6.0
74.086	5.0
74.101	5.0
74.116	8.0
74.131	7.0
74.146	5.0
74.162	7.0
74.177	11.0
74.192	5.0
74.207	6.0
74.222	6.0
74.237	9.0
74.252	2.0
74.268	3.0
74.283	2.0
74.298	2.0
74.313	2.0
74.328	2.0
74.343	1.0
74.358	3.0
74.374	3.0
74.389	4.0
74.404	1.0
74.419	3.0
74.434	2.0
74.449	2.0
74.464	3.0
74.48	2.0
74.495	3.0
74.51	6.0
74.525	7.0
74.54	5.0
74.555	3.0
74.57	3.0
74.586	5.0
74.601	2.0
74.616	5.0
74.631	3.0
74.646	5.0
74.661	4.0
74.676	2.0
74.691	4.0
74.707	8.0
74.722	3.0
74.737	1.0
74.752	4.0
74.767	1.0
74.782	8.0
74.797	2.0
74.813	3.0
74.828	2.0
74.843	4.0
74.858	3.0
74.873	2.0
74.888	0.0
74.903	2.0
74.918	3.0
74.934	4.0
74.949	2.0
74.964	4.0
74.979	2.0
74.994	4.0
75.009	4.0
75.024	6.0
75.04	0.0
75.055	6.0
75.07	4.0
75.085	2.0
75.1	4.0
75.115	5.0
75.13	4.0
75.145	4.0
75.161	5.0
75.176	5.0
75.191	1.0
75.206	3.0
75.221	2.0
75.236	3.0
75.251	2.0
75.266	2.0
75.282	3.0
75.297	6.0
75.312	3.0
75.327	3.0
75.342	2.0
75.357	3.0
75.372	2.0
75.387	2.0
75.403	1.0
75.418	2.0
75.433	6.0
75.448	1.0
75.463	3.0
75.478	2.0
75.493	4.0
75.509	7.0
75.524	5.0
75.539	2.0
75.554	3.0
75.569	5.0
75.584	4.0
75.599	2.0
75.614	1.0
75.63	2.0
75.645	2.0
75.66	3.0
75.675	2.0
75.69	4.0
75.705	6.0
75.72	3.0
75.735	4.0
75.751	4.0
75.766	1.0
75.781	2.0
75.796	4.0
75.811	3.0
75.826	3.0
75.841	3.0
75.856	1.0
75.872	2.0
75.887	3.0
75.902	6.0
75.917	7.0
75.932	2.0
75.947	5.0
75.962	3.0
75.977	4.0
75.993	3.0
76.008	7.0
76.023	2.0
76.038	4.0
76.053	4.0
76.068	1.0
76.083	2.0
76.098	5.0
76.114	2.0
76.129	3.0
76.144	5.0
76.159	2.0
76.174	3.0
76.189	5.0
76.204	3.0
76.22	6.0
76.235	5.0
76.25	2.0
76.265	3.0
76.28	1.0
76.295	2.0
76.31	4.0
76.325	7.0
76.341	3.0
76.356	2.0
76.371	5.0
76.386	2.0
76.401	7.0
76.416	5.0
76.431	4.0
76.446	5.0
76.462	1.0
76.477	2.0
76.492	5.0
76.507	6.0
76.522	3.0
76.537	5.0
76.552	0.0
76.567	4.0
76.583	0.0
76.598	6.0
76.613	3.0
76.628	5.0
76.643	4.0
76.658	3.0
76.673	0.0
76.688	4.0
76.704	3.0
76.719	4.0
76.734	1.0
76.749	5.0
76.764	7.0
76.779	4.0
76.794	4.0
76.809	3.0
76.824	2.0
76.84	2.0
76.855	1.0
76.87	4.0
76.885	2.0
76.9	3.0
76.915	4.0
76.93	2.0
76.945	1.0
76.96	3.0
76.976	4.0
76.991	3.0
77.006	8.0
77.021	1.0
77.036	2.0
77.051	4.0
77.066	2.0
77.081	3.0
77.096	2.0
77.112	2.0
77.127	4.0
77.142	3.0
77.157	4.0
77.172	2.0
77.187	1.0
77.202	1.0
77.217	2.0
77.232	2.0
77.247	4.0
77.263	2.0
77.278	3.0
77.293	3.0
77.308	3.0
77.323	3.0
77.338	4.0
77.353	4.0
77.368	2.0
77.383	5.0
77.398	5.0
77.413	4.0
77.428	5.0
77.444	2.0
77.459	5.0
77.474	2.0
77.489	5.0
77.504	5.0
77.519	2.0
77.534	4.0
77.549	1.0
77.564	6.0
77.579	4.0
77.594	11.0
77.609	4.0
77.624	4.0
77.64	8.0
77.655	6.0
77.67	3.0
77.685	2.0
77.7	3.0
77.715	5.0
77.73	9.0
77.745	5.0
77.76	4.0
77.775	1.0
77.79	1.0
77.805	2.0
77.82	1.0
77.835	3.0
77.85	4.0
77.865	4.0
77.88	2.0
77.895	1.0
77.91	7.0
77.926	2.0
77.941	4.0
77.956	2.0
77.971	3.0
77.986	4.0
78.001	1.0
78.016	2.0
78.031	3.0
78.046	5.0
78.061	4.0
78.076	4.0
78.091	0.0
78.106	3.0
78.121	6.0
78.136	2.0
78.151	4.0
78.166	2.0
78.181	7.0
78.196	3.0
78.211	4.0
78.226	2.0
78.241	2.0
78.256	3.0
78.271	3.0
78.286	5.0
78.301	4.0
78.316	2.0
78.331	3.0
78.346	3.0
78.361	3.0
78.376	2.0
78.391	4.0
78.406	3.0
78.421	2.0
78.436	2.0
78.451	1.0
78.466	2.0
78.481	2.0
78.496	2.0
78.511	3.0
78.526	4.0
78.541	3.0
78.556	4.0
78.571	1.0
78.586	1.0
78.601	2.0
78.616	3.0
78.631	3.0
78.646	4.0
78.661	1.0
78.676	1.0
78.691	2.0
78.706	0.0
78.721	5.0
78.736	1.0
78.751	5.0
78.766	3.0
78.781	4.0
78.796	0.0
78.811	1.0
78.826	3.0
78.841	2.0
78.856	4.0
78.871	6.0
78.885	2.0
78.9	2.0
78.915	4.0
78.93	4.0
78.945	5.0
78.96	4.0
78.975	3.0
78.99	3.0
79.005	3.0
79.02	5.0
79.035	1.0
79.05	4.0
79.065	3.0
79.08	1.0
79.095	3.0
79.11	3.0
79.125	3.0
79.14	2.0
79.155	2.0
79.17	1.0
79.185	2.0
79.2	2.0
79.215	3.0
79.23	2.0
79.245	4.0
79.26	1.0
79.275	1.0
79.29	6.0
79.304	2.0
79.319	3.0
79.334	4.0
79.349	1.0
79.364	5.0
79.379	3.0
79.394	1.0
79.409	4.0
79.424	1.0
79.439	5.0
79.454	6.0
79.469	3.0
79.484	3.0
79.499	2.0
79.514	2.0
79.529	0.0
79.544	3.0
79.559	1.0
79.574	2.0
79.589	2.0
79.604	4.0
79.619	2.0
79.634	0.0
79.649	3.0
79.664	0.0
79.679	2.0
79.693	3.0
79.708	3.0
79.723	2.0
79.738	5.0
79.753	3.0
79.768	4.0
79.783	3.0
79.798	0.0
79.813	1.0
79.828	2.0
79.843	3.0
79.858	2.0
79.873	6.0
79.888	2.0
79.903	6.0
79.918	1.0
79.933	6.0
79.948	4.0
79.963	8.0
79.978	1.0
79.993	0.0
80.008	4.0
80.023	3.0
80.038	3.0
80.053	1.0
80.068	3.0
80.083	3.0
80.098	6.0
80.113	6.0
80.128	4.0
80.143	3.0
80.158	2.0
80.173	2.0
80.188	1.0
80.202	3.0
80.217	5.0
80.232	2.0
80.247	4.0
80.262	4.0
80.277	4.0
80.292	4.0
80.307	1.0
80.322	2.0
80.337	0.0
80.352	2.0
80.367	4.0
80.382	1.0
80.397	0.0
80.412	3.0
80.427	2.0
80.442	5.0
80.457	2.0
80.472	4.0
80.487	1.0
80.502	2.0
80.517	3.0
80.532	1.0
80.547	2.0
80.562	0.0
80.577	0.0
80.592	4.0
80.607	3.0
80.622	2.0
80.637	3.0
80.652	5.0
80.667	3.0
80.682	2.0
80.697	2.0
80.712	4.0
80.727	2.0
80.742	2.0
80.757	2.0
80.772	2.0
80.787	4.0
80.802	4.0
80.817	3.0
80.832	3.0
80.847	3.0
80.862	3.0
80.877	1.0
80.892	7.0
80.907	2.0
80.922	1.0
80.937	3.0
80.952	2.0
80.967	4.0
80.982	6.0
80.997	6.0
81.012	5.0
81.027	3.0
81.042	4.0
81.057	3.0
81.072	3.0
81.087	3.0
81.101	5.0
81.116	3.0
81.131	3.0
81.146	7.0
81.161	4.0
81.176	7.0
81.191	5.0
81.206	3.0
81.221	5.0
81.236	5.0
81.251	4.0
81.266	4.0
81.281	1.0
81.296	2.0
81.311	5.0
81.326	1.0
81.341	5.0
81.356	3.0
81.371	2.0
81.386	3.0
81.401	3.0
81.416	3.0
81.431	5.0
81.446	4.0
81.461	1.0
81.476	2.0
81.491	2.0
81.506	1.0
81.521	3.0
81.536	0.0
81.55	3.0
81.565	3.0
81.58	5.0
81.595	3.0
81.61	6.0
81.625	3.0
81.64	4.0
81.655	2.0
81.67	6.0
81.685	3.0
81.7	3.0
81.715	1.0
81.73	2.0
81.745	2.0
81.76	5.0
81.775	6.0
81.79	2.0
81.805	3.0
81.819	6.0
81.834	2.0
81.849	5.0
81.864	5.0
81.879	8.0
81.894	6.0
81.909	2.0
81.924	4.0
81.939	2.0
81.954	2.0
81.969	4.0
81.984	4.0
81.999	3.0
82.013	2.0
82.028	3.0
82.043	1.0
82.058	3.0
82.073	4.0
82.088	5.0
82.103	2.0
82.118	4.0
82.133	4.0
82.148	0.0
82.163	3.0
82.177	3.0
82.192	2.0
82.207	3.0
82.222	2.0
82.237	4.0
82.252	5.0
82.267	6.0
82.282	0.0
82.297	2.0
82.312	3.0
82.326	2.0
82.341	2.0
82.356	3.0
82.371	3.0
82.386	3.0
82.401	3.0
82.416	2.0
82.431	8.0
82.445	4.0
82.46	7.0
82.475	2.0
82.49	4.0
82.505	5.0
82.52	1.0
82.535	8.0
82.55	1.0
82.565	2.0
82.579	3.0
82.594	2.0
82.609	2.0
82.624	4.0
82.639	1.0
82.654	2.0
82.669	6.0
82.684	2.0
82.698	3.0
82.713	3.0
82.728	5.0
82.743	2.0
82.758	3.0
82.773	3.0
82.788	0.0
82.803	1.0
82.817	4.0
82.832	5.0
82.847	1.0
82.862	4.0
82.877	5.0
82.892	3.0
82.907	4.0
82.922	3.0
82.937	1.0
82.951	4.0
82.966	3.0
82.981	3.0
82.996	2.0
83.011	3.0
83.026	1.0
83.041	1.0
83.056	2.0
83.07	1.0
83.085	0.0
83.1	2.0
83.115	3.0
83.13	1.0
83.145	1.0
83.16	2.0
83.175	2.0
83.19	4.0
83.204	2.0
83.219	3.0
83.234	4.0
83.249	3.0
83.264	3.0
83.279	5.0
83.294	4.0
83.309	1.0
83.324	7.0
83.339	3.0
83.353	3.0
83.368	6.0
83.383	7.0
83.398	3.0
83.413	1.0
83.428	2.0
83.443	3.0
83.458	7.0
83.473	1.0
83.488	1.0
83.503	3.0
83.517	3.0
83.532	4.0
83.547	4.0
83.562	9.0
83.577	3.0
83.592	1.0
83.607	3.0
83.622	4.0
83.637	2.0
83.652	3.0
83.667	2.0
83.682	5.0
83.697	1.0
83.712	2.0
83.727	4.0
83.741	3.0
83.756	2.0
83.771	1.0
83.786	4.0
83.801	2.0
83.816	3.0
83.831	0.0
83.846	6.0
83.861	2.0
83.876	4.0
83.891	2.0
83.906	1.0
83.921	1.0
83.936	6.0
83.951	3.0
83.966	4.0
83.981	2.0
83.996	4.0
84.011	7.0
84.026	2.0
84.041	1.0
84.056	5.0
84.071	9.0
84.086	4.0
84.101	5.0
84.116	1.0
84.131	5.0
84.146	2.0
84.161	4.0
84.176	6.0
84.191	2.0
84.206	2.0
84.221	5.0
84.236	4.0
84.251	2.0
84.266	4.0
84.281	2.0
84.296	1.0
84.311	3.0
84.326	2.0
84.341	5.0
84.356	9.0
84.371	5.0
84.386	4.0
84.401	4.0
84.416	4.0
84.431	7.0
84.446	8.0
84.461	4.0
84.476	3.0
84.492	1.0
84.507	2.0
84.522	1.0
84.537	2.0
84.552	3.0
84.567	4.0
84.582	4.0
84.597	3.0
84.612	4.0
84.627	1.0
84.642	0.0
84.657	4.0
84.672	1.0
84.687	2.0
84.702	1.0
84.717	8.0
84.733	0.0
84.748	3.0
84.763	6.0
84.778	2.0
84.793	4.0
84.808	2.0
84.823	4.0
84.838	4.0
84.853	3.0
84.868	2.0
84.883	2.0
84.898	3.0
84.913	2.0
84.929	2.0
84.944	2.0
84.959	1.0
84.974	2.0
84.989	6.0
85.004	4.0
85.019	2.0
85.034	5.0
85.049	1.0
85.064	5.0
85.079	4.0
85.094	3.0
85.11	1.0
85.125	0.0
85.14	0.0
85.155	5.0
85.17	3.0
85.185	3.0
85.2	1.0
85.215	3.0
85.23	1.0
85.245	1.0
85.26	5.0
85.276	3.0
85.291	4.0
85.306	2.0
85.321	0.0
85.336	5.0
85.351	3.0
85.366	1.0
85.381	1.0
85.396	5.0
85.411	0.0
85.426	1.0
85.441	1.0
85.457	2.0
85.472	3.0
85.487	2.0
85.502	3.0
85.517	3.0
85.532	3.0
85.547	7.0
85.562	2.0
85.577	3.0
85.592	4.0
85.607	3.0
85.622	3.0
85.637	4.0
85.653	3.0
85.668	3.0
85.683	3.0
85.698	1.0
85.713	1.0
85.728	6.0
85.743	2.0
85.758	1.0
85.773	5.0
85.788	0.0
85.803	0.0
85.818	4.0
85.833	2.0
85.848	2.0
85.863	2.0
85.879	1.0
85.894	1.0
85.909	2.0
85.924	1.0
85.939	2.0
85.954	4.0
85.969	2.0
85.984	3.0
85.999	2.0
86.014	7.0
86.029	3.0
86.044	3.0
86.059	3.0
86.074	3.0
86.089	7.0
86.104	2.0
86.119	3.0
86.134	2.0
86.149	1.0
86.164	4.0
86.179	2.0
86.194	0.0
86.209	4.0
86.224	2.0
86.239	3.0
86.254	2.0
86.269	2.0
86.284	3.0
86.299	4.0
86.314	5.0
86.33	2.0
86.345	5.0
86.36	1.0
86.375	0.0
86.39	1.0
86.405	1.0
86.42	3.0
86.435	1.0
86.45	7.0
86.465	4.0
86.48	3.0
86.495	3.0
86.51	1.0
86.525	4.0
86.54	1.0
86.555	1.0
86.57	3.0
86.585	2.0
86.6	8.0
86.615	5.0
86.63	6.0
86.645	5.0
86.659	2.0
86.674	2.0
86.689	5.0
86.704	2.0
86.719	4.0
86.734	4.0
86.749	4.0
86.764	4.0
86.779	1.0
86.794	5.0
86.809	3.0
86.824	2.0
86.839	2.0
86.854	3.0
86.869	3.0
86.884	5.0
86.899	4.0
86.914	10.0
86.929	6.0
86.944	3.0
86.959	2.0
86.974	1.0
86.989	4.0
87.004	5.0
87.019	2.0
87.034	6.0
87.049	3.0
87.064	4.0
87.079	6.0
87.094	3.0
87.109	2.0
87.124	1.0
87.139	0.0
87.154	5.0
87.169	0.0
87.184	1.0
87.199	3.0
87.214	2.0
87.229	4.0
87.244	2.0
87.259	4.0
87.274	2.0
87.289	3.0
87.304	3.0
87.319	1.0
87.334	5.0
87.349	6.0
87.364	2.0
87.379	6.0
87.394	2.0
87.409	1.0
87.424	4.0
87.438	2.0
87.453	0.0
87.468	3.0
87.483	5.0
87.498	7.0
87.513	1.0
87.528	4.0
87.543	6.0
87.558	1.0
87.573	8.0
87.588	3.0
87.603	3.0
87.618	3.0
87.633	2.0
87.648	2.0
87.663	4.0
87.678	1.0
87.693	3.0
87.708	4.0
87.723	2.0
87.738	1.0
87.753	5.0
87.768	2.0
87.783	4.0
87.798	4.0
87.813	5.0
87.828	2.0
87.843	3.0
87.858	5.0
87.873	2.0
87.888	3.0
87.903	3.0
87.918	4.0
87.933	3.0
87.948	1.0
87.963	2.0
87.978	4.0
87.993	4.0
88.008	4.0
88.023	4.0
88.038	5.0
88.053	1.0
88.068	5.0
88.083	4.0
88.098	1.0
88.113	3.0
88.128	1.0
88.143	3.0
88.158	4.0
88.174	3.0
88.189	1.0
88.204	3.0
88.219	5.0
88.234	3.0
88.249	3.0
88.264	4.0
88.279	6.0
88.294	3.0
88.309	3.0
88.324	5.0
88.339	2.0
88.354	2.0
88.369	4.0
88.384	3.0
88.399	3.0
88.414	1.0
88.429	9.0
88.444	1.0
88.459	4.0
88.474	5.0
88.489	5.0
88.504	3.0
88.519	2.0
88.534	4.0
88.549	2.0
88.564	7.0
88.58	1.0
88.595	3.0
88.61	1.0
88.625	2.0
88.64	2.0
88.655	4.0
88.67	3.0
88.685	4.0
88.7	6.0
88.715	6.0
88.73	1.0
88.745	3.0
88.76	2.0
88.775	2.0
88.79	2.0
88.805	4.0
88.82	4.0
88.835	1.0
88.85	3.0
88.865	1.0
88.88	1.0
88.895	3.0
88.911	3.0
88.926	3.0
88.941	4.0
88.956	0.0
88.971	3.0
88.986	3.0
89.001	2.0
89.016	3.0
89.031	2.0
89.046	4.0
89.061	4.0
89.076	3.0
89.091	3.0
89.106	0.0
89.121	2.0
89.136	4.0
89.151	4.0
89.166	4.0
89.181	1.0
89.196	3.0
89.211	4.0
89.227	4.0
89.242	2.0
89.257	2.0
89.272	3.0
89.287	2.0
89.302	1.0
89.317	3.0
89.332	6.0
89.347	1.0
89.362	0.0
89.377	3.0
89.392	1.0
89.407	1.0
89.422	5.0
89.437	1.0
89.452	2.0
89.467	3.0
89.482	3.0
89.497	2.0
89.512	2.0
89.527	3.0
89.542	9.0
89.557	4.0
89.572	3.0
89.587	3.0
89.602	3.0
89.617	2.0
89.632	3.0
89.647	6.0
89.662	1.0
89.677	6.0
89.693	4.0
89.708	2.0
89.723	1.0
89.738	3.0
89.753	6.0
89.768	6.0
89.783	1.0
89.798	3.0
89.813	2.0
89.828	5.0
89.843	2.0
89.858	2.0
89.873	5.0
89.888	3.0
89.903	1.0
89.918	5.0
89.933	3.0
89.948	5.0
89.963	4.0
89.978	5.0
89.993	1.0
90.008	4.0
90.023	3.0
90.038	3.0
90.053	2.0
90.068	4.0
90.083	2.0
90.097	5.0
90.112	2.0
90.127	4.0
90.142	5.0
90.157	1.0
90.172	4.0
90.187	6.0
90.202	3.0
90.217	2.0
90.232	2.0
90.247	2.0
90.262	7.0
90.277	5.0
90.292	2.0
90.307	4.0
90.322	3.0
90.337	4.0
90.352	2.0
90.367	5.0
90.382	2.0
90.397	5.0
90.412	0.0
90.427	1.0
90.442	4.0
90.457	1.0
90.472	6.0
90.487	2.0
90.501	1.0
90.516	6.0
90.531	1.0
90.546	6.0
90.561	3.0
90.576	4.0
90.591	2.0
90.606	5.0
90.621	2.0
90.636	4.0
90.651	6.0
90.666	5.0
90.681	4.0
90.696	2.0
90.711	2.0
90.726	3.0
90.741	4.0
90.755	4.0
90.77	4.0
90.785	2.0
90.8	2.0
90.815	5.0
90.83	2.0
90.845	6.0
90.86	6.0
90.875	4.0
90.89	0.0
90.905	3.0
90.92	2.0
90.935	3.0
90.95	3.0
90.965	5.0
90.979	8.0
90.994	3.0
91.009	1.0
91.024	2.0
91.039	0.0
91.054	2.0
91.069	3.0
91.084	5.0
91.099	2.0
91.114	5.0
91.129	3.0
91.144	3.0
91.159	2.0
91.174	1.0
91.188	2.0
91.203	2.0
91.218	5.0
91.233	2.0
91.248	6.0
91.263	4.0
91.278	6.0
91.293	2.0
91.308	4.0
91.323	2.0
91.338	2.0
91.353	4.0
91.368	3.0
91.383	3.0
91.398	4.0
91.412	2.0
91.427	7.0
91.442	2.0
91.457	5.0
91.472	4.0
91.487	2.0
91.502	2.0
91.517	4.0
91.532	4.0
91.547	4.0
91.562	3.0
91.577	1.0
91.592	4.0
91.607	1.0
91.622	4.0
91.637	3.0
91.652	6.0
91.666	2.0
91.681	5.0
91.696	0.0
91.711	2.0
91.726	3.0
91.741	2.0
91.756	3.0
91.771	4.0
91.786	4.0
91.801	2.0
91.816	1.0
91.831	5.0
91.846	3.0
91.861	4.0
91.876	4.0
91.891	2.0
91.906	6.0
91.921	2.0
91.936	3.0
91.951	2.0
91.966	4.0
91.981	2.0
91.995	3.0
92.01	0.0
92.025	4.0
92.04	1.0
92.055	6.0
92.07	0.0
92.085	5.0
92.1	4.0
92.115	0.0
92.13	3.0
92.145	3.0
92.16	6.0
92.175	2.0
92.19	4.0
92.205	2.0
92.22	3.0
92.235	3.0
92.25	5.0
92.265	2.0
92.28	1.0
92.295	3.0
92.31	3.0
92.325	5.0
92.34	3.0
92.355	2.0
92.37	4.0
92.385	5.0
92.4	0.0
92.415	6.0
92.43	2.0
92.445	2.0
92.46	0.0
92.475	0.0
92.49	3.0
92.505	3.0
92.52	1.0
92.535	3.0
92.55	6.0
92.565	6.0
92.58	0.0
92.595	3.0
92.61	3.0
92.625	4.0
92.64	3.0
92.655	6.0
92.67	3.0
92.685	1.0
92.7	1.0
92.715	2.0
92.73	3.0
92.745	6.0
92.76	3.0
92.775	4.0
92.79	6.0
92.805	4.0
92.82	2.0
92.835	2.0
92.85	2.0
92.865	6.0
92.88	2.0
92.895	1.0
92.91	1.0
92.925	5.0
92.94	4.0
92.955	0.0
92.97	3.0
92.985	4.0
93.0	1.0
93.015	1.0
93.03	4.0
93.045	3.0
93.06	3.0
93.075	8.0
93.09	1.0
93.105	2.0
93.12	3.0
93.135	1.0
93.15	4.0
93.165	2.0
93.18	2.0
93.195	0.0
93.21	3.0
93.225	2.0
93.24	3.0
93.255	2.0
93.27	3.0
93.285	2.0
93.3	2.0
93.315	4.0
93.33	4.0
93.345	3.0
93.36	3.0
93.375	3.0
93.39	2.0
93.405	4.0
93.42	4.0
93.435	2.0
93.45	0.0
93.465	3.0
93.48	4.0
93.495	7.0
93.51	4.0
93.525	5.0
93.54	2.0
93.555	6.0
93.57	3.0
93.585	3.0
93.6	1.0
93.615	2.0
93.63	2.0
93.645	2.0
93.66	1.0
93.675	4.0
93.69	3.0
93.705	5.0
93.72	4.0
93.735	4.0
93.75	4.0
93.765	2.0
93.78	2.0
93.795	1.0
93.81	5.0
93.824	3.0
93.839	4.0
93.854	3.0
93.869	1.0
93.884	4.0
93.899	5.0
93.914	1.0
93.929	2.0
93.944	1.0
93.959	6.0
93.974	4.0
93.989	5.0
94.004	1.0
94.019	5.0
94.034	5.0
94.049	0.0
94.064	2.0
94.079	3.0
94.094	2.0
94.108	2.0
94.123	3.0
94.138	4.0
94.153	2.0
94.168	3.0
94.183	4.0
94.198	3.0
94.213	0.0
94.228	3.0
94.243	5.0
94.258	2.0
94.273	4.0
94.288	3.0
94.302	1.0
94.317	2.0
94.332	5.0
94.347	2.0
94.362	6.0
94.377	0.0
94.392	5.0
94.407	4.0
94.422	3.0
94.437	5.0
94.452	5.0
94.466	0.0
94.481	5.0
94.496	6.0
94.511	4.0
94.526	4.0
94.541	5.0
94.556	2.0
94.571	2.0
94.586	3.0
94.601	4.0
94.615	4.0
94.63	2.0
94.645	4.0
94.66	5.0
94.675	4.0
94.69	2.0
94.705	3.0
94.72	1.0
94.735	5.0
94.749	3.0
94.764	0.0
94.779	6.0
94.794	5.0
94.809	3.0
94.824	5.0
94.839	0.0
94.854	0.0
94.868	2.0
94.883	4.0
94.898	2.0
94.913	4.0
94.928	0.0
94.943	1.0
94.958	3.0
94.973	2.0
94.987	1.0
95.002	1.0
95.017	4.0
95.032	6.0
95.047	1.0
95.062	1.0
95.077	6.0
95.092	2.0
95.106	2.0
95.121	7.0
95.136	3.0
95.151	6.0
95.166	5.0
95.181	4.0
95.196	3.0
95.211	4.0
95.226	4.0
95.24	2.0
95.255	2.0
95.27	4.0
95.285	4.0
95.3	2.0
95.315	9.0
95.33	5.0
95.345	3.0
95.359	3.0
95.374	2.0
95.389	2.0
95.404	1.0
95.419	5.0
95.434	5.0
95.449	5.0
95.464	0.0
95.478	3.0
95.493	2.0
95.508	4.0
95.523	3.0
95.538	4.0
95.553	2.0
95.568	3.0
95.583	3.0
95.597	4.0
95.612	3.0
95.627	2.0
95.642	2.0
95.657	3.0
95.672	8.0
95.687	5.0
95.702	3.0
95.717	5.0
95.731	5.0
95.746	5.0
95.761	5.0
95.776	6.0
95.791	0.0
95.806	2.0
95.821	4.0
95.836	2.0
95.851	4.0
95.866	4.0
95.88	3.0
95.895	3.0
95.91	2.0
95.925	6.0
95.94	4.0
95.955	4.0
95.97	4.0
95.985	5.0
96.0	2.0
96.015	4.0
96.029	4.0
96.044	5.0
96.059	0.0
96.074	3.0
96.089	5.0
96.104	4.0
96.119	6.0
96.134	4.0
96.149	3.0
96.164	6.0
96.179	6.0
96.194	2.0
96.208	1.0
96.223	7.0
96.238	0.0
96.253	1.0
96.268	4.0
96.283	2.0
96.298	5.0
96.313	5.0
96.328	5.0
96.343	1.0
96.358	1.0
96.373	7.0
96.388	4.0
96.403	3.0
96.417	0.0
96.432	1.0
96.447	5.0
96.462	3.0
96.477	3.0
96.492	1.0
96.507	5.0
96.522	4.0
96.537	3.0
96.552	1.0
96.567	0.0
96.582	4.0
96.597	3.0
96.612	1.0
96.627	2.0
96.642	1.0
96.656	2.0
96.671	1.0
96.686	6.0
96.701	1.0
96.716	2.0
96.731	5.0
96.746	2.0
96.761	3.0
96.776	5.0
96.791	3.0
96.806	5.0
96.821	3.0
96.836	4.0
96.851	4.0
96.866	2.0
96.881	5.0
96.896	6.0
96.911	3.0
96.926	1.0
96.94	6.0
96.955	3.0
96.97	4.0
96.985	1.0
97.0	2.0
97.015	2.0
97.03	3.0
97.045	4.0
97.06	2.0
97.075	1.0
97.09	3.0
97.105	2.0
97.12	5.0
97.135	2.0
97.15	3.0
97.165	3.0
97.18	2.0
97.195	5.0
97.21	4.0
97.225	2.0
97.239	1.0
97.254	2.0
97.269	3.0
97.284	0.0
97.299	1.0
97.314	2.0
97.329	4.0
97.344	9.0
97.359	4.0
97.374	3.0
97.389	2.0
97.404	1.0
97.419	6.0
97.434	4.0
97.449	3.0
97.464	2.0
97.479	2.0
97.494	6.0
97.509	4.0
97.524	3.0
97.538	0.0
97.553	1.0
97.568	1.0
97.583	9.0
97.598	2.0
97.613	6.0
97.628	1.0
97.643	4.0
97.658	0.0
97.673	4.0
97.688	6.0
97.703	0.0
97.718	1.0
97.733	1.0
97.748	4.0
97.763	3.0
97.778	6.0
97.792	2.0
97.807	5.0
97.822	2.0
97.837	4.0
97.852	7.0
97.867	5.0
97.882	2.0
97.897	3.0
97.912	8.0
97.927	3.0
97.942	6.0
97.957	3.0
97.972	5.0
97.987	4.0
98.001	1.0
98.016	3.0
98.031	1.0
98.046	1.0
98.061	6.0
98.076	2.0
98.091	6.0
98.106	3.0
98.121	1.0
98.136	0.0
98.151	2.0
98.166	1.0
98.181	2.0
98.195	3.0
98.21	2.0
98.225	3.0
98.24	3.0
98.255	1.0
98.27	1.0
98.285	3.0
98.3	3.0
98.315	3.0
98.33	2.0
98.345	4.0
98.359	1.0
98.374	5.0
98.389	1.0
98.404	3.0
98.419	1.0
98.434	3.0
98.449	4.0
98.464	3.0
98.479	3.0
98.494	4.0
98.508	4.0
98.523	9.0
98.538	2.0
98.553	3.0
98.568	2.0
98.583	0.0
98.598	1.0
98.613	1.0
98.628	5.0
98.642	3.0
98.657	4.0
98.672	6.0
98.687	0.0
98.702	1.0
98.717	2.0
98.732	1.0
98.747	4.0
98.762	1.0
98.776	1.0
98.791	3.0
98.806	2.0
98.821	2.0
98.836	2.0
98.851	2.0
98.866	2.0
98.881	3.0
98.896	2.0
98.91	3.0
98.925	1.0
98.94	1.0
98.955	1.0
98.97	5.0
98.985	2.0
99.0	3.0
99.015	4.0
99.029	3.0
99.044	1.0
99.059	4.0
99.074	1.0
99.089	3.0
99.104	3.0
99.119	5.0
99.133	2.0
99.148	1.0
99.163	1.0
99.178	3.0
99.193	0.0
99.208	3.0
99.223	2.0
99.238	7.0
99.252	2.0
99.267	3.0
99.282	2.0
99.297	5.0
99.312	2.0
99.327	4.0
99.342	3.0
99.356	1.0
99.371	0.0
99.386	1.0
99.401	6.0
99.416	6.0
99.431	2.0
99.446	4.0
99.461	4.0
99.475	4.0
99.49	3.0
99.505	6.0
99.52	7.0
99.535	2.0
99.55	1.0
99.565	3.0
99.579	6.0
99.594	3.0
99.609	2.0
99.624	6.0
99.639	2.0
99.654	5.0
99.669	1.0
99.683	0.0
99.698	1.0
99.713	1.0
99.728	2.0
99.743	1.0
99.758	3.0
99.772	3.0
99.787	4.0
99.802	2.0
99.817	2.0
99.832	4.0
99.847	4.0
99.862	8.0
99.876	1.0
99.891	4.0
99.906	5.0
99.921	4.0
99.936	6.0
99.951	1.0
99.966	5.0
99.98	2.0
99.995	4.0
100.01	3.0
100.025	7.0
100.04	5.0
100.055	2.0
100.069	2.0
100.084	1.0
100.099	2.0
100.114	3.0
100.129	1.0
100.144	3.0
100.159	3.0
100.173	4.0
100.188	1.0
100.203	7.0
100.218	6.0
100.233	6.0
100.248	2.0
100.262	3.0
100.277	4.0
100.292	3.0
100.307	2.0
100.322	6.0
100.337	3.0
100.351	4.0
100.366	5.0
100.381	3.0
100.396	3.0
100.411	4.0
100.426	1.0
100.441	4.0
100.455	4.0
100.47	4.0
100.485	0.0
100.5	8.0
100.515	0.0
100.53	1.0
100.544	2.0
100.559	3.0
100.574	3.0
100.589	4.0
100.604	5.0
100.619	3.0
100.633	4.0
100.648	4.0
100.663	3.0
100.678	2.0
100.693	6.0
100.708	2.0
100.722	2.0
100.737	4.0
100.752	4.0
100.767	5.0
100.782	1.0
100.796	3.0
100.811	3.0
100.826	3.0
100.841	1.0
100.856	3.0
100.871	3.0
100.885	1.0
100.9	3.0
100.915	2.0
100.93	4.0
100.945	2.0
100.96	6.0
100.974	5.0
100.989	1.0
101.004	5.0
101.019	2.0
101.034	1.0
101.048	4.0
101.063	5.0
101.078	3.0
101.093	6.0
101.108	3.0
101.123	3.0
101.137	5.0
101.152	5.0
101.167	8.0
101.182	3.0
101.197	6.0
101.211	4.0
101.226	5.0
101.241	2.0
101.256	1.0
101.271	3.0
101.285	1.0
101.3	2.0
101.315	4.0
101.33	5.0
101.345	4.0
101.359	6.0
101.374	3.0
101.389	4.0
101.404	2.0
101.419	2.0
101.433	1.0
101.448	2.0
101.463	4.0
101.478	2.0
101.493	4.0
101.507	6.0
101.522	3.0
101.537	0.0
101.552	6.0
101.567	2.0
101.581	4.0
101.596	4.0
101.611	5.0
101.626	3.0
101.64	3.0
101.655	5.0
101.67	3.0
101.685	1.0
101.7	2.0
101.714	3.0
101.729	0.0
101.744	5.0
101.759	3.0
101.773	3.0
101.788	1.0
101.803	1.0
101.818	1.0
101.833	5.0
101.847	2.0
101.862	3.0
101.877	4.0
101.892	3.0
101.906	4.0
101.921	3.0
101.936	3.0
101.951	3.0
101.965	4.0
101.98	6.0
101.995	4.0
102.01	4.0
102.025	4.0
102.039	4.0
102.054	2.0
102.069	1.0
102.084	5.0
102.098	2.0
102.113	3.0
102.128	5.0
102.143	5.0
102.157	5.0
102.172	1.0
102.187	2.0
102.202	1.0
102.216	5.0
102.231	1.0
102.246	3.0
102.261	4.0
102.275	4.0
102.29	2.0
102.305	2.0
102.32	1.0
102.334	4.0
102.349	4.0
102.364	4.0
102.378	5.0
102.393	2.0
102.408	4.0
102.423	0.0
102.437	4.0
102.452	1.0
102.467	3.0
102.482	2.0
102.496	0.0
102.511	3.0
102.526	4.0
102.541	1.0
102.555	4.0
102.57	5.0
102.585	1.0
102.6	1.0
102.614	2.0
102.629	3.0
102.644	4.0
102.659	4.0
102.673	3.0
102.688	2.0
102.703	3.0
102.717	2.0
102.732	6.0
102.747	1.0
102.762	3.0
102.776	6.0
102.791	1.0
102.806	2.0
102.821	3.0
102.835	1.0
102.85	4.0
102.865	0.0
102.88	3.0
102.894	4.0
102.909	3.0
102.924	7.0
102.938	2.0
102.953	5.0
102.968	2.0
102.983	4.0
102.997	1.0
103.012	7.0
103.027	2.0
103.042	2.0
103.056	8.0
103.071	3.0
103.086	1.0
103.101	2.0
103.115	1.0
103.13	3.0
103.145	3.0
103.16	1.0
103.174	7.0
103.189	0.0
103.204	2.0
103.219	5.0
103.233	5.0
103.248	5.0
103.263	1.0
103.278	0.0
103.292	3.0
103.307	3.0
103.322	1.0
103.337	1.0
103.351	1.0
103.366	7.0
103.381	2.0
103.396	2.0
103.41	2.0
103.425	3.0
103.44	1.0
103.455	2.0
103.469	3.0
103.484	0.0
103.499	4.0
103.514	5.0
103.529	1.0
103.543	3.0
103.558	1.0
103.573	8.0
103.588	3.0
103.602	3.0
103.617	5.0
103.632	4.0
103.647	1.0
103.661	2.0
103.676	1.0
103.691	5.0
103.706	5.0
103.721	3.0
103.735	5.0
103.75	3.0
103.765	1.0
103.78	2.0
103.795	6.0
103.809	4.0
103.824	3.0
103.839	1.0
103.854	4.0
103.869	3.0
103.883	1.0
103.898	2.0
103.913	2.0
103.928	0.0
103.943	1.0
103.957	6.0
103.972	2.0
103.987	5.0
104.002	2.0
104.017	3.0
104.031	3.0
104.046	2.0
104.061	4.0
104.076	3.0
104.091	6.0
104.106	0.0
104.12	1.0
104.135	4.0
104.15	2.0
104.165	3.0
104.18	4.0
104.195	5.0
104.209	3.0
104.224	0.0
104.239	6.0
104.254	5.0
104.269	4.0
104.284	3.0
104.299	4.0
104.313	3.0
104.328	2.0
104.343	2.0
104.358	4.0
104.373	4.0
104.388	2.0
104.403	6.0
104.417	5.0
104.432	3.0
104.447	4.0
104.462	7.0
104.477	5.0
104.492	5.0
104.507	4.0
104.522	3.0
104.536	5.0
104.551	1.0
104.566	3.0
104.581	3.0
104.596	5.0
104.611	0.0
104.626	3.0
104.641	3.0
104.656	2.0
104.67	4.0
104.685	5.0
104.7	4.0
104.715	2.0
104.73	4.0
104.745	3.0
104.76	2.0
104.775	2.0
104.79	3.0
104.804	2.0
104.819	3.0
104.834	5.0
104.849	1.0
104.864	8.0
104.879	1.0
104.894	1.0
104.909	5.0
104.924	4.0
104.939	2.0
104.954	2.0
104.968	3.0
104.983	4.0
104.998	3.0
105.013	1.0
105.028	1.0
105.043	5.0
105.058	3.0
105.073	4.0
105.088	5.0
105.103	5.0
105.118	3.0
105.133	3.0
105.147	2.0
105.162	2.0
105.177	2.0
105.192	2.0
105.207	4.0
105.222	3.0
105.237	4.0
105.252	3.0
105.267	4.0
105.282	5.0
105.297	3.0
105.312	2.0
105.327	3.0
105.342	0.0
105.356	1.0
105.371	2.0
105.386	1.0
105.401	2.0
105.416	2.0
105.431	2.0
105.446	4.0
105.461	3.0
105.476	3.0
105.491	5.0
105.506	5.0
105.521	0.0
105.536	5.0
105.551	3.0
105.566	3.0
105.581	1.0
105.595	7.0
105.61	1.0
105.625	2.0
105.64	3.0
105.655	3.0
105.67	4.0
105.685	4.0
105.7	1.0
105.715	6.0
105.73	5.0
105.745	4.0
105.76	4.0
105.775	1.0
105.79	3.0
105.805	4.0
105.82	7.0
105.835	6.0
105.85	2.0
105.864	2.0
105.879	1.0
105.894	5.0
105.909	1.0
105.924	3.0
105.939	5.0
105.954	3.0
105.969	3.0
105.984	2.0
105.999	5.0
106.014	2.0
106.029	3.0
106.044	4.0
106.059	7.0
106.074	2.0
106.089	5.0
106.104	2.0
106.119	5.0
106.134	4.0
106.148	5.0
106.163	2.0
106.178	4.0
106.193	3.0
106.208	3.0
106.223	7.0
106.238	2.0
106.253	4.0
106.268	3.0
106.283	6.0
106.298	3.0
106.313	1.0
106.328	1.0
106.343	0.0
106.358	0.0
106.373	3.0
106.388	6.0
106.403	2.0
106.418	0.0
106.432	1.0
106.447	6.0
106.462	2.0
106.477	1.0
106.492	3.0
106.507	3.0
106.522	0.0
106.537	5.0
106.552	0.0
106.567	6.0
106.582	2.0
106.597	3.0
106.612	7.0
106.627	1.0
106.642	2.0
106.657	2.0
106.672	6.0
106.687	3.0
106.701	3.0
106.716	2.0
106.731	3.0
106.746	3.0
106.761	6.0
106.776	2.0
106.791	4.0
106.806	3.0
106.821	5.0
106.836	1.0
106.851	2.0
106.866	1.0
106.881	2.0
106.896	3.0
106.911	3.0
106.926	4.0
106.941	2.0
106.955	1.0
106.97	2.0
106.985	1.0
107.0	2.0
107.015	3.0
107.03	2.0
107.045	3.0
107.06	3.0
107.075	1.0
107.09	2.0
107.105	6.0
107.12	3.0
107.135	4.0
107.15	4.0
107.165	3.0
107.18	3.0
107.194	1.0
107.209	3.0
107.224	4.0
107.239	3.0
107.254	1.0
107.269	5.0
107.284	5.0
107.299	6.0
107.314	0.0
107.329	0.0
107.344	4.0
107.359	3.0
107.374	3.0
107.389	3.0
107.404	1.0
107.418	3.0
107.433	1.0
107.448	3.0
107.463	5.0
107.478	2.0
107.493	2.0
107.508	2.0
107.523	3.0
107.538	3.0
107.553	7.0
107.568	6.0
107.583	1.0
107.598	4.0
107.613	7.0
107.627	2.0
107.642	5.0
107.657	2.0
107.672	5.0
107.687	5.0
107.702	3.0
107.717	5.0
107.732	0.0
107.747	5.0
107.762	5.0
107.777	3.0
107.792	3.0
107.807	2.0
107.821	1.0
107.836	1.0
107.851	2.0
107.866	4.0
107.881	2.0
107.896	6.0
107.911	3.0
107.926	5.0
107.941	1.0
107.956	0.0
107.971	3.0
107.986	5.0
108.0	2.0
108.015	2.0
108.03	4.0
108.045	5.0
108.06	2.0
108.075	2.0
108.09	2.0
108.105	7.0
108.12	8.0
108.135	3.0
108.15	7.0
108.164	4.0
108.179	3.0
108.194	3.0
108.209	3.0
108.224	2.0
108.239	5.0
108.254	6.0
108.269	3.0
108.284	3.0
108.299	4.0
108.313	3.0
108.328	3.0
108.343	2.0
108.358	0.0
108.373	0.0
108.388	3.0
108.403	4.0
108.418	0.0
108.433	2.0
108.448	1.0
108.462	1.0
108.477	3.0
108.492	5.0
108.507	2.0
108.522	1.0
108.537	6.0
108.552	5.0
108.567	3.0
108.582	1.0
108.597	7.0
108.611	3.0
108.626	2.0
108.641	4.0
108.656	3.0
108.671	2.0
108.686	2.0
108.701	1.0
108.716	3.0
108.731	1.0
108.745	4.0
108.76	2.0
108.775	1.0
108.79	2.0
108.805	6.0
108.82	4.0
108.835	1.0
108.85	4.0
108.865	3.0
108.879	6.0
108.894	4.0
108.909	1.0
108.924	6.0
108.939	2.0
108.954	1.0
108.969	3.0
108.984	3.0
108.999	3.0
109.013	3.0
109.028	6.0
109.043	1.0
109.058	3.0
109.073	2.0
109.088	2.0
109.103	6.0
109.118	4.0
109.133	4.0
109.147	5.0
109.162	6.0
109.177	3.0
109.192	4.0
109.207	2.0
109.222	2.0
109.237	2.0
109.252	2.0
109.267	1.0
109.281	3.0
109.296	5.0
109.311	3.0
109.326	2.0
109.341	3.0
109.356	3.0
109.371	2.0
109.386	3.0
109.4	5.0
109.415	1.0
109.43	4.0
109.445	4.0
109.46	3.0
109.475	2.0
109.49	2.0
109.505	2.0
109.52	4.0
109.534	4.0
109.549	8.0
109.564	4.0
109.579	2.0
109.594	1.0
109.609	4.0
109.624	2.0
109.639	6.0
109.653	5.0
109.668	2.0
109.683	2.0
109.698	6.0
109.713	2.0
109.728	6.0
109.743	2.0
109.758	3.0
109.773	3.0
109.787	2.0
109.802	4.0
109.817	2.0
109.832	3.0
109.847	3.0
109.862	1.0
109.877	3.0
109.892	1.0
109.907	3.0
109.921	1.0
109.936	2.0
109.951	4.0
109.966	1.0
109.981	3.0
109.996	5.0
110.011	5.0
110.026	2.0
110.04	2.0
110.055	3.0
110.07	2.0
110.085	3.0
110.1	7.0
110.115	1.0
110.13	3.0
110.145	2.0
110.16	2.0
110.174	3.0
110.189	3.0
110.204	3.0
110.219	3.0
110.234	3.0
110.249	2.0
110.264	3.0
110.279	4.0
110.294	3.0
110.308	0.0
110.323	1.0
110.338	2.0
110.353	1.0
110.368	4.0
110.383	2.0
110.398	2.0
110.413	4.0
110.428	2.0
110.442	1.0
110.457	2.0
110.472	4.0
110.487	1.0
110.502	3.0
110.517	1.0
110.532	6.0
110.547	3.0
110.561	3.0
110.576	4.0
110.591	4.0
110.606	3.0
110.621	2.0
110.636	1.0
110.651	3.0
110.666	2.0
110.681	4.0
110.695	2.0
110.71	4.0
110.725	2.0
110.74	3.0
110.755	5.0
110.77	7.0
110.785	4.0
110.8	5.0
110.815	3.0
110.829	4.0
110.844	5.0
110.859	1.0
110.874	5.0
110.889	6.0
110.904	5.0
110.919	3.0
110.934	3.0
110.948	1.0
110.963	1.0
110.978	2.0
110.993	3.0
111.008	3.0
111.023	1.0
111.038	3.0
111.053	0.0
111.067	1.0
111.082	0.0
111.097	4.0
111.112	0.0
111.127	1.0
111.142	3.0
111.157	4.0
111.172	2.0
111.186	2.0
111.201	2.0
111.216	3.0
111.231	1.0
111.246	1.0
111.261	5.0
111.276	3.0
111.291	4.0
111.305	2.0
111.32	2.0
111.335	1.0
111.35	0.0
111.365	1.0
111.38	5.0
111.395	3.0
111.41	1.0
111.424	3.0
111.439	3.0
111.454	4.0
111.469	0.0
111.484	5.0
111.499	1.0
111.514	5.0
111.528	1.0
111.543	6.0
111.558	4.0
111.573	5.0
111.588	3.0
111.603	4.0
111.618	4.0
111.633	6.0
111.647	2.0
111.662	4.0
111.677	3.0
111.692	4.0
111.707	5.0
111.722	6.0
111.737	4.0
111.751	5.0
111.766	4.0
111.781	3.0
111.796	2.0
111.811	6.0
111.826	1.0
111.84	2.0
111.855	3.0
111.87	3.0
111.885	6.0
111.9	4.0
111.915	7.0
111.93	7.0
111.944	4.0
111.959	5.0
111.974	4.0
111.989	4.0
112.004	6.0
112.019	4.0
112.033	6.0
112.048	2.0
112.063	0.0
112.078	4.0
112.093	3.0
112.108	3.0
112.123	5.0
112.137	4.0
112.152	1.0
112.167	6.0
112.182	1.0
112.197	3.0
112.212	3.0
112.226	5.0
112.241	7.0
112.256	3.0
112.271	3.0
112.286	2.0
112.301	3.0
112.315	1.0
112.33	5.0
112.345	0.0
112.36	3.0
112.375	3.0
112.389	3.0
112.404	5.0
112.419	2.0
112.434	5.0
112.449	3.0
112.464	7.0
112.478	3.0
112.493	5.0
112.508	3.0
112.523	5.0
112.538	5.0
112.553	3.0
112.567	3.0
112.582	1.0
112.597	4.0
112.612	2.0
112.627	5.0
112.642	8.0
112.656	0.0
112.671	1.0
112.686	4.0
112.701	2.0
112.716	5.0
112.73	6.0
112.745	2.0
112.76	4.0
112.775	0.0
112.79	3.0
112.805	2.0
112.819	0.0
112.834	2.0
112.849	1.0
112.864	3.0
112.879	1.0
112.894	1.0
112.908	0.0
112.923	3.0
112.938	6.0
112.953	2.0
112.968	7.0
112.983	2.0
112.997	1.0
113.012	1.0
113.027	2.0
113.042	0.0
113.057	3.0
113.072	4.0
113.086	3.0
113.101	2.0
113.116	1.0
113.131	1.0
113.146	3.0
113.161	5.0
113.175	4.0
113.19	5.0
113.205	1.0
113.22	1.0
113.235	2.0
113.25	4.0
113.265	5.0
113.279	4.0
113.294	0.0
113.309	5.0
113.324	4.0
113.339	5.0
113.354	1.0
113.368	3.0
113.383	4.0
113.398	1.0
113.413	3.0
113.428	9.0
113.443	5.0
113.458	5.0
113.472	6.0
113.487	2.0
113.502	2.0
113.517	2.0
113.532	4.0
113.547	5.0
113.562	4.0
113.576	2.0
113.591	4.0
113.606	3.0
113.621	8.0
113.636	2.0
113.651	3.0
113.666	3.0
113.681	3.0
113.695	6.0
113.71	3.0
113.725	6.0
113.74	1.0
113.755	3.0
113.77	4.0
113.785	3.0
113.8	2.0
113.814	3.0
113.829	1.0
113.844	1.0
113.859	2.0
113.874	0.0
113.889	1.0
113.904	4.0
113.919	1.0
113.934	5.0
113.949	3.0
113.963	5.0
113.978	5.0
113.993	3.0
114.008	2.0
114.023	3.0
114.038	6.0
114.053	2.0
114.068	6.0
114.083	3.0
114.098	3.0
114.113	2.0
114.127	7.0
114.142	2.0
114.157	2.0
114.172	1.0
114.187	2.0
114.202	5.0
114.217	2.0
114.232	1.0
114.247	2.0
114.262	3.0
114.277	0.0
114.292	5.0
114.307	6.0
114.322	3.0
114.337	5.0
114.351	2.0
114.366	3.0
114.381	0.0
114.396	0.0
114.411	3.0
114.426	5.0
114.441	4.0
114.456	7.0
114.471	9.0
114.486	6.0
114.501	3.0
114.516	3.0
114.531	3.0
114.546	4.0
114.561	2.0
114.576	7.0
114.591	5.0
114.606	2.0
114.621	5.0
114.636	2.0
114.65	3.0
114.665	2.0
114.68	2.0
114.695	1.0
114.71	2.0
114.725	4.0
114.74	1.0
114.755	3.0
114.77	5.0
114.785	2.0
114.8	5.0
114.815	6.0
114.83	3.0
114.845	3.0
114.86	1.0
114.875	4.0
114.89	3.0
114.905	1.0
114.92	0.0
114.935	3.0
114.95	1.0
114.965	3.0
114.98	2.0
114.995	4.0
115.009	3.0
115.024	1.0
115.039	1.0
115.054	2.0
115.069	4.0
115.084	6.0
115.099	4.0
115.114	1.0
115.129	5.0
115.144	4.0
115.159	2.0
115.174	3.0
115.189	5.0
115.204	8.0
115.219	5.0
115.234	2.0
115.249	2.0
115.264	4.0
115.279	5.0
115.294	2.0
115.309	5.0
115.323	1.0
115.338	5.0
115.353	4.0
115.368	7.0
115.383	3.0
115.398	3.0
115.413	6.0
115.428	3.0
115.443	6.0
115.458	4.0
115.473	3.0
115.488	3.0
115.503	2.0
115.518	7.0
115.533	1.0
115.548	6.0
115.562	3.0
115.577	4.0
115.592	8.0
115.607	3.0
115.622	3.0
115.637	6.0
115.652	5.0
115.667	3.0
115.682	4.0
115.697	3.0
115.712	4.0
115.727	2.0
115.741	1.0
115.756	7.0
115.771	3.0
115.786	3.0
115.801	7.0
115.816	4.0
115.831	3.0
115.846	5.0
115.861	1.0
115.875	5.0
115.89	5.0
115.905	3.0
115.92	3.0
115.935	1.0
115.95	6.0
115.965	1.0
115.98	1.0
115.995	2.0
116.009	0.0
116.024	5.0
116.039	2.0
116.054	2.0
116.069	4.0
116.084	1.0
116.099	2.0
116.113	3.0
116.128	4.0
116.143	4.0
116.158	6.0
116.173	4.0
116.188	5.0
116.202	5.0
116.217	1.0
116.232	2.0
116.247	6.0
116.262	9.0
116.277	5.0
116.291	6.0
116.306	5.0
116.321	9.0
116.336	5.0
116.351	3.0
116.366	4.0
116.38	5.0
116.395	3.0
116.41	2.0
116.425	4.0
116.44	2.0
116.454	1.0
116.469	4.0
116.484	4.0
116.499	2.0
116.514	4.0
116.528	4.0
116.543	5.0
116.558	2.0
116.573	4.0
116.588	1.0
116.602	2.0
116.617	3.0
116.632	3.0
116.647	3.0
116.662	7.0
116.676	6.0
116.691	1.0
116.706	4.0
116.721	2.0
116.735	0.0
116.75	5.0
116.765	3.0
116.78	5.0
116.795	1.0
116.809	3.0
116.824	1.0
116.839	4.0
116.854	4.0
116.868	5.0
116.883	9.0
116.898	2.0
116.913	0.0
116.927	5.0
116.942	3.0
116.957	6.0
116.972	2.0
116.986	3.0
117.001	2.0
117.016	4.0
117.031	3.0
117.045	5.0
117.06	2.0
117.075	2.0
117.09	3.0
117.104	2.0
117.119	7.0
117.134	2.0
117.149	6.0
117.163	8.0
117.178	4.0
117.193	2.0
117.208	5.0
117.222	3.0
117.237	6.0
117.252	3.0
117.267	3.0
117.281	10.0
117.296	4.0
117.311	2.0
117.325	3.0
117.34	1.0
117.355	1.0
117.37	4.0
117.384	1.0
117.399	3.0
117.414	4.0
117.429	4.0
117.443	3.0
117.458	2.0
117.473	5.0
117.487	5.0
117.502	4.0
117.517	4.0
117.532	4.0
117.546	1.0
117.561	3.0
117.576	4.0
117.59	2.0
117.605	4.0
117.62	4.0
117.635	2.0
117.649	4.0
117.664	5.0
117.679	3.0
117.693	0.0
117.708	5.0
117.723	3.0
117.738	1.0
117.752	4.0
117.767	4.0
117.782	3.0
117.796	3.0
117.811	3.0
117.826	4.0
117.841	1.0
117.855	6.0
117.87	2.0
117.885	6.0
117.899	6.0
117.914	2.0
117.929	5.0
117.944	4.0
117.958	6.0
117.973	5.0
117.988	1.0
118.002	5.0
118.017	5.0
118.032	0.0
118.047	7.0
118.062	4.0
118.077	4.0
118.092	6.0
118.107	6.0
118.121	4.0
118.136	3.0
118.151	3.0
118.166	4.0
118.181	5.0
118.196	5.0
118.211	2.0
118.225	3.0
118.24	5.0
118.255	5.0
118.27	3.0
118.285	2.0
118.3	6.0
118.315	3.0
118.33	7.0
118.344	2.0
118.359	3.0
118.374	5.0
118.389	2.0
118.404	1.0
118.419	2.0
118.434	3.0
118.449	3.0
118.463	6.0
118.478	5.0
118.493	4.0
118.508	3.0
118.523	4.0
118.538	1.0
118.553	5.0
118.567	2.0
118.582	1.0
118.597	5.0
118.612	3.0
118.627	3.0
118.642	3.0
118.657	3.0
118.672	8.0
118.686	4.0
118.701	3.0
118.716	6.0
118.731	4.0
118.746	3.0
118.761	3.0
118.776	3.0
118.791	3.0
118.805	1.0
118.82	8.0
118.835	1.0
118.85	3.0
118.865	6.0
118.88	3.0
118.895	2.0
118.909	1.0
118.924	5.0
118.939	4.0
118.954	5.0
118.969	3.0
118.984	2.0
118.999	3.0
119.014	5.0
119.028	3.0
119.043	6.0
119.058	3.0
119.073	3.0
119.088	2.0
119.103	5.0
119.118	5.0
119.133	7.0
119.147	2.0
119.162	4.0
119.177	6.0
119.192	1.0
119.207	2.0
119.222	5.0
119.237	1.0
119.251	3.0
119.266	5.0
119.281	4.0
119.296	6.0
119.311	3.0
119.326	3.0
119.341	5.0
119.356	2.0
119.37	3.0
119.385	2.0
119.4	4.0
119.415	7.0
119.43	3.0
119.445	5.0
119.46	2.0
119.475	1.0
119.489	2.0
119.504	6.0
119.519	4.0
119.534	4.0
119.549	2.0
119.564	3.0
119.579	1.0
119.593	4.0
119.608	6.0
119.623	3.0
119.638	4.0
119.653	6.0
119.668	2.0
119.683	1.0
119.698	2.0
119.712	4.0
119.727	3.0
119.742	1.0
119.757	2.0
119.772	2.0
119.787	3.0
119.802	2.0
119.817	3.0
119.831	2.0
119.846	2.0
119.861	3.0
119.876	2.0
119.891	3.0
119.906	3.0
119.921	2.0
119.935	3.0
119.95	3.0
119.965	3.0
119.98	2.0
119.995	4.0
120.01	3.0
120.025	4.0
120.04	0.0
120.054	2.0
120.069	4.0
120.084	4.0
120.099	0.0
120.114	0.0
120.129	0.0
120.144	1.0
120.159	1.0
120.173	3.0
120.188	4.0
120.203	2.0
120.218	0.0
120.233	1.0
120.248	1.0
120.263	0.0
120.277	0.0
120.292	3.0
120.307	2.0
120.322	1.0
120.337	1.0
120.352	0.0
120.367	0.0
120.382	0.0
120.396	0.0
120.411	0.0
120.426	1.0
120.441	0.0
120.456	2.0
120.471	0.0
120.486	0.0
120.501	0.0
120.515	0.0
120.53	0.0
120.545	0.0
120.56	0.0
120.575	0.0
120.59	0.0
120.605	0.0
120.619	0.0
120.634	0.0
120.649	0.0
120.664	1.0
120.679	0.0
120.694	0.0
120.709	0.0
120.724	0.0
120.738	0.0
120.753	0.0
120.768	0.0
120.783	0.0
120.798	0.0
120.813	0.0
120.828	0.0
120.843	0.0
120.857	0.0
120.872	0.0
120.887	0.0
120.902	0.0
120.917	1.0
120.932	0.0
120.947	0.0
120.961	0.0
120.976	0.0
