-1.217	0.0
-1.202	0.0
-1.187	0.0
-1.172	0.0
-1.157	0.0
-1.142	0.0
-1.128	0.0
-1.113	0.0
-1.098	0.0
-1.083	0.0
-1.068	0.0
-1.054	0.0
-1.039	0.0
-1.024	0.0
-1.009	0.0
-0.994	0.0
-0.979	0.0
-0.965	0.0
-0.95	0.0
-0.935	0.0
-0.92	0.0
-0.905	0.0
-0.891	0.0
-0.876	0.0
-0.861	0.0
-0.846	0.0
-0.831	0.0
-0.816	0.0
-0.802	0.0
-0.787	0.0
-0.772	0.0
-0.757	0.0
-0.742	0.0
-0.728	0.0
-0.713	0.0
-0.698	0.0
-0.683	0.0
-0.668	0.0
-0.653	0.0
-0.639	0.0
-0.624	0.0
-0.609	0.0
-0.594	0.0
-0.579	0.0
-0.565	0.0
-0.55	0.0
-0.535	0.0
-0.52	0.0
-0.505	0.0
-0.49	0.0
-0.476	0.0
-0.461	0.0
-0.446	0.0
-0.431	0.0
-0.416	0.0
-0.401	0.0
-0.387	0.0
-0.372	0.0
-0.357	0.0
-0.342	0.0
-0.327	0.0
-0.313	0.0
-0.298	0.0
-0.283	0.0
-0.268	0.0
-0.253	0.0
-0.238	0.0
-0.224	0.0
-0.209	0.0
-0.194	0.0
-0.179	0.0
-0.164	0.0
-0.15	0.0
-0.135	0.0
-0.12	0.0
-0.105	1.0
-0.09	0.0
-0.075	0.0
-0.061	0.0
-0.046	0.0
-0.031	0.0
-0.016	0.0
-0.001	0.0
0.013	0.0
0.028	0.0
0.043	0.0
0.058	0.0
0.073	0.0
0.088	0.0
0.102	0.0
0.117	0.0
0.132	0.0
0.147	0.0
0.162	0.0
0.176	0.0
0.191	0.0
0.206	0.0
0.221	0.0
0.236	0.0
0.251	0.0
0.265	0.0
0.28	0.0
0.295	0.0
0.31	0.0
0.325	0.0
0.339	0.0
0.354	0.0
0.369	0.0
0.384	0.0
0.399	0.0
0.414	0.0
0.428	0.0
0.443	0.0
0.458	0.0
0.473	0.0
0.488	0.0
0.502	0.0
0.517	0.0
0.532	0.0
0.547	0.0
0.562	0.0
0.577	0.0
0.591	0.0
0.606	0.0
0.621	0.0
0.636	0.0
0.651	0.0
0.665	0.0
0.68	0.0
0.695	0.0
0.71	0.0
0.725	0.0
0.74	0.0
0.754	0.0
0.769	0.0
0.784	0.0
0.799	1.0
0.814	0.0
0.828	0.0
0.843	0.0
0.858	0.0
0.873	0.0
0.888	0.0
0.903	0.0
0.917	0.0
0.932	1.0
0.947	0.0
0.962	0.0
0.977	0.0
0.991	0.0
1.006	0.0
1.021	0.0
1.036	0.0
1.051	0.0
1.065	0.0
1.08	0.0
1.095	0.0
1.11	0.0
1.125	0.0
1.14	0.0
1.154	0.0
1.169	0.0
1.184	1.0
1.199	0.0
1.214	0.0
1.228	0.0
1.243	0.0
1.258	0.0
1.273	0.0
1.288	0.0
1.302	0.0
1.317	0.0
1.332	0.0
1.347	0.0
1.362	0.0
1.376	0.0
1.391	0.0
1.406	0.0
1.421	0.0
1.436	0.0
1.45	0.0
1.465	0.0
1.48	1.0
1.495	0.0
1.51	0.0
1.524	0.0
1.539	0.0
1.554	0.0
1.569	0.0
1.584	1.0
1.598	1.0
1.613	0.0
1.628	0.0
1.643	0.0
1.658	0.0
1.672	0.0
1.687	0.0
1.702	0.0
1.717	0.0
1.732	0.0
1.746	0.0
1.761	1.0
1.776	0.0
1.791	0.0
1.806	0.0
1.82	0.0
1.835	0.0
1.85	0.0
1.865	0.0
1.88	0.0
1.894	0.0
1.909	1.0
1.924	0.0
1.939	1.0
1.954	0.0
1.968	0.0
1.983	0.0
1.998	0.0
2.013	0.0
2.028	0.0
2.042	0.0
2.057	0.0
2.072	0.0
2.087	0.0
2.101	0.0
2.116	0.0
2.131	0.0
2.146	0.0
2.161	0.0
2.175	2.0
2.19	0.0
2.205	1.0
2.22	1.0
2.235	1.0
2.249	0.0
2.264	2.0
2.279	1.0
2.294	0.0
2.308	0.0
2.323	1.0
2.338	2.0
2.353	0.0
2.368	1.0
2.382	0.0
2.397	0.0
2.412	0.0
2.427	3.0
2.442	2.0
2.456	1.0
2.471	0.0
2.486	2.0
2.501	1.0
2.515	4.0
2.53	3.0
2.545	4.0
2.56	2.0
2.575	3.0
2.589	3.0
2.604	2.0
2.619	2.0
2.634	3.0
2.649	0.0
2.663	6.0
2.678	0.0
2.693	4.0
2.708	2.0
2.722	2.0
2.737	2.0
2.752	0.0
2.767	1.0
2.782	4.0
2.796	0.0
2.811	2.0
2.826	5.0
2.841	1.0
2.856	6.0
2.87	3.0
2.885	3.0
2.9	3.0
2.915	3.0
2.93	2.0
2.944	1.0
2.959	3.0
2.974	4.0
2.989	3.0
3.004	5.0
3.018	6.0
3.033	8.0
3.048	1.0
3.063	5.0
3.078	8.0
3.092	4.0
3.107	1.0
3.122	0.0
3.137	4.0
3.152	6.0
3.166	2.0
3.181	6.0
3.196	6.0
3.211	5.0
3.226	4.0
3.24	3.0
3.255	2.0
3.27	5.0
3.285	3.0
3.3	3.0
3.315	6.0
3.329	4.0
3.344	5.0
3.359	3.0
3.374	5.0
3.389	4.0
3.403	6.0
3.418	6.0
3.433	7.0
3.448	5.0
3.463	2.0
3.478	4.0
3.492	8.0
3.507	7.0
3.522	7.0
3.537	6.0
3.552	8.0
3.567	4.0
3.581	5.0
3.596	7.0
3.611	7.0
3.626	5.0
3.641	5.0
3.656	3.0
3.671	5.0
3.685	9.0
3.7	4.0
3.715	2.0
3.73	4.0
3.745	7.0
3.76	7.0
3.775	6.0
3.789	4.0
3.804	7.0
3.819	4.0
3.834	5.0
3.849	8.0
3.864	6.0
3.879	10.0
3.894	7.0
3.908	9.0
3.923	7.0
3.938	12.0
3.953	5.0
3.968	4.0
3.983	8.0
3.998	9.0
4.013	3.0
4.027	5.0
4.042	7.0
4.057	8.0
4.072	14.0
4.087	4.0
4.102	8.0
4.117	6.0
4.132	9.0
4.147	4.0
4.162	8.0
4.176	8.0
4.191	11.0
4.206	7.0
4.221	12.0
4.236	7.0
4.251	2.0
4.266	4.0
4.281	10.0
4.296	2.0
4.311	7.0
4.326	10.0
4.341	7.0
4.356	6.0
4.37	6.0
4.385	7.0
4.4	10.0
4.415	6.0
4.43	6.0
4.445	5.0
4.46	6.0
4.475	6.0
4.49	7.0
4.505	8.0
4.52	8.0
4.535	11.0
4.55	11.0
4.565	7.0
4.58	3.0
4.595	12.0
4.61	4.0
4.625	9.0
4.639	5.0
4.654	10.0
4.669	8.0
4.684	10.0
4.699	4.0
4.714	7.0
4.729	9.0
4.744	5.0
4.759	10.0
4.774	3.0
4.789	6.0
4.804	10.0
4.819	7.0
4.834	7.0
4.849	6.0
4.864	6.0
4.879	9.0
4.894	11.0
4.909	9.0
4.924	7.0
4.939	7.0
4.954	9.0
4.969	7.0
4.984	9.0
4.999	4.0
5.014	8.0
5.029	7.0
5.044	9.0
5.059	7.0
5.074	7.0
5.089	7.0
5.104	9.0
5.119	6.0
5.134	10.0
5.149	4.0
5.164	5.0
5.179	12.0
5.194	4.0
5.209	8.0
5.224	9.0
5.239	10.0
5.254	11.0
5.269	6.0
5.284	10.0
5.299	8.0
5.314	8.0
5.329	8.0
5.344	7.0
5.359	6.0
5.374	12.0
5.389	13.0
5.404	11.0
5.419	11.0
5.434	12.0
5.449	6.0
5.464	11.0
5.479	6.0
5.494	5.0
5.509	8.0
5.524	3.0
5.539	9.0
5.554	4.0
5.569	7.0
5.584	10.0
5.599	14.0
5.614	4.0
5.629	8.0
5.644	8.0
5.659	8.0
5.674	11.0
5.689	5.0
5.704	6.0
5.719	10.0
5.734	7.0
5.749	12.0
5.764	12.0
5.779	4.0
5.794	8.0
5.809	8.0
5.824	11.0
5.839	16.0
5.854	14.0
5.869	5.0
5.884	4.0
5.899	8.0
5.914	11.0
5.929	13.0
5.944	5.0
5.959	2.0
5.974	12.0
5.989	8.0
6.004	8.0
6.019	3.0
6.034	5.0
6.049	12.0
6.064	8.0
6.079	10.0
6.094	11.0
6.109	7.0
6.124	8.0
6.139	8.0
6.154	15.0
6.169	6.0
6.184	12.0
6.199	12.0
6.214	6.0
6.229	13.0
6.244	6.0
6.259	9.0
6.274	6.0
6.289	7.0
6.304	6.0
6.319	6.0
6.334	7.0
6.349	9.0
6.364	11.0
6.379	12.0
6.394	10.0
6.409	9.0
6.424	9.0
6.439	4.0
6.454	8.0
6.469	7.0
6.484	8.0
6.499	6.0
6.514	5.0
6.529	9.0
6.544	7.0
6.559	6.0
6.574	5.0
6.589	9.0
6.604	10.0
6.619	7.0
6.634	14.0
6.649	7.0
6.664	9.0
6.679	8.0
6.694	10.0
6.709	11.0
6.724	10.0
6.739	7.0
6.754	8.0
6.769	4.0
6.784	12.0
6.799	5.0
6.814	11.0
6.829	10.0
6.844	7.0
6.859	11.0
6.873	10.0
6.888	6.0
6.903	10.0
6.918	7.0
6.933	8.0
6.948	6.0
6.963	11.0
6.978	10.0
6.993	10.0
7.008	6.0
7.023	5.0
7.038	11.0
7.053	10.0
7.068	6.0
7.083	7.0
7.098	9.0
7.113	8.0
7.128	9.0
7.143	8.0
7.157	12.0
7.172	5.0
7.187	10.0
7.202	12.0
7.217	13.0
7.232	7.0
7.247	8.0
7.262	11.0
7.277	5.0
7.292	10.0
7.307	9.0
7.322	5.0
7.336	9.0
7.351	9.0
7.366	8.0
7.381	9.0
7.396	8.0
7.411	12.0
7.426	12.0
7.441	18.0
7.456	14.0
7.471	9.0
7.485	10.0
7.5	4.0
7.515	10.0
7.53	10.0
7.545	9.0
7.56	9.0
7.575	8.0
7.59	12.0
7.604	5.0
7.619	11.0
7.634	1.0
7.649	4.0
7.664	6.0
7.679	10.0
7.693	8.0
7.708	10.0
7.723	14.0
7.738	10.0
7.753	16.0
7.768	4.0
7.783	11.0
7.797	8.0
7.812	10.0
7.827	8.0
7.842	5.0
7.857	11.0
7.871	3.0
7.886	13.0
7.901	3.0
7.916	14.0
7.931	5.0
7.945	9.0
7.96	9.0
7.975	10.0
7.99	4.0
8.005	10.0
8.019	4.0
8.034	11.0
8.049	11.0
8.064	8.0
8.078	5.0
8.093	10.0
8.108	13.0
8.123	14.0
8.137	7.0
8.152	7.0
8.167	9.0
8.182	14.0
8.196	8.0
8.211	10.0
8.226	9.0
8.241	6.0
8.255	5.0
8.27	6.0
8.285	8.0
8.3	7.0
8.314	16.0
8.329	9.0
8.344	10.0
8.358	10.0
8.373	10.0
8.388	9.0
8.403	4.0
8.417	15.0
8.432	10.0
8.447	10.0
8.461	9.0
8.476	6.0
8.491	7.0
8.505	6.0
8.52	11.0
8.535	9.0
8.55	5.0
8.564	14.0
8.579	9.0
8.594	9.0
8.608	7.0
8.623	15.0
8.638	6.0
8.652	10.0
8.667	7.0
8.682	9.0
8.696	12.0
8.711	7.0
8.726	12.0
8.74	7.0
8.755	6.0
8.77	7.0
8.784	9.0
8.799	9.0
8.814	7.0
8.828	15.0
8.843	9.0
8.858	12.0
8.872	7.0
8.887	17.0
8.902	8.0
8.916	12.0
8.931	8.0
8.946	9.0
8.96	10.0
8.975	16.0
8.99	11.0
9.004	15.0
9.019	8.0
9.034	4.0
9.048	10.0
9.063	6.0
9.077	3.0
9.092	3.0
9.107	12.0
9.121	7.0
9.136	5.0
9.151	6.0
9.165	11.0
9.18	14.0
9.195	5.0
9.209	10.0
9.224	10.0
9.239	7.0
9.253	12.0
9.268	8.0
9.283	7.0
9.297	6.0
9.312	11.0
9.327	12.0
9.341	7.0
9.356	7.0
9.371	9.0
9.385	9.0
9.4	12.0
9.415	9.0
9.429	16.0
9.444	7.0
9.458	10.0
9.473	7.0
9.488	2.0
9.502	6.0
9.517	5.0
9.532	11.0
9.546	6.0
9.561	7.0
9.576	4.0
9.59	3.0
9.605	6.0
9.62	9.0
9.635	13.0
9.649	10.0
9.664	5.0
9.679	8.0
9.693	8.0
9.708	11.0
9.723	3.0
9.737	6.0
9.752	10.0
9.767	4.0
9.781	7.0
9.796	10.0
9.811	11.0
9.825	6.0
9.84	6.0
9.855	2.0
9.87	11.0
9.884	5.0
9.899	3.0
9.914	12.0
9.928	8.0
9.943	7.0
9.958	8.0
9.973	4.0
9.987	8.0
10.002	6.0
10.017	11.0
10.031	9.0
10.046	8.0
10.061	9.0
10.076	3.0
10.09	8.0
10.105	9.0
10.12	10.0
10.135	8.0
10.149	10.0
10.164	8.0
10.179	11.0
10.194	6.0
10.208	8.0
10.223	7.0
10.238	14.0
10.253	7.0
10.267	9.0
10.282	8.0
10.297	12.0
10.312	6.0
10.326	8.0
10.341	9.0
10.356	7.0
10.371	7.0
10.386	8.0
10.4	16.0
10.415	13.0
10.43	6.0
10.445	13.0
10.46	8.0
10.474	7.0
10.489	9.0
10.504	8.0
10.519	5.0
10.533	10.0
10.548	5.0
10.563	5.0
10.578	8.0
10.593	9.0
10.608	5.0
10.622	12.0
10.637	10.0
10.652	4.0
10.667	12.0
10.682	2.0
10.696	3.0
10.711	8.0
10.726	5.0
10.741	5.0
10.756	4.0
10.771	13.0
10.785	14.0
10.8	14.0
10.815	10.0
10.83	6.0
10.845	10.0
10.86	9.0
10.874	10.0
10.889	5.0
10.904	10.0
10.919	10.0
10.934	13.0
10.949	9.0
10.963	7.0
10.978	7.0
10.993	7.0
11.008	9.0
11.023	4.0
11.038	4.0
11.053	7.0
11.067	7.0
11.082	6.0
11.097	6.0
11.112	6.0
11.127	11.0
11.142	9.0
11.157	3.0
11.172	8.0
11.186	4.0
11.201	9.0
11.216	7.0
11.231	7.0
11.246	12.0
11.261	5.0
11.276	4.0
11.291	10.0
11.305	7.0
11.32	10.0
11.335	13.0
11.35	7.0
11.365	15.0
11.38	4.0
11.395	13.0
11.41	7.0
11.424	6.0
11.439	5.0
11.454	6.0
11.469	10.0
11.484	9.0
11.499	9.0
11.514	7.0
11.529	7.0
11.544	7.0
11.558	7.0
11.573	15.0
11.588	4.0
11.603	10.0
11.618	13.0
11.633	9.0
11.648	8.0
11.663	6.0
11.678	9.0
11.693	9.0
11.707	11.0
11.722	4.0
11.737	9.0
11.752	6.0
11.767	4.0
11.782	6.0
11.797	7.0
11.812	4.0
11.827	8.0
11.842	7.0
11.856	12.0
11.871	8.0
11.886	7.0
11.901	8.0
11.916	8.0
11.931	15.0
11.946	9.0
11.961	5.0
11.976	11.0
11.991	9.0
12.006	9.0
12.02	10.0
12.035	8.0
12.05	4.0
12.065	12.0
12.08	8.0
12.095	11.0
12.11	14.0
12.125	11.0
12.14	4.0
12.155	11.0
12.17	12.0
12.184	5.0
12.199	11.0
12.214	10.0
12.229	13.0
12.244	10.0
12.259	8.0
12.274	12.0
12.289	11.0
12.304	12.0
12.319	9.0
12.334	14.0
12.348	14.0
12.363	11.0
12.378	11.0
12.393	13.0
12.408	10.0
12.423	11.0
12.438	12.0
12.453	11.0
12.468	9.0
12.483	11.0
12.498	5.0
12.513	11.0
12.527	3.0
12.542	13.0
12.557	11.0
12.572	9.0
12.587	13.0
12.602	19.0
12.617	6.0
12.632	13.0
12.647	8.0
12.662	13.0
12.677	14.0
12.692	14.0
12.707	11.0
12.721	13.0
12.736	14.0
12.751	24.0
12.766	12.0
12.781	14.0
12.796	20.0
12.811	16.0
12.826	11.0
12.841	25.0
12.856	12.0
12.871	13.0
12.886	14.0
12.9	11.0
12.915	17.0
12.93	18.0
12.945	17.0
12.96	8.0
12.975	15.0
12.99	6.0
13.005	15.0
13.02	14.0
13.035	11.0
13.05	16.0
13.065	18.0
13.08	19.0
13.094	18.0
13.109	17.0
13.124	10.0
13.139	13.0
13.154	22.0
13.169	14.0
13.184	15.0
13.199	19.0
13.214	19.0
13.229	15.0
13.244	19.0
13.259	17.0
13.274	22.0
13.288	24.0
13.303	23.0
13.318	11.0
13.333	19.0
13.348	21.0
13.363	25.0
13.378	38.0
13.393	17.0
13.408	21.0
13.423	22.0
13.438	30.0
13.453	28.0
13.468	30.0
13.482	32.0
13.497	25.0
13.512	38.0
13.527	42.0
13.542	48.0
13.557	59.0
13.572	40.0
13.587	60.0
13.602	56.0
13.617	69.0
13.632	74.0
13.647	67.0
13.662	59.0
13.677	90.0
13.691	96.0
13.706	74.0
13.721	100.0
13.736	79.0
13.751	93.0
13.766	107.0
13.781	104.0
13.796	98.0
13.811	133.0
13.826	125.0
13.841	114.0
13.856	111.0
13.871	110.0
13.885	91.0
13.9	89.0
13.915	74.0
13.93	65.0
13.945	65.0
13.96	51.0
13.975	37.0
13.99	38.0
14.005	33.0
14.02	29.0
14.035	35.0
14.05	22.0
14.065	17.0
14.08	27.0
14.094	17.0
14.109	14.0
14.124	27.0
14.139	31.0
14.154	23.0
14.169	14.0
14.184	24.0
14.199	23.0
14.214	19.0
14.229	13.0
14.244	15.0
14.259	22.0
14.274	17.0
14.288	22.0
14.303	26.0
14.318	22.0
14.333	20.0
14.348	15.0
14.363	26.0
14.378	18.0
14.393	20.0
14.408	22.0
14.423	18.0
14.438	11.0
14.453	16.0
14.468	17.0
14.482	18.0
14.497	13.0
14.512	11.0
14.527	16.0
14.542	17.0
14.557	20.0
14.572	20.0
14.587	22.0
14.602	19.0
14.617	8.0
14.632	9.0
14.647	14.0
14.661	18.0
14.676	21.0
14.691	11.0
14.706	21.0
14.721	25.0
14.736	24.0
14.751	17.0
14.766	18.0
14.781	25.0
14.796	9.0
14.811	22.0
14.826	14.0
14.84	16.0
14.855	12.0
14.87	19.0
14.885	16.0
14.9	5.0
14.915	18.0
14.93	14.0
14.945	15.0
14.96	14.0
14.975	25.0
14.989	27.0
15.004	12.0
15.019	9.0
15.034	23.0
15.049	15.0
15.064	12.0
15.079	10.0
15.094	12.0
15.109	14.0
15.124	12.0
15.138	12.0
15.153	18.0
15.168	22.0
15.183	12.0
15.198	18.0
15.213	17.0
15.228	8.0
15.243	16.0
15.258	13.0
15.272	15.0
15.287	13.0
15.302	8.0
15.317	12.0
15.332	15.0
15.347	7.0
15.362	20.0
15.377	11.0
15.391	20.0
15.406	16.0
15.421	17.0
15.436	11.0
15.451	15.0
15.466	13.0
15.481	15.0
15.496	16.0
15.51	13.0
15.525	8.0
15.54	17.0
15.555	23.0
15.57	13.0
15.585	12.0
15.6	15.0
15.614	13.0
15.629	10.0
15.644	16.0
15.659	9.0
15.674	11.0
15.689	9.0
15.704	19.0
15.718	12.0
15.733	13.0
15.748	16.0
15.763	19.0
15.778	16.0
15.793	12.0
15.808	10.0
15.822	8.0
15.837	12.0
15.852	12.0
15.867	15.0
15.882	13.0
15.897	17.0
15.911	17.0
15.926	12.0
15.941	12.0
15.956	16.0
15.971	16.0
15.986	5.0
16.0	16.0
16.015	10.0
16.03	16.0
16.045	14.0
16.06	16.0
16.074	17.0
16.089	11.0
16.104	11.0
16.119	4.0
16.134	20.0
16.149	15.0
16.163	13.0
16.178	9.0
16.193	12.0
16.208	13.0
16.223	14.0
16.237	13.0
16.252	12.0
16.267	13.0
16.282	19.0
16.297	12.0
16.311	10.0
16.326	8.0
16.341	18.0
16.356	10.0
16.37	14.0
16.385	19.0
16.4	20.0
16.415	12.0
16.43	18.0
16.444	15.0
16.459	16.0
16.474	17.0
16.489	22.0
16.504	11.0
16.518	17.0
16.533	15.0
16.548	20.0
16.563	16.0
16.577	14.0
16.592	22.0
16.607	24.0
16.622	13.0
16.637	19.0
16.651	25.0
16.666	16.0
16.681	25.0
16.696	32.0
16.71	33.0
16.725	30.0
16.74	28.0
16.755	40.0
16.77	31.0
16.784	38.0
16.799	42.0
16.814	36.0
16.829	49.0
16.843	52.0
16.858	56.0
16.873	64.0
16.888	54.0
16.902	69.0
16.917	58.0
16.932	92.0
16.947	74.0
16.961	77.0
16.976	86.0
16.991	68.0
17.006	69.0
17.021	58.0
17.035	35.0
17.05	41.0
17.065	41.0
17.08	29.0
17.094	33.0
17.109	23.0
17.124	23.0
17.139	26.0
17.153	21.0
17.168	14.0
17.183	11.0
17.198	23.0
17.212	20.0
17.227	12.0
17.242	14.0
17.257	14.0
17.271	16.0
17.286	13.0
17.301	9.0
17.316	11.0
17.33	13.0
17.345	7.0
17.36	14.0
17.375	12.0
17.39	13.0
17.404	11.0
17.419	19.0
17.434	16.0
17.449	14.0
17.463	9.0
17.478	15.0
17.493	15.0
17.508	22.0
17.522	12.0
17.537	9.0
17.552	8.0
17.567	15.0
17.581	20.0
17.596	8.0
17.611	9.0
17.626	14.0
17.641	14.0
17.655	14.0
17.67	12.0
17.685	14.0
17.7	14.0
17.714	8.0
17.729	20.0
17.744	11.0
17.759	9.0
17.773	12.0
17.788	11.0
17.803	10.0
17.818	11.0
17.833	6.0
17.847	15.0
17.862	13.0
17.877	9.0
17.892	9.0
17.906	13.0
17.921	18.0
17.936	11.0
17.951	13.0
17.966	8.0
17.98	8.0
17.995	14.0
18.01	8.0
18.025	15.0
18.04	16.0
18.054	9.0
18.069	10.0
18.084	12.0
18.099	14.0
18.114	11.0
18.128	10.0
18.143	8.0
18.158	14.0
18.173	8.0
18.188	9.0
18.202	12.0
18.217	14.0
18.232	11.0
18.247	13.0
18.262	9.0
18.276	9.0
18.291	4.0
18.306	12.0
18.321	14.0
18.336	13.0
18.35	8.0
18.365	18.0
18.38	12.0
18.395	19.0
18.41	14.0
18.424	14.0
18.439	9.0
18.454	14.0
18.469	7.0
18.484	9.0
18.498	18.0
18.513	10.0
18.528	10.0
18.543	9.0
18.558	11.0
18.573	16.0
18.587	12.0
18.602	11.0
18.617	8.0
18.632	8.0
18.647	6.0
18.661	6.0
18.676	5.0
18.691	13.0
18.706	15.0
18.721	7.0
18.736	12.0
18.75	10.0
18.765	7.0
18.78	15.0
18.795	17.0
18.81	11.0
18.825	15.0
18.839	10.0
18.854	10.0
18.869	12.0
18.884	12.0
18.899	13.0
18.913	11.0
18.928	12.0
18.943	8.0
18.958	12.0
18.973	10.0
18.988	4.0
19.002	14.0
19.017	20.0
19.032	11.0
19.047	6.0
19.062	8.0
19.077	10.0
19.091	8.0
19.106	10.0
19.121	14.0
19.136	11.0
19.151	13.0
19.165	10.0
19.18	13.0
19.195	15.0
19.21	14.0
19.225	12.0
19.24	17.0
19.254	10.0
19.269	13.0
19.284	12.0
19.299	16.0
19.314	21.0
19.329	21.0
19.343	14.0
19.358	15.0
19.373	20.0
19.388	20.0
19.403	15.0
19.417	18.0
19.432	18.0
19.447	26.0
19.462	20.0
19.477	27.0
19.492	22.0
19.506	26.0
19.521	32.0
19.536	36.0
19.551	36.0
19.566	43.0
19.58	43.0
19.595	49.0
19.61	42.0
19.625	54.0
19.64	36.0
19.655	34.0
19.669	32.0
19.684	26.0
19.699	31.0
19.714	36.0
19.729	26.0
19.743	37.0
19.758	25.0
19.773	14.0
19.788	18.0
19.803	14.0
19.817	11.0
19.832	10.0
19.847	11.0
19.862	5.0
19.877	10.0
19.891	16.0
19.906	8.0
19.921	12.0
19.936	16.0
19.951	13.0
19.965	14.0
19.98	15.0
19.995	10.0
20.01	14.0
20.025	13.0
20.039	11.0
20.054	12.0
20.069	10.0
20.084	16.0
20.099	18.0
20.113	15.0
20.128	13.0
20.143	11.0
20.158	12.0
20.173	12.0
20.187	7.0
20.202	12.0
20.217	14.0
20.232	13.0
20.246	21.0
20.261	7.0
20.276	11.0
20.291	15.0
20.306	9.0
20.32	13.0
20.335	11.0
20.35	9.0
20.365	11.0
20.38	11.0
20.394	9.0
20.409	10.0
20.424	9.0
20.439	6.0
20.453	19.0
20.468	12.0
20.483	9.0
20.498	10.0
20.513	13.0
20.527	9.0
20.542	7.0
20.557	10.0
20.572	5.0
20.586	8.0
20.601	12.0
20.616	10.0
20.631	9.0
20.646	10.0
20.66	16.0
20.675	14.0
20.69	14.0
20.705	5.0
20.719	10.0
20.734	9.0
20.749	12.0
20.764	7.0
20.779	20.0
20.793	12.0
20.808	10.0
20.823	14.0
20.838	8.0
20.853	16.0
20.867	12.0
20.882	8.0
20.897	17.0
20.912	10.0
20.926	11.0
20.941	15.0
20.956	8.0
20.971	3.0
20.986	13.0
21.0	8.0
21.015	11.0
21.03	13.0
21.045	10.0
21.06	6.0
21.074	6.0
21.089	10.0
21.104	8.0
21.119	11.0
21.134	7.0
21.148	13.0
21.163	7.0
21.178	10.0
21.193	10.0
21.208	14.0
21.222	11.0
21.237	11.0
21.252	8.0
21.267	18.0
21.282	12.0
21.296	16.0
21.311	11.0
21.326	13.0
21.341	9.0
21.356	11.0
21.37	18.0
21.385	13.0
21.4	16.0
21.415	15.0
21.43	10.0
21.444	12.0
21.459	15.0
21.474	18.0
21.489	18.0
21.504	10.0
21.519	10.0
21.533	14.0
21.548	13.0
21.563	7.0
21.578	10.0
21.593	12.0
21.608	17.0
21.622	15.0
21.637	17.0
21.652	11.0
21.667	17.0
21.682	20.0
21.697	16.0
21.712	17.0
21.726	22.0
21.741	27.0
21.756	30.0
21.771	37.0
21.786	30.0
21.801	37.0
21.816	41.0
21.83	43.0
21.845	54.0
21.86	58.0
21.875	57.0
21.89	53.0
21.905	53.0
21.92	71.0
21.935	96.0
21.949	86.0
21.964	75.0
21.979	81.0
21.994	79.0
22.009	69.0
22.024	48.0
22.039	58.0
22.054	53.0
22.069	50.0
22.083	41.0
22.098	47.0
22.113	46.0
22.128	29.0
22.143	25.0
22.158	20.0
22.173	23.0
22.188	17.0
22.203	11.0
22.218	15.0
22.233	12.0
22.248	13.0
22.262	20.0
22.277	15.0
22.292	11.0
22.307	10.0
22.322	8.0
22.337	12.0
22.352	8.0
22.367	11.0
22.382	19.0
22.397	17.0
22.412	12.0
22.427	10.0
22.442	11.0
22.457	8.0
22.472	8.0
22.487	13.0
22.502	11.0
22.516	10.0
22.531	10.0
22.546	13.0
22.561	9.0
22.576	15.0
22.591	5.0
22.606	13.0
22.621	11.0
22.636	11.0
22.651	10.0
22.666	9.0
22.681	9.0
22.696	12.0
22.711	12.0
22.726	7.0
22.741	6.0
22.756	11.0
22.771	14.0
22.786	10.0
22.801	12.0
22.816	6.0
22.831	14.0
22.846	12.0
22.861	13.0
22.876	14.0
22.891	5.0
22.906	9.0
22.92	6.0
22.935	11.0
22.95	14.0
22.965	8.0
22.98	6.0
22.995	9.0
23.01	13.0
23.025	14.0
23.04	7.0
23.055	16.0
23.07	12.0
23.085	5.0
23.1	6.0
23.115	7.0
23.13	7.0
23.145	4.0
23.16	10.0
23.175	10.0
23.19	10.0
23.205	6.0
23.22	10.0
23.235	11.0
23.25	10.0
23.265	13.0
23.28	18.0
23.295	11.0
23.31	11.0
23.325	11.0
23.34	11.0
23.355	7.0
23.37	11.0
23.384	7.0
23.399	10.0
23.414	12.0
23.429	9.0
23.444	9.0
23.459	8.0
23.474	17.0
23.489	3.0
23.504	13.0
23.519	13.0
23.534	11.0
23.549	9.0
23.564	11.0
23.579	9.0
23.594	9.0
23.609	11.0
23.624	8.0
23.639	12.0
23.654	14.0
23.668	12.0
23.683	8.0
23.698	18.0
23.713	15.0
23.728	13.0
23.743	16.0
23.758	8.0
23.773	12.0
23.788	16.0
23.803	14.0
23.818	20.0
23.833	9.0
23.848	14.0
23.862	20.0
23.877	17.0
23.892	19.0
23.907	21.0
23.922	20.0
23.937	13.0
23.952	28.0
23.967	33.0
23.982	38.0
23.997	32.0
24.011	39.0
24.026	44.0
24.041	48.0
24.056	51.0
24.071	46.0
24.086	52.0
24.101	44.0
24.116	40.0
24.131	47.0
24.145	40.0
24.16	47.0
24.175	40.0
24.19	34.0
24.205	35.0
24.22	37.0
24.235	42.0
24.249	39.0
24.264	23.0
24.279	19.0
24.294	20.0
24.309	17.0
24.324	15.0
24.338	18.0
24.353	15.0
24.368	11.0
24.383	12.0
24.398	17.0
24.413	9.0
24.428	12.0
24.442	9.0
24.457	13.0
24.472	14.0
24.487	10.0
24.502	13.0
24.516	8.0
24.531	9.0
24.546	12.0
24.561	12.0
24.576	13.0
24.591	16.0
24.605	15.0
24.62	10.0
24.635	4.0
24.65	14.0
24.665	14.0
24.679	7.0
24.694	12.0
24.709	11.0
24.724	14.0
24.739	11.0
24.753	12.0
24.768	10.0
24.783	9.0
24.798	10.0
24.813	9.0
24.827	11.0
24.842	9.0
24.857	10.0
24.872	10.0
24.886	4.0
24.901	7.0
24.916	15.0
24.931	11.0
24.946	9.0
24.96	10.0
24.975	5.0
24.99	12.0
25.005	10.0
25.019	11.0
25.034	5.0
25.049	6.0
25.064	10.0
25.078	5.0
25.093	12.0
25.108	5.0
25.123	10.0
25.138	6.0
25.152	7.0
25.167	11.0
25.182	11.0
25.197	13.0
25.211	9.0
25.226	5.0
25.241	8.0
25.256	9.0
25.27	8.0
25.285	17.0
25.3	7.0
25.315	11.0
25.329	12.0
25.344	9.0
25.359	7.0
25.374	6.0
25.388	5.0
25.403	11.0
25.418	8.0
25.433	10.0
25.447	11.0
25.462	11.0
25.477	10.0
25.492	10.0
25.506	11.0
25.521	12.0
25.536	4.0
25.55	9.0
25.565	12.0
25.58	12.0
25.595	13.0
25.609	10.0
25.624	11.0
25.639	13.0
25.654	4.0
25.668	10.0
25.683	12.0
25.698	13.0
25.713	12.0
25.727	10.0
25.742	8.0
25.757	8.0
25.772	5.0
25.786	8.0
25.801	11.0
25.816	11.0
25.83	13.0
25.845	10.0
25.86	10.0
25.875	3.0
25.889	8.0
25.904	6.0
25.919	9.0
25.934	8.0
25.948	16.0
25.963	13.0
25.978	8.0
25.992	8.0
26.007	13.0
26.022	10.0
26.037	11.0
26.051	10.0
26.066	7.0
26.081	17.0
26.096	16.0
26.11	12.0
26.125	5.0
26.14	15.0
26.155	7.0
26.169	8.0
26.184	12.0
26.199	12.0
26.213	13.0
26.228	11.0
26.243	15.0
26.258	8.0
26.272	12.0
26.287	8.0
26.302	11.0
26.317	5.0
26.331	9.0
26.346	13.0
26.361	10.0
26.376	12.0
26.39	12.0
26.405	7.0
26.42	11.0
26.434	10.0
26.449	8.0
26.464	9.0
26.479	11.0
26.493	6.0
26.508	3.0
26.523	10.0
26.538	6.0
26.552	3.0
26.567	9.0
26.582	6.0
26.597	9.0
26.611	10.0
26.626	6.0
26.641	7.0
26.656	4.0
26.67	14.0
26.685	15.0
26.7	7.0
26.715	8.0
26.729	8.0
26.744	8.0
26.759	12.0
26.773	4.0
26.788	14.0
26.803	6.0
26.818	12.0
26.832	4.0
26.847	11.0
26.862	9.0
26.877	8.0
26.891	8.0
26.906	14.0
26.921	9.0
26.936	6.0
26.95	7.0
26.965	16.0
26.98	7.0
26.995	15.0
27.01	15.0
27.024	8.0
27.039	10.0
27.054	8.0
27.069	6.0
27.083	9.0
27.098	4.0
27.113	7.0
27.128	8.0
27.142	8.0
27.157	9.0
27.172	3.0
27.187	7.0
27.201	10.0
27.216	14.0
27.231	14.0
27.246	13.0
27.261	5.0
27.275	13.0
27.29	10.0
27.305	12.0
27.32	8.0
27.334	8.0
27.349	6.0
27.364	11.0
27.379	5.0
27.394	11.0
27.408	14.0
27.423	8.0
27.438	7.0
27.453	9.0
27.467	11.0
27.482	10.0
27.497	10.0
27.512	9.0
27.527	14.0
27.541	8.0
27.556	9.0
27.571	12.0
27.586	13.0
27.601	16.0
27.615	12.0
27.63	15.0
27.645	17.0
27.66	11.0
27.675	24.0
27.689	9.0
27.704	22.0
27.719	13.0
27.734	11.0
27.749	15.0
27.763	11.0
27.778	18.0
27.793	22.0
27.808	19.0
27.823	33.0
27.838	27.0
27.852	27.0
27.867	24.0
27.882	20.0
27.897	18.0
27.912	24.0
27.926	18.0
27.941	32.0
27.956	16.0
27.971	16.0
27.986	15.0
28.001	24.0
28.015	19.0
28.03	22.0
28.045	18.0
28.06	16.0
28.075	19.0
28.09	17.0
28.105	20.0
28.119	15.0
28.134	8.0
28.149	5.0
28.164	10.0
28.179	12.0
28.194	16.0
28.208	18.0
28.223	15.0
28.238	9.0
28.253	9.0
28.268	11.0
28.283	5.0
28.298	13.0
28.312	7.0
28.327	7.0
28.342	11.0
28.357	11.0
28.372	7.0
28.387	12.0
28.402	14.0
28.417	8.0
28.431	6.0
28.446	10.0
28.461	13.0
28.476	13.0
28.491	9.0
28.506	7.0
28.521	10.0
28.536	8.0
28.55	16.0
28.565	13.0
28.58	13.0
28.595	3.0
28.61	9.0
28.625	3.0
28.64	12.0
28.655	6.0
28.669	16.0
28.684	10.0
28.699	9.0
28.714	9.0
28.729	10.0
28.744	10.0
28.759	10.0
28.774	13.0
28.788	12.0
28.803	9.0
28.818	10.0
28.833	10.0
28.848	6.0
28.863	18.0
28.878	9.0
28.893	10.0
28.908	7.0
28.922	2.0
28.937	13.0
28.952	10.0
28.967	6.0
28.982	9.0
28.997	9.0
29.012	11.0
29.027	8.0
29.041	7.0
29.056	18.0
29.071	10.0
29.086	13.0
29.101	10.0
29.116	11.0
29.131	11.0
29.146	3.0
29.16	14.0
29.175	13.0
29.19	5.0
29.205	13.0
29.22	15.0
29.235	9.0
29.25	16.0
29.265	14.0
29.279	8.0
29.294	12.0
29.309	8.0
29.324	15.0
29.339	13.0
29.354	9.0
29.369	11.0
29.384	26.0
29.398	12.0
29.413	25.0
29.428	17.0
29.443	13.0
29.458	16.0
29.473	26.0
29.488	12.0
29.502	40.0
29.517	38.0
29.532	25.0
29.547	42.0
29.562	45.0
29.577	43.0
29.592	54.0
29.606	44.0
29.621	55.0
29.636	43.0
29.651	52.0
29.666	43.0
29.681	41.0
29.695	40.0
29.71	42.0
29.725	32.0
29.74	38.0
29.755	32.0
29.77	25.0
29.784	27.0
29.799	39.0
29.814	29.0
29.829	38.0
29.844	22.0
29.859	25.0
29.873	15.0
29.888	11.0
29.903	17.0
29.918	17.0
29.933	15.0
29.947	16.0
29.962	10.0
29.977	20.0
29.992	13.0
30.007	9.0
30.021	17.0
30.036	11.0
30.051	15.0
30.066	9.0
30.081	9.0
30.095	21.0
30.11	9.0
30.125	13.0
30.14	13.0
30.155	8.0
30.169	10.0
30.184	14.0
30.199	13.0
30.214	18.0
30.228	7.0
30.243	17.0
30.258	10.0
30.273	7.0
30.288	17.0
30.302	5.0
30.317	14.0
30.332	19.0
30.347	12.0
30.361	14.0
30.376	13.0
30.391	12.0
30.406	9.0
30.42	10.0
30.435	12.0
30.45	12.0
30.465	8.0
30.479	10.0
30.494	17.0
30.509	14.0
30.524	16.0
30.538	14.0
30.553	9.0
30.568	10.0
30.583	10.0
30.597	11.0
30.612	11.0
30.627	14.0
30.641	10.0
30.656	7.0
30.671	7.0
30.686	13.0
30.7	6.0
30.715	11.0
30.73	11.0
30.745	15.0
30.759	14.0
30.774	9.0
30.789	11.0
30.803	13.0
30.818	11.0
30.833	13.0
30.848	5.0
30.862	6.0
30.877	12.0
30.892	8.0
30.906	8.0
30.921	14.0
30.936	12.0
30.951	11.0
30.965	10.0
30.98	15.0
30.995	14.0
31.009	11.0
31.024	11.0
31.039	11.0
31.053	14.0
31.068	17.0
31.083	20.0
31.098	20.0
31.112	13.0
31.127	16.0
31.142	20.0
31.156	23.0
31.171	22.0
31.186	31.0
31.2	38.0
31.215	39.0
31.23	34.0
31.245	31.0
31.259	45.0
31.274	36.0
31.289	45.0
31.303	29.0
31.318	37.0
31.333	25.0
31.347	36.0
31.362	36.0
31.377	26.0
31.392	36.0
31.406	30.0
31.421	28.0
31.436	34.0
31.45	24.0
31.465	19.0
31.48	26.0
31.494	22.0
31.509	20.0
31.524	18.0
31.538	19.0
31.553	15.0
31.568	16.0
31.583	15.0
31.597	9.0
31.612	14.0
31.627	15.0
31.641	8.0
31.656	16.0
31.671	9.0
31.685	5.0
31.7	15.0
31.715	10.0
31.729	8.0
31.744	7.0
31.759	10.0
31.774	7.0
31.788	13.0
31.803	13.0
31.818	9.0
31.832	11.0
31.847	12.0
31.862	18.0
31.876	6.0
31.891	8.0
31.906	13.0
31.92	8.0
31.935	10.0
31.95	14.0
31.965	15.0
31.979	12.0
31.994	10.0
32.009	13.0
32.023	14.0
32.038	10.0
32.053	5.0
32.067	9.0
32.082	9.0
32.097	9.0
32.112	10.0
32.126	15.0
32.141	7.0
32.156	7.0
32.17	12.0
32.185	6.0
32.2	14.0
32.214	18.0
32.229	8.0
32.244	5.0
32.259	16.0
32.273	12.0
32.288	9.0
32.303	14.0
32.317	8.0
32.332	5.0
32.347	9.0
32.362	4.0
32.376	10.0
32.391	16.0
32.406	5.0
32.42	15.0
32.435	14.0
32.45	13.0
32.465	5.0
32.479	15.0
32.494	5.0
32.509	12.0
32.523	9.0
32.538	7.0
32.553	7.0
32.568	11.0
32.582	11.0
32.597	12.0
32.612	10.0
32.627	6.0
32.641	15.0
32.656	8.0
32.671	21.0
32.685	8.0
32.7	11.0
32.715	11.0
32.73	22.0
32.744	16.0
32.759	14.0
32.774	24.0
32.788	13.0
32.803	22.0
32.818	23.0
32.833	29.0
32.847	22.0
32.862	28.0
32.877	31.0
32.892	23.0
32.906	26.0
32.921	18.0
32.936	23.0
32.951	24.0
32.965	19.0
32.98	16.0
32.995	22.0
33.009	13.0
33.024	23.0
33.039	23.0
33.054	13.0
33.068	30.0
33.083	11.0
33.098	7.0
33.113	15.0
33.127	10.0
33.142	14.0
33.157	12.0
33.172	14.0
33.186	8.0
33.201	11.0
33.216	12.0
33.231	12.0
33.245	10.0
33.26	11.0
33.275	10.0
33.29	12.0
33.304	14.0
33.319	2.0
33.334	1.0
33.349	10.0
33.363	14.0
33.378	9.0
33.393	12.0
33.408	11.0
33.422	10.0
33.437	8.0
33.452	13.0
33.467	15.0
33.481	9.0
33.496	8.0
33.511	7.0
33.526	12.0
33.54	6.0
33.555	7.0
33.57	9.0
33.585	5.0
33.599	10.0
33.614	11.0
33.629	2.0
33.644	5.0
33.658	5.0
33.673	7.0
33.688	6.0
33.703	11.0
33.718	8.0
33.732	8.0
33.747	8.0
33.762	13.0
33.777	7.0
33.791	8.0
33.806	5.0
33.821	7.0
33.836	11.0
33.85	12.0
33.865	4.0
33.88	4.0
33.895	7.0
33.91	12.0
33.924	8.0
33.939	18.0
33.954	8.0
33.969	9.0
33.983	7.0
33.998	10.0
34.013	5.0
34.028	19.0
34.042	11.0
34.057	14.0
34.072	14.0
34.087	7.0
34.102	12.0
34.116	9.0
34.131	5.0
34.146	12.0
34.161	10.0
34.175	9.0
34.19	10.0
34.205	13.0
34.22	10.0
34.235	18.0
34.249	12.0
34.264	14.0
34.279	20.0
34.294	15.0
34.309	10.0
34.323	11.0
34.338	15.0
34.353	11.0
34.368	10.0
34.382	22.0
34.397	7.0
34.412	11.0
34.427	13.0
34.442	13.0
34.456	12.0
34.471	8.0
34.486	9.0
34.501	13.0
34.516	17.0
34.53	9.0
34.545	9.0
34.56	17.0
34.575	11.0
34.59	7.0
34.604	13.0
34.619	5.0
34.634	10.0
34.649	4.0
34.664	12.0
34.678	11.0
34.693	6.0
34.708	10.0
34.723	3.0
34.738	10.0
34.752	7.0
34.767	9.0
34.782	7.0
34.797	10.0
34.812	5.0
34.826	7.0
34.841	13.0
34.856	9.0
34.871	8.0
34.886	9.0
34.9	4.0
34.915	8.0
34.93	10.0
34.945	7.0
34.96	9.0
34.974	7.0
34.989	8.0
35.004	6.0
35.019	6.0
35.034	10.0
35.048	15.0
35.063	10.0
35.078	8.0
35.093	7.0
35.108	21.0
35.122	12.0
35.137	13.0
35.152	13.0
35.167	6.0
35.182	9.0
35.196	5.0
35.211	12.0
35.226	11.0
35.241	13.0
35.256	12.0
35.27	8.0
35.285	8.0
35.3	5.0
35.315	13.0
35.33	7.0
35.344	8.0
35.359	8.0
35.374	13.0
35.389	6.0
35.404	10.0
35.418	7.0
35.433	7.0
35.448	12.0
35.463	7.0
35.478	10.0
35.493	9.0
35.507	8.0
35.522	11.0
35.537	5.0
35.552	8.0
35.567	15.0
35.581	9.0
35.596	7.0
35.611	10.0
35.626	6.0
35.641	12.0
35.655	8.0
35.67	10.0
35.685	12.0
35.7	16.0
35.715	18.0
35.729	16.0
35.744	16.0
35.759	20.0
35.774	27.0
35.789	17.0
35.804	19.0
35.818	13.0
35.833	20.0
35.848	19.0
35.863	18.0
35.878	16.0
35.892	10.0
35.907	9.0
35.922	11.0
35.937	14.0
35.952	15.0
35.966	19.0
35.981	18.0
35.996	17.0
36.011	22.0
36.026	21.0
36.04	12.0
36.055	11.0
36.07	8.0
36.085	11.0
36.1	13.0
36.114	8.0
36.129	9.0
36.144	11.0
36.159	7.0
36.174	14.0
36.189	8.0
36.203	4.0
36.218	6.0
36.233	6.0
36.248	6.0
36.263	17.0
36.277	8.0
36.292	7.0
36.307	12.0
36.322	9.0
36.337	8.0
36.351	4.0
36.366	5.0
36.381	5.0
36.396	12.0
36.411	6.0
36.426	10.0
36.44	11.0
36.455	8.0
36.47	8.0
36.485	7.0
36.5	9.0
36.514	8.0
36.529	7.0
36.544	12.0
36.559	7.0
36.574	11.0
36.589	4.0
36.603	10.0
36.618	8.0
36.633	4.0
36.648	7.0
36.663	8.0
36.677	8.0
36.692	6.0
36.707	6.0
36.722	7.0
36.737	8.0
36.752	3.0
36.766	10.0
36.781	9.0
36.796	14.0
36.811	5.0
36.826	13.0
36.841	14.0
36.855	9.0
36.87	11.0
36.885	6.0
36.9	5.0
36.915	4.0
36.93	7.0
36.944	6.0
36.959	11.0
36.974	7.0
36.989	13.0
37.004	8.0
37.019	7.0
37.033	10.0
37.048	13.0
37.063	8.0
37.078	18.0
37.093	22.0
37.108	22.0
37.123	20.0
37.137	25.0
37.152	32.0
37.167	18.0
37.182	26.0
37.197	31.0
37.212	32.0
37.226	28.0
37.241	24.0
37.256	23.0
37.271	29.0
37.286	22.0
37.301	13.0
37.316	17.0
37.331	15.0
37.345	22.0
37.36	13.0
37.375	15.0
37.39	18.0
37.405	21.0
37.42	22.0
37.435	26.0
37.45	12.0
37.464	11.0
37.479	9.0
37.494	16.0
37.509	18.0
37.524	11.0
37.539	2.0
37.554	13.0
37.569	6.0
37.583	7.0
37.598	7.0
37.613	9.0
37.628	10.0
37.643	7.0
37.658	12.0
37.673	8.0
37.688	9.0
37.703	5.0
37.718	4.0
37.733	9.0
37.747	11.0
37.762	3.0
37.777	5.0
37.792	8.0
37.807	6.0
37.822	11.0
37.837	9.0
37.852	5.0
37.867	5.0
37.882	0.0
37.897	3.0
37.912	5.0
37.927	5.0
37.941	3.0
37.956	6.0
37.971	6.0
37.986	5.0
38.001	8.0
38.016	5.0
38.031	8.0
38.046	4.0
38.061	7.0
38.076	11.0
38.091	7.0
38.106	8.0
38.121	5.0
38.136	3.0
38.151	5.0
38.166	11.0
38.181	6.0
38.196	6.0
38.211	3.0
38.226	5.0
38.241	4.0
38.256	7.0
38.271	8.0
38.285	6.0
38.3	6.0
38.315	5.0
38.33	3.0
38.345	7.0
38.36	5.0
38.375	6.0
38.39	4.0
38.405	6.0
38.42	8.0
38.435	5.0
38.45	5.0
38.465	9.0
38.48	6.0
38.495	6.0
38.51	7.0
38.525	5.0
38.54	5.0
38.555	3.0
38.57	5.0
38.585	7.0
38.6	10.0
38.615	8.0
38.63	4.0
38.645	6.0
38.66	9.0
38.675	4.0
38.69	5.0
38.705	3.0
38.72	7.0
38.735	7.0
38.75	3.0
38.765	11.0
38.78	7.0
38.795	7.0
38.81	6.0
38.825	2.0
38.84	7.0
38.855	5.0
38.87	0.0
38.885	3.0
38.9	5.0
38.915	3.0
38.93	6.0
38.945	5.0
38.96	3.0
38.975	5.0
38.99	6.0
39.005	3.0
39.02	2.0
39.035	8.0
39.05	3.0
39.065	5.0
39.08	6.0
39.095	5.0
39.11	5.0
39.125	6.0
39.14	7.0
39.155	3.0
39.17	6.0
39.185	6.0
39.2	4.0
39.215	3.0
39.23	6.0
39.245	3.0
39.26	3.0
39.275	6.0
39.29	6.0
39.305	5.0
39.32	3.0
39.335	3.0
39.35	6.0
39.365	3.0
39.38	8.0
39.395	6.0
39.409	8.0
39.424	4.0
39.439	9.0
39.454	4.0
39.469	8.0
39.484	2.0
39.499	5.0
39.514	9.0
39.529	10.0
39.544	9.0
39.559	4.0
39.574	5.0
39.589	4.0
39.604	3.0
39.619	6.0
39.634	5.0
39.649	9.0
39.664	8.0
39.678	5.0
39.693	1.0
39.708	7.0
39.723	8.0
39.738	10.0
39.753	7.0
39.768	5.0
39.783	11.0
39.798	8.0
39.813	8.0
39.827	5.0
39.842	7.0
39.857	10.0
39.872	13.0
39.887	11.0
39.902	7.0
39.917	10.0
39.932	9.0
39.947	6.0
39.961	7.0
39.976	4.0
39.991	4.0
40.006	8.0
40.021	10.0
40.036	4.0
40.051	4.0
40.065	13.0
40.08	12.0
40.095	7.0
40.11	7.0
40.125	4.0
40.14	5.0
40.154	7.0
40.169	7.0
40.184	7.0
40.199	4.0
40.214	7.0
40.228	7.0
40.243	4.0
40.258	7.0
40.273	8.0
40.288	6.0
40.302	5.0
40.317	7.0
40.332	0.0
40.347	5.0
40.362	4.0
40.376	6.0
40.391	7.0
40.406	3.0
40.421	8.0
40.436	4.0
40.45	6.0
40.465	5.0
40.48	10.0
40.495	10.0
40.509	3.0
40.524	6.0
40.539	3.0
40.554	5.0
40.568	6.0
40.583	8.0
40.598	5.0
40.613	5.0
40.627	6.0
40.642	9.0
40.657	5.0
40.672	3.0
40.686	4.0
40.701	12.0
40.716	6.0
40.731	4.0
40.745	6.0
40.76	3.0
40.775	5.0
40.79	11.0
40.804	3.0
40.819	2.0
40.834	3.0
40.849	3.0
40.863	1.0
40.878	9.0
40.893	2.0
40.907	4.0
40.922	6.0
40.937	8.0
40.952	14.0
40.966	9.0
40.981	6.0
40.996	16.0
41.011	13.0
41.025	10.0
41.04	11.0
41.055	14.0
41.069	14.0
41.084	20.0
41.099	16.0
41.114	15.0
41.128	24.0
41.143	20.0
41.158	24.0
41.173	19.0
41.187	14.0
41.202	24.0
41.217	13.0
41.231	16.0
41.246	13.0
41.261	11.0
41.276	11.0
41.29	10.0
41.305	13.0
41.32	10.0
41.335	15.0
41.349	10.0
41.364	10.0
41.379	12.0
41.393	5.0
41.408	18.0
41.423	18.0
41.438	8.0
41.452	10.0
41.467	9.0
41.482	4.0
41.497	8.0
41.511	12.0
41.526	8.0
41.541	9.0
41.556	5.0
41.57	6.0
41.585	6.0
41.6	6.0
41.615	6.0
41.629	6.0
41.644	9.0
41.659	14.0
41.674	7.0
41.688	7.0
41.703	6.0
41.718	6.0
41.733	3.0
41.747	7.0
41.762	3.0
41.777	3.0
41.792	5.0
41.806	7.0
41.821	7.0
41.836	2.0
41.851	5.0
41.866	6.0
41.88	7.0
41.895	7.0
41.91	2.0
41.925	8.0
41.939	2.0
41.954	2.0
41.969	6.0
41.984	6.0
41.999	4.0
42.013	6.0
42.028	11.0
42.043	6.0
42.058	11.0
42.073	5.0
42.088	5.0
42.102	10.0
42.117	9.0
42.132	8.0
42.147	1.0
42.162	5.0
42.176	6.0
42.191	2.0
42.206	4.0
42.221	5.0
42.236	11.0
42.251	9.0
42.266	7.0
42.28	5.0
42.295	9.0
42.31	16.0
42.325	14.0
42.34	14.0
42.355	15.0
42.369	11.0
42.384	12.0
42.399	17.0
42.414	15.0
42.429	15.0
42.444	10.0
42.459	12.0
42.474	17.0
42.488	9.0
42.503	15.0
42.518	9.0
42.533	9.0
42.548	9.0
42.563	5.0
42.578	8.0
42.593	8.0
42.608	7.0
42.622	13.0
42.637	11.0
42.652	13.0
42.667	5.0
42.682	10.0
42.697	10.0
42.712	10.0
42.727	11.0
42.742	7.0
42.757	13.0
42.772	7.0
42.786	4.0
42.801	11.0
42.816	5.0
42.831	5.0
42.846	5.0
42.861	10.0
42.876	8.0
42.891	7.0
42.906	9.0
42.921	6.0
42.936	6.0
42.951	5.0
42.966	3.0
42.981	6.0
42.996	4.0
43.011	8.0
43.025	6.0
43.04	4.0
43.055	7.0
43.07	4.0
43.085	6.0
43.1	6.0
43.115	8.0
43.13	7.0
43.145	8.0
43.16	3.0
43.175	7.0
43.19	6.0
43.205	3.0
43.22	3.0
43.235	7.0
43.25	4.0
43.265	8.0
43.28	3.0
43.295	3.0
43.31	7.0
43.325	4.0
43.34	4.0
43.355	5.0
43.37	9.0
43.385	6.0
43.4	6.0
43.415	9.0
43.43	6.0
43.445	4.0
43.46	3.0
43.475	9.0
43.49	6.0
43.505	6.0
43.52	5.0
43.535	5.0
43.55	6.0
43.565	7.0
43.58	6.0
43.595	7.0
43.61	9.0
43.625	6.0
43.64	6.0
43.655	3.0
43.67	8.0
43.685	10.0
43.7	7.0
43.715	10.0
43.73	9.0
43.745	5.0
43.76	6.0
43.775	9.0
43.79	3.0
43.805	7.0
43.82	9.0
43.835	7.0
43.85	7.0
43.865	7.0
43.88	11.0
43.895	13.0
43.91	6.0
43.925	9.0
43.94	5.0
43.955	6.0
43.97	4.0
43.985	8.0
44.0	6.0
44.015	7.0
44.03	5.0
44.045	6.0
44.061	5.0
44.076	5.0
44.091	6.0
44.106	4.0
44.121	5.0
44.136	4.0
44.151	3.0
44.166	3.0
44.181	8.0
44.196	3.0
44.211	6.0
44.226	4.0
44.241	8.0
44.256	9.0
44.271	3.0
44.286	9.0
44.301	4.0
44.316	3.0
44.331	7.0
44.346	7.0
44.361	6.0
44.377	1.0
44.392	6.0
44.407	2.0
44.422	2.0
44.437	7.0
44.452	3.0
44.467	3.0
44.482	5.0
44.497	2.0
44.512	8.0
44.527	8.0
44.542	3.0
44.557	7.0
44.572	2.0
44.587	5.0
44.602	1.0
44.617	5.0
44.632	8.0
44.647	7.0
44.663	7.0
44.678	5.0
44.693	13.0
44.708	8.0
44.723	11.0
44.738	12.0
44.753	10.0
44.768	9.0
44.783	9.0
44.798	12.0
44.813	13.0
44.828	7.0
44.843	12.0
44.858	11.0
44.873	10.0
44.888	5.0
44.903	6.0
44.918	8.0
44.933	3.0
44.948	5.0
44.964	3.0
44.979	4.0
44.994	8.0
45.009	8.0
45.024	9.0
45.039	9.0
45.054	9.0
45.069	8.0
45.084	2.0
45.099	8.0
45.114	7.0
45.129	5.0
45.144	6.0
45.159	7.0
45.174	8.0
45.189	4.0
45.204	5.0
45.219	7.0
45.234	7.0
45.249	6.0
45.264	3.0
45.279	7.0
45.294	3.0
45.309	5.0
45.324	7.0
45.339	4.0
45.354	9.0
45.369	2.0
45.384	7.0
45.399	6.0
45.414	8.0
45.429	3.0
45.444	6.0
45.459	6.0
45.474	5.0
45.489	6.0
45.504	5.0
45.519	6.0
45.534	3.0
45.549	6.0
45.564	9.0
45.579	3.0
45.594	9.0
45.609	7.0
45.624	10.0
45.639	8.0
45.654	6.0
45.669	6.0
45.684	7.0
45.699	5.0
45.714	1.0
45.729	6.0
45.744	4.0
45.759	5.0
45.774	5.0
45.789	5.0
45.804	6.0
45.819	8.0
45.834	8.0
45.849	6.0
45.864	9.0
45.879	6.0
45.894	10.0
45.909	9.0
45.924	9.0
45.939	19.0
45.954	10.0
45.969	16.0
45.984	17.0
45.998	20.0
46.013	13.0
46.028	13.0
46.043	14.0
46.058	7.0
46.073	15.0
46.088	11.0
46.103	8.0
46.118	9.0
46.133	4.0
46.148	5.0
46.163	8.0
46.178	4.0
46.192	14.0
46.207	10.0
46.222	10.0
46.237	6.0
46.252	9.0
46.267	11.0
46.282	7.0
46.297	8.0
46.312	5.0
46.327	7.0
46.341	6.0
46.356	10.0
46.371	4.0
46.386	4.0
46.401	5.0
46.416	5.0
46.431	4.0
46.446	7.0
46.46	4.0
46.475	3.0
46.49	4.0
46.505	2.0
46.52	6.0
46.535	3.0
46.55	5.0
46.564	7.0
46.579	6.0
46.594	3.0
46.609	3.0
46.624	5.0
46.639	5.0
46.654	5.0
46.668	2.0
46.683	3.0
46.698	3.0
46.713	2.0
46.728	7.0
46.743	3.0
46.758	3.0
46.772	4.0
46.787	9.0
46.802	5.0
46.817	3.0
46.832	6.0
46.847	2.0
46.861	4.0
46.876	3.0
46.891	6.0
46.906	6.0
46.921	5.0
46.936	9.0
46.95	2.0
46.965	6.0
46.98	6.0
46.995	13.0
47.01	7.0
47.025	6.0
47.039	13.0
47.054	9.0
47.069	9.0
47.084	8.0
47.099	15.0
47.113	13.0
47.128	15.0
47.143	8.0
47.158	7.0
47.173	11.0
47.188	8.0
47.202	13.0
47.217	4.0
47.232	3.0
47.247	7.0
47.262	6.0
47.277	10.0
47.291	4.0
47.306	6.0
47.321	10.0
47.336	11.0
47.351	6.0
47.365	7.0
47.38	7.0
47.395	5.0
47.41	7.0
47.425	9.0
47.44	4.0
47.454	12.0
47.469	8.0
47.484	12.0
47.499	7.0
47.514	3.0
47.528	3.0
47.543	3.0
47.558	5.0
47.573	3.0
47.588	3.0
47.603	2.0
47.617	7.0
47.632	5.0
47.647	7.0
47.662	4.0
47.677	4.0
47.691	2.0
47.706	3.0
47.721	3.0
47.736	1.0
47.751	4.0
47.766	2.0
47.78	4.0
47.795	6.0
47.81	2.0
47.825	1.0
47.84	7.0
47.855	2.0
47.869	5.0
47.884	7.0
47.899	3.0
47.914	2.0
47.929	6.0
47.944	6.0
47.958	3.0
47.973	3.0
47.988	3.0
48.003	3.0
48.018	5.0
48.033	3.0
48.047	6.0
48.062	5.0
48.077	2.0
48.092	5.0
48.107	4.0
48.122	6.0
48.137	2.0
48.151	5.0
48.166	6.0
48.181	2.0
48.196	8.0
48.211	2.0
48.226	4.0
48.241	5.0
48.255	3.0
48.27	7.0
48.285	5.0
48.3	2.0
48.315	1.0
48.33	2.0
48.345	1.0
48.359	3.0
48.374	6.0
48.389	2.0
48.404	6.0
48.419	3.0
48.434	4.0
48.449	3.0
48.464	3.0
48.478	5.0
48.493	3.0
48.508	6.0
48.523	5.0
48.538	6.0
48.553	8.0
48.568	6.0
48.583	6.0
48.597	3.0
48.612	5.0
48.627	9.0
48.642	4.0
48.657	2.0
48.672	1.0
48.687	7.0
48.702	1.0
48.717	2.0
48.731	6.0
48.746	4.0
48.761	2.0
48.776	2.0
48.791	0.0
48.806	2.0
48.821	4.0
48.836	1.0
48.851	3.0
48.866	1.0
48.88	3.0
48.895	2.0
48.91	6.0
48.925	5.0
48.94	3.0
48.955	4.0
48.97	6.0
48.985	8.0
49.0	3.0
49.015	3.0
49.03	5.0
49.044	8.0
49.059	6.0
49.074	2.0
49.089	3.0
49.104	4.0
49.119	4.0
49.134	6.0
49.149	7.0
49.164	4.0
49.179	4.0
49.194	4.0
49.209	3.0
49.224	3.0
49.238	4.0
49.253	8.0
49.268	5.0
49.283	6.0
49.298	7.0
49.313	6.0
49.328	11.0
49.343	8.0
49.358	7.0
49.373	7.0
49.388	7.0
49.403	9.0
49.418	4.0
49.433	6.0
49.448	6.0
49.463	5.0
49.478	6.0
49.492	9.0
49.507	4.0
49.522	3.0
49.537	6.0
49.552	3.0
49.567	6.0
49.582	2.0
49.597	4.0
49.612	5.0
49.627	6.0
49.642	4.0
49.657	11.0
49.672	4.0
49.687	6.0
49.702	4.0
49.717	5.0
49.732	6.0
49.747	10.0
49.762	6.0
49.777	7.0
49.792	4.0
49.807	7.0
49.822	4.0
49.837	5.0
49.852	6.0
49.867	4.0
49.882	9.0
49.897	6.0
49.912	4.0
49.927	3.0
49.942	4.0
49.957	7.0
49.971	7.0
49.986	4.0
50.001	5.0
50.016	5.0
50.031	2.0
50.046	4.0
50.061	3.0
50.076	1.0
50.091	7.0
50.106	7.0
50.121	7.0
50.136	5.0
50.151	5.0
50.166	2.0
50.181	6.0
50.196	2.0
50.211	3.0
50.226	10.0
50.241	9.0
50.256	4.0
50.271	7.0
50.286	6.0
50.302	5.0
50.317	8.0
50.332	8.0
50.347	5.0
50.362	10.0
50.377	5.0
50.392	8.0
50.407	7.0
50.422	7.0
50.437	5.0
50.452	14.0
50.467	4.0
50.482	8.0
50.497	7.0
50.512	7.0
50.527	7.0
50.542	5.0
50.557	9.0
50.572	4.0
50.587	6.0
50.602	1.0
50.617	3.0
50.632	3.0
50.647	9.0
50.662	6.0
50.677	4.0
50.692	2.0
50.707	5.0
50.722	6.0
50.737	6.0
50.752	3.0
50.767	5.0
50.782	4.0
50.797	11.0
50.812	8.0
50.828	7.0
50.843	6.0
50.858	5.0
50.873	9.0
50.888	6.0
50.903	4.0
50.918	3.0
50.933	5.0
50.948	4.0
50.963	3.0
50.978	3.0
50.993	1.0
51.008	4.0
51.023	7.0
51.038	8.0
51.053	3.0
51.068	6.0
51.083	5.0
51.098	3.0
51.114	1.0
51.129	3.0
51.144	6.0
51.159	3.0
51.174	2.0
51.189	5.0
51.204	3.0
51.219	7.0
51.234	6.0
51.249	2.0
51.264	5.0
51.279	10.0
51.294	7.0
51.309	1.0
51.324	8.0
51.34	5.0
51.355	4.0
51.37	10.0
51.385	6.0
51.4	10.0
51.415	9.0
51.43	10.0
51.445	8.0
51.46	11.0
51.475	12.0
51.49	15.0
51.505	10.0
51.52	12.0
51.535	19.0
51.551	13.0
51.566	14.0
51.581	15.0
51.596	10.0
51.611	13.0
51.626	2.0
51.641	9.0
51.656	5.0
51.671	11.0
51.686	5.0
51.701	7.0
51.716	3.0
51.732	4.0
51.747	6.0
51.762	8.0
51.777	17.0
51.792	11.0
51.807	15.0
51.822	9.0
51.837	9.0
51.852	7.0
51.867	17.0
51.882	6.0
51.898	8.0
51.913	9.0
51.928	10.0
51.943	10.0
51.958	7.0
51.973	6.0
51.988	4.0
52.003	5.0
52.018	10.0
52.033	6.0
52.048	4.0
52.064	4.0
52.079	6.0
52.094	4.0
52.109	4.0
52.124	2.0
52.139	3.0
52.154	7.0
52.169	1.0
52.184	6.0
52.199	1.0
52.215	7.0
52.23	6.0
52.245	2.0
52.26	5.0
52.275	7.0
52.29	1.0
52.305	8.0
52.32	3.0
52.335	4.0
52.35	5.0
52.366	2.0
52.381	3.0
52.396	2.0
52.411	6.0
52.426	5.0
52.441	5.0
52.456	9.0
52.471	11.0
52.486	3.0
52.502	8.0
52.517	7.0
52.532	4.0
52.547	4.0
52.562	10.0
52.577	17.0
52.592	6.0
52.607	13.0
52.622	2.0
52.637	12.0
52.653	12.0
52.668	3.0
52.683	4.0
52.698	8.0
52.713	6.0
52.728	6.0
52.743	10.0
52.758	8.0
52.774	4.0
52.789	4.0
52.804	6.0
52.819	5.0
52.834	5.0
52.849	6.0
52.864	5.0
52.879	9.0
52.894	11.0
52.91	2.0
52.925	4.0
52.94	7.0
52.955	3.0
52.97	4.0
52.985	15.0
53.0	5.0
53.015	8.0
53.031	3.0
53.046	10.0
53.061	4.0
53.076	8.0
53.091	0.0
53.106	5.0
53.121	4.0
53.136	8.0
53.152	4.0
53.167	4.0
53.182	3.0
53.197	2.0
53.212	6.0
53.227	4.0
53.242	5.0
53.257	3.0
53.273	7.0
53.288	6.0
53.303	4.0
53.318	3.0
53.333	5.0
53.348	3.0
53.363	3.0
53.379	6.0
53.394	5.0
53.409	4.0
53.424	5.0
53.439	4.0
53.454	7.0
53.469	5.0
53.484	4.0
53.5	4.0
53.515	7.0
53.53	3.0
53.545	1.0
53.56	3.0
53.575	5.0
53.59	4.0
53.606	6.0
53.621	6.0
53.636	4.0
53.651	4.0
53.666	13.0
53.681	4.0
53.696	2.0
53.712	5.0
53.727	6.0
53.742	8.0
53.757	2.0
53.772	3.0
53.787	4.0
53.802	3.0
53.818	4.0
53.833	2.0
53.848	3.0
53.863	3.0
53.878	6.0
53.893	5.0
53.909	2.0
53.924	4.0
53.939	3.0
53.954	4.0
53.969	2.0
53.984	5.0
53.999	6.0
54.015	5.0
54.03	7.0
54.045	4.0
54.06	8.0
54.075	4.0
54.09	5.0
54.106	3.0
54.121	5.0
54.136	6.0
54.151	2.0
54.166	4.0
54.181	4.0
54.197	5.0
54.212	6.0
54.227	7.0
54.242	4.0
54.257	6.0
54.272	3.0
54.288	4.0
54.303	3.0
54.318	6.0
54.333	8.0
54.348	5.0
54.363	5.0
54.379	4.0
54.394	2.0
54.409	6.0
54.424	8.0
54.439	2.0
54.454	5.0
54.47	10.0
54.485	2.0
54.5	2.0
54.515	2.0
54.53	6.0
54.545	6.0
54.561	4.0
54.576	6.0
54.591	12.0
54.606	12.0
54.621	6.0
54.636	8.0
54.652	12.0
54.667	9.0
54.682	8.0
54.697	9.0
54.712	10.0
54.727	8.0
54.743	7.0
54.758	6.0
54.773	2.0
54.788	7.0
54.803	9.0
54.819	4.0
54.834	6.0
54.849	5.0
54.864	3.0
54.879	2.0
54.894	2.0
54.91	8.0
54.925	10.0
54.94	5.0
54.955	8.0
54.97	8.0
54.985	11.0
55.001	7.0
55.016	8.0
55.031	9.0
55.046	7.0
55.061	7.0
55.077	12.0
55.092	2.0
55.107	3.0
55.122	6.0
55.137	4.0
55.152	3.0
55.168	7.0
55.183	6.0
55.198	4.0
55.213	10.0
55.228	4.0
55.243	4.0
55.259	9.0
55.274	6.0
55.289	4.0
55.304	3.0
55.319	6.0
55.335	5.0
55.35	3.0
55.365	6.0
55.38	3.0
55.395	6.0
55.41	4.0
55.426	2.0
55.441	4.0
55.456	1.0
55.471	4.0
55.486	5.0
55.501	4.0
55.517	3.0
55.532	6.0
55.547	5.0
55.562	5.0
55.577	2.0
55.592	7.0
55.608	5.0
55.623	4.0
55.638	1.0
55.653	4.0
55.668	4.0
55.683	6.0
55.699	7.0
55.714	11.0
55.729	11.0
55.744	9.0
55.759	8.0
55.774	5.0
55.79	5.0
55.805	6.0
55.82	3.0
55.835	6.0
55.85	2.0
55.865	8.0
55.881	3.0
55.896	6.0
55.911	7.0
55.926	6.0
55.941	3.0
55.956	5.0
55.972	5.0
55.987	4.0
56.002	4.0
56.017	7.0
56.032	6.0
56.047	9.0
56.063	3.0
56.078	5.0
56.093	5.0
56.108	6.0
56.123	8.0
56.138	4.0
56.154	3.0
56.169	6.0
56.184	4.0
56.199	5.0
56.214	6.0
56.229	5.0
56.244	2.0
56.26	5.0
56.275	8.0
56.29	5.0
56.305	5.0
56.32	8.0
56.335	2.0
56.351	1.0
56.366	5.0
56.381	2.0
56.396	7.0
56.411	5.0
56.426	6.0
56.441	3.0
56.457	5.0
56.472	2.0
56.487	5.0
56.502	4.0
56.517	1.0
56.532	3.0
56.547	2.0
56.563	3.0
56.578	5.0
56.593	8.0
56.608	6.0
56.623	4.0
56.638	3.0
56.653	4.0
56.668	8.0
56.684	4.0
56.699	5.0
56.714	2.0
56.729	4.0
56.744	5.0
56.759	10.0
56.774	5.0
56.79	3.0
56.805	5.0
56.82	2.0
56.835	3.0
56.85	1.0
56.865	6.0
56.88	4.0
56.895	4.0
56.911	9.0
56.926	5.0
56.941	4.0
56.956	6.0
56.971	4.0
56.986	4.0
57.001	2.0
57.016	4.0
57.031	3.0
57.047	5.0
57.062	6.0
57.077	6.0
57.092	3.0
57.107	2.0
57.122	8.0
57.137	3.0
57.152	6.0
57.167	6.0
57.183	5.0
57.198	3.0
57.213	7.0
57.228	12.0
57.243	1.0
57.258	3.0
57.273	7.0
57.288	6.0
57.303	7.0
57.318	3.0
57.334	6.0
57.349	3.0
57.364	4.0
57.379	3.0
57.394	2.0
57.409	6.0
57.424	3.0
57.439	4.0
57.454	8.0
57.469	1.0
57.484	2.0
57.5	3.0
57.515	4.0
57.53	3.0
57.545	5.0
57.56	1.0
57.575	4.0
57.59	1.0
57.605	7.0
57.62	4.0
57.635	7.0
57.65	6.0
57.665	6.0
57.68	7.0
57.696	7.0
57.711	10.0
57.726	6.0
57.741	3.0
57.756	3.0
57.771	4.0
57.786	4.0
57.801	7.0
57.816	1.0
57.831	4.0
57.846	5.0
57.861	4.0
57.876	4.0
57.891	2.0
57.906	2.0
57.921	3.0
57.937	10.0
57.952	3.0
57.967	4.0
57.982	3.0
57.997	6.0
58.012	6.0
58.027	4.0
58.042	4.0
58.057	6.0
58.072	2.0
58.087	2.0
58.102	3.0
58.117	4.0
58.132	3.0
58.147	1.0
58.162	4.0
58.177	3.0
58.192	6.0
58.207	5.0
58.222	2.0
58.237	6.0
58.252	6.0
58.267	2.0
58.282	4.0
58.297	2.0
58.312	4.0
58.327	4.0
58.342	1.0
58.357	4.0
58.372	4.0
58.387	3.0
58.402	3.0
58.418	5.0
58.433	3.0
58.448	5.0
58.463	5.0
58.478	5.0
58.493	5.0
58.508	5.0
58.523	4.0
58.538	5.0
58.553	6.0
58.568	3.0
58.583	10.0
58.598	5.0
58.613	8.0
58.628	8.0
58.643	7.0
58.658	11.0
58.673	4.0
58.688	8.0
58.703	4.0
58.718	7.0
58.733	5.0
58.748	7.0
58.763	7.0
58.778	3.0
58.793	6.0
58.808	8.0
58.823	7.0
58.838	4.0
58.853	3.0
58.868	5.0
58.883	6.0
58.898	3.0
58.913	5.0
58.928	6.0
58.942	5.0
58.957	6.0
58.972	8.0
58.987	7.0
59.002	3.0
59.017	7.0
59.032	8.0
59.047	5.0
59.062	6.0
59.077	8.0
59.092	1.0
59.107	5.0
59.122	10.0
59.137	4.0
59.152	5.0
59.167	2.0
59.182	9.0
59.197	5.0
59.212	2.0
59.227	3.0
59.242	4.0
59.257	5.0
59.272	1.0
59.287	4.0
59.302	3.0
59.317	4.0
59.332	4.0
59.347	5.0
59.362	5.0
59.377	7.0
59.392	4.0
59.407	5.0
59.422	4.0
59.437	5.0
59.452	6.0
59.467	5.0
59.482	4.0
59.497	7.0
59.512	4.0
59.527	6.0
59.542	8.0
59.557	6.0
59.572	5.0
59.587	8.0
59.602	11.0
59.617	12.0
59.632	7.0
59.647	4.0
59.661	5.0
59.676	13.0
59.691	8.0
59.706	5.0
59.721	4.0
59.736	6.0
59.751	3.0
59.766	6.0
59.781	4.0
59.796	9.0
59.811	1.0
59.826	7.0
59.841	2.0
59.856	6.0
59.871	7.0
59.886	9.0
59.901	4.0
59.916	4.0
59.931	5.0
59.946	5.0
59.961	11.0
59.976	7.0
59.991	4.0
60.006	2.0
60.021	8.0
60.036	4.0
60.051	4.0
60.066	5.0
60.081	2.0
60.096	2.0
60.111	7.0
60.126	5.0
60.141	3.0
60.156	6.0
60.171	6.0
60.186	5.0
60.201	3.0
60.216	6.0
60.231	4.0
60.246	2.0
60.261	5.0
60.276	7.0
60.291	3.0
60.306	5.0
60.321	4.0
60.336	2.0
60.35	5.0
60.365	7.0
60.38	4.0
60.395	1.0
60.41	3.0
60.425	5.0
60.44	6.0
60.455	4.0
60.47	7.0
60.485	2.0
60.5	5.0
60.515	5.0
60.53	6.0
60.545	4.0
60.56	6.0
60.575	8.0
60.59	6.0
60.605	9.0
60.62	10.0
60.635	8.0
60.65	2.0
60.665	4.0
60.68	6.0
60.695	3.0
60.71	7.0
60.725	1.0
60.74	3.0
60.755	5.0
60.77	3.0
60.785	4.0
60.8	4.0
60.815	7.0
60.83	3.0
60.845	6.0
60.86	0.0
60.875	4.0
60.89	5.0
60.905	6.0
60.92	5.0
60.935	6.0
60.95	3.0
60.965	7.0
60.98	9.0
60.995	5.0
61.01	7.0
61.025	10.0
61.04	4.0
61.055	1.0
61.07	5.0
61.085	2.0
61.1	5.0
61.115	6.0
61.13	7.0
61.145	8.0
61.16	6.0
61.175	2.0
61.191	5.0
61.206	7.0
61.221	5.0
61.236	5.0
61.251	3.0
61.266	4.0
61.281	4.0
61.296	5.0
61.311	5.0
61.326	0.0
61.341	4.0
61.356	4.0
61.371	5.0
61.386	2.0
61.401	6.0
61.416	2.0
61.431	4.0
61.446	8.0
61.461	8.0
61.476	4.0
61.491	4.0
61.506	4.0
61.521	4.0
61.536	8.0
61.551	2.0
61.566	3.0
61.581	3.0
61.596	6.0
61.611	6.0
61.626	8.0
61.641	5.0
61.656	5.0
61.672	3.0
61.687	6.0
61.702	4.0
61.717	5.0
61.732	4.0
61.747	4.0
61.762	5.0
61.777	2.0
61.792	1.0
61.807	9.0
61.822	1.0
61.837	2.0
61.852	3.0
61.867	1.0
61.882	4.0
61.897	6.0
61.912	4.0
61.927	6.0
61.943	10.0
61.958	4.0
61.973	4.0
61.988	7.0
62.003	3.0
62.018	5.0
62.033	3.0
62.048	6.0
62.063	3.0
62.078	2.0
62.093	5.0
62.108	6.0
62.123	4.0
62.138	3.0
62.153	4.0
62.169	4.0
62.184	6.0
62.199	0.0
62.214	2.0
62.229	8.0
62.244	2.0
62.259	2.0
62.274	1.0
62.289	4.0
62.304	1.0
62.319	3.0
62.335	5.0
62.35	3.0
62.365	6.0
62.38	2.0
62.395	2.0
62.41	6.0
62.425	3.0
62.44	5.0
62.455	5.0
62.47	3.0
62.485	2.0
62.501	8.0
62.516	6.0
62.531	3.0
62.546	2.0
62.561	3.0
62.576	4.0
62.591	5.0
62.606	4.0
62.621	5.0
62.636	5.0
62.652	3.0
62.667	3.0
62.682	6.0
62.697	3.0
62.712	3.0
62.727	4.0
62.742	2.0
62.757	7.0
62.772	4.0
62.787	3.0
62.803	9.0
62.818	4.0
62.833	4.0
62.848	8.0
62.863	5.0
62.878	4.0
62.893	8.0
62.908	6.0
62.923	3.0
62.939	1.0
62.954	2.0
62.969	8.0
62.984	3.0
62.999	3.0
63.014	7.0
63.029	4.0
63.044	2.0
63.059	3.0
63.074	3.0
63.09	4.0
63.105	2.0
63.12	2.0
63.135	6.0
63.15	4.0
63.165	5.0
63.18	5.0
63.195	2.0
63.21	4.0
63.226	2.0
63.241	2.0
63.256	4.0
63.271	2.0
63.286	4.0
63.301	8.0
63.316	9.0
63.331	4.0
63.346	6.0
63.362	7.0
63.377	5.0
63.392	4.0
63.407	7.0
63.422	4.0
63.437	6.0
63.452	9.0
63.467	7.0
63.482	4.0
63.497	3.0
63.513	4.0
63.528	5.0
63.543	5.0
63.558	4.0
63.573	5.0
63.588	5.0
63.603	2.0
63.618	5.0
63.633	1.0
63.648	6.0
63.664	3.0
63.679	6.0
63.694	4.0
63.709	6.0
63.724	6.0
63.739	5.0
63.754	8.0
63.769	3.0
63.784	7.0
63.799	8.0
63.814	3.0
63.83	3.0
63.845	7.0
63.86	4.0
63.875	6.0
63.89	9.0
63.905	7.0
63.92	5.0
63.935	3.0
63.95	4.0
63.965	2.0
63.98	5.0
63.996	2.0
64.011	4.0
64.026	5.0
64.041	2.0
64.056	5.0
64.071	3.0
64.086	0.0
64.101	6.0
64.116	1.0
64.131	1.0
64.146	1.0
64.161	4.0
64.176	2.0
64.191	4.0
64.207	5.0
64.222	2.0
64.237	7.0
64.252	2.0
64.267	5.0
64.282	6.0
64.297	4.0
64.312	3.0
64.327	5.0
64.342	2.0
64.357	3.0
64.372	6.0
64.387	4.0
64.402	4.0
64.417	5.0
64.433	5.0
64.448	2.0
64.463	1.0
64.478	3.0
64.493	6.0
64.508	4.0
64.523	5.0
64.538	1.0
64.553	5.0
64.568	2.0
64.583	3.0
64.598	3.0
64.613	4.0
64.628	3.0
64.643	3.0
64.658	2.0
64.673	3.0
64.688	2.0
64.703	7.0
64.718	6.0
64.734	2.0
64.749	5.0
64.764	4.0
64.779	6.0
64.794	4.0
64.809	3.0
64.824	3.0
64.839	6.0
64.854	3.0
64.869	5.0
64.884	3.0
64.899	6.0
64.914	5.0
64.929	2.0
64.944	5.0
64.959	3.0
64.974	2.0
64.989	6.0
65.004	1.0
65.019	4.0
65.034	6.0
65.049	5.0
65.064	6.0
65.079	3.0
65.094	1.0
65.109	4.0
65.125	5.0
65.14	7.0
65.155	2.0
65.17	2.0
65.185	3.0
65.2	1.0
65.215	1.0
65.23	8.0
65.245	7.0
65.26	2.0
65.275	6.0
65.29	7.0
65.305	7.0
65.32	6.0
65.335	2.0
65.35	9.0
65.365	5.0
65.38	4.0
65.395	3.0
65.41	5.0
65.425	2.0
65.44	3.0
65.455	4.0
65.47	2.0
65.485	3.0
65.5	2.0
65.515	2.0
65.53	3.0
65.545	4.0
65.56	4.0
65.575	2.0
65.59	5.0
65.605	3.0
65.62	6.0
65.635	1.0
65.65	2.0
65.666	6.0
65.681	5.0
65.696	5.0
65.711	2.0
65.726	7.0
65.741	2.0
65.756	7.0
65.771	3.0
65.786	4.0
65.801	4.0
65.816	6.0
65.831	4.0
65.846	3.0
65.861	6.0
65.876	7.0
65.891	6.0
65.906	5.0
65.921	1.0
65.936	2.0
65.951	4.0
65.966	3.0
65.981	3.0
65.996	3.0
66.011	3.0
66.026	1.0
66.041	1.0
66.056	7.0
66.071	4.0
66.086	3.0
66.101	6.0
66.116	10.0
66.131	4.0
66.146	6.0
66.161	7.0
66.176	6.0
66.191	14.0
66.206	9.0
66.221	12.0
66.236	15.0
66.251	6.0
66.266	5.0
66.281	2.0
66.296	7.0
66.311	4.0
66.327	4.0
66.342	5.0
66.357	3.0
66.372	6.0
66.387	2.0
66.402	1.0
66.417	3.0
66.432	1.0
66.447	5.0
66.462	4.0
66.477	5.0
66.492	2.0
66.507	4.0
66.522	8.0
66.537	7.0
66.552	1.0
66.567	6.0
66.582	5.0
66.597	6.0
66.612	5.0
66.627	3.0
66.642	7.0
66.657	5.0
66.672	3.0
66.687	6.0
66.702	7.0
66.717	4.0
66.732	2.0
66.747	4.0
66.762	3.0
66.777	3.0
66.792	3.0
66.807	0.0
66.822	2.0
66.837	2.0
66.853	1.0
66.868	3.0
66.883	7.0
66.898	5.0
66.913	1.0
66.928	1.0
66.943	1.0
66.958	5.0
66.973	5.0
66.988	4.0
67.003	4.0
67.018	1.0
67.033	8.0
67.048	5.0
67.063	7.0
67.078	0.0
67.093	5.0
67.108	6.0
67.123	5.0
67.138	6.0
67.153	6.0
67.168	1.0
67.183	8.0
67.198	2.0
67.214	4.0
67.229	4.0
67.244	3.0
67.259	3.0
67.274	4.0
67.289	1.0
67.304	3.0
67.319	4.0
67.334	3.0
67.349	2.0
67.364	6.0
67.379	1.0
67.394	3.0
67.409	4.0
67.424	3.0
67.439	2.0
67.454	8.0
67.469	2.0
67.484	0.0
67.5	2.0
67.515	2.0
67.53	7.0
67.545	1.0
67.56	3.0
67.575	3.0
67.59	2.0
67.605	4.0
67.62	6.0
67.635	3.0
67.65	1.0
67.665	1.0
67.68	3.0
67.695	6.0
67.71	3.0
67.726	1.0
67.741	4.0
67.756	3.0
67.771	3.0
67.786	2.0
67.801	2.0
67.816	3.0
67.831	4.0
67.846	0.0
67.861	4.0
67.876	2.0
67.891	5.0
67.906	3.0
67.922	3.0
67.937	6.0
67.952	7.0
67.967	6.0
67.982	3.0
67.997	2.0
68.012	1.0
68.027	3.0
68.042	1.0
68.057	2.0
68.072	2.0
68.087	3.0
68.103	4.0
68.118	5.0
68.133	4.0
68.148	4.0
68.163	2.0
68.178	3.0
68.193	3.0
68.208	4.0
68.223	4.0
68.238	6.0
68.254	2.0
68.269	4.0
68.284	7.0
68.299	8.0
68.314	3.0
68.329	4.0
68.344	5.0
68.359	0.0
68.374	2.0
68.389	3.0
68.405	3.0
68.42	4.0
68.435	5.0
68.45	2.0
68.465	0.0
68.48	2.0
68.495	5.0
68.51	7.0
68.525	3.0
68.54	1.0
68.556	3.0
68.571	4.0
68.586	2.0
68.601	4.0
68.616	5.0
68.631	2.0
68.646	3.0
68.661	4.0
68.676	7.0
68.691	5.0
68.707	3.0
68.722	4.0
68.737	3.0
68.752	0.0
68.767	6.0
68.782	4.0
68.797	6.0
68.812	4.0
68.827	5.0
68.842	8.0
68.857	4.0
68.873	5.0
68.888	5.0
68.903	2.0
68.918	5.0
68.933	5.0
68.948	3.0
68.963	4.0
68.978	3.0
68.993	3.0
69.008	5.0
69.023	3.0
69.038	1.0
69.054	2.0
69.069	3.0
69.084	8.0
69.099	4.0
69.114	0.0
69.129	4.0
69.144	4.0
69.159	3.0
69.174	4.0
69.189	0.0
69.204	6.0
69.219	3.0
69.234	2.0
69.249	2.0
69.264	1.0
69.279	5.0
69.295	4.0
69.31	5.0
69.325	0.0
69.34	3.0
69.355	3.0
69.37	8.0
69.385	3.0
69.4	1.0
69.415	5.0
69.43	6.0
69.445	6.0
69.46	6.0
69.475	6.0
69.49	4.0
69.505	2.0
69.52	3.0
69.535	8.0
69.55	2.0
69.565	3.0
69.58	6.0
69.595	2.0
69.61	7.0
69.625	2.0
69.64	6.0
69.655	6.0
69.67	5.0
69.685	5.0
69.7	5.0
69.715	11.0
69.73	2.0
69.745	10.0
69.76	7.0
69.775	7.0
69.79	6.0
69.805	5.0
69.82	3.0
69.835	7.0
69.85	9.0
69.865	5.0
69.88	6.0
69.895	8.0
69.909	2.0
69.924	3.0
69.939	7.0
69.954	3.0
69.969	4.0
69.984	6.0
69.999	2.0
70.014	2.0
70.029	6.0
70.044	3.0
70.059	2.0
70.074	3.0
70.088	2.0
70.103	4.0
70.118	1.0
70.133	3.0
70.148	5.0
70.163	1.0
70.178	1.0
70.193	2.0
70.208	4.0
70.222	4.0
70.237	5.0
70.252	4.0
70.267	3.0
70.282	4.0
70.297	2.0
70.312	3.0
70.327	8.0
70.341	4.0
70.356	6.0
70.371	3.0
70.386	3.0
70.401	5.0
70.416	4.0
70.43	4.0
70.445	4.0
70.46	1.0
70.475	3.0
70.49	1.0
70.505	2.0
70.519	4.0
70.534	1.0
70.549	2.0
70.564	3.0
70.579	2.0
70.594	3.0
70.608	3.0
70.623	2.0
70.638	5.0
70.653	2.0
70.668	3.0
70.683	7.0
70.697	5.0
70.712	7.0
70.727	5.0
70.742	6.0
70.757	5.0
70.771	5.0
70.786	5.0
70.801	4.0
70.816	7.0
70.831	2.0
70.845	5.0
70.86	3.0
70.875	7.0
70.89	4.0
70.905	4.0
70.92	3.0
70.934	4.0
70.949	8.0
70.964	3.0
70.979	2.0
70.994	4.0
71.008	1.0
71.023	9.0
71.038	5.0
71.053	6.0
71.068	5.0
71.082	3.0
71.097	3.0
71.112	1.0
71.127	4.0
71.142	2.0
71.156	6.0
71.171	4.0
71.186	2.0
71.201	4.0
71.216	2.0
71.231	5.0
71.245	5.0
71.26	1.0
71.275	5.0
71.29	4.0
71.305	2.0
71.319	3.0
71.334	3.0
71.349	2.0
71.364	7.0
71.379	4.0
71.394	5.0
71.408	4.0
71.423	2.0
71.438	2.0
71.453	6.0
71.468	2.0
71.483	2.0
71.497	7.0
71.512	7.0
71.527	8.0
71.542	2.0
71.557	5.0
71.572	1.0
71.586	1.0
71.601	3.0
71.616	5.0
71.631	7.0
71.646	4.0
71.661	0.0
71.676	3.0
71.69	3.0
71.705	5.0
71.72	0.0
71.735	5.0
71.75	5.0
71.765	5.0
71.78	4.0
71.795	4.0
71.81	6.0
71.824	1.0
71.839	4.0
71.854	7.0
71.869	3.0
71.884	2.0
71.899	3.0
71.914	4.0
71.929	2.0
71.944	2.0
71.959	3.0
71.974	4.0
71.988	0.0
72.003	4.0
72.018	2.0
72.033	3.0
72.048	1.0
72.063	6.0
72.078	8.0
72.093	1.0
72.108	5.0
72.123	4.0
72.138	2.0
72.153	2.0
72.168	0.0
72.183	5.0
72.198	1.0
72.213	4.0
72.228	3.0
72.243	4.0
72.258	9.0
72.273	4.0
72.288	4.0
72.303	6.0
72.318	1.0
72.333	1.0
72.348	4.0
72.363	2.0
72.378	4.0
72.393	3.0
72.408	5.0
72.423	7.0
72.438	4.0
72.453	5.0
72.468	3.0
72.483	2.0
72.498	1.0
72.513	1.0
72.528	1.0
72.543	0.0
72.558	0.0
72.573	2.0
72.588	6.0
72.603	3.0
72.618	4.0
72.633	4.0
72.649	4.0
72.664	5.0
72.679	3.0
72.694	1.0
72.709	2.0
72.724	2.0
72.739	2.0
72.754	2.0
72.769	2.0
72.784	4.0
72.799	4.0
72.814	1.0
72.829	0.0
72.845	4.0
72.86	4.0
72.875	4.0
72.89	4.0
72.905	4.0
72.92	3.0
72.935	5.0
72.95	3.0
72.965	7.0
72.98	5.0
72.996	2.0
73.011	4.0
73.026	3.0
73.041	5.0
73.056	5.0
73.071	3.0
73.086	1.0
73.101	1.0
73.117	4.0
73.132	4.0
73.147	4.0
73.162	6.0
73.177	2.0
73.192	5.0
73.207	2.0
73.222	3.0
73.238	4.0
73.253	11.0
73.268	5.0
73.283	2.0
73.298	6.0
73.313	5.0
73.328	6.0
73.343	6.0
73.359	6.0
73.374	1.0
73.389	7.0
73.404	4.0
73.419	2.0
73.434	5.0
73.449	3.0
73.465	5.0
73.48	4.0
73.495	4.0
73.51	3.0
73.525	4.0
73.54	2.0
73.556	4.0
73.571	3.0
73.586	2.0
73.601	1.0
73.616	3.0
73.631	3.0
73.646	1.0
73.662	8.0
73.677	3.0
73.692	2.0
73.707	2.0
73.722	7.0
73.737	5.0
73.752	3.0
73.768	5.0
73.783	8.0
73.798	2.0
73.813	5.0
73.828	2.0
73.843	2.0
73.859	5.0
73.874	4.0
73.889	4.0
73.904	4.0
73.919	4.0
73.934	5.0
73.949	2.0
73.965	4.0
73.98	3.0
73.995	3.0
74.01	2.0
74.025	5.0
74.04	3.0
74.056	6.0
74.071	4.0
74.086	6.0
74.101	3.0
74.116	2.0
74.131	3.0
74.146	5.0
74.162	2.0
74.177	5.0
74.192	6.0
74.207	5.0
74.222	8.0
74.237	4.0
74.252	4.0
74.268	1.0
74.283	5.0
74.298	3.0
74.313	3.0
74.328	2.0
74.343	3.0
74.358	0.0
74.374	1.0
74.389	4.0
74.404	4.0
74.419	6.0
74.434	3.0
74.449	3.0
74.464	0.0
74.48	2.0
74.495	4.0
74.51	1.0
74.525	1.0
74.54	2.0
74.555	1.0
74.57	0.0
74.586	4.0
74.601	4.0
74.616	2.0
74.631	3.0
74.646	3.0
74.661	4.0
74.676	4.0
74.691	8.0
74.707	6.0
74.722	2.0
74.737	4.0
74.752	7.0
74.767	3.0
74.782	3.0
74.797	3.0
74.813	5.0
74.828	2.0
74.843	4.0
74.858	3.0
74.873	3.0
74.888	2.0
74.903	8.0
74.918	4.0
74.934	8.0
74.949	2.0
74.964	5.0
74.979	4.0
74.994	3.0
75.009	8.0
75.024	3.0
75.04	5.0
75.055	2.0
75.07	4.0
75.085	4.0
75.1	5.0
75.115	2.0
75.13	5.0
75.145	7.0
75.161	7.0
75.176	6.0
75.191	4.0
75.206	1.0
75.221	4.0
75.236	2.0
75.251	1.0
75.266	2.0
75.282	5.0
75.297	5.0
75.312	0.0
75.327	2.0
75.342	3.0
75.357	3.0
75.372	4.0
75.387	4.0
75.403	5.0
75.418	1.0
75.433	3.0
75.448	3.0
75.463	3.0
75.478	1.0
75.493	7.0
75.509	7.0
75.524	3.0
75.539	3.0
75.554	3.0
75.569	4.0
75.584	3.0
75.599	1.0
75.614	2.0
75.63	0.0
75.645	2.0
75.66	6.0
75.675	4.0
75.69	3.0
75.705	0.0
75.72	3.0
75.735	2.0
75.751	1.0
75.766	0.0
75.781	3.0
75.796	7.0
75.811	4.0
75.826	2.0
75.841	4.0
75.856	4.0
75.872	2.0
75.887	4.0
75.902	6.0
75.917	5.0
75.932	7.0
75.947	2.0
75.962	2.0
75.977	3.0
75.993	4.0
76.008	1.0
76.023	2.0
76.038	2.0
76.053	4.0
76.068	4.0
76.083	1.0
76.098	2.0
76.114	3.0
76.129	2.0
76.144	1.0
76.159	2.0
76.174	4.0
76.189	1.0
76.204	1.0
76.22	1.0
76.235	6.0
76.25	5.0
76.265	4.0
76.28	3.0
76.295	1.0
76.31	4.0
76.325	2.0
76.341	3.0
76.356	1.0
76.371	2.0
76.386	2.0
76.401	4.0
76.416	4.0
76.431	2.0
76.446	3.0
76.462	4.0
76.477	2.0
76.492	3.0
76.507	1.0
76.522	3.0
76.537	5.0
76.552	3.0
76.567	3.0
76.583	1.0
76.598	3.0
76.613	2.0
76.628	3.0
76.643	4.0
76.658	3.0
76.673	1.0
76.688	0.0
76.704	5.0
76.719	12.0
76.734	2.0
76.749	7.0
76.764	4.0
76.779	2.0
76.794	6.0
76.809	3.0
76.824	5.0
76.84	2.0
76.855	4.0
76.87	5.0
76.885	5.0
76.9	5.0
76.915	5.0
76.93	3.0
76.945	4.0
76.96	4.0
76.976	2.0
76.991	3.0
77.006	2.0
77.021	3.0
77.036	6.0
77.051	4.0
77.066	0.0
77.081	3.0
77.096	7.0
77.112	5.0
77.127	4.0
77.142	2.0
77.157	3.0
77.172	4.0
77.187	2.0
77.202	3.0
77.217	1.0
77.232	1.0
77.247	5.0
77.263	1.0
77.278	3.0
77.293	2.0
77.308	4.0
77.323	3.0
77.338	3.0
77.353	5.0
77.368	4.0
77.383	2.0
77.398	3.0
77.413	2.0
77.428	4.0
77.444	1.0
77.459	2.0
77.474	3.0
77.489	1.0
77.504	6.0
77.519	6.0
77.534	2.0
77.549	7.0
77.564	2.0
77.579	7.0
77.594	5.0
77.609	4.0
77.624	4.0
77.64	4.0
77.655	5.0
77.67	6.0
77.685	4.0
77.7	5.0
77.715	4.0
77.73	3.0
77.745	3.0
77.76	3.0
77.775	2.0
77.79	6.0
77.805	2.0
77.82	4.0
77.835	7.0
77.85	4.0
77.865	2.0
77.88	2.0
77.895	3.0
77.91	1.0
77.926	3.0
77.941	6.0
77.956	4.0
77.971	3.0
77.986	4.0
78.001	3.0
78.016	3.0
78.031	4.0
78.046	5.0
78.061	4.0
78.076	3.0
78.091	3.0
78.106	4.0
78.121	7.0
78.136	5.0
78.151	2.0
78.166	1.0
78.181	4.0
78.196	4.0
78.211	1.0
78.226	3.0
78.241	4.0
78.256	3.0
78.271	3.0
78.286	3.0
78.301	2.0
78.316	4.0
78.331	5.0
78.346	3.0
78.361	1.0
78.376	3.0
78.391	4.0
78.406	3.0
78.421	1.0
78.436	2.0
78.451	0.0
78.466	7.0
78.481	4.0
78.496	2.0
78.511	0.0
78.526	1.0
78.541	4.0
78.556	2.0
78.571	5.0
78.586	2.0
78.601	3.0
78.616	2.0
78.631	3.0
78.646	4.0
78.661	2.0
78.676	2.0
78.691	3.0
78.706	4.0
78.721	1.0
78.736	3.0
78.751	3.0
78.766	2.0
78.781	2.0
78.796	3.0
78.811	1.0
78.826	2.0
78.841	1.0
78.856	3.0
78.871	4.0
78.885	1.0
78.9	3.0
78.915	5.0
78.93	5.0
78.945	1.0
78.96	2.0
78.975	5.0
78.99	2.0
79.005	3.0
79.02	3.0
79.035	3.0
79.05	3.0
79.065	1.0
79.08	0.0
79.095	4.0
79.11	4.0
79.125	4.0
79.14	2.0
79.155	1.0
79.17	3.0
79.185	2.0
79.2	10.0
79.215	3.0
79.23	3.0
79.245	2.0
79.26	2.0
79.275	2.0
79.29	2.0
79.304	2.0
79.319	1.0
79.334	2.0
79.349	4.0
79.364	6.0
79.379	2.0
79.394	4.0
79.409	3.0
79.424	2.0
79.439	5.0
79.454	1.0
79.469	5.0
79.484	3.0
79.499	3.0
79.514	4.0
79.529	1.0
79.544	3.0
79.559	3.0
79.574	3.0
79.589	4.0
79.604	1.0
79.619	1.0
79.634	4.0
79.649	0.0
79.664	1.0
79.679	1.0
79.693	4.0
79.708	2.0
79.723	2.0
79.738	5.0
79.753	2.0
79.768	2.0
79.783	3.0
79.798	1.0
79.813	3.0
79.828	6.0
79.843	5.0
79.858	3.0
79.873	2.0
79.888	1.0
79.903	5.0
79.918	2.0
79.933	2.0
79.948	2.0
79.963	3.0
79.978	0.0
79.993	3.0
80.008	3.0
80.023	2.0
80.038	4.0
80.053	5.0
80.068	3.0
80.083	3.0
80.098	4.0
80.113	1.0
80.128	3.0
80.143	5.0
80.158	1.0
80.173	1.0
80.188	4.0
80.202	2.0
80.217	3.0
80.232	6.0
80.247	4.0
80.262	5.0
80.277	7.0
80.292	3.0
80.307	4.0
80.322	1.0
80.337	3.0
80.352	2.0
80.367	2.0
80.382	2.0
80.397	4.0
80.412	2.0
80.427	2.0
80.442	4.0
80.457	2.0
80.472	2.0
80.487	2.0
80.502	3.0
80.517	0.0
80.532	3.0
80.547	6.0
80.562	1.0
80.577	0.0
80.592	2.0
80.607	3.0
80.622	1.0
80.637	3.0
80.652	1.0
80.667	1.0
80.682	2.0
80.697	3.0
80.712	3.0
80.727	2.0
80.742	2.0
80.757	2.0
80.772	2.0
80.787	3.0
80.802	2.0
80.817	5.0
80.832	3.0
80.847	1.0
80.862	4.0
80.877	3.0
80.892	4.0
80.907	5.0
80.922	1.0
80.937	1.0
80.952	5.0
80.967	0.0
80.982	5.0
80.997	5.0
81.012	1.0
81.027	3.0
81.042	0.0
81.057	4.0
81.072	1.0
81.087	4.0
81.101	2.0
81.116	3.0
81.131	1.0
81.146	3.0
81.161	2.0
81.176	3.0
81.191	5.0
81.206	1.0
81.221	4.0
81.236	5.0
81.251	1.0
81.266	3.0
81.281	1.0
81.296	4.0
81.311	4.0
81.326	2.0
81.341	2.0
81.356	2.0
81.371	1.0
81.386	2.0
81.401	4.0
81.416	6.0
81.431	2.0
81.446	2.0
81.461	2.0
81.476	3.0
81.491	1.0
81.506	1.0
81.521	5.0
81.536	7.0
81.55	3.0
81.565	3.0
81.58	4.0
81.595	2.0
81.61	3.0
81.625	6.0
81.64	3.0
81.655	2.0
81.67	3.0
81.685	4.0
81.7	4.0
81.715	4.0
81.73	6.0
81.745	0.0
81.76	2.0
81.775	1.0
81.79	3.0
81.805	8.0
81.819	4.0
81.834	5.0
81.849	5.0
81.864	3.0
81.879	4.0
81.894	3.0
81.909	7.0
81.924	11.0
81.939	5.0
81.954	2.0
81.969	4.0
81.984	2.0
81.999	0.0
82.013	1.0
82.028	5.0
82.043	5.0
82.058	4.0
82.073	4.0
82.088	4.0
82.103	3.0
82.118	7.0
82.133	2.0
82.148	2.0
82.163	5.0
82.177	1.0
82.192	4.0
82.207	4.0
82.222	2.0
82.237	3.0
82.252	3.0
82.267	5.0
82.282	3.0
82.297	3.0
82.312	2.0
82.326	5.0
82.341	5.0
82.356	2.0
82.371	1.0
82.386	2.0
82.401	3.0
82.416	6.0
82.431	5.0
82.445	3.0
82.46	5.0
82.475	6.0
82.49	4.0
82.505	5.0
82.52	3.0
82.535	1.0
82.55	3.0
82.565	2.0
82.579	1.0
82.594	2.0
82.609	4.0
82.624	7.0
82.639	3.0
82.654	4.0
82.669	1.0
82.684	2.0
82.698	4.0
82.713	4.0
82.728	2.0
82.743	5.0
82.758	6.0
82.773	3.0
82.788	2.0
82.803	2.0
82.817	8.0
82.832	4.0
82.847	4.0
82.862	1.0
82.877	3.0
82.892	3.0
82.907	3.0
82.922	3.0
82.937	4.0
82.951	0.0
82.966	5.0
82.981	2.0
82.996	1.0
83.011	4.0
83.026	0.0
83.041	3.0
83.056	2.0
83.07	3.0
83.085	2.0
83.1	2.0
83.115	3.0
83.13	5.0
83.145	0.0
83.16	1.0
83.175	2.0
83.19	3.0
83.204	3.0
83.219	2.0
83.234	5.0
83.249	2.0
83.264	4.0
83.279	4.0
83.294	3.0
83.309	1.0
83.324	4.0
83.339	1.0
83.353	2.0
83.368	2.0
83.383	7.0
83.398	3.0
83.413	1.0
83.428	4.0
83.443	4.0
83.458	3.0
83.473	4.0
83.488	4.0
83.503	2.0
83.517	5.0
83.532	2.0
83.547	6.0
83.562	0.0
83.577	4.0
83.592	6.0
83.607	1.0
83.622	1.0
83.637	5.0
83.652	6.0
83.667	3.0
83.682	1.0
83.697	4.0
83.712	2.0
83.727	3.0
83.741	1.0
83.756	6.0
83.771	4.0
83.786	3.0
83.801	2.0
83.816	5.0
83.831	3.0
83.846	4.0
83.861	2.0
83.876	0.0
83.891	3.0
83.906	2.0
83.921	7.0
83.936	1.0
83.951	4.0
83.966	2.0
83.981	1.0
83.996	2.0
84.011	1.0
84.026	4.0
84.041	1.0
84.056	7.0
84.071	3.0
84.086	3.0
84.101	2.0
84.116	2.0
84.131	2.0
84.146	1.0
84.161	5.0
84.176	1.0
84.191	4.0
84.206	6.0
84.221	6.0
84.236	2.0
84.251	4.0
84.266	3.0
84.281	3.0
84.296	6.0
84.311	2.0
84.326	6.0
84.341	2.0
84.356	6.0
84.371	6.0
84.386	2.0
84.401	2.0
84.416	3.0
84.431	4.0
84.446	5.0
84.461	3.0
84.476	4.0
84.492	6.0
84.507	3.0
84.522	4.0
84.537	3.0
84.552	3.0
84.567	5.0
84.582	2.0
84.597	2.0
84.612	2.0
84.627	3.0
84.642	2.0
84.657	4.0
84.672	0.0
84.687	2.0
84.702	2.0
84.717	3.0
84.733	1.0
84.748	2.0
84.763	2.0
84.778	2.0
84.793	1.0
84.808	3.0
84.823	1.0
84.838	4.0
84.853	3.0
84.868	4.0
84.883	1.0
84.898	4.0
84.913	1.0
84.929	5.0
84.944	6.0
84.959	4.0
84.974	3.0
84.989	6.0
85.004	1.0
85.019	2.0
85.034	1.0
85.049	4.0
85.064	2.0
85.079	2.0
85.094	1.0
85.11	2.0
85.125	3.0
85.14	4.0
85.155	1.0
85.17	3.0
85.185	6.0
85.2	2.0
85.215	4.0
85.23	3.0
85.245	3.0
85.26	1.0
85.276	0.0
85.291	4.0
85.306	3.0
85.321	2.0
85.336	1.0
85.351	4.0
85.366	2.0
85.381	3.0
85.396	4.0
85.411	1.0
85.426	1.0
85.441	1.0
85.457	1.0
85.472	2.0
85.487	1.0
85.502	1.0
85.517	3.0
85.532	2.0
85.547	2.0
85.562	3.0
85.577	5.0
85.592	3.0
85.607	5.0
85.622	2.0
85.637	3.0
85.653	2.0
85.668	6.0
85.683	6.0
85.698	1.0
85.713	3.0
85.728	0.0
85.743	2.0
85.758	4.0
85.773	1.0
85.788	0.0
85.803	2.0
85.818	1.0
85.833	1.0
85.848	1.0
85.863	3.0
85.879	2.0
85.894	5.0
85.909	2.0
85.924	5.0
85.939	3.0
85.954	2.0
85.969	1.0
85.984	5.0
85.999	1.0
86.014	6.0
86.029	2.0
86.044	5.0
86.059	4.0
86.074	3.0
86.089	2.0
86.104	6.0
86.119	2.0
86.134	3.0
86.149	3.0
86.164	3.0
86.179	2.0
86.194	4.0
86.209	1.0
86.224	2.0
86.239	1.0
86.254	3.0
86.269	4.0
86.284	3.0
86.299	2.0
86.314	4.0
86.33	3.0
86.345	1.0
86.36	4.0
86.375	0.0
86.39	5.0
86.405	4.0
86.42	2.0
86.435	5.0
86.45	7.0
86.465	3.0
86.48	2.0
86.495	0.0
86.51	0.0
86.525	2.0
86.54	3.0
86.555	4.0
86.57	7.0
86.585	2.0
86.6	3.0
86.615	1.0
86.63	2.0
86.645	5.0
86.659	2.0
86.674	3.0
86.689	3.0
86.704	6.0
86.719	2.0
86.734	3.0
86.749	3.0
86.764	4.0
86.779	3.0
86.794	4.0
86.809	3.0
86.824	4.0
86.839	4.0
86.854	8.0
86.869	0.0
86.884	2.0
86.899	3.0
86.914	5.0
86.929	7.0
86.944	5.0
86.959	4.0
86.974	2.0
86.989	3.0
87.004	2.0
87.019	1.0
87.034	3.0
87.049	4.0
87.064	3.0
87.079	3.0
87.094	5.0
87.109	6.0
87.124	5.0
87.139	4.0
87.154	3.0
87.169	6.0
87.184	4.0
87.199	4.0
87.214	3.0
87.229	3.0
87.244	1.0
87.259	8.0
87.274	4.0
87.289	2.0
87.304	1.0
87.319	4.0
87.334	2.0
87.349	4.0
87.364	6.0
87.379	5.0
87.394	4.0
87.409	2.0
87.424	1.0
87.438	1.0
87.453	3.0
87.468	4.0
87.483	2.0
87.498	7.0
87.513	4.0
87.528	3.0
87.543	3.0
87.558	6.0
87.573	3.0
87.588	2.0
87.603	3.0
87.618	3.0
87.633	7.0
87.648	6.0
87.663	5.0
87.678	3.0
87.693	6.0
87.708	6.0
87.723	1.0
87.738	3.0
87.753	6.0
87.768	5.0
87.783	5.0
87.798	1.0
87.813	5.0
87.828	3.0
87.843	1.0
87.858	3.0
87.873	4.0
87.888	3.0
87.903	4.0
87.918	6.0
87.933	3.0
87.948	0.0
87.963	4.0
87.978	4.0
87.993	4.0
88.008	6.0
88.023	3.0
88.038	5.0
88.053	4.0
88.068	2.0
88.083	4.0
88.098	1.0
88.113	2.0
88.128	1.0
88.143	2.0
88.158	0.0
88.174	2.0
88.189	5.0
88.204	1.0
88.219	5.0
88.234	3.0
88.249	5.0
88.264	4.0
88.279	3.0
88.294	2.0
88.309	2.0
88.324	6.0
88.339	2.0
88.354	3.0
88.369	0.0
88.384	5.0
88.399	2.0
88.414	7.0
88.429	3.0
88.444	4.0
88.459	2.0
88.474	7.0
88.489	5.0
88.504	7.0
88.519	3.0
88.534	4.0
88.549	4.0
88.564	0.0
88.58	0.0
88.595	5.0
88.61	1.0
88.625	4.0
88.64	2.0
88.655	1.0
88.67	3.0
88.685	1.0
88.7	3.0
88.715	2.0
88.73	2.0
88.745	1.0
88.76	0.0
88.775	3.0
88.79	4.0
88.805	2.0
88.82	7.0
88.835	2.0
88.85	0.0
88.865	5.0
88.88	2.0
88.895	1.0
88.911	0.0
88.926	2.0
88.941	2.0
88.956	3.0
88.971	1.0
88.986	3.0
89.001	4.0
89.016	1.0
89.031	3.0
89.046	2.0
89.061	4.0
89.076	2.0
89.091	1.0
89.106	5.0
89.121	5.0
89.136	2.0
89.151	4.0
89.166	5.0
89.181	6.0
89.196	0.0
89.211	2.0
89.227	7.0
89.242	3.0
89.257	3.0
89.272	0.0
89.287	3.0
89.302	2.0
89.317	0.0
89.332	1.0
89.347	3.0
89.362	2.0
89.377	4.0
89.392	0.0
89.407	1.0
89.422	4.0
89.437	2.0
89.452	4.0
89.467	3.0
89.482	1.0
89.497	7.0
89.512	4.0
89.527	1.0
89.542	7.0
89.557	2.0
89.572	3.0
89.587	2.0
89.602	2.0
89.617	1.0
89.632	3.0
89.647	2.0
89.662	3.0
89.677	4.0
89.693	2.0
89.708	7.0
89.723	6.0
89.738	5.0
89.753	3.0
89.768	5.0
89.783	4.0
89.798	0.0
89.813	5.0
89.828	0.0
89.843	2.0
89.858	5.0
89.873	5.0
89.888	2.0
89.903	3.0
89.918	3.0
89.933	5.0
89.948	4.0
89.963	5.0
89.978	2.0
89.993	3.0
90.008	1.0
90.023	3.0
90.038	4.0
90.053	2.0
90.068	4.0
90.083	1.0
90.097	2.0
90.112	5.0
90.127	7.0
90.142	5.0
90.157	3.0
90.172	3.0
90.187	7.0
90.202	5.0
90.217	5.0
90.232	0.0
90.247	4.0
90.262	3.0
90.277	2.0
90.292	5.0
90.307	2.0
90.322	4.0
90.337	6.0
90.352	6.0
90.367	4.0
90.382	4.0
90.397	7.0
90.412	2.0
90.427	2.0
90.442	4.0
90.457	5.0
90.472	2.0
90.487	3.0
90.501	2.0
90.516	2.0
90.531	2.0
90.546	7.0
90.561	6.0
90.576	1.0
90.591	2.0
90.606	1.0
90.621	4.0
90.636	1.0
90.651	2.0
90.666	6.0
90.681	1.0
90.696	1.0
90.711	3.0
90.726	2.0
90.741	3.0
90.755	3.0
90.77	4.0
90.785	2.0
90.8	5.0
90.815	3.0
90.83	2.0
90.845	5.0
90.86	4.0
90.875	4.0
90.89	4.0
90.905	4.0
90.92	4.0
90.935	3.0
90.95	3.0
90.965	4.0
90.979	5.0
90.994	5.0
91.009	6.0
91.024	1.0
91.039	4.0
91.054	2.0
91.069	1.0
91.084	2.0
91.099	4.0
91.114	4.0
91.129	3.0
91.144	2.0
91.159	2.0
91.174	3.0
91.188	7.0
91.203	2.0
91.218	3.0
91.233	3.0
91.248	2.0
91.263	1.0
91.278	2.0
91.293	1.0
91.308	2.0
91.323	5.0
91.338	1.0
91.353	2.0
91.368	4.0
91.383	2.0
91.398	3.0
91.412	1.0
91.427	1.0
91.442	4.0
91.457	2.0
91.472	2.0
91.487	2.0
91.502	3.0
91.517	5.0
91.532	0.0
91.547	3.0
91.562	3.0
91.577	3.0
91.592	5.0
91.607	3.0
91.622	4.0
91.637	4.0
91.652	3.0
91.666	2.0
91.681	5.0
91.696	1.0
91.711	4.0
91.726	5.0
91.741	0.0
91.756	3.0
91.771	4.0
91.786	5.0
91.801	2.0
91.816	4.0
91.831	5.0
91.846	5.0
91.861	2.0
91.876	2.0
91.891	3.0
91.906	2.0
91.921	1.0
91.936	3.0
91.951	0.0
91.966	1.0
91.981	1.0
91.995	2.0
92.01	3.0
92.025	4.0
92.04	5.0
92.055	2.0
92.07	3.0
92.085	2.0
92.1	5.0
92.115	2.0
92.13	3.0
92.145	1.0
92.16	1.0
92.175	2.0
92.19	1.0
92.205	5.0
92.22	2.0
92.235	2.0
92.25	4.0
92.265	2.0
92.28	2.0
92.295	4.0
92.31	1.0
92.325	1.0
92.34	2.0
92.355	2.0
92.37	2.0
92.385	3.0
92.4	2.0
92.415	4.0
92.43	5.0
92.445	2.0
92.46	2.0
92.475	2.0
92.49	1.0
92.505	6.0
92.52	2.0
92.535	4.0
92.55	3.0
92.565	2.0
92.58	5.0
92.595	4.0
92.61	3.0
92.625	2.0
92.64	2.0
92.655	3.0
92.67	1.0
92.685	1.0
92.7	4.0
92.715	3.0
92.73	6.0
92.745	4.0
92.76	0.0
92.775	2.0
92.79	5.0
92.805	3.0
92.82	1.0
92.835	5.0
92.85	1.0
92.865	4.0
92.88	2.0
92.895	1.0
92.91	4.0
92.925	6.0
92.94	3.0
92.955	1.0
92.97	1.0
92.985	0.0
93.0	6.0
93.015	5.0
93.03	1.0
93.045	3.0
93.06	1.0
93.075	2.0
93.09	6.0
93.105	3.0
93.12	4.0
93.135	4.0
93.15	1.0
93.165	3.0
93.18	0.0
93.195	5.0
93.21	4.0
93.225	5.0
93.24	5.0
93.255	0.0
93.27	4.0
93.285	3.0
93.3	1.0
93.315	3.0
93.33	1.0
93.345	4.0
93.36	3.0
93.375	5.0
93.39	5.0
93.405	3.0
93.42	3.0
93.435	5.0
93.45	1.0
93.465	4.0
93.48	1.0
93.495	4.0
93.51	2.0
93.525	2.0
93.54	3.0
93.555	0.0
93.57	4.0
93.585	5.0
93.6	5.0
93.615	3.0
93.63	5.0
93.645	4.0
93.66	10.0
93.675	2.0
93.69	1.0
93.705	3.0
93.72	4.0
93.735	4.0
93.75	3.0
93.765	1.0
93.78	2.0
93.795	0.0
93.81	1.0
93.824	3.0
93.839	6.0
93.854	4.0
93.869	4.0
93.884	2.0
93.899	4.0
93.914	5.0
93.929	2.0
93.944	2.0
93.959	4.0
93.974	3.0
93.989	4.0
94.004	3.0
94.019	5.0
94.034	2.0
94.049	0.0
94.064	4.0
94.079	4.0
94.094	2.0
94.108	1.0
94.123	2.0
94.138	1.0
94.153	5.0
94.168	1.0
94.183	2.0
94.198	2.0
94.213	5.0
94.228	5.0
94.243	5.0
94.258	1.0
94.273	6.0
94.288	3.0
94.302	5.0
94.317	1.0
94.332	4.0
94.347	7.0
94.362	5.0
94.377	3.0
94.392	5.0
94.407	5.0
94.422	3.0
94.437	3.0
94.452	3.0
94.466	4.0
94.481	5.0
94.496	0.0
94.511	5.0
94.526	6.0
94.541	1.0
94.556	4.0
94.571	6.0
94.586	1.0
94.601	2.0
94.615	3.0
94.63	6.0
94.645	7.0
94.66	3.0
94.675	4.0
94.69	2.0
94.705	1.0
94.72	2.0
94.735	2.0
94.749	2.0
94.764	2.0
94.779	3.0
94.794	1.0
94.809	2.0
94.824	5.0
94.839	5.0
94.854	3.0
94.868	4.0
94.883	2.0
94.898	7.0
94.913	4.0
94.928	4.0
94.943	1.0
94.958	4.0
94.973	2.0
94.987	7.0
95.002	5.0
95.017	1.0
95.032	1.0
95.047	3.0
95.062	3.0
95.077	4.0
95.092	3.0
95.106	3.0
95.121	10.0
95.136	4.0
95.151	3.0
95.166	2.0
95.181	8.0
95.196	1.0
95.211	6.0
95.226	3.0
95.24	3.0
95.255	4.0
95.27	5.0
95.285	1.0
95.3	4.0
95.315	3.0
95.33	3.0
95.345	3.0
95.359	2.0
95.374	1.0
95.389	1.0
95.404	2.0
95.419	4.0
95.434	2.0
95.449	5.0
95.464	2.0
95.478	3.0
95.493	2.0
95.508	1.0
95.523	1.0
95.538	3.0
95.553	3.0
95.568	1.0
95.583	2.0
95.597	6.0
95.612	3.0
95.627	4.0
95.642	0.0
95.657	5.0
95.672	5.0
95.687	2.0
95.702	4.0
95.717	1.0
95.731	3.0
95.746	1.0
95.761	3.0
95.776	3.0
95.791	3.0
95.806	3.0
95.821	1.0
95.836	4.0
95.851	0.0
95.866	4.0
95.88	5.0
95.895	6.0
95.91	2.0
95.925	0.0
95.94	0.0
95.955	4.0
95.97	1.0
95.985	2.0
96.0	4.0
96.015	8.0
96.029	2.0
96.044	2.0
96.059	3.0
96.074	2.0
96.089	5.0
96.104	4.0
96.119	1.0
96.134	4.0
96.149	3.0
96.164	3.0
96.179	0.0
96.194	4.0
96.208	3.0
96.223	5.0
96.238	2.0
96.253	6.0
96.268	2.0
96.283	7.0
96.298	6.0
96.313	3.0
96.328	3.0
96.343	1.0
96.358	0.0
96.373	2.0
96.388	1.0
96.403	1.0
96.417	1.0
96.432	5.0
96.447	2.0
96.462	5.0
96.477	3.0
96.492	3.0
96.507	2.0
96.522	4.0
96.537	5.0
96.552	1.0
96.567	4.0
96.582	4.0
96.597	1.0
96.612	2.0
96.627	5.0
96.642	0.0
96.656	4.0
96.671	3.0
96.686	3.0
96.701	4.0
96.716	4.0
96.731	1.0
96.746	1.0
96.761	1.0
96.776	0.0
96.791	2.0
96.806	2.0
96.821	3.0
96.836	3.0
96.851	4.0
96.866	2.0
96.881	7.0
96.896	7.0
96.911	5.0
96.926	1.0
96.94	0.0
96.955	6.0
96.97	2.0
96.985	6.0
97.0	4.0
97.015	6.0
97.03	6.0
97.045	2.0
97.06	5.0
97.075	5.0
97.09	5.0
97.105	5.0
97.12	4.0
97.135	1.0
97.15	3.0
97.165	4.0
97.18	4.0
97.195	1.0
97.21	0.0
97.225	2.0
97.239	4.0
97.254	2.0
97.269	2.0
97.284	5.0
97.299	6.0
97.314	4.0
97.329	5.0
97.344	3.0
97.359	2.0
97.374	0.0
97.389	3.0
97.404	2.0
97.419	6.0
97.434	0.0
97.449	7.0
97.464	3.0
97.479	5.0
97.494	5.0
97.509	4.0
97.524	6.0
97.538	1.0
97.553	4.0
97.568	2.0
97.583	2.0
97.598	3.0
97.613	5.0
97.628	3.0
97.643	2.0
97.658	2.0
97.673	2.0
97.688	3.0
97.703	4.0
97.718	2.0
97.733	2.0
97.748	6.0
97.763	3.0
97.778	7.0
97.792	2.0
97.807	4.0
97.822	2.0
97.837	2.0
97.852	4.0
97.867	3.0
97.882	2.0
97.897	0.0
97.912	3.0
97.927	3.0
97.942	4.0
97.957	0.0
97.972	4.0
97.987	3.0
98.001	0.0
98.016	3.0
98.031	3.0
98.046	2.0
98.061	2.0
98.076	1.0
98.091	4.0
98.106	5.0
98.121	4.0
98.136	4.0
98.151	1.0
98.166	4.0
98.181	0.0
98.195	3.0
98.21	6.0
98.225	5.0
98.24	4.0
98.255	4.0
98.27	2.0
98.285	3.0
98.3	3.0
98.315	1.0
98.33	3.0
98.345	5.0
98.359	2.0
98.374	3.0
98.389	5.0
98.404	4.0
98.419	6.0
98.434	2.0
98.449	5.0
98.464	3.0
98.479	5.0
98.494	4.0
98.508	4.0
98.523	1.0
98.538	2.0
98.553	1.0
98.568	2.0
98.583	3.0
98.598	2.0
98.613	3.0
98.628	2.0
98.642	2.0
98.657	5.0
98.672	2.0
98.687	4.0
98.702	3.0
98.717	3.0
98.732	2.0
98.747	0.0
98.762	4.0
98.776	3.0
98.791	3.0
98.806	4.0
98.821	3.0
98.836	3.0
98.851	4.0
98.866	1.0
98.881	2.0
98.896	5.0
98.91	4.0
98.925	5.0
98.94	3.0
98.955	0.0
98.97	1.0
98.985	1.0
99.0	1.0
99.015	1.0
99.029	2.0
99.044	1.0
99.059	4.0
99.074	3.0
99.089	1.0
99.104	4.0
99.119	3.0
99.133	1.0
99.148	7.0
99.163	1.0
99.178	2.0
99.193	3.0
99.208	4.0
99.223	0.0
99.238	1.0
99.252	5.0
99.267	6.0
99.282	6.0
99.297	2.0
99.312	3.0
99.327	2.0
99.342	3.0
99.356	3.0
99.371	1.0
99.386	1.0
99.401	3.0
99.416	6.0
99.431	4.0
99.446	3.0
99.461	2.0
99.475	6.0
99.49	2.0
99.505	2.0
99.52	3.0
99.535	4.0
99.55	4.0
99.565	2.0
99.579	5.0
99.594	1.0
99.609	4.0
99.624	1.0
99.639	0.0
99.654	5.0
99.669	3.0
99.683	2.0
99.698	1.0
99.713	5.0
99.728	2.0
99.743	1.0
99.758	1.0
99.772	2.0
99.787	3.0
99.802	5.0
99.817	3.0
99.832	5.0
99.847	7.0
99.862	4.0
99.876	3.0
99.891	1.0
99.906	6.0
99.921	3.0
99.936	5.0
99.951	3.0
99.966	3.0
99.98	3.0
99.995	1.0
100.01	6.0
100.025	4.0
100.04	2.0
100.055	1.0
100.069	6.0
100.084	0.0
100.099	4.0
100.114	4.0
100.129	1.0
100.144	5.0
100.159	3.0
100.173	2.0
100.188	3.0
100.203	6.0
100.218	5.0
100.233	3.0
100.248	2.0
100.262	0.0
100.277	4.0
100.292	4.0
100.307	5.0
100.322	3.0
100.337	6.0
100.351	2.0
100.366	0.0
100.381	5.0
100.396	5.0
100.411	4.0
100.426	0.0
100.441	2.0
100.455	2.0
100.47	3.0
100.485	3.0
100.5	2.0
100.515	4.0
100.53	1.0
100.544	3.0
100.559	1.0
100.574	2.0
100.589	2.0
100.604	2.0
100.619	1.0
100.633	2.0
100.648	2.0
100.663	3.0
100.678	5.0
100.693	3.0
100.708	4.0
100.722	1.0
100.737	3.0
100.752	5.0
100.767	1.0
100.782	3.0
100.796	3.0
100.811	0.0
100.826	5.0
100.841	5.0
100.856	4.0
100.871	3.0
100.885	4.0
100.9	3.0
100.915	3.0
100.93	9.0
100.945	5.0
100.96	3.0
100.974	1.0
100.989	4.0
101.004	4.0
101.019	0.0
101.034	3.0
101.048	1.0
101.063	1.0
101.078	4.0
101.093	4.0
101.108	5.0
101.123	4.0
101.137	6.0
101.152	4.0
101.167	1.0
101.182	5.0
101.197	4.0
101.211	4.0
101.226	3.0
101.241	7.0
101.256	2.0
101.271	4.0
101.285	2.0
101.3	6.0
101.315	4.0
101.33	2.0
101.345	3.0
101.359	2.0
101.374	1.0
101.389	4.0
101.404	1.0
101.419	3.0
101.433	3.0
101.448	6.0
101.463	1.0
101.478	2.0
101.493	4.0
101.507	2.0
101.522	0.0
101.537	5.0
101.552	1.0
101.567	3.0
101.581	4.0
101.596	1.0
101.611	3.0
101.626	3.0
101.64	4.0
101.655	3.0
101.67	1.0
101.685	4.0
101.7	3.0
101.714	1.0
101.729	5.0
101.744	2.0
101.759	0.0
101.773	3.0
101.788	4.0
101.803	3.0
101.818	4.0
101.833	4.0
101.847	5.0
101.862	6.0
101.877	3.0
101.892	1.0
101.906	3.0
101.921	5.0
101.936	1.0
101.951	5.0
101.965	2.0
101.98	3.0
101.995	4.0
102.01	3.0
102.025	7.0
102.039	1.0
102.054	3.0
102.069	4.0
102.084	3.0
102.098	6.0
102.113	1.0
102.128	3.0
102.143	2.0
102.157	3.0
102.172	6.0
102.187	3.0
102.202	1.0
102.216	2.0
102.231	2.0
102.246	2.0
102.261	4.0
102.275	0.0
102.29	3.0
102.305	2.0
102.32	4.0
102.334	3.0
102.349	5.0
102.364	5.0
102.378	3.0
102.393	3.0
102.408	4.0
102.423	3.0
102.437	3.0
102.452	3.0
102.467	4.0
102.482	1.0
102.496	5.0
102.511	1.0
102.526	6.0
102.541	2.0
102.555	3.0
102.57	2.0
102.585	3.0
102.6	3.0
102.614	2.0
102.629	1.0
102.644	1.0
102.659	3.0
102.673	3.0
102.688	3.0
102.703	1.0
102.717	1.0
102.732	3.0
102.747	2.0
102.762	5.0
102.776	3.0
102.791	1.0
102.806	4.0
102.821	2.0
102.835	4.0
102.85	5.0
102.865	8.0
102.88	4.0
102.894	4.0
102.909	5.0
102.924	3.0
102.938	5.0
102.953	5.0
102.968	5.0
102.983	3.0
102.997	3.0
103.012	4.0
103.027	4.0
103.042	2.0
103.056	1.0
103.071	4.0
103.086	4.0
103.101	3.0
103.115	1.0
103.13	2.0
103.145	2.0
103.16	3.0
103.174	3.0
103.189	2.0
103.204	4.0
103.219	4.0
103.233	1.0
103.248	0.0
103.263	3.0
103.278	3.0
103.292	1.0
103.307	1.0
103.322	5.0
103.337	3.0
103.351	6.0
103.366	0.0
103.381	6.0
103.396	4.0
103.41	4.0
103.425	1.0
103.44	4.0
103.455	6.0
103.469	3.0
103.484	5.0
103.499	5.0
103.514	4.0
103.529	2.0
103.543	2.0
103.558	1.0
103.573	4.0
103.588	4.0
103.602	1.0
103.617	4.0
103.632	6.0
103.647	9.0
103.661	2.0
103.676	2.0
103.691	0.0
103.706	3.0
103.721	0.0
103.735	7.0
103.75	2.0
103.765	3.0
103.78	0.0
103.795	0.0
103.809	6.0
103.824	6.0
103.839	4.0
103.854	3.0
103.869	4.0
103.883	3.0
103.898	4.0
103.913	3.0
103.928	1.0
103.943	2.0
103.957	3.0
103.972	3.0
103.987	5.0
104.002	1.0
104.017	2.0
104.031	5.0
104.046	5.0
104.061	3.0
104.076	4.0
104.091	1.0
104.106	1.0
104.12	2.0
104.135	3.0
104.15	3.0
104.165	3.0
104.18	0.0
104.195	2.0
104.209	2.0
104.224	3.0
104.239	5.0
104.254	2.0
104.269	3.0
104.284	3.0
104.299	1.0
104.313	4.0
104.328	0.0
104.343	3.0
104.358	0.0
104.373	1.0
104.388	1.0
104.403	8.0
104.417	1.0
104.432	5.0
104.447	1.0
104.462	3.0
104.477	2.0
104.492	2.0
104.507	1.0
104.522	3.0
104.536	1.0
104.551	4.0
104.566	3.0
104.581	7.0
104.596	4.0
104.611	3.0
104.626	5.0
104.641	3.0
104.656	9.0
104.67	2.0
104.685	3.0
104.7	1.0
104.715	4.0
104.73	1.0
104.745	4.0
104.76	3.0
104.775	1.0
104.79	6.0
104.804	1.0
104.819	2.0
104.834	4.0
104.849	2.0
104.864	3.0
104.879	3.0
104.894	4.0
104.909	3.0
104.924	1.0
104.939	1.0
104.954	2.0
104.968	3.0
104.983	2.0
104.998	6.0
105.013	1.0
105.028	3.0
105.043	5.0
105.058	3.0
105.073	3.0
105.088	4.0
105.103	5.0
105.118	3.0
105.133	1.0
105.147	2.0
105.162	5.0
105.177	3.0
105.192	4.0
105.207	5.0
105.222	2.0
105.237	1.0
105.252	3.0
105.267	3.0
105.282	5.0
105.297	6.0
105.312	6.0
105.327	2.0
105.342	1.0
105.356	3.0
105.371	6.0
105.386	1.0
105.401	3.0
105.416	7.0
105.431	3.0
105.446	4.0
105.461	7.0
105.476	2.0
105.491	3.0
105.506	2.0
105.521	3.0
105.536	3.0
105.551	3.0
105.566	2.0
105.581	4.0
105.595	4.0
105.61	5.0
105.625	3.0
105.64	2.0
105.655	2.0
105.67	0.0
105.685	2.0
105.7	4.0
105.715	3.0
105.73	5.0
105.745	1.0
105.76	3.0
105.775	3.0
105.79	1.0
105.805	6.0
105.82	2.0
105.835	6.0
105.85	4.0
105.864	4.0
105.879	3.0
105.894	1.0
105.909	3.0
105.924	3.0
105.939	3.0
105.954	4.0
105.969	1.0
105.984	0.0
105.999	4.0
106.014	2.0
106.029	2.0
106.044	3.0
106.059	3.0
106.074	3.0
106.089	3.0
106.104	5.0
106.119	6.0
106.134	2.0
106.148	2.0
106.163	6.0
106.178	5.0
106.193	2.0
106.208	1.0
106.223	5.0
106.238	3.0
106.253	1.0
106.268	1.0
106.283	3.0
106.298	4.0
106.313	4.0
106.328	5.0
106.343	3.0
106.358	3.0
106.373	2.0
106.388	2.0
106.403	1.0
106.418	1.0
106.432	2.0
106.447	8.0
106.462	2.0
106.477	5.0
106.492	4.0
106.507	4.0
106.522	2.0
106.537	3.0
106.552	1.0
106.567	1.0
106.582	3.0
106.597	4.0
106.612	1.0
106.627	0.0
106.642	1.0
106.657	3.0
106.672	3.0
106.687	4.0
106.701	1.0
106.716	4.0
106.731	4.0
106.746	4.0
106.761	3.0
106.776	2.0
106.791	2.0
106.806	1.0
106.821	1.0
106.836	0.0
106.851	6.0
106.866	3.0
106.881	8.0
106.896	3.0
106.911	3.0
106.926	5.0
106.941	1.0
106.955	1.0
106.97	1.0
106.985	3.0
107.0	2.0
107.015	2.0
107.03	2.0
107.045	1.0
107.06	2.0
107.075	3.0
107.09	2.0
107.105	6.0
107.12	5.0
107.135	4.0
107.15	1.0
107.165	6.0
107.18	3.0
107.194	4.0
107.209	4.0
107.224	7.0
107.239	6.0
107.254	1.0
107.269	6.0
107.284	2.0
107.299	3.0
107.314	1.0
107.329	1.0
107.344	3.0
107.359	1.0
107.374	2.0
107.389	1.0
107.404	5.0
107.418	4.0
107.433	5.0
107.448	3.0
107.463	2.0
107.478	4.0
107.493	1.0
107.508	3.0
107.523	1.0
107.538	2.0
107.553	7.0
107.568	3.0
107.583	2.0
107.598	5.0
107.613	3.0
107.627	3.0
107.642	7.0
107.657	0.0
107.672	3.0
107.687	5.0
107.702	3.0
107.717	2.0
107.732	1.0
107.747	3.0
107.762	3.0
107.777	2.0
107.792	3.0
107.807	4.0
107.821	4.0
107.836	4.0
107.851	3.0
107.866	6.0
107.881	1.0
107.896	2.0
107.911	2.0
107.926	2.0
107.941	2.0
107.956	2.0
107.971	1.0
107.986	3.0
108.0	7.0
108.015	6.0
108.03	2.0
108.045	6.0
108.06	9.0
108.075	5.0
108.09	4.0
108.105	4.0
108.12	2.0
108.135	2.0
108.15	3.0
108.164	2.0
108.179	3.0
108.194	7.0
108.209	2.0
108.224	5.0
108.239	6.0
108.254	4.0
108.269	3.0
108.284	4.0
108.299	3.0
108.313	8.0
108.328	3.0
108.343	3.0
108.358	4.0
108.373	6.0
108.388	3.0
108.403	5.0
108.418	4.0
108.433	1.0
108.448	4.0
108.462	4.0
108.477	2.0
108.492	1.0
108.507	2.0
108.522	7.0
108.537	3.0
108.552	3.0
108.567	1.0
108.582	6.0
108.597	3.0
108.611	3.0
108.626	3.0
108.641	2.0
108.656	1.0
108.671	5.0
108.686	0.0
108.701	4.0
108.716	0.0
108.731	1.0
108.745	2.0
108.76	3.0
108.775	7.0
108.79	4.0
108.805	3.0
108.82	2.0
108.835	3.0
108.85	4.0
108.865	2.0
108.879	4.0
108.894	4.0
108.909	3.0
108.924	3.0
108.939	1.0
108.954	5.0
108.969	4.0
108.984	3.0
108.999	4.0
109.013	2.0
109.028	3.0
109.043	4.0
109.058	2.0
109.073	12.0
109.088	4.0
109.103	3.0
109.118	0.0
109.133	3.0
109.147	5.0
109.162	1.0
109.177	2.0
109.192	1.0
109.207	4.0
109.222	3.0
109.237	5.0
109.252	4.0
109.267	4.0
109.281	6.0
109.296	3.0
109.311	7.0
109.326	3.0
109.341	3.0
109.356	5.0
109.371	8.0
109.386	3.0
109.4	6.0
109.415	3.0
109.43	2.0
109.445	4.0
109.46	2.0
109.475	2.0
109.49	2.0
109.505	3.0
109.52	2.0
109.534	2.0
109.549	4.0
109.564	4.0
109.579	2.0
109.594	1.0
109.609	1.0
109.624	3.0
109.639	3.0
109.653	5.0
109.668	5.0
109.683	5.0
109.698	1.0
109.713	4.0
109.728	4.0
109.743	2.0
109.758	3.0
109.773	3.0
109.787	4.0
109.802	2.0
109.817	4.0
109.832	3.0
109.847	1.0
109.862	4.0
109.877	3.0
109.892	1.0
109.907	5.0
109.921	0.0
109.936	3.0
109.951	5.0
109.966	7.0
109.981	2.0
109.996	0.0
110.011	2.0
110.026	4.0
110.04	5.0
110.055	5.0
110.07	3.0
110.085	1.0
110.1	3.0
110.115	5.0
110.13	2.0
110.145	4.0
110.16	1.0
110.174	1.0
110.189	2.0
110.204	1.0
110.219	3.0
110.234	0.0
110.249	2.0
110.264	6.0
110.279	0.0
110.294	3.0
110.308	5.0
110.323	3.0
110.338	2.0
110.353	2.0
110.368	6.0
110.383	3.0
110.398	2.0
110.413	4.0
110.428	2.0
110.442	2.0
110.457	2.0
110.472	1.0
110.487	2.0
110.502	10.0
110.517	2.0
110.532	3.0
110.547	0.0
110.561	2.0
110.576	5.0
110.591	0.0
110.606	1.0
110.621	6.0
110.636	4.0
110.651	2.0
110.666	2.0
110.681	4.0
110.695	3.0
110.71	5.0
110.725	6.0
110.74	7.0
110.755	2.0
110.77	3.0
110.785	5.0
110.8	4.0
110.815	6.0
110.829	3.0
110.844	4.0
110.859	4.0
110.874	4.0
110.889	3.0
110.904	6.0
110.919	1.0
110.934	1.0
110.948	4.0
110.963	6.0
110.978	1.0
110.993	2.0
111.008	2.0
111.023	0.0
111.038	3.0
111.053	3.0
111.067	2.0
111.082	2.0
111.097	4.0
111.112	2.0
111.127	2.0
111.142	7.0
111.157	3.0
111.172	5.0
111.186	3.0
111.201	2.0
111.216	3.0
111.231	5.0
111.246	0.0
111.261	5.0
111.276	6.0
111.291	1.0
111.305	2.0
111.32	5.0
111.335	5.0
111.35	2.0
111.365	3.0
111.38	3.0
111.395	2.0
111.41	4.0
111.424	5.0
111.439	2.0
111.454	6.0
111.469	8.0
111.484	3.0
111.499	4.0
111.514	4.0
111.528	3.0
111.543	3.0
111.558	3.0
111.573	0.0
111.588	9.0
111.603	5.0
111.618	6.0
111.633	2.0
111.647	3.0
111.662	0.0
111.677	6.0
111.692	3.0
111.707	3.0
111.722	4.0
111.737	2.0
111.751	6.0
111.766	4.0
111.781	10.0
111.796	6.0
111.811	1.0
111.826	4.0
111.84	10.0
111.855	4.0
111.87	1.0
111.885	3.0
111.9	1.0
111.915	3.0
111.93	1.0
111.944	1.0
111.959	3.0
111.974	6.0
111.989	5.0
112.004	3.0
112.019	2.0
112.033	5.0
112.048	8.0
112.063	3.0
112.078	5.0
112.093	3.0
112.108	1.0
112.123	2.0
112.137	3.0
112.152	1.0
112.167	2.0
112.182	0.0
112.197	1.0
112.212	3.0
112.226	6.0
112.241	3.0
112.256	6.0
112.271	5.0
112.286	3.0
112.301	4.0
112.315	2.0
112.33	2.0
112.345	3.0
112.36	5.0
112.375	2.0
112.389	3.0
112.404	3.0
112.419	7.0
112.434	3.0
112.449	4.0
112.464	0.0
112.478	4.0
112.493	5.0
112.508	2.0
112.523	2.0
112.538	2.0
112.553	4.0
112.567	7.0
112.582	2.0
112.597	6.0
112.612	1.0
112.627	0.0
112.642	2.0
112.656	3.0
112.671	2.0
112.686	2.0
112.701	5.0
112.716	3.0
112.73	3.0
112.745	5.0
112.76	2.0
112.775	4.0
112.79	3.0
112.805	3.0
112.819	3.0
112.834	0.0
112.849	6.0
112.864	2.0
112.879	3.0
112.894	3.0
112.908	4.0
112.923	5.0
112.938	3.0
112.953	1.0
112.968	4.0
112.983	1.0
112.997	3.0
113.012	0.0
113.027	3.0
113.042	0.0
113.057	6.0
113.072	2.0
113.086	6.0
113.101	3.0
113.116	1.0
113.131	4.0
113.146	9.0
113.161	5.0
113.175	5.0
113.19	1.0
113.205	0.0
113.22	3.0
113.235	3.0
113.25	1.0
113.265	3.0
113.279	2.0
113.294	5.0
113.309	2.0
113.324	2.0
113.339	2.0
113.354	5.0
113.368	5.0
113.383	1.0
113.398	0.0
113.413	1.0
113.428	5.0
113.443	5.0
113.458	9.0
113.472	3.0
113.487	4.0
113.502	1.0
113.517	4.0
113.532	2.0
113.547	3.0
113.562	3.0
113.576	3.0
113.591	3.0
113.606	0.0
113.621	1.0
113.636	4.0
113.651	3.0
113.666	1.0
113.681	3.0
113.695	2.0
113.71	2.0
113.725	4.0
113.74	3.0
113.755	2.0
113.77	3.0
113.785	1.0
113.8	5.0
113.814	1.0
113.829	5.0
113.844	4.0
113.859	3.0
113.874	1.0
113.889	2.0
113.904	3.0
113.919	1.0
113.934	4.0
113.949	5.0
113.963	4.0
113.978	2.0
113.993	3.0
114.008	5.0
114.023	5.0
114.038	4.0
114.053	1.0
114.068	5.0
114.083	3.0
114.098	0.0
114.113	3.0
114.127	1.0
114.142	2.0
114.157	1.0
114.172	4.0
114.187	2.0
114.202	5.0
114.217	4.0
114.232	6.0
114.247	7.0
114.262	1.0
114.277	4.0
114.292	1.0
114.307	6.0
114.322	2.0
114.337	3.0
114.351	4.0
114.366	4.0
114.381	6.0
114.396	4.0
114.411	6.0
114.426	2.0
114.441	2.0
114.456	3.0
114.471	3.0
114.486	1.0
114.501	1.0
114.516	3.0
114.531	3.0
114.546	5.0
114.561	2.0
114.576	4.0
114.591	1.0
114.606	6.0
114.621	2.0
114.636	5.0
114.65	1.0
114.665	5.0
114.68	4.0
114.695	2.0
114.71	1.0
114.725	5.0
114.74	4.0
114.755	2.0
114.77	2.0
114.785	1.0
114.8	1.0
114.815	6.0
114.83	4.0
114.845	3.0
114.86	3.0
114.875	1.0
114.89	6.0
114.905	4.0
114.92	0.0
114.935	2.0
114.95	7.0
114.965	2.0
114.98	5.0
114.995	2.0
115.009	2.0
115.024	6.0
115.039	1.0
115.054	1.0
115.069	1.0
115.084	1.0
115.099	3.0
115.114	5.0
115.129	6.0
115.144	1.0
115.159	2.0
115.174	4.0
115.189	4.0
115.204	3.0
115.219	3.0
115.234	3.0
115.249	4.0
115.264	3.0
115.279	3.0
115.294	1.0
115.309	4.0
115.323	5.0
115.338	5.0
115.353	2.0
115.368	5.0
115.383	4.0
115.398	3.0
115.413	5.0
115.428	3.0
115.443	8.0
115.458	0.0
115.473	6.0
115.488	4.0
115.503	3.0
115.518	11.0
115.533	4.0
115.548	3.0
115.562	1.0
115.577	4.0
115.592	3.0
115.607	5.0
115.622	2.0
115.637	5.0
115.652	5.0
115.667	6.0
115.682	1.0
115.697	2.0
115.712	3.0
115.727	3.0
115.741	3.0
115.756	3.0
115.771	3.0
115.786	2.0
115.801	2.0
115.816	5.0
115.831	3.0
115.846	5.0
115.861	2.0
115.875	1.0
115.89	3.0
115.905	4.0
115.92	3.0
115.935	3.0
115.95	2.0
115.965	5.0
115.98	5.0
115.995	3.0
116.009	5.0
116.024	4.0
116.039	3.0
116.054	1.0
116.069	5.0
116.084	2.0
116.099	4.0
116.113	2.0
116.128	5.0
116.143	7.0
116.158	4.0
116.173	5.0
116.188	4.0
116.202	3.0
116.217	7.0
116.232	4.0
116.247	5.0
116.262	3.0
116.277	4.0
116.291	3.0
116.306	3.0
116.321	5.0
116.336	3.0
116.351	2.0
116.366	4.0
116.38	6.0
116.395	2.0
116.41	3.0
116.425	3.0
116.44	1.0
116.454	3.0
116.469	1.0
116.484	1.0
116.499	4.0
116.514	7.0
116.528	8.0
116.543	3.0
116.558	4.0
116.573	5.0
116.588	4.0
116.602	2.0
116.617	1.0
116.632	1.0
116.647	2.0
116.662	5.0
116.676	2.0
116.691	5.0
116.706	5.0
116.721	5.0
116.735	5.0
116.75	6.0
116.765	4.0
116.78	5.0
116.795	4.0
116.809	7.0
116.824	4.0
116.839	2.0
116.854	5.0
116.868	4.0
116.883	5.0
116.898	4.0
116.913	1.0
116.927	2.0
116.942	5.0
116.957	4.0
116.972	3.0
116.986	3.0
117.001	4.0
117.016	4.0
117.031	4.0
117.045	7.0
117.06	3.0
117.075	5.0
117.09	6.0
117.104	4.0
117.119	2.0
117.134	1.0
117.149	4.0
117.163	5.0
117.178	3.0
117.193	7.0
117.208	1.0
117.222	1.0
117.237	3.0
117.252	2.0
117.267	6.0
117.281	4.0
117.296	4.0
117.311	3.0
117.325	8.0
117.34	6.0
117.355	6.0
117.37	2.0
117.384	3.0
117.399	3.0
117.414	1.0
117.429	2.0
117.443	8.0
117.458	4.0
117.473	4.0
117.487	2.0
117.502	3.0
117.517	1.0
117.532	0.0
117.546	3.0
117.561	5.0
117.576	4.0
117.59	5.0
117.605	4.0
117.62	4.0
117.635	1.0
117.649	5.0
117.664	3.0
117.679	3.0
117.693	4.0
117.708	3.0
117.723	2.0
117.738	3.0
117.752	3.0
117.767	3.0
117.782	5.0
117.796	3.0
117.811	2.0
117.826	1.0
117.841	6.0
117.855	5.0
117.87	2.0
117.885	2.0
117.899	3.0
117.914	4.0
117.929	7.0
117.944	2.0
117.958	1.0
117.973	5.0
117.988	2.0
118.002	8.0
118.017	0.0
118.032	3.0
118.047	1.0
118.062	3.0
118.077	4.0
118.092	6.0
118.107	5.0
118.121	6.0
118.136	5.0
118.151	2.0
118.166	3.0
118.181	4.0
118.196	6.0
118.211	4.0
118.225	7.0
118.24	2.0
118.255	6.0
118.27	3.0
118.285	2.0
118.3	2.0
118.315	8.0
118.33	4.0
118.344	4.0
118.359	6.0
118.374	4.0
118.389	4.0
118.404	4.0
118.419	3.0
118.434	4.0
118.449	8.0
118.463	2.0
118.478	2.0
118.493	3.0
118.508	6.0
118.523	1.0
118.538	7.0
118.553	1.0
118.567	6.0
118.582	4.0
118.597	0.0
118.612	3.0
118.627	5.0
118.642	4.0
118.657	4.0
118.672	8.0
118.686	4.0
118.701	2.0
118.716	2.0
118.731	1.0
118.746	2.0
118.761	4.0
118.776	2.0
118.791	5.0
118.805	0.0
118.82	3.0
118.835	1.0
118.85	3.0
118.865	4.0
118.88	4.0
118.895	4.0
118.909	4.0
118.924	6.0
118.939	7.0
118.954	3.0
118.969	2.0
118.984	5.0
118.999	7.0
119.014	3.0
119.028	2.0
119.043	6.0
119.058	5.0
119.073	2.0
119.088	4.0
119.103	5.0
119.118	4.0
119.133	5.0
119.147	1.0
119.162	6.0
119.177	2.0
119.192	3.0
119.207	7.0
119.222	6.0
119.237	7.0
119.251	4.0
119.266	4.0
119.281	2.0
119.296	7.0
119.311	4.0
119.326	6.0
119.341	4.0
119.356	1.0
119.37	4.0
119.385	2.0
119.4	6.0
119.415	3.0
119.43	1.0
119.445	3.0
119.46	7.0
119.475	3.0
119.489	8.0
119.504	2.0
119.519	6.0
119.534	7.0
119.549	4.0
119.564	1.0
119.579	0.0
119.593	4.0
119.608	2.0
119.623	1.0
119.638	6.0
119.653	2.0
119.668	3.0
119.683	4.0
119.698	0.0
119.712	1.0
119.727	5.0
119.742	5.0
119.757	1.0
119.772	6.0
119.787	4.0
119.802	6.0
119.817	3.0
119.831	4.0
119.846	2.0
119.861	3.0
119.876	2.0
119.891	3.0
119.906	6.0
119.921	1.0
119.935	4.0
119.95	5.0
119.965	3.0
119.98	2.0
119.995	3.0
120.01	1.0
120.025	2.0
120.04	1.0
120.054	5.0
120.069	2.0
120.084	4.0
120.099	1.0
120.114	2.0
120.129	3.0
120.144	0.0
120.159	1.0
120.173	0.0
120.188	2.0
120.203	1.0
120.218	3.0
120.233	0.0
120.248	0.0
120.263	0.0
120.277	2.0
120.292	0.0
120.307	0.0
120.322	0.0
120.337	2.0
120.352	0.0
120.367	0.0
120.382	0.0
120.396	0.0
120.411	0.0
120.426	1.0
120.441	0.0
120.456	0.0
120.471	0.0
120.486	0.0
120.501	0.0
120.515	0.0
120.53	0.0
120.545	0.0
120.56	0.0
120.575	0.0
120.59	0.0
120.605	1.0
120.619	0.0
120.634	0.0
120.649	0.0
120.664	0.0
120.679	0.0
120.694	0.0
120.709	0.0
120.724	1.0
120.738	0.0
120.753	0.0
120.768	0.0
120.783	0.0
120.798	0.0
120.813	0.0
120.828	0.0
120.843	0.0
120.857	0.0
120.872	0.0
120.887	0.0
120.902	0.0
120.917	0.0
120.932	0.0
120.947	0.0
120.961	0.0
120.976	0.0
