-1.217	0.0
-1.202	1.0
-1.187	0.0
-1.172	0.0
-1.157	0.0
-1.142	0.0
-1.128	0.0
-1.113	0.0
-1.098	0.0
-1.083	0.0
-1.068	0.0
-1.054	0.0
-1.039	0.0
-1.024	0.0
-1.009	0.0
-0.994	0.0
-0.979	0.0
-0.965	0.0
-0.95	0.0
-0.935	0.0
-0.92	0.0
-0.905	0.0
-0.891	0.0
-0.876	0.0
-0.861	0.0
-0.846	0.0
-0.831	0.0
-0.816	0.0
-0.802	0.0
-0.787	0.0
-0.772	0.0
-0.757	0.0
-0.742	0.0
-0.728	0.0
-0.713	0.0
-0.698	0.0
-0.683	0.0
-0.668	0.0
-0.653	0.0
-0.639	0.0
-0.624	0.0
-0.609	0.0
-0.594	0.0
-0.579	0.0
-0.565	0.0
-0.55	0.0
-0.535	0.0
-0.52	0.0
-0.505	0.0
-0.49	0.0
-0.476	0.0
-0.461	0.0
-0.446	0.0
-0.431	0.0
-0.416	0.0
-0.401	0.0
-0.387	0.0
-0.372	0.0
-0.357	0.0
-0.342	0.0
-0.327	0.0
-0.313	0.0
-0.298	0.0
-0.283	0.0
-0.268	0.0
-0.253	0.0
-0.238	0.0
-0.224	0.0
-0.209	0.0
-0.194	0.0
-0.179	0.0
-0.164	0.0
-0.15	0.0
-0.135	0.0
-0.12	0.0
-0.105	0.0
-0.09	0.0
-0.075	0.0
-0.061	0.0
-0.046	0.0
-0.031	0.0
-0.016	0.0
-0.001	0.0
0.013	0.0
0.028	0.0
0.043	0.0
0.058	0.0
0.073	0.0
0.088	0.0
0.102	0.0
0.117	0.0
0.132	0.0
0.147	0.0
0.162	0.0
0.176	0.0
0.191	0.0
0.206	0.0
0.221	0.0
0.236	0.0
0.251	0.0
0.265	0.0
0.28	0.0
0.295	0.0
0.31	0.0
0.325	0.0
0.339	0.0
0.354	0.0
0.369	0.0
0.384	0.0
0.399	0.0
0.414	0.0
0.428	0.0
0.443	0.0
0.458	0.0
0.473	0.0
0.488	0.0
0.502	0.0
0.517	0.0
0.532	0.0
0.547	0.0
0.562	0.0
0.577	0.0
0.591	0.0
0.606	0.0
0.621	0.0
0.636	0.0
0.651	0.0
0.665	0.0
0.68	0.0
0.695	0.0
0.71	1.0
0.725	0.0
0.74	0.0
0.754	0.0
0.769	0.0
0.784	0.0
0.799	0.0
0.814	0.0
0.828	0.0
0.843	0.0
0.858	0.0
0.873	0.0
0.888	0.0
0.903	0.0
0.917	0.0
0.932	0.0
0.947	0.0
0.962	0.0
0.977	0.0
0.991	0.0
1.006	0.0
1.021	0.0
1.036	0.0
1.051	1.0
1.065	0.0
1.08	0.0
1.095	0.0
1.11	0.0
1.125	0.0
1.14	0.0
1.154	0.0
1.169	0.0
1.184	0.0
1.199	0.0
1.214	0.0
1.228	0.0
1.243	0.0
1.258	0.0
1.273	0.0
1.288	0.0
1.302	0.0
1.317	0.0
1.332	0.0
1.347	0.0
1.362	0.0
1.376	0.0
1.391	0.0
1.406	0.0
1.421	0.0
1.436	0.0
1.45	0.0
1.465	0.0
1.48	0.0
1.495	0.0
1.51	0.0
1.524	0.0
1.539	0.0
1.554	0.0
1.569	0.0
1.584	0.0
1.598	0.0
1.613	0.0
1.628	0.0
1.643	0.0
1.658	0.0
1.672	0.0
1.687	0.0
1.702	0.0
1.717	0.0
1.732	1.0
1.746	0.0
1.761	0.0
1.776	0.0
1.791	0.0
1.806	0.0
1.82	1.0
1.835	0.0
1.85	0.0
1.865	0.0
1.88	1.0
1.894	0.0
1.909	0.0
1.924	0.0
1.939	0.0
1.954	0.0
1.968	0.0
1.983	1.0
1.998	0.0
2.013	0.0
2.028	0.0
2.042	0.0
2.057	0.0
2.072	0.0
2.087	0.0
2.101	0.0
2.116	0.0
2.131	0.0
2.146	0.0
2.161	0.0
2.175	1.0
2.19	0.0
2.205	0.0
2.22	1.0
2.235	0.0
2.249	0.0
2.264	0.0
2.279	0.0
2.294	0.0
2.308	1.0
2.323	0.0
2.338	0.0
2.353	1.0
2.368	1.0
2.382	2.0
2.397	1.0
2.412	3.0
2.427	4.0
2.442	0.0
2.456	2.0
2.471	1.0
2.486	1.0
2.501	0.0
2.515	0.0
2.53	1.0
2.545	1.0
2.56	1.0
2.575	3.0
2.589	0.0
2.604	3.0
2.619	2.0
2.634	3.0
2.649	2.0
2.663	2.0
2.678	1.0
2.693	4.0
2.708	1.0
2.722	2.0
2.737	4.0
2.752	3.0
2.767	6.0
2.782	2.0
2.796	4.0
2.811	3.0
2.826	6.0
2.841	3.0
2.856	3.0
2.87	2.0
2.885	4.0
2.9	3.0
2.915	3.0
2.93	8.0
2.944	1.0
2.959	2.0
2.974	2.0
2.989	5.0
3.004	5.0
3.018	2.0
3.033	3.0
3.048	5.0
3.063	3.0
3.078	2.0
3.092	3.0
3.107	3.0
3.122	5.0
3.137	2.0
3.152	5.0
3.166	5.0
3.181	5.0
3.196	5.0
3.211	0.0
3.226	6.0
3.24	3.0
3.255	6.0
3.27	2.0
3.285	5.0
3.3	6.0
3.315	7.0
3.329	6.0
3.344	11.0
3.359	1.0
3.374	7.0
3.389	6.0
3.403	4.0
3.418	4.0
3.433	5.0
3.448	3.0
3.463	6.0
3.478	5.0
3.492	9.0
3.507	5.0
3.522	7.0
3.537	3.0
3.552	5.0
3.567	7.0
3.581	8.0
3.596	6.0
3.611	6.0
3.626	6.0
3.641	4.0
3.656	7.0
3.671	8.0
3.685	6.0
3.7	5.0
3.715	5.0
3.73	6.0
3.745	3.0
3.76	6.0
3.775	4.0
3.789	9.0
3.804	5.0
3.819	4.0
3.834	6.0
3.849	6.0
3.864	8.0
3.879	1.0
3.894	4.0
3.908	3.0
3.923	6.0
3.938	5.0
3.953	9.0
3.968	7.0
3.983	3.0
3.998	5.0
4.013	13.0
4.027	4.0
4.042	5.0
4.057	8.0
4.072	5.0
4.087	6.0
4.102	8.0
4.117	3.0
4.132	6.0
4.147	6.0
4.162	5.0
4.176	7.0
4.191	8.0
4.206	3.0
4.221	9.0
4.236	4.0
4.251	9.0
4.266	6.0
4.281	10.0
4.296	9.0
4.311	12.0
4.326	6.0
4.341	14.0
4.356	7.0
4.37	12.0
4.385	7.0
4.4	7.0
4.415	3.0
4.43	5.0
4.445	7.0
4.46	6.0
4.475	10.0
4.49	13.0
4.505	7.0
4.52	6.0
4.535	4.0
4.55	6.0
4.565	8.0
4.58	5.0
4.595	13.0
4.61	6.0
4.625	6.0
4.639	10.0
4.654	3.0
4.669	7.0
4.684	4.0
4.699	5.0
4.714	9.0
4.729	4.0
4.744	8.0
4.759	7.0
4.774	14.0
4.789	6.0
4.804	11.0
4.819	11.0
4.834	8.0
4.849	9.0
4.864	12.0
4.879	15.0
4.894	10.0
4.909	7.0
4.924	9.0
4.939	10.0
4.954	5.0
4.969	6.0
4.984	5.0
4.999	6.0
5.014	7.0
5.029	9.0
5.044	8.0
5.059	8.0
5.074	11.0
5.089	10.0
5.104	13.0
5.119	11.0
5.134	9.0
5.149	6.0
5.164	7.0
5.179	8.0
5.194	8.0
5.209	7.0
5.224	2.0
5.239	8.0
5.254	9.0
5.269	7.0
5.284	6.0
5.299	9.0
5.314	8.0
5.329	5.0
5.344	10.0
5.359	9.0
5.374	4.0
5.389	5.0
5.404	10.0
5.419	10.0
5.434	13.0
5.449	12.0
5.464	9.0
5.479	6.0
5.494	14.0
5.509	5.0
5.524	7.0
5.539	10.0
5.554	12.0
5.569	7.0
5.584	6.0
5.599	9.0
5.614	4.0
5.629	3.0
5.644	7.0
5.659	6.0
5.674	8.0
5.689	4.0
5.704	9.0
5.719	9.0
5.734	9.0
5.749	9.0
5.764	5.0
5.779	10.0
5.794	9.0
5.809	7.0
5.824	5.0
5.839	10.0
5.854	9.0
5.869	9.0
5.884	8.0
5.899	7.0
5.914	13.0
5.929	7.0
5.944	11.0
5.959	10.0
5.974	13.0
5.989	11.0
6.004	2.0
6.019	11.0
6.034	4.0
6.049	8.0
6.064	7.0
6.079	9.0
6.094	6.0
6.109	8.0
6.124	12.0
6.139	10.0
6.154	8.0
6.169	4.0
6.184	8.0
6.199	10.0
6.214	11.0
6.229	7.0
6.244	10.0
6.259	5.0
6.274	5.0
6.289	9.0
6.304	11.0
6.319	12.0
6.334	7.0
6.349	9.0
6.364	6.0
6.379	12.0
6.394	7.0
6.409	12.0
6.424	12.0
6.439	11.0
6.454	11.0
6.469	7.0
6.484	14.0
6.499	9.0
6.514	5.0
6.529	6.0
6.544	9.0
6.559	14.0
6.574	11.0
6.589	9.0
6.604	14.0
6.619	9.0
6.634	15.0
6.649	7.0
6.664	7.0
6.679	7.0
6.694	5.0
6.709	9.0
6.724	7.0
6.739	11.0
6.754	4.0
6.769	15.0
6.784	8.0
6.799	12.0
6.814	7.0
6.829	6.0
6.844	5.0
6.859	8.0
6.873	9.0
6.888	6.0
6.903	7.0
6.918	10.0
6.933	4.0
6.948	13.0
6.963	8.0
6.978	4.0
6.993	4.0
7.008	8.0
7.023	9.0
7.038	12.0
7.053	10.0
7.068	10.0
7.083	13.0
7.098	10.0
7.113	17.0
7.128	11.0
7.143	12.0
7.157	6.0
7.172	6.0
7.187	9.0
7.202	9.0
7.217	9.0
7.232	7.0
7.247	4.0
7.262	11.0
7.277	10.0
7.292	13.0
7.307	12.0
7.322	11.0
7.336	9.0
7.351	13.0
7.366	6.0
7.381	7.0
7.396	11.0
7.411	8.0
7.426	10.0
7.441	10.0
7.456	5.0
7.471	5.0
7.485	4.0
7.5	11.0
7.515	4.0
7.53	11.0
7.545	8.0
7.56	6.0
7.575	11.0
7.59	14.0
7.604	10.0
7.619	14.0
7.634	13.0
7.649	13.0
7.664	6.0
7.679	10.0
7.693	10.0
7.708	7.0
7.723	6.0
7.738	13.0
7.753	16.0
7.768	9.0
7.783	6.0
7.797	7.0
7.812	10.0
7.827	11.0
7.842	10.0
7.857	10.0
7.871	10.0
7.886	11.0
7.901	8.0
7.916	9.0
7.931	7.0
7.945	9.0
7.96	12.0
7.975	11.0
7.99	10.0
8.005	6.0
8.019	12.0
8.034	4.0
8.049	13.0
8.064	10.0
8.078	7.0
8.093	9.0
8.108	7.0
8.123	11.0
8.137	13.0
8.152	10.0
8.167	7.0
8.182	6.0
8.196	6.0
8.211	8.0
8.226	12.0
8.241	5.0
8.255	13.0
8.27	10.0
8.285	8.0
8.3	10.0
8.314	9.0
8.329	10.0
8.344	12.0
8.358	9.0
8.373	11.0
8.388	9.0
8.403	6.0
8.417	13.0
8.432	6.0
8.447	7.0
8.461	8.0
8.476	10.0
8.491	5.0
8.505	10.0
8.52	7.0
8.535	7.0
8.55	10.0
8.564	5.0
8.579	13.0
8.594	11.0
8.608	5.0
8.623	14.0
8.638	10.0
8.652	9.0
8.667	7.0
8.682	11.0
8.696	12.0
8.711	10.0
8.726	7.0
8.74	9.0
8.755	10.0
8.77	7.0
8.784	7.0
8.799	3.0
8.814	7.0
8.828	8.0
8.843	4.0
8.858	7.0
8.872	7.0
8.887	9.0
8.902	8.0
8.916	13.0
8.931	7.0
8.946	9.0
8.96	12.0
8.975	5.0
8.99	12.0
9.004	15.0
9.019	7.0
9.034	5.0
9.048	7.0
9.063	13.0
9.077	12.0
9.092	8.0
9.107	10.0
9.121	9.0
9.136	8.0
9.151	7.0
9.165	8.0
9.18	9.0
9.195	7.0
9.209	17.0
9.224	4.0
9.239	6.0
9.253	8.0
9.268	8.0
9.283	16.0
9.297	7.0
9.312	14.0
9.327	6.0
9.341	15.0
9.356	10.0
9.371	6.0
9.385	9.0
9.4	12.0
9.415	9.0
9.429	3.0
9.444	7.0
9.458	8.0
9.473	13.0
9.488	11.0
9.502	12.0
9.517	2.0
9.532	10.0
9.546	11.0
9.561	5.0
9.576	6.0
9.59	7.0
9.605	9.0
9.62	9.0
9.635	7.0
9.649	14.0
9.664	5.0
9.679	2.0
9.693	7.0
9.708	13.0
9.723	6.0
9.737	7.0
9.752	5.0
9.767	10.0
9.781	10.0
9.796	11.0
9.811	10.0
9.825	15.0
9.84	9.0
9.855	6.0
9.87	3.0
9.884	11.0
9.899	15.0
9.914	11.0
9.928	8.0
9.943	9.0
9.958	9.0
9.973	10.0
9.987	7.0
10.002	5.0
10.017	2.0
10.031	12.0
10.046	6.0
10.061	8.0
10.076	11.0
10.09	13.0
10.105	5.0
10.12	8.0
10.135	5.0
10.149	5.0
10.164	8.0
10.179	8.0
10.194	6.0
10.208	9.0
10.223	10.0
10.238	10.0
10.253	6.0
10.267	10.0
10.282	10.0
10.297	6.0
10.312	5.0
10.326	8.0
10.341	7.0
10.356	10.0
10.371	10.0
10.386	9.0
10.4	6.0
10.415	8.0
10.43	6.0
10.445	13.0
10.46	10.0
10.474	5.0
10.489	9.0
10.504	13.0
10.519	10.0
10.533	8.0
10.548	10.0
10.563	5.0
10.578	11.0
10.593	6.0
10.608	9.0
10.622	5.0
10.637	10.0
10.652	7.0
10.667	8.0
10.682	10.0
10.696	9.0
10.711	13.0
10.726	5.0
10.741	11.0
10.756	7.0
10.771	3.0
10.785	7.0
10.8	5.0
10.815	14.0
10.83	7.0
10.845	10.0
10.86	9.0
10.874	10.0
10.889	9.0
10.904	11.0
10.919	6.0
10.934	6.0
10.949	10.0
10.963	11.0
10.978	11.0
10.993	6.0
11.008	11.0
11.023	6.0
11.038	10.0
11.053	9.0
11.067	7.0
11.082	14.0
11.097	4.0
11.112	12.0
11.127	10.0
11.142	10.0
11.157	6.0
11.172	13.0
11.186	7.0
11.201	6.0
11.216	8.0
11.231	9.0
11.246	7.0
11.261	9.0
11.276	6.0
11.291	10.0
11.305	9.0
11.32	8.0
11.335	5.0
11.35	12.0
11.365	5.0
11.38	8.0
11.395	10.0
11.41	6.0
11.424	12.0
11.439	10.0
11.454	8.0
11.469	13.0
11.484	10.0
11.499	14.0
11.514	12.0
11.529	9.0
11.544	6.0
11.558	7.0
11.573	5.0
11.588	9.0
11.603	8.0
11.618	8.0
11.633	12.0
11.648	2.0
11.663	6.0
11.678	12.0
11.693	12.0
11.707	8.0
11.722	10.0
11.737	4.0
11.752	10.0
11.767	8.0
11.782	9.0
11.797	6.0
11.812	10.0
11.827	5.0
11.842	8.0
11.856	10.0
11.871	5.0
11.886	5.0
11.901	13.0
11.916	11.0
11.931	6.0
11.946	7.0
11.961	6.0
11.976	12.0
11.991	5.0
12.006	11.0
12.02	8.0
12.035	10.0
12.05	11.0
12.065	12.0
12.08	10.0
12.095	17.0
12.11	11.0
12.125	7.0
12.14	15.0
12.155	12.0
12.17	11.0
12.184	8.0
12.199	8.0
12.214	8.0
12.229	11.0
12.244	13.0
12.259	8.0
12.274	12.0
12.289	10.0
12.304	12.0
12.319	11.0
12.334	9.0
12.348	10.0
12.363	16.0
12.378	12.0
12.393	10.0
12.408	8.0
12.423	12.0
12.438	6.0
12.453	14.0
12.468	10.0
12.483	15.0
12.498	16.0
12.513	11.0
12.527	18.0
12.542	11.0
12.557	13.0
12.572	16.0
12.587	14.0
12.602	14.0
12.617	12.0
12.632	16.0
12.647	14.0
12.662	13.0
12.677	13.0
12.692	16.0
12.707	17.0
12.721	9.0
12.736	17.0
12.751	18.0
12.766	18.0
12.781	18.0
12.796	10.0
12.811	12.0
12.826	16.0
12.841	16.0
12.856	13.0
12.871	13.0
12.886	15.0
12.9	21.0
12.915	17.0
12.93	13.0
12.945	14.0
12.96	15.0
12.975	15.0
12.99	18.0
13.005	14.0
13.02	16.0
13.035	13.0
13.05	15.0
13.065	15.0
13.08	19.0
13.094	14.0
13.109	19.0
13.124	21.0
13.139	12.0
13.154	19.0
13.169	22.0
13.184	13.0
13.199	12.0
13.214	19.0
13.229	26.0
13.244	21.0
13.259	9.0
13.274	21.0
13.288	19.0
13.303	18.0
13.318	22.0
13.333	16.0
13.348	21.0
13.363	28.0
13.378	24.0
13.393	29.0
13.408	26.0
13.423	30.0
13.438	25.0
13.453	31.0
13.468	40.0
13.482	39.0
13.497	44.0
13.512	42.0
13.527	43.0
13.542	39.0
13.557	40.0
13.572	56.0
13.587	64.0
13.602	59.0
13.617	59.0
13.632	61.0
13.647	88.0
13.662	96.0
13.677	76.0
13.691	83.0
13.706	106.0
13.721	101.0
13.736	92.0
13.751	92.0
13.766	94.0
13.781	117.0
13.796	123.0
13.811	134.0
13.826	131.0
13.841	128.0
13.856	119.0
13.871	133.0
13.885	123.0
13.9	90.0
13.915	103.0
13.93	76.0
13.945	64.0
13.96	46.0
13.975	47.0
13.99	43.0
14.005	31.0
14.02	28.0
14.035	29.0
14.05	26.0
14.065	22.0
14.08	24.0
14.094	28.0
14.109	18.0
14.124	29.0
14.139	25.0
14.154	27.0
14.169	18.0
14.184	21.0
14.199	20.0
14.214	15.0
14.229	23.0
14.244	27.0
14.259	16.0
14.274	19.0
14.288	16.0
14.303	15.0
14.318	19.0
14.333	17.0
14.348	17.0
14.363	29.0
14.378	16.0
14.393	11.0
14.408	19.0
14.423	19.0
14.438	21.0
14.453	17.0
14.468	17.0
14.482	24.0
14.497	20.0
14.512	20.0
14.527	19.0
14.542	22.0
14.557	15.0
14.572	12.0
14.587	16.0
14.602	15.0
14.617	12.0
14.632	19.0
14.647	22.0
14.661	20.0
14.676	12.0
14.691	18.0
14.706	18.0
14.721	13.0
14.736	20.0
14.751	14.0
14.766	16.0
14.781	17.0
14.796	14.0
14.811	15.0
14.826	22.0
14.84	19.0
14.855	9.0
14.87	11.0
14.885	8.0
14.9	12.0
14.915	17.0
14.93	19.0
14.945	16.0
14.96	19.0
14.975	12.0
14.989	10.0
15.004	16.0
15.019	17.0
15.034	7.0
15.049	16.0
15.064	16.0
15.079	19.0
15.094	12.0
15.109	17.0
15.124	14.0
15.138	19.0
15.153	14.0
15.168	11.0
15.183	12.0
15.198	9.0
15.213	15.0
15.228	16.0
15.243	16.0
15.258	14.0
15.272	17.0
15.287	16.0
15.302	16.0
15.317	15.0
15.332	13.0
15.347	16.0
15.362	11.0
15.377	11.0
15.391	17.0
15.406	14.0
15.421	12.0
15.436	12.0
15.451	12.0
15.466	14.0
15.481	21.0
15.496	12.0
15.51	10.0
15.525	13.0
15.54	12.0
15.555	22.0
15.57	12.0
15.585	11.0
15.6	12.0
15.614	16.0
15.629	19.0
15.644	17.0
15.659	9.0
15.674	12.0
15.689	13.0
15.704	15.0
15.718	16.0
15.733	12.0
15.748	11.0
15.763	16.0
15.778	20.0
15.793	10.0
15.808	10.0
15.822	14.0
15.837	12.0
15.852	14.0
15.867	17.0
15.882	19.0
15.897	17.0
15.911	17.0
15.926	28.0
15.941	9.0
15.956	11.0
15.971	19.0
15.986	23.0
16.0	7.0
16.015	15.0
16.03	14.0
16.045	23.0
16.06	16.0
16.074	16.0
16.089	14.0
16.104	16.0
16.119	13.0
16.134	13.0
16.149	11.0
16.163	9.0
16.178	16.0
16.193	12.0
16.208	16.0
16.223	14.0
16.237	19.0
16.252	11.0
16.267	11.0
16.282	22.0
16.297	10.0
16.311	13.0
16.326	20.0
16.341	10.0
16.356	12.0
16.37	12.0
16.385	15.0
16.4	15.0
16.415	17.0
16.43	19.0
16.444	16.0
16.459	23.0
16.474	11.0
16.489	20.0
16.504	14.0
16.518	23.0
16.533	13.0
16.548	22.0
16.563	19.0
16.577	13.0
16.592	23.0
16.607	17.0
16.622	21.0
16.637	24.0
16.651	27.0
16.666	14.0
16.681	30.0
16.696	21.0
16.71	34.0
16.725	36.0
16.74	33.0
16.755	40.0
16.77	29.0
16.784	37.0
16.799	40.0
16.814	41.0
16.829	66.0
16.843	48.0
16.858	55.0
16.873	42.0
16.888	64.0
16.902	72.0
16.917	61.0
16.932	91.0
16.947	82.0
16.961	70.0
16.976	75.0
16.991	77.0
17.006	71.0
17.021	58.0
17.035	57.0
17.05	50.0
17.065	50.0
17.08	37.0
17.094	39.0
17.109	27.0
17.124	35.0
17.139	22.0
17.153	23.0
17.168	21.0
17.183	22.0
17.198	16.0
17.212	17.0
17.227	13.0
17.242	18.0
17.257	18.0
17.271	9.0
17.286	17.0
17.301	14.0
17.316	16.0
17.33	12.0
17.345	10.0
17.36	15.0
17.375	16.0
17.39	18.0
17.404	21.0
17.419	16.0
17.434	19.0
17.449	16.0
17.463	14.0
17.478	19.0
17.493	13.0
17.508	15.0
17.522	11.0
17.537	10.0
17.552	16.0
17.567	11.0
17.581	20.0
17.596	18.0
17.611	13.0
17.626	11.0
17.641	13.0
17.655	14.0
17.67	11.0
17.685	12.0
17.7	9.0
17.714	8.0
17.729	13.0
17.744	13.0
17.759	10.0
17.773	16.0
17.788	11.0
17.803	10.0
17.818	9.0
17.833	12.0
17.847	13.0
17.862	13.0
17.877	14.0
17.892	11.0
17.906	16.0
17.921	14.0
17.936	10.0
17.951	12.0
17.966	12.0
17.98	10.0
17.995	13.0
18.01	8.0
18.025	18.0
18.04	14.0
18.054	11.0
18.069	10.0
18.084	6.0
18.099	11.0
18.114	14.0
18.128	12.0
18.143	18.0
18.158	9.0
18.173	10.0
18.188	17.0
18.202	8.0
18.217	12.0
18.232	10.0
18.247	11.0
18.262	11.0
18.276	15.0
18.291	9.0
18.306	13.0
18.321	9.0
18.336	16.0
18.35	10.0
18.365	6.0
18.38	11.0
18.395	14.0
18.41	16.0
18.424	10.0
18.439	11.0
18.454	12.0
18.469	10.0
18.484	17.0
18.498	16.0
18.513	11.0
18.528	17.0
18.543	11.0
18.558	13.0
18.573	6.0
18.587	11.0
18.602	15.0
18.617	14.0
18.632	12.0
18.647	15.0
18.661	13.0
18.676	15.0
18.691	8.0
18.706	11.0
18.721	15.0
18.736	8.0
18.75	6.0
18.765	9.0
18.78	10.0
18.795	8.0
18.81	9.0
18.825	16.0
18.839	9.0
18.854	16.0
18.869	8.0
18.884	11.0
18.899	9.0
18.913	13.0
18.928	11.0
18.943	14.0
18.958	11.0
18.973	12.0
18.988	15.0
19.002	17.0
19.017	11.0
19.032	16.0
19.047	9.0
19.062	10.0
19.077	11.0
19.091	9.0
19.106	7.0
19.121	11.0
19.136	9.0
19.151	14.0
19.165	9.0
19.18	10.0
19.195	10.0
19.21	12.0
19.225	16.0
19.24	11.0
19.254	15.0
19.269	21.0
19.284	19.0
19.299	13.0
19.314	21.0
19.329	11.0
19.343	14.0
19.358	24.0
19.373	14.0
19.388	13.0
19.403	17.0
19.417	17.0
19.432	19.0
19.447	23.0
19.462	16.0
19.477	35.0
19.492	24.0
19.506	28.0
19.521	32.0
19.536	35.0
19.551	45.0
19.566	45.0
19.58	43.0
19.595	51.0
19.61	47.0
19.625	39.0
19.64	45.0
19.655	38.0
19.669	39.0
19.684	41.0
19.699	26.0
19.714	35.0
19.729	32.0
19.743	21.0
19.758	29.0
19.773	28.0
19.788	18.0
19.803	13.0
19.817	18.0
19.832	15.0
19.847	16.0
19.862	12.0
19.877	12.0
19.891	10.0
19.906	18.0
19.921	13.0
19.936	11.0
19.951	22.0
19.965	13.0
19.98	17.0
19.995	14.0
20.01	12.0
20.025	10.0
20.039	8.0
20.054	7.0
20.069	12.0
20.084	13.0
20.099	17.0
20.113	8.0
20.128	8.0
20.143	17.0
20.158	10.0
20.173	19.0
20.187	16.0
20.202	8.0
20.217	14.0
20.232	6.0
20.246	2.0
20.261	11.0
20.276	15.0
20.291	9.0
20.306	6.0
20.32	11.0
20.335	10.0
20.35	10.0
20.365	11.0
20.38	11.0
20.394	10.0
20.409	6.0
20.424	11.0
20.439	7.0
20.453	10.0
20.468	17.0
20.483	9.0
20.498	6.0
20.513	12.0
20.527	10.0
20.542	12.0
20.557	11.0
20.572	6.0
20.586	9.0
20.601	12.0
20.616	8.0
20.631	12.0
20.646	10.0
20.66	12.0
20.675	12.0
20.69	16.0
20.705	11.0
20.719	12.0
20.734	10.0
20.749	12.0
20.764	14.0
20.779	16.0
20.793	8.0
20.808	8.0
20.823	5.0
20.838	10.0
20.853	13.0
20.867	11.0
20.882	10.0
20.897	14.0
20.912	6.0
20.926	16.0
20.941	6.0
20.956	20.0
20.971	12.0
20.986	6.0
21.0	10.0
21.015	12.0
21.03	15.0
21.045	6.0
21.06	9.0
21.074	8.0
21.089	17.0
21.104	13.0
21.119	13.0
21.134	12.0
21.148	9.0
21.163	12.0
21.178	15.0
21.193	16.0
21.208	9.0
21.222	15.0
21.237	8.0
21.252	11.0
21.267	12.0
21.282	14.0
21.296	13.0
21.311	12.0
21.326	4.0
21.341	12.0
21.356	11.0
21.37	10.0
21.385	13.0
21.4	13.0
21.415	13.0
21.43	6.0
21.444	11.0
21.459	14.0
21.474	10.0
21.489	13.0
21.504	15.0
21.519	12.0
21.533	13.0
21.548	8.0
21.563	12.0
21.578	15.0
21.593	18.0
21.608	17.0
21.622	13.0
21.637	10.0
21.652	15.0
21.667	13.0
21.682	18.0
21.697	26.0
21.712	18.0
21.726	20.0
21.741	36.0
21.756	30.0
21.771	30.0
21.786	31.0
21.801	36.0
21.816	41.0
21.83	50.0
21.845	52.0
21.86	47.0
21.875	78.0
21.89	61.0
21.905	77.0
21.92	69.0
21.935	83.0
21.949	74.0
21.964	104.0
21.979	62.0
21.994	78.0
22.009	79.0
22.024	49.0
22.039	60.0
22.054	70.0
22.069	53.0
22.083	52.0
22.098	41.0
22.113	46.0
22.128	37.0
22.143	34.0
22.158	27.0
22.173	12.0
22.188	11.0
22.203	24.0
22.218	17.0
22.233	20.0
22.248	11.0
22.262	16.0
22.277	15.0
22.292	13.0
22.307	16.0
22.322	14.0
22.337	21.0
22.352	7.0
22.367	20.0
22.382	11.0
22.397	16.0
22.412	13.0
22.427	11.0
22.442	11.0
22.457	14.0
22.472	9.0
22.487	9.0
22.502	4.0
22.516	7.0
22.531	13.0
22.546	11.0
22.561	12.0
22.576	11.0
22.591	10.0
22.606	20.0
22.621	7.0
22.636	9.0
22.651	10.0
22.666	13.0
22.681	8.0
22.696	9.0
22.711	17.0
22.726	11.0
22.741	12.0
22.756	12.0
22.771	9.0
22.786	7.0
22.801	6.0
22.816	24.0
22.831	8.0
22.846	15.0
22.861	10.0
22.876	11.0
22.891	9.0
22.906	13.0
22.92	7.0
22.935	8.0
22.95	12.0
22.965	11.0
22.98	9.0
22.995	13.0
23.01	8.0
23.025	11.0
23.04	15.0
23.055	13.0
23.07	6.0
23.085	3.0
23.1	15.0
23.115	12.0
23.13	7.0
23.145	2.0
23.16	11.0
23.175	14.0
23.19	8.0
23.205	8.0
23.22	9.0
23.235	9.0
23.25	10.0
23.265	12.0
23.28	13.0
23.295	8.0
23.31	13.0
23.325	7.0
23.34	9.0
23.355	15.0
23.37	7.0
23.384	9.0
23.399	10.0
23.414	9.0
23.429	15.0
23.444	11.0
23.459	11.0
23.474	15.0
23.489	9.0
23.504	19.0
23.519	11.0
23.534	13.0
23.549	9.0
23.564	13.0
23.579	12.0
23.594	12.0
23.609	10.0
23.624	10.0
23.639	11.0
23.654	9.0
23.668	10.0
23.683	7.0
23.698	19.0
23.713	18.0
23.728	10.0
23.743	9.0
23.758	8.0
23.773	13.0
23.788	17.0
23.803	13.0
23.818	10.0
23.833	8.0
23.848	21.0
23.862	12.0
23.877	20.0
23.892	21.0
23.907	24.0
23.922	31.0
23.937	28.0
23.952	34.0
23.967	25.0
23.982	37.0
23.997	42.0
24.011	46.0
24.026	41.0
24.041	44.0
24.056	48.0
24.071	61.0
24.086	49.0
24.101	53.0
24.116	57.0
24.131	44.0
24.145	41.0
24.16	39.0
24.175	45.0
24.19	35.0
24.205	31.0
24.22	26.0
24.235	34.0
24.249	34.0
24.264	28.0
24.279	25.0
24.294	15.0
24.309	16.0
24.324	22.0
24.338	14.0
24.353	12.0
24.368	14.0
24.383	10.0
24.398	10.0
24.413	15.0
24.428	12.0
24.442	6.0
24.457	9.0
24.472	7.0
24.487	6.0
24.502	15.0
24.516	16.0
24.531	8.0
24.546	13.0
24.561	15.0
24.576	8.0
24.591	15.0
24.605	16.0
24.62	7.0
24.635	9.0
24.65	6.0
24.665	11.0
24.679	12.0
24.694	15.0
24.709	9.0
24.724	3.0
24.739	14.0
24.753	13.0
24.768	7.0
24.783	5.0
24.798	11.0
24.813	8.0
24.827	13.0
24.842	15.0
24.857	7.0
24.872	6.0
24.886	8.0
24.901	8.0
24.916	11.0
24.931	6.0
24.946	10.0
24.96	8.0
24.975	12.0
24.99	8.0
25.005	11.0
25.019	16.0
25.034	10.0
25.049	7.0
25.064	5.0
25.078	11.0
25.093	11.0
25.108	7.0
25.123	11.0
25.138	9.0
25.152	16.0
25.167	10.0
25.182	7.0
25.197	12.0
25.211	11.0
25.226	8.0
25.241	7.0
25.256	17.0
25.27	4.0
25.285	16.0
25.3	11.0
25.315	8.0
25.329	15.0
25.344	9.0
25.359	7.0
25.374	10.0
25.388	6.0
25.403	10.0
25.418	13.0
25.433	9.0
25.447	10.0
25.462	12.0
25.477	8.0
25.492	7.0
25.506	8.0
25.521	7.0
25.536	6.0
25.55	13.0
25.565	9.0
25.58	11.0
25.595	12.0
25.609	9.0
25.624	11.0
25.639	10.0
25.654	8.0
25.668	12.0
25.683	12.0
25.698	11.0
25.713	22.0
25.727	10.0
25.742	8.0
25.757	8.0
25.772	8.0
25.786	14.0
25.801	18.0
25.816	12.0
25.83	7.0
25.845	11.0
25.86	9.0
25.875	10.0
25.889	10.0
25.904	10.0
25.919	6.0
25.934	14.0
25.948	5.0
25.963	11.0
25.978	6.0
25.992	8.0
26.007	6.0
26.022	10.0
26.037	12.0
26.051	12.0
26.066	9.0
26.081	3.0
26.096	16.0
26.11	8.0
26.125	9.0
26.14	9.0
26.155	15.0
26.169	9.0
26.184	9.0
26.199	9.0
26.213	6.0
26.228	8.0
26.243	7.0
26.258	6.0
26.272	12.0
26.287	8.0
26.302	13.0
26.317	6.0
26.331	12.0
26.346	13.0
26.361	10.0
26.376	5.0
26.39	9.0
26.405	3.0
26.42	11.0
26.434	8.0
26.449	8.0
26.464	8.0
26.479	9.0
26.493	7.0
26.508	6.0
26.523	4.0
26.538	13.0
26.552	4.0
26.567	6.0
26.582	8.0
26.597	12.0
26.611	6.0
26.626	10.0
26.641	8.0
26.656	8.0
26.67	7.0
26.685	10.0
26.7	5.0
26.715	15.0
26.729	12.0
26.744	11.0
26.759	9.0
26.773	10.0
26.788	10.0
26.803	7.0
26.818	7.0
26.832	9.0
26.847	10.0
26.862	12.0
26.877	10.0
26.891	10.0
26.906	14.0
26.921	7.0
26.936	13.0
26.95	4.0
26.965	8.0
26.98	10.0
26.995	8.0
27.01	9.0
27.024	14.0
27.039	7.0
27.054	8.0
27.069	4.0
27.083	4.0
27.098	10.0
27.113	11.0
27.128	10.0
27.142	18.0
27.157	9.0
27.172	9.0
27.187	17.0
27.201	13.0
27.216	11.0
27.231	10.0
27.246	12.0
27.261	9.0
27.275	14.0
27.29	9.0
27.305	10.0
27.32	16.0
27.334	8.0
27.349	11.0
27.364	14.0
27.379	7.0
27.394	5.0
27.408	16.0
27.423	9.0
27.438	17.0
27.453	16.0
27.467	3.0
27.482	7.0
27.497	10.0
27.512	13.0
27.527	6.0
27.541	9.0
27.556	7.0
27.571	4.0
27.586	12.0
27.601	14.0
27.615	7.0
27.63	10.0
27.645	10.0
27.66	16.0
27.675	18.0
27.689	11.0
27.704	11.0
27.719	14.0
27.734	16.0
27.749	20.0
27.763	16.0
27.778	24.0
27.793	21.0
27.808	21.0
27.823	20.0
27.838	15.0
27.852	19.0
27.867	19.0
27.882	19.0
27.897	31.0
27.912	24.0
27.926	23.0
27.941	15.0
27.956	25.0
27.971	16.0
27.986	27.0
28.001	29.0
28.015	27.0
28.03	19.0
28.045	19.0
28.06	15.0
28.075	13.0
28.09	15.0
28.105	19.0
28.119	14.0
28.134	9.0
28.149	14.0
28.164	11.0
28.179	11.0
28.194	17.0
28.208	12.0
28.223	13.0
28.238	11.0
28.253	7.0
28.268	9.0
28.283	5.0
28.298	10.0
28.312	18.0
28.327	9.0
28.342	9.0
28.357	11.0
28.372	9.0
28.387	9.0
28.402	19.0
28.417	11.0
28.431	15.0
28.446	12.0
28.461	9.0
28.476	15.0
28.491	9.0
28.506	13.0
28.521	14.0
28.536	15.0
28.55	8.0
28.565	14.0
28.58	9.0
28.595	11.0
28.61	10.0
28.625	7.0
28.64	9.0
28.655	14.0
28.669	11.0
28.684	13.0
28.699	12.0
28.714	11.0
28.729	8.0
28.744	10.0
28.759	10.0
28.774	9.0
28.788	12.0
28.803	13.0
28.818	6.0
28.833	11.0
28.848	13.0
28.863	10.0
28.878	12.0
28.893	7.0
28.908	11.0
28.922	14.0
28.937	10.0
28.952	9.0
28.967	11.0
28.982	13.0
28.997	11.0
29.012	16.0
29.027	10.0
29.041	9.0
29.056	21.0
29.071	10.0
29.086	13.0
29.101	12.0
29.116	13.0
29.131	9.0
29.146	12.0
29.16	16.0
29.175	6.0
29.19	18.0
29.205	21.0
29.22	10.0
29.235	9.0
29.25	10.0
29.265	17.0
29.279	10.0
29.294	9.0
29.309	13.0
29.324	11.0
29.339	15.0
29.354	14.0
29.369	14.0
29.384	11.0
29.398	14.0
29.413	19.0
29.428	17.0
29.443	15.0
29.458	22.0
29.473	31.0
29.488	30.0
29.502	27.0
29.517	32.0
29.532	32.0
29.547	51.0
29.562	35.0
29.577	49.0
29.592	64.0
29.606	47.0
29.621	43.0
29.636	58.0
29.651	51.0
29.666	33.0
29.681	41.0
29.695	32.0
29.71	37.0
29.725	38.0
29.74	40.0
29.755	39.0
29.77	42.0
29.784	35.0
29.799	37.0
29.814	35.0
29.829	31.0
29.844	28.0
29.859	22.0
29.873	18.0
29.888	15.0
29.903	14.0
29.918	17.0
29.933	7.0
29.947	11.0
29.962	10.0
29.977	9.0
29.992	16.0
30.007	6.0
30.021	12.0
30.036	9.0
30.051	14.0
30.066	15.0
30.081	15.0
30.095	11.0
30.11	12.0
30.125	10.0
30.14	10.0
30.155	11.0
30.169	14.0
30.184	14.0
30.199	14.0
30.214	16.0
30.228	11.0
30.243	10.0
30.258	16.0
30.273	12.0
30.288	13.0
30.302	5.0
30.317	11.0
30.332	11.0
30.347	8.0
30.361	14.0
30.376	13.0
30.391	4.0
30.406	10.0
30.42	12.0
30.435	8.0
30.45	9.0
30.465	8.0
30.479	15.0
30.494	9.0
30.509	14.0
30.524	9.0
30.538	10.0
30.553	9.0
30.568	11.0
30.583	10.0
30.597	11.0
30.612	9.0
30.627	12.0
30.641	10.0
30.656	9.0
30.671	9.0
30.686	4.0
30.7	13.0
30.715	8.0
30.73	17.0
30.745	12.0
30.759	11.0
30.774	15.0
30.789	14.0
30.803	13.0
30.818	9.0
30.833	17.0
30.848	7.0
30.862	22.0
30.877	10.0
30.892	10.0
30.906	13.0
30.921	20.0
30.936	12.0
30.951	14.0
30.965	18.0
30.98	13.0
30.995	19.0
31.009	13.0
31.024	13.0
31.039	14.0
31.053	13.0
31.068	11.0
31.083	20.0
31.098	22.0
31.112	11.0
31.127	17.0
31.142	23.0
31.156	24.0
31.171	30.0
31.186	28.0
31.2	31.0
31.215	33.0
31.23	42.0
31.245	28.0
31.259	32.0
31.274	38.0
31.289	33.0
31.303	35.0
31.318	33.0
31.333	29.0
31.347	25.0
31.362	30.0
31.377	20.0
31.392	23.0
31.406	25.0
31.421	18.0
31.436	24.0
31.45	27.0
31.465	26.0
31.48	27.0
31.494	26.0
31.509	11.0
31.524	19.0
31.538	23.0
31.553	17.0
31.568	11.0
31.583	11.0
31.597	14.0
31.612	12.0
31.627	8.0
31.641	10.0
31.656	9.0
31.671	11.0
31.685	15.0
31.7	10.0
31.715	8.0
31.729	11.0
31.744	11.0
31.759	11.0
31.774	10.0
31.788	11.0
31.803	5.0
31.818	6.0
31.832	14.0
31.847	13.0
31.862	10.0
31.876	15.0
31.891	8.0
31.906	7.0
31.92	11.0
31.935	11.0
31.95	8.0
31.965	5.0
31.979	7.0
31.994	17.0
32.009	10.0
32.023	10.0
32.038	15.0
32.053	8.0
32.067	9.0
32.082	12.0
32.097	14.0
32.112	4.0
32.126	7.0
32.141	8.0
32.156	10.0
32.17	9.0
32.185	14.0
32.2	14.0
32.214	10.0
32.229	10.0
32.244	8.0
32.259	9.0
32.273	7.0
32.288	11.0
32.303	10.0
32.317	4.0
32.332	4.0
32.347	4.0
32.362	13.0
32.376	7.0
32.391	6.0
32.406	4.0
32.42	16.0
32.435	9.0
32.45	11.0
32.465	4.0
32.479	7.0
32.494	20.0
32.509	14.0
32.523	10.0
32.538	11.0
32.553	12.0
32.568	4.0
32.582	11.0
32.597	11.0
32.612	13.0
32.627	7.0
32.641	11.0
32.656	17.0
32.671	20.0
32.685	11.0
32.7	16.0
32.715	6.0
32.73	19.0
32.744	27.0
32.759	18.0
32.774	26.0
32.788	19.0
32.803	30.0
32.818	19.0
32.833	34.0
32.847	20.0
32.862	32.0
32.877	22.0
32.892	23.0
32.906	27.0
32.921	20.0
32.936	12.0
32.951	16.0
32.965	14.0
32.98	17.0
32.995	18.0
33.009	10.0
33.024	15.0
33.039	20.0
33.054	16.0
33.068	17.0
33.083	17.0
33.098	13.0
33.113	15.0
33.127	14.0
33.142	15.0
33.157	13.0
33.172	8.0
33.186	14.0
33.201	11.0
33.216	8.0
33.231	7.0
33.245	7.0
33.26	11.0
33.275	9.0
33.29	13.0
33.304	10.0
33.319	15.0
33.334	7.0
33.349	7.0
33.363	16.0
33.378	8.0
33.393	11.0
33.408	10.0
33.422	5.0
33.437	8.0
33.452	7.0
33.467	9.0
33.481	14.0
33.496	5.0
33.511	9.0
33.526	9.0
33.54	8.0
33.555	6.0
33.57	12.0
33.585	8.0
33.599	9.0
33.614	10.0
33.629	9.0
33.644	8.0
33.658	7.0
33.673	7.0
33.688	6.0
33.703	7.0
33.718	10.0
33.732	9.0
33.747	6.0
33.762	14.0
33.777	10.0
33.791	8.0
33.806	4.0
33.821	7.0
33.836	6.0
33.85	16.0
33.865	6.0
33.88	10.0
33.895	12.0
33.91	9.0
33.924	7.0
33.939	14.0
33.954	14.0
33.969	10.0
33.983	8.0
33.998	11.0
34.013	15.0
34.028	10.0
34.042	7.0
34.057	14.0
34.072	11.0
34.087	10.0
34.102	13.0
34.116	12.0
34.131	10.0
34.146	12.0
34.161	13.0
34.175	8.0
34.19	6.0
34.205	7.0
34.22	14.0
34.235	16.0
34.249	17.0
34.264	15.0
34.279	14.0
34.294	15.0
34.309	18.0
34.323	13.0
34.338	18.0
34.353	16.0
34.368	11.0
34.382	8.0
34.397	12.0
34.412	14.0
34.427	13.0
34.442	9.0
34.456	10.0
34.471	7.0
34.486	12.0
34.501	10.0
34.516	18.0
34.53	7.0
34.545	15.0
34.56	10.0
34.575	11.0
34.59	6.0
34.604	12.0
34.619	8.0
34.634	12.0
34.649	13.0
34.664	12.0
34.678	3.0
34.693	8.0
34.708	8.0
34.723	5.0
34.738	14.0
34.752	11.0
34.767	11.0
34.782	3.0
34.797	12.0
34.812	6.0
34.826	4.0
34.841	5.0
34.856	13.0
34.871	9.0
34.886	7.0
34.9	6.0
34.915	7.0
34.93	8.0
34.945	8.0
34.96	11.0
34.974	15.0
34.989	9.0
35.004	8.0
35.019	12.0
35.034	7.0
35.048	9.0
35.063	16.0
35.078	6.0
35.093	11.0
35.108	11.0
35.122	10.0
35.137	10.0
35.152	9.0
35.167	9.0
35.182	8.0
35.196	14.0
35.211	7.0
35.226	7.0
35.241	7.0
35.256	5.0
35.27	9.0
35.285	10.0
35.3	9.0
35.315	9.0
35.33	3.0
35.344	9.0
35.359	10.0
35.374	12.0
35.389	9.0
35.404	12.0
35.418	7.0
35.433	13.0
35.448	13.0
35.463	3.0
35.478	6.0
35.493	12.0
35.507	7.0
35.522	9.0
35.537	14.0
35.552	5.0
35.567	9.0
35.581	10.0
35.596	8.0
35.611	5.0
35.626	14.0
35.641	7.0
35.655	15.0
35.67	15.0
35.685	12.0
35.7	12.0
35.715	12.0
35.729	11.0
35.744	23.0
35.759	19.0
35.774	21.0
35.789	22.0
35.804	20.0
35.818	18.0
35.833	18.0
35.848	20.0
35.863	21.0
35.878	11.0
35.892	18.0
35.907	11.0
35.922	8.0
35.937	14.0
35.952	16.0
35.966	13.0
35.981	16.0
35.996	13.0
36.011	10.0
36.026	11.0
36.04	10.0
36.055	18.0
36.07	3.0
36.085	10.0
36.1	12.0
36.114	8.0
36.129	4.0
36.144	11.0
36.159	7.0
36.174	7.0
36.189	9.0
36.203	8.0
36.218	13.0
36.233	7.0
36.248	7.0
36.263	7.0
36.277	8.0
36.292	12.0
36.307	6.0
36.322	5.0
36.337	8.0
36.351	7.0
36.366	14.0
36.381	5.0
36.396	6.0
36.411	7.0
36.426	10.0
36.44	6.0
36.455	12.0
36.47	5.0
36.485	6.0
36.5	3.0
36.514	6.0
36.529	11.0
36.544	7.0
36.559	6.0
36.574	10.0
36.589	13.0
36.603	8.0
36.618	12.0
36.633	5.0
36.648	7.0
36.663	5.0
36.677	5.0
36.692	7.0
36.707	12.0
36.722	10.0
36.737	11.0
36.752	4.0
36.766	14.0
36.781	8.0
36.796	6.0
36.811	13.0
36.826	7.0
36.841	15.0
36.855	9.0
36.87	11.0
36.885	7.0
36.9	8.0
36.915	10.0
36.93	10.0
36.944	7.0
36.959	11.0
36.974	8.0
36.989	12.0
37.004	16.0
37.019	11.0
37.033	7.0
37.048	12.0
37.063	9.0
37.078	13.0
37.093	14.0
37.108	16.0
37.123	19.0
37.137	22.0
37.152	25.0
37.167	35.0
37.182	26.0
37.197	27.0
37.212	34.0
37.226	23.0
37.241	26.0
37.256	18.0
37.271	22.0
37.286	12.0
37.301	19.0
37.316	18.0
37.331	17.0
37.345	17.0
37.36	16.0
37.375	17.0
37.39	20.0
37.405	16.0
37.42	21.0
37.435	20.0
37.45	18.0
37.464	13.0
37.479	15.0
37.494	15.0
37.509	13.0
37.524	8.0
37.539	9.0
37.554	10.0
37.569	4.0
37.583	8.0
37.598	10.0
37.613	11.0
37.628	7.0
37.643	7.0
37.658	6.0
37.673	10.0
37.688	7.0
37.703	9.0
37.718	5.0
37.733	3.0
37.747	6.0
37.762	8.0
37.777	8.0
37.792	6.0
37.807	10.0
37.822	6.0
37.837	8.0
37.852	9.0
37.867	5.0
37.882	7.0
37.897	3.0
37.912	7.0
37.927	10.0
37.941	6.0
37.956	8.0
37.971	4.0
37.986	6.0
38.001	7.0
38.016	2.0
38.031	7.0
38.046	6.0
38.061	11.0
38.076	9.0
38.091	7.0
38.106	7.0
38.121	5.0
38.136	9.0
38.151	8.0
38.166	10.0
38.181	9.0
38.196	4.0
38.211	7.0
38.226	5.0
38.241	8.0
38.256	6.0
38.271	6.0
38.285	9.0
38.3	8.0
38.315	8.0
38.33	4.0
38.345	7.0
38.36	5.0
38.375	5.0
38.39	8.0
38.405	2.0
38.42	5.0
38.435	8.0
38.45	5.0
38.465	4.0
38.48	8.0
38.495	5.0
38.51	7.0
38.525	7.0
38.54	5.0
38.555	10.0
38.57	8.0
38.585	10.0
38.6	2.0
38.615	9.0
38.63	7.0
38.645	2.0
38.66	4.0
38.675	7.0
38.69	5.0
38.705	6.0
38.72	9.0
38.735	3.0
38.75	7.0
38.765	13.0
38.78	4.0
38.795	7.0
38.81	6.0
38.825	5.0
38.84	4.0
38.855	8.0
38.87	6.0
38.885	7.0
38.9	5.0
38.915	5.0
38.93	7.0
38.945	3.0
38.96	6.0
38.975	3.0
38.99	7.0
39.005	4.0
39.02	6.0
39.035	5.0
39.05	6.0
39.065	5.0
39.08	4.0
39.095	0.0
39.11	6.0
39.125	13.0
39.14	7.0
39.155	5.0
39.17	3.0
39.185	7.0
39.2	6.0
39.215	3.0
39.23	8.0
39.245	3.0
39.26	6.0
39.275	7.0
39.29	5.0
39.305	8.0
39.32	6.0
39.335	8.0
39.35	7.0
39.365	9.0
39.38	1.0
39.395	9.0
39.409	8.0
39.424	11.0
39.439	6.0
39.454	10.0
39.469	10.0
39.484	5.0
39.499	6.0
39.514	4.0
39.529	2.0
39.544	6.0
39.559	6.0
39.574	4.0
39.589	12.0
39.604	8.0
39.619	5.0
39.634	10.0
39.649	3.0
39.664	3.0
39.678	6.0
39.693	10.0
39.708	7.0
39.723	5.0
39.738	12.0
39.753	10.0
39.768	7.0
39.783	10.0
39.798	6.0
39.813	5.0
39.827	10.0
39.842	6.0
39.857	11.0
39.872	7.0
39.887	8.0
39.902	11.0
39.917	12.0
39.932	7.0
39.947	10.0
39.961	5.0
39.976	9.0
39.991	6.0
40.006	8.0
40.021	3.0
40.036	6.0
40.051	11.0
40.065	7.0
40.08	6.0
40.095	11.0
40.11	8.0
40.125	9.0
40.14	10.0
40.154	7.0
40.169	6.0
40.184	8.0
40.199	8.0
40.214	4.0
40.228	6.0
40.243	5.0
40.258	9.0
40.273	8.0
40.288	5.0
40.302	3.0
40.317	3.0
40.332	9.0
40.347	3.0
40.362	7.0
40.376	4.0
40.391	4.0
40.406	8.0
40.421	1.0
40.436	9.0
40.45	3.0
40.465	4.0
40.48	3.0
40.495	5.0
40.509	4.0
40.524	1.0
40.539	8.0
40.554	3.0
40.568	6.0
40.583	9.0
40.598	5.0
40.613	4.0
40.627	7.0
40.642	6.0
40.657	10.0
40.672	9.0
40.686	4.0
40.701	4.0
40.716	5.0
40.731	4.0
40.745	5.0
40.76	5.0
40.775	8.0
40.79	2.0
40.804	4.0
40.819	6.0
40.834	7.0
40.849	1.0
40.863	8.0
40.878	7.0
40.893	7.0
40.907	9.0
40.922	8.0
40.937	3.0
40.952	9.0
40.966	14.0
40.981	10.0
40.996	11.0
41.011	9.0
41.025	9.0
41.04	18.0
41.055	11.0
41.069	14.0
41.084	19.0
41.099	21.0
41.114	16.0
41.128	20.0
41.143	17.0
41.158	15.0
41.173	27.0
41.187	21.0
41.202	9.0
41.217	19.0
41.231	15.0
41.246	4.0
41.261	14.0
41.276	7.0
41.29	17.0
41.305	14.0
41.32	17.0
41.335	15.0
41.349	10.0
41.364	14.0
41.379	15.0
41.393	15.0
41.408	11.0
41.423	15.0
41.438	11.0
41.452	10.0
41.467	12.0
41.482	3.0
41.497	5.0
41.511	11.0
41.526	10.0
41.541	6.0
41.556	7.0
41.57	8.0
41.585	7.0
41.6	4.0
41.615	5.0
41.629	5.0
41.644	12.0
41.659	7.0
41.674	4.0
41.688	2.0
41.703	5.0
41.718	7.0
41.733	3.0
41.747	4.0
41.762	6.0
41.777	4.0
41.792	7.0
41.806	10.0
41.821	5.0
41.836	4.0
41.851	6.0
41.866	3.0
41.88	4.0
41.895	3.0
41.91	6.0
41.925	6.0
41.939	8.0
41.954	9.0
41.969	6.0
41.984	5.0
41.999	10.0
42.013	5.0
42.028	8.0
42.043	4.0
42.058	7.0
42.073	7.0
42.088	4.0
42.102	6.0
42.117	5.0
42.132	1.0
42.147	5.0
42.162	7.0
42.176	4.0
42.191	11.0
42.206	10.0
42.221	8.0
42.236	8.0
42.251	7.0
42.266	13.0
42.28	14.0
42.295	7.0
42.31	11.0
42.325	15.0
42.34	21.0
42.355	15.0
42.369	11.0
42.384	18.0
42.399	13.0
42.414	17.0
42.429	18.0
42.444	12.0
42.459	19.0
42.474	9.0
42.488	9.0
42.503	18.0
42.518	9.0
42.533	17.0
42.548	10.0
42.563	11.0
42.578	8.0
42.593	6.0
42.608	11.0
42.622	19.0
42.637	9.0
42.652	12.0
42.667	14.0
42.682	10.0
42.697	9.0
42.712	11.0
42.727	10.0
42.742	7.0
42.757	10.0
42.772	6.0
42.786	9.0
42.801	5.0
42.816	6.0
42.831	6.0
42.846	7.0
42.861	5.0
42.876	4.0
42.891	5.0
42.906	1.0
42.921	6.0
42.936	7.0
42.951	5.0
42.966	4.0
42.981	9.0
42.996	9.0
43.011	5.0
43.025	5.0
43.04	8.0
43.055	6.0
43.07	5.0
43.085	7.0
43.1	5.0
43.115	5.0
43.13	7.0
43.145	10.0
43.16	8.0
43.175	6.0
43.19	4.0
43.205	6.0
43.22	6.0
43.235	7.0
43.25	7.0
43.265	8.0
43.28	4.0
43.295	3.0
43.31	6.0
43.325	9.0
43.34	6.0
43.355	1.0
43.37	9.0
43.385	3.0
43.4	5.0
43.415	8.0
43.43	4.0
43.445	1.0
43.46	7.0
43.475	5.0
43.49	8.0
43.505	12.0
43.52	8.0
43.535	7.0
43.55	4.0
43.565	7.0
43.58	9.0
43.595	15.0
43.61	3.0
43.625	8.0
43.64	9.0
43.655	10.0
43.67	9.0
43.685	18.0
43.7	3.0
43.715	7.0
43.73	9.0
43.745	4.0
43.76	11.0
43.775	6.0
43.79	5.0
43.805	3.0
43.82	8.0
43.835	8.0
43.85	10.0
43.865	8.0
43.88	8.0
43.895	10.0
43.91	6.0
43.925	6.0
43.94	5.0
43.955	6.0
43.97	9.0
43.985	7.0
44.0	9.0
44.015	8.0
44.03	7.0
44.045	8.0
44.061	5.0
44.076	7.0
44.091	4.0
44.106	4.0
44.121	7.0
44.136	9.0
44.151	7.0
44.166	6.0
44.181	6.0
44.196	6.0
44.211	6.0
44.226	2.0
44.241	7.0
44.256	4.0
44.271	3.0
44.286	9.0
44.301	1.0
44.316	3.0
44.331	9.0
44.346	5.0
44.361	6.0
44.377	3.0
44.392	7.0
44.407	1.0
44.422	7.0
44.437	2.0
44.452	5.0
44.467	4.0
44.482	3.0
44.497	4.0
44.512	7.0
44.527	7.0
44.542	5.0
44.557	10.0
44.572	6.0
44.587	6.0
44.602	6.0
44.617	11.0
44.632	8.0
44.647	2.0
44.663	7.0
44.678	7.0
44.693	6.0
44.708	8.0
44.723	9.0
44.738	8.0
44.753	13.0
44.768	7.0
44.783	12.0
44.798	11.0
44.813	15.0
44.828	10.0
44.843	5.0
44.858	10.0
44.873	9.0
44.888	7.0
44.903	6.0
44.918	7.0
44.933	8.0
44.948	6.0
44.964	4.0
44.979	7.0
44.994	7.0
45.009	7.0
45.024	7.0
45.039	10.0
45.054	6.0
45.069	15.0
45.084	11.0
45.099	13.0
45.114	3.0
45.129	8.0
45.144	12.0
45.159	3.0
45.174	8.0
45.189	4.0
45.204	3.0
45.219	7.0
45.234	4.0
45.249	5.0
45.264	9.0
45.279	6.0
45.294	4.0
45.309	3.0
45.324	3.0
45.339	2.0
45.354	2.0
45.369	3.0
45.384	8.0
45.399	3.0
45.414	3.0
45.429	10.0
45.444	5.0
45.459	1.0
45.474	6.0
45.489	3.0
45.504	3.0
45.519	4.0
45.534	4.0
45.549	12.0
45.564	10.0
45.579	7.0
45.594	3.0
45.609	2.0
45.624	4.0
45.639	1.0
45.654	8.0
45.669	5.0
45.684	2.0
45.699	6.0
45.714	2.0
45.729	9.0
45.744	6.0
45.759	4.0
45.774	5.0
45.789	6.0
45.804	8.0
45.819	5.0
45.834	2.0
45.849	11.0
45.864	15.0
45.879	11.0
45.894	14.0
45.909	10.0
45.924	10.0
45.939	18.0
45.954	12.0
45.969	16.0
45.984	21.0
45.998	19.0
46.013	20.0
46.028	15.0
46.043	12.0
46.058	15.0
46.073	13.0
46.088	7.0
46.103	6.0
46.118	11.0
46.133	5.0
46.148	11.0
46.163	13.0
46.178	13.0
46.192	11.0
46.207	10.0
46.222	14.0
46.237	13.0
46.252	14.0
46.267	13.0
46.282	6.0
46.297	7.0
46.312	11.0
46.327	14.0
46.341	8.0
46.356	5.0
46.371	8.0
46.386	11.0
46.401	6.0
46.416	1.0
46.431	5.0
46.446	7.0
46.46	2.0
46.475	6.0
46.49	6.0
46.505	5.0
46.52	7.0
46.535	3.0
46.55	5.0
46.564	5.0
46.579	2.0
46.594	5.0
46.609	2.0
46.624	3.0
46.639	7.0
46.654	7.0
46.668	4.0
46.683	2.0
46.698	4.0
46.713	9.0
46.728	8.0
46.743	5.0
46.758	4.0
46.772	3.0
46.787	1.0
46.802	4.0
46.817	4.0
46.832	2.0
46.847	5.0
46.861	3.0
46.876	1.0
46.891	11.0
46.906	5.0
46.921	5.0
46.936	7.0
46.95	3.0
46.965	7.0
46.98	6.0
46.995	4.0
47.01	7.0
47.025	6.0
47.039	10.0
47.054	10.0
47.069	14.0
47.084	12.0
47.099	9.0
47.113	10.0
47.128	12.0
47.143	13.0
47.158	6.0
47.173	8.0
47.188	7.0
47.202	5.0
47.217	4.0
47.232	6.0
47.247	3.0
47.262	13.0
47.277	12.0
47.291	7.0
47.306	8.0
47.321	6.0
47.336	4.0
47.351	6.0
47.365	5.0
47.38	8.0
47.395	9.0
47.41	5.0
47.425	4.0
47.44	8.0
47.454	4.0
47.469	3.0
47.484	4.0
47.499	6.0
47.514	4.0
47.528	8.0
47.543	3.0
47.558	5.0
47.573	3.0
47.588	10.0
47.603	5.0
47.617	5.0
47.632	2.0
47.647	7.0
47.662	8.0
47.677	2.0
47.691	6.0
47.706	2.0
47.721	5.0
47.736	4.0
47.751	4.0
47.766	7.0
47.78	6.0
47.795	3.0
47.81	8.0
47.825	2.0
47.84	4.0
47.855	9.0
47.869	3.0
47.884	6.0
47.899	6.0
47.914	3.0
47.929	2.0
47.944	4.0
47.958	5.0
47.973	3.0
47.988	3.0
48.003	4.0
48.018	8.0
48.033	6.0
48.047	3.0
48.062	3.0
48.077	3.0
48.092	4.0
48.107	6.0
48.122	2.0
48.137	6.0
48.151	8.0
48.166	3.0
48.181	6.0
48.196	5.0
48.211	4.0
48.226	6.0
48.241	9.0
48.255	2.0
48.27	7.0
48.285	7.0
48.3	2.0
48.315	7.0
48.33	5.0
48.345	7.0
48.359	9.0
48.374	4.0
48.389	3.0
48.404	11.0
48.419	4.0
48.434	5.0
48.449	3.0
48.464	5.0
48.478	4.0
48.493	10.0
48.508	8.0
48.523	5.0
48.538	5.0
48.553	4.0
48.568	7.0
48.583	4.0
48.597	5.0
48.612	3.0
48.627	4.0
48.642	5.0
48.657	3.0
48.672	3.0
48.687	3.0
48.702	2.0
48.717	3.0
48.731	5.0
48.746	6.0
48.761	3.0
48.776	3.0
48.791	2.0
48.806	3.0
48.821	1.0
48.836	3.0
48.851	5.0
48.866	8.0
48.88	5.0
48.895	11.0
48.91	4.0
48.925	4.0
48.94	8.0
48.955	7.0
48.97	6.0
48.985	6.0
49.0	5.0
49.015	6.0
49.03	6.0
49.044	3.0
49.059	3.0
49.074	3.0
49.089	10.0
49.104	5.0
49.119	2.0
49.134	5.0
49.149	3.0
49.164	9.0
49.179	5.0
49.194	4.0
49.209	4.0
49.224	3.0
49.238	4.0
49.253	3.0
49.268	6.0
49.283	5.0
49.298	9.0
49.313	3.0
49.328	2.0
49.343	8.0
49.358	4.0
49.373	12.0
49.388	10.0
49.403	8.0
49.418	3.0
49.433	3.0
49.448	3.0
49.463	10.0
49.478	8.0
49.492	8.0
49.507	3.0
49.522	2.0
49.537	8.0
49.552	6.0
49.567	6.0
49.582	6.0
49.597	5.0
49.612	7.0
49.627	11.0
49.642	4.0
49.657	4.0
49.672	5.0
49.687	11.0
49.702	12.0
49.717	2.0
49.732	7.0
49.747	13.0
49.762	7.0
49.777	7.0
49.792	2.0
49.807	4.0
49.822	3.0
49.837	4.0
49.852	3.0
49.867	6.0
49.882	4.0
49.897	3.0
49.912	6.0
49.927	3.0
49.942	5.0
49.957	6.0
49.971	5.0
49.986	5.0
50.001	2.0
50.016	5.0
50.031	5.0
50.046	2.0
50.061	2.0
50.076	2.0
50.091	7.0
50.106	7.0
50.121	3.0
50.136	6.0
50.151	4.0
50.166	5.0
50.181	7.0
50.196	3.0
50.211	3.0
50.226	4.0
50.241	5.0
50.256	6.0
50.271	5.0
50.286	7.0
50.302	5.0
50.317	6.0
50.332	3.0
50.347	6.0
50.362	10.0
50.377	7.0
50.392	6.0
50.407	9.0
50.422	6.0
50.437	10.0
50.452	11.0
50.467	6.0
50.482	4.0
50.497	7.0
50.512	7.0
50.527	6.0
50.542	7.0
50.557	5.0
50.572	6.0
50.587	0.0
50.602	4.0
50.617	4.0
50.632	8.0
50.647	1.0
50.662	5.0
50.677	1.0
50.692	5.0
50.707	4.0
50.722	2.0
50.737	6.0
50.752	8.0
50.767	5.0
50.782	9.0
50.797	8.0
50.812	4.0
50.828	6.0
50.843	4.0
50.858	4.0
50.873	6.0
50.888	7.0
50.903	9.0
50.918	3.0
50.933	10.0
50.948	5.0
50.963	1.0
50.978	5.0
50.993	4.0
51.008	2.0
51.023	5.0
51.038	2.0
51.053	6.0
51.068	2.0
51.083	3.0
51.098	6.0
51.114	2.0
51.129	6.0
51.144	7.0
51.159	4.0
51.174	4.0
51.189	3.0
51.204	7.0
51.219	3.0
51.234	1.0
51.249	5.0
51.264	3.0
51.279	6.0
51.294	3.0
51.309	8.0
51.324	3.0
51.34	2.0
51.355	4.0
51.37	11.0
51.385	9.0
51.4	14.0
51.415	9.0
51.43	8.0
51.445	11.0
51.46	10.0
51.475	12.0
51.49	11.0
51.505	21.0
51.52	17.0
51.535	19.0
51.551	21.0
51.566	21.0
51.581	13.0
51.596	14.0
51.611	10.0
51.626	12.0
51.641	8.0
51.656	7.0
51.671	6.0
51.686	7.0
51.701	6.0
51.716	11.0
51.732	1.0
51.747	12.0
51.762	5.0
51.777	8.0
51.792	11.0
51.807	10.0
51.822	13.0
51.837	15.0
51.852	9.0
51.867	16.0
51.882	15.0
51.898	11.0
51.913	6.0
51.928	7.0
51.943	4.0
51.958	4.0
51.973	5.0
51.988	1.0
52.003	8.0
52.018	5.0
52.033	11.0
52.048	5.0
52.064	3.0
52.079	7.0
52.094	4.0
52.109	7.0
52.124	6.0
52.139	5.0
52.154	5.0
52.169	3.0
52.184	4.0
52.199	4.0
52.215	5.0
52.23	1.0
52.245	3.0
52.26	5.0
52.275	5.0
52.29	4.0
52.305	1.0
52.32	5.0
52.335	2.0
52.35	6.0
52.366	6.0
52.381	3.0
52.396	3.0
52.411	3.0
52.426	7.0
52.441	6.0
52.456	10.0
52.471	5.0
52.486	1.0
52.502	11.0
52.517	6.0
52.532	3.0
52.547	7.0
52.562	11.0
52.577	9.0
52.592	13.0
52.607	6.0
52.622	9.0
52.637	10.0
52.653	5.0
52.668	5.0
52.683	7.0
52.698	6.0
52.713	7.0
52.728	4.0
52.743	6.0
52.758	6.0
52.774	6.0
52.789	7.0
52.804	4.0
52.819	9.0
52.834	7.0
52.849	8.0
52.864	8.0
52.879	6.0
52.894	7.0
52.91	9.0
52.925	8.0
52.94	8.0
52.955	13.0
52.97	7.0
52.985	4.0
53.0	7.0
53.015	3.0
53.031	4.0
53.046	2.0
53.061	6.0
53.076	5.0
53.091	3.0
53.106	2.0
53.121	4.0
53.136	3.0
53.152	2.0
53.167	0.0
53.182	4.0
53.197	4.0
53.212	6.0
53.227	9.0
53.242	3.0
53.257	4.0
53.273	2.0
53.288	2.0
53.303	7.0
53.318	4.0
53.333	4.0
53.348	9.0
53.363	1.0
53.379	7.0
53.394	5.0
53.409	5.0
53.424	3.0
53.439	6.0
53.454	2.0
53.469	5.0
53.484	4.0
53.5	3.0
53.515	5.0
53.53	3.0
53.545	5.0
53.56	6.0
53.575	3.0
53.59	5.0
53.606	3.0
53.621	3.0
53.636	2.0
53.651	5.0
53.666	2.0
53.681	1.0
53.696	5.0
53.712	6.0
53.727	4.0
53.742	2.0
53.757	5.0
53.772	4.0
53.787	5.0
53.802	4.0
53.818	6.0
53.833	4.0
53.848	6.0
53.863	6.0
53.878	2.0
53.893	4.0
53.909	6.0
53.924	3.0
53.939	8.0
53.954	9.0
53.969	2.0
53.984	6.0
53.999	4.0
54.015	7.0
54.03	5.0
54.045	4.0
54.06	5.0
54.075	4.0
54.09	2.0
54.106	3.0
54.121	2.0
54.136	8.0
54.151	10.0
54.166	5.0
54.181	4.0
54.197	7.0
54.212	11.0
54.227	4.0
54.242	5.0
54.257	8.0
54.272	4.0
54.288	2.0
54.303	8.0
54.318	7.0
54.333	3.0
54.348	3.0
54.363	1.0
54.379	6.0
54.394	5.0
54.409	2.0
54.424	0.0
54.439	2.0
54.454	3.0
54.47	6.0
54.485	6.0
54.5	7.0
54.515	9.0
54.53	8.0
54.545	6.0
54.561	8.0
54.576	12.0
54.591	7.0
54.606	6.0
54.621	14.0
54.636	14.0
54.652	16.0
54.667	14.0
54.682	14.0
54.697	11.0
54.712	14.0
54.727	10.0
54.743	9.0
54.758	4.0
54.773	6.0
54.788	5.0
54.803	8.0
54.819	5.0
54.834	4.0
54.849	8.0
54.864	3.0
54.879	8.0
54.894	8.0
54.91	1.0
54.925	8.0
54.94	3.0
54.955	11.0
54.97	8.0
54.985	5.0
55.001	5.0
55.016	5.0
55.031	10.0
55.046	3.0
55.061	9.0
55.077	7.0
55.092	2.0
55.107	9.0
55.122	3.0
55.137	5.0
55.152	2.0
55.168	6.0
55.183	5.0
55.198	2.0
55.213	4.0
55.228	5.0
55.243	4.0
55.259	3.0
55.274	13.0
55.289	4.0
55.304	4.0
55.319	5.0
55.335	6.0
55.35	2.0
55.365	4.0
55.38	7.0
55.395	8.0
55.41	3.0
55.426	7.0
55.441	7.0
55.456	8.0
55.471	12.0
55.486	4.0
55.501	7.0
55.517	5.0
55.532	5.0
55.547	4.0
55.562	2.0
55.577	6.0
55.592	11.0
55.608	3.0
55.623	5.0
55.638	6.0
55.653	3.0
55.668	6.0
55.683	7.0
55.699	10.0
55.714	12.0
55.729	7.0
55.744	5.0
55.759	3.0
55.774	7.0
55.79	6.0
55.805	4.0
55.82	7.0
55.835	1.0
55.85	5.0
55.865	7.0
55.881	4.0
55.896	4.0
55.911	7.0
55.926	2.0
55.941	6.0
55.956	4.0
55.972	1.0
55.987	6.0
56.002	4.0
56.017	6.0
56.032	9.0
56.047	4.0
56.063	8.0
56.078	6.0
56.093	7.0
56.108	7.0
56.123	5.0
56.138	2.0
56.154	3.0
56.169	5.0
56.184	2.0
56.199	5.0
56.214	4.0
56.229	3.0
56.244	8.0
56.26	4.0
56.275	5.0
56.29	3.0
56.305	4.0
56.32	9.0
56.335	2.0
56.351	6.0
56.366	4.0
56.381	2.0
56.396	5.0
56.411	6.0
56.426	4.0
56.441	4.0
56.457	3.0
56.472	1.0
56.487	6.0
56.502	6.0
56.517	6.0
56.532	7.0
56.547	10.0
56.563	5.0
56.578	5.0
56.593	8.0
56.608	5.0
56.623	3.0
56.638	3.0
56.653	4.0
56.668	3.0
56.684	3.0
56.699	2.0
56.714	3.0
56.729	7.0
56.744	5.0
56.759	1.0
56.774	4.0
56.79	2.0
56.805	1.0
56.82	2.0
56.835	4.0
56.85	1.0
56.865	6.0
56.88	4.0
56.895	4.0
56.911	2.0
56.926	4.0
56.941	6.0
56.956	4.0
56.971	7.0
56.986	9.0
57.001	5.0
57.016	2.0
57.031	1.0
57.047	5.0
57.062	3.0
57.077	5.0
57.092	1.0
57.107	2.0
57.122	6.0
57.137	7.0
57.152	5.0
57.167	6.0
57.183	1.0
57.198	4.0
57.213	5.0
57.228	2.0
57.243	3.0
57.258	1.0
57.273	5.0
57.288	3.0
57.303	4.0
57.318	6.0
57.334	11.0
57.349	7.0
57.364	3.0
57.379	5.0
57.394	4.0
57.409	2.0
57.424	5.0
57.439	4.0
57.454	4.0
57.469	7.0
57.484	3.0
57.5	4.0
57.515	6.0
57.53	5.0
57.545	2.0
57.56	0.0
57.575	6.0
57.59	3.0
57.605	2.0
57.62	8.0
57.635	4.0
57.65	2.0
57.665	11.0
57.68	5.0
57.696	5.0
57.711	5.0
57.726	2.0
57.741	2.0
57.756	3.0
57.771	1.0
57.786	3.0
57.801	4.0
57.816	3.0
57.831	5.0
57.846	8.0
57.861	4.0
57.876	6.0
57.891	4.0
57.906	5.0
57.921	2.0
57.937	4.0
57.952	7.0
57.967	8.0
57.982	4.0
57.997	7.0
58.012	2.0
58.027	6.0
58.042	3.0
58.057	7.0
58.072	3.0
58.087	4.0
58.102	9.0
58.117	7.0
58.132	5.0
58.147	4.0
58.162	1.0
58.177	5.0
58.192	1.0
58.207	4.0
58.222	2.0
58.237	3.0
58.252	2.0
58.267	8.0
58.282	5.0
58.297	4.0
58.312	5.0
58.327	6.0
58.342	3.0
58.357	4.0
58.372	1.0
58.387	7.0
58.402	2.0
58.418	5.0
58.433	5.0
58.448	3.0
58.463	3.0
58.478	6.0
58.493	3.0
58.508	6.0
58.523	8.0
58.538	5.0
58.553	7.0
58.568	6.0
58.583	7.0
58.598	6.0
58.613	10.0
58.628	5.0
58.643	11.0
58.658	13.0
58.673	9.0
58.688	7.0
58.703	10.0
58.718	7.0
58.733	7.0
58.748	5.0
58.763	7.0
58.778	5.0
58.793	8.0
58.808	1.0
58.823	5.0
58.838	5.0
58.853	3.0
58.868	3.0
58.883	5.0
58.898	6.0
58.913	4.0
58.928	5.0
58.942	4.0
58.957	8.0
58.972	8.0
58.987	10.0
59.002	8.0
59.017	7.0
59.032	7.0
59.047	5.0
59.062	9.0
59.077	4.0
59.092	4.0
59.107	7.0
59.122	6.0
59.137	4.0
59.152	2.0
59.167	3.0
59.182	4.0
59.197	3.0
59.212	2.0
59.227	4.0
59.242	3.0
59.257	5.0
59.272	5.0
59.287	3.0
59.302	6.0
59.317	7.0
59.332	8.0
59.347	6.0
59.362	2.0
59.377	4.0
59.392	4.0
59.407	4.0
59.422	7.0
59.437	5.0
59.452	5.0
59.467	5.0
59.482	1.0
59.497	6.0
59.512	5.0
59.527	8.0
59.542	3.0
59.557	7.0
59.572	9.0
59.587	8.0
59.602	8.0
59.617	5.0
59.632	12.0
59.647	11.0
59.661	8.0
59.676	8.0
59.691	6.0
59.706	9.0
59.721	3.0
59.736	7.0
59.751	2.0
59.766	6.0
59.781	6.0
59.796	2.0
59.811	2.0
59.826	3.0
59.841	3.0
59.856	6.0
59.871	2.0
59.886	5.0
59.901	5.0
59.916	3.0
59.931	7.0
59.946	7.0
59.961	11.0
59.976	3.0
59.991	8.0
60.006	10.0
60.021	7.0
60.036	4.0
60.051	5.0
60.066	3.0
60.081	4.0
60.096	4.0
60.111	6.0
60.126	6.0
60.141	5.0
60.156	3.0
60.171	4.0
60.186	4.0
60.201	2.0
60.216	1.0
60.231	3.0
60.246	5.0
60.261	6.0
60.276	5.0
60.291	6.0
60.306	2.0
60.321	2.0
60.336	5.0
60.35	7.0
60.365	3.0
60.38	4.0
60.395	5.0
60.41	4.0
60.425	7.0
60.44	2.0
60.455	5.0
60.47	3.0
60.485	7.0
60.5	6.0
60.515	7.0
60.53	10.0
60.545	1.0
60.56	7.0
60.575	11.0
60.59	5.0
60.605	5.0
60.62	7.0
60.635	8.0
60.65	5.0
60.665	9.0
60.68	8.0
60.695	6.0
60.71	5.0
60.725	1.0
60.74	6.0
60.755	3.0
60.77	3.0
60.785	6.0
60.8	7.0
60.815	1.0
60.83	4.0
60.845	1.0
60.86	2.0
60.875	4.0
60.89	3.0
60.905	5.0
60.92	5.0
60.935	10.0
60.95	5.0
60.965	3.0
60.98	8.0
60.995	6.0
61.01	6.0
61.025	9.0
61.04	9.0
61.055	4.0
61.07	4.0
61.085	4.0
61.1	1.0
61.115	5.0
61.13	2.0
61.145	3.0
61.16	3.0
61.175	3.0
61.191	2.0
61.206	7.0
61.221	0.0
61.236	5.0
61.251	7.0
61.266	2.0
61.281	3.0
61.296	5.0
61.311	6.0
61.326	3.0
61.341	4.0
61.356	5.0
61.371	3.0
61.386	2.0
61.401	4.0
61.416	1.0
61.431	3.0
61.446	5.0
61.461	5.0
61.476	4.0
61.491	5.0
61.506	2.0
61.521	7.0
61.536	2.0
61.551	10.0
61.566	3.0
61.581	7.0
61.596	7.0
61.611	6.0
61.626	7.0
61.641	3.0
61.656	7.0
61.672	4.0
61.687	6.0
61.702	4.0
61.717	4.0
61.732	4.0
61.747	3.0
61.762	3.0
61.777	7.0
61.792	5.0
61.807	1.0
61.822	4.0
61.837	4.0
61.852	8.0
61.867	7.0
61.882	5.0
61.897	3.0
61.912	6.0
61.927	3.0
61.943	2.0
61.958	9.0
61.973	3.0
61.988	12.0
62.003	3.0
62.018	8.0
62.033	5.0
62.048	5.0
62.063	5.0
62.078	8.0
62.093	0.0
62.108	3.0
62.123	5.0
62.138	7.0
62.153	4.0
62.169	4.0
62.184	0.0
62.199	5.0
62.214	5.0
62.229	4.0
62.244	2.0
62.259	1.0
62.274	4.0
62.289	5.0
62.304	3.0
62.319	0.0
62.335	3.0
62.35	5.0
62.365	6.0
62.38	5.0
62.395	4.0
62.41	6.0
62.425	6.0
62.44	4.0
62.455	6.0
62.47	3.0
62.485	6.0
62.501	8.0
62.516	2.0
62.531	3.0
62.546	6.0
62.561	4.0
62.576	5.0
62.591	8.0
62.606	3.0
62.621	7.0
62.636	0.0
62.652	8.0
62.667	3.0
62.682	7.0
62.697	2.0
62.712	1.0
62.727	2.0
62.742	2.0
62.757	2.0
62.772	1.0
62.787	5.0
62.803	4.0
62.818	7.0
62.833	3.0
62.848	8.0
62.863	1.0
62.878	6.0
62.893	2.0
62.908	4.0
62.923	4.0
62.939	3.0
62.954	2.0
62.969	4.0
62.984	2.0
62.999	4.0
63.014	5.0
63.029	5.0
63.044	2.0
63.059	7.0
63.074	7.0
63.09	4.0
63.105	6.0
63.12	4.0
63.135	6.0
63.15	5.0
63.165	3.0
63.18	4.0
63.195	3.0
63.21	4.0
63.226	4.0
63.241	5.0
63.256	9.0
63.271	2.0
63.286	3.0
63.301	6.0
63.316	6.0
63.331	8.0
63.346	3.0
63.362	4.0
63.377	4.0
63.392	4.0
63.407	7.0
63.422	6.0
63.437	7.0
63.452	5.0
63.467	4.0
63.482	5.0
63.497	4.0
63.513	4.0
63.528	7.0
63.543	6.0
63.558	1.0
63.573	4.0
63.588	4.0
63.603	2.0
63.618	6.0
63.633	5.0
63.648	4.0
63.664	4.0
63.679	1.0
63.694	4.0
63.709	3.0
63.724	8.0
63.739	2.0
63.754	2.0
63.769	6.0
63.784	9.0
63.799	2.0
63.814	9.0
63.83	5.0
63.845	4.0
63.86	6.0
63.875	4.0
63.89	5.0
63.905	4.0
63.92	4.0
63.935	2.0
63.95	8.0
63.965	5.0
63.98	2.0
63.996	4.0
64.011	3.0
64.026	3.0
64.041	3.0
64.056	3.0
64.071	8.0
64.086	8.0
64.101	3.0
64.116	2.0
64.131	7.0
64.146	7.0
64.161	4.0
64.176	3.0
64.191	4.0
64.207	6.0
64.222	4.0
64.237	2.0
64.252	4.0
64.267	2.0
64.282	4.0
64.297	2.0
64.312	2.0
64.327	4.0
64.342	8.0
64.357	4.0
64.372	2.0
64.387	2.0
64.402	5.0
64.417	6.0
64.433	4.0
64.448	2.0
64.463	3.0
64.478	7.0
64.493	1.0
64.508	2.0
64.523	4.0
64.538	5.0
64.553	1.0
64.568	4.0
64.583	4.0
64.598	3.0
64.613	2.0
64.628	4.0
64.643	3.0
64.658	2.0
64.673	5.0
64.688	5.0
64.703	3.0
64.718	5.0
64.734	4.0
64.749	4.0
64.764	2.0
64.779	7.0
64.794	5.0
64.809	4.0
64.824	7.0
64.839	2.0
64.854	3.0
64.869	6.0
64.884	3.0
64.899	3.0
64.914	3.0
64.929	4.0
64.944	2.0
64.959	6.0
64.974	5.0
64.989	5.0
65.004	3.0
65.019	4.0
65.034	3.0
65.049	1.0
65.064	5.0
65.079	3.0
65.094	2.0
65.109	3.0
65.125	4.0
65.14	4.0
65.155	4.0
65.17	4.0
65.185	8.0
65.2	5.0
65.215	5.0
65.23	4.0
65.245	3.0
65.26	4.0
65.275	3.0
65.29	6.0
65.305	6.0
65.32	4.0
65.335	3.0
65.35	5.0
65.365	2.0
65.38	1.0
65.395	3.0
65.41	4.0
65.425	1.0
65.44	3.0
65.455	1.0
65.47	1.0
65.485	5.0
65.5	3.0
65.515	3.0
65.53	1.0
65.545	3.0
65.56	7.0
65.575	5.0
65.59	1.0
65.605	4.0
65.62	7.0
65.635	7.0
65.65	2.0
65.666	5.0
65.681	6.0
65.696	8.0
65.711	7.0
65.726	1.0
65.741	3.0
65.756	7.0
65.771	1.0
65.786	6.0
65.801	6.0
65.816	5.0
65.831	6.0
65.846	2.0
65.861	2.0
65.876	3.0
65.891	4.0
65.906	3.0
65.921	5.0
65.936	3.0
65.951	1.0
65.966	8.0
65.981	2.0
65.996	4.0
66.011	3.0
66.026	3.0
66.041	7.0
66.056	1.0
66.071	5.0
66.086	5.0
66.101	5.0
66.116	2.0
66.131	5.0
66.146	4.0
66.161	13.0
66.176	4.0
66.191	7.0
66.206	8.0
66.221	7.0
66.236	9.0
66.251	8.0
66.266	7.0
66.281	5.0
66.296	8.0
66.311	7.0
66.327	5.0
66.342	4.0
66.357	6.0
66.372	5.0
66.387	4.0
66.402	4.0
66.417	6.0
66.432	5.0
66.447	3.0
66.462	5.0
66.477	4.0
66.492	5.0
66.507	5.0
66.522	4.0
66.537	6.0
66.552	4.0
66.567	7.0
66.582	3.0
66.597	5.0
66.612	6.0
66.627	6.0
66.642	8.0
66.657	11.0
66.672	9.0
66.687	3.0
66.702	9.0
66.717	6.0
66.732	7.0
66.747	9.0
66.762	2.0
66.777	4.0
66.792	4.0
66.807	5.0
66.822	3.0
66.837	1.0
66.853	5.0
66.868	3.0
66.883	4.0
66.898	3.0
66.913	6.0
66.928	4.0
66.943	8.0
66.958	4.0
66.973	5.0
66.988	4.0
67.003	2.0
67.018	5.0
67.033	4.0
67.048	10.0
67.063	4.0
67.078	2.0
67.093	2.0
67.108	8.0
67.123	5.0
67.138	8.0
67.153	4.0
67.168	6.0
67.183	5.0
67.198	9.0
67.214	2.0
67.229	6.0
67.244	3.0
67.259	2.0
67.274	3.0
67.289	6.0
67.304	1.0
67.319	0.0
67.334	5.0
67.349	4.0
67.364	1.0
67.379	3.0
67.394	4.0
67.409	5.0
67.424	5.0
67.439	0.0
67.454	7.0
67.469	1.0
67.484	3.0
67.5	8.0
67.515	7.0
67.53	5.0
67.545	10.0
67.56	4.0
67.575	4.0
67.59	3.0
67.605	8.0
67.62	7.0
67.635	6.0
67.65	5.0
67.665	3.0
67.68	2.0
67.695	1.0
67.71	4.0
67.726	3.0
67.741	6.0
67.756	5.0
67.771	4.0
67.786	3.0
67.801	7.0
67.816	4.0
67.831	6.0
67.846	6.0
67.861	5.0
67.876	5.0
67.891	4.0
67.906	4.0
67.922	3.0
67.937	8.0
67.952	5.0
67.967	6.0
67.982	2.0
67.997	1.0
68.012	7.0
68.027	8.0
68.042	6.0
68.057	2.0
68.072	3.0
68.087	3.0
68.103	0.0
68.118	3.0
68.133	3.0
68.148	4.0
68.163	3.0
68.178	2.0
68.193	6.0
68.208	3.0
68.223	1.0
68.238	1.0
68.254	4.0
68.269	5.0
68.284	4.0
68.299	4.0
68.314	3.0
68.329	2.0
68.344	1.0
68.359	7.0
68.374	4.0
68.389	2.0
68.405	2.0
68.42	3.0
68.435	4.0
68.45	1.0
68.465	5.0
68.48	1.0
68.495	3.0
68.51	5.0
68.525	3.0
68.54	2.0
68.556	3.0
68.571	1.0
68.586	4.0
68.601	4.0
68.616	7.0
68.631	7.0
68.646	4.0
68.661	3.0
68.676	1.0
68.691	3.0
68.707	2.0
68.722	4.0
68.737	2.0
68.752	5.0
68.767	4.0
68.782	1.0
68.797	4.0
68.812	3.0
68.827	8.0
68.842	2.0
68.857	2.0
68.873	3.0
68.888	6.0
68.903	5.0
68.918	3.0
68.933	3.0
68.948	1.0
68.963	6.0
68.978	3.0
68.993	4.0
69.008	2.0
69.023	3.0
69.038	2.0
69.054	2.0
69.069	4.0
69.084	2.0
69.099	3.0
69.114	5.0
69.129	8.0
69.144	1.0
69.159	3.0
69.174	1.0
69.189	4.0
69.204	3.0
69.219	2.0
69.234	2.0
69.249	1.0
69.264	4.0
69.279	4.0
69.295	4.0
69.31	3.0
69.325	2.0
69.34	3.0
69.355	2.0
69.37	3.0
69.385	8.0
69.4	5.0
69.415	2.0
69.43	5.0
69.445	7.0
69.46	1.0
69.475	7.0
69.49	2.0
69.505	3.0
69.52	5.0
69.535	2.0
69.55	4.0
69.565	3.0
69.58	5.0
69.595	6.0
69.61	2.0
69.625	2.0
69.64	5.0
69.655	3.0
69.67	7.0
69.685	4.0
69.7	2.0
69.715	3.0
69.73	10.0
69.745	4.0
69.76	7.0
69.775	4.0
69.79	5.0
69.805	8.0
69.82	5.0
69.835	4.0
69.85	10.0
69.865	3.0
69.88	7.0
69.895	4.0
69.909	8.0
69.924	4.0
69.939	1.0
69.954	1.0
69.969	4.0
69.984	3.0
69.999	6.0
70.014	4.0
70.029	5.0
70.044	5.0
70.059	6.0
70.074	2.0
70.088	3.0
70.103	1.0
70.118	6.0
70.133	4.0
70.148	2.0
70.163	5.0
70.178	5.0
70.193	2.0
70.208	4.0
70.222	7.0
70.237	5.0
70.252	4.0
70.267	5.0
70.282	5.0
70.297	3.0
70.312	9.0
70.327	3.0
70.341	6.0
70.356	4.0
70.371	2.0
70.386	1.0
70.401	3.0
70.416	4.0
70.43	7.0
70.445	1.0
70.46	2.0
70.475	5.0
70.49	6.0
70.505	5.0
70.519	3.0
70.534	5.0
70.549	6.0
70.564	6.0
70.579	4.0
70.594	3.0
70.608	6.0
70.623	3.0
70.638	10.0
70.653	11.0
70.668	5.0
70.683	9.0
70.697	7.0
70.712	9.0
70.727	6.0
70.742	2.0
70.757	5.0
70.771	7.0
70.786	5.0
70.801	6.0
70.816	3.0
70.831	5.0
70.845	1.0
70.86	7.0
70.875	4.0
70.89	4.0
70.905	3.0
70.92	2.0
70.934	4.0
70.949	6.0
70.964	3.0
70.979	4.0
70.994	6.0
71.008	2.0
71.023	3.0
71.038	6.0
71.053	2.0
71.068	5.0
71.082	3.0
71.097	5.0
71.112	4.0
71.127	2.0
71.142	5.0
71.156	1.0
71.171	5.0
71.186	1.0
71.201	5.0
71.216	10.0
71.231	1.0
71.245	5.0
71.26	4.0
71.275	6.0
71.29	4.0
71.305	1.0
71.319	3.0
71.334	1.0
71.349	4.0
71.364	7.0
71.379	6.0
71.394	1.0
71.408	4.0
71.423	5.0
71.438	2.0
71.453	4.0
71.468	1.0
71.483	4.0
71.497	1.0
71.512	2.0
71.527	3.0
71.542	2.0
71.557	2.0
71.572	3.0
71.586	3.0
71.601	4.0
71.616	3.0
71.631	4.0
71.646	0.0
71.661	3.0
71.676	7.0
71.69	1.0
71.705	6.0
71.72	7.0
71.735	1.0
71.75	4.0
71.765	4.0
71.78	3.0
71.795	2.0
71.81	2.0
71.824	3.0
71.839	1.0
71.854	5.0
71.869	3.0
71.884	2.0
71.899	2.0
71.914	3.0
71.929	1.0
71.944	1.0
71.959	4.0
71.974	3.0
71.988	5.0
72.003	6.0
72.018	3.0
72.033	6.0
72.048	5.0
72.063	3.0
72.078	3.0
72.093	9.0
72.108	1.0
72.123	8.0
72.138	3.0
72.153	4.0
72.168	3.0
72.183	3.0
72.198	5.0
72.213	5.0
72.228	1.0
72.243	2.0
72.258	5.0
72.273	1.0
72.288	1.0
72.303	4.0
72.318	4.0
72.333	6.0
72.348	2.0
72.363	3.0
72.378	4.0
72.393	3.0
72.408	3.0
72.423	1.0
72.438	5.0
72.453	3.0
72.468	3.0
72.483	2.0
72.498	8.0
72.513	2.0
72.528	3.0
72.543	3.0
72.558	3.0
72.573	3.0
72.588	4.0
72.603	1.0
72.618	0.0
72.633	2.0
72.649	4.0
72.664	5.0
72.679	2.0
72.694	4.0
72.709	1.0
72.724	5.0
72.739	1.0
72.754	2.0
72.769	5.0
72.784	3.0
72.799	4.0
72.814	6.0
72.829	6.0
72.845	5.0
72.86	4.0
72.875	4.0
72.89	5.0
72.905	4.0
72.92	3.0
72.935	2.0
72.95	2.0
72.965	5.0
72.98	4.0
72.996	2.0
73.011	2.0
73.026	2.0
73.041	4.0
73.056	3.0
73.071	3.0
73.086	4.0
73.101	5.0
73.117	4.0
73.132	4.0
73.147	3.0
73.162	2.0
73.177	2.0
73.192	2.0
73.207	4.0
73.222	4.0
73.238	3.0
73.253	3.0
73.268	1.0
73.283	3.0
73.298	7.0
73.313	3.0
73.328	5.0
73.343	10.0
73.359	4.0
73.374	5.0
73.389	5.0
73.404	1.0
73.419	3.0
73.434	6.0
73.449	4.0
73.465	3.0
73.48	3.0
73.495	4.0
73.51	1.0
73.525	7.0
73.54	5.0
73.556	7.0
73.571	2.0
73.586	6.0
73.601	1.0
73.616	4.0
73.631	3.0
73.646	4.0
73.662	6.0
73.677	5.0
73.692	5.0
73.707	2.0
73.722	5.0
73.737	8.0
73.752	4.0
73.768	8.0
73.783	4.0
73.798	1.0
73.813	2.0
73.828	3.0
73.843	5.0
73.859	3.0
73.874	3.0
73.889	3.0
73.904	4.0
73.919	3.0
73.934	8.0
73.949	7.0
73.965	4.0
73.98	5.0
73.995	1.0
74.01	5.0
74.025	0.0
74.04	7.0
74.056	6.0
74.071	5.0
74.086	7.0
74.101	3.0
74.116	8.0
74.131	5.0
74.146	4.0
74.162	4.0
74.177	5.0
74.192	4.0
74.207	5.0
74.222	7.0
74.237	2.0
74.252	4.0
74.268	8.0
74.283	5.0
74.298	3.0
74.313	3.0
74.328	7.0
74.343	1.0
74.358	2.0
74.374	4.0
74.389	4.0
74.404	3.0
74.419	1.0
74.434	2.0
74.449	1.0
74.464	4.0
74.48	2.0
74.495	4.0
74.51	10.0
74.525	2.0
74.54	2.0
74.555	2.0
74.57	2.0
74.586	4.0
74.601	3.0
74.616	3.0
74.631	2.0
74.646	6.0
74.661	3.0
74.676	1.0
74.691	3.0
74.707	2.0
74.722	9.0
74.737	4.0
74.752	9.0
74.767	5.0
74.782	2.0
74.797	0.0
74.813	1.0
74.828	4.0
74.843	3.0
74.858	4.0
74.873	6.0
74.888	7.0
74.903	2.0
74.918	5.0
74.934	2.0
74.949	3.0
74.964	3.0
74.979	3.0
74.994	3.0
75.009	4.0
75.024	6.0
75.04	2.0
75.055	1.0
75.07	6.0
75.085	3.0
75.1	3.0
75.115	5.0
75.13	7.0
75.145	1.0
75.161	3.0
75.176	4.0
75.191	2.0
75.206	3.0
75.221	6.0
75.236	4.0
75.251	1.0
75.266	7.0
75.282	2.0
75.297	5.0
75.312	3.0
75.327	9.0
75.342	5.0
75.357	4.0
75.372	3.0
75.387	2.0
75.403	6.0
75.418	1.0
75.433	2.0
75.448	4.0
75.463	4.0
75.478	3.0
75.493	2.0
75.509	2.0
75.524	2.0
75.539	3.0
75.554	7.0
75.569	6.0
75.584	0.0
75.599	4.0
75.614	3.0
75.63	3.0
75.645	3.0
75.66	2.0
75.675	3.0
75.69	3.0
75.705	5.0
75.72	3.0
75.735	1.0
75.751	5.0
75.766	3.0
75.781	3.0
75.796	3.0
75.811	5.0
75.826	1.0
75.841	4.0
75.856	7.0
75.872	6.0
75.887	3.0
75.902	4.0
75.917	2.0
75.932	3.0
75.947	5.0
75.962	7.0
75.977	5.0
75.993	4.0
76.008	5.0
76.023	7.0
76.038	5.0
76.053	3.0
76.068	3.0
76.083	5.0
76.098	3.0
76.114	4.0
76.129	8.0
76.144	2.0
76.159	5.0
76.174	3.0
76.189	4.0
76.204	2.0
76.22	3.0
76.235	2.0
76.25	2.0
76.265	4.0
76.28	6.0
76.295	4.0
76.31	1.0
76.325	4.0
76.341	6.0
76.356	1.0
76.371	2.0
76.386	3.0
76.401	2.0
76.416	1.0
76.431	2.0
76.446	4.0
76.462	5.0
76.477	6.0
76.492	2.0
76.507	3.0
76.522	5.0
76.537	3.0
76.552	1.0
76.567	3.0
76.583	7.0
76.598	1.0
76.613	3.0
76.628	3.0
76.643	4.0
76.658	3.0
76.673	3.0
76.688	6.0
76.704	2.0
76.719	6.0
76.734	5.0
76.749	4.0
76.764	4.0
76.779	5.0
76.794	4.0
76.809	2.0
76.824	5.0
76.84	3.0
76.855	4.0
76.87	2.0
76.885	4.0
76.9	4.0
76.915	7.0
76.93	4.0
76.945	3.0
76.96	3.0
76.976	4.0
76.991	2.0
77.006	1.0
77.021	5.0
77.036	2.0
77.051	3.0
77.066	4.0
77.081	3.0
77.096	2.0
77.112	6.0
77.127	1.0
77.142	0.0
77.157	4.0
77.172	5.0
77.187	3.0
77.202	3.0
77.217	2.0
77.232	1.0
77.247	0.0
77.263	8.0
77.278	1.0
77.293	3.0
77.308	2.0
77.323	3.0
77.338	2.0
77.353	7.0
77.368	5.0
77.383	8.0
77.398	4.0
77.413	2.0
77.428	2.0
77.444	2.0
77.459	1.0
77.474	4.0
77.489	5.0
77.504	2.0
77.519	3.0
77.534	7.0
77.549	3.0
77.564	4.0
77.579	2.0
77.594	3.0
77.609	7.0
77.624	5.0
77.64	5.0
77.655	4.0
77.67	11.0
77.685	1.0
77.7	4.0
77.715	6.0
77.73	8.0
77.745	3.0
77.76	4.0
77.775	1.0
77.79	2.0
77.805	7.0
77.82	6.0
77.835	6.0
77.85	4.0
77.865	3.0
77.88	4.0
77.895	4.0
77.91	1.0
77.926	2.0
77.941	6.0
77.956	5.0
77.971	3.0
77.986	0.0
78.001	2.0
78.016	1.0
78.031	3.0
78.046	8.0
78.061	3.0
78.076	8.0
78.091	6.0
78.106	4.0
78.121	2.0
78.136	6.0
78.151	3.0
78.166	6.0
78.181	5.0
78.196	3.0
78.211	5.0
78.226	4.0
78.241	1.0
78.256	2.0
78.271	2.0
78.286	5.0
78.301	0.0
78.316	1.0
78.331	3.0
78.346	5.0
78.361	4.0
78.376	5.0
78.391	2.0
78.406	1.0
78.421	3.0
78.436	1.0
78.451	0.0
78.466	2.0
78.481	0.0
78.496	1.0
78.511	1.0
78.526	2.0
78.541	5.0
78.556	5.0
78.571	3.0
78.586	5.0
78.601	4.0
78.616	1.0
78.631	5.0
78.646	2.0
78.661	3.0
78.676	1.0
78.691	3.0
78.706	1.0
78.721	1.0
78.736	1.0
78.751	0.0
78.766	2.0
78.781	5.0
78.796	4.0
78.811	0.0
78.826	3.0
78.841	4.0
78.856	2.0
78.871	4.0
78.885	4.0
78.9	4.0
78.915	2.0
78.93	3.0
78.945	5.0
78.96	2.0
78.975	4.0
78.99	2.0
79.005	2.0
79.02	4.0
79.035	0.0
79.05	3.0
79.065	0.0
79.08	4.0
79.095	5.0
79.11	1.0
79.125	1.0
79.14	2.0
79.155	1.0
79.17	6.0
79.185	4.0
79.2	5.0
79.215	2.0
79.23	6.0
79.245	2.0
79.26	2.0
79.275	2.0
79.29	3.0
79.304	3.0
79.319	0.0
79.334	2.0
79.349	3.0
79.364	1.0
79.379	4.0
79.394	2.0
79.409	4.0
79.424	5.0
79.439	4.0
79.454	4.0
79.469	0.0
79.484	3.0
79.499	2.0
79.514	3.0
79.529	5.0
79.544	3.0
79.559	3.0
79.574	4.0
79.589	3.0
79.604	2.0
79.619	3.0
79.634	7.0
79.649	2.0
79.664	4.0
79.679	4.0
79.693	5.0
79.708	3.0
79.723	4.0
79.738	3.0
79.753	2.0
79.768	5.0
79.783	7.0
79.798	5.0
79.813	6.0
79.828	6.0
79.843	0.0
79.858	7.0
79.873	1.0
79.888	3.0
79.903	0.0
79.918	3.0
79.933	4.0
79.948	5.0
79.963	2.0
79.978	7.0
79.993	2.0
80.008	6.0
80.023	6.0
80.038	3.0
80.053	3.0
80.068	2.0
80.083	2.0
80.098	5.0
80.113	4.0
80.128	1.0
80.143	1.0
80.158	2.0
80.173	4.0
80.188	3.0
80.202	2.0
80.217	9.0
80.232	4.0
80.247	5.0
80.262	6.0
80.277	3.0
80.292	3.0
80.307	5.0
80.322	2.0
80.337	5.0
80.352	3.0
80.367	5.0
80.382	3.0
80.397	2.0
80.412	3.0
80.427	1.0
80.442	6.0
80.457	10.0
80.472	4.0
80.487	2.0
80.502	2.0
80.517	1.0
80.532	1.0
80.547	2.0
80.562	1.0
80.577	5.0
80.592	5.0
80.607	2.0
80.622	6.0
80.637	2.0
80.652	3.0
80.667	3.0
80.682	1.0
80.697	2.0
80.712	4.0
80.727	2.0
80.742	0.0
80.757	2.0
80.772	7.0
80.787	4.0
80.802	3.0
80.817	3.0
80.832	0.0
80.847	2.0
80.862	5.0
80.877	3.0
80.892	1.0
80.907	5.0
80.922	7.0
80.937	2.0
80.952	0.0
80.967	5.0
80.982	1.0
80.997	2.0
81.012	1.0
81.027	4.0
81.042	5.0
81.057	4.0
81.072	5.0
81.087	5.0
81.101	1.0
81.116	1.0
81.131	5.0
81.146	2.0
81.161	2.0
81.176	3.0
81.191	5.0
81.206	2.0
81.221	1.0
81.236	6.0
81.251	2.0
81.266	3.0
81.281	1.0
81.296	0.0
81.311	2.0
81.326	4.0
81.341	6.0
81.356	3.0
81.371	5.0
81.386	3.0
81.401	4.0
81.416	4.0
81.431	1.0
81.446	3.0
81.461	7.0
81.476	0.0
81.491	4.0
81.506	2.0
81.521	1.0
81.536	4.0
81.55	4.0
81.565	3.0
81.58	0.0
81.595	6.0
81.61	1.0
81.625	4.0
81.64	4.0
81.655	1.0
81.67	3.0
81.685	0.0
81.7	0.0
81.715	1.0
81.73	4.0
81.745	2.0
81.76	4.0
81.775	4.0
81.79	4.0
81.805	5.0
81.819	5.0
81.834	3.0
81.849	8.0
81.864	10.0
81.879	5.0
81.894	5.0
81.909	5.0
81.924	4.0
81.939	1.0
81.954	5.0
81.969	1.0
81.984	3.0
81.999	3.0
82.013	1.0
82.028	3.0
82.043	2.0
82.058	2.0
82.073	2.0
82.088	3.0
82.103	2.0
82.118	4.0
82.133	7.0
82.148	2.0
82.163	3.0
82.177	1.0
82.192	0.0
82.207	3.0
82.222	6.0
82.237	1.0
82.252	3.0
82.267	4.0
82.282	5.0
82.297	0.0
82.312	3.0
82.326	4.0
82.341	4.0
82.356	5.0
82.371	3.0
82.386	0.0
82.401	2.0
82.416	3.0
82.431	4.0
82.445	8.0
82.46	0.0
82.475	3.0
82.49	2.0
82.505	4.0
82.52	3.0
82.535	1.0
82.55	2.0
82.565	4.0
82.579	3.0
82.594	0.0
82.609	4.0
82.624	6.0
82.639	8.0
82.654	0.0
82.669	8.0
82.684	0.0
82.698	2.0
82.713	1.0
82.728	1.0
82.743	2.0
82.758	4.0
82.773	4.0
82.788	4.0
82.803	2.0
82.817	2.0
82.832	4.0
82.847	1.0
82.862	4.0
82.877	3.0
82.892	1.0
82.907	2.0
82.922	8.0
82.937	7.0
82.951	4.0
82.966	1.0
82.981	0.0
82.996	3.0
83.011	1.0
83.026	1.0
83.041	2.0
83.056	7.0
83.07	2.0
83.085	2.0
83.1	5.0
83.115	4.0
83.13	2.0
83.145	2.0
83.16	4.0
83.175	7.0
83.19	0.0
83.204	0.0
83.219	2.0
83.234	2.0
83.249	4.0
83.264	2.0
83.279	4.0
83.294	3.0
83.309	1.0
83.324	2.0
83.339	2.0
83.353	1.0
83.368	4.0
83.383	3.0
83.398	5.0
83.413	0.0
83.428	2.0
83.443	3.0
83.458	7.0
83.473	5.0
83.488	4.0
83.503	5.0
83.517	0.0
83.532	4.0
83.547	1.0
83.562	8.0
83.577	1.0
83.592	3.0
83.607	3.0
83.622	1.0
83.637	4.0
83.652	4.0
83.667	2.0
83.682	3.0
83.697	1.0
83.712	1.0
83.727	6.0
83.741	1.0
83.756	3.0
83.771	5.0
83.786	5.0
83.801	3.0
83.816	0.0
83.831	2.0
83.846	5.0
83.861	5.0
83.876	7.0
83.891	5.0
83.906	4.0
83.921	5.0
83.936	4.0
83.951	3.0
83.966	2.0
83.981	3.0
83.996	4.0
84.011	4.0
84.026	3.0
84.041	2.0
84.056	5.0
84.071	3.0
84.086	1.0
84.101	5.0
84.116	5.0
84.131	1.0
84.146	0.0
84.161	2.0
84.176	1.0
84.191	0.0
84.206	4.0
84.221	3.0
84.236	3.0
84.251	6.0
84.266	5.0
84.281	3.0
84.296	2.0
84.311	4.0
84.326	5.0
84.341	1.0
84.356	2.0
84.371	6.0
84.386	2.0
84.401	3.0
84.416	2.0
84.431	2.0
84.446	7.0
84.461	3.0
84.476	3.0
84.492	6.0
84.507	5.0
84.522	3.0
84.537	1.0
84.552	4.0
84.567	3.0
84.582	4.0
84.597	0.0
84.612	6.0
84.627	1.0
84.642	3.0
84.657	7.0
84.672	1.0
84.687	0.0
84.702	2.0
84.717	2.0
84.733	5.0
84.748	5.0
84.763	4.0
84.778	2.0
84.793	1.0
84.808	2.0
84.823	3.0
84.838	1.0
84.853	4.0
84.868	4.0
84.883	2.0
84.898	11.0
84.913	4.0
84.929	2.0
84.944	2.0
84.959	1.0
84.974	1.0
84.989	2.0
85.004	1.0
85.019	6.0
85.034	0.0
85.049	1.0
85.064	5.0
85.079	3.0
85.094	1.0
85.11	2.0
85.125	1.0
85.14	3.0
85.155	2.0
85.17	3.0
85.185	4.0
85.2	2.0
85.215	6.0
85.23	4.0
85.245	3.0
85.26	1.0
85.276	5.0
85.291	0.0
85.306	6.0
85.321	3.0
85.336	5.0
85.351	3.0
85.366	2.0
85.381	5.0
85.396	3.0
85.411	2.0
85.426	3.0
85.441	5.0
85.457	1.0
85.472	4.0
85.487	2.0
85.502	2.0
85.517	3.0
85.532	5.0
85.547	2.0
85.562	5.0
85.577	7.0
85.592	6.0
85.607	4.0
85.622	2.0
85.637	4.0
85.653	4.0
85.668	2.0
85.683	2.0
85.698	3.0
85.713	3.0
85.728	2.0
85.743	3.0
85.758	2.0
85.773	3.0
85.788	0.0
85.803	5.0
85.818	1.0
85.833	4.0
85.848	1.0
85.863	5.0
85.879	4.0
85.894	3.0
85.909	2.0
85.924	0.0
85.939	4.0
85.954	4.0
85.969	3.0
85.984	2.0
85.999	2.0
86.014	2.0
86.029	1.0
86.044	5.0
86.059	5.0
86.074	0.0
86.089	8.0
86.104	5.0
86.119	4.0
86.134	2.0
86.149	2.0
86.164	2.0
86.179	3.0
86.194	3.0
86.209	3.0
86.224	2.0
86.239	4.0
86.254	2.0
86.269	0.0
86.284	5.0
86.299	1.0
86.314	4.0
86.33	2.0
86.345	1.0
86.36	3.0
86.375	4.0
86.39	4.0
86.405	3.0
86.42	3.0
86.435	0.0
86.45	3.0
86.465	4.0
86.48	3.0
86.495	5.0
86.51	6.0
86.525	2.0
86.54	3.0
86.555	3.0
86.57	1.0
86.585	4.0
86.6	4.0
86.615	4.0
86.63	1.0
86.645	2.0
86.659	3.0
86.674	5.0
86.689	7.0
86.704	4.0
86.719	4.0
86.734	2.0
86.749	5.0
86.764	3.0
86.779	1.0
86.794	3.0
86.809	6.0
86.824	4.0
86.839	3.0
86.854	4.0
86.869	2.0
86.884	6.0
86.899	7.0
86.914	4.0
86.929	4.0
86.944	1.0
86.959	3.0
86.974	6.0
86.989	6.0
87.004	5.0
87.019	5.0
87.034	7.0
87.049	4.0
87.064	0.0
87.079	5.0
87.094	3.0
87.109	5.0
87.124	0.0
87.139	1.0
87.154	1.0
87.169	1.0
87.184	2.0
87.199	2.0
87.214	2.0
87.229	4.0
87.244	4.0
87.259	5.0
87.274	3.0
87.289	5.0
87.304	4.0
87.319	4.0
87.334	3.0
87.349	6.0
87.364	2.0
87.379	1.0
87.394	8.0
87.409	4.0
87.424	3.0
87.438	1.0
87.453	6.0
87.468	3.0
87.483	2.0
87.498	6.0
87.513	2.0
87.528	5.0
87.543	1.0
87.558	5.0
87.573	8.0
87.588	3.0
87.603	6.0
87.618	4.0
87.633	6.0
87.648	3.0
87.663	6.0
87.678	6.0
87.693	3.0
87.708	4.0
87.723	9.0
87.738	6.0
87.753	9.0
87.768	2.0
87.783	5.0
87.798	2.0
87.813	3.0
87.828	7.0
87.843	3.0
87.858	2.0
87.873	4.0
87.888	4.0
87.903	2.0
87.918	4.0
87.933	5.0
87.948	3.0
87.963	4.0
87.978	0.0
87.993	3.0
88.008	4.0
88.023	3.0
88.038	6.0
88.053	4.0
88.068	4.0
88.083	3.0
88.098	2.0
88.113	3.0
88.128	4.0
88.143	6.0
88.158	0.0
88.174	4.0
88.189	3.0
88.204	1.0
88.219	3.0
88.234	3.0
88.249	2.0
88.264	3.0
88.279	5.0
88.294	2.0
88.309	1.0
88.324	5.0
88.339	2.0
88.354	2.0
88.369	1.0
88.384	5.0
88.399	2.0
88.414	2.0
88.429	4.0
88.444	7.0
88.459	3.0
88.474	2.0
88.489	9.0
88.504	3.0
88.519	7.0
88.534	2.0
88.549	1.0
88.564	2.0
88.58	5.0
88.595	1.0
88.61	2.0
88.625	3.0
88.64	3.0
88.655	2.0
88.67	3.0
88.685	5.0
88.7	2.0
88.715	4.0
88.73	5.0
88.745	5.0
88.76	1.0
88.775	3.0
88.79	3.0
88.805	3.0
88.82	4.0
88.835	7.0
88.85	3.0
88.865	2.0
88.88	2.0
88.895	2.0
88.911	3.0
88.926	0.0
88.941	3.0
88.956	0.0
88.971	5.0
88.986	3.0
89.001	6.0
89.016	0.0
89.031	2.0
89.046	5.0
89.061	7.0
89.076	2.0
89.091	1.0
89.106	3.0
89.121	3.0
89.136	2.0
89.151	6.0
89.166	1.0
89.181	3.0
89.196	3.0
89.211	5.0
89.227	6.0
89.242	3.0
89.257	5.0
89.272	2.0
89.287	5.0
89.302	1.0
89.317	3.0
89.332	7.0
89.347	2.0
89.362	1.0
89.377	3.0
89.392	4.0
89.407	1.0
89.422	5.0
89.437	7.0
89.452	3.0
89.467	3.0
89.482	3.0
89.497	4.0
89.512	5.0
89.527	3.0
89.542	3.0
89.557	2.0
89.572	2.0
89.587	5.0
89.602	3.0
89.617	2.0
89.632	2.0
89.647	5.0
89.662	3.0
89.677	4.0
89.693	1.0
89.708	3.0
89.723	4.0
89.738	1.0
89.753	2.0
89.768	5.0
89.783	1.0
89.798	3.0
89.813	2.0
89.828	2.0
89.843	3.0
89.858	4.0
89.873	2.0
89.888	5.0
89.903	5.0
89.918	4.0
89.933	2.0
89.948	1.0
89.963	2.0
89.978	1.0
89.993	8.0
90.008	3.0
90.023	4.0
90.038	3.0
90.053	4.0
90.068	5.0
90.083	1.0
90.097	2.0
90.112	1.0
90.127	6.0
90.142	5.0
90.157	2.0
90.172	5.0
90.187	3.0
90.202	7.0
90.217	3.0
90.232	5.0
90.247	2.0
90.262	8.0
90.277	1.0
90.292	3.0
90.307	3.0
90.322	6.0
90.337	1.0
90.352	4.0
90.367	3.0
90.382	1.0
90.397	1.0
90.412	5.0
90.427	2.0
90.442	3.0
90.457	2.0
90.472	4.0
90.487	3.0
90.501	2.0
90.516	3.0
90.531	3.0
90.546	4.0
90.561	5.0
90.576	5.0
90.591	2.0
90.606	4.0
90.621	1.0
90.636	3.0
90.651	2.0
90.666	3.0
90.681	0.0
90.696	2.0
90.711	2.0
90.726	4.0
90.741	2.0
90.755	6.0
90.77	4.0
90.785	5.0
90.8	3.0
90.815	3.0
90.83	4.0
90.845	2.0
90.86	2.0
90.875	4.0
90.89	2.0
90.905	7.0
90.92	5.0
90.935	3.0
90.95	3.0
90.965	5.0
90.979	2.0
90.994	4.0
91.009	5.0
91.024	8.0
91.039	6.0
91.054	1.0
91.069	1.0
91.084	4.0
91.099	1.0
91.114	2.0
91.129	7.0
91.144	8.0
91.159	3.0
91.174	2.0
91.188	2.0
91.203	2.0
91.218	4.0
91.233	4.0
91.248	1.0
91.263	2.0
91.278	4.0
91.293	0.0
91.308	2.0
91.323	2.0
91.338	1.0
91.353	5.0
91.368	2.0
91.383	5.0
91.398	2.0
91.412	4.0
91.427	3.0
91.442	3.0
91.457	3.0
91.472	4.0
91.487	3.0
91.502	2.0
91.517	3.0
91.532	4.0
91.547	0.0
91.562	4.0
91.577	8.0
91.592	2.0
91.607	4.0
91.622	2.0
91.637	2.0
91.652	3.0
91.666	3.0
91.681	1.0
91.696	3.0
91.711	0.0
91.726	2.0
91.741	3.0
91.756	7.0
91.771	7.0
91.786	9.0
91.801	1.0
91.816	5.0
91.831	2.0
91.846	3.0
91.861	2.0
91.876	3.0
91.891	2.0
91.906	5.0
91.921	5.0
91.936	4.0
91.951	4.0
91.966	5.0
91.981	5.0
91.995	1.0
92.01	0.0
92.025	1.0
92.04	4.0
92.055	2.0
92.07	3.0
92.085	4.0
92.1	4.0
92.115	5.0
92.13	2.0
92.145	6.0
92.16	0.0
92.175	3.0
92.19	3.0
92.205	2.0
92.22	3.0
92.235	3.0
92.25	2.0
92.265	4.0
92.28	3.0
92.295	1.0
92.31	5.0
92.325	4.0
92.34	2.0
92.355	0.0
92.37	4.0
92.385	2.0
92.4	2.0
92.415	4.0
92.43	5.0
92.445	4.0
92.46	0.0
92.475	6.0
92.49	3.0
92.505	0.0
92.52	1.0
92.535	4.0
92.55	1.0
92.565	3.0
92.58	1.0
92.595	4.0
92.61	1.0
92.625	4.0
92.64	4.0
92.655	6.0
92.67	2.0
92.685	3.0
92.7	3.0
92.715	1.0
92.73	3.0
92.745	4.0
92.76	3.0
92.775	5.0
92.79	5.0
92.805	1.0
92.82	2.0
92.835	4.0
92.85	2.0
92.865	6.0
92.88	1.0
92.895	5.0
92.91	3.0
92.925	4.0
92.94	3.0
92.955	2.0
92.97	4.0
92.985	5.0
93.0	4.0
93.015	4.0
93.03	1.0
93.045	2.0
93.06	6.0
93.075	3.0
93.09	3.0
93.105	2.0
93.12	1.0
93.135	1.0
93.15	2.0
93.165	3.0
93.18	3.0
93.195	3.0
93.21	1.0
93.225	6.0
93.24	4.0
93.255	1.0
93.27	4.0
93.285	4.0
93.3	2.0
93.315	3.0
93.33	3.0
93.345	3.0
93.36	2.0
93.375	9.0
93.39	3.0
93.405	6.0
93.42	3.0
93.435	2.0
93.45	3.0
93.465	4.0
93.48	3.0
93.495	4.0
93.51	1.0
93.525	7.0
93.54	3.0
93.555	2.0
93.57	7.0
93.585	6.0
93.6	4.0
93.615	2.0
93.63	3.0
93.645	4.0
93.66	3.0
93.675	0.0
93.69	6.0
93.705	1.0
93.72	3.0
93.735	1.0
93.75	6.0
93.765	2.0
93.78	1.0
93.795	6.0
93.81	3.0
93.824	3.0
93.839	3.0
93.854	3.0
93.869	1.0
93.884	1.0
93.899	5.0
93.914	7.0
93.929	2.0
93.944	2.0
93.959	3.0
93.974	0.0
93.989	3.0
94.004	3.0
94.019	6.0
94.034	5.0
94.049	2.0
94.064	1.0
94.079	5.0
94.094	4.0
94.108	1.0
94.123	1.0
94.138	5.0
94.153	2.0
94.168	3.0
94.183	1.0
94.198	3.0
94.213	3.0
94.228	3.0
94.243	4.0
94.258	5.0
94.273	9.0
94.288	5.0
94.302	3.0
94.317	2.0
94.332	5.0
94.347	6.0
94.362	3.0
94.377	3.0
94.392	3.0
94.407	5.0
94.422	5.0
94.437	3.0
94.452	6.0
94.466	4.0
94.481	2.0
94.496	1.0
94.511	6.0
94.526	3.0
94.541	7.0
94.556	5.0
94.571	5.0
94.586	6.0
94.601	7.0
94.615	2.0
94.63	3.0
94.645	2.0
94.66	2.0
94.675	1.0
94.69	0.0
94.705	1.0
94.72	4.0
94.735	3.0
94.749	4.0
94.764	0.0
94.779	1.0
94.794	2.0
94.809	6.0
94.824	2.0
94.839	5.0
94.854	1.0
94.868	1.0
94.883	4.0
94.898	4.0
94.913	3.0
94.928	7.0
94.943	4.0
94.958	3.0
94.973	0.0
94.987	3.0
95.002	4.0
95.017	3.0
95.032	4.0
95.047	1.0
95.062	2.0
95.077	4.0
95.092	1.0
95.106	4.0
95.121	3.0
95.136	3.0
95.151	2.0
95.166	4.0
95.181	5.0
95.196	5.0
95.211	4.0
95.226	9.0
95.24	2.0
95.255	3.0
95.27	2.0
95.285	5.0
95.3	2.0
95.315	4.0
95.33	4.0
95.345	1.0
95.359	3.0
95.374	2.0
95.389	4.0
95.404	4.0
95.419	2.0
95.434	3.0
95.449	1.0
95.464	2.0
95.478	2.0
95.493	5.0
95.508	5.0
95.523	3.0
95.538	3.0
95.553	6.0
95.568	0.0
95.583	1.0
95.597	1.0
95.612	5.0
95.627	1.0
95.642	4.0
95.657	2.0
95.672	2.0
95.687	3.0
95.702	3.0
95.717	5.0
95.731	3.0
95.746	2.0
95.761	8.0
95.776	3.0
95.791	7.0
95.806	9.0
95.821	3.0
95.836	1.0
95.851	2.0
95.866	2.0
95.88	5.0
95.895	1.0
95.91	1.0
95.925	8.0
95.94	3.0
95.955	5.0
95.97	5.0
95.985	2.0
96.0	3.0
96.015	5.0
96.029	3.0
96.044	4.0
96.059	2.0
96.074	4.0
96.089	4.0
96.104	3.0
96.119	6.0
96.134	6.0
96.149	5.0
96.164	4.0
96.179	1.0
96.194	7.0
96.208	3.0
96.223	8.0
96.238	6.0
96.253	5.0
96.268	2.0
96.283	3.0
96.298	3.0
96.313	4.0
96.328	3.0
96.343	1.0
96.358	2.0
96.373	4.0
96.388	2.0
96.403	0.0
96.417	1.0
96.432	2.0
96.447	2.0
96.462	3.0
96.477	6.0
96.492	6.0
96.507	4.0
96.522	3.0
96.537	4.0
96.552	3.0
96.567	3.0
96.582	4.0
96.597	4.0
96.612	3.0
96.627	5.0
96.642	2.0
96.656	7.0
96.671	2.0
96.686	1.0
96.701	3.0
96.716	1.0
96.731	2.0
96.746	7.0
96.761	3.0
96.776	4.0
96.791	2.0
96.806	6.0
96.821	4.0
96.836	6.0
96.851	5.0
96.866	1.0
96.881	6.0
96.896	2.0
96.911	4.0
96.926	8.0
96.94	5.0
96.955	4.0
96.97	4.0
96.985	3.0
97.0	3.0
97.015	5.0
97.03	6.0
97.045	2.0
97.06	6.0
97.075	6.0
97.09	2.0
97.105	2.0
97.12	3.0
97.135	3.0
97.15	4.0
97.165	2.0
97.18	4.0
97.195	4.0
97.21	2.0
97.225	2.0
97.239	1.0
97.254	2.0
97.269	1.0
97.284	4.0
97.299	4.0
97.314	4.0
97.329	4.0
97.344	7.0
97.359	4.0
97.374	1.0
97.389	2.0
97.404	5.0
97.419	3.0
97.434	7.0
97.449	4.0
97.464	1.0
97.479	1.0
97.494	2.0
97.509	2.0
97.524	2.0
97.538	3.0
97.553	1.0
97.568	4.0
97.583	2.0
97.598	3.0
97.613	3.0
97.628	3.0
97.643	3.0
97.658	2.0
97.673	2.0
97.688	2.0
97.703	4.0
97.718	3.0
97.733	4.0
97.748	4.0
97.763	6.0
97.778	1.0
97.792	2.0
97.807	4.0
97.822	1.0
97.837	6.0
97.852	1.0
97.867	4.0
97.882	3.0
97.897	5.0
97.912	2.0
97.927	1.0
97.942	4.0
97.957	2.0
97.972	6.0
97.987	7.0
98.001	0.0
98.016	5.0
98.031	5.0
98.046	3.0
98.061	5.0
98.076	0.0
98.091	1.0
98.106	5.0
98.121	2.0
98.136	3.0
98.151	3.0
98.166	5.0
98.181	2.0
98.195	3.0
98.21	3.0
98.225	3.0
98.24	5.0
98.255	2.0
98.27	6.0
98.285	3.0
98.3	1.0
98.315	2.0
98.33	2.0
98.345	1.0
98.359	2.0
98.374	5.0
98.389	5.0
98.404	3.0
98.419	2.0
98.434	3.0
98.449	3.0
98.464	3.0
98.479	3.0
98.494	2.0
98.508	3.0
98.523	7.0
98.538	2.0
98.553	5.0
98.568	0.0
98.583	4.0
98.598	4.0
98.613	3.0
98.628	5.0
98.642	3.0
98.657	2.0
98.672	4.0
98.687	4.0
98.702	1.0
98.717	2.0
98.732	5.0
98.747	3.0
98.762	1.0
98.776	3.0
98.791	3.0
98.806	1.0
98.821	3.0
98.836	4.0
98.851	7.0
98.866	2.0
98.881	0.0
98.896	2.0
98.91	1.0
98.925	2.0
98.94	4.0
98.955	1.0
98.97	5.0
98.985	2.0
99.0	3.0
99.015	2.0
99.029	4.0
99.044	3.0
99.059	4.0
99.074	2.0
99.089	3.0
99.104	5.0
99.119	2.0
99.133	4.0
99.148	2.0
99.163	1.0
99.178	7.0
99.193	2.0
99.208	2.0
99.223	2.0
99.238	1.0
99.252	0.0
99.267	4.0
99.282	6.0
99.297	3.0
99.312	7.0
99.327	1.0
99.342	1.0
99.356	7.0
99.371	3.0
99.386	1.0
99.401	3.0
99.416	1.0
99.431	2.0
99.446	4.0
99.461	7.0
99.475	3.0
99.49	2.0
99.505	5.0
99.52	3.0
99.535	3.0
99.55	2.0
99.565	2.0
99.579	2.0
99.594	3.0
99.609	4.0
99.624	2.0
99.639	4.0
99.654	2.0
99.669	4.0
99.683	3.0
99.698	2.0
99.713	0.0
99.728	4.0
99.743	1.0
99.758	2.0
99.772	2.0
99.787	3.0
99.802	2.0
99.817	3.0
99.832	2.0
99.847	9.0
99.862	4.0
99.876	3.0
99.891	4.0
99.906	1.0
99.921	5.0
99.936	5.0
99.951	3.0
99.966	6.0
99.98	6.0
99.995	4.0
100.01	2.0
100.025	2.0
100.04	3.0
100.055	0.0
100.069	4.0
100.084	3.0
100.099	3.0
100.114	1.0
100.129	2.0
100.144	2.0
100.159	0.0
100.173	0.0
100.188	3.0
100.203	2.0
100.218	1.0
100.233	3.0
100.248	4.0
100.262	5.0
100.277	9.0
100.292	2.0
100.307	5.0
100.322	2.0
100.337	1.0
100.351	6.0
100.366	1.0
100.381	5.0
100.396	8.0
100.411	2.0
100.426	4.0
100.441	3.0
100.455	9.0
100.47	5.0
100.485	2.0
100.5	6.0
100.515	4.0
100.53	2.0
100.544	3.0
100.559	3.0
100.574	4.0
100.589	6.0
100.604	7.0
100.619	2.0
100.633	2.0
100.648	0.0
100.663	3.0
100.678	1.0
100.693	2.0
100.708	5.0
100.722	0.0
100.737	1.0
100.752	1.0
100.767	2.0
100.782	2.0
100.796	2.0
100.811	4.0
100.826	4.0
100.841	5.0
100.856	3.0
100.871	3.0
100.885	4.0
100.9	3.0
100.915	2.0
100.93	5.0
100.945	4.0
100.96	6.0
100.974	1.0
100.989	0.0
101.004	3.0
101.019	6.0
101.034	3.0
101.048	5.0
101.063	4.0
101.078	4.0
101.093	1.0
101.108	3.0
101.123	6.0
101.137	2.0
101.152	4.0
101.167	7.0
101.182	4.0
101.197	6.0
101.211	7.0
101.226	2.0
101.241	3.0
101.256	6.0
101.271	3.0
101.285	4.0
101.3	3.0
101.315	8.0
101.33	4.0
101.345	1.0
101.359	1.0
101.374	2.0
101.389	1.0
101.404	5.0
101.419	2.0
101.433	5.0
101.448	4.0
101.463	3.0
101.478	2.0
101.493	0.0
101.507	2.0
101.522	4.0
101.537	7.0
101.552	3.0
101.567	5.0
101.581	4.0
101.596	5.0
101.611	2.0
101.626	4.0
101.64	2.0
101.655	2.0
101.67	1.0
101.685	2.0
101.7	2.0
101.714	0.0
101.729	1.0
101.744	4.0
101.759	4.0
101.773	6.0
101.788	3.0
101.803	4.0
101.818	1.0
101.833	8.0
101.847	7.0
101.862	3.0
101.877	1.0
101.892	6.0
101.906	1.0
101.921	5.0
101.936	5.0
101.951	4.0
101.965	0.0
101.98	7.0
101.995	2.0
102.01	4.0
102.025	4.0
102.039	3.0
102.054	5.0
102.069	4.0
102.084	4.0
102.098	5.0
102.113	2.0
102.128	5.0
102.143	4.0
102.157	1.0
102.172	2.0
102.187	4.0
102.202	6.0
102.216	4.0
102.231	3.0
102.246	2.0
102.261	6.0
102.275	4.0
102.29	6.0
102.305	3.0
102.32	2.0
102.334	2.0
102.349	3.0
102.364	4.0
102.378	4.0
102.393	4.0
102.408	2.0
102.423	7.0
102.437	2.0
102.452	1.0
102.467	1.0
102.482	2.0
102.496	3.0
102.511	2.0
102.526	4.0
102.541	1.0
102.555	1.0
102.57	3.0
102.585	1.0
102.6	3.0
102.614	3.0
102.629	5.0
102.644	4.0
102.659	1.0
102.673	4.0
102.688	2.0
102.703	6.0
102.717	2.0
102.732	1.0
102.747	4.0
102.762	3.0
102.776	4.0
102.791	3.0
102.806	4.0
102.821	6.0
102.835	4.0
102.85	3.0
102.865	6.0
102.88	7.0
102.894	3.0
102.909	3.0
102.924	2.0
102.938	10.0
102.953	4.0
102.968	6.0
102.983	3.0
102.997	4.0
103.012	2.0
103.027	1.0
103.042	7.0
103.056	4.0
103.071	2.0
103.086	6.0
103.101	3.0
103.115	3.0
103.13	2.0
103.145	3.0
103.16	5.0
103.174	3.0
103.189	4.0
103.204	1.0
103.219	0.0
103.233	2.0
103.248	2.0
103.263	2.0
103.278	3.0
103.292	0.0
103.307	3.0
103.322	0.0
103.337	4.0
103.351	2.0
103.366	3.0
103.381	2.0
103.396	3.0
103.41	4.0
103.425	1.0
103.44	2.0
103.455	1.0
103.469	3.0
103.484	0.0
103.499	2.0
103.514	2.0
103.529	3.0
103.543	5.0
103.558	6.0
103.573	2.0
103.588	4.0
103.602	3.0
103.617	2.0
103.632	4.0
103.647	5.0
103.661	3.0
103.676	2.0
103.691	3.0
103.706	2.0
103.721	5.0
103.735	1.0
103.75	5.0
103.765	8.0
103.78	3.0
103.795	2.0
103.809	3.0
103.824	1.0
103.839	2.0
103.854	4.0
103.869	4.0
103.883	2.0
103.898	4.0
103.913	2.0
103.928	6.0
103.943	2.0
103.957	2.0
103.972	4.0
103.987	1.0
104.002	5.0
104.017	5.0
104.031	0.0
104.046	2.0
104.061	3.0
104.076	3.0
104.091	5.0
104.106	4.0
104.12	8.0
104.135	0.0
104.15	0.0
104.165	1.0
104.18	1.0
104.195	2.0
104.209	2.0
104.224	3.0
104.239	5.0
104.254	3.0
104.269	2.0
104.284	2.0
104.299	4.0
104.313	4.0
104.328	4.0
104.343	7.0
104.358	1.0
104.373	2.0
104.388	1.0
104.403	5.0
104.417	4.0
104.432	3.0
104.447	5.0
104.462	2.0
104.477	5.0
104.492	3.0
104.507	3.0
104.522	3.0
104.536	3.0
104.551	5.0
104.566	7.0
104.581	6.0
104.596	3.0
104.611	4.0
104.626	7.0
104.641	3.0
104.656	5.0
104.67	1.0
104.685	3.0
104.7	2.0
104.715	2.0
104.73	3.0
104.745	4.0
104.76	7.0
104.775	6.0
104.79	2.0
104.804	1.0
104.819	5.0
104.834	6.0
104.849	3.0
104.864	4.0
104.879	1.0
104.894	3.0
104.909	4.0
104.924	3.0
104.939	4.0
104.954	0.0
104.968	5.0
104.983	1.0
104.998	1.0
105.013	3.0
105.028	4.0
105.043	2.0
105.058	3.0
105.073	2.0
105.088	3.0
105.103	4.0
105.118	3.0
105.133	4.0
105.147	3.0
105.162	5.0
105.177	4.0
105.192	5.0
105.207	4.0
105.222	1.0
105.237	4.0
105.252	3.0
105.267	4.0
105.282	5.0
105.297	2.0
105.312	2.0
105.327	2.0
105.342	3.0
105.356	3.0
105.371	1.0
105.386	1.0
105.401	1.0
105.416	3.0
105.431	2.0
105.446	2.0
105.461	2.0
105.476	4.0
105.491	6.0
105.506	3.0
105.521	2.0
105.536	4.0
105.551	6.0
105.566	5.0
105.581	2.0
105.595	3.0
105.61	1.0
105.625	4.0
105.64	3.0
105.655	1.0
105.67	1.0
105.685	1.0
105.7	6.0
105.715	4.0
105.73	3.0
105.745	1.0
105.76	1.0
105.775	1.0
105.79	3.0
105.805	3.0
105.82	4.0
105.835	0.0
105.85	1.0
105.864	2.0
105.879	1.0
105.894	2.0
105.909	4.0
105.924	3.0
105.939	3.0
105.954	1.0
105.969	4.0
105.984	2.0
105.999	4.0
106.014	2.0
106.029	3.0
106.044	4.0
106.059	2.0
106.074	3.0
106.089	3.0
106.104	2.0
106.119	2.0
106.134	2.0
106.148	3.0
106.163	2.0
106.178	2.0
106.193	3.0
106.208	2.0
106.223	1.0
106.238	4.0
106.253	3.0
106.268	4.0
106.283	2.0
106.298	5.0
106.313	3.0
106.328	5.0
106.343	3.0
106.358	2.0
106.373	5.0
106.388	1.0
106.403	3.0
106.418	4.0
106.432	2.0
106.447	4.0
106.462	5.0
106.477	2.0
106.492	6.0
106.507	2.0
106.522	3.0
106.537	3.0
106.552	3.0
106.567	4.0
106.582	4.0
106.597	1.0
106.612	0.0
106.627	5.0
106.642	2.0
106.657	1.0
106.672	2.0
106.687	5.0
106.701	3.0
106.716	2.0
106.731	5.0
106.746	6.0
106.761	4.0
106.776	2.0
106.791	2.0
106.806	2.0
106.821	2.0
106.836	4.0
106.851	2.0
106.866	2.0
106.881	4.0
106.896	2.0
106.911	0.0
106.926	3.0
106.941	5.0
106.955	4.0
106.97	3.0
106.985	3.0
107.0	1.0
107.015	3.0
107.03	3.0
107.045	5.0
107.06	3.0
107.075	0.0
107.09	6.0
107.105	1.0
107.12	1.0
107.135	3.0
107.15	6.0
107.165	5.0
107.18	0.0
107.194	6.0
107.209	7.0
107.224	7.0
107.239	2.0
107.254	3.0
107.269	3.0
107.284	5.0
107.299	3.0
107.314	5.0
107.329	5.0
107.344	1.0
107.359	4.0
107.374	4.0
107.389	1.0
107.404	2.0
107.418	2.0
107.433	5.0
107.448	4.0
107.463	5.0
107.478	2.0
107.493	4.0
107.508	5.0
107.523	4.0
107.538	1.0
107.553	3.0
107.568	0.0
107.583	3.0
107.598	4.0
107.613	2.0
107.627	2.0
107.642	3.0
107.657	2.0
107.672	8.0
107.687	2.0
107.702	4.0
107.717	4.0
107.732	1.0
107.747	3.0
107.762	4.0
107.777	2.0
107.792	4.0
107.807	5.0
107.821	1.0
107.836	2.0
107.851	5.0
107.866	3.0
107.881	2.0
107.896	3.0
107.911	4.0
107.926	3.0
107.941	6.0
107.956	5.0
107.971	1.0
107.986	6.0
108.0	7.0
108.015	0.0
108.03	3.0
108.045	5.0
108.06	6.0
108.075	2.0
108.09	7.0
108.105	7.0
108.12	4.0
108.135	3.0
108.15	5.0
108.164	3.0
108.179	4.0
108.194	5.0
108.209	6.0
108.224	5.0
108.239	2.0
108.254	1.0
108.269	4.0
108.284	4.0
108.299	6.0
108.313	3.0
108.328	4.0
108.343	4.0
108.358	3.0
108.373	2.0
108.388	2.0
108.403	4.0
108.418	2.0
108.433	2.0
108.448	2.0
108.462	4.0
108.477	3.0
108.492	4.0
108.507	4.0
108.522	1.0
108.537	3.0
108.552	0.0
108.567	2.0
108.582	7.0
108.597	4.0
108.611	3.0
108.626	4.0
108.641	0.0
108.656	1.0
108.671	0.0
108.686	2.0
108.701	3.0
108.716	7.0
108.731	3.0
108.745	2.0
108.76	1.0
108.775	4.0
108.79	3.0
108.805	5.0
108.82	2.0
108.835	0.0
108.85	9.0
108.865	1.0
108.879	1.0
108.894	5.0
108.909	2.0
108.924	3.0
108.939	5.0
108.954	5.0
108.969	3.0
108.984	5.0
108.999	3.0
109.013	7.0
109.028	4.0
109.043	3.0
109.058	3.0
109.073	3.0
109.088	4.0
109.103	4.0
109.118	3.0
109.133	3.0
109.147	4.0
109.162	0.0
109.177	0.0
109.192	2.0
109.207	4.0
109.222	2.0
109.237	3.0
109.252	3.0
109.267	3.0
109.281	5.0
109.296	2.0
109.311	5.0
109.326	4.0
109.341	3.0
109.356	3.0
109.371	2.0
109.386	4.0
109.4	5.0
109.415	4.0
109.43	5.0
109.445	1.0
109.46	1.0
109.475	3.0
109.49	3.0
109.505	4.0
109.52	2.0
109.534	7.0
109.549	3.0
109.564	5.0
109.579	5.0
109.594	2.0
109.609	2.0
109.624	4.0
109.639	3.0
109.653	4.0
109.668	4.0
109.683	2.0
109.698	2.0
109.713	3.0
109.728	3.0
109.743	3.0
109.758	4.0
109.773	3.0
109.787	6.0
109.802	1.0
109.817	3.0
109.832	5.0
109.847	2.0
109.862	5.0
109.877	5.0
109.892	3.0
109.907	4.0
109.921	3.0
109.936	0.0
109.951	1.0
109.966	4.0
109.981	4.0
109.996	1.0
110.011	8.0
110.026	1.0
110.04	5.0
110.055	2.0
110.07	1.0
110.085	3.0
110.1	3.0
110.115	0.0
110.13	5.0
110.145	2.0
110.16	4.0
110.174	6.0
110.189	1.0
110.204	1.0
110.219	4.0
110.234	4.0
110.249	8.0
110.264	3.0
110.279	2.0
110.294	4.0
110.308	2.0
110.323	4.0
110.338	2.0
110.353	0.0
110.368	2.0
110.383	1.0
110.398	6.0
110.413	3.0
110.428	6.0
110.442	3.0
110.457	1.0
110.472	2.0
110.487	1.0
110.502	2.0
110.517	1.0
110.532	2.0
110.547	1.0
110.561	2.0
110.576	1.0
110.591	5.0
110.606	5.0
110.621	3.0
110.636	7.0
110.651	9.0
110.666	2.0
110.681	3.0
110.695	2.0
110.71	1.0
110.725	4.0
110.74	7.0
110.755	3.0
110.77	1.0
110.785	4.0
110.8	4.0
110.815	5.0
110.829	2.0
110.844	0.0
110.859	5.0
110.874	5.0
110.889	6.0
110.904	0.0
110.919	2.0
110.934	2.0
110.948	2.0
110.963	4.0
110.978	3.0
110.993	3.0
111.008	3.0
111.023	6.0
111.038	1.0
111.053	5.0
111.067	0.0
111.082	1.0
111.097	2.0
111.112	1.0
111.127	2.0
111.142	1.0
111.157	1.0
111.172	3.0
111.186	3.0
111.201	4.0
111.216	2.0
111.231	2.0
111.246	5.0
111.261	2.0
111.276	3.0
111.291	4.0
111.305	4.0
111.32	3.0
111.335	6.0
111.35	5.0
111.365	3.0
111.38	3.0
111.395	6.0
111.41	4.0
111.424	6.0
111.439	3.0
111.454	4.0
111.469	3.0
111.484	4.0
111.499	5.0
111.514	3.0
111.528	4.0
111.543	6.0
111.558	5.0
111.573	8.0
111.588	0.0
111.603	5.0
111.618	7.0
111.633	3.0
111.647	2.0
111.662	3.0
111.677	1.0
111.692	8.0
111.707	2.0
111.722	3.0
111.737	7.0
111.751	2.0
111.766	5.0
111.781	3.0
111.796	4.0
111.811	2.0
111.826	3.0
111.84	7.0
111.855	5.0
111.87	4.0
111.885	1.0
111.9	3.0
111.915	8.0
111.93	2.0
111.944	1.0
111.959	4.0
111.974	5.0
111.989	2.0
112.004	2.0
112.019	2.0
112.033	9.0
112.048	5.0
112.063	3.0
112.078	1.0
112.093	2.0
112.108	3.0
112.123	9.0
112.137	3.0
112.152	5.0
112.167	3.0
112.182	3.0
112.197	3.0
112.212	0.0
112.226	4.0
112.241	4.0
112.256	4.0
112.271	2.0
112.286	5.0
112.301	7.0
112.315	3.0
112.33	2.0
112.345	5.0
112.36	3.0
112.375	3.0
112.389	4.0
112.404	2.0
112.419	4.0
112.434	8.0
112.449	7.0
112.464	5.0
112.478	4.0
112.493	1.0
112.508	5.0
112.523	6.0
112.538	5.0
112.553	5.0
112.567	5.0
112.582	5.0
112.597	5.0
112.612	2.0
112.627	3.0
112.642	4.0
112.656	3.0
112.671	2.0
112.686	5.0
112.701	2.0
112.716	6.0
112.73	2.0
112.745	4.0
112.76	3.0
112.775	3.0
112.79	3.0
112.805	4.0
112.819	5.0
112.834	7.0
112.849	2.0
112.864	4.0
112.879	3.0
112.894	2.0
112.908	6.0
112.923	4.0
112.938	3.0
112.953	3.0
112.968	2.0
112.983	2.0
112.997	6.0
113.012	0.0
113.027	1.0
113.042	1.0
113.057	2.0
113.072	3.0
113.086	3.0
113.101	1.0
113.116	6.0
113.131	4.0
113.146	2.0
113.161	3.0
113.175	2.0
113.19	5.0
113.205	2.0
113.22	4.0
113.235	1.0
113.25	5.0
113.265	5.0
113.279	1.0
113.294	3.0
113.309	3.0
113.324	2.0
113.339	2.0
113.354	4.0
113.368	3.0
113.383	4.0
113.398	3.0
113.413	6.0
113.428	1.0
113.443	5.0
113.458	3.0
113.472	3.0
113.487	2.0
113.502	8.0
113.517	2.0
113.532	1.0
113.547	0.0
113.562	6.0
113.576	9.0
113.591	3.0
113.606	3.0
113.621	4.0
113.636	1.0
113.651	8.0
113.666	1.0
113.681	2.0
113.695	3.0
113.71	3.0
113.725	3.0
113.74	3.0
113.755	6.0
113.77	3.0
113.785	3.0
113.8	3.0
113.814	3.0
113.829	1.0
113.844	4.0
113.859	2.0
113.874	3.0
113.889	1.0
113.904	5.0
113.919	1.0
113.934	2.0
113.949	4.0
113.963	2.0
113.978	1.0
113.993	4.0
114.008	1.0
114.023	4.0
114.038	5.0
114.053	3.0
114.068	2.0
114.083	0.0
114.098	1.0
114.113	2.0
114.127	4.0
114.142	3.0
114.157	4.0
114.172	1.0
114.187	0.0
114.202	1.0
114.217	2.0
114.232	1.0
114.247	4.0
114.262	6.0
114.277	5.0
114.292	2.0
114.307	2.0
114.322	2.0
114.337	6.0
114.351	2.0
114.366	3.0
114.381	3.0
114.396	4.0
114.411	2.0
114.426	4.0
114.441	3.0
114.456	3.0
114.471	4.0
114.486	3.0
114.501	2.0
114.516	2.0
114.531	3.0
114.546	6.0
114.561	4.0
114.576	2.0
114.591	7.0
114.606	1.0
114.621	2.0
114.636	7.0
114.65	3.0
114.665	4.0
114.68	3.0
114.695	2.0
114.71	5.0
114.725	2.0
114.74	3.0
114.755	3.0
114.77	5.0
114.785	4.0
114.8	4.0
114.815	2.0
114.83	3.0
114.845	4.0
114.86	3.0
114.875	1.0
114.89	3.0
114.905	2.0
114.92	1.0
114.935	1.0
114.95	5.0
114.965	1.0
114.98	4.0
114.995	5.0
115.009	3.0
115.024	5.0
115.039	6.0
115.054	7.0
115.069	2.0
115.084	6.0
115.099	3.0
115.114	8.0
115.129	4.0
115.144	7.0
115.159	6.0
115.174	2.0
115.189	3.0
115.204	6.0
115.219	5.0
115.234	7.0
115.249	3.0
115.264	5.0
115.279	2.0
115.294	6.0
115.309	5.0
115.323	5.0
115.338	3.0
115.353	5.0
115.368	6.0
115.383	3.0
115.398	4.0
115.413	8.0
115.428	2.0
115.443	3.0
115.458	3.0
115.473	6.0
115.488	3.0
115.503	3.0
115.518	1.0
115.533	3.0
115.548	2.0
115.562	7.0
115.577	9.0
115.592	3.0
115.607	2.0
115.622	1.0
115.637	4.0
115.652	4.0
115.667	1.0
115.682	4.0
115.697	1.0
115.712	7.0
115.727	2.0
115.741	3.0
115.756	4.0
115.771	0.0
115.786	4.0
115.801	3.0
115.816	5.0
115.831	6.0
115.846	2.0
115.861	1.0
115.875	7.0
115.89	3.0
115.905	3.0
115.92	5.0
115.935	5.0
115.95	3.0
115.965	0.0
115.98	3.0
115.995	2.0
116.009	4.0
116.024	3.0
116.039	5.0
116.054	2.0
116.069	5.0
116.084	4.0
116.099	3.0
116.113	1.0
116.128	4.0
116.143	5.0
116.158	2.0
116.173	4.0
116.188	10.0
116.202	2.0
116.217	3.0
116.232	2.0
116.247	0.0
116.262	6.0
116.277	6.0
116.291	6.0
116.306	6.0
116.321	3.0
116.336	6.0
116.351	3.0
116.366	3.0
116.38	5.0
116.395	1.0
116.41	2.0
116.425	6.0
116.44	2.0
116.454	2.0
116.469	2.0
116.484	3.0
116.499	5.0
116.514	1.0
116.528	3.0
116.543	3.0
116.558	5.0
116.573	3.0
116.588	6.0
116.602	2.0
116.617	0.0
116.632	5.0
116.647	1.0
116.662	3.0
116.676	2.0
116.691	3.0
116.706	2.0
116.721	0.0
116.735	5.0
116.75	4.0
116.765	1.0
116.78	5.0
116.795	8.0
116.809	2.0
116.824	2.0
116.839	4.0
116.854	5.0
116.868	2.0
116.883	1.0
116.898	3.0
116.913	7.0
116.927	5.0
116.942	3.0
116.957	6.0
116.972	2.0
116.986	2.0
117.001	6.0
117.016	3.0
117.031	2.0
117.045	2.0
117.06	3.0
117.075	4.0
117.09	5.0
117.104	6.0
117.119	4.0
117.134	2.0
117.149	4.0
117.163	7.0
117.178	4.0
117.193	6.0
117.208	3.0
117.222	1.0
117.237	5.0
117.252	4.0
117.267	8.0
117.281	3.0
117.296	4.0
117.311	5.0
117.325	4.0
117.34	5.0
117.355	2.0
117.37	0.0
117.384	3.0
117.399	3.0
117.414	5.0
117.429	5.0
117.443	4.0
117.458	1.0
117.473	3.0
117.487	2.0
117.502	3.0
117.517	4.0
117.532	7.0
117.546	2.0
117.561	1.0
117.576	3.0
117.59	3.0
117.605	7.0
117.62	5.0
117.635	2.0
117.649	7.0
117.664	5.0
117.679	4.0
117.693	6.0
117.708	8.0
117.723	3.0
117.738	2.0
117.752	3.0
117.767	3.0
117.782	2.0
117.796	6.0
117.811	0.0
117.826	6.0
117.841	8.0
117.855	6.0
117.87	3.0
117.885	1.0
117.899	2.0
117.914	2.0
117.929	6.0
117.944	5.0
117.958	4.0
117.973	2.0
117.988	1.0
118.002	3.0
118.017	3.0
118.032	6.0
118.047	5.0
118.062	2.0
118.077	3.0
118.092	6.0
118.107	4.0
118.121	7.0
118.136	7.0
118.151	4.0
118.166	1.0
118.181	5.0
118.196	5.0
118.211	2.0
118.225	3.0
118.24	5.0
118.255	2.0
118.27	4.0
118.285	3.0
118.3	6.0
118.315	6.0
118.33	2.0
118.344	2.0
118.359	5.0
118.374	3.0
118.389	2.0
118.404	4.0
118.419	1.0
118.434	3.0
118.449	4.0
118.463	6.0
118.478	5.0
118.493	3.0
118.508	3.0
118.523	4.0
118.538	1.0
118.553	3.0
118.567	1.0
118.582	1.0
118.597	4.0
118.612	0.0
118.627	3.0
118.642	0.0
118.657	2.0
118.672	4.0
118.686	3.0
118.701	5.0
118.716	3.0
118.731	3.0
118.746	0.0
118.761	3.0
118.776	6.0
118.791	5.0
118.805	5.0
118.82	2.0
118.835	7.0
118.85	2.0
118.865	3.0
118.88	5.0
118.895	9.0
118.909	3.0
118.924	4.0
118.939	3.0
118.954	6.0
118.969	3.0
118.984	3.0
118.999	5.0
119.014	1.0
119.028	2.0
119.043	2.0
119.058	4.0
119.073	4.0
119.088	4.0
119.103	10.0
119.118	6.0
119.133	5.0
119.147	3.0
119.162	4.0
119.177	3.0
119.192	2.0
119.207	3.0
119.222	3.0
119.237	5.0
119.251	3.0
119.266	5.0
119.281	5.0
119.296	3.0
119.311	5.0
119.326	3.0
119.341	5.0
119.356	3.0
119.37	2.0
119.385	2.0
119.4	3.0
119.415	1.0
119.43	5.0
119.445	2.0
119.46	0.0
119.475	2.0
119.489	4.0
119.504	6.0
119.519	2.0
119.534	7.0
119.549	2.0
119.564	3.0
119.579	6.0
119.593	3.0
119.608	2.0
119.623	4.0
119.638	4.0
119.653	7.0
119.668	4.0
119.683	2.0
119.698	5.0
119.712	1.0
119.727	1.0
119.742	1.0
119.757	6.0
119.772	4.0
119.787	2.0
119.802	5.0
119.817	6.0
119.831	1.0
119.846	2.0
119.861	2.0
119.876	2.0
119.891	4.0
119.906	4.0
119.921	5.0
119.935	4.0
119.95	5.0
119.965	1.0
119.98	2.0
119.995	0.0
120.01	0.0
120.025	3.0
120.04	3.0
120.054	2.0
120.069	1.0
120.084	3.0
120.099	1.0
120.114	3.0
120.129	2.0
120.144	2.0
120.159	2.0
120.173	5.0
120.188	1.0
120.203	0.0
120.218	1.0
120.233	2.0
120.248	1.0
120.263	2.0
120.277	1.0
120.292	0.0
120.307	0.0
120.322	0.0
120.337	0.0
120.352	0.0
120.367	1.0
120.382	0.0
120.396	0.0
120.411	0.0
120.426	1.0
120.441	0.0
120.456	0.0
120.471	0.0
120.486	0.0
120.501	0.0
120.515	0.0
120.53	0.0
120.545	1.0
120.56	0.0
120.575	0.0
120.59	0.0
120.605	0.0
120.619	0.0
120.634	0.0
120.649	0.0
120.664	0.0
120.679	0.0
120.694	0.0
120.709	0.0
120.724	0.0
120.738	0.0
120.753	0.0
120.768	0.0
120.783	0.0
120.798	1.0
120.813	0.0
120.828	0.0
120.843	0.0
120.857	0.0
120.872	0.0
120.887	1.0
120.902	0.0
120.917	0.0
120.932	0.0
120.947	0.0
120.961	0.0
120.976	0.0
