-1.217	0.0
-1.202	0.0
-1.187	0.0
-1.172	0.0
-1.157	0.0
-1.142	0.0
-1.128	0.0
-1.113	0.0
-1.098	1.0
-1.083	0.0
-1.068	0.0
-1.054	0.0
-1.039	0.0
-1.024	0.0
-1.009	1.0
-0.994	0.0
-0.979	0.0
-0.965	0.0
-0.95	0.0
-0.935	0.0
-0.92	0.0
-0.905	0.0
-0.891	0.0
-0.876	0.0
-0.861	0.0
-0.846	0.0
-0.831	0.0
-0.816	0.0
-0.802	0.0
-0.787	0.0
-0.772	0.0
-0.757	0.0
-0.742	0.0
-0.728	0.0
-0.713	0.0
-0.698	0.0
-0.683	0.0
-0.668	0.0
-0.653	0.0
-0.639	0.0
-0.624	0.0
-0.609	0.0
-0.594	0.0
-0.579	0.0
-0.565	0.0
-0.55	0.0
-0.535	0.0
-0.52	0.0
-0.505	0.0
-0.49	0.0
-0.476	0.0
-0.461	0.0
-0.446	0.0
-0.431	0.0
-0.416	0.0
-0.401	0.0
-0.387	0.0
-0.372	0.0
-0.357	0.0
-0.342	0.0
-0.327	0.0
-0.313	0.0
-0.298	0.0
-0.283	0.0
-0.268	0.0
-0.253	0.0
-0.238	0.0
-0.224	0.0
-0.209	0.0
-0.194	0.0
-0.179	0.0
-0.164	0.0
-0.15	0.0
-0.135	0.0
-0.12	0.0
-0.105	0.0
-0.09	0.0
-0.075	0.0
-0.061	0.0
-0.046	0.0
-0.031	0.0
-0.016	0.0
-0.001	1.0
0.013	0.0
0.028	0.0
0.043	0.0
0.058	1.0
0.073	0.0
0.088	0.0
0.102	0.0
0.117	0.0
0.132	0.0
0.147	1.0
0.162	0.0
0.176	0.0
0.191	0.0
0.206	0.0
0.221	0.0
0.236	0.0
0.251	0.0
0.265	0.0
0.28	0.0
0.295	0.0
0.31	0.0
0.325	0.0
0.339	0.0
0.354	0.0
0.369	0.0
0.384	0.0
0.399	0.0
0.414	0.0
0.428	0.0
0.443	0.0
0.458	0.0
0.473	0.0
0.488	0.0
0.502	0.0
0.517	0.0
0.532	0.0
0.547	0.0
0.562	0.0
0.577	1.0
0.591	0.0
0.606	0.0
0.621	0.0
0.636	0.0
0.651	0.0
0.665	0.0
0.68	0.0
0.695	0.0
0.71	0.0
0.725	1.0
0.74	0.0
0.754	0.0
0.769	0.0
0.784	0.0
0.799	0.0
0.814	0.0
0.828	0.0
0.843	0.0
0.858	1.0
0.873	0.0
0.888	0.0
0.903	0.0
0.917	0.0
0.932	0.0
0.947	0.0
0.962	0.0
0.977	0.0
0.991	0.0
1.006	0.0
1.021	0.0
1.036	0.0
1.051	0.0
1.065	0.0
1.08	0.0
1.095	0.0
1.11	0.0
1.125	0.0
1.14	0.0
1.154	1.0
1.169	0.0
1.184	0.0
1.199	0.0
1.214	0.0
1.228	0.0
1.243	0.0
1.258	1.0
1.273	0.0
1.288	0.0
1.302	0.0
1.317	0.0
1.332	0.0
1.347	0.0
1.362	0.0
1.376	0.0
1.391	0.0
1.406	0.0
1.421	1.0
1.436	0.0
1.45	0.0
1.465	0.0
1.48	0.0
1.495	0.0
1.51	0.0
1.524	0.0
1.539	0.0
1.554	0.0
1.569	0.0
1.584	0.0
1.598	0.0
1.613	0.0
1.628	0.0
1.643	0.0
1.658	0.0
1.672	0.0
1.687	0.0
1.702	1.0
1.717	0.0
1.732	0.0
1.746	0.0
1.761	0.0
1.776	0.0
1.791	0.0
1.806	0.0
1.82	0.0
1.835	0.0
1.85	0.0
1.865	0.0
1.88	0.0
1.894	0.0
1.909	0.0
1.924	0.0
1.939	0.0
1.954	0.0
1.968	0.0
1.983	0.0
1.998	0.0
2.013	0.0
2.028	1.0
2.042	0.0
2.057	0.0
2.072	0.0
2.087	0.0
2.101	1.0
2.116	0.0
2.131	0.0
2.146	1.0
2.161	0.0
2.175	1.0
2.19	1.0
2.205	0.0
2.22	0.0
2.235	0.0
2.249	0.0
2.264	0.0
2.279	1.0
2.294	2.0
2.308	0.0
2.323	1.0
2.338	0.0
2.353	0.0
2.368	0.0
2.382	1.0
2.397	0.0
2.412	1.0
2.427	0.0
2.442	2.0
2.456	2.0
2.471	2.0
2.486	1.0
2.501	2.0
2.515	6.0
2.53	2.0
2.545	0.0
2.56	5.0
2.575	1.0
2.589	2.0
2.604	1.0
2.619	0.0
2.634	2.0
2.649	3.0
2.663	3.0
2.678	4.0
2.693	1.0
2.708	3.0
2.722	4.0
2.737	3.0
2.752	3.0
2.767	2.0
2.782	1.0
2.796	3.0
2.811	1.0
2.826	3.0
2.841	1.0
2.856	0.0
2.87	5.0
2.885	3.0
2.9	6.0
2.915	5.0
2.93	1.0
2.944	3.0
2.959	2.0
2.974	2.0
2.989	3.0
3.004	2.0
3.018	3.0
3.033	3.0
3.048	2.0
3.063	3.0
3.078	2.0
3.092	4.0
3.107	3.0
3.122	6.0
3.137	3.0
3.152	2.0
3.166	4.0
3.181	6.0
3.196	7.0
3.211	6.0
3.226	2.0
3.24	5.0
3.255	3.0
3.27	3.0
3.285	7.0
3.3	4.0
3.315	7.0
3.329	2.0
3.344	8.0
3.359	7.0
3.374	2.0
3.389	3.0
3.403	2.0
3.418	3.0
3.433	6.0
3.448	5.0
3.463	9.0
3.478	5.0
3.492	3.0
3.507	3.0
3.522	4.0
3.537	7.0
3.552	1.0
3.567	5.0
3.581	8.0
3.596	5.0
3.611	8.0
3.626	4.0
3.641	8.0
3.656	4.0
3.671	7.0
3.685	4.0
3.7	7.0
3.715	5.0
3.73	4.0
3.745	2.0
3.76	10.0
3.775	3.0
3.789	7.0
3.804	6.0
3.819	4.0
3.834	7.0
3.849	8.0
3.864	5.0
3.879	7.0
3.894	4.0
3.908	4.0
3.923	2.0
3.938	6.0
3.953	3.0
3.968	8.0
3.983	3.0
3.998	6.0
4.013	4.0
4.027	6.0
4.042	10.0
4.057	6.0
4.072	3.0
4.087	9.0
4.102	8.0
4.117	6.0
4.132	10.0
4.147	4.0
4.162	8.0
4.176	7.0
4.191	5.0
4.206	8.0
4.221	6.0
4.236	4.0
4.251	7.0
4.266	6.0
4.281	6.0
4.296	5.0
4.311	9.0
4.326	5.0
4.341	8.0
4.356	10.0
4.37	11.0
4.385	8.0
4.4	5.0
4.415	11.0
4.43	5.0
4.445	9.0
4.46	3.0
4.475	5.0
4.49	13.0
4.505	8.0
4.52	3.0
4.535	3.0
4.55	6.0
4.565	11.0
4.58	9.0
4.595	2.0
4.61	9.0
4.625	8.0
4.639	4.0
4.654	5.0
4.669	5.0
4.684	7.0
4.699	5.0
4.714	6.0
4.729	9.0
4.744	3.0
4.759	7.0
4.774	6.0
4.789	5.0
4.804	12.0
4.819	6.0
4.834	4.0
4.849	9.0
4.864	5.0
4.879	5.0
4.894	7.0
4.909	8.0
4.924	8.0
4.939	12.0
4.954	6.0
4.969	7.0
4.984	4.0
4.999	6.0
5.014	5.0
5.029	7.0
5.044	8.0
5.059	9.0
5.074	6.0
5.089	12.0
5.104	8.0
5.119	7.0
5.134	7.0
5.149	8.0
5.164	6.0
5.179	12.0
5.194	7.0
5.209	7.0
5.224	8.0
5.239	9.0
5.254	8.0
5.269	10.0
5.284	7.0
5.299	8.0
5.314	5.0
5.329	3.0
5.344	8.0
5.359	3.0
5.374	11.0
5.389	7.0
5.404	11.0
5.419	1.0
5.434	6.0
5.449	8.0
5.464	7.0
5.479	8.0
5.494	9.0
5.509	10.0
5.524	6.0
5.539	12.0
5.554	6.0
5.569	12.0
5.584	8.0
5.599	11.0
5.614	7.0
5.629	10.0
5.644	8.0
5.659	6.0
5.674	14.0
5.689	11.0
5.704	7.0
5.719	14.0
5.734	5.0
5.749	7.0
5.764	12.0
5.779	7.0
5.794	11.0
5.809	8.0
5.824	5.0
5.839	4.0
5.854	8.0
5.869	13.0
5.884	3.0
5.899	7.0
5.914	7.0
5.929	7.0
5.944	1.0
5.959	7.0
5.974	7.0
5.989	6.0
6.004	11.0
6.019	8.0
6.034	8.0
6.049	3.0
6.064	7.0
6.079	11.0
6.094	9.0
6.109	10.0
6.124	8.0
6.139	13.0
6.154	8.0
6.169	8.0
6.184	9.0
6.199	10.0
6.214	10.0
6.229	12.0
6.244	5.0
6.259	12.0
6.274	6.0
6.289	10.0
6.304	12.0
6.319	11.0
6.334	10.0
6.349	7.0
6.364	7.0
6.379	4.0
6.394	7.0
6.409	4.0
6.424	5.0
6.439	17.0
6.454	9.0
6.469	9.0
6.484	12.0
6.499	12.0
6.514	6.0
6.529	7.0
6.544	5.0
6.559	6.0
6.574	14.0
6.589	5.0
6.604	14.0
6.619	9.0
6.634	10.0
6.649	5.0
6.664	5.0
6.679	9.0
6.694	9.0
6.709	8.0
6.724	8.0
6.739	12.0
6.754	8.0
6.769	7.0
6.784	8.0
6.799	9.0
6.814	4.0
6.829	7.0
6.844	10.0
6.859	9.0
6.873	9.0
6.888	11.0
6.903	4.0
6.918	8.0
6.933	12.0
6.948	8.0
6.963	7.0
6.978	8.0
6.993	7.0
7.008	12.0
7.023	12.0
7.038	6.0
7.053	10.0
7.068	11.0
7.083	9.0
7.098	6.0
7.113	15.0
7.128	9.0
7.143	3.0
7.157	7.0
7.172	4.0
7.187	10.0
7.202	8.0
7.217	11.0
7.232	5.0
7.247	15.0
7.262	10.0
7.277	15.0
7.292	8.0
7.307	10.0
7.322	6.0
7.336	6.0
7.351	14.0
7.366	6.0
7.381	13.0
7.396	10.0
7.411	14.0
7.426	11.0
7.441	7.0
7.456	10.0
7.471	8.0
7.485	3.0
7.5	12.0
7.515	5.0
7.53	8.0
7.545	8.0
7.56	10.0
7.575	6.0
7.59	5.0
7.604	5.0
7.619	10.0
7.634	8.0
7.649	14.0
7.664	10.0
7.679	4.0
7.693	13.0
7.708	10.0
7.723	6.0
7.738	6.0
7.753	12.0
7.768	11.0
7.783	8.0
7.797	13.0
7.812	10.0
7.827	8.0
7.842	4.0
7.857	5.0
7.871	10.0
7.886	10.0
7.901	14.0
7.916	6.0
7.931	8.0
7.945	9.0
7.96	7.0
7.975	6.0
7.99	14.0
8.005	10.0
8.019	3.0
8.034	14.0
8.049	7.0
8.064	8.0
8.078	8.0
8.093	11.0
8.108	6.0
8.123	10.0
8.137	8.0
8.152	8.0
8.167	6.0
8.182	7.0
8.196	3.0
8.211	8.0
8.226	7.0
8.241	13.0
8.255	10.0
8.27	7.0
8.285	10.0
8.3	9.0
8.314	7.0
8.329	11.0
8.344	10.0
8.358	6.0
8.373	12.0
8.388	6.0
8.403	12.0
8.417	10.0
8.432	13.0
8.447	6.0
8.461	10.0
8.476	9.0
8.491	9.0
8.505	10.0
8.52	8.0
8.535	10.0
8.55	6.0
8.564	6.0
8.579	4.0
8.594	9.0
8.608	7.0
8.623	6.0
8.638	3.0
8.652	6.0
8.667	9.0
8.682	7.0
8.696	8.0
8.711	3.0
8.726	9.0
8.74	11.0
8.755	3.0
8.77	11.0
8.784	10.0
8.799	4.0
8.814	12.0
8.828	11.0
8.843	8.0
8.858	6.0
8.872	8.0
8.887	11.0
8.902	8.0
8.916	11.0
8.931	5.0
8.946	8.0
8.96	6.0
8.975	10.0
8.99	7.0
9.004	9.0
9.019	7.0
9.034	7.0
9.048	11.0
9.063	8.0
9.077	10.0
9.092	5.0
9.107	6.0
9.121	8.0
9.136	7.0
9.151	7.0
9.165	4.0
9.18	8.0
9.195	8.0
9.209	7.0
9.224	12.0
9.239	7.0
9.253	8.0
9.268	9.0
9.283	6.0
9.297	6.0
9.312	12.0
9.327	12.0
9.341	13.0
9.356	11.0
9.371	8.0
9.385	9.0
9.4	7.0
9.415	14.0
9.429	5.0
9.444	15.0
9.458	7.0
9.473	9.0
9.488	10.0
9.502	10.0
9.517	5.0
9.532	12.0
9.546	7.0
9.561	8.0
9.576	9.0
9.59	9.0
9.605	9.0
9.62	9.0
9.635	6.0
9.649	12.0
9.664	6.0
9.679	10.0
9.693	8.0
9.708	7.0
9.723	8.0
9.737	4.0
9.752	9.0
9.767	8.0
9.781	8.0
9.796	6.0
9.811	8.0
9.825	9.0
9.84	5.0
9.855	8.0
9.87	6.0
9.884	3.0
9.899	6.0
9.914	11.0
9.928	6.0
9.943	3.0
9.958	9.0
9.973	10.0
9.987	3.0
10.002	6.0
10.017	13.0
10.031	10.0
10.046	6.0
10.061	8.0
10.076	7.0
10.09	13.0
10.105	8.0
10.12	5.0
10.135	8.0
10.149	7.0
10.164	8.0
10.179	10.0
10.194	6.0
10.208	9.0
10.223	7.0
10.238	9.0
10.253	10.0
10.267	2.0
10.282	11.0
10.297	10.0
10.312	6.0
10.326	10.0
10.341	11.0
10.356	9.0
10.371	14.0
10.386	5.0
10.4	8.0
10.415	5.0
10.43	7.0
10.445	10.0
10.46	11.0
10.474	9.0
10.489	7.0
10.504	6.0
10.519	8.0
10.533	8.0
10.548	11.0
10.563	8.0
10.578	6.0
10.593	7.0
10.608	10.0
10.622	8.0
10.637	11.0
10.652	6.0
10.667	8.0
10.682	4.0
10.696	10.0
10.711	11.0
10.726	5.0
10.741	8.0
10.756	15.0
10.771	8.0
10.785	8.0
10.8	7.0
10.815	7.0
10.83	9.0
10.845	8.0
10.86	7.0
10.874	5.0
10.889	6.0
10.904	7.0
10.919	7.0
10.934	7.0
10.949	7.0
10.963	6.0
10.978	3.0
10.993	10.0
11.008	5.0
11.023	7.0
11.038	6.0
11.053	7.0
11.067	10.0
11.082	9.0
11.097	9.0
11.112	11.0
11.127	11.0
11.142	10.0
11.157	9.0
11.172	4.0
11.186	6.0
11.201	10.0
11.216	10.0
11.231	8.0
11.246	8.0
11.261	4.0
11.276	10.0
11.291	10.0
11.305	4.0
11.32	6.0
11.335	5.0
11.35	6.0
11.365	8.0
11.38	8.0
11.395	8.0
11.41	3.0
11.424	12.0
11.439	6.0
11.454	6.0
11.469	13.0
11.484	6.0
11.499	8.0
11.514	11.0
11.529	7.0
11.544	14.0
11.558	7.0
11.573	12.0
11.588	8.0
11.603	10.0
11.618	4.0
11.633	14.0
11.648	11.0
11.663	9.0
11.678	7.0
11.693	14.0
11.707	6.0
11.722	6.0
11.737	7.0
11.752	11.0
11.767	7.0
11.782	11.0
11.797	5.0
11.812	9.0
11.827	8.0
11.842	9.0
11.856	3.0
11.871	5.0
11.886	11.0
11.901	9.0
11.916	9.0
11.931	10.0
11.946	12.0
11.961	5.0
11.976	10.0
11.991	7.0
12.006	8.0
12.02	6.0
12.035	8.0
12.05	10.0
12.065	6.0
12.08	11.0
12.095	10.0
12.11	6.0
12.125	5.0
12.14	14.0
12.155	8.0
12.17	8.0
12.184	7.0
12.199	10.0
12.214	12.0
12.229	8.0
12.244	11.0
12.259	17.0
12.274	11.0
12.289	10.0
12.304	9.0
12.319	9.0
12.334	11.0
12.348	14.0
12.363	12.0
12.378	12.0
12.393	10.0
12.408	19.0
12.423	9.0
12.438	10.0
12.453	12.0
12.468	11.0
12.483	10.0
12.498	9.0
12.513	6.0
12.527	12.0
12.542	12.0
12.557	16.0
12.572	11.0
12.587	16.0
12.602	8.0
12.617	20.0
12.632	10.0
12.647	19.0
12.662	8.0
12.677	13.0
12.692	8.0
12.707	14.0
12.721	7.0
12.736	11.0
12.751	20.0
12.766	17.0
12.781	10.0
12.796	11.0
12.811	6.0
12.826	15.0
12.841	19.0
12.856	16.0
12.871	13.0
12.886	16.0
12.9	18.0
12.915	15.0
12.93	20.0
12.945	16.0
12.96	15.0
12.975	14.0
12.99	11.0
13.005	18.0
13.02	23.0
13.035	13.0
13.05	16.0
13.065	11.0
13.08	16.0
13.094	18.0
13.109	17.0
13.124	18.0
13.139	13.0
13.154	24.0
13.169	19.0
13.184	14.0
13.199	21.0
13.214	13.0
13.229	18.0
13.244	20.0
13.259	21.0
13.274	20.0
13.288	21.0
13.303	25.0
13.318	21.0
13.333	18.0
13.348	22.0
13.363	18.0
13.378	20.0
13.393	25.0
13.408	27.0
13.423	31.0
13.438	22.0
13.453	26.0
13.468	35.0
13.482	32.0
13.497	37.0
13.512	35.0
13.527	47.0
13.542	43.0
13.557	61.0
13.572	53.0
13.587	59.0
13.602	57.0
13.617	82.0
13.632	63.0
13.647	91.0
13.662	63.0
13.677	70.0
13.691	92.0
13.706	113.0
13.721	106.0
13.736	108.0
13.751	105.0
13.766	112.0
13.781	115.0
13.796	144.0
13.811	130.0
13.826	103.0
13.841	124.0
13.856	98.0
13.871	110.0
13.885	93.0
13.9	72.0
13.915	75.0
13.93	56.0
13.945	54.0
13.96	49.0
13.975	52.0
13.99	38.0
14.005	29.0
14.02	25.0
14.035	28.0
14.05	33.0
14.065	34.0
14.08	22.0
14.094	18.0
14.109	20.0
14.124	25.0
14.139	18.0
14.154	15.0
14.169	20.0
14.184	12.0
14.199	22.0
14.214	12.0
14.229	18.0
14.244	23.0
14.259	28.0
14.274	19.0
14.288	15.0
14.303	24.0
14.318	20.0
14.333	23.0
14.348	21.0
14.363	13.0
14.378	28.0
14.393	20.0
14.408	20.0
14.423	17.0
14.438	14.0
14.453	13.0
14.468	18.0
14.482	14.0
14.497	20.0
14.512	20.0
14.527	19.0
14.542	16.0
14.557	14.0
14.572	17.0
14.587	11.0
14.602	17.0
14.617	17.0
14.632	17.0
14.647	21.0
14.661	15.0
14.676	23.0
14.691	15.0
14.706	14.0
14.721	10.0
14.736	15.0
14.751	18.0
14.766	23.0
14.781	16.0
14.796	16.0
14.811	14.0
14.826	8.0
14.84	17.0
14.855	14.0
14.87	11.0
14.885	14.0
14.9	13.0
14.915	16.0
14.93	15.0
14.945	16.0
14.96	9.0
14.975	15.0
14.989	18.0
15.004	17.0
15.019	15.0
15.034	17.0
15.049	20.0
15.064	9.0
15.079	12.0
15.094	12.0
15.109	15.0
15.124	13.0
15.138	12.0
15.153	8.0
15.168	12.0
15.183	20.0
15.198	18.0
15.213	12.0
15.228	9.0
15.243	9.0
15.258	15.0
15.272	16.0
15.287	17.0
15.302	6.0
15.317	12.0
15.332	17.0
15.347	17.0
15.362	15.0
15.377	18.0
15.391	12.0
15.406	11.0
15.421	8.0
15.436	18.0
15.451	14.0
15.466	11.0
15.481	18.0
15.496	7.0
15.51	23.0
15.525	16.0
15.54	19.0
15.555	11.0
15.57	9.0
15.585	16.0
15.6	7.0
15.614	19.0
15.629	11.0
15.644	12.0
15.659	11.0
15.674	17.0
15.689	21.0
15.704	18.0
15.718	12.0
15.733	14.0
15.748	19.0
15.763	17.0
15.778	14.0
15.793	10.0
15.808	13.0
15.822	13.0
15.837	17.0
15.852	22.0
15.867	13.0
15.882	16.0
15.897	14.0
15.911	14.0
15.926	13.0
15.941	19.0
15.956	16.0
15.971	13.0
15.986	15.0
16.0	18.0
16.015	7.0
16.03	18.0
16.045	12.0
16.06	15.0
16.074	9.0
16.089	7.0
16.104	12.0
16.119	12.0
16.134	11.0
16.149	14.0
16.163	11.0
16.178	15.0
16.193	16.0
16.208	10.0
16.223	8.0
16.237	9.0
16.252	13.0
16.267	30.0
16.282	20.0
16.297	15.0
16.311	4.0
16.326	17.0
16.341	17.0
16.356	19.0
16.37	13.0
16.385	10.0
16.4	20.0
16.415	20.0
16.43	16.0
16.444	6.0
16.459	14.0
16.474	11.0
16.489	13.0
16.504	17.0
16.518	18.0
16.533	13.0
16.548	18.0
16.563	22.0
16.577	22.0
16.592	11.0
16.607	16.0
16.622	12.0
16.637	22.0
16.651	22.0
16.666	19.0
16.681	18.0
16.696	23.0
16.71	20.0
16.725	26.0
16.74	26.0
16.755	31.0
16.77	26.0
16.784	47.0
16.799	30.0
16.814	44.0
16.829	45.0
16.843	44.0
16.858	40.0
16.873	51.0
16.888	80.0
16.902	73.0
16.917	67.0
16.932	68.0
16.947	80.0
16.961	84.0
16.976	89.0
16.991	55.0
17.006	55.0
17.021	57.0
17.035	57.0
17.05	42.0
17.065	42.0
17.08	31.0
17.094	31.0
17.109	47.0
17.124	22.0
17.139	28.0
17.153	24.0
17.168	22.0
17.183	21.0
17.198	23.0
17.212	17.0
17.227	11.0
17.242	10.0
17.257	22.0
17.271	20.0
17.286	16.0
17.301	11.0
17.316	8.0
17.33	16.0
17.345	13.0
17.36	15.0
17.375	12.0
17.39	13.0
17.404	14.0
17.419	14.0
17.434	19.0
17.449	5.0
17.463	17.0
17.478	10.0
17.493	11.0
17.508	14.0
17.522	11.0
17.537	11.0
17.552	12.0
17.567	8.0
17.581	15.0
17.596	11.0
17.611	9.0
17.626	13.0
17.641	19.0
17.655	11.0
17.67	12.0
17.685	12.0
17.7	21.0
17.714	15.0
17.729	14.0
17.744	13.0
17.759	14.0
17.773	13.0
17.788	11.0
17.803	7.0
17.818	17.0
17.833	14.0
17.847	10.0
17.862	7.0
17.877	9.0
17.892	17.0
17.906	18.0
17.921	11.0
17.936	7.0
17.951	11.0
17.966	14.0
17.98	15.0
17.995	7.0
18.01	17.0
18.025	12.0
18.04	7.0
18.054	12.0
18.069	16.0
18.084	8.0
18.099	12.0
18.114	12.0
18.128	12.0
18.143	9.0
18.158	8.0
18.173	9.0
18.188	17.0
18.202	11.0
18.217	11.0
18.232	12.0
18.247	14.0
18.262	13.0
18.276	9.0
18.291	14.0
18.306	4.0
18.321	12.0
18.336	10.0
18.35	8.0
18.365	8.0
18.38	3.0
18.395	6.0
18.41	10.0
18.424	9.0
18.439	14.0
18.454	7.0
18.469	16.0
18.484	7.0
18.498	13.0
18.513	9.0
18.528	15.0
18.543	4.0
18.558	9.0
18.573	8.0
18.587	10.0
18.602	17.0
18.617	7.0
18.632	11.0
18.647	10.0
18.661	16.0
18.676	12.0
18.691	12.0
18.706	12.0
18.721	12.0
18.736	9.0
18.75	12.0
18.765	8.0
18.78	14.0
18.795	11.0
18.81	18.0
18.825	15.0
18.839	7.0
18.854	8.0
18.869	15.0
18.884	15.0
18.899	23.0
18.913	10.0
18.928	8.0
18.943	12.0
18.958	11.0
18.973	14.0
18.988	20.0
19.002	18.0
19.017	10.0
19.032	13.0
19.047	12.0
19.062	9.0
19.077	16.0
19.091	12.0
19.106	12.0
19.121	10.0
19.136	11.0
19.151	9.0
19.165	10.0
19.18	10.0
19.195	8.0
19.21	12.0
19.225	11.0
19.24	12.0
19.254	12.0
19.269	9.0
19.284	13.0
19.299	12.0
19.314	12.0
19.329	18.0
19.343	13.0
19.358	12.0
19.373	20.0
19.388	16.0
19.403	19.0
19.417	24.0
19.432	20.0
19.447	19.0
19.462	16.0
19.477	27.0
19.492	24.0
19.506	28.0
19.521	22.0
19.536	26.0
19.551	34.0
19.566	32.0
19.58	43.0
19.595	33.0
19.61	35.0
19.625	46.0
19.64	31.0
19.655	37.0
19.669	38.0
19.684	27.0
19.699	42.0
19.714	20.0
19.729	34.0
19.743	25.0
19.758	14.0
19.773	21.0
19.788	16.0
19.803	17.0
19.817	26.0
19.832	19.0
19.847	10.0
19.862	5.0
19.877	14.0
19.891	13.0
19.906	18.0
19.921	4.0
19.936	10.0
19.951	11.0
19.965	11.0
19.98	15.0
19.995	11.0
20.01	9.0
20.025	7.0
20.039	14.0
20.054	8.0
20.069	8.0
20.084	13.0
20.099	10.0
20.113	7.0
20.128	10.0
20.143	5.0
20.158	14.0
20.173	14.0
20.187	10.0
20.202	10.0
20.217	9.0
20.232	14.0
20.246	12.0
20.261	14.0
20.276	14.0
20.291	13.0
20.306	7.0
20.32	7.0
20.335	7.0
20.35	7.0
20.365	5.0
20.38	8.0
20.394	13.0
20.409	9.0
20.424	7.0
20.439	6.0
20.453	8.0
20.468	10.0
20.483	10.0
20.498	13.0
20.513	15.0
20.527	19.0
20.542	11.0
20.557	10.0
20.572	12.0
20.586	12.0
20.601	8.0
20.616	6.0
20.631	10.0
20.646	11.0
20.66	20.0
20.675	12.0
20.69	16.0
20.705	15.0
20.719	10.0
20.734	10.0
20.749	10.0
20.764	9.0
20.779	6.0
20.793	12.0
20.808	9.0
20.823	14.0
20.838	7.0
20.853	6.0
20.867	13.0
20.882	4.0
20.897	6.0
20.912	14.0
20.926	9.0
20.941	9.0
20.956	12.0
20.971	8.0
20.986	15.0
21.0	17.0
21.015	10.0
21.03	9.0
21.045	11.0
21.06	12.0
21.074	19.0
21.089	10.0
21.104	11.0
21.119	5.0
21.134	16.0
21.148	10.0
21.163	10.0
21.178	9.0
21.193	8.0
21.208	14.0
21.222	11.0
21.237	17.0
21.252	7.0
21.267	10.0
21.282	12.0
21.296	10.0
21.311	15.0
21.326	10.0
21.341	17.0
21.356	9.0
21.37	13.0
21.385	14.0
21.4	11.0
21.415	15.0
21.43	16.0
21.444	14.0
21.459	9.0
21.474	15.0
21.489	15.0
21.504	10.0
21.519	9.0
21.533	8.0
21.548	18.0
21.563	14.0
21.578	12.0
21.593	6.0
21.608	10.0
21.622	15.0
21.637	13.0
21.652	14.0
21.667	21.0
21.682	17.0
21.697	21.0
21.712	21.0
21.726	15.0
21.741	23.0
21.756	21.0
21.771	27.0
21.786	29.0
21.801	33.0
21.816	29.0
21.83	32.0
21.845	58.0
21.86	54.0
21.875	63.0
21.89	64.0
21.905	69.0
21.92	78.0
21.935	82.0
21.949	85.0
21.964	70.0
21.979	88.0
21.994	67.0
22.009	72.0
22.024	71.0
22.039	54.0
22.054	48.0
22.069	54.0
22.083	30.0
22.098	45.0
22.113	34.0
22.128	30.0
22.143	35.0
22.158	24.0
22.173	23.0
22.188	22.0
22.203	15.0
22.218	16.0
22.233	19.0
22.248	18.0
22.262	17.0
22.277	16.0
22.292	13.0
22.307	19.0
22.322	10.0
22.337	16.0
22.352	10.0
22.367	20.0
22.382	7.0
22.397	12.0
22.412	10.0
22.427	12.0
22.442	14.0
22.457	12.0
22.472	14.0
22.487	13.0
22.502	16.0
22.516	18.0
22.531	13.0
22.546	12.0
22.561	13.0
22.576	8.0
22.591	13.0
22.606	17.0
22.621	14.0
22.636	10.0
22.651	18.0
22.666	12.0
22.681	11.0
22.696	10.0
22.711	13.0
22.726	9.0
22.741	9.0
22.756	13.0
22.771	8.0
22.786	16.0
22.801	9.0
22.816	15.0
22.831	8.0
22.846	12.0
22.861	14.0
22.876	9.0
22.891	11.0
22.906	13.0
22.92	13.0
22.935	8.0
22.95	15.0
22.965	15.0
22.98	10.0
22.995	13.0
23.01	9.0
23.025	6.0
23.04	11.0
23.055	12.0
23.07	9.0
23.085	11.0
23.1	7.0
23.115	10.0
23.13	6.0
23.145	7.0
23.16	6.0
23.175	5.0
23.19	8.0
23.205	12.0
23.22	7.0
23.235	16.0
23.25	14.0
23.265	18.0
23.28	10.0
23.295	13.0
23.31	10.0
23.325	6.0
23.34	9.0
23.355	12.0
23.37	11.0
23.384	15.0
23.399	11.0
23.414	9.0
23.429	10.0
23.444	5.0
23.459	14.0
23.474	11.0
23.489	8.0
23.504	9.0
23.519	5.0
23.534	7.0
23.549	8.0
23.564	7.0
23.579	11.0
23.594	11.0
23.609	5.0
23.624	5.0
23.639	11.0
23.654	13.0
23.668	10.0
23.683	20.0
23.698	9.0
23.713	12.0
23.728	20.0
23.743	8.0
23.758	10.0
23.773	8.0
23.788	15.0
23.803	24.0
23.818	18.0
23.833	10.0
23.848	12.0
23.862	11.0
23.877	22.0
23.892	25.0
23.907	19.0
23.922	23.0
23.937	22.0
23.952	25.0
23.967	31.0
23.982	40.0
23.997	32.0
24.011	35.0
24.026	53.0
24.041	48.0
24.056	30.0
24.071	60.0
24.086	52.0
24.101	52.0
24.116	60.0
24.131	41.0
24.145	43.0
24.16	36.0
24.175	44.0
24.19	35.0
24.205	19.0
24.22	32.0
24.235	34.0
24.249	39.0
24.264	26.0
24.279	31.0
24.294	23.0
24.309	17.0
24.324	17.0
24.338	17.0
24.353	19.0
24.368	9.0
24.383	19.0
24.398	12.0
24.413	10.0
24.428	16.0
24.442	9.0
24.457	18.0
24.472	17.0
24.487	11.0
24.502	9.0
24.516	12.0
24.531	6.0
24.546	9.0
24.561	13.0
24.576	9.0
24.591	11.0
24.605	14.0
24.62	8.0
24.635	8.0
24.65	15.0
24.665	7.0
24.679	13.0
24.694	11.0
24.709	8.0
24.724	15.0
24.739	11.0
24.753	13.0
24.768	10.0
24.783	7.0
24.798	5.0
24.813	10.0
24.827	7.0
24.842	8.0
24.857	11.0
24.872	12.0
24.886	7.0
24.901	12.0
24.916	11.0
24.931	16.0
24.946	10.0
24.96	10.0
24.975	9.0
24.99	11.0
25.005	17.0
25.019	14.0
25.034	23.0
25.049	9.0
25.064	11.0
25.078	10.0
25.093	7.0
25.108	10.0
25.123	15.0
25.138	9.0
25.152	5.0
25.167	17.0
25.182	9.0
25.197	12.0
25.211	8.0
25.226	9.0
25.241	9.0
25.256	10.0
25.27	6.0
25.285	7.0
25.3	6.0
25.315	8.0
25.329	12.0
25.344	11.0
25.359	8.0
25.374	9.0
25.388	7.0
25.403	8.0
25.418	7.0
25.433	13.0
25.447	8.0
25.462	13.0
25.477	8.0
25.492	6.0
25.506	8.0
25.521	10.0
25.536	6.0
25.55	10.0
25.565	7.0
25.58	14.0
25.595	8.0
25.609	7.0
25.624	11.0
25.639	12.0
25.654	12.0
25.668	10.0
25.683	8.0
25.698	9.0
25.713	11.0
25.727	7.0
25.742	12.0
25.757	8.0
25.772	13.0
25.786	14.0
25.801	12.0
25.816	11.0
25.83	7.0
25.845	4.0
25.86	6.0
25.875	7.0
25.889	7.0
25.904	7.0
25.919	11.0
25.934	9.0
25.948	5.0
25.963	7.0
25.978	13.0
25.992	14.0
26.007	13.0
26.022	15.0
26.037	8.0
26.051	10.0
26.066	3.0
26.081	2.0
26.096	12.0
26.11	12.0
26.125	11.0
26.14	11.0
26.155	9.0
26.169	11.0
26.184	7.0
26.199	13.0
26.213	9.0
26.228	5.0
26.243	7.0
26.258	9.0
26.272	13.0
26.287	12.0
26.302	11.0
26.317	15.0
26.331	6.0
26.346	14.0
26.361	7.0
26.376	11.0
26.39	8.0
26.405	6.0
26.42	10.0
26.434	8.0
26.449	10.0
26.464	9.0
26.479	9.0
26.493	9.0
26.508	9.0
26.523	13.0
26.538	12.0
26.552	12.0
26.567	11.0
26.582	8.0
26.597	13.0
26.611	11.0
26.626	6.0
26.641	9.0
26.656	5.0
26.67	7.0
26.685	8.0
26.7	14.0
26.715	15.0
26.729	9.0
26.744	9.0
26.759	11.0
26.773	9.0
26.788	7.0
26.803	15.0
26.818	10.0
26.832	14.0
26.847	6.0
26.862	14.0
26.877	12.0
26.891	8.0
26.906	14.0
26.921	4.0
26.936	11.0
26.95	5.0
26.965	10.0
26.98	8.0
26.995	6.0
27.01	8.0
27.024	12.0
27.039	12.0
27.054	14.0
27.069	8.0
27.083	7.0
27.098	7.0
27.113	9.0
27.128	4.0
27.142	10.0
27.157	9.0
27.172	12.0
27.187	10.0
27.201	14.0
27.216	13.0
27.231	9.0
27.246	8.0
27.261	5.0
27.275	9.0
27.29	14.0
27.305	6.0
27.32	13.0
27.334	9.0
27.349	13.0
27.364	6.0
27.379	8.0
27.394	15.0
27.408	14.0
27.423	5.0
27.438	7.0
27.453	6.0
27.467	8.0
27.482	8.0
27.497	4.0
27.512	14.0
27.527	16.0
27.541	9.0
27.556	10.0
27.571	8.0
27.586	11.0
27.601	8.0
27.615	14.0
27.63	12.0
27.645	6.0
27.66	19.0
27.675	16.0
27.689	14.0
27.704	9.0
27.719	15.0
27.734	15.0
27.749	18.0
27.763	18.0
27.778	14.0
27.793	17.0
27.808	22.0
27.823	17.0
27.838	23.0
27.852	21.0
27.867	19.0
27.882	21.0
27.897	20.0
27.912	21.0
27.926	17.0
27.941	21.0
27.956	12.0
27.971	23.0
27.986	15.0
28.001	12.0
28.015	20.0
28.03	11.0
28.045	25.0
28.06	8.0
28.075	12.0
28.09	11.0
28.105	16.0
28.119	21.0
28.134	13.0
28.149	14.0
28.164	16.0
28.179	8.0
28.194	11.0
28.208	3.0
28.223	9.0
28.238	8.0
28.253	9.0
28.268	14.0
28.283	9.0
28.298	7.0
28.312	12.0
28.327	9.0
28.342	12.0
28.357	14.0
28.372	13.0
28.387	7.0
28.402	12.0
28.417	10.0
28.431	9.0
28.446	9.0
28.461	13.0
28.476	12.0
28.491	12.0
28.506	9.0
28.521	13.0
28.536	10.0
28.55	15.0
28.565	13.0
28.58	13.0
28.595	4.0
28.61	4.0
28.625	13.0
28.64	13.0
28.655	7.0
28.669	16.0
28.684	7.0
28.699	9.0
28.714	10.0
28.729	3.0
28.744	9.0
28.759	8.0
28.774	12.0
28.788	15.0
28.803	12.0
28.818	7.0
28.833	12.0
28.848	9.0
28.863	7.0
28.878	14.0
28.893	8.0
28.908	6.0
28.922	7.0
28.937	13.0
28.952	11.0
28.967	8.0
28.982	7.0
28.997	8.0
29.012	12.0
29.027	9.0
29.041	15.0
29.056	12.0
29.071	11.0
29.086	10.0
29.101	11.0
29.116	14.0
29.131	10.0
29.146	11.0
29.16	16.0
29.175	4.0
29.19	10.0
29.205	8.0
29.22	10.0
29.235	6.0
29.25	11.0
29.265	9.0
29.279	13.0
29.294	7.0
29.309	14.0
29.324	5.0
29.339	12.0
29.354	12.0
29.369	22.0
29.384	16.0
29.398	18.0
29.413	12.0
29.428	22.0
29.443	17.0
29.458	20.0
29.473	18.0
29.488	30.0
29.502	34.0
29.517	38.0
29.532	30.0
29.547	35.0
29.562	44.0
29.577	42.0
29.592	52.0
29.606	43.0
29.621	55.0
29.636	47.0
29.651	38.0
29.666	44.0
29.681	43.0
29.695	30.0
29.71	37.0
29.725	36.0
29.74	32.0
29.755	21.0
29.77	26.0
29.784	29.0
29.799	24.0
29.814	19.0
29.829	19.0
29.844	26.0
29.859	19.0
29.873	18.0
29.888	15.0
29.903	8.0
29.918	13.0
29.933	13.0
29.947	8.0
29.962	8.0
29.977	9.0
29.992	10.0
30.007	13.0
30.021	12.0
30.036	8.0
30.051	7.0
30.066	12.0
30.081	9.0
30.095	9.0
30.11	16.0
30.125	10.0
30.14	15.0
30.155	10.0
30.169	13.0
30.184	12.0
30.199	8.0
30.214	12.0
30.228	9.0
30.243	8.0
30.258	12.0
30.273	11.0
30.288	12.0
30.302	14.0
30.317	9.0
30.332	14.0
30.347	9.0
30.361	4.0
30.376	8.0
30.391	10.0
30.406	11.0
30.42	10.0
30.435	6.0
30.45	7.0
30.465	12.0
30.479	12.0
30.494	5.0
30.509	15.0
30.524	8.0
30.538	11.0
30.553	11.0
30.568	11.0
30.583	15.0
30.597	14.0
30.612	9.0
30.627	11.0
30.641	11.0
30.656	10.0
30.671	10.0
30.686	6.0
30.7	12.0
30.715	9.0
30.73	15.0
30.745	8.0
30.759	6.0
30.774	10.0
30.789	12.0
30.803	4.0
30.818	11.0
30.833	10.0
30.848	8.0
30.862	7.0
30.877	13.0
30.892	11.0
30.906	14.0
30.921	10.0
30.936	12.0
30.951	12.0
30.965	17.0
30.98	12.0
30.995	17.0
31.009	14.0
31.024	13.0
31.039	19.0
31.053	9.0
31.068	11.0
31.083	19.0
31.098	14.0
31.112	15.0
31.127	18.0
31.142	15.0
31.156	30.0
31.171	22.0
31.186	30.0
31.2	26.0
31.215	30.0
31.23	35.0
31.245	34.0
31.259	35.0
31.274	33.0
31.289	38.0
31.303	37.0
31.318	34.0
31.333	35.0
31.347	27.0
31.362	28.0
31.377	21.0
31.392	16.0
31.406	25.0
31.421	22.0
31.436	24.0
31.45	18.0
31.465	23.0
31.48	23.0
31.494	27.0
31.509	19.0
31.524	11.0
31.538	15.0
31.553	16.0
31.568	19.0
31.583	13.0
31.597	9.0
31.612	20.0
31.627	11.0
31.641	11.0
31.656	20.0
31.671	16.0
31.685	17.0
31.7	8.0
31.715	17.0
31.729	15.0
31.744	12.0
31.759	16.0
31.774	10.0
31.788	16.0
31.803	13.0
31.818	14.0
31.832	10.0
31.847	9.0
31.862	10.0
31.876	9.0
31.891	14.0
31.906	9.0
31.92	13.0
31.935	15.0
31.95	9.0
31.965	9.0
31.979	7.0
31.994	11.0
32.009	9.0
32.023	12.0
32.038	9.0
32.053	9.0
32.067	11.0
32.082	10.0
32.097	16.0
32.112	6.0
32.126	8.0
32.141	16.0
32.156	10.0
32.17	9.0
32.185	10.0
32.2	10.0
32.214	11.0
32.229	9.0
32.244	13.0
32.259	11.0
32.273	9.0
32.288	7.0
32.303	13.0
32.317	10.0
32.332	11.0
32.347	10.0
32.362	10.0
32.376	9.0
32.391	13.0
32.406	6.0
32.42	9.0
32.435	9.0
32.45	12.0
32.465	9.0
32.479	9.0
32.494	12.0
32.509	6.0
32.523	17.0
32.538	11.0
32.553	18.0
32.568	10.0
32.582	13.0
32.597	22.0
32.612	18.0
32.627	20.0
32.641	14.0
32.656	12.0
32.671	11.0
32.685	12.0
32.7	17.0
32.715	16.0
32.73	25.0
32.744	16.0
32.759	18.0
32.774	24.0
32.788	23.0
32.803	27.0
32.818	25.0
32.833	26.0
32.847	23.0
32.862	20.0
32.877	19.0
32.892	22.0
32.906	18.0
32.921	20.0
32.936	20.0
32.951	18.0
32.965	21.0
32.98	19.0
32.995	8.0
33.009	18.0
33.024	15.0
33.039	15.0
33.054	15.0
33.068	17.0
33.083	17.0
33.098	11.0
33.113	20.0
33.127	15.0
33.142	10.0
33.157	4.0
33.172	10.0
33.186	10.0
33.201	14.0
33.216	11.0
33.231	14.0
33.245	13.0
33.26	15.0
33.275	13.0
33.29	8.0
33.304	6.0
33.319	11.0
33.334	8.0
33.349	11.0
33.363	8.0
33.378	13.0
33.393	8.0
33.408	10.0
33.422	9.0
33.437	7.0
33.452	9.0
33.467	8.0
33.481	10.0
33.496	9.0
33.511	11.0
33.526	9.0
33.54	8.0
33.555	13.0
33.57	5.0
33.585	10.0
33.599	12.0
33.614	7.0
33.629	6.0
33.644	6.0
33.658	8.0
33.673	10.0
33.688	12.0
33.703	8.0
33.718	9.0
33.732	8.0
33.747	7.0
33.762	9.0
33.777	8.0
33.791	7.0
33.806	7.0
33.821	6.0
33.836	10.0
33.85	8.0
33.865	9.0
33.88	11.0
33.895	15.0
33.91	15.0
33.924	9.0
33.939	9.0
33.954	8.0
33.969	6.0
33.983	13.0
33.998	5.0
34.013	8.0
34.028	10.0
34.042	6.0
34.057	6.0
34.072	15.0
34.087	17.0
34.102	10.0
34.116	11.0
34.131	12.0
34.146	12.0
34.161	9.0
34.175	14.0
34.19	12.0
34.205	7.0
34.22	10.0
34.235	12.0
34.249	14.0
34.264	11.0
34.279	8.0
34.294	14.0
34.309	19.0
34.323	12.0
34.338	12.0
34.353	17.0
34.368	13.0
34.382	11.0
34.397	8.0
34.412	12.0
34.427	5.0
34.442	11.0
34.456	10.0
34.471	19.0
34.486	8.0
34.501	11.0
34.516	9.0
34.53	12.0
34.545	10.0
34.56	9.0
34.575	11.0
34.59	8.0
34.604	17.0
34.619	9.0
34.634	3.0
34.649	7.0
34.664	8.0
34.678	2.0
34.693	16.0
34.708	13.0
34.723	15.0
34.738	2.0
34.752	3.0
34.767	12.0
34.782	6.0
34.797	17.0
34.812	10.0
34.826	8.0
34.841	9.0
34.856	11.0
34.871	9.0
34.886	13.0
34.9	9.0
34.915	14.0
34.93	4.0
34.945	12.0
34.96	9.0
34.974	6.0
34.989	10.0
35.004	6.0
35.019	6.0
35.034	13.0
35.048	5.0
35.063	11.0
35.078	10.0
35.093	9.0
35.108	13.0
35.122	6.0
35.137	10.0
35.152	9.0
35.167	10.0
35.182	7.0
35.196	7.0
35.211	12.0
35.226	8.0
35.241	4.0
35.256	7.0
35.27	6.0
35.285	6.0
35.3	7.0
35.315	8.0
35.33	6.0
35.344	10.0
35.359	8.0
35.374	10.0
35.389	10.0
35.404	10.0
35.418	7.0
35.433	3.0
35.448	8.0
35.463	8.0
35.478	5.0
35.493	13.0
35.507	11.0
35.522	7.0
35.537	7.0
35.552	9.0
35.567	9.0
35.581	9.0
35.596	7.0
35.611	9.0
35.626	9.0
35.641	13.0
35.655	15.0
35.67	9.0
35.685	14.0
35.7	12.0
35.715	16.0
35.729	14.0
35.744	16.0
35.759	20.0
35.774	26.0
35.789	8.0
35.804	13.0
35.818	24.0
35.833	17.0
35.848	24.0
35.863	15.0
35.878	13.0
35.892	18.0
35.907	9.0
35.922	13.0
35.937	12.0
35.952	13.0
35.966	12.0
35.981	13.0
35.996	17.0
36.011	16.0
36.026	9.0
36.04	21.0
36.055	11.0
36.07	14.0
36.085	6.0
36.1	14.0
36.114	8.0
36.129	11.0
36.144	10.0
36.159	10.0
36.174	3.0
36.189	6.0
36.203	8.0
36.218	5.0
36.233	6.0
36.248	10.0
36.263	11.0
36.277	5.0
36.292	4.0
36.307	13.0
36.322	5.0
36.337	11.0
36.351	9.0
36.366	8.0
36.381	11.0
36.396	8.0
36.411	8.0
36.426	5.0
36.44	6.0
36.455	7.0
36.47	8.0
36.485	5.0
36.5	8.0
36.514	4.0
36.529	7.0
36.544	11.0
36.559	7.0
36.574	3.0
36.589	4.0
36.603	8.0
36.618	8.0
36.633	8.0
36.648	9.0
36.663	11.0
36.677	12.0
36.692	9.0
36.707	11.0
36.722	4.0
36.737	6.0
36.752	5.0
36.766	13.0
36.781	9.0
36.796	7.0
36.811	11.0
36.826	2.0
36.841	5.0
36.855	12.0
36.87	9.0
36.885	10.0
36.9	10.0
36.915	10.0
36.93	11.0
36.944	7.0
36.959	8.0
36.974	7.0
36.989	10.0
37.004	10.0
37.019	16.0
37.033	12.0
37.048	13.0
37.063	20.0
37.078	9.0
37.093	16.0
37.108	26.0
37.123	15.0
37.137	20.0
37.152	22.0
37.167	18.0
37.182	35.0
37.197	26.0
37.212	29.0
37.226	18.0
37.241	30.0
37.256	23.0
37.271	17.0
37.286	15.0
37.301	18.0
37.316	20.0
37.331	12.0
37.345	24.0
37.36	22.0
37.375	21.0
37.39	26.0
37.405	19.0
37.42	23.0
37.435	20.0
37.45	20.0
37.464	16.0
37.479	16.0
37.494	19.0
37.509	7.0
37.524	7.0
37.539	11.0
37.554	16.0
37.569	5.0
37.583	10.0
37.598	13.0
37.613	9.0
37.628	8.0
37.643	3.0
37.658	6.0
37.673	4.0
37.688	11.0
37.703	8.0
37.718	6.0
37.733	4.0
37.747	4.0
37.762	7.0
37.777	4.0
37.792	6.0
37.807	7.0
37.822	11.0
37.837	7.0
37.852	4.0
37.867	8.0
37.882	4.0
37.897	10.0
37.912	7.0
37.927	3.0
37.941	7.0
37.956	3.0
37.971	5.0
37.986	6.0
38.001	4.0
38.016	10.0
38.031	6.0
38.046	2.0
38.061	9.0
38.076	5.0
38.091	6.0
38.106	7.0
38.121	9.0
38.136	5.0
38.151	6.0
38.166	4.0
38.181	7.0
38.196	6.0
38.211	3.0
38.226	8.0
38.241	8.0
38.256	6.0
38.271	12.0
38.285	8.0
38.3	9.0
38.315	6.0
38.33	3.0
38.345	10.0
38.36	6.0
38.375	1.0
38.39	8.0
38.405	7.0
38.42	9.0
38.435	7.0
38.45	3.0
38.465	7.0
38.48	3.0
38.495	7.0
38.51	12.0
38.525	4.0
38.54	9.0
38.555	6.0
38.57	7.0
38.585	6.0
38.6	10.0
38.615	8.0
38.63	7.0
38.645	9.0
38.66	5.0
38.675	3.0
38.69	9.0
38.705	5.0
38.72	8.0
38.735	8.0
38.75	6.0
38.765	1.0
38.78	5.0
38.795	6.0
38.81	5.0
38.825	7.0
38.84	4.0
38.855	3.0
38.87	6.0
38.885	10.0
38.9	5.0
38.915	5.0
38.93	4.0
38.945	7.0
38.96	6.0
38.975	6.0
38.99	11.0
39.005	4.0
39.02	8.0
39.035	10.0
39.05	3.0
39.065	8.0
39.08	4.0
39.095	5.0
39.11	8.0
39.125	5.0
39.14	5.0
39.155	4.0
39.17	6.0
39.185	6.0
39.2	10.0
39.215	4.0
39.23	7.0
39.245	5.0
39.26	4.0
39.275	7.0
39.29	13.0
39.305	6.0
39.32	8.0
39.335	7.0
39.35	7.0
39.365	10.0
39.38	5.0
39.395	3.0
39.409	7.0
39.424	6.0
39.439	4.0
39.454	3.0
39.469	4.0
39.484	6.0
39.499	6.0
39.514	4.0
39.529	3.0
39.544	4.0
39.559	12.0
39.574	7.0
39.589	5.0
39.604	7.0
39.619	5.0
39.634	7.0
39.649	4.0
39.664	7.0
39.678	6.0
39.693	4.0
39.708	13.0
39.723	5.0
39.738	9.0
39.753	4.0
39.768	8.0
39.783	7.0
39.798	7.0
39.813	12.0
39.827	10.0
39.842	6.0
39.857	9.0
39.872	11.0
39.887	10.0
39.902	8.0
39.917	6.0
39.932	6.0
39.947	3.0
39.961	5.0
39.976	4.0
39.991	7.0
40.006	8.0
40.021	8.0
40.036	5.0
40.051	6.0
40.065	7.0
40.08	6.0
40.095	9.0
40.11	8.0
40.125	7.0
40.14	5.0
40.154	7.0
40.169	8.0
40.184	6.0
40.199	4.0
40.214	1.0
40.228	1.0
40.243	3.0
40.258	7.0
40.273	9.0
40.288	8.0
40.302	8.0
40.317	4.0
40.332	2.0
40.347	10.0
40.362	8.0
40.376	4.0
40.391	7.0
40.406	2.0
40.421	8.0
40.436	6.0
40.45	8.0
40.465	9.0
40.48	7.0
40.495	5.0
40.509	9.0
40.524	6.0
40.539	12.0
40.554	8.0
40.568	7.0
40.583	8.0
40.598	10.0
40.613	6.0
40.627	5.0
40.642	4.0
40.657	1.0
40.672	5.0
40.686	7.0
40.701	5.0
40.716	6.0
40.731	8.0
40.745	4.0
40.76	9.0
40.775	5.0
40.79	5.0
40.804	6.0
40.819	10.0
40.834	6.0
40.849	10.0
40.863	6.0
40.878	3.0
40.893	5.0
40.907	2.0
40.922	8.0
40.937	10.0
40.952	6.0
40.966	5.0
40.981	13.0
40.996	6.0
41.011	9.0
41.025	13.0
41.04	15.0
41.055	10.0
41.069	16.0
41.084	19.0
41.099	18.0
41.114	20.0
41.128	16.0
41.143	18.0
41.158	16.0
41.173	18.0
41.187	18.0
41.202	16.0
41.217	19.0
41.231	15.0
41.246	10.0
41.261	6.0
41.276	16.0
41.29	9.0
41.305	9.0
41.32	9.0
41.335	12.0
41.349	11.0
41.364	22.0
41.379	19.0
41.393	9.0
41.408	14.0
41.423	14.0
41.438	13.0
41.452	11.0
41.467	15.0
41.482	10.0
41.497	8.0
41.511	4.0
41.526	9.0
41.541	8.0
41.556	5.0
41.57	6.0
41.585	8.0
41.6	4.0
41.615	7.0
41.629	4.0
41.644	8.0
41.659	4.0
41.674	4.0
41.688	1.0
41.703	5.0
41.718	5.0
41.733	6.0
41.747	5.0
41.762	7.0
41.777	3.0
41.792	4.0
41.806	9.0
41.821	4.0
41.836	4.0
41.851	3.0
41.866	6.0
41.88	0.0
41.895	9.0
41.91	2.0
41.925	11.0
41.939	6.0
41.954	7.0
41.969	2.0
41.984	7.0
41.999	11.0
42.013	7.0
42.028	6.0
42.043	2.0
42.058	5.0
42.073	6.0
42.088	5.0
42.102	9.0
42.117	6.0
42.132	6.0
42.147	9.0
42.162	5.0
42.176	6.0
42.191	7.0
42.206	6.0
42.221	2.0
42.236	7.0
42.251	10.0
42.266	10.0
42.28	10.0
42.295	7.0
42.31	7.0
42.325	17.0
42.34	8.0
42.355	19.0
42.369	8.0
42.384	11.0
42.399	14.0
42.414	9.0
42.429	12.0
42.444	15.0
42.459	9.0
42.474	9.0
42.488	9.0
42.503	11.0
42.518	5.0
42.533	3.0
42.548	7.0
42.563	5.0
42.578	12.0
42.593	12.0
42.608	9.0
42.622	9.0
42.637	11.0
42.652	16.0
42.667	15.0
42.682	10.0
42.697	16.0
42.712	8.0
42.727	8.0
42.742	9.0
42.757	11.0
42.772	6.0
42.786	6.0
42.801	9.0
42.816	4.0
42.831	10.0
42.846	2.0
42.861	3.0
42.876	6.0
42.891	7.0
42.906	9.0
42.921	7.0
42.936	9.0
42.951	1.0
42.966	4.0
42.981	7.0
42.996	5.0
43.011	6.0
43.025	7.0
43.04	3.0
43.055	6.0
43.07	9.0
43.085	6.0
43.1	4.0
43.115	6.0
43.13	4.0
43.145	5.0
43.16	6.0
43.175	7.0
43.19	2.0
43.205	3.0
43.22	7.0
43.235	4.0
43.25	9.0
43.265	9.0
43.28	8.0
43.295	5.0
43.31	3.0
43.325	8.0
43.34	4.0
43.355	6.0
43.37	10.0
43.385	5.0
43.4	9.0
43.415	3.0
43.43	0.0
43.445	5.0
43.46	7.0
43.475	2.0
43.49	9.0
43.505	3.0
43.52	8.0
43.535	8.0
43.55	9.0
43.565	3.0
43.58	9.0
43.595	7.0
43.61	4.0
43.625	6.0
43.64	7.0
43.655	15.0
43.67	7.0
43.685	8.0
43.7	10.0
43.715	8.0
43.73	6.0
43.745	6.0
43.76	9.0
43.775	5.0
43.79	7.0
43.805	10.0
43.82	5.0
43.835	6.0
43.85	7.0
43.865	9.0
43.88	14.0
43.895	10.0
43.91	9.0
43.925	7.0
43.94	6.0
43.955	13.0
43.97	7.0
43.985	10.0
44.0	11.0
44.015	6.0
44.03	4.0
44.045	5.0
44.061	3.0
44.076	6.0
44.091	9.0
44.106	7.0
44.121	7.0
44.136	12.0
44.151	8.0
44.166	6.0
44.181	7.0
44.196	7.0
44.211	2.0
44.226	7.0
44.241	7.0
44.256	5.0
44.271	6.0
44.286	2.0
44.301	9.0
44.316	9.0
44.331	5.0
44.346	7.0
44.361	5.0
44.377	4.0
44.392	5.0
44.407	3.0
44.422	2.0
44.437	2.0
44.452	5.0
44.467	3.0
44.482	8.0
44.497	7.0
44.512	5.0
44.527	3.0
44.542	3.0
44.557	3.0
44.572	6.0
44.587	3.0
44.602	4.0
44.617	6.0
44.632	3.0
44.647	5.0
44.663	4.0
44.678	5.0
44.693	4.0
44.708	6.0
44.723	8.0
44.738	7.0
44.753	10.0
44.768	9.0
44.783	8.0
44.798	7.0
44.813	13.0
44.828	19.0
44.843	13.0
44.858	6.0
44.873	14.0
44.888	6.0
44.903	8.0
44.918	8.0
44.933	6.0
44.948	9.0
44.964	6.0
44.979	5.0
44.994	6.0
45.009	6.0
45.024	16.0
45.039	14.0
45.054	5.0
45.069	10.0
45.084	9.0
45.099	8.0
45.114	6.0
45.129	7.0
45.144	7.0
45.159	11.0
45.174	4.0
45.189	5.0
45.204	5.0
45.219	5.0
45.234	5.0
45.249	4.0
45.264	4.0
45.279	3.0
45.294	4.0
45.309	3.0
45.324	5.0
45.339	3.0
45.354	2.0
45.369	3.0
45.384	8.0
45.399	0.0
45.414	6.0
45.429	3.0
45.444	7.0
45.459	2.0
45.474	3.0
45.489	2.0
45.504	1.0
45.519	6.0
45.534	4.0
45.549	6.0
45.564	3.0
45.579	2.0
45.594	4.0
45.609	3.0
45.624	5.0
45.639	5.0
45.654	4.0
45.669	7.0
45.684	4.0
45.699	2.0
45.714	7.0
45.729	5.0
45.744	4.0
45.759	4.0
45.774	6.0
45.789	6.0
45.804	7.0
45.819	7.0
45.834	6.0
45.849	9.0
45.864	5.0
45.879	13.0
45.894	13.0
45.909	14.0
45.924	14.0
45.939	14.0
45.954	15.0
45.969	14.0
45.984	26.0
45.998	15.0
46.013	15.0
46.028	18.0
46.043	12.0
46.058	12.0
46.073	8.0
46.088	5.0
46.103	7.0
46.118	7.0
46.133	5.0
46.148	4.0
46.163	11.0
46.178	12.0
46.192	7.0
46.207	5.0
46.222	11.0
46.237	12.0
46.252	16.0
46.267	10.0
46.282	10.0
46.297	11.0
46.312	7.0
46.327	10.0
46.341	13.0
46.356	4.0
46.371	9.0
46.386	7.0
46.401	10.0
46.416	6.0
46.431	1.0
46.446	3.0
46.46	6.0
46.475	4.0
46.49	0.0
46.505	3.0
46.52	7.0
46.535	4.0
46.55	4.0
46.564	1.0
46.579	5.0
46.594	8.0
46.609	2.0
46.624	1.0
46.639	6.0
46.654	3.0
46.668	7.0
46.683	4.0
46.698	2.0
46.713	5.0
46.728	4.0
46.743	2.0
46.758	4.0
46.772	6.0
46.787	7.0
46.802	10.0
46.817	5.0
46.832	2.0
46.847	4.0
46.861	6.0
46.876	5.0
46.891	6.0
46.906	6.0
46.921	8.0
46.936	8.0
46.95	2.0
46.965	5.0
46.98	7.0
46.995	1.0
47.01	1.0
47.025	7.0
47.039	5.0
47.054	9.0
47.069	5.0
47.084	5.0
47.099	10.0
47.113	6.0
47.128	8.0
47.143	10.0
47.158	8.0
47.173	8.0
47.188	9.0
47.202	8.0
47.217	1.0
47.232	4.0
47.247	7.0
47.262	7.0
47.277	8.0
47.291	5.0
47.306	3.0
47.321	3.0
47.336	7.0
47.351	8.0
47.365	8.0
47.38	6.0
47.395	7.0
47.41	6.0
47.425	11.0
47.44	9.0
47.454	6.0
47.469	13.0
47.484	11.0
47.499	8.0
47.514	7.0
47.528	5.0
47.543	3.0
47.558	5.0
47.573	6.0
47.588	7.0
47.603	4.0
47.617	3.0
47.632	3.0
47.647	3.0
47.662	5.0
47.677	8.0
47.691	4.0
47.706	3.0
47.721	4.0
47.736	4.0
47.751	5.0
47.766	3.0
47.78	3.0
47.795	4.0
47.81	7.0
47.825	3.0
47.84	6.0
47.855	3.0
47.869	4.0
47.884	5.0
47.899	8.0
47.914	6.0
47.929	3.0
47.944	9.0
47.958	1.0
47.973	5.0
47.988	5.0
48.003	4.0
48.018	3.0
48.033	5.0
48.047	4.0
48.062	2.0
48.077	3.0
48.092	4.0
48.107	5.0
48.122	3.0
48.137	5.0
48.151	6.0
48.166	3.0
48.181	2.0
48.196	1.0
48.211	7.0
48.226	7.0
48.241	6.0
48.255	3.0
48.27	2.0
48.285	5.0
48.3	4.0
48.315	6.0
48.33	2.0
48.345	6.0
48.359	1.0
48.374	5.0
48.389	3.0
48.404	5.0
48.419	1.0
48.434	3.0
48.449	5.0
48.464	6.0
48.478	5.0
48.493	4.0
48.508	3.0
48.523	4.0
48.538	5.0
48.553	2.0
48.568	1.0
48.583	2.0
48.597	3.0
48.612	4.0
48.627	7.0
48.642	3.0
48.657	2.0
48.672	3.0
48.687	4.0
48.702	2.0
48.717	3.0
48.731	4.0
48.746	6.0
48.761	5.0
48.776	6.0
48.791	6.0
48.806	4.0
48.821	2.0
48.836	2.0
48.851	2.0
48.866	4.0
48.88	6.0
48.895	4.0
48.91	4.0
48.925	3.0
48.94	4.0
48.955	9.0
48.97	3.0
48.985	5.0
49.0	7.0
49.015	3.0
49.03	7.0
49.044	5.0
49.059	5.0
49.074	5.0
49.089	6.0
49.104	5.0
49.119	5.0
49.134	6.0
49.149	7.0
49.164	5.0
49.179	11.0
49.194	3.0
49.209	4.0
49.224	3.0
49.238	6.0
49.253	2.0
49.268	2.0
49.283	8.0
49.298	9.0
49.313	2.0
49.328	11.0
49.343	3.0
49.358	7.0
49.373	4.0
49.388	7.0
49.403	7.0
49.418	4.0
49.433	7.0
49.448	11.0
49.463	4.0
49.478	3.0
49.492	3.0
49.507	5.0
49.522	5.0
49.537	8.0
49.552	5.0
49.567	4.0
49.582	8.0
49.597	7.0
49.612	4.0
49.627	4.0
49.642	2.0
49.657	3.0
49.672	9.0
49.687	14.0
49.702	5.0
49.717	10.0
49.732	9.0
49.747	7.0
49.762	6.0
49.777	7.0
49.792	7.0
49.807	6.0
49.822	7.0
49.837	6.0
49.852	3.0
49.867	2.0
49.882	7.0
49.897	6.0
49.912	2.0
49.927	5.0
49.942	3.0
49.957	4.0
49.971	1.0
49.986	6.0
50.001	3.0
50.016	3.0
50.031	5.0
50.046	5.0
50.061	6.0
50.076	3.0
50.091	9.0
50.106	8.0
50.121	3.0
50.136	1.0
50.151	4.0
50.166	4.0
50.181	1.0
50.196	1.0
50.211	5.0
50.226	5.0
50.241	3.0
50.256	4.0
50.271	3.0
50.286	5.0
50.302	5.0
50.317	7.0
50.332	5.0
50.347	3.0
50.362	3.0
50.377	7.0
50.392	6.0
50.407	8.0
50.422	8.0
50.437	5.0
50.452	9.0
50.467	7.0
50.482	7.0
50.497	4.0
50.512	10.0
50.527	7.0
50.542	7.0
50.557	7.0
50.572	6.0
50.587	2.0
50.602	3.0
50.617	4.0
50.632	7.0
50.647	8.0
50.662	3.0
50.677	8.0
50.692	6.0
50.707	3.0
50.722	12.0
50.737	5.0
50.752	2.0
50.767	11.0
50.782	9.0
50.797	6.0
50.812	3.0
50.828	4.0
50.843	5.0
50.858	4.0
50.873	6.0
50.888	5.0
50.903	4.0
50.918	3.0
50.933	7.0
50.948	3.0
50.963	4.0
50.978	6.0
50.993	4.0
51.008	2.0
51.023	4.0
51.038	6.0
51.053	6.0
51.068	6.0
51.083	5.0
51.098	4.0
51.114	5.0
51.129	3.0
51.144	4.0
51.159	3.0
51.174	6.0
51.189	7.0
51.204	1.0
51.219	6.0
51.234	6.0
51.249	3.0
51.264	6.0
51.279	7.0
51.294	1.0
51.309	5.0
51.324	5.0
51.34	6.0
51.355	9.0
51.37	7.0
51.385	9.0
51.4	10.0
51.415	14.0
51.43	8.0
51.445	13.0
51.46	10.0
51.475	7.0
51.49	12.0
51.505	13.0
51.52	11.0
51.535	15.0
51.551	14.0
51.566	15.0
51.581	10.0
51.596	13.0
51.611	11.0
51.626	10.0
51.641	6.0
51.656	8.0
51.671	6.0
51.686	9.0
51.701	4.0
51.716	7.0
51.732	9.0
51.747	4.0
51.762	7.0
51.777	7.0
51.792	11.0
51.807	18.0
51.822	12.0
51.837	6.0
51.852	10.0
51.867	11.0
51.882	7.0
51.898	11.0
51.913	5.0
51.928	17.0
51.943	10.0
51.958	4.0
51.973	6.0
51.988	3.0
52.003	3.0
52.018	4.0
52.033	8.0
52.048	3.0
52.064	7.0
52.079	6.0
52.094	5.0
52.109	9.0
52.124	6.0
52.139	5.0
52.154	3.0
52.169	3.0
52.184	5.0
52.199	4.0
52.215	5.0
52.23	3.0
52.245	5.0
52.26	3.0
52.275	5.0
52.29	4.0
52.305	8.0
52.32	3.0
52.335	4.0
52.35	5.0
52.366	4.0
52.381	2.0
52.396	3.0
52.411	8.0
52.426	7.0
52.441	7.0
52.456	6.0
52.471	6.0
52.486	7.0
52.502	4.0
52.517	5.0
52.532	6.0
52.547	12.0
52.562	9.0
52.577	9.0
52.592	13.0
52.607	10.0
52.622	11.0
52.637	8.0
52.653	11.0
52.668	14.0
52.683	7.0
52.698	8.0
52.713	6.0
52.728	4.0
52.743	2.0
52.758	6.0
52.774	2.0
52.789	2.0
52.804	6.0
52.819	10.0
52.834	6.0
52.849	7.0
52.864	7.0
52.879	7.0
52.894	7.0
52.91	7.0
52.925	6.0
52.94	3.0
52.955	10.0
52.97	7.0
52.985	2.0
53.0	5.0
53.015	6.0
53.031	2.0
53.046	6.0
53.061	5.0
53.076	4.0
53.091	4.0
53.106	8.0
53.121	5.0
53.136	8.0
53.152	7.0
53.167	6.0
53.182	4.0
53.197	4.0
53.212	6.0
53.227	7.0
53.242	4.0
53.257	3.0
53.273	6.0
53.288	8.0
53.303	7.0
53.318	2.0
53.333	7.0
53.348	4.0
53.363	1.0
53.379	3.0
53.394	5.0
53.409	2.0
53.424	7.0
53.439	7.0
53.454	4.0
53.469	4.0
53.484	3.0
53.5	2.0
53.515	4.0
53.53	9.0
53.545	2.0
53.56	5.0
53.575	4.0
53.59	2.0
53.606	4.0
53.621	6.0
53.636	4.0
53.651	7.0
53.666	4.0
53.681	8.0
53.696	4.0
53.712	4.0
53.727	4.0
53.742	4.0
53.757	4.0
53.772	4.0
53.787	6.0
53.802	8.0
53.818	6.0
53.833	4.0
53.848	2.0
53.863	2.0
53.878	6.0
53.893	2.0
53.909	3.0
53.924	8.0
53.939	4.0
53.954	5.0
53.969	4.0
53.984	5.0
53.999	3.0
54.015	7.0
54.03	5.0
54.045	1.0
54.06	8.0
54.075	6.0
54.09	3.0
54.106	5.0
54.121	7.0
54.136	3.0
54.151	5.0
54.166	3.0
54.181	4.0
54.197	2.0
54.212	9.0
54.227	3.0
54.242	4.0
54.257	2.0
54.272	2.0
54.288	4.0
54.303	5.0
54.318	5.0
54.333	2.0
54.348	9.0
54.363	3.0
54.379	4.0
54.394	4.0
54.409	3.0
54.424	6.0
54.439	4.0
54.454	4.0
54.47	7.0
54.485	7.0
54.5	6.0
54.515	8.0
54.53	8.0
54.545	6.0
54.561	3.0
54.576	8.0
54.591	16.0
54.606	7.0
54.621	6.0
54.636	11.0
54.652	9.0
54.667	23.0
54.682	12.0
54.697	17.0
54.712	15.0
54.727	14.0
54.743	3.0
54.758	4.0
54.773	8.0
54.788	10.0
54.803	6.0
54.819	7.0
54.834	6.0
54.849	6.0
54.864	5.0
54.879	7.0
54.894	4.0
54.91	7.0
54.925	6.0
54.94	11.0
54.955	11.0
54.97	13.0
54.985	8.0
55.001	14.0
55.016	10.0
55.031	14.0
55.046	10.0
55.061	12.0
55.077	7.0
55.092	7.0
55.107	4.0
55.122	8.0
55.137	5.0
55.152	4.0
55.168	5.0
55.183	4.0
55.198	9.0
55.213	5.0
55.228	3.0
55.243	3.0
55.259	1.0
55.274	4.0
55.289	2.0
55.304	2.0
55.319	7.0
55.335	6.0
55.35	4.0
55.365	6.0
55.38	4.0
55.395	3.0
55.41	4.0
55.426	6.0
55.441	4.0
55.456	6.0
55.471	3.0
55.486	8.0
55.501	4.0
55.517	6.0
55.532	10.0
55.547	6.0
55.562	4.0
55.577	4.0
55.592	6.0
55.608	2.0
55.623	7.0
55.638	11.0
55.653	2.0
55.668	3.0
55.683	7.0
55.699	7.0
55.714	6.0
55.729	2.0
55.744	7.0
55.759	7.0
55.774	2.0
55.79	5.0
55.805	3.0
55.82	3.0
55.835	4.0
55.85	2.0
55.865	5.0
55.881	1.0
55.896	4.0
55.911	8.0
55.926	7.0
55.941	2.0
55.956	2.0
55.972	3.0
55.987	3.0
56.002	3.0
56.017	7.0
56.032	6.0
56.047	5.0
56.063	7.0
56.078	5.0
56.093	9.0
56.108	3.0
56.123	6.0
56.138	6.0
56.154	4.0
56.169	4.0
56.184	4.0
56.199	2.0
56.214	6.0
56.229	6.0
56.244	2.0
56.26	10.0
56.275	6.0
56.29	8.0
56.305	4.0
56.32	2.0
56.335	3.0
56.351	3.0
56.366	2.0
56.381	6.0
56.396	5.0
56.411	1.0
56.426	5.0
56.441	1.0
56.457	5.0
56.472	1.0
56.487	7.0
56.502	5.0
56.517	4.0
56.532	3.0
56.547	2.0
56.563	2.0
56.578	5.0
56.593	4.0
56.608	6.0
56.623	1.0
56.638	10.0
56.653	1.0
56.668	6.0
56.684	5.0
56.699	4.0
56.714	2.0
56.729	5.0
56.744	6.0
56.759	6.0
56.774	4.0
56.79	4.0
56.805	5.0
56.82	5.0
56.835	7.0
56.85	2.0
56.865	2.0
56.88	5.0
56.895	5.0
56.911	5.0
56.926	6.0
56.941	5.0
56.956	2.0
56.971	4.0
56.986	1.0
57.001	2.0
57.016	2.0
57.031	8.0
57.047	3.0
57.062	4.0
57.077	4.0
57.092	7.0
57.107	5.0
57.122	2.0
57.137	5.0
57.152	5.0
57.167	5.0
57.183	1.0
57.198	6.0
57.213	3.0
57.228	7.0
57.243	10.0
57.258	6.0
57.273	5.0
57.288	4.0
57.303	4.0
57.318	4.0
57.334	6.0
57.349	3.0
57.364	4.0
57.379	5.0
57.394	5.0
57.409	5.0
57.424	2.0
57.439	1.0
57.454	2.0
57.469	7.0
57.484	4.0
57.5	1.0
57.515	4.0
57.53	3.0
57.545	13.0
57.56	7.0
57.575	5.0
57.59	8.0
57.605	3.0
57.62	2.0
57.635	6.0
57.65	4.0
57.665	6.0
57.68	3.0
57.696	8.0
57.711	5.0
57.726	4.0
57.741	8.0
57.756	5.0
57.771	3.0
57.786	6.0
57.801	8.0
57.816	5.0
57.831	6.0
57.846	5.0
57.861	5.0
57.876	5.0
57.891	7.0
57.906	5.0
57.921	5.0
57.937	3.0
57.952	2.0
57.967	6.0
57.982	5.0
57.997	7.0
58.012	5.0
58.027	8.0
58.042	1.0
58.057	6.0
58.072	6.0
58.087	3.0
58.102	6.0
58.117	2.0
58.132	3.0
58.147	4.0
58.162	3.0
58.177	3.0
58.192	3.0
58.207	4.0
58.222	7.0
58.237	4.0
58.252	3.0
58.267	7.0
58.282	7.0
58.297	6.0
58.312	4.0
58.327	8.0
58.342	1.0
58.357	3.0
58.372	11.0
58.387	2.0
58.402	2.0
58.418	2.0
58.433	6.0
58.448	5.0
58.463	9.0
58.478	4.0
58.493	3.0
58.508	4.0
58.523	3.0
58.538	8.0
58.553	3.0
58.568	9.0
58.583	9.0
58.598	8.0
58.613	7.0
58.628	3.0
58.643	5.0
58.658	7.0
58.673	11.0
58.688	11.0
58.703	13.0
58.718	7.0
58.733	2.0
58.748	5.0
58.763	6.0
58.778	5.0
58.793	4.0
58.808	0.0
58.823	5.0
58.838	6.0
58.853	3.0
58.868	3.0
58.883	8.0
58.898	2.0
58.913	1.0
58.928	2.0
58.942	6.0
58.957	9.0
58.972	7.0
58.987	5.0
59.002	5.0
59.017	6.0
59.032	6.0
59.047	6.0
59.062	3.0
59.077	5.0
59.092	2.0
59.107	4.0
59.122	3.0
59.137	5.0
59.152	3.0
59.167	4.0
59.182	3.0
59.197	4.0
59.212	4.0
59.227	5.0
59.242	3.0
59.257	4.0
59.272	7.0
59.287	5.0
59.302	4.0
59.317	3.0
59.332	7.0
59.347	2.0
59.362	4.0
59.377	4.0
59.392	3.0
59.407	7.0
59.422	3.0
59.437	5.0
59.452	3.0
59.467	7.0
59.482	4.0
59.497	4.0
59.512	3.0
59.527	5.0
59.542	9.0
59.557	5.0
59.572	8.0
59.587	5.0
59.602	9.0
59.617	15.0
59.632	5.0
59.647	7.0
59.661	7.0
59.676	7.0
59.691	5.0
59.706	5.0
59.721	7.0
59.736	3.0
59.751	2.0
59.766	4.0
59.781	1.0
59.796	3.0
59.811	2.0
59.826	3.0
59.841	8.0
59.856	6.0
59.871	4.0
59.886	5.0
59.901	8.0
59.916	3.0
59.931	5.0
59.946	4.0
59.961	7.0
59.976	5.0
59.991	5.0
60.006	8.0
60.021	9.0
60.036	3.0
60.051	6.0
60.066	7.0
60.081	1.0
60.096	10.0
60.111	4.0
60.126	6.0
60.141	5.0
60.156	2.0
60.171	7.0
60.186	4.0
60.201	2.0
60.216	5.0
60.231	2.0
60.246	4.0
60.261	3.0
60.276	1.0
60.291	8.0
60.306	0.0
60.321	3.0
60.336	6.0
60.35	8.0
60.365	3.0
60.38	4.0
60.395	5.0
60.41	1.0
60.425	4.0
60.44	4.0
60.455	4.0
60.47	5.0
60.485	2.0
60.5	9.0
60.515	2.0
60.53	7.0
60.545	10.0
60.56	11.0
60.575	11.0
60.59	11.0
60.605	4.0
60.62	5.0
60.635	7.0
60.65	10.0
60.665	5.0
60.68	8.0
60.695	7.0
60.71	6.0
60.725	3.0
60.74	1.0
60.755	6.0
60.77	2.0
60.785	3.0
60.8	8.0
60.815	5.0
60.83	5.0
60.845	3.0
60.86	2.0
60.875	7.0
60.89	7.0
60.905	6.0
60.92	7.0
60.935	5.0
60.95	6.0
60.965	9.0
60.98	6.0
60.995	4.0
61.01	9.0
61.025	6.0
61.04	3.0
61.055	4.0
61.07	7.0
61.085	6.0
61.1	6.0
61.115	3.0
61.13	8.0
61.145	3.0
61.16	6.0
61.175	2.0
61.191	4.0
61.206	6.0
61.221	3.0
61.236	2.0
61.251	7.0
61.266	3.0
61.281	3.0
61.296	3.0
61.311	6.0
61.326	4.0
61.341	4.0
61.356	4.0
61.371	7.0
61.386	3.0
61.401	7.0
61.416	4.0
61.431	4.0
61.446	3.0
61.461	3.0
61.476	3.0
61.491	8.0
61.506	1.0
61.521	10.0
61.536	4.0
61.551	8.0
61.566	7.0
61.581	7.0
61.596	5.0
61.611	4.0
61.626	3.0
61.641	5.0
61.656	6.0
61.672	2.0
61.687	6.0
61.702	6.0
61.717	3.0
61.732	2.0
61.747	3.0
61.762	11.0
61.777	3.0
61.792	5.0
61.807	3.0
61.822	2.0
61.837	5.0
61.852	4.0
61.867	6.0
61.882	2.0
61.897	10.0
61.912	8.0
61.927	3.0
61.943	5.0
61.958	5.0
61.973	5.0
61.988	5.0
62.003	6.0
62.018	0.0
62.033	3.0
62.048	3.0
62.063	3.0
62.078	2.0
62.093	2.0
62.108	3.0
62.123	2.0
62.138	2.0
62.153	3.0
62.169	4.0
62.184	4.0
62.199	6.0
62.214	3.0
62.229	4.0
62.244	6.0
62.259	2.0
62.274	3.0
62.289	3.0
62.304	5.0
62.319	1.0
62.335	5.0
62.35	2.0
62.365	5.0
62.38	3.0
62.395	5.0
62.41	8.0
62.425	2.0
62.44	4.0
62.455	4.0
62.47	4.0
62.485	8.0
62.501	3.0
62.516	3.0
62.531	4.0
62.546	2.0
62.561	2.0
62.576	6.0
62.591	1.0
62.606	1.0
62.621	6.0
62.636	3.0
62.652	3.0
62.667	1.0
62.682	7.0
62.697	1.0
62.712	5.0
62.727	5.0
62.742	5.0
62.757	3.0
62.772	10.0
62.787	5.0
62.803	3.0
62.818	5.0
62.833	8.0
62.848	1.0
62.863	4.0
62.878	6.0
62.893	6.0
62.908	3.0
62.923	4.0
62.939	3.0
62.954	9.0
62.969	7.0
62.984	5.0
62.999	4.0
63.014	3.0
63.029	5.0
63.044	4.0
63.059	5.0
63.074	4.0
63.09	3.0
63.105	4.0
63.12	3.0
63.135	5.0
63.15	2.0
63.165	3.0
63.18	8.0
63.195	4.0
63.21	1.0
63.226	4.0
63.241	4.0
63.256	3.0
63.271	7.0
63.286	5.0
63.301	4.0
63.316	8.0
63.331	8.0
63.346	7.0
63.362	8.0
63.377	5.0
63.392	7.0
63.407	2.0
63.422	1.0
63.437	6.0
63.452	5.0
63.467	9.0
63.482	4.0
63.497	3.0
63.513	9.0
63.528	6.0
63.543	2.0
63.558	3.0
63.573	5.0
63.588	1.0
63.603	4.0
63.618	1.0
63.633	4.0
63.648	2.0
63.664	4.0
63.679	1.0
63.694	3.0
63.709	3.0
63.724	5.0
63.739	1.0
63.754	4.0
63.769	4.0
63.784	3.0
63.799	6.0
63.814	6.0
63.83	1.0
63.845	3.0
63.86	6.0
63.875	9.0
63.89	5.0
63.905	9.0
63.92	2.0
63.935	2.0
63.95	5.0
63.965	9.0
63.98	6.0
63.996	4.0
64.011	9.0
64.026	5.0
64.041	1.0
64.056	3.0
64.071	2.0
64.086	7.0
64.101	5.0
64.116	1.0
64.131	4.0
64.146	5.0
64.161	4.0
64.176	1.0
64.191	7.0
64.207	4.0
64.222	3.0
64.237	1.0
64.252	2.0
64.267	6.0
64.282	6.0
64.297	2.0
64.312	2.0
64.327	4.0
64.342	5.0
64.357	1.0
64.372	4.0
64.387	5.0
64.402	4.0
64.417	3.0
64.433	5.0
64.448	5.0
64.463	3.0
64.478	5.0
64.493	3.0
64.508	4.0
64.523	2.0
64.538	3.0
64.553	6.0
64.568	4.0
64.583	3.0
64.598	3.0
64.613	3.0
64.628	4.0
64.643	3.0
64.658	5.0
64.673	4.0
64.688	2.0
64.703	9.0
64.718	5.0
64.734	3.0
64.749	7.0
64.764	5.0
64.779	4.0
64.794	5.0
64.809	4.0
64.824	2.0
64.839	3.0
64.854	3.0
64.869	5.0
64.884	4.0
64.899	5.0
64.914	5.0
64.929	4.0
64.944	1.0
64.959	4.0
64.974	4.0
64.989	0.0
65.004	4.0
65.019	7.0
65.034	2.0
65.049	4.0
65.064	3.0
65.079	6.0
65.094	2.0
65.109	1.0
65.125	1.0
65.14	3.0
65.155	2.0
65.17	5.0
65.185	1.0
65.2	6.0
65.215	6.0
65.23	3.0
65.245	2.0
65.26	5.0
65.275	6.0
65.29	5.0
65.305	2.0
65.32	2.0
65.335	3.0
65.35	4.0
65.365	0.0
65.38	4.0
65.395	4.0
65.41	3.0
65.425	6.0
65.44	5.0
65.455	4.0
65.47	2.0
65.485	5.0
65.5	5.0
65.515	5.0
65.53	5.0
65.545	1.0
65.56	5.0
65.575	2.0
65.59	1.0
65.605	3.0
65.62	2.0
65.635	5.0
65.65	5.0
65.666	4.0
65.681	5.0
65.696	5.0
65.711	3.0
65.726	4.0
65.741	3.0
65.756	0.0
65.771	5.0
65.786	2.0
65.801	4.0
65.816	6.0
65.831	4.0
65.846	4.0
65.861	5.0
65.876	2.0
65.891	3.0
65.906	8.0
65.921	5.0
65.936	4.0
65.951	4.0
65.966	1.0
65.981	6.0
65.996	4.0
66.011	6.0
66.026	2.0
66.041	1.0
66.056	2.0
66.071	4.0
66.086	2.0
66.101	8.0
66.116	8.0
66.131	12.0
66.146	4.0
66.161	10.0
66.176	7.0
66.191	4.0
66.206	13.0
66.221	7.0
66.236	7.0
66.251	7.0
66.266	6.0
66.281	9.0
66.296	7.0
66.311	4.0
66.327	1.0
66.342	7.0
66.357	3.0
66.372	4.0
66.387	4.0
66.402	4.0
66.417	5.0
66.432	5.0
66.447	4.0
66.462	5.0
66.477	2.0
66.492	7.0
66.507	2.0
66.522	7.0
66.537	3.0
66.552	6.0
66.567	3.0
66.582	3.0
66.597	11.0
66.612	7.0
66.627	4.0
66.642	3.0
66.657	7.0
66.672	5.0
66.687	6.0
66.702	7.0
66.717	11.0
66.732	1.0
66.747	3.0
66.762	5.0
66.777	5.0
66.792	2.0
66.807	4.0
66.822	3.0
66.837	0.0
66.853	4.0
66.868	4.0
66.883	3.0
66.898	1.0
66.913	2.0
66.928	2.0
66.943	4.0
66.958	6.0
66.973	7.0
66.988	1.0
67.003	4.0
67.018	3.0
67.033	5.0
67.048	9.0
67.063	2.0
67.078	4.0
67.093	6.0
67.108	7.0
67.123	2.0
67.138	9.0
67.153	5.0
67.168	5.0
67.183	6.0
67.198	4.0
67.214	3.0
67.229	0.0
67.244	4.0
67.259	3.0
67.274	2.0
67.289	1.0
67.304	3.0
67.319	4.0
67.334	5.0
67.349	5.0
67.364	4.0
67.379	2.0
67.394	4.0
67.409	3.0
67.424	3.0
67.439	1.0
67.454	1.0
67.469	5.0
67.484	6.0
67.5	3.0
67.515	5.0
67.53	3.0
67.545	4.0
67.56	6.0
67.575	4.0
67.59	3.0
67.605	4.0
67.62	1.0
67.635	2.0
67.65	2.0
67.665	1.0
67.68	3.0
67.695	3.0
67.71	5.0
67.726	5.0
67.741	6.0
67.756	3.0
67.771	5.0
67.786	2.0
67.801	5.0
67.816	7.0
67.831	5.0
67.846	1.0
67.861	7.0
67.876	5.0
67.891	4.0
67.906	4.0
67.922	2.0
67.937	3.0
67.952	6.0
67.967	8.0
67.982	5.0
67.997	3.0
68.012	3.0
68.027	5.0
68.042	8.0
68.057	6.0
68.072	3.0
68.087	3.0
68.103	2.0
68.118	4.0
68.133	2.0
68.148	1.0
68.163	3.0
68.178	4.0
68.193	2.0
68.208	3.0
68.223	4.0
68.238	0.0
68.254	4.0
68.269	2.0
68.284	3.0
68.299	2.0
68.314	0.0
68.329	2.0
68.344	5.0
68.359	6.0
68.374	5.0
68.389	3.0
68.405	1.0
68.42	5.0
68.435	3.0
68.45	5.0
68.465	8.0
68.48	4.0
68.495	2.0
68.51	1.0
68.525	1.0
68.54	2.0
68.556	4.0
68.571	3.0
68.586	2.0
68.601	2.0
68.616	4.0
68.631	1.0
68.646	4.0
68.661	3.0
68.676	4.0
68.691	5.0
68.707	5.0
68.722	5.0
68.737	6.0
68.752	2.0
68.767	0.0
68.782	5.0
68.797	2.0
68.812	0.0
68.827	7.0
68.842	4.0
68.857	2.0
68.873	5.0
68.888	5.0
68.903	6.0
68.918	5.0
68.933	1.0
68.948	3.0
68.963	5.0
68.978	5.0
68.993	4.0
69.008	3.0
69.023	4.0
69.038	5.0
69.054	4.0
69.069	2.0
69.084	2.0
69.099	4.0
69.114	5.0
69.129	4.0
69.144	3.0
69.159	6.0
69.174	6.0
69.189	1.0
69.204	4.0
69.219	10.0
69.234	5.0
69.249	1.0
69.264	2.0
69.279	5.0
69.295	6.0
69.31	7.0
69.325	3.0
69.34	2.0
69.355	4.0
69.37	3.0
69.385	4.0
69.4	6.0
69.415	1.0
69.43	2.0
69.445	3.0
69.46	0.0
69.475	2.0
69.49	1.0
69.505	3.0
69.52	2.0
69.535	2.0
69.55	6.0
69.565	4.0
69.58	5.0
69.595	5.0
69.61	5.0
69.625	5.0
69.64	3.0
69.655	3.0
69.67	1.0
69.685	8.0
69.7	2.0
69.715	3.0
69.73	4.0
69.745	4.0
69.76	6.0
69.775	2.0
69.79	7.0
69.805	6.0
69.82	7.0
69.835	5.0
69.85	8.0
69.865	8.0
69.88	4.0
69.895	1.0
69.909	4.0
69.924	6.0
69.939	3.0
69.954	2.0
69.969	5.0
69.984	5.0
69.999	3.0
70.014	1.0
70.029	3.0
70.044	1.0
70.059	2.0
70.074	4.0
70.088	5.0
70.103	1.0
70.118	3.0
70.133	5.0
70.148	2.0
70.163	6.0
70.178	6.0
70.193	4.0
70.208	2.0
70.222	5.0
70.237	8.0
70.252	7.0
70.267	4.0
70.282	5.0
70.297	3.0
70.312	5.0
70.327	5.0
70.341	4.0
70.356	4.0
70.371	3.0
70.386	4.0
70.401	3.0
70.416	2.0
70.43	7.0
70.445	4.0
70.46	3.0
70.475	4.0
70.49	3.0
70.505	6.0
70.519	1.0
70.534	1.0
70.549	4.0
70.564	5.0
70.579	2.0
70.594	3.0
70.608	5.0
70.623	2.0
70.638	7.0
70.653	3.0
70.668	3.0
70.683	5.0
70.697	6.0
70.712	5.0
70.727	6.0
70.742	5.0
70.757	1.0
70.771	4.0
70.786	7.0
70.801	8.0
70.816	4.0
70.831	2.0
70.845	4.0
70.86	4.0
70.875	3.0
70.89	3.0
70.905	1.0
70.92	2.0
70.934	1.0
70.949	2.0
70.964	2.0
70.979	5.0
70.994	4.0
71.008	6.0
71.023	4.0
71.038	9.0
71.053	4.0
71.068	4.0
71.082	5.0
71.097	7.0
71.112	6.0
71.127	3.0
71.142	6.0
71.156	7.0
71.171	4.0
71.186	4.0
71.201	5.0
71.216	0.0
71.231	4.0
71.245	3.0
71.26	4.0
71.275	3.0
71.29	1.0
71.305	1.0
71.319	6.0
71.334	5.0
71.349	1.0
71.364	2.0
71.379	3.0
71.394	2.0
71.408	4.0
71.423	0.0
71.438	2.0
71.453	7.0
71.468	2.0
71.483	2.0
71.497	2.0
71.512	4.0
71.527	3.0
71.542	4.0
71.557	4.0
71.572	3.0
71.586	2.0
71.601	1.0
71.616	2.0
71.631	1.0
71.646	7.0
71.661	4.0
71.676	4.0
71.69	2.0
71.705	1.0
71.72	2.0
71.735	4.0
71.75	7.0
71.765	1.0
71.78	3.0
71.795	3.0
71.81	1.0
71.824	2.0
71.839	3.0
71.854	1.0
71.869	6.0
71.884	1.0
71.899	0.0
71.914	2.0
71.929	1.0
71.944	4.0
71.959	4.0
71.974	6.0
71.988	8.0
72.003	5.0
72.018	6.0
72.033	2.0
72.048	1.0
72.063	3.0
72.078	5.0
72.093	2.0
72.108	2.0
72.123	3.0
72.138	8.0
72.153	5.0
72.168	3.0
72.183	2.0
72.198	2.0
72.213	3.0
72.228	4.0
72.243	2.0
72.258	3.0
72.273	3.0
72.288	7.0
72.303	3.0
72.318	8.0
72.333	6.0
72.348	5.0
72.363	2.0
72.378	1.0
72.393	4.0
72.408	3.0
72.423	1.0
72.438	0.0
72.453	2.0
72.468	6.0
72.483	3.0
72.498	2.0
72.513	2.0
72.528	7.0
72.543	4.0
72.558	2.0
72.573	2.0
72.588	2.0
72.603	5.0
72.618	3.0
72.633	1.0
72.649	4.0
72.664	4.0
72.679	1.0
72.694	3.0
72.709	2.0
72.724	3.0
72.739	3.0
72.754	6.0
72.769	2.0
72.784	3.0
72.799	3.0
72.814	5.0
72.829	3.0
72.845	7.0
72.86	2.0
72.875	2.0
72.89	2.0
72.905	4.0
72.92	4.0
72.935	6.0
72.95	6.0
72.965	6.0
72.98	2.0
72.996	5.0
73.011	3.0
73.026	2.0
73.041	4.0
73.056	4.0
73.071	5.0
73.086	3.0
73.101	4.0
73.117	1.0
73.132	3.0
73.147	1.0
73.162	2.0
73.177	3.0
73.192	3.0
73.207	3.0
73.222	4.0
73.238	2.0
73.253	1.0
73.268	1.0
73.283	5.0
73.298	3.0
73.313	6.0
73.328	7.0
73.343	2.0
73.359	7.0
73.374	4.0
73.389	4.0
73.404	1.0
73.419	4.0
73.434	4.0
73.449	3.0
73.465	0.0
73.48	0.0
73.495	4.0
73.51	5.0
73.525	3.0
73.54	4.0
73.556	4.0
73.571	4.0
73.586	3.0
73.601	2.0
73.616	1.0
73.631	4.0
73.646	0.0
73.662	5.0
73.677	7.0
73.692	2.0
73.707	4.0
73.722	6.0
73.737	5.0
73.752	8.0
73.768	6.0
73.783	5.0
73.798	3.0
73.813	5.0
73.828	4.0
73.843	4.0
73.859	2.0
73.874	4.0
73.889	1.0
73.904	4.0
73.919	7.0
73.934	5.0
73.949	4.0
73.965	2.0
73.98	6.0
73.995	2.0
74.01	1.0
74.025	3.0
74.04	5.0
74.056	1.0
74.071	6.0
74.086	4.0
74.101	3.0
74.116	4.0
74.131	4.0
74.146	2.0
74.162	3.0
74.177	10.0
74.192	5.0
74.207	5.0
74.222	6.0
74.237	5.0
74.252	6.0
74.268	5.0
74.283	5.0
74.298	11.0
74.313	2.0
74.328	3.0
74.343	2.0
74.358	3.0
74.374	1.0
74.389	7.0
74.404	2.0
74.419	3.0
74.434	2.0
74.449	0.0
74.464	2.0
74.48	4.0
74.495	6.0
74.51	8.0
74.525	4.0
74.54	0.0
74.555	7.0
74.57	3.0
74.586	5.0
74.601	1.0
74.616	1.0
74.631	6.0
74.646	4.0
74.661	10.0
74.676	3.0
74.691	1.0
74.707	1.0
74.722	3.0
74.737	4.0
74.752	4.0
74.767	5.0
74.782	5.0
74.797	7.0
74.813	2.0
74.828	3.0
74.843	7.0
74.858	3.0
74.873	2.0
74.888	3.0
74.903	1.0
74.918	4.0
74.934	3.0
74.949	2.0
74.964	1.0
74.979	2.0
74.994	2.0
75.009	11.0
75.024	7.0
75.04	10.0
75.055	3.0
75.07	2.0
75.085	5.0
75.1	6.0
75.115	7.0
75.13	1.0
75.145	6.0
75.161	5.0
75.176	6.0
75.191	4.0
75.206	3.0
75.221	1.0
75.236	6.0
75.251	4.0
75.266	2.0
75.282	2.0
75.297	1.0
75.312	3.0
75.327	2.0
75.342	2.0
75.357	7.0
75.372	3.0
75.387	5.0
75.403	2.0
75.418	2.0
75.433	4.0
75.448	3.0
75.463	1.0
75.478	6.0
75.493	2.0
75.509	6.0
75.524	4.0
75.539	2.0
75.554	2.0
75.569	6.0
75.584	2.0
75.599	2.0
75.614	6.0
75.63	5.0
75.645	3.0
75.66	7.0
75.675	4.0
75.69	3.0
75.705	4.0
75.72	3.0
75.735	4.0
75.751	0.0
75.766	2.0
75.781	4.0
75.796	3.0
75.811	3.0
75.826	2.0
75.841	3.0
75.856	5.0
75.872	1.0
75.887	1.0
75.902	2.0
75.917	8.0
75.932	3.0
75.947	2.0
75.962	2.0
75.977	2.0
75.993	1.0
76.008	2.0
76.023	6.0
76.038	1.0
76.053	4.0
76.068	4.0
76.083	4.0
76.098	2.0
76.114	7.0
76.129	3.0
76.144	8.0
76.159	2.0
76.174	3.0
76.189	3.0
76.204	3.0
76.22	4.0
76.235	7.0
76.25	5.0
76.265	6.0
76.28	3.0
76.295	4.0
76.31	6.0
76.325	3.0
76.341	1.0
76.356	1.0
76.371	4.0
76.386	3.0
76.401	4.0
76.416	2.0
76.431	3.0
76.446	7.0
76.462	5.0
76.477	3.0
76.492	4.0
76.507	3.0
76.522	3.0
76.537	0.0
76.552	4.0
76.567	2.0
76.583	1.0
76.598	1.0
76.613	3.0
76.628	6.0
76.643	3.0
76.658	5.0
76.673	5.0
76.688	2.0
76.704	3.0
76.719	3.0
76.734	4.0
76.749	4.0
76.764	4.0
76.779	5.0
76.794	8.0
76.809	5.0
76.824	3.0
76.84	5.0
76.855	3.0
76.87	3.0
76.885	6.0
76.9	4.0
76.915	1.0
76.93	8.0
76.945	5.0
76.96	3.0
76.976	2.0
76.991	4.0
77.006	5.0
77.021	2.0
77.036	4.0
77.051	4.0
77.066	7.0
77.081	4.0
77.096	2.0
77.112	3.0
77.127	3.0
77.142	4.0
77.157	3.0
77.172	1.0
77.187	4.0
77.202	0.0
77.217	4.0
77.232	1.0
77.247	4.0
77.263	6.0
77.278	5.0
77.293	3.0
77.308	1.0
77.323	4.0
77.338	1.0
77.353	2.0
77.368	2.0
77.383	4.0
77.398	4.0
77.413	4.0
77.428	1.0
77.444	5.0
77.459	2.0
77.474	3.0
77.489	2.0
77.504	3.0
77.519	4.0
77.534	1.0
77.549	4.0
77.564	7.0
77.579	10.0
77.594	4.0
77.609	2.0
77.624	9.0
77.64	6.0
77.655	6.0
77.67	10.0
77.685	6.0
77.7	6.0
77.715	4.0
77.73	1.0
77.745	4.0
77.76	6.0
77.775	2.0
77.79	2.0
77.805	6.0
77.82	3.0
77.835	3.0
77.85	1.0
77.865	3.0
77.88	4.0
77.895	3.0
77.91	8.0
77.926	4.0
77.941	1.0
77.956	2.0
77.971	0.0
77.986	2.0
78.001	2.0
78.016	2.0
78.031	3.0
78.046	2.0
78.061	5.0
78.076	5.0
78.091	4.0
78.106	3.0
78.121	3.0
78.136	3.0
78.151	1.0
78.166	5.0
78.181	3.0
78.196	2.0
78.211	1.0
78.226	4.0
78.241	3.0
78.256	2.0
78.271	4.0
78.286	3.0
78.301	2.0
78.316	7.0
78.331	4.0
78.346	1.0
78.361	4.0
78.376	1.0
78.391	2.0
78.406	0.0
78.421	1.0
78.436	6.0
78.451	4.0
78.466	5.0
78.481	4.0
78.496	2.0
78.511	2.0
78.526	3.0
78.541	4.0
78.556	4.0
78.571	2.0
78.586	3.0
78.601	2.0
78.616	3.0
78.631	3.0
78.646	2.0
78.661	1.0
78.676	2.0
78.691	3.0
78.706	5.0
78.721	2.0
78.736	1.0
78.751	2.0
78.766	5.0
78.781	2.0
78.796	3.0
78.811	2.0
78.826	2.0
78.841	3.0
78.856	2.0
78.871	2.0
78.885	5.0
78.9	5.0
78.915	6.0
78.93	1.0
78.945	6.0
78.96	2.0
78.975	2.0
78.99	2.0
79.005	2.0
79.02	5.0
79.035	0.0
79.05	3.0
79.065	5.0
79.08	5.0
79.095	1.0
79.11	1.0
79.125	6.0
79.14	5.0
79.155	2.0
79.17	2.0
79.185	3.0
79.2	4.0
79.215	3.0
79.23	2.0
79.245	3.0
79.26	5.0
79.275	3.0
79.29	3.0
79.304	3.0
79.319	3.0
79.334	2.0
79.349	4.0
79.364	1.0
79.379	3.0
79.394	4.0
79.409	1.0
79.424	4.0
79.439	5.0
79.454	1.0
79.469	2.0
79.484	1.0
79.499	2.0
79.514	3.0
79.529	4.0
79.544	1.0
79.559	2.0
79.574	4.0
79.589	3.0
79.604	1.0
79.619	6.0
79.634	1.0
79.649	4.0
79.664	3.0
79.679	3.0
79.693	7.0
79.708	1.0
79.723	3.0
79.738	2.0
79.753	0.0
79.768	3.0
79.783	2.0
79.798	3.0
79.813	3.0
79.828	2.0
79.843	2.0
79.858	3.0
79.873	4.0
79.888	4.0
79.903	4.0
79.918	3.0
79.933	5.0
79.948	7.0
79.963	4.0
79.978	2.0
79.993	6.0
80.008	4.0
80.023	1.0
80.038	4.0
80.053	4.0
80.068	3.0
80.083	3.0
80.098	3.0
80.113	7.0
80.128	2.0
80.143	0.0
80.158	2.0
80.173	6.0
80.188	2.0
80.202	3.0
80.217	7.0
80.232	7.0
80.247	4.0
80.262	1.0
80.277	3.0
80.292	1.0
80.307	1.0
80.322	2.0
80.337	3.0
80.352	4.0
80.367	3.0
80.382	3.0
80.397	2.0
80.412	2.0
80.427	3.0
80.442	5.0
80.457	4.0
80.472	3.0
80.487	3.0
80.502	4.0
80.517	4.0
80.532	1.0
80.547	6.0
80.562	2.0
80.577	5.0
80.592	4.0
80.607	5.0
80.622	4.0
80.637	4.0
80.652	1.0
80.667	3.0
80.682	2.0
80.697	4.0
80.712	0.0
80.727	1.0
80.742	3.0
80.757	3.0
80.772	5.0
80.787	3.0
80.802	3.0
80.817	1.0
80.832	5.0
80.847	3.0
80.862	2.0
80.877	3.0
80.892	1.0
80.907	0.0
80.922	6.0
80.937	3.0
80.952	2.0
80.967	2.0
80.982	5.0
80.997	2.0
81.012	4.0
81.027	2.0
81.042	4.0
81.057	5.0
81.072	3.0
81.087	5.0
81.101	1.0
81.116	3.0
81.131	2.0
81.146	4.0
81.161	4.0
81.176	7.0
81.191	0.0
81.206	5.0
81.221	3.0
81.236	3.0
81.251	1.0
81.266	2.0
81.281	2.0
81.296	2.0
81.311	2.0
81.326	4.0
81.341	1.0
81.356	4.0
81.371	2.0
81.386	4.0
81.401	2.0
81.416	1.0
81.431	1.0
81.446	6.0
81.461	0.0
81.476	2.0
81.491	1.0
81.506	6.0
81.521	1.0
81.536	5.0
81.55	4.0
81.565	2.0
81.58	3.0
81.595	4.0
81.61	5.0
81.625	1.0
81.64	4.0
81.655	5.0
81.67	1.0
81.685	4.0
81.7	0.0
81.715	4.0
81.73	4.0
81.745	6.0
81.76	3.0
81.775	4.0
81.79	7.0
81.805	2.0
81.819	3.0
81.834	3.0
81.849	4.0
81.864	2.0
81.879	8.0
81.894	5.0
81.909	1.0
81.924	3.0
81.939	2.0
81.954	3.0
81.969	3.0
81.984	4.0
81.999	1.0
82.013	3.0
82.028	3.0
82.043	4.0
82.058	1.0
82.073	4.0
82.088	0.0
82.103	5.0
82.118	4.0
82.133	4.0
82.148	3.0
82.163	1.0
82.177	5.0
82.192	1.0
82.207	7.0
82.222	5.0
82.237	0.0
82.252	3.0
82.267	5.0
82.282	0.0
82.297	4.0
82.312	4.0
82.326	5.0
82.341	4.0
82.356	3.0
82.371	3.0
82.386	4.0
82.401	4.0
82.416	1.0
82.431	5.0
82.445	0.0
82.46	3.0
82.475	6.0
82.49	3.0
82.505	4.0
82.52	2.0
82.535	7.0
82.55	1.0
82.565	2.0
82.579	4.0
82.594	2.0
82.609	0.0
82.624	2.0
82.639	5.0
82.654	3.0
82.669	6.0
82.684	0.0
82.698	5.0
82.713	4.0
82.728	2.0
82.743	4.0
82.758	6.0
82.773	3.0
82.788	4.0
82.803	2.0
82.817	4.0
82.832	0.0
82.847	2.0
82.862	6.0
82.877	1.0
82.892	5.0
82.907	2.0
82.922	3.0
82.937	4.0
82.951	5.0
82.966	1.0
82.981	3.0
82.996	3.0
83.011	3.0
83.026	1.0
83.041	5.0
83.056	3.0
83.07	1.0
83.085	3.0
83.1	1.0
83.115	1.0
83.13	1.0
83.145	1.0
83.16	5.0
83.175	3.0
83.19	2.0
83.204	3.0
83.219	5.0
83.234	2.0
83.249	0.0
83.264	5.0
83.279	3.0
83.294	6.0
83.309	3.0
83.324	3.0
83.339	2.0
83.353	3.0
83.368	3.0
83.383	1.0
83.398	4.0
83.413	3.0
83.428	6.0
83.443	2.0
83.458	2.0
83.473	0.0
83.488	3.0
83.503	4.0
83.517	2.0
83.532	9.0
83.547	2.0
83.562	6.0
83.577	2.0
83.592	5.0
83.607	7.0
83.622	4.0
83.637	6.0
83.652	2.0
83.667	2.0
83.682	6.0
83.697	5.0
83.712	3.0
83.727	2.0
83.741	2.0
83.756	4.0
83.771	3.0
83.786	2.0
83.801	4.0
83.816	4.0
83.831	3.0
83.846	1.0
83.861	1.0
83.876	2.0
83.891	1.0
83.906	1.0
83.921	3.0
83.936	2.0
83.951	3.0
83.966	2.0
83.981	3.0
83.996	3.0
84.011	3.0
84.026	3.0
84.041	4.0
84.056	2.0
84.071	4.0
84.086	2.0
84.101	4.0
84.116	2.0
84.131	5.0
84.146	0.0
84.161	5.0
84.176	4.0
84.191	1.0
84.206	3.0
84.221	2.0
84.236	4.0
84.251	3.0
84.266	3.0
84.281	1.0
84.296	3.0
84.311	4.0
84.326	4.0
84.341	3.0
84.356	2.0
84.371	6.0
84.386	3.0
84.401	4.0
84.416	0.0
84.431	1.0
84.446	4.0
84.461	0.0
84.476	1.0
84.492	5.0
84.507	5.0
84.522	0.0
84.537	1.0
84.552	6.0
84.567	4.0
84.582	3.0
84.597	4.0
84.612	3.0
84.627	1.0
84.642	6.0
84.657	2.0
84.672	6.0
84.687	3.0
84.702	2.0
84.717	3.0
84.733	0.0
84.748	2.0
84.763	4.0
84.778	3.0
84.793	0.0
84.808	1.0
84.823	4.0
84.838	3.0
84.853	2.0
84.868	6.0
84.883	1.0
84.898	2.0
84.913	4.0
84.929	1.0
84.944	5.0
84.959	4.0
84.974	4.0
84.989	5.0
85.004	3.0
85.019	4.0
85.034	3.0
85.049	3.0
85.064	3.0
85.079	2.0
85.094	2.0
85.11	2.0
85.125	4.0
85.14	2.0
85.155	1.0
85.17	1.0
85.185	2.0
85.2	4.0
85.215	3.0
85.23	3.0
85.245	6.0
85.26	6.0
85.276	2.0
85.291	1.0
85.306	2.0
85.321	2.0
85.336	3.0
85.351	1.0
85.366	0.0
85.381	2.0
85.396	1.0
85.411	1.0
85.426	5.0
85.441	3.0
85.457	1.0
85.472	5.0
85.487	1.0
85.502	2.0
85.517	6.0
85.532	3.0
85.547	0.0
85.562	2.0
85.577	3.0
85.592	4.0
85.607	2.0
85.622	3.0
85.637	5.0
85.653	5.0
85.668	3.0
85.683	2.0
85.698	0.0
85.713	1.0
85.728	5.0
85.743	1.0
85.758	2.0
85.773	4.0
85.788	4.0
85.803	3.0
85.818	2.0
85.833	3.0
85.848	1.0
85.863	1.0
85.879	1.0
85.894	6.0
85.909	3.0
85.924	1.0
85.939	2.0
85.954	3.0
85.969	6.0
85.984	5.0
85.999	3.0
86.014	2.0
86.029	7.0
86.044	6.0
86.059	3.0
86.074	2.0
86.089	3.0
86.104	0.0
86.119	4.0
86.134	4.0
86.149	4.0
86.164	2.0
86.179	2.0
86.194	5.0
86.209	2.0
86.224	1.0
86.239	2.0
86.254	4.0
86.269	4.0
86.284	4.0
86.299	0.0
86.314	2.0
86.33	4.0
86.345	2.0
86.36	1.0
86.375	6.0
86.39	6.0
86.405	3.0
86.42	2.0
86.435	1.0
86.45	3.0
86.465	1.0
86.48	3.0
86.495	2.0
86.51	0.0
86.525	5.0
86.54	1.0
86.555	1.0
86.57	6.0
86.585	1.0
86.6	1.0
86.615	4.0
86.63	4.0
86.645	2.0
86.659	6.0
86.674	3.0
86.689	1.0
86.704	5.0
86.719	6.0
86.734	3.0
86.749	1.0
86.764	3.0
86.779	1.0
86.794	2.0
86.809	4.0
86.824	5.0
86.839	7.0
86.854	5.0
86.869	7.0
86.884	3.0
86.899	1.0
86.914	5.0
86.929	3.0
86.944	2.0
86.959	3.0
86.974	5.0
86.989	6.0
87.004	7.0
87.019	3.0
87.034	2.0
87.049	4.0
87.064	7.0
87.079	1.0
87.094	3.0
87.109	2.0
87.124	1.0
87.139	3.0
87.154	2.0
87.169	3.0
87.184	3.0
87.199	2.0
87.214	3.0
87.229	2.0
87.244	6.0
87.259	5.0
87.274	2.0
87.289	3.0
87.304	0.0
87.319	5.0
87.334	4.0
87.349	3.0
87.364	6.0
87.379	3.0
87.394	3.0
87.409	3.0
87.424	2.0
87.438	2.0
87.453	3.0
87.468	1.0
87.483	1.0
87.498	1.0
87.513	4.0
87.528	6.0
87.543	3.0
87.558	2.0
87.573	5.0
87.588	6.0
87.603	2.0
87.618	2.0
87.633	3.0
87.648	3.0
87.663	4.0
87.678	2.0
87.693	1.0
87.708	5.0
87.723	3.0
87.738	4.0
87.753	10.0
87.768	8.0
87.783	8.0
87.798	7.0
87.813	3.0
87.828	5.0
87.843	3.0
87.858	10.0
87.873	1.0
87.888	8.0
87.903	4.0
87.918	6.0
87.933	3.0
87.948	2.0
87.963	0.0
87.978	6.0
87.993	2.0
88.008	3.0
88.023	2.0
88.038	1.0
88.053	1.0
88.068	2.0
88.083	2.0
88.098	2.0
88.113	5.0
88.128	4.0
88.143	2.0
88.158	4.0
88.174	4.0
88.189	0.0
88.204	2.0
88.219	7.0
88.234	2.0
88.249	1.0
88.264	3.0
88.279	3.0
88.294	4.0
88.309	0.0
88.324	4.0
88.339	4.0
88.354	3.0
88.369	3.0
88.384	5.0
88.399	3.0
88.414	8.0
88.429	4.0
88.444	7.0
88.459	3.0
88.474	6.0
88.489	4.0
88.504	4.0
88.519	1.0
88.534	6.0
88.549	3.0
88.564	6.0
88.58	3.0
88.595	4.0
88.61	7.0
88.625	3.0
88.64	3.0
88.655	3.0
88.67	4.0
88.685	1.0
88.7	3.0
88.715	6.0
88.73	5.0
88.745	1.0
88.76	3.0
88.775	4.0
88.79	3.0
88.805	3.0
88.82	4.0
88.835	6.0
88.85	2.0
88.865	3.0
88.88	4.0
88.895	3.0
88.911	4.0
88.926	2.0
88.941	0.0
88.956	4.0
88.971	3.0
88.986	4.0
89.001	4.0
89.016	3.0
89.031	5.0
89.046	3.0
89.061	1.0
89.076	1.0
89.091	3.0
89.106	4.0
89.121	4.0
89.136	1.0
89.151	7.0
89.166	4.0
89.181	5.0
89.196	1.0
89.211	3.0
89.227	7.0
89.242	1.0
89.257	4.0
89.272	3.0
89.287	4.0
89.302	6.0
89.317	4.0
89.332	4.0
89.347	2.0
89.362	6.0
89.377	5.0
89.392	5.0
89.407	2.0
89.422	5.0
89.437	3.0
89.452	2.0
89.467	3.0
89.482	4.0
89.497	7.0
89.512	1.0
89.527	6.0
89.542	2.0
89.557	7.0
89.572	6.0
89.587	5.0
89.602	2.0
89.617	3.0
89.632	1.0
89.647	4.0
89.662	1.0
89.677	4.0
89.693	2.0
89.708	2.0
89.723	1.0
89.738	4.0
89.753	0.0
89.768	2.0
89.783	2.0
89.798	3.0
89.813	4.0
89.828	1.0
89.843	3.0
89.858	2.0
89.873	1.0
89.888	2.0
89.903	2.0
89.918	2.0
89.933	3.0
89.948	2.0
89.963	3.0
89.978	1.0
89.993	1.0
90.008	4.0
90.023	4.0
90.038	1.0
90.053	3.0
90.068	4.0
90.083	6.0
90.097	3.0
90.112	3.0
90.127	7.0
90.142	6.0
90.157	6.0
90.172	4.0
90.187	3.0
90.202	7.0
90.217	7.0
90.232	6.0
90.247	2.0
90.262	3.0
90.277	4.0
90.292	5.0
90.307	3.0
90.322	3.0
90.337	1.0
90.352	6.0
90.367	5.0
90.382	3.0
90.397	2.0
90.412	1.0
90.427	1.0
90.442	2.0
90.457	3.0
90.472	4.0
90.487	2.0
90.501	2.0
90.516	2.0
90.531	3.0
90.546	0.0
90.561	5.0
90.576	4.0
90.591	2.0
90.606	1.0
90.621	3.0
90.636	4.0
90.651	2.0
90.666	2.0
90.681	3.0
90.696	2.0
90.711	5.0
90.726	1.0
90.741	4.0
90.755	2.0
90.77	5.0
90.785	2.0
90.8	3.0
90.815	3.0
90.83	2.0
90.845	2.0
90.86	7.0
90.875	7.0
90.89	7.0
90.905	2.0
90.92	6.0
90.935	5.0
90.95	1.0
90.965	8.0
90.979	4.0
90.994	9.0
91.009	4.0
91.024	1.0
91.039	4.0
91.054	3.0
91.069	7.0
91.084	4.0
91.099	2.0
91.114	5.0
91.129	2.0
91.144	2.0
91.159	7.0
91.174	4.0
91.188	2.0
91.203	2.0
91.218	5.0
91.233	2.0
91.248	3.0
91.263	3.0
91.278	4.0
91.293	3.0
91.308	3.0
91.323	3.0
91.338	4.0
91.353	1.0
91.368	2.0
91.383	2.0
91.398	1.0
91.412	0.0
91.427	1.0
91.442	2.0
91.457	2.0
91.472	4.0
91.487	4.0
91.502	0.0
91.517	4.0
91.532	3.0
91.547	2.0
91.562	5.0
91.577	4.0
91.592	7.0
91.607	1.0
91.622	1.0
91.637	2.0
91.652	2.0
91.666	4.0
91.681	3.0
91.696	5.0
91.711	3.0
91.726	2.0
91.741	1.0
91.756	2.0
91.771	5.0
91.786	1.0
91.801	4.0
91.816	6.0
91.831	3.0
91.846	2.0
91.861	2.0
91.876	6.0
91.891	2.0
91.906	1.0
91.921	2.0
91.936	3.0
91.951	6.0
91.966	1.0
91.981	1.0
91.995	3.0
92.01	1.0
92.025	2.0
92.04	4.0
92.055	1.0
92.07	3.0
92.085	3.0
92.1	4.0
92.115	3.0
92.13	3.0
92.145	2.0
92.16	2.0
92.175	5.0
92.19	1.0
92.205	3.0
92.22	6.0
92.235	4.0
92.25	0.0
92.265	2.0
92.28	3.0
92.295	4.0
92.31	0.0
92.325	2.0
92.34	4.0
92.355	2.0
92.37	3.0
92.385	1.0
92.4	5.0
92.415	5.0
92.43	5.0
92.445	1.0
92.46	5.0
92.475	2.0
92.49	2.0
92.505	5.0
92.52	2.0
92.535	1.0
92.55	0.0
92.565	4.0
92.58	4.0
92.595	3.0
92.61	2.0
92.625	3.0
92.64	5.0
92.655	2.0
92.67	1.0
92.685	5.0
92.7	3.0
92.715	9.0
92.73	4.0
92.745	1.0
92.76	0.0
92.775	0.0
92.79	4.0
92.805	1.0
92.82	2.0
92.835	5.0
92.85	4.0
92.865	7.0
92.88	1.0
92.895	2.0
92.91	0.0
92.925	3.0
92.94	2.0
92.955	4.0
92.97	2.0
92.985	2.0
93.0	0.0
93.015	2.0
93.03	2.0
93.045	4.0
93.06	3.0
93.075	7.0
93.09	5.0
93.105	1.0
93.12	3.0
93.135	3.0
93.15	2.0
93.165	3.0
93.18	6.0
93.195	4.0
93.21	3.0
93.225	6.0
93.24	2.0
93.255	1.0
93.27	0.0
93.285	4.0
93.3	2.0
93.315	1.0
93.33	4.0
93.345	9.0
93.36	6.0
93.375	3.0
93.39	1.0
93.405	6.0
93.42	3.0
93.435	4.0
93.45	1.0
93.465	5.0
93.48	4.0
93.495	2.0
93.51	3.0
93.525	3.0
93.54	4.0
93.555	1.0
93.57	3.0
93.585	0.0
93.6	2.0
93.615	4.0
93.63	0.0
93.645	4.0
93.66	3.0
93.675	1.0
93.69	1.0
93.705	3.0
93.72	1.0
93.735	3.0
93.75	5.0
93.765	2.0
93.78	1.0
93.795	6.0
93.81	5.0
93.824	2.0
93.839	2.0
93.854	4.0
93.869	2.0
93.884	5.0
93.899	5.0
93.914	3.0
93.929	1.0
93.944	3.0
93.959	3.0
93.974	4.0
93.989	2.0
94.004	3.0
94.019	6.0
94.034	4.0
94.049	5.0
94.064	2.0
94.079	3.0
94.094	2.0
94.108	1.0
94.123	3.0
94.138	4.0
94.153	5.0
94.168	4.0
94.183	3.0
94.198	1.0
94.213	4.0
94.228	4.0
94.243	5.0
94.258	5.0
94.273	3.0
94.288	5.0
94.302	4.0
94.317	7.0
94.332	2.0
94.347	5.0
94.362	1.0
94.377	3.0
94.392	3.0
94.407	2.0
94.422	6.0
94.437	8.0
94.452	3.0
94.466	7.0
94.481	7.0
94.496	6.0
94.511	4.0
94.526	4.0
94.541	3.0
94.556	2.0
94.571	3.0
94.586	8.0
94.601	1.0
94.615	3.0
94.63	4.0
94.645	3.0
94.66	5.0
94.675	5.0
94.69	3.0
94.705	2.0
94.72	2.0
94.735	4.0
94.749	3.0
94.764	4.0
94.779	2.0
94.794	2.0
94.809	4.0
94.824	2.0
94.839	4.0
94.854	2.0
94.868	7.0
94.883	2.0
94.898	1.0
94.913	2.0
94.928	3.0
94.943	3.0
94.958	3.0
94.973	1.0
94.987	5.0
95.002	5.0
95.017	4.0
95.032	4.0
95.047	3.0
95.062	10.0
95.077	3.0
95.092	3.0
95.106	3.0
95.121	2.0
95.136	5.0
95.151	7.0
95.166	4.0
95.181	5.0
95.196	6.0
95.211	5.0
95.226	2.0
95.24	6.0
95.255	1.0
95.27	2.0
95.285	1.0
95.3	2.0
95.315	2.0
95.33	5.0
95.345	3.0
95.359	5.0
95.374	6.0
95.389	6.0
95.404	3.0
95.419	2.0
95.434	1.0
95.449	5.0
95.464	3.0
95.478	4.0
95.493	2.0
95.508	4.0
95.523	3.0
95.538	2.0
95.553	4.0
95.568	3.0
95.583	1.0
95.597	1.0
95.612	2.0
95.627	2.0
95.642	4.0
95.657	3.0
95.672	3.0
95.687	2.0
95.702	1.0
95.717	2.0
95.731	3.0
95.746	6.0
95.761	3.0
95.776	2.0
95.791	2.0
95.806	4.0
95.821	5.0
95.836	2.0
95.851	2.0
95.866	8.0
95.88	7.0
95.895	4.0
95.91	3.0
95.925	5.0
95.94	6.0
95.955	3.0
95.97	4.0
95.985	4.0
96.0	0.0
96.015	3.0
96.029	3.0
96.044	3.0
96.059	4.0
96.074	4.0
96.089	0.0
96.104	8.0
96.119	4.0
96.134	1.0
96.149	0.0
96.164	2.0
96.179	4.0
96.194	7.0
96.208	2.0
96.223	2.0
96.238	5.0
96.253	5.0
96.268	2.0
96.283	2.0
96.298	2.0
96.313	1.0
96.328	4.0
96.343	4.0
96.358	2.0
96.373	3.0
96.388	3.0
96.403	1.0
96.417	5.0
96.432	0.0
96.447	7.0
96.462	5.0
96.477	2.0
96.492	2.0
96.507	0.0
96.522	3.0
96.537	4.0
96.552	1.0
96.567	4.0
96.582	4.0
96.597	3.0
96.612	4.0
96.627	5.0
96.642	6.0
96.656	2.0
96.671	2.0
96.686	2.0
96.701	6.0
96.716	5.0
96.731	4.0
96.746	4.0
96.761	1.0
96.776	8.0
96.791	4.0
96.806	2.0
96.821	3.0
96.836	1.0
96.851	3.0
96.866	7.0
96.881	6.0
96.896	3.0
96.911	8.0
96.926	6.0
96.94	2.0
96.955	2.0
96.97	4.0
96.985	8.0
97.0	1.0
97.015	1.0
97.03	5.0
97.045	3.0
97.06	3.0
97.075	2.0
97.09	1.0
97.105	5.0
97.12	3.0
97.135	2.0
97.15	3.0
97.165	5.0
97.18	2.0
97.195	1.0
97.21	3.0
97.225	1.0
97.239	1.0
97.254	5.0
97.269	5.0
97.284	2.0
97.299	2.0
97.314	2.0
97.329	0.0
97.344	4.0
97.359	4.0
97.374	1.0
97.389	6.0
97.404	3.0
97.419	2.0
97.434	2.0
97.449	3.0
97.464	3.0
97.479	4.0
97.494	3.0
97.509	4.0
97.524	1.0
97.538	4.0
97.553	3.0
97.568	5.0
97.583	2.0
97.598	4.0
97.613	3.0
97.628	3.0
97.643	4.0
97.658	3.0
97.673	3.0
97.688	1.0
97.703	1.0
97.718	1.0
97.733	4.0
97.748	4.0
97.763	2.0
97.778	5.0
97.792	2.0
97.807	4.0
97.822	6.0
97.837	8.0
97.852	6.0
97.867	4.0
97.882	6.0
97.897	2.0
97.912	4.0
97.927	0.0
97.942	1.0
97.957	3.0
97.972	2.0
97.987	4.0
98.001	2.0
98.016	2.0
98.031	2.0
98.046	2.0
98.061	2.0
98.076	3.0
98.091	4.0
98.106	1.0
98.121	3.0
98.136	3.0
98.151	2.0
98.166	1.0
98.181	2.0
98.195	6.0
98.21	3.0
98.225	4.0
98.24	2.0
98.255	3.0
98.27	2.0
98.285	3.0
98.3	3.0
98.315	4.0
98.33	2.0
98.345	2.0
98.359	3.0
98.374	6.0
98.389	4.0
98.404	4.0
98.419	2.0
98.434	3.0
98.449	1.0
98.464	3.0
98.479	2.0
98.494	3.0
98.508	4.0
98.523	3.0
98.538	4.0
98.553	7.0
98.568	5.0
98.583	2.0
98.598	2.0
98.613	5.0
98.628	3.0
98.642	2.0
98.657	2.0
98.672	2.0
98.687	4.0
98.702	6.0
98.717	5.0
98.732	3.0
98.747	2.0
98.762	4.0
98.776	1.0
98.791	3.0
98.806	4.0
98.821	2.0
98.836	0.0
98.851	5.0
98.866	3.0
98.881	3.0
98.896	0.0
98.91	2.0
98.925	4.0
98.94	3.0
98.955	1.0
98.97	4.0
98.985	3.0
99.0	4.0
99.015	5.0
99.029	4.0
99.044	1.0
99.059	4.0
99.074	5.0
99.089	2.0
99.104	3.0
99.119	6.0
99.133	4.0
99.148	6.0
99.163	1.0
99.178	3.0
99.193	8.0
99.208	3.0
99.223	3.0
99.238	4.0
99.252	6.0
99.267	2.0
99.282	3.0
99.297	0.0
99.312	3.0
99.327	4.0
99.342	3.0
99.356	1.0
99.371	5.0
99.386	3.0
99.401	3.0
99.416	3.0
99.431	1.0
99.446	5.0
99.461	1.0
99.475	4.0
99.49	1.0
99.505	1.0
99.52	1.0
99.535	0.0
99.55	2.0
99.565	3.0
99.579	2.0
99.594	1.0
99.609	2.0
99.624	5.0
99.639	6.0
99.654	2.0
99.669	5.0
99.683	0.0
99.698	6.0
99.713	3.0
99.728	3.0
99.743	0.0
99.758	2.0
99.772	0.0
99.787	3.0
99.802	2.0
99.817	4.0
99.832	6.0
99.847	3.0
99.862	5.0
99.876	4.0
99.891	3.0
99.906	5.0
99.921	0.0
99.936	1.0
99.951	3.0
99.966	2.0
99.98	2.0
99.995	1.0
100.01	3.0
100.025	6.0
100.04	1.0
100.055	6.0
100.069	3.0
100.084	4.0
100.099	3.0
100.114	2.0
100.129	1.0
100.144	0.0
100.159	2.0
100.173	4.0
100.188	3.0
100.203	5.0
100.218	2.0
100.233	4.0
100.248	3.0
100.262	3.0
100.277	2.0
100.292	4.0
100.307	8.0
100.322	2.0
100.337	3.0
100.351	6.0
100.366	2.0
100.381	4.0
100.396	5.0
100.411	0.0
100.426	5.0
100.441	4.0
100.455	0.0
100.47	4.0
100.485	4.0
100.5	2.0
100.515	3.0
100.53	9.0
100.544	2.0
100.559	5.0
100.574	3.0
100.589	3.0
100.604	3.0
100.619	3.0
100.633	5.0
100.648	2.0
100.663	2.0
100.678	1.0
100.693	5.0
100.708	6.0
100.722	4.0
100.737	5.0
100.752	2.0
100.767	4.0
100.782	1.0
100.796	2.0
100.811	1.0
100.826	5.0
100.841	2.0
100.856	2.0
100.871	4.0
100.885	1.0
100.9	3.0
100.915	3.0
100.93	2.0
100.945	4.0
100.96	6.0
100.974	3.0
100.989	1.0
101.004	2.0
101.019	7.0
101.034	3.0
101.048	3.0
101.063	3.0
101.078	4.0
101.093	4.0
101.108	2.0
101.123	4.0
101.137	2.0
101.152	1.0
101.167	7.0
101.182	3.0
101.197	2.0
101.211	4.0
101.226	2.0
101.241	1.0
101.256	6.0
101.271	3.0
101.285	2.0
101.3	2.0
101.315	3.0
101.33	7.0
101.345	2.0
101.359	2.0
101.374	5.0
101.389	7.0
101.404	3.0
101.419	2.0
101.433	3.0
101.448	6.0
101.463	1.0
101.478	6.0
101.493	6.0
101.507	1.0
101.522	2.0
101.537	2.0
101.552	4.0
101.567	2.0
101.581	2.0
101.596	2.0
101.611	4.0
101.626	2.0
101.64	1.0
101.655	3.0
101.67	3.0
101.685	2.0
101.7	5.0
101.714	3.0
101.729	4.0
101.744	3.0
101.759	0.0
101.773	2.0
101.788	6.0
101.803	1.0
101.818	1.0
101.833	4.0
101.847	3.0
101.862	0.0
101.877	3.0
101.892	1.0
101.906	2.0
101.921	1.0
101.936	4.0
101.951	1.0
101.965	2.0
101.98	3.0
101.995	4.0
102.01	6.0
102.025	4.0
102.039	5.0
102.054	3.0
102.069	6.0
102.084	2.0
102.098	4.0
102.113	3.0
102.128	4.0
102.143	4.0
102.157	4.0
102.172	6.0
102.187	3.0
102.202	2.0
102.216	1.0
102.231	4.0
102.246	4.0
102.261	3.0
102.275	5.0
102.29	4.0
102.305	3.0
102.32	2.0
102.334	2.0
102.349	2.0
102.364	3.0
102.378	1.0
102.393	1.0
102.408	4.0
102.423	3.0
102.437	2.0
102.452	4.0
102.467	3.0
102.482	2.0
102.496	4.0
102.511	0.0
102.526	10.0
102.541	2.0
102.555	3.0
102.57	3.0
102.585	1.0
102.6	2.0
102.614	4.0
102.629	5.0
102.644	4.0
102.659	4.0
102.673	2.0
102.688	2.0
102.703	2.0
102.717	7.0
102.732	4.0
102.747	1.0
102.762	7.0
102.776	4.0
102.791	4.0
102.806	6.0
102.821	2.0
102.835	5.0
102.85	5.0
102.865	5.0
102.88	3.0
102.894	3.0
102.909	6.0
102.924	5.0
102.938	3.0
102.953	3.0
102.968	2.0
102.983	0.0
102.997	2.0
103.012	6.0
103.027	3.0
103.042	4.0
103.056	5.0
103.071	3.0
103.086	5.0
103.101	3.0
103.115	4.0
103.13	4.0
103.145	8.0
103.16	1.0
103.174	6.0
103.189	1.0
103.204	1.0
103.219	2.0
103.233	0.0
103.248	3.0
103.263	2.0
103.278	6.0
103.292	4.0
103.307	0.0
103.322	2.0
103.337	2.0
103.351	3.0
103.366	4.0
103.381	3.0
103.396	3.0
103.41	2.0
103.425	3.0
103.44	3.0
103.455	2.0
103.469	2.0
103.484	3.0
103.499	5.0
103.514	1.0
103.529	6.0
103.543	3.0
103.558	2.0
103.573	3.0
103.588	5.0
103.602	3.0
103.617	3.0
103.632	4.0
103.647	3.0
103.661	3.0
103.676	3.0
103.691	1.0
103.706	4.0
103.721	1.0
103.735	2.0
103.75	6.0
103.765	1.0
103.78	4.0
103.795	6.0
103.809	5.0
103.824	3.0
103.839	3.0
103.854	2.0
103.869	3.0
103.883	5.0
103.898	6.0
103.913	2.0
103.928	8.0
103.943	3.0
103.957	6.0
103.972	3.0
103.987	1.0
104.002	0.0
104.017	4.0
104.031	4.0
104.046	2.0
104.061	2.0
104.076	4.0
104.091	5.0
104.106	4.0
104.12	5.0
104.135	5.0
104.15	2.0
104.165	4.0
104.18	8.0
104.195	9.0
104.209	1.0
104.224	3.0
104.239	4.0
104.254	4.0
104.269	6.0
104.284	3.0
104.299	2.0
104.313	2.0
104.328	3.0
104.343	5.0
104.358	2.0
104.373	5.0
104.388	0.0
104.403	2.0
104.417	6.0
104.432	3.0
104.447	3.0
104.462	1.0
104.477	3.0
104.492	5.0
104.507	5.0
104.522	2.0
104.536	3.0
104.551	4.0
104.566	3.0
104.581	3.0
104.596	3.0
104.611	7.0
104.626	4.0
104.641	3.0
104.656	4.0
104.67	3.0
104.685	4.0
104.7	6.0
104.715	3.0
104.73	1.0
104.745	1.0
104.76	3.0
104.775	3.0
104.79	2.0
104.804	2.0
104.819	7.0
104.834	2.0
104.849	3.0
104.864	1.0
104.879	6.0
104.894	4.0
104.909	2.0
104.924	2.0
104.939	3.0
104.954	2.0
104.968	3.0
104.983	3.0
104.998	3.0
105.013	4.0
105.028	2.0
105.043	3.0
105.058	6.0
105.073	3.0
105.088	0.0
105.103	4.0
105.118	1.0
105.133	1.0
105.147	5.0
105.162	3.0
105.177	1.0
105.192	2.0
105.207	3.0
105.222	1.0
105.237	1.0
105.252	2.0
105.267	4.0
105.282	4.0
105.297	5.0
105.312	1.0
105.327	3.0
105.342	0.0
105.356	2.0
105.371	3.0
105.386	4.0
105.401	3.0
105.416	0.0
105.431	3.0
105.446	8.0
105.461	2.0
105.476	3.0
105.491	3.0
105.506	2.0
105.521	2.0
105.536	2.0
105.551	5.0
105.566	3.0
105.581	3.0
105.595	5.0
105.61	4.0
105.625	4.0
105.64	5.0
105.655	4.0
105.67	2.0
105.685	6.0
105.7	1.0
105.715	2.0
105.73	0.0
105.745	5.0
105.76	4.0
105.775	4.0
105.79	3.0
105.805	3.0
105.82	3.0
105.835	2.0
105.85	1.0
105.864	2.0
105.879	2.0
105.894	3.0
105.909	7.0
105.924	4.0
105.939	3.0
105.954	0.0
105.969	2.0
105.984	4.0
105.999	1.0
106.014	2.0
106.029	3.0
106.044	4.0
106.059	3.0
106.074	1.0
106.089	3.0
106.104	5.0
106.119	3.0
106.134	1.0
106.148	7.0
106.163	3.0
106.178	4.0
106.193	4.0
106.208	5.0
106.223	4.0
106.238	0.0
106.253	4.0
106.268	0.0
106.283	0.0
106.298	5.0
106.313	4.0
106.328	3.0
106.343	1.0
106.358	1.0
106.373	5.0
106.388	5.0
106.403	5.0
106.418	5.0
106.432	1.0
106.447	2.0
106.462	3.0
106.477	3.0
106.492	3.0
106.507	5.0
106.522	2.0
106.537	3.0
106.552	3.0
106.567	3.0
106.582	5.0
106.597	4.0
106.612	1.0
106.627	0.0
106.642	0.0
106.657	5.0
106.672	4.0
106.687	0.0
106.701	3.0
106.716	7.0
106.731	0.0
106.746	2.0
106.761	6.0
106.776	4.0
106.791	3.0
106.806	2.0
106.821	1.0
106.836	1.0
106.851	2.0
106.866	3.0
106.881	0.0
106.896	4.0
106.911	2.0
106.926	4.0
106.941	3.0
106.955	2.0
106.97	3.0
106.985	2.0
107.0	5.0
107.015	3.0
107.03	5.0
107.045	4.0
107.06	2.0
107.075	3.0
107.09	5.0
107.105	3.0
107.12	6.0
107.135	4.0
107.15	9.0
107.165	5.0
107.18	4.0
107.194	3.0
107.209	3.0
107.224	6.0
107.239	2.0
107.254	3.0
107.269	1.0
107.284	6.0
107.299	4.0
107.314	2.0
107.329	3.0
107.344	4.0
107.359	3.0
107.374	0.0
107.389	3.0
107.404	4.0
107.418	2.0
107.433	5.0
107.448	2.0
107.463	4.0
107.478	3.0
107.493	2.0
107.508	6.0
107.523	1.0
107.538	1.0
107.553	1.0
107.568	4.0
107.583	4.0
107.598	6.0
107.613	3.0
107.627	3.0
107.642	1.0
107.657	1.0
107.672	3.0
107.687	3.0
107.702	8.0
107.717	3.0
107.732	2.0
107.747	3.0
107.762	3.0
107.777	6.0
107.792	3.0
107.807	3.0
107.821	5.0
107.836	5.0
107.851	5.0
107.866	2.0
107.881	4.0
107.896	4.0
107.911	4.0
107.926	4.0
107.941	1.0
107.956	1.0
107.971	4.0
107.986	2.0
108.0	1.0
108.015	3.0
108.03	7.0
108.045	1.0
108.06	5.0
108.075	5.0
108.09	8.0
108.105	7.0
108.12	2.0
108.135	2.0
108.15	10.0
108.164	7.0
108.179	2.0
108.194	1.0
108.209	5.0
108.224	3.0
108.239	6.0
108.254	2.0
108.269	9.0
108.284	5.0
108.299	5.0
108.313	2.0
108.328	5.0
108.343	2.0
108.358	7.0
108.373	3.0
108.388	2.0
108.403	5.0
108.418	5.0
108.433	4.0
108.448	6.0
108.462	3.0
108.477	1.0
108.492	1.0
108.507	6.0
108.522	4.0
108.537	3.0
108.552	0.0
108.567	1.0
108.582	4.0
108.597	3.0
108.611	1.0
108.626	5.0
108.641	4.0
108.656	4.0
108.671	2.0
108.686	4.0
108.701	6.0
108.716	4.0
108.731	4.0
108.745	4.0
108.76	3.0
108.775	1.0
108.79	4.0
108.805	0.0
108.82	5.0
108.835	3.0
108.85	2.0
108.865	4.0
108.879	5.0
108.894	2.0
108.909	3.0
108.924	3.0
108.939	3.0
108.954	2.0
108.969	2.0
108.984	3.0
108.999	3.0
109.013	4.0
109.028	3.0
109.043	9.0
109.058	2.0
109.073	1.0
109.088	3.0
109.103	6.0
109.118	6.0
109.133	3.0
109.147	1.0
109.162	3.0
109.177	4.0
109.192	5.0
109.207	2.0
109.222	2.0
109.237	8.0
109.252	3.0
109.267	1.0
109.281	3.0
109.296	3.0
109.311	3.0
109.326	2.0
109.341	6.0
109.356	1.0
109.371	4.0
109.386	1.0
109.4	1.0
109.415	3.0
109.43	2.0
109.445	4.0
109.46	0.0
109.475	2.0
109.49	1.0
109.505	2.0
109.52	1.0
109.534	2.0
109.549	3.0
109.564	2.0
109.579	2.0
109.594	4.0
109.609	3.0
109.624	6.0
109.639	4.0
109.653	6.0
109.668	4.0
109.683	5.0
109.698	3.0
109.713	3.0
109.728	2.0
109.743	3.0
109.758	4.0
109.773	3.0
109.787	2.0
109.802	3.0
109.817	1.0
109.832	5.0
109.847	2.0
109.862	4.0
109.877	2.0
109.892	3.0
109.907	7.0
109.921	4.0
109.936	1.0
109.951	4.0
109.966	1.0
109.981	4.0
109.996	4.0
110.011	4.0
110.026	3.0
110.04	1.0
110.055	4.0
110.07	3.0
110.085	0.0
110.1	4.0
110.115	4.0
110.13	2.0
110.145	2.0
110.16	1.0
110.174	2.0
110.189	3.0
110.204	3.0
110.219	0.0
110.234	2.0
110.249	2.0
110.264	3.0
110.279	0.0
110.294	2.0
110.308	2.0
110.323	4.0
110.338	3.0
110.353	1.0
110.368	3.0
110.383	4.0
110.398	1.0
110.413	4.0
110.428	4.0
110.442	0.0
110.457	5.0
110.472	3.0
110.487	4.0
110.502	0.0
110.517	4.0
110.532	1.0
110.547	4.0
110.561	1.0
110.576	2.0
110.591	8.0
110.606	2.0
110.621	1.0
110.636	2.0
110.651	6.0
110.666	2.0
110.681	4.0
110.695	1.0
110.71	5.0
110.725	3.0
110.74	4.0
110.755	2.0
110.77	1.0
110.785	7.0
110.8	2.0
110.815	1.0
110.829	3.0
110.844	7.0
110.859	4.0
110.874	6.0
110.889	4.0
110.904	4.0
110.919	6.0
110.934	1.0
110.948	4.0
110.963	1.0
110.978	6.0
110.993	5.0
111.008	1.0
111.023	4.0
111.038	5.0
111.053	2.0
111.067	3.0
111.082	2.0
111.097	2.0
111.112	6.0
111.127	1.0
111.142	3.0
111.157	3.0
111.172	2.0
111.186	1.0
111.201	3.0
111.216	7.0
111.231	3.0
111.246	1.0
111.261	6.0
111.276	5.0
111.291	3.0
111.305	5.0
111.32	3.0
111.335	5.0
111.35	3.0
111.365	2.0
111.38	5.0
111.395	1.0
111.41	1.0
111.424	2.0
111.439	3.0
111.454	3.0
111.469	6.0
111.484	7.0
111.499	7.0
111.514	4.0
111.528	2.0
111.543	2.0
111.558	3.0
111.573	3.0
111.588	5.0
111.603	3.0
111.618	2.0
111.633	5.0
111.647	6.0
111.662	2.0
111.677	2.0
111.692	1.0
111.707	4.0
111.722	5.0
111.737	7.0
111.751	4.0
111.766	3.0
111.781	7.0
111.796	1.0
111.811	2.0
111.826	3.0
111.84	4.0
111.855	4.0
111.87	4.0
111.885	1.0
111.9	3.0
111.915	3.0
111.93	2.0
111.944	6.0
111.959	6.0
111.974	0.0
111.989	4.0
112.004	4.0
112.019	5.0
112.033	7.0
112.048	4.0
112.063	3.0
112.078	6.0
112.093	2.0
112.108	4.0
112.123	4.0
112.137	1.0
112.152	7.0
112.167	3.0
112.182	3.0
112.197	1.0
112.212	2.0
112.226	4.0
112.241	1.0
112.256	4.0
112.271	4.0
112.286	3.0
112.301	0.0
112.315	8.0
112.33	3.0
112.345	3.0
112.36	1.0
112.375	2.0
112.389	3.0
112.404	2.0
112.419	2.0
112.434	5.0
112.449	7.0
112.464	4.0
112.478	3.0
112.493	7.0
112.508	2.0
112.523	0.0
112.538	5.0
112.553	2.0
112.567	3.0
112.582	4.0
112.597	3.0
112.612	3.0
112.627	4.0
112.642	4.0
112.656	6.0
112.671	3.0
112.686	3.0
112.701	5.0
112.716	4.0
112.73	7.0
112.745	7.0
112.76	1.0
112.775	3.0
112.79	2.0
112.805	5.0
112.819	1.0
112.834	3.0
112.849	2.0
112.864	1.0
112.879	3.0
112.894	6.0
112.908	2.0
112.923	5.0
112.938	4.0
112.953	2.0
112.968	3.0
112.983	1.0
112.997	2.0
113.012	2.0
113.027	3.0
113.042	4.0
113.057	2.0
113.072	1.0
113.086	2.0
113.101	3.0
113.116	2.0
113.131	3.0
113.146	3.0
113.161	6.0
113.175	2.0
113.19	6.0
113.205	5.0
113.22	1.0
113.235	2.0
113.25	1.0
113.265	3.0
113.279	2.0
113.294	3.0
113.309	4.0
113.324	2.0
113.339	3.0
113.354	6.0
113.368	3.0
113.383	3.0
113.398	5.0
113.413	4.0
113.428	8.0
113.443	0.0
113.458	2.0
113.472	4.0
113.487	7.0
113.502	4.0
113.517	4.0
113.532	4.0
113.547	1.0
113.562	2.0
113.576	2.0
113.591	1.0
113.606	3.0
113.621	5.0
113.636	1.0
113.651	1.0
113.666	2.0
113.681	2.0
113.695	2.0
113.71	6.0
113.725	4.0
113.74	6.0
113.755	5.0
113.77	1.0
113.785	3.0
113.8	2.0
113.814	2.0
113.829	3.0
113.844	6.0
113.859	4.0
113.874	2.0
113.889	4.0
113.904	2.0
113.919	3.0
113.934	3.0
113.949	5.0
113.963	3.0
113.978	0.0
113.993	2.0
114.008	6.0
114.023	4.0
114.038	5.0
114.053	3.0
114.068	3.0
114.083	5.0
114.098	2.0
114.113	3.0
114.127	0.0
114.142	7.0
114.157	2.0
114.172	1.0
114.187	6.0
114.202	5.0
114.217	3.0
114.232	4.0
114.247	2.0
114.262	2.0
114.277	2.0
114.292	2.0
114.307	2.0
114.322	4.0
114.337	6.0
114.351	2.0
114.366	0.0
114.381	0.0
114.396	3.0
114.411	5.0
114.426	4.0
114.441	5.0
114.456	5.0
114.471	5.0
114.486	6.0
114.501	0.0
114.516	5.0
114.531	1.0
114.546	5.0
114.561	3.0
114.576	3.0
114.591	4.0
114.606	5.0
114.621	5.0
114.636	3.0
114.65	6.0
114.665	2.0
114.68	4.0
114.695	3.0
114.71	4.0
114.725	1.0
114.74	2.0
114.755	3.0
114.77	1.0
114.785	2.0
114.8	2.0
114.815	7.0
114.83	3.0
114.845	4.0
114.86	3.0
114.875	1.0
114.89	3.0
114.905	4.0
114.92	0.0
114.935	4.0
114.95	11.0
114.965	2.0
114.98	5.0
114.995	3.0
115.009	8.0
115.024	6.0
115.039	1.0
115.054	3.0
115.069	3.0
115.084	2.0
115.099	2.0
115.114	2.0
115.129	5.0
115.144	3.0
115.159	5.0
115.174	1.0
115.189	1.0
115.204	5.0
115.219	2.0
115.234	2.0
115.249	1.0
115.264	6.0
115.279	2.0
115.294	5.0
115.309	4.0
115.323	3.0
115.338	3.0
115.353	5.0
115.368	1.0
115.383	1.0
115.398	7.0
115.413	4.0
115.428	2.0
115.443	7.0
115.458	5.0
115.473	2.0
115.488	3.0
115.503	5.0
115.518	5.0
115.533	5.0
115.548	3.0
115.562	8.0
115.577	1.0
115.592	1.0
115.607	4.0
115.622	3.0
115.637	4.0
115.652	6.0
115.667	4.0
115.682	6.0
115.697	4.0
115.712	4.0
115.727	6.0
115.741	3.0
115.756	2.0
115.771	5.0
115.786	5.0
115.801	2.0
115.816	4.0
115.831	6.0
115.846	4.0
115.861	3.0
115.875	3.0
115.89	2.0
115.905	2.0
115.92	6.0
115.935	2.0
115.95	4.0
115.965	3.0
115.98	7.0
115.995	4.0
116.009	4.0
116.024	2.0
116.039	4.0
116.054	1.0
116.069	5.0
116.084	7.0
116.099	4.0
116.113	5.0
116.128	3.0
116.143	3.0
116.158	6.0
116.173	4.0
116.188	5.0
116.202	2.0
116.217	3.0
116.232	5.0
116.247	3.0
116.262	3.0
116.277	6.0
116.291	2.0
116.306	3.0
116.321	4.0
116.336	6.0
116.351	3.0
116.366	2.0
116.38	4.0
116.395	5.0
116.41	4.0
116.425	3.0
116.44	1.0
116.454	3.0
116.469	4.0
116.484	0.0
116.499	1.0
116.514	8.0
116.528	3.0
116.543	7.0
116.558	2.0
116.573	2.0
116.588	2.0
116.602	2.0
116.617	2.0
116.632	4.0
116.647	2.0
116.662	2.0
116.676	5.0
116.691	1.0
116.706	3.0
116.721	5.0
116.735	4.0
116.75	3.0
116.765	4.0
116.78	1.0
116.795	1.0
116.809	2.0
116.824	3.0
116.839	5.0
116.854	3.0
116.868	4.0
116.883	5.0
116.898	3.0
116.913	2.0
116.927	4.0
116.942	9.0
116.957	1.0
116.972	5.0
116.986	3.0
117.001	0.0
117.016	1.0
117.031	1.0
117.045	4.0
117.06	6.0
117.075	1.0
117.09	4.0
117.104	4.0
117.119	2.0
117.134	6.0
117.149	4.0
117.163	3.0
117.178	7.0
117.193	1.0
117.208	2.0
117.222	2.0
117.237	5.0
117.252	2.0
117.267	6.0
117.281	8.0
117.296	2.0
117.311	3.0
117.325	3.0
117.34	5.0
117.355	7.0
117.37	3.0
117.384	1.0
117.399	4.0
117.414	2.0
117.429	2.0
117.443	4.0
117.458	3.0
117.473	1.0
117.487	6.0
117.502	8.0
117.517	4.0
117.532	3.0
117.546	1.0
117.561	4.0
117.576	6.0
117.59	2.0
117.605	3.0
117.62	2.0
117.635	3.0
117.649	4.0
117.664	7.0
117.679	4.0
117.693	4.0
117.708	7.0
117.723	5.0
117.738	1.0
117.752	5.0
117.767	2.0
117.782	3.0
117.796	3.0
117.811	2.0
117.826	5.0
117.841	2.0
117.855	4.0
117.87	3.0
117.885	4.0
117.899	6.0
117.914	3.0
117.929	2.0
117.944	5.0
117.958	1.0
117.973	1.0
117.988	4.0
118.002	5.0
118.017	1.0
118.032	4.0
118.047	2.0
118.062	9.0
118.077	6.0
118.092	1.0
118.107	6.0
118.121	3.0
118.136	6.0
118.151	2.0
118.166	8.0
118.181	4.0
118.196	6.0
118.211	4.0
118.225	5.0
118.24	0.0
118.255	1.0
118.27	2.0
118.285	5.0
118.3	4.0
118.315	2.0
118.33	4.0
118.344	3.0
118.359	3.0
118.374	3.0
118.389	3.0
118.404	9.0
118.419	5.0
118.434	3.0
118.449	4.0
118.463	2.0
118.478	5.0
118.493	6.0
118.508	2.0
118.523	2.0
118.538	4.0
118.553	3.0
118.567	0.0
118.582	3.0
118.597	3.0
118.612	3.0
118.627	5.0
118.642	3.0
118.657	4.0
118.672	3.0
118.686	2.0
118.701	3.0
118.716	3.0
118.731	7.0
118.746	3.0
118.761	8.0
118.776	2.0
118.791	2.0
118.805	1.0
118.82	6.0
118.835	4.0
118.85	1.0
118.865	1.0
118.88	5.0
118.895	5.0
118.909	4.0
118.924	3.0
118.939	7.0
118.954	5.0
118.969	4.0
118.984	4.0
118.999	4.0
119.014	4.0
119.028	2.0
119.043	2.0
119.058	6.0
119.073	3.0
119.088	4.0
119.103	5.0
119.118	2.0
119.133	3.0
119.147	2.0
119.162	4.0
119.177	4.0
119.192	3.0
119.207	5.0
119.222	4.0
119.237	4.0
119.251	3.0
119.266	5.0
119.281	4.0
119.296	3.0
119.311	2.0
119.326	4.0
119.341	4.0
119.356	6.0
119.37	2.0
119.385	6.0
119.4	7.0
119.415	6.0
119.43	7.0
119.445	3.0
119.46	5.0
119.475	2.0
119.489	1.0
119.504	2.0
119.519	3.0
119.534	5.0
119.549	5.0
119.564	5.0
119.579	3.0
119.593	2.0
119.608	4.0
119.623	6.0
119.638	3.0
119.653	1.0
119.668	3.0
119.683	5.0
119.698	1.0
119.712	6.0
119.727	2.0
119.742	3.0
119.757	2.0
119.772	6.0
119.787	5.0
119.802	2.0
119.817	3.0
119.831	1.0
119.846	3.0
119.861	1.0
119.876	3.0
119.891	2.0
119.906	2.0
119.921	3.0
119.935	1.0
119.95	4.0
119.965	3.0
119.98	1.0
119.995	1.0
120.01	2.0
120.025	3.0
120.04	1.0
120.054	2.0
120.069	3.0
120.084	1.0
120.099	1.0
120.114	2.0
120.129	0.0
120.144	2.0
120.159	0.0
120.173	1.0
120.188	3.0
120.203	4.0
120.218	0.0
120.233	1.0
120.248	2.0
120.263	2.0
120.277	1.0
120.292	0.0
120.307	1.0
120.322	0.0
120.337	1.0
120.352	0.0
120.367	0.0
120.382	0.0
120.396	0.0
120.411	0.0
120.426	0.0
120.441	0.0
120.456	0.0
120.471	1.0
120.486	0.0
120.501	0.0
120.515	0.0
120.53	0.0
120.545	0.0
120.56	0.0
120.575	0.0
120.59	0.0
120.605	1.0
120.619	0.0
120.634	0.0
120.649	0.0
120.664	0.0
120.679	1.0
120.694	0.0
120.709	0.0
120.724	0.0
120.738	0.0
120.753	0.0
120.768	0.0
120.783	0.0
120.798	0.0
120.813	0.0
120.828	0.0
120.843	0.0
120.857	0.0
120.872	0.0
120.887	0.0
120.902	0.0
120.917	0.0
120.932	0.0
120.947	0.0
120.961	0.0
120.976	0.0
