-1.217	0.0
-1.202	0.0
-1.187	0.0
-1.172	0.0
-1.157	0.0
-1.142	0.0
-1.128	0.0
-1.113	0.0
-1.098	0.0
-1.083	0.0
-1.068	0.0
-1.054	0.0
-1.039	0.0
-1.024	0.0
-1.009	0.0
-0.994	0.0
-0.979	0.0
-0.965	0.0
-0.95	0.0
-0.935	0.0
-0.92	0.0
-0.905	0.0
-0.891	0.0
-0.876	0.0
-0.861	0.0
-0.846	0.0
-0.831	0.0
-0.816	0.0
-0.802	0.0
-0.787	0.0
-0.772	0.0
-0.757	0.0
-0.742	0.0
-0.728	0.0
-0.713	0.0
-0.698	0.0
-0.683	0.0
-0.668	0.0
-0.653	0.0
-0.639	0.0
-0.624	0.0
-0.609	0.0
-0.594	0.0
-0.579	0.0
-0.565	0.0
-0.55	0.0
-0.535	0.0
-0.52	0.0
-0.505	0.0
-0.49	0.0
-0.476	0.0
-0.461	0.0
-0.446	0.0
-0.431	0.0
-0.416	0.0
-0.401	0.0
-0.387	0.0
-0.372	0.0
-0.357	0.0
-0.342	0.0
-0.327	0.0
-0.313	0.0
-0.298	0.0
-0.283	0.0
-0.268	1.0
-0.253	0.0
-0.238	0.0
-0.224	0.0
-0.209	0.0
-0.194	0.0
-0.179	0.0
-0.164	0.0
-0.15	0.0
-0.135	0.0
-0.12	0.0
-0.105	0.0
-0.09	0.0
-0.075	0.0
-0.061	0.0
-0.046	0.0
-0.031	0.0
-0.016	0.0
-0.001	0.0
0.013	0.0
0.028	0.0
0.043	0.0
0.058	0.0
0.073	0.0
0.088	0.0
0.102	0.0
0.117	0.0
0.132	0.0
0.147	0.0
0.162	0.0
0.176	0.0
0.191	0.0
0.206	0.0
0.221	0.0
0.236	0.0
0.251	0.0
0.265	0.0
0.28	0.0
0.295	0.0
0.31	0.0
0.325	0.0
0.339	0.0
0.354	0.0
0.369	0.0
0.384	0.0
0.399	0.0
0.414	0.0
0.428	0.0
0.443	0.0
0.458	0.0
0.473	0.0
0.488	0.0
0.502	0.0
0.517	0.0
0.532	0.0
0.547	0.0
0.562	0.0
0.577	0.0
0.591	0.0
0.606	0.0
0.621	0.0
0.636	0.0
0.651	1.0
0.665	0.0
0.68	0.0
0.695	0.0
0.71	0.0
0.725	0.0
0.74	0.0
0.754	0.0
0.769	0.0
0.784	0.0
0.799	0.0
0.814	0.0
0.828	0.0
0.843	0.0
0.858	0.0
0.873	0.0
0.888	0.0
0.903	0.0
0.917	0.0
0.932	0.0
0.947	0.0
0.962	0.0
0.977	0.0
0.991	0.0
1.006	0.0
1.021	0.0
1.036	0.0
1.051	0.0
1.065	0.0
1.08	0.0
1.095	0.0
1.11	0.0
1.125	0.0
1.14	0.0
1.154	0.0
1.169	0.0
1.184	0.0
1.199	0.0
1.214	0.0
1.228	0.0
1.243	0.0
1.258	0.0
1.273	0.0
1.288	0.0
1.302	0.0
1.317	0.0
1.332	0.0
1.347	0.0
1.362	0.0
1.376	0.0
1.391	0.0
1.406	0.0
1.421	0.0
1.436	0.0
1.45	0.0
1.465	0.0
1.48	0.0
1.495	0.0
1.51	0.0
1.524	0.0
1.539	0.0
1.554	0.0
1.569	0.0
1.584	0.0
1.598	0.0
1.613	0.0
1.628	0.0
1.643	0.0
1.658	0.0
1.672	0.0
1.687	0.0
1.702	0.0
1.717	0.0
1.732	0.0
1.746	0.0
1.761	0.0
1.776	0.0
1.791	0.0
1.806	0.0
1.82	1.0
1.835	1.0
1.85	0.0
1.865	0.0
1.88	0.0
1.894	1.0
1.909	0.0
1.924	0.0
1.939	1.0
1.954	0.0
1.968	0.0
1.983	0.0
1.998	0.0
2.013	0.0
2.028	0.0
2.042	1.0
2.057	0.0
2.072	0.0
2.087	0.0
2.101	0.0
2.116	0.0
2.131	0.0
2.146	0.0
2.161	1.0
2.175	0.0
2.19	2.0
2.205	0.0
2.22	0.0
2.235	2.0
2.249	0.0
2.264	1.0
2.279	1.0
2.294	1.0
2.308	2.0
2.323	2.0
2.338	0.0
2.353	1.0
2.368	0.0
2.382	0.0
2.397	0.0
2.412	1.0
2.427	2.0
2.442	2.0
2.456	1.0
2.471	2.0
2.486	2.0
2.501	1.0
2.515	3.0
2.53	0.0
2.545	2.0
2.56	1.0
2.575	1.0
2.589	1.0
2.604	4.0
2.619	2.0
2.634	0.0
2.649	1.0
2.663	1.0
2.678	4.0
2.693	1.0
2.708	3.0
2.722	1.0
2.737	3.0
2.752	5.0
2.767	2.0
2.782	7.0
2.796	1.0
2.811	2.0
2.826	2.0
2.841	4.0
2.856	8.0
2.87	4.0
2.885	5.0
2.9	3.0
2.915	5.0
2.93	6.0
2.944	2.0
2.959	0.0
2.974	4.0
2.989	3.0
3.004	6.0
3.018	5.0
3.033	5.0
3.048	2.0
3.063	2.0
3.078	4.0
3.092	3.0
3.107	5.0
3.122	7.0
3.137	3.0
3.152	6.0
3.166	6.0
3.181	3.0
3.196	4.0
3.211	4.0
3.226	5.0
3.24	0.0
3.255	5.0
3.27	9.0
3.285	8.0
3.3	10.0
3.315	5.0
3.329	1.0
3.344	4.0
3.359	3.0
3.374	4.0
3.389	5.0
3.403	5.0
3.418	7.0
3.433	7.0
3.448	6.0
3.463	6.0
3.478	2.0
3.492	7.0
3.507	4.0
3.522	5.0
3.537	6.0
3.552	3.0
3.567	10.0
3.581	4.0
3.596	4.0
3.611	7.0
3.626	12.0
3.641	3.0
3.656	6.0
3.671	9.0
3.685	5.0
3.7	4.0
3.715	6.0
3.73	6.0
3.745	4.0
3.76	6.0
3.775	5.0
3.789	8.0
3.804	5.0
3.819	10.0
3.834	8.0
3.849	3.0
3.864	4.0
3.879	6.0
3.894	9.0
3.908	7.0
3.923	6.0
3.938	5.0
3.953	3.0
3.968	9.0
3.983	7.0
3.998	7.0
4.013	4.0
4.027	6.0
4.042	8.0
4.057	6.0
4.072	8.0
4.087	7.0
4.102	6.0
4.117	4.0
4.132	9.0
4.147	7.0
4.162	9.0
4.176	5.0
4.191	4.0
4.206	4.0
4.221	6.0
4.236	6.0
4.251	6.0
4.266	7.0
4.281	7.0
4.296	7.0
4.311	8.0
4.326	4.0
4.341	10.0
4.356	8.0
4.37	6.0
4.385	6.0
4.4	10.0
4.415	15.0
4.43	4.0
4.445	5.0
4.46	3.0
4.475	8.0
4.49	7.0
4.505	2.0
4.52	5.0
4.535	7.0
4.55	7.0
4.565	5.0
4.58	2.0
4.595	6.0
4.61	6.0
4.625	7.0
4.639	11.0
4.654	4.0
4.669	13.0
4.684	10.0
4.699	6.0
4.714	5.0
4.729	6.0
4.744	9.0
4.759	8.0
4.774	6.0
4.789	2.0
4.804	8.0
4.819	8.0
4.834	7.0
4.849	5.0
4.864	7.0
4.879	10.0
4.894	12.0
4.909	6.0
4.924	12.0
4.939	12.0
4.954	3.0
4.969	8.0
4.984	1.0
4.999	5.0
5.014	11.0
5.029	10.0
5.044	11.0
5.059	12.0
5.074	4.0
5.089	11.0
5.104	12.0
5.119	15.0
5.134	5.0
5.149	11.0
5.164	14.0
5.179	12.0
5.194	6.0
5.209	10.0
5.224	5.0
5.239	5.0
5.254	8.0
5.269	6.0
5.284	5.0
5.299	5.0
5.314	12.0
5.329	12.0
5.344	11.0
5.359	10.0
5.374	12.0
5.389	5.0
5.404	8.0
5.419	11.0
5.434	7.0
5.449	10.0
5.464	8.0
5.479	3.0
5.494	9.0
5.509	12.0
5.524	9.0
5.539	10.0
5.554	12.0
5.569	11.0
5.584	3.0
5.599	8.0
5.614	10.0
5.629	7.0
5.644	5.0
5.659	12.0
5.674	10.0
5.689	12.0
5.704	5.0
5.719	9.0
5.734	9.0
5.749	11.0
5.764	14.0
5.779	4.0
5.794	9.0
5.809	6.0
5.824	10.0
5.839	8.0
5.854	8.0
5.869	10.0
5.884	5.0
5.899	7.0
5.914	10.0
5.929	13.0
5.944	9.0
5.959	8.0
5.974	8.0
5.989	11.0
6.004	10.0
6.019	10.0
6.034	10.0
6.049	11.0
6.064	7.0
6.079	4.0
6.094	7.0
6.109	9.0
6.124	4.0
6.139	12.0
6.154	12.0
6.169	6.0
6.184	2.0
6.199	13.0
6.214	6.0
6.229	19.0
6.244	6.0
6.259	9.0
6.274	9.0
6.289	11.0
6.304	12.0
6.319	6.0
6.334	6.0
6.349	7.0
6.364	11.0
6.379	5.0
6.394	7.0
6.409	7.0
6.424	10.0
6.439	10.0
6.454	9.0
6.469	14.0
6.484	9.0
6.499	11.0
6.514	10.0
6.529	12.0
6.544	12.0
6.559	12.0
6.574	7.0
6.589	8.0
6.604	13.0
6.619	12.0
6.634	10.0
6.649	8.0
6.664	8.0
6.679	6.0
6.694	12.0
6.709	8.0
6.724	9.0
6.739	4.0
6.754	11.0
6.769	20.0
6.784	7.0
6.799	16.0
6.814	9.0
6.829	8.0
6.844	10.0
6.859	9.0
6.873	11.0
6.888	16.0
6.903	8.0
6.918	10.0
6.933	9.0
6.948	4.0
6.963	7.0
6.978	5.0
6.993	17.0
7.008	11.0
7.023	7.0
7.038	8.0
7.053	7.0
7.068	6.0
7.083	8.0
7.098	4.0
7.113	6.0
7.128	11.0
7.143	7.0
7.157	13.0
7.172	15.0
7.187	5.0
7.202	7.0
7.217	5.0
7.232	6.0
7.247	10.0
7.262	11.0
7.277	5.0
7.292	10.0
7.307	11.0
7.322	7.0
7.336	8.0
7.351	8.0
7.366	4.0
7.381	7.0
7.396	10.0
7.411	7.0
7.426	7.0
7.441	7.0
7.456	14.0
7.471	11.0
7.485	19.0
7.5	3.0
7.515	9.0
7.53	7.0
7.545	14.0
7.56	8.0
7.575	14.0
7.59	10.0
7.604	5.0
7.619	10.0
7.634	11.0
7.649	9.0
7.664	5.0
7.679	7.0
7.693	10.0
7.708	6.0
7.723	4.0
7.738	5.0
7.753	7.0
7.768	8.0
7.783	14.0
7.797	11.0
7.812	7.0
7.827	10.0
7.842	11.0
7.857	10.0
7.871	5.0
7.886	3.0
7.901	5.0
7.916	9.0
7.931	4.0
7.945	7.0
7.96	6.0
7.975	9.0
7.99	6.0
8.005	10.0
8.019	11.0
8.034	5.0
8.049	10.0
8.064	6.0
8.078	8.0
8.093	8.0
8.108	11.0
8.123	11.0
8.137	8.0
8.152	8.0
8.167	9.0
8.182	7.0
8.196	10.0
8.211	6.0
8.226	6.0
8.241	7.0
8.255	9.0
8.27	9.0
8.285	5.0
8.3	3.0
8.314	9.0
8.329	8.0
8.344	7.0
8.358	8.0
8.373	8.0
8.388	10.0
8.403	9.0
8.417	11.0
8.432	10.0
8.447	9.0
8.461	11.0
8.476	14.0
8.491	9.0
8.505	5.0
8.52	14.0
8.535	10.0
8.55	8.0
8.564	10.0
8.579	10.0
8.594	13.0
8.608	13.0
8.623	9.0
8.638	9.0
8.652	7.0
8.667	8.0
8.682	7.0
8.696	14.0
8.711	13.0
8.726	12.0
8.74	17.0
8.755	9.0
8.77	7.0
8.784	14.0
8.799	7.0
8.814	8.0
8.828	12.0
8.843	12.0
8.858	5.0
8.872	6.0
8.887	6.0
8.902	11.0
8.916	8.0
8.931	10.0
8.946	9.0
8.96	8.0
8.975	10.0
8.99	8.0
9.004	5.0
9.019	7.0
9.034	13.0
9.048	9.0
9.063	6.0
9.077	13.0
9.092	10.0
9.107	6.0
9.121	8.0
9.136	6.0
9.151	6.0
9.165	12.0
9.18	12.0
9.195	11.0
9.209	7.0
9.224	11.0
9.239	9.0
9.253	9.0
9.268	4.0
9.283	9.0
9.297	14.0
9.312	7.0
9.327	9.0
9.341	9.0
9.356	6.0
9.371	7.0
9.385	5.0
9.4	5.0
9.415	12.0
9.429	14.0
9.444	7.0
9.458	14.0
9.473	10.0
9.488	9.0
9.502	8.0
9.517	7.0
9.532	8.0
9.546	8.0
9.561	9.0
9.576	8.0
9.59	11.0
9.605	8.0
9.62	9.0
9.635	10.0
9.649	9.0
9.664	4.0
9.679	10.0
9.693	11.0
9.708	9.0
9.723	7.0
9.737	11.0
9.752	8.0
9.767	9.0
9.781	16.0
9.796	10.0
9.811	8.0
9.825	6.0
9.84	9.0
9.855	7.0
9.87	8.0
9.884	13.0
9.899	7.0
9.914	8.0
9.928	8.0
9.943	10.0
9.958	5.0
9.973	7.0
9.987	5.0
10.002	8.0
10.017	5.0
10.031	16.0
10.046	10.0
10.061	13.0
10.076	8.0
10.09	6.0
10.105	14.0
10.12	8.0
10.135	10.0
10.149	7.0
10.164	11.0
10.179	18.0
10.194	6.0
10.208	14.0
10.223	6.0
10.238	8.0
10.253	3.0
10.267	11.0
10.282	8.0
10.297	5.0
10.312	8.0
10.326	9.0
10.341	3.0
10.356	10.0
10.371	4.0
10.386	16.0
10.4	10.0
10.415	13.0
10.43	2.0
10.445	15.0
10.46	11.0
10.474	5.0
10.489	11.0
10.504	9.0
10.519	14.0
10.533	10.0
10.548	4.0
10.563	6.0
10.578	6.0
10.593	6.0
10.608	13.0
10.622	9.0
10.637	8.0
10.652	13.0
10.667	8.0
10.682	15.0
10.696	6.0
10.711	7.0
10.726	4.0
10.741	14.0
10.756	7.0
10.771	7.0
10.785	10.0
10.8	6.0
10.815	8.0
10.83	6.0
10.845	2.0
10.86	14.0
10.874	15.0
10.889	8.0
10.904	8.0
10.919	7.0
10.934	11.0
10.949	9.0
10.963	6.0
10.978	6.0
10.993	9.0
11.008	13.0
11.023	10.0
11.038	10.0
11.053	8.0
11.067	8.0
11.082	6.0
11.097	9.0
11.112	10.0
11.127	13.0
11.142	7.0
11.157	6.0
11.172	8.0
11.186	5.0
11.201	4.0
11.216	10.0
11.231	10.0
11.246	9.0
11.261	11.0
11.276	9.0
11.291	10.0
11.305	9.0
11.32	6.0
11.335	8.0
11.35	5.0
11.365	8.0
11.38	9.0
11.395	9.0
11.41	10.0
11.424	6.0
11.439	12.0
11.454	6.0
11.469	5.0
11.484	4.0
11.499	7.0
11.514	8.0
11.529	5.0
11.544	11.0
11.558	4.0
11.573	11.0
11.588	6.0
11.603	11.0
11.618	4.0
11.633	8.0
11.648	8.0
11.663	9.0
11.678	6.0
11.693	10.0
11.707	7.0
11.722	16.0
11.737	9.0
11.752	7.0
11.767	9.0
11.782	14.0
11.797	9.0
11.812	8.0
11.827	8.0
11.842	10.0
11.856	16.0
11.871	12.0
11.886	14.0
11.901	10.0
11.916	5.0
11.931	6.0
11.946	11.0
11.961	9.0
11.976	12.0
11.991	1.0
12.006	7.0
12.02	9.0
12.035	4.0
12.05	11.0
12.065	7.0
12.08	6.0
12.095	13.0
12.11	9.0
12.125	6.0
12.14	13.0
12.155	10.0
12.17	11.0
12.184	14.0
12.199	12.0
12.214	9.0
12.229	12.0
12.244	7.0
12.259	8.0
12.274	12.0
12.289	13.0
12.304	8.0
12.319	19.0
12.334	14.0
12.348	11.0
12.363	7.0
12.378	10.0
12.393	12.0
12.408	12.0
12.423	10.0
12.438	7.0
12.453	10.0
12.468	12.0
12.483	14.0
12.498	12.0
12.513	11.0
12.527	8.0
12.542	17.0
12.557	11.0
12.572	14.0
12.587	17.0
12.602	17.0
12.617	14.0
12.632	11.0
12.647	14.0
12.662	17.0
12.677	17.0
12.692	12.0
12.707	18.0
12.721	19.0
12.736	17.0
12.751	8.0
12.766	10.0
12.781	10.0
12.796	10.0
12.811	16.0
12.826	22.0
12.841	10.0
12.856	14.0
12.871	18.0
12.886	15.0
12.9	14.0
12.915	19.0
12.93	22.0
12.945	14.0
12.96	14.0
12.975	15.0
12.99	13.0
13.005	18.0
13.02	16.0
13.035	19.0
13.05	19.0
13.065	21.0
13.08	13.0
13.094	19.0
13.109	12.0
13.124	13.0
13.139	13.0
13.154	20.0
13.169	16.0
13.184	26.0
13.199	17.0
13.214	15.0
13.229	20.0
13.244	15.0
13.259	25.0
13.274	16.0
13.288	18.0
13.303	15.0
13.318	16.0
13.333	20.0
13.348	28.0
13.363	30.0
13.378	23.0
13.393	23.0
13.408	36.0
13.423	29.0
13.438	26.0
13.453	32.0
13.468	26.0
13.482	32.0
13.497	37.0
13.512	35.0
13.527	49.0
13.542	55.0
13.557	50.0
13.572	37.0
13.587	61.0
13.602	63.0
13.617	68.0
13.632	67.0
13.647	63.0
13.662	86.0
13.677	87.0
13.691	81.0
13.706	95.0
13.721	110.0
13.736	95.0
13.751	86.0
13.766	113.0
13.781	122.0
13.796	127.0
13.811	134.0
13.826	132.0
13.841	118.0
13.856	115.0
13.871	100.0
13.885	103.0
13.9	81.0
13.915	72.0
13.93	68.0
13.945	65.0
13.96	45.0
13.975	48.0
13.99	46.0
14.005	35.0
14.02	39.0
14.035	28.0
14.05	31.0
14.065	22.0
14.08	20.0
14.094	25.0
14.109	29.0
14.124	22.0
14.139	20.0
14.154	18.0
14.169	28.0
14.184	20.0
14.199	18.0
14.214	19.0
14.229	22.0
14.244	16.0
14.259	17.0
14.274	17.0
14.288	17.0
14.303	17.0
14.318	17.0
14.333	25.0
14.348	24.0
14.363	18.0
14.378	22.0
14.393	17.0
14.408	29.0
14.423	15.0
14.438	27.0
14.453	15.0
14.468	11.0
14.482	23.0
14.497	14.0
14.512	10.0
14.527	29.0
14.542	13.0
14.557	12.0
14.572	12.0
14.587	17.0
14.602	15.0
14.617	14.0
14.632	15.0
14.647	18.0
14.661	21.0
14.676	20.0
14.691	18.0
14.706	19.0
14.721	11.0
14.736	20.0
14.751	13.0
14.766	16.0
14.781	13.0
14.796	17.0
14.811	10.0
14.826	15.0
14.84	18.0
14.855	13.0
14.87	14.0
14.885	11.0
14.9	15.0
14.915	15.0
14.93	18.0
14.945	13.0
14.96	13.0
14.975	11.0
14.989	14.0
15.004	16.0
15.019	17.0
15.034	16.0
15.049	17.0
15.064	16.0
15.079	14.0
15.094	14.0
15.109	13.0
15.124	16.0
15.138	21.0
15.153	14.0
15.168	20.0
15.183	20.0
15.198	10.0
15.213	13.0
15.228	11.0
15.243	16.0
15.258	11.0
15.272	16.0
15.287	15.0
15.302	26.0
15.317	12.0
15.332	15.0
15.347	17.0
15.362	18.0
15.377	12.0
15.391	11.0
15.406	12.0
15.421	9.0
15.436	14.0
15.451	11.0
15.466	21.0
15.481	14.0
15.496	15.0
15.51	10.0
15.525	16.0
15.54	17.0
15.555	13.0
15.57	13.0
15.585	15.0
15.6	15.0
15.614	16.0
15.629	9.0
15.644	14.0
15.659	15.0
15.674	13.0
15.689	11.0
15.704	10.0
15.718	14.0
15.733	6.0
15.748	13.0
15.763	11.0
15.778	15.0
15.793	19.0
15.808	19.0
15.822	15.0
15.837	14.0
15.852	7.0
15.867	16.0
15.882	13.0
15.897	19.0
15.911	17.0
15.926	12.0
15.941	10.0
15.956	8.0
15.971	15.0
15.986	11.0
16.0	16.0
16.015	14.0
16.03	11.0
16.045	16.0
16.06	25.0
16.074	9.0
16.089	9.0
16.104	15.0
16.119	19.0
16.134	7.0
16.149	13.0
16.163	11.0
16.178	16.0
16.193	16.0
16.208	17.0
16.223	13.0
16.237	14.0
16.252	14.0
16.267	11.0
16.282	14.0
16.297	15.0
16.311	13.0
16.326	12.0
16.341	9.0
16.356	17.0
16.37	14.0
16.385	19.0
16.4	19.0
16.415	16.0
16.43	11.0
16.444	11.0
16.459	17.0
16.474	10.0
16.489	10.0
16.504	17.0
16.518	20.0
16.533	18.0
16.548	22.0
16.563	20.0
16.577	12.0
16.592	18.0
16.607	19.0
16.622	24.0
16.637	14.0
16.651	24.0
16.666	19.0
16.681	22.0
16.696	24.0
16.71	23.0
16.725	35.0
16.74	33.0
16.755	28.0
16.77	44.0
16.784	37.0
16.799	44.0
16.814	32.0
16.829	55.0
16.843	42.0
16.858	57.0
16.873	46.0
16.888	73.0
16.902	66.0
16.917	59.0
16.932	64.0
16.947	86.0
16.961	55.0
16.976	71.0
16.991	65.0
17.006	63.0
17.021	67.0
17.035	44.0
17.05	42.0
17.065	44.0
17.08	33.0
17.094	38.0
17.109	35.0
17.124	30.0
17.139	22.0
17.153	27.0
17.168	25.0
17.183	22.0
17.198	20.0
17.212	15.0
17.227	15.0
17.242	17.0
17.257	17.0
17.271	24.0
17.286	6.0
17.301	19.0
17.316	14.0
17.33	17.0
17.345	10.0
17.36	10.0
17.375	18.0
17.39	13.0
17.404	16.0
17.419	18.0
17.434	8.0
17.449	16.0
17.463	14.0
17.478	14.0
17.493	8.0
17.508	9.0
17.522	13.0
17.537	12.0
17.552	11.0
17.567	7.0
17.581	17.0
17.596	10.0
17.611	10.0
17.626	15.0
17.641	12.0
17.655	12.0
17.67	20.0
17.685	11.0
17.7	16.0
17.714	8.0
17.729	17.0
17.744	15.0
17.759	12.0
17.773	13.0
17.788	14.0
17.803	11.0
17.818	8.0
17.833	17.0
17.847	11.0
17.862	16.0
17.877	15.0
17.892	11.0
17.906	11.0
17.921	15.0
17.936	11.0
17.951	13.0
17.966	10.0
17.98	12.0
17.995	11.0
18.01	8.0
18.025	11.0
18.04	14.0
18.054	12.0
18.069	11.0
18.084	15.0
18.099	11.0
18.114	14.0
18.128	15.0
18.143	10.0
18.158	12.0
18.173	11.0
18.188	13.0
18.202	10.0
18.217	14.0
18.232	10.0
18.247	13.0
18.262	14.0
18.276	14.0
18.291	14.0
18.306	11.0
18.321	4.0
18.336	11.0
18.35	5.0
18.365	7.0
18.38	4.0
18.395	9.0
18.41	16.0
18.424	9.0
18.439	19.0
18.454	13.0
18.469	11.0
18.484	10.0
18.498	12.0
18.513	14.0
18.528	11.0
18.543	14.0
18.558	10.0
18.573	14.0
18.587	5.0
18.602	4.0
18.617	10.0
18.632	12.0
18.647	14.0
18.661	15.0
18.676	14.0
18.691	12.0
18.706	8.0
18.721	12.0
18.736	6.0
18.75	6.0
18.765	10.0
18.78	13.0
18.795	7.0
18.81	12.0
18.825	17.0
18.839	12.0
18.854	12.0
18.869	11.0
18.884	12.0
18.899	10.0
18.913	12.0
18.928	10.0
18.943	7.0
18.958	19.0
18.973	9.0
18.988	18.0
19.002	19.0
19.017	10.0
19.032	14.0
19.047	10.0
19.062	14.0
19.077	11.0
19.091	11.0
19.106	12.0
19.121	15.0
19.136	16.0
19.151	11.0
19.165	19.0
19.18	17.0
19.195	8.0
19.21	7.0
19.225	19.0
19.24	11.0
19.254	12.0
19.269	15.0
19.284	9.0
19.299	11.0
19.314	18.0
19.329	15.0
19.343	20.0
19.358	22.0
19.373	26.0
19.388	20.0
19.403	14.0
19.417	28.0
19.432	33.0
19.447	29.0
19.462	32.0
19.477	24.0
19.492	23.0
19.506	37.0
19.521	31.0
19.536	31.0
19.551	31.0
19.566	39.0
19.58	38.0
19.595	43.0
19.61	44.0
19.625	37.0
19.64	40.0
19.655	41.0
19.669	38.0
19.684	30.0
19.699	33.0
19.714	27.0
19.729	30.0
19.743	29.0
19.758	21.0
19.773	18.0
19.788	12.0
19.803	13.0
19.817	11.0
19.832	16.0
19.847	16.0
19.862	14.0
19.877	13.0
19.891	9.0
19.906	12.0
19.921	16.0
19.936	13.0
19.951	5.0
19.965	14.0
19.98	10.0
19.995	12.0
20.01	8.0
20.025	17.0
20.039	6.0
20.054	6.0
20.069	14.0
20.084	16.0
20.099	17.0
20.113	17.0
20.128	10.0
20.143	12.0
20.158	15.0
20.173	6.0
20.187	12.0
20.202	8.0
20.217	14.0
20.232	15.0
20.246	9.0
20.261	11.0
20.276	15.0
20.291	13.0
20.306	11.0
20.32	9.0
20.335	11.0
20.35	12.0
20.365	15.0
20.38	17.0
20.394	8.0
20.409	10.0
20.424	16.0
20.439	13.0
20.453	10.0
20.468	7.0
20.483	9.0
20.498	12.0
20.513	12.0
20.527	7.0
20.542	14.0
20.557	7.0
20.572	8.0
20.586	12.0
20.601	8.0
20.616	6.0
20.631	14.0
20.646	9.0
20.66	12.0
20.675	8.0
20.69	13.0
20.705	11.0
20.719	11.0
20.734	10.0
20.749	13.0
20.764	17.0
20.779	17.0
20.793	15.0
20.808	6.0
20.823	14.0
20.838	9.0
20.853	8.0
20.867	13.0
20.882	8.0
20.897	5.0
20.912	10.0
20.926	16.0
20.941	10.0
20.956	11.0
20.971	11.0
20.986	16.0
21.0	13.0
21.015	8.0
21.03	9.0
21.045	11.0
21.06	13.0
21.074	8.0
21.089	22.0
21.104	13.0
21.119	14.0
21.134	9.0
21.148	14.0
21.163	10.0
21.178	7.0
21.193	14.0
21.208	14.0
21.222	13.0
21.237	12.0
21.252	13.0
21.267	11.0
21.282	10.0
21.296	8.0
21.311	13.0
21.326	16.0
21.341	10.0
21.356	16.0
21.37	18.0
21.385	12.0
21.4	12.0
21.415	10.0
21.43	19.0
21.444	16.0
21.459	15.0
21.474	8.0
21.489	8.0
21.504	16.0
21.519	11.0
21.533	5.0
21.548	13.0
21.563	13.0
21.578	15.0
21.593	8.0
21.608	13.0
21.622	10.0
21.637	21.0
21.652	16.0
21.667	19.0
21.682	20.0
21.697	19.0
21.712	21.0
21.726	29.0
21.741	23.0
21.756	30.0
21.771	33.0
21.786	30.0
21.801	43.0
21.816	39.0
21.83	42.0
21.845	46.0
21.86	63.0
21.875	74.0
21.89	78.0
21.905	50.0
21.92	83.0
21.935	80.0
21.949	91.0
21.964	91.0
21.979	81.0
21.994	75.0
22.009	60.0
22.024	85.0
22.039	62.0
22.054	47.0
22.069	55.0
22.083	49.0
22.098	47.0
22.113	37.0
22.128	32.0
22.143	29.0
22.158	23.0
22.173	29.0
22.188	20.0
22.203	20.0
22.218	16.0
22.233	11.0
22.248	18.0
22.262	12.0
22.277	9.0
22.292	11.0
22.307	18.0
22.322	13.0
22.337	8.0
22.352	11.0
22.367	8.0
22.382	13.0
22.397	11.0
22.412	11.0
22.427	13.0
22.442	14.0
22.457	13.0
22.472	14.0
22.487	10.0
22.502	9.0
22.516	14.0
22.531	6.0
22.546	9.0
22.561	11.0
22.576	13.0
22.591	8.0
22.606	11.0
22.621	7.0
22.636	10.0
22.651	7.0
22.666	17.0
22.681	12.0
22.696	5.0
22.711	14.0
22.726	15.0
22.741	8.0
22.756	8.0
22.771	10.0
22.786	13.0
22.801	12.0
22.816	7.0
22.831	13.0
22.846	8.0
22.861	12.0
22.876	15.0
22.891	13.0
22.906	15.0
22.92	18.0
22.935	18.0
22.95	7.0
22.965	7.0
22.98	13.0
22.995	13.0
23.01	11.0
23.025	8.0
23.04	10.0
23.055	9.0
23.07	11.0
23.085	8.0
23.1	17.0
23.115	9.0
23.13	6.0
23.145	5.0
23.16	12.0
23.175	7.0
23.19	8.0
23.205	8.0
23.22	4.0
23.235	7.0
23.25	5.0
23.265	9.0
23.28	8.0
23.295	6.0
23.31	11.0
23.325	13.0
23.34	9.0
23.355	9.0
23.37	13.0
23.384	9.0
23.399	11.0
23.414	9.0
23.429	4.0
23.444	15.0
23.459	18.0
23.474	11.0
23.489	8.0
23.504	10.0
23.519	12.0
23.534	16.0
23.549	12.0
23.564	12.0
23.579	11.0
23.594	17.0
23.609	12.0
23.624	13.0
23.639	7.0
23.654	7.0
23.668	10.0
23.683	9.0
23.698	9.0
23.713	10.0
23.728	8.0
23.743	9.0
23.758	13.0
23.773	12.0
23.788	18.0
23.803	16.0
23.818	19.0
23.833	13.0
23.848	20.0
23.862	21.0
23.877	15.0
23.892	18.0
23.907	19.0
23.922	24.0
23.937	24.0
23.952	24.0
23.967	26.0
23.982	32.0
23.997	33.0
24.011	44.0
24.026	43.0
24.041	53.0
24.056	62.0
24.071	43.0
24.086	44.0
24.101	54.0
24.116	50.0
24.131	44.0
24.145	42.0
24.16	42.0
24.175	38.0
24.19	44.0
24.205	26.0
24.22	44.0
24.235	40.0
24.249	24.0
24.264	32.0
24.279	18.0
24.294	16.0
24.309	13.0
24.324	21.0
24.338	14.0
24.353	11.0
24.368	8.0
24.383	19.0
24.398	9.0
24.413	9.0
24.428	19.0
24.442	16.0
24.457	10.0
24.472	10.0
24.487	18.0
24.502	14.0
24.516	8.0
24.531	11.0
24.546	8.0
24.561	16.0
24.576	8.0
24.591	11.0
24.605	16.0
24.62	13.0
24.635	11.0
24.65	9.0
24.665	18.0
24.679	7.0
24.694	16.0
24.709	12.0
24.724	7.0
24.739	9.0
24.753	10.0
24.768	13.0
24.783	7.0
24.798	14.0
24.813	10.0
24.827	15.0
24.842	13.0
24.857	9.0
24.872	6.0
24.886	7.0
24.901	12.0
24.916	13.0
24.931	17.0
24.946	20.0
24.96	6.0
24.975	11.0
24.99	12.0
25.005	17.0
25.019	14.0
25.034	9.0
25.049	7.0
25.064	10.0
25.078	13.0
25.093	9.0
25.108	11.0
25.123	12.0
25.138	9.0
25.152	8.0
25.167	10.0
25.182	10.0
25.197	12.0
25.211	11.0
25.226	8.0
25.241	3.0
25.256	7.0
25.27	13.0
25.285	3.0
25.3	13.0
25.315	13.0
25.329	10.0
25.344	5.0
25.359	21.0
25.374	9.0
25.388	7.0
25.403	13.0
25.418	9.0
25.433	5.0
25.447	8.0
25.462	11.0
25.477	6.0
25.492	12.0
25.506	12.0
25.521	9.0
25.536	10.0
25.55	10.0
25.565	6.0
25.58	10.0
25.595	12.0
25.609	9.0
25.624	9.0
25.639	11.0
25.654	11.0
25.668	16.0
25.683	7.0
25.698	6.0
25.713	9.0
25.727	13.0
25.742	10.0
25.757	8.0
25.772	7.0
25.786	10.0
25.801	9.0
25.816	14.0
25.83	16.0
25.845	15.0
25.86	9.0
25.875	9.0
25.889	8.0
25.904	13.0
25.919	7.0
25.934	12.0
25.948	8.0
25.963	9.0
25.978	9.0
25.992	7.0
26.007	8.0
26.022	9.0
26.037	9.0
26.051	9.0
26.066	10.0
26.081	10.0
26.096	7.0
26.11	8.0
26.125	5.0
26.14	10.0
26.155	9.0
26.169	14.0
26.184	8.0
26.199	10.0
26.213	11.0
26.228	12.0
26.243	5.0
26.258	12.0
26.272	11.0
26.287	18.0
26.302	5.0
26.317	8.0
26.331	12.0
26.346	10.0
26.361	15.0
26.376	8.0
26.39	8.0
26.405	10.0
26.42	9.0
26.434	13.0
26.449	8.0
26.464	9.0
26.479	15.0
26.493	8.0
26.508	10.0
26.523	5.0
26.538	8.0
26.552	12.0
26.567	11.0
26.582	7.0
26.597	9.0
26.611	5.0
26.626	10.0
26.641	10.0
26.656	13.0
26.67	6.0
26.685	8.0
26.7	9.0
26.715	9.0
26.729	14.0
26.744	10.0
26.759	11.0
26.773	11.0
26.788	12.0
26.803	15.0
26.818	6.0
26.832	9.0
26.847	6.0
26.862	8.0
26.877	7.0
26.891	9.0
26.906	13.0
26.921	13.0
26.936	13.0
26.95	4.0
26.965	11.0
26.98	12.0
26.995	9.0
27.01	10.0
27.024	14.0
27.039	11.0
27.054	12.0
27.069	13.0
27.083	12.0
27.098	10.0
27.113	3.0
27.128	6.0
27.142	9.0
27.157	12.0
27.172	11.0
27.187	13.0
27.201	11.0
27.216	6.0
27.231	13.0
27.246	17.0
27.261	14.0
27.275	15.0
27.29	5.0
27.305	7.0
27.32	11.0
27.334	11.0
27.349	13.0
27.364	11.0
27.379	11.0
27.394	6.0
27.408	11.0
27.423	7.0
27.438	8.0
27.453	10.0
27.467	8.0
27.482	11.0
27.497	13.0
27.512	14.0
27.527	20.0
27.541	15.0
27.556	10.0
27.571	5.0
27.586	7.0
27.601	10.0
27.615	11.0
27.63	7.0
27.645	9.0
27.66	16.0
27.675	12.0
27.689	13.0
27.704	12.0
27.719	15.0
27.734	20.0
27.749	16.0
27.763	21.0
27.778	13.0
27.793	17.0
27.808	17.0
27.823	23.0
27.838	29.0
27.852	23.0
27.867	37.0
27.882	23.0
27.897	29.0
27.912	9.0
27.926	27.0
27.941	22.0
27.956	24.0
27.971	29.0
27.986	20.0
28.001	18.0
28.015	21.0
28.03	19.0
28.045	14.0
28.06	14.0
28.075	12.0
28.09	12.0
28.105	9.0
28.119	12.0
28.134	10.0
28.149	8.0
28.164	7.0
28.179	8.0
28.194	11.0
28.208	8.0
28.223	12.0
28.238	8.0
28.253	3.0
28.268	9.0
28.283	9.0
28.298	7.0
28.312	12.0
28.327	9.0
28.342	6.0
28.357	1.0
28.372	14.0
28.387	10.0
28.402	9.0
28.417	12.0
28.431	7.0
28.446	15.0
28.461	5.0
28.476	12.0
28.491	8.0
28.506	10.0
28.521	6.0
28.536	10.0
28.55	9.0
28.565	6.0
28.58	14.0
28.595	14.0
28.61	9.0
28.625	15.0
28.64	14.0
28.655	4.0
28.669	15.0
28.684	7.0
28.699	8.0
28.714	9.0
28.729	14.0
28.744	12.0
28.759	7.0
28.774	6.0
28.788	6.0
28.803	9.0
28.818	9.0
28.833	10.0
28.848	12.0
28.863	12.0
28.878	12.0
28.893	22.0
28.908	10.0
28.922	11.0
28.937	9.0
28.952	9.0
28.967	11.0
28.982	14.0
28.997	13.0
29.012	7.0
29.027	11.0
29.041	16.0
29.056	11.0
29.071	12.0
29.086	13.0
29.101	7.0
29.116	9.0
29.131	12.0
29.146	20.0
29.16	13.0
29.175	12.0
29.19	12.0
29.205	14.0
29.22	9.0
29.235	10.0
29.25	18.0
29.265	17.0
29.279	12.0
29.294	13.0
29.309	9.0
29.324	16.0
29.339	15.0
29.354	11.0
29.369	23.0
29.384	12.0
29.398	19.0
29.413	15.0
29.428	21.0
29.443	17.0
29.458	23.0
29.473	20.0
29.488	22.0
29.502	23.0
29.517	25.0
29.532	32.0
29.547	43.0
29.562	50.0
29.577	60.0
29.592	53.0
29.606	63.0
29.621	56.0
29.636	56.0
29.651	45.0
29.666	43.0
29.681	59.0
29.695	35.0
29.71	39.0
29.725	35.0
29.74	35.0
29.755	43.0
29.77	49.0
29.784	35.0
29.799	34.0
29.814	23.0
29.829	26.0
29.844	25.0
29.859	18.0
29.873	26.0
29.888	22.0
29.903	21.0
29.918	14.0
29.933	10.0
29.947	16.0
29.962	13.0
29.977	19.0
29.992	12.0
30.007	14.0
30.021	11.0
30.036	9.0
30.051	13.0
30.066	7.0
30.081	11.0
30.095	9.0
30.11	15.0
30.125	9.0
30.14	13.0
30.155	11.0
30.169	17.0
30.184	8.0
30.199	11.0
30.214	13.0
30.228	7.0
30.243	9.0
30.258	11.0
30.273	10.0
30.288	9.0
30.302	14.0
30.317	11.0
30.332	11.0
30.347	15.0
30.361	12.0
30.376	10.0
30.391	6.0
30.406	9.0
30.42	8.0
30.435	13.0
30.45	15.0
30.465	11.0
30.479	10.0
30.494	13.0
30.509	14.0
30.524	8.0
30.538	12.0
30.553	12.0
30.568	15.0
30.583	14.0
30.597	11.0
30.612	11.0
30.627	13.0
30.641	12.0
30.656	5.0
30.671	18.0
30.686	10.0
30.7	7.0
30.715	11.0
30.73	14.0
30.745	12.0
30.759	11.0
30.774	5.0
30.789	13.0
30.803	12.0
30.818	11.0
30.833	17.0
30.848	8.0
30.862	8.0
30.877	19.0
30.892	11.0
30.906	11.0
30.921	14.0
30.936	10.0
30.951	12.0
30.965	7.0
30.98	11.0
30.995	12.0
31.009	14.0
31.024	13.0
31.039	17.0
31.053	21.0
31.068	12.0
31.083	19.0
31.098	14.0
31.112	13.0
31.127	25.0
31.142	19.0
31.156	19.0
31.171	23.0
31.186	29.0
31.2	34.0
31.215	34.0
31.23	31.0
31.245	46.0
31.259	31.0
31.274	38.0
31.289	34.0
31.303	40.0
31.318	36.0
31.333	31.0
31.347	25.0
31.362	32.0
31.377	29.0
31.392	24.0
31.406	30.0
31.421	27.0
31.436	32.0
31.45	18.0
31.465	34.0
31.48	22.0
31.494	27.0
31.509	19.0
31.524	16.0
31.538	22.0
31.553	13.0
31.568	13.0
31.583	20.0
31.597	9.0
31.612	14.0
31.627	13.0
31.641	10.0
31.656	16.0
31.671	9.0
31.685	13.0
31.7	10.0
31.715	13.0
31.729	13.0
31.744	13.0
31.759	8.0
31.774	10.0
31.788	9.0
31.803	12.0
31.818	13.0
31.832	10.0
31.847	6.0
31.862	5.0
31.876	15.0
31.891	9.0
31.906	17.0
31.92	10.0
31.935	13.0
31.95	5.0
31.965	12.0
31.979	9.0
31.994	11.0
32.009	11.0
32.023	12.0
32.038	9.0
32.053	10.0
32.067	12.0
32.082	8.0
32.097	9.0
32.112	12.0
32.126	15.0
32.141	13.0
32.156	17.0
32.17	16.0
32.185	9.0
32.2	12.0
32.214	13.0
32.229	13.0
32.244	7.0
32.259	11.0
32.273	8.0
32.288	13.0
32.303	17.0
32.317	13.0
32.332	9.0
32.347	14.0
32.362	14.0
32.376	15.0
32.391	16.0
32.406	10.0
32.42	9.0
32.435	10.0
32.45	10.0
32.465	10.0
32.479	11.0
32.494	7.0
32.509	5.0
32.523	12.0
32.538	7.0
32.553	9.0
32.568	12.0
32.582	8.0
32.597	16.0
32.612	14.0
32.627	10.0
32.641	11.0
32.656	15.0
32.671	11.0
32.685	9.0
32.7	10.0
32.715	13.0
32.73	18.0
32.744	24.0
32.759	15.0
32.774	24.0
32.788	33.0
32.803	32.0
32.818	25.0
32.833	35.0
32.847	25.0
32.862	23.0
32.877	24.0
32.892	25.0
32.906	25.0
32.921	25.0
32.936	18.0
32.951	18.0
32.965	27.0
32.98	19.0
32.995	16.0
33.009	16.0
33.024	27.0
33.039	11.0
33.054	8.0
33.068	15.0
33.083	15.0
33.098	21.0
33.113	14.0
33.127	12.0
33.142	8.0
33.157	7.0
33.172	12.0
33.186	8.0
33.201	10.0
33.216	10.0
33.231	21.0
33.245	12.0
33.26	10.0
33.275	10.0
33.29	11.0
33.304	6.0
33.319	8.0
33.334	8.0
33.349	10.0
33.363	4.0
33.378	14.0
33.393	19.0
33.408	9.0
33.422	7.0
33.437	7.0
33.452	10.0
33.467	11.0
33.481	13.0
33.496	5.0
33.511	6.0
33.526	11.0
33.54	4.0
33.555	11.0
33.57	13.0
33.585	7.0
33.599	9.0
33.614	5.0
33.629	9.0
33.644	8.0
33.658	11.0
33.673	11.0
33.688	14.0
33.703	11.0
33.718	7.0
33.732	11.0
33.747	8.0
33.762	8.0
33.777	11.0
33.791	12.0
33.806	8.0
33.821	8.0
33.836	8.0
33.85	7.0
33.865	10.0
33.88	7.0
33.895	6.0
33.91	9.0
33.924	13.0
33.939	6.0
33.954	6.0
33.969	9.0
33.983	8.0
33.998	10.0
34.013	12.0
34.028	11.0
34.042	10.0
34.057	13.0
34.072	5.0
34.087	13.0
34.102	16.0
34.116	11.0
34.131	18.0
34.146	14.0
34.161	10.0
34.175	6.0
34.19	11.0
34.205	14.0
34.22	14.0
34.235	11.0
34.249	15.0
34.264	19.0
34.279	15.0
34.294	12.0
34.309	18.0
34.323	19.0
34.338	19.0
34.353	12.0
34.368	7.0
34.382	11.0
34.397	9.0
34.412	14.0
34.427	15.0
34.442	22.0
34.456	10.0
34.471	13.0
34.486	15.0
34.501	12.0
34.516	13.0
34.53	16.0
34.545	15.0
34.56	10.0
34.575	14.0
34.59	10.0
34.604	10.0
34.619	14.0
34.634	7.0
34.649	7.0
34.664	7.0
34.678	6.0
34.693	14.0
34.708	7.0
34.723	5.0
34.738	15.0
34.752	6.0
34.767	11.0
34.782	6.0
34.797	17.0
34.812	7.0
34.826	17.0
34.841	13.0
34.856	8.0
34.871	8.0
34.886	5.0
34.9	10.0
34.915	8.0
34.93	5.0
34.945	8.0
34.96	11.0
34.974	8.0
34.989	8.0
35.004	6.0
35.019	6.0
35.034	7.0
35.048	4.0
35.063	7.0
35.078	8.0
35.093	3.0
35.108	8.0
35.122	7.0
35.137	16.0
35.152	7.0
35.167	12.0
35.182	9.0
35.196	6.0
35.211	13.0
35.226	9.0
35.241	7.0
35.256	6.0
35.27	15.0
35.285	9.0
35.3	12.0
35.315	4.0
35.33	8.0
35.344	5.0
35.359	8.0
35.374	9.0
35.389	3.0
35.404	5.0
35.418	7.0
35.433	9.0
35.448	7.0
35.463	15.0
35.478	11.0
35.493	10.0
35.507	7.0
35.522	12.0
35.537	11.0
35.552	11.0
35.567	7.0
35.581	8.0
35.596	11.0
35.611	16.0
35.626	6.0
35.641	13.0
35.655	17.0
35.67	18.0
35.685	7.0
35.7	12.0
35.715	19.0
35.729	20.0
35.744	16.0
35.759	38.0
35.774	17.0
35.789	19.0
35.804	15.0
35.818	19.0
35.833	20.0
35.848	16.0
35.863	20.0
35.878	15.0
35.892	7.0
35.907	13.0
35.922	11.0
35.937	14.0
35.952	13.0
35.966	9.0
35.981	25.0
35.996	16.0
36.011	13.0
36.026	9.0
36.04	16.0
36.055	7.0
36.07	15.0
36.085	7.0
36.1	11.0
36.114	3.0
36.129	12.0
36.144	8.0
36.159	6.0
36.174	16.0
36.189	8.0
36.203	4.0
36.218	6.0
36.233	8.0
36.248	9.0
36.263	12.0
36.277	6.0
36.292	5.0
36.307	6.0
36.322	8.0
36.337	3.0
36.351	15.0
36.366	7.0
36.381	14.0
36.396	9.0
36.411	4.0
36.426	7.0
36.44	9.0
36.455	11.0
36.47	7.0
36.485	8.0
36.5	14.0
36.514	6.0
36.529	9.0
36.544	7.0
36.559	8.0
36.574	7.0
36.589	11.0
36.603	6.0
36.618	8.0
36.633	11.0
36.648	7.0
36.663	7.0
36.677	11.0
36.692	4.0
36.707	5.0
36.722	11.0
36.737	7.0
36.752	7.0
36.766	5.0
36.781	6.0
36.796	10.0
36.811	7.0
36.826	10.0
36.841	9.0
36.855	8.0
36.87	12.0
36.885	8.0
36.9	9.0
36.915	12.0
36.93	9.0
36.944	14.0
36.959	6.0
36.974	8.0
36.989	8.0
37.004	12.0
37.019	5.0
37.033	16.0
37.048	14.0
37.063	12.0
37.078	17.0
37.093	24.0
37.108	23.0
37.123	22.0
37.137	35.0
37.152	26.0
37.167	15.0
37.182	26.0
37.197	31.0
37.212	34.0
37.226	22.0
37.241	26.0
37.256	20.0
37.271	20.0
37.286	18.0
37.301	18.0
37.316	17.0
37.331	17.0
37.345	22.0
37.36	19.0
37.375	16.0
37.39	16.0
37.405	16.0
37.42	18.0
37.435	17.0
37.45	10.0
37.464	20.0
37.479	14.0
37.494	16.0
37.509	11.0
37.524	9.0
37.539	10.0
37.554	11.0
37.569	11.0
37.583	8.0
37.598	8.0
37.613	3.0
37.628	11.0
37.643	7.0
37.658	6.0
37.673	4.0
37.688	8.0
37.703	9.0
37.718	6.0
37.733	7.0
37.747	2.0
37.762	8.0
37.777	8.0
37.792	9.0
37.807	9.0
37.822	4.0
37.837	7.0
37.852	6.0
37.867	7.0
37.882	8.0
37.897	5.0
37.912	7.0
37.927	7.0
37.941	3.0
37.956	8.0
37.971	10.0
37.986	5.0
38.001	7.0
38.016	7.0
38.031	8.0
38.046	8.0
38.061	6.0
38.076	3.0
38.091	7.0
38.106	9.0
38.121	6.0
38.136	4.0
38.151	3.0
38.166	4.0
38.181	4.0
38.196	5.0
38.211	3.0
38.226	7.0
38.241	12.0
38.256	8.0
38.271	10.0
38.285	10.0
38.3	7.0
38.315	7.0
38.33	4.0
38.345	7.0
38.36	11.0
38.375	6.0
38.39	6.0
38.405	4.0
38.42	12.0
38.435	4.0
38.45	2.0
38.465	7.0
38.48	8.0
38.495	6.0
38.51	5.0
38.525	8.0
38.54	4.0
38.555	8.0
38.57	7.0
38.585	6.0
38.6	5.0
38.615	8.0
38.63	6.0
38.645	7.0
38.66	7.0
38.675	10.0
38.69	10.0
38.705	3.0
38.72	8.0
38.735	7.0
38.75	5.0
38.765	10.0
38.78	9.0
38.795	8.0
38.81	11.0
38.825	8.0
38.84	4.0
38.855	3.0
38.87	10.0
38.885	9.0
38.9	8.0
38.915	8.0
38.93	10.0
38.945	4.0
38.96	6.0
38.975	5.0
38.99	6.0
39.005	8.0
39.02	7.0
39.035	8.0
39.05	8.0
39.065	8.0
39.08	10.0
39.095	6.0
39.11	5.0
39.125	8.0
39.14	4.0
39.155	6.0
39.17	9.0
39.185	7.0
39.2	6.0
39.215	5.0
39.23	5.0
39.245	9.0
39.26	9.0
39.275	8.0
39.29	4.0
39.305	7.0
39.32	8.0
39.335	11.0
39.35	6.0
39.365	5.0
39.38	4.0
39.395	6.0
39.409	5.0
39.424	1.0
39.439	4.0
39.454	5.0
39.469	4.0
39.484	7.0
39.499	4.0
39.514	3.0
39.529	3.0
39.544	7.0
39.559	13.0
39.574	7.0
39.589	5.0
39.604	6.0
39.619	5.0
39.634	4.0
39.649	10.0
39.664	5.0
39.678	10.0
39.693	5.0
39.708	9.0
39.723	9.0
39.738	5.0
39.753	9.0
39.768	5.0
39.783	10.0
39.798	14.0
39.813	9.0
39.827	8.0
39.842	9.0
39.857	14.0
39.872	7.0
39.887	6.0
39.902	3.0
39.917	5.0
39.932	5.0
39.947	9.0
39.961	12.0
39.976	4.0
39.991	11.0
40.006	11.0
40.021	9.0
40.036	6.0
40.051	4.0
40.065	5.0
40.08	7.0
40.095	7.0
40.11	12.0
40.125	8.0
40.14	5.0
40.154	9.0
40.169	8.0
40.184	5.0
40.199	7.0
40.214	8.0
40.228	6.0
40.243	8.0
40.258	4.0
40.273	7.0
40.288	4.0
40.302	5.0
40.317	8.0
40.332	3.0
40.347	5.0
40.362	7.0
40.376	6.0
40.391	9.0
40.406	6.0
40.421	5.0
40.436	5.0
40.45	7.0
40.465	8.0
40.48	7.0
40.495	5.0
40.509	3.0
40.524	4.0
40.539	11.0
40.554	4.0
40.568	5.0
40.583	9.0
40.598	7.0
40.613	4.0
40.627	11.0
40.642	4.0
40.657	2.0
40.672	4.0
40.686	3.0
40.701	11.0
40.716	7.0
40.731	8.0
40.745	4.0
40.76	3.0
40.775	6.0
40.79	6.0
40.804	6.0
40.819	6.0
40.834	8.0
40.849	6.0
40.863	12.0
40.878	8.0
40.893	11.0
40.907	5.0
40.922	6.0
40.937	5.0
40.952	6.0
40.966	2.0
40.981	5.0
40.996	11.0
41.011	15.0
41.025	9.0
41.04	12.0
41.055	11.0
41.069	14.0
41.084	12.0
41.099	10.0
41.114	21.0
41.128	16.0
41.143	19.0
41.158	22.0
41.173	18.0
41.187	24.0
41.202	19.0
41.217	16.0
41.231	15.0
41.246	16.0
41.261	9.0
41.276	12.0
41.29	11.0
41.305	12.0
41.32	12.0
41.335	15.0
41.349	18.0
41.364	5.0
41.379	12.0
41.393	13.0
41.408	10.0
41.423	10.0
41.438	14.0
41.452	7.0
41.467	9.0
41.482	5.0
41.497	4.0
41.511	10.0
41.526	3.0
41.541	9.0
41.556	5.0
41.57	11.0
41.585	5.0
41.6	4.0
41.615	3.0
41.629	5.0
41.644	9.0
41.659	8.0
41.674	7.0
41.688	4.0
41.703	3.0
41.718	9.0
41.733	3.0
41.747	3.0
41.762	4.0
41.777	6.0
41.792	8.0
41.806	3.0
41.821	8.0
41.836	5.0
41.851	5.0
41.866	7.0
41.88	5.0
41.895	4.0
41.91	7.0
41.925	7.0
41.939	9.0
41.954	4.0
41.969	7.0
41.984	4.0
41.999	10.0
42.013	4.0
42.028	7.0
42.043	1.0
42.058	6.0
42.073	3.0
42.088	9.0
42.102	4.0
42.117	10.0
42.132	6.0
42.147	5.0
42.162	7.0
42.176	5.0
42.191	5.0
42.206	5.0
42.221	4.0
42.236	8.0
42.251	5.0
42.266	5.0
42.28	7.0
42.295	15.0
42.31	11.0
42.325	10.0
42.34	12.0
42.355	9.0
42.369	15.0
42.384	15.0
42.399	15.0
42.414	17.0
42.429	22.0
42.444	19.0
42.459	11.0
42.474	12.0
42.488	10.0
42.503	11.0
42.518	14.0
42.533	11.0
42.548	11.0
42.563	10.0
42.578	13.0
42.593	14.0
42.608	9.0
42.622	13.0
42.637	9.0
42.652	16.0
42.667	14.0
42.682	10.0
42.697	4.0
42.712	11.0
42.727	11.0
42.742	13.0
42.757	6.0
42.772	10.0
42.786	7.0
42.801	4.0
42.816	8.0
42.831	8.0
42.846	6.0
42.861	7.0
42.876	3.0
42.891	6.0
42.906	6.0
42.921	2.0
42.936	7.0
42.951	7.0
42.966	1.0
42.981	4.0
42.996	3.0
43.011	3.0
43.025	11.0
43.04	5.0
43.055	6.0
43.07	6.0
43.085	7.0
43.1	6.0
43.115	4.0
43.13	3.0
43.145	8.0
43.16	5.0
43.175	4.0
43.19	3.0
43.205	7.0
43.22	3.0
43.235	6.0
43.25	10.0
43.265	3.0
43.28	7.0
43.295	3.0
43.31	5.0
43.325	7.0
43.34	6.0
43.355	7.0
43.37	5.0
43.385	3.0
43.4	9.0
43.415	5.0
43.43	8.0
43.445	8.0
43.46	11.0
43.475	3.0
43.49	6.0
43.505	4.0
43.52	4.0
43.535	9.0
43.55	11.0
43.565	11.0
43.58	4.0
43.595	10.0
43.61	13.0
43.625	16.0
43.64	16.0
43.655	8.0
43.67	5.0
43.685	5.0
43.7	13.0
43.715	8.0
43.73	5.0
43.745	4.0
43.76	6.0
43.775	9.0
43.79	10.0
43.805	4.0
43.82	7.0
43.835	7.0
43.85	6.0
43.865	10.0
43.88	7.0
43.895	9.0
43.91	11.0
43.925	8.0
43.94	6.0
43.955	4.0
43.97	6.0
43.985	9.0
44.0	4.0
44.015	6.0
44.03	6.0
44.045	6.0
44.061	6.0
44.076	3.0
44.091	8.0
44.106	10.0
44.121	3.0
44.136	5.0
44.151	6.0
44.166	7.0
44.181	4.0
44.196	2.0
44.211	6.0
44.226	5.0
44.241	4.0
44.256	2.0
44.271	3.0
44.286	3.0
44.301	5.0
44.316	5.0
44.331	3.0
44.346	4.0
44.361	1.0
44.377	10.0
44.392	14.0
44.407	6.0
44.422	6.0
44.437	8.0
44.452	7.0
44.467	7.0
44.482	8.0
44.497	5.0
44.512	10.0
44.527	1.0
44.542	1.0
44.557	5.0
44.572	3.0
44.587	6.0
44.602	7.0
44.617	7.0
44.632	3.0
44.647	7.0
44.663	5.0
44.678	8.0
44.693	7.0
44.708	7.0
44.723	9.0
44.738	7.0
44.753	7.0
44.768	10.0
44.783	13.0
44.798	8.0
44.813	8.0
44.828	10.0
44.843	12.0
44.858	10.0
44.873	8.0
44.888	12.0
44.903	11.0
44.918	7.0
44.933	11.0
44.948	2.0
44.964	5.0
44.979	7.0
44.994	6.0
45.009	5.0
45.024	8.0
45.039	6.0
45.054	7.0
45.069	10.0
45.084	10.0
45.099	8.0
45.114	9.0
45.129	13.0
45.144	5.0
45.159	10.0
45.174	8.0
45.189	5.0
45.204	5.0
45.219	5.0
45.234	4.0
45.249	6.0
45.264	10.0
45.279	4.0
45.294	5.0
45.309	8.0
45.324	2.0
45.339	4.0
45.354	3.0
45.369	7.0
45.384	4.0
45.399	6.0
45.414	3.0
45.429	4.0
45.444	4.0
45.459	5.0
45.474	6.0
45.489	7.0
45.504	11.0
45.519	6.0
45.534	6.0
45.549	2.0
45.564	5.0
45.579	4.0
45.594	7.0
45.609	1.0
45.624	4.0
45.639	3.0
45.654	6.0
45.669	8.0
45.684	1.0
45.699	12.0
45.714	8.0
45.729	5.0
45.744	6.0
45.759	8.0
45.774	6.0
45.789	9.0
45.804	5.0
45.819	9.0
45.834	6.0
45.849	3.0
45.864	8.0
45.879	9.0
45.894	13.0
45.909	14.0
45.924	14.0
45.939	15.0
45.954	16.0
45.969	21.0
45.984	23.0
45.998	13.0
46.013	17.0
46.028	26.0
46.043	13.0
46.058	10.0
46.073	13.0
46.088	13.0
46.103	8.0
46.118	11.0
46.133	11.0
46.148	4.0
46.163	7.0
46.178	9.0
46.192	17.0
46.207	11.0
46.222	10.0
46.237	9.0
46.252	10.0
46.267	17.0
46.282	9.0
46.297	6.0
46.312	8.0
46.327	9.0
46.341	12.0
46.356	9.0
46.371	5.0
46.386	0.0
46.401	8.0
46.416	8.0
46.431	2.0
46.446	5.0
46.46	3.0
46.475	5.0
46.49	5.0
46.505	1.0
46.52	5.0
46.535	9.0
46.55	9.0
46.564	9.0
46.579	10.0
46.594	5.0
46.609	7.0
46.624	4.0
46.639	8.0
46.654	5.0
46.668	5.0
46.683	4.0
46.698	9.0
46.713	3.0
46.728	4.0
46.743	3.0
46.758	1.0
46.772	4.0
46.787	5.0
46.802	8.0
46.817	2.0
46.832	6.0
46.847	5.0
46.861	5.0
46.876	4.0
46.891	5.0
46.906	8.0
46.921	5.0
46.936	6.0
46.95	4.0
46.965	6.0
46.98	7.0
46.995	6.0
47.01	10.0
47.025	4.0
47.039	11.0
47.054	9.0
47.069	4.0
47.084	7.0
47.099	9.0
47.113	9.0
47.128	8.0
47.143	6.0
47.158	10.0
47.173	16.0
47.188	8.0
47.202	4.0
47.217	11.0
47.232	8.0
47.247	6.0
47.262	6.0
47.277	8.0
47.291	5.0
47.306	5.0
47.321	3.0
47.336	13.0
47.351	4.0
47.365	8.0
47.38	6.0
47.395	16.0
47.41	4.0
47.425	10.0
47.44	10.0
47.454	9.0
47.469	9.0
47.484	5.0
47.499	6.0
47.514	8.0
47.528	11.0
47.543	8.0
47.558	3.0
47.573	3.0
47.588	2.0
47.603	3.0
47.617	10.0
47.632	6.0
47.647	4.0
47.662	8.0
47.677	3.0
47.691	5.0
47.706	4.0
47.721	6.0
47.736	7.0
47.751	4.0
47.766	7.0
47.78	6.0
47.795	3.0
47.81	8.0
47.825	7.0
47.84	7.0
47.855	3.0
47.869	5.0
47.884	3.0
47.899	3.0
47.914	5.0
47.929	4.0
47.944	8.0
47.958	12.0
47.973	3.0
47.988	5.0
48.003	5.0
48.018	2.0
48.033	5.0
48.047	5.0
48.062	2.0
48.077	6.0
48.092	5.0
48.107	2.0
48.122	7.0
48.137	5.0
48.151	4.0
48.166	5.0
48.181	4.0
48.196	7.0
48.211	3.0
48.226	3.0
48.241	5.0
48.255	7.0
48.27	10.0
48.285	4.0
48.3	3.0
48.315	5.0
48.33	0.0
48.345	4.0
48.359	6.0
48.374	6.0
48.389	5.0
48.404	3.0
48.419	8.0
48.434	4.0
48.449	2.0
48.464	7.0
48.478	6.0
48.493	5.0
48.508	6.0
48.523	5.0
48.538	6.0
48.553	4.0
48.568	3.0
48.583	1.0
48.597	2.0
48.612	2.0
48.627	6.0
48.642	2.0
48.657	5.0
48.672	3.0
48.687	1.0
48.702	4.0
48.717	4.0
48.731	3.0
48.746	3.0
48.761	1.0
48.776	9.0
48.791	5.0
48.806	6.0
48.821	6.0
48.836	4.0
48.851	7.0
48.866	6.0
48.88	8.0
48.895	5.0
48.91	5.0
48.925	3.0
48.94	4.0
48.955	4.0
48.97	6.0
48.985	7.0
49.0	3.0
49.015	1.0
49.03	9.0
49.044	6.0
49.059	7.0
49.074	5.0
49.089	6.0
49.104	4.0
49.119	2.0
49.134	9.0
49.149	3.0
49.164	4.0
49.179	5.0
49.194	4.0
49.209	3.0
49.224	6.0
49.238	4.0
49.253	3.0
49.268	4.0
49.283	8.0
49.298	5.0
49.313	14.0
49.328	8.0
49.343	12.0
49.358	9.0
49.373	2.0
49.388	4.0
49.403	3.0
49.418	7.0
49.433	3.0
49.448	6.0
49.463	10.0
49.478	7.0
49.492	7.0
49.507	6.0
49.522	5.0
49.537	2.0
49.552	2.0
49.567	4.0
49.582	7.0
49.597	8.0
49.612	5.0
49.627	7.0
49.642	9.0
49.657	4.0
49.672	7.0
49.687	8.0
49.702	8.0
49.717	5.0
49.732	8.0
49.747	8.0
49.762	7.0
49.777	7.0
49.792	1.0
49.807	6.0
49.822	5.0
49.837	2.0
49.852	1.0
49.867	7.0
49.882	3.0
49.897	3.0
49.912	9.0
49.927	6.0
49.942	6.0
49.957	5.0
49.971	2.0
49.986	3.0
50.001	4.0
50.016	3.0
50.031	3.0
50.046	5.0
50.061	6.0
50.076	3.0
50.091	3.0
50.106	1.0
50.121	5.0
50.136	2.0
50.151	4.0
50.166	4.0
50.181	0.0
50.196	7.0
50.211	4.0
50.226	6.0
50.241	6.0
50.256	5.0
50.271	3.0
50.286	4.0
50.302	7.0
50.317	3.0
50.332	7.0
50.347	6.0
50.362	6.0
50.377	11.0
50.392	5.0
50.407	5.0
50.422	5.0
50.437	8.0
50.452	2.0
50.467	3.0
50.482	11.0
50.497	12.0
50.512	5.0
50.527	2.0
50.542	2.0
50.557	9.0
50.572	3.0
50.587	4.0
50.602	7.0
50.617	5.0
50.632	3.0
50.647	7.0
50.662	6.0
50.677	5.0
50.692	6.0
50.707	2.0
50.722	6.0
50.737	4.0
50.752	9.0
50.767	7.0
50.782	5.0
50.797	7.0
50.812	3.0
50.828	5.0
50.843	3.0
50.858	4.0
50.873	7.0
50.888	11.0
50.903	5.0
50.918	3.0
50.933	7.0
50.948	7.0
50.963	5.0
50.978	7.0
50.993	4.0
51.008	4.0
51.023	4.0
51.038	7.0
51.053	3.0
51.068	5.0
51.083	5.0
51.098	5.0
51.114	2.0
51.129	3.0
51.144	3.0
51.159	8.0
51.174	5.0
51.189	5.0
51.204	5.0
51.219	5.0
51.234	6.0
51.249	2.0
51.264	6.0
51.279	5.0
51.294	7.0
51.309	8.0
51.324	2.0
51.34	7.0
51.355	9.0
51.37	5.0
51.385	9.0
51.4	10.0
51.415	9.0
51.43	15.0
51.445	12.0
51.46	13.0
51.475	15.0
51.49	14.0
51.505	16.0
51.52	11.0
51.535	15.0
51.551	17.0
51.566	11.0
51.581	14.0
51.596	13.0
51.611	8.0
51.626	13.0
51.641	10.0
51.656	9.0
51.671	11.0
51.686	4.0
51.701	8.0
51.716	8.0
51.732	6.0
51.747	6.0
51.762	7.0
51.777	12.0
51.792	11.0
51.807	8.0
51.822	7.0
51.837	10.0
51.852	10.0
51.867	8.0
51.882	9.0
51.898	9.0
51.913	9.0
51.928	10.0
51.943	9.0
51.958	8.0
51.973	1.0
51.988	4.0
52.003	8.0
52.018	4.0
52.033	7.0
52.048	7.0
52.064	2.0
52.079	6.0
52.094	5.0
52.109	1.0
52.124	5.0
52.139	1.0
52.154	6.0
52.169	6.0
52.184	6.0
52.199	5.0
52.215	4.0
52.23	7.0
52.245	6.0
52.26	5.0
52.275	9.0
52.29	6.0
52.305	6.0
52.32	7.0
52.335	5.0
52.35	4.0
52.366	7.0
52.381	7.0
52.396	3.0
52.411	4.0
52.426	4.0
52.441	3.0
52.456	5.0
52.471	7.0
52.486	10.0
52.502	3.0
52.517	5.0
52.532	10.0
52.547	6.0
52.562	8.0
52.577	12.0
52.592	8.0
52.607	5.0
52.622	7.0
52.637	9.0
52.653	8.0
52.668	10.0
52.683	3.0
52.698	8.0
52.713	8.0
52.728	6.0
52.743	5.0
52.758	7.0
52.774	5.0
52.789	5.0
52.804	6.0
52.819	4.0
52.834	6.0
52.849	5.0
52.864	9.0
52.879	6.0
52.894	6.0
52.91	3.0
52.925	7.0
52.94	9.0
52.955	9.0
52.97	9.0
52.985	8.0
53.0	7.0
53.015	4.0
53.031	3.0
53.046	2.0
53.061	4.0
53.076	8.0
53.091	1.0
53.106	4.0
53.121	8.0
53.136	4.0
53.152	4.0
53.167	6.0
53.182	7.0
53.197	3.0
53.212	4.0
53.227	6.0
53.242	5.0
53.257	5.0
53.273	11.0
53.288	9.0
53.303	6.0
53.318	2.0
53.333	3.0
53.348	5.0
53.363	10.0
53.379	4.0
53.394	4.0
53.409	3.0
53.424	2.0
53.439	3.0
53.454	8.0
53.469	7.0
53.484	2.0
53.5	7.0
53.515	3.0
53.53	4.0
53.545	7.0
53.56	5.0
53.575	4.0
53.59	3.0
53.606	2.0
53.621	2.0
53.636	5.0
53.651	7.0
53.666	4.0
53.681	6.0
53.696	6.0
53.712	3.0
53.727	4.0
53.742	1.0
53.757	0.0
53.772	3.0
53.787	3.0
53.802	4.0
53.818	6.0
53.833	3.0
53.848	4.0
53.863	5.0
53.878	3.0
53.893	4.0
53.909	3.0
53.924	3.0
53.939	4.0
53.954	5.0
53.969	3.0
53.984	4.0
53.999	5.0
54.015	5.0
54.03	2.0
54.045	2.0
54.06	5.0
54.075	6.0
54.09	2.0
54.106	4.0
54.121	6.0
54.136	5.0
54.151	6.0
54.166	8.0
54.181	1.0
54.197	5.0
54.212	2.0
54.227	3.0
54.242	9.0
54.257	5.0
54.272	3.0
54.288	7.0
54.303	4.0
54.318	6.0
54.333	7.0
54.348	4.0
54.363	5.0
54.379	5.0
54.394	4.0
54.409	6.0
54.424	5.0
54.439	4.0
54.454	4.0
54.47	8.0
54.485	3.0
54.5	6.0
54.515	4.0
54.53	11.0
54.545	7.0
54.561	3.0
54.576	11.0
54.591	12.0
54.606	13.0
54.621	10.0
54.636	19.0
54.652	15.0
54.667	9.0
54.682	15.0
54.697	10.0
54.712	20.0
54.727	12.0
54.743	5.0
54.758	8.0
54.773	6.0
54.788	4.0
54.803	6.0
54.819	5.0
54.834	2.0
54.849	8.0
54.864	5.0
54.879	5.0
54.894	5.0
54.91	6.0
54.925	13.0
54.94	10.0
54.955	2.0
54.97	10.0
54.985	4.0
55.001	9.0
55.016	9.0
55.031	10.0
55.046	8.0
55.061	12.0
55.077	5.0
55.092	10.0
55.107	5.0
55.122	2.0
55.137	5.0
55.152	5.0
55.168	7.0
55.183	3.0
55.198	7.0
55.213	1.0
55.228	7.0
55.243	4.0
55.259	2.0
55.274	5.0
55.289	10.0
55.304	4.0
55.319	8.0
55.335	6.0
55.35	3.0
55.365	2.0
55.38	6.0
55.395	7.0
55.41	5.0
55.426	5.0
55.441	1.0
55.456	7.0
55.471	3.0
55.486	5.0
55.501	9.0
55.517	5.0
55.532	3.0
55.547	1.0
55.562	6.0
55.577	9.0
55.592	6.0
55.608	4.0
55.623	7.0
55.638	6.0
55.653	13.0
55.668	6.0
55.683	7.0
55.699	7.0
55.714	13.0
55.729	14.0
55.744	8.0
55.759	5.0
55.774	2.0
55.79	2.0
55.805	4.0
55.82	6.0
55.835	8.0
55.85	3.0
55.865	5.0
55.881	2.0
55.896	4.0
55.911	3.0
55.926	8.0
55.941	3.0
55.956	3.0
55.972	5.0
55.987	6.0
56.002	7.0
56.017	6.0
56.032	8.0
56.047	7.0
56.063	7.0
56.078	6.0
56.093	10.0
56.108	4.0
56.123	6.0
56.138	5.0
56.154	3.0
56.169	5.0
56.184	5.0
56.199	4.0
56.214	5.0
56.229	6.0
56.244	3.0
56.26	6.0
56.275	3.0
56.29	4.0
56.305	0.0
56.32	2.0
56.335	2.0
56.351	4.0
56.366	8.0
56.381	4.0
56.396	6.0
56.411	5.0
56.426	3.0
56.441	1.0
56.457	6.0
56.472	6.0
56.487	10.0
56.502	2.0
56.517	3.0
56.532	9.0
56.547	4.0
56.563	7.0
56.578	4.0
56.593	4.0
56.608	4.0
56.623	2.0
56.638	1.0
56.653	4.0
56.668	4.0
56.684	3.0
56.699	11.0
56.714	2.0
56.729	4.0
56.744	2.0
56.759	4.0
56.774	5.0
56.79	4.0
56.805	5.0
56.82	3.0
56.835	6.0
56.85	4.0
56.865	6.0
56.88	3.0
56.895	2.0
56.911	6.0
56.926	4.0
56.941	2.0
56.956	9.0
56.971	5.0
56.986	10.0
57.001	4.0
57.016	0.0
57.031	4.0
57.047	3.0
57.062	5.0
57.077	1.0
57.092	0.0
57.107	4.0
57.122	7.0
57.137	8.0
57.152	4.0
57.167	3.0
57.183	8.0
57.198	5.0
57.213	1.0
57.228	3.0
57.243	2.0
57.258	2.0
57.273	1.0
57.288	4.0
57.303	3.0
57.318	4.0
57.334	2.0
57.349	1.0
57.364	6.0
57.379	2.0
57.394	6.0
57.409	6.0
57.424	4.0
57.439	5.0
57.454	4.0
57.469	4.0
57.484	7.0
57.5	9.0
57.515	6.0
57.53	5.0
57.545	5.0
57.56	8.0
57.575	10.0
57.59	7.0
57.605	6.0
57.62	7.0
57.635	5.0
57.65	3.0
57.665	8.0
57.68	5.0
57.696	4.0
57.711	5.0
57.726	4.0
57.741	5.0
57.756	7.0
57.771	2.0
57.786	6.0
57.801	6.0
57.816	6.0
57.831	4.0
57.846	8.0
57.861	8.0
57.876	5.0
57.891	1.0
57.906	6.0
57.921	6.0
57.937	2.0
57.952	10.0
57.967	1.0
57.982	4.0
57.997	6.0
58.012	4.0
58.027	3.0
58.042	6.0
58.057	7.0
58.072	0.0
58.087	7.0
58.102	6.0
58.117	7.0
58.132	7.0
58.147	4.0
58.162	7.0
58.177	2.0
58.192	8.0
58.207	6.0
58.222	5.0
58.237	11.0
58.252	3.0
58.267	5.0
58.282	7.0
58.297	7.0
58.312	1.0
58.327	7.0
58.342	6.0
58.357	7.0
58.372	7.0
58.387	4.0
58.402	2.0
58.418	3.0
58.433	5.0
58.448	7.0
58.463	4.0
58.478	8.0
58.493	2.0
58.508	5.0
58.523	7.0
58.538	3.0
58.553	8.0
58.568	5.0
58.583	5.0
58.598	5.0
58.613	8.0
58.628	9.0
58.643	12.0
58.658	6.0
58.673	11.0
58.688	8.0
58.703	5.0
58.718	10.0
58.733	7.0
58.748	7.0
58.763	6.0
58.778	4.0
58.793	6.0
58.808	2.0
58.823	5.0
58.838	3.0
58.853	8.0
58.868	8.0
58.883	7.0
58.898	3.0
58.913	3.0
58.928	3.0
58.942	7.0
58.957	9.0
58.972	8.0
58.987	5.0
59.002	7.0
59.017	7.0
59.032	13.0
59.047	7.0
59.062	3.0
59.077	8.0
59.092	5.0
59.107	10.0
59.122	8.0
59.137	9.0
59.152	7.0
59.167	6.0
59.182	4.0
59.197	4.0
59.212	3.0
59.227	7.0
59.242	5.0
59.257	6.0
59.272	6.0
59.287	5.0
59.302	3.0
59.317	3.0
59.332	3.0
59.347	4.0
59.362	2.0
59.377	4.0
59.392	5.0
59.407	4.0
59.422	5.0
59.437	5.0
59.452	5.0
59.467	8.0
59.482	5.0
59.497	5.0
59.512	3.0
59.527	4.0
59.542	7.0
59.557	7.0
59.572	5.0
59.587	10.0
59.602	4.0
59.617	9.0
59.632	7.0
59.647	9.0
59.661	10.0
59.676	9.0
59.691	7.0
59.706	5.0
59.721	5.0
59.736	2.0
59.751	3.0
59.766	7.0
59.781	2.0
59.796	5.0
59.811	2.0
59.826	2.0
59.841	8.0
59.856	8.0
59.871	3.0
59.886	3.0
59.901	6.0
59.916	8.0
59.931	6.0
59.946	6.0
59.961	2.0
59.976	7.0
59.991	11.0
60.006	6.0
60.021	5.0
60.036	9.0
60.051	5.0
60.066	4.0
60.081	7.0
60.096	4.0
60.111	8.0
60.126	2.0
60.141	0.0
60.156	4.0
60.171	5.0
60.186	4.0
60.201	4.0
60.216	4.0
60.231	3.0
60.246	4.0
60.261	2.0
60.276	7.0
60.291	3.0
60.306	10.0
60.321	7.0
60.336	4.0
60.35	1.0
60.365	3.0
60.38	3.0
60.395	4.0
60.41	6.0
60.425	3.0
60.44	3.0
60.455	2.0
60.47	2.0
60.485	2.0
60.5	5.0
60.515	6.0
60.53	10.0
60.545	7.0
60.56	9.0
60.575	6.0
60.59	7.0
60.605	5.0
60.62	8.0
60.635	7.0
60.65	5.0
60.665	4.0
60.68	1.0
60.695	4.0
60.71	6.0
60.725	6.0
60.74	1.0
60.755	5.0
60.77	5.0
60.785	5.0
60.8	2.0
60.815	2.0
60.83	8.0
60.845	3.0
60.86	6.0
60.875	6.0
60.89	10.0
60.905	3.0
60.92	6.0
60.935	7.0
60.95	8.0
60.965	7.0
60.98	9.0
60.995	5.0
61.01	8.0
61.025	3.0
61.04	8.0
61.055	4.0
61.07	3.0
61.085	2.0
61.1	2.0
61.115	4.0
61.13	7.0
61.145	2.0
61.16	4.0
61.175	2.0
61.191	2.0
61.206	3.0
61.221	1.0
61.236	6.0
61.251	9.0
61.266	4.0
61.281	5.0
61.296	3.0
61.311	3.0
61.326	4.0
61.341	5.0
61.356	7.0
61.371	2.0
61.386	4.0
61.401	3.0
61.416	4.0
61.431	1.0
61.446	5.0
61.461	9.0
61.476	5.0
61.491	3.0
61.506	8.0
61.521	6.0
61.536	7.0
61.551	8.0
61.566	3.0
61.581	3.0
61.596	7.0
61.611	5.0
61.626	6.0
61.641	4.0
61.656	5.0
61.672	1.0
61.687	5.0
61.702	2.0
61.717	3.0
61.732	5.0
61.747	3.0
61.762	3.0
61.777	6.0
61.792	3.0
61.807	6.0
61.822	3.0
61.837	3.0
61.852	4.0
61.867	6.0
61.882	4.0
61.897	2.0
61.912	8.0
61.927	1.0
61.943	3.0
61.958	9.0
61.973	5.0
61.988	5.0
62.003	5.0
62.018	1.0
62.033	6.0
62.048	4.0
62.063	6.0
62.078	1.0
62.093	4.0
62.108	4.0
62.123	6.0
62.138	4.0
62.153	1.0
62.169	5.0
62.184	5.0
62.199	4.0
62.214	4.0
62.229	2.0
62.244	6.0
62.259	4.0
62.274	3.0
62.289	8.0
62.304	2.0
62.319	10.0
62.335	1.0
62.35	3.0
62.365	1.0
62.38	6.0
62.395	4.0
62.41	6.0
62.425	5.0
62.44	2.0
62.455	6.0
62.47	1.0
62.485	3.0
62.501	9.0
62.516	5.0
62.531	7.0
62.546	6.0
62.561	5.0
62.576	5.0
62.591	3.0
62.606	3.0
62.621	1.0
62.636	5.0
62.652	6.0
62.667	3.0
62.682	2.0
62.697	6.0
62.712	6.0
62.727	1.0
62.742	1.0
62.757	2.0
62.772	4.0
62.787	2.0
62.803	5.0
62.818	2.0
62.833	1.0
62.848	7.0
62.863	5.0
62.878	2.0
62.893	5.0
62.908	7.0
62.923	2.0
62.939	4.0
62.954	4.0
62.969	4.0
62.984	6.0
62.999	6.0
63.014	5.0
63.029	5.0
63.044	4.0
63.059	3.0
63.074	5.0
63.09	2.0
63.105	4.0
63.12	1.0
63.135	4.0
63.15	2.0
63.165	0.0
63.18	4.0
63.195	5.0
63.21	3.0
63.226	4.0
63.241	4.0
63.256	2.0
63.271	3.0
63.286	2.0
63.301	3.0
63.316	3.0
63.331	6.0
63.346	6.0
63.362	3.0
63.377	10.0
63.392	5.0
63.407	9.0
63.422	11.0
63.437	3.0
63.452	6.0
63.467	8.0
63.482	5.0
63.497	6.0
63.513	2.0
63.528	1.0
63.543	4.0
63.558	9.0
63.573	2.0
63.588	4.0
63.603	4.0
63.618	5.0
63.633	5.0
63.648	5.0
63.664	4.0
63.679	5.0
63.694	2.0
63.709	3.0
63.724	3.0
63.739	5.0
63.754	8.0
63.769	4.0
63.784	12.0
63.799	11.0
63.814	11.0
63.83	6.0
63.845	4.0
63.86	13.0
63.875	3.0
63.89	3.0
63.905	3.0
63.92	5.0
63.935	3.0
63.95	5.0
63.965	3.0
63.98	3.0
63.996	1.0
64.011	4.0
64.026	5.0
64.041	1.0
64.056	2.0
64.071	5.0
64.086	1.0
64.101	6.0
64.116	4.0
64.131	4.0
64.146	5.0
64.161	4.0
64.176	7.0
64.191	3.0
64.207	6.0
64.222	4.0
64.237	1.0
64.252	3.0
64.267	3.0
64.282	3.0
64.297	2.0
64.312	3.0
64.327	3.0
64.342	2.0
64.357	2.0
64.372	4.0
64.387	4.0
64.402	4.0
64.417	5.0
64.433	5.0
64.448	3.0
64.463	5.0
64.478	3.0
64.493	6.0
64.508	1.0
64.523	3.0
64.538	1.0
64.553	2.0
64.568	6.0
64.583	3.0
64.598	0.0
64.613	3.0
64.628	2.0
64.643	4.0
64.658	3.0
64.673	6.0
64.688	1.0
64.703	5.0
64.718	1.0
64.734	8.0
64.749	5.0
64.764	3.0
64.779	4.0
64.794	5.0
64.809	2.0
64.824	3.0
64.839	6.0
64.854	4.0
64.869	3.0
64.884	3.0
64.899	3.0
64.914	3.0
64.929	7.0
64.944	5.0
64.959	4.0
64.974	7.0
64.989	3.0
65.004	2.0
65.019	4.0
65.034	5.0
65.049	1.0
65.064	5.0
65.079	4.0
65.094	5.0
65.109	5.0
65.125	2.0
65.14	7.0
65.155	6.0
65.17	4.0
65.185	5.0
65.2	6.0
65.215	7.0
65.23	5.0
65.245	7.0
65.26	3.0
65.275	7.0
65.29	0.0
65.305	7.0
65.32	5.0
65.335	5.0
65.35	6.0
65.365	3.0
65.38	4.0
65.395	5.0
65.41	3.0
65.425	3.0
65.44	4.0
65.455	1.0
65.47	2.0
65.485	3.0
65.5	3.0
65.515	3.0
65.53	4.0
65.545	2.0
65.56	2.0
65.575	7.0
65.59	1.0
65.605	5.0
65.62	6.0
65.635	7.0
65.65	5.0
65.666	8.0
65.681	3.0
65.696	5.0
65.711	1.0
65.726	1.0
65.741	6.0
65.756	5.0
65.771	7.0
65.786	3.0
65.801	3.0
65.816	3.0
65.831	2.0
65.846	6.0
65.861	4.0
65.876	8.0
65.891	6.0
65.906	7.0
65.921	3.0
65.936	2.0
65.951	2.0
65.966	4.0
65.981	3.0
65.996	4.0
66.011	6.0
66.026	5.0
66.041	3.0
66.056	4.0
66.071	0.0
66.086	11.0
66.101	4.0
66.116	6.0
66.131	4.0
66.146	6.0
66.161	9.0
66.176	7.0
66.191	7.0
66.206	9.0
66.221	12.0
66.236	4.0
66.251	8.0
66.266	9.0
66.281	7.0
66.296	7.0
66.311	2.0
66.327	3.0
66.342	5.0
66.357	5.0
66.372	2.0
66.387	3.0
66.402	2.0
66.417	3.0
66.432	3.0
66.447	6.0
66.462	7.0
66.477	9.0
66.492	4.0
66.507	1.0
66.522	4.0
66.537	4.0
66.552	4.0
66.567	5.0
66.582	5.0
66.597	2.0
66.612	8.0
66.627	7.0
66.642	8.0
66.657	8.0
66.672	8.0
66.687	5.0
66.702	1.0
66.717	3.0
66.732	8.0
66.747	4.0
66.762	5.0
66.777	5.0
66.792	3.0
66.807	9.0
66.822	2.0
66.837	2.0
66.853	3.0
66.868	0.0
66.883	5.0
66.898	2.0
66.913	6.0
66.928	3.0
66.943	6.0
66.958	2.0
66.973	3.0
66.988	5.0
67.003	6.0
67.018	7.0
67.033	2.0
67.048	2.0
67.063	4.0
67.078	4.0
67.093	3.0
67.108	5.0
67.123	4.0
67.138	6.0
67.153	1.0
67.168	2.0
67.183	2.0
67.198	6.0
67.214	4.0
67.229	1.0
67.244	4.0
67.259	5.0
67.274	3.0
67.289	4.0
67.304	1.0
67.319	1.0
67.334	3.0
67.349	3.0
67.364	7.0
67.379	1.0
67.394	2.0
67.409	7.0
67.424	5.0
67.439	9.0
67.454	5.0
67.469	2.0
67.484	4.0
67.5	2.0
67.515	7.0
67.53	5.0
67.545	2.0
67.56	7.0
67.575	5.0
67.59	6.0
67.605	1.0
67.62	5.0
67.635	4.0
67.65	2.0
67.665	2.0
67.68	4.0
67.695	1.0
67.71	6.0
67.726	1.0
67.741	2.0
67.756	5.0
67.771	4.0
67.786	7.0
67.801	1.0
67.816	4.0
67.831	6.0
67.846	1.0
67.861	2.0
67.876	5.0
67.891	5.0
67.906	4.0
67.922	1.0
67.937	4.0
67.952	5.0
67.967	5.0
67.982	5.0
67.997	6.0
68.012	4.0
68.027	5.0
68.042	3.0
68.057	5.0
68.072	3.0
68.087	4.0
68.103	4.0
68.118	5.0
68.133	3.0
68.148	2.0
68.163	4.0
68.178	3.0
68.193	3.0
68.208	3.0
68.223	6.0
68.238	7.0
68.254	5.0
68.269	2.0
68.284	3.0
68.299	2.0
68.314	4.0
68.329	4.0
68.344	6.0
68.359	8.0
68.374	7.0
68.389	3.0
68.405	2.0
68.42	4.0
68.435	6.0
68.45	4.0
68.465	4.0
68.48	3.0
68.495	4.0
68.51	9.0
68.525	1.0
68.54	4.0
68.556	5.0
68.571	2.0
68.586	3.0
68.601	5.0
68.616	5.0
68.631	0.0
68.646	5.0
68.661	2.0
68.676	2.0
68.691	5.0
68.707	1.0
68.722	4.0
68.737	6.0
68.752	5.0
68.767	3.0
68.782	4.0
68.797	3.0
68.812	1.0
68.827	2.0
68.842	4.0
68.857	4.0
68.873	1.0
68.888	5.0
68.903	7.0
68.918	3.0
68.933	3.0
68.948	6.0
68.963	2.0
68.978	1.0
68.993	4.0
69.008	3.0
69.023	2.0
69.038	3.0
69.054	5.0
69.069	3.0
69.084	0.0
69.099	6.0
69.114	6.0
69.129	5.0
69.144	3.0
69.159	3.0
69.174	6.0
69.189	1.0
69.204	3.0
69.219	0.0
69.234	3.0
69.249	4.0
69.264	1.0
69.279	4.0
69.295	4.0
69.31	3.0
69.325	3.0
69.34	3.0
69.355	4.0
69.37	2.0
69.385	1.0
69.4	1.0
69.415	4.0
69.43	0.0
69.445	5.0
69.46	7.0
69.475	3.0
69.49	1.0
69.505	6.0
69.52	3.0
69.535	0.0
69.55	3.0
69.565	4.0
69.58	4.0
69.595	3.0
69.61	2.0
69.625	4.0
69.64	4.0
69.655	8.0
69.67	6.0
69.685	4.0
69.7	4.0
69.715	5.0
69.73	2.0
69.745	3.0
69.76	11.0
69.775	6.0
69.79	6.0
69.805	7.0
69.82	7.0
69.835	3.0
69.85	7.0
69.865	3.0
69.88	2.0
69.895	5.0
69.909	2.0
69.924	3.0
69.939	3.0
69.954	0.0
69.969	2.0
69.984	4.0
69.999	3.0
70.014	10.0
70.029	5.0
70.044	2.0
70.059	6.0
70.074	5.0
70.088	8.0
70.103	1.0
70.118	2.0
70.133	2.0
70.148	2.0
70.163	4.0
70.178	4.0
70.193	1.0
70.208	7.0
70.222	4.0
70.237	7.0
70.252	7.0
70.267	6.0
70.282	9.0
70.297	7.0
70.312	3.0
70.327	4.0
70.341	1.0
70.356	2.0
70.371	5.0
70.386	9.0
70.401	4.0
70.416	4.0
70.43	1.0
70.445	9.0
70.46	4.0
70.475	2.0
70.49	5.0
70.505	5.0
70.519	5.0
70.534	3.0
70.549	3.0
70.564	4.0
70.579	4.0
70.594	4.0
70.608	3.0
70.623	7.0
70.638	7.0
70.653	7.0
70.668	9.0
70.683	6.0
70.697	1.0
70.712	5.0
70.727	5.0
70.742	2.0
70.757	1.0
70.771	5.0
70.786	7.0
70.801	1.0
70.816	5.0
70.831	7.0
70.845	6.0
70.86	1.0
70.875	3.0
70.89	2.0
70.905	1.0
70.92	4.0
70.934	3.0
70.949	3.0
70.964	7.0
70.979	5.0
70.994	1.0
71.008	1.0
71.023	4.0
71.038	7.0
71.053	6.0
71.068	3.0
71.082	5.0
71.097	6.0
71.112	4.0
71.127	5.0
71.142	8.0
71.156	7.0
71.171	4.0
71.186	9.0
71.201	5.0
71.216	4.0
71.231	3.0
71.245	4.0
71.26	8.0
71.275	2.0
71.29	3.0
71.305	2.0
71.319	0.0
71.334	1.0
71.349	5.0
71.364	4.0
71.379	1.0
71.394	2.0
71.408	1.0
71.423	0.0
71.438	2.0
71.453	5.0
71.468	1.0
71.483	6.0
71.497	4.0
71.512	3.0
71.527	3.0
71.542	1.0
71.557	2.0
71.572	5.0
71.586	3.0
71.601	4.0
71.616	0.0
71.631	3.0
71.646	3.0
71.661	4.0
71.676	0.0
71.69	3.0
71.705	2.0
71.72	3.0
71.735	3.0
71.75	3.0
71.765	2.0
71.78	7.0
71.795	5.0
71.81	1.0
71.824	6.0
71.839	4.0
71.854	3.0
71.869	4.0
71.884	3.0
71.899	6.0
71.914	2.0
71.929	7.0
71.944	2.0
71.959	4.0
71.974	3.0
71.988	6.0
72.003	1.0
72.018	4.0
72.033	3.0
72.048	3.0
72.063	0.0
72.078	2.0
72.093	2.0
72.108	6.0
72.123	4.0
72.138	5.0
72.153	3.0
72.168	2.0
72.183	2.0
72.198	3.0
72.213	4.0
72.228	1.0
72.243	6.0
72.258	1.0
72.273	4.0
72.288	2.0
72.303	1.0
72.318	3.0
72.333	3.0
72.348	4.0
72.363	1.0
72.378	1.0
72.393	3.0
72.408	4.0
72.423	3.0
72.438	5.0
72.453	9.0
72.468	3.0
72.483	2.0
72.498	3.0
72.513	8.0
72.528	4.0
72.543	5.0
72.558	3.0
72.573	3.0
72.588	6.0
72.603	5.0
72.618	2.0
72.633	4.0
72.649	4.0
72.664	2.0
72.679	0.0
72.694	3.0
72.709	2.0
72.724	4.0
72.739	2.0
72.754	4.0
72.769	5.0
72.784	3.0
72.799	1.0
72.814	2.0
72.829	2.0
72.845	2.0
72.86	5.0
72.875	4.0
72.89	4.0
72.905	4.0
72.92	3.0
72.935	4.0
72.95	3.0
72.965	2.0
72.98	4.0
72.996	5.0
73.011	5.0
73.026	5.0
73.041	3.0
73.056	2.0
73.071	5.0
73.086	2.0
73.101	2.0
73.117	1.0
73.132	6.0
73.147	2.0
73.162	4.0
73.177	4.0
73.192	5.0
73.207	4.0
73.222	6.0
73.238	5.0
73.253	6.0
73.268	2.0
73.283	1.0
73.298	3.0
73.313	9.0
73.328	3.0
73.343	6.0
73.359	8.0
73.374	5.0
73.389	5.0
73.404	3.0
73.419	2.0
73.434	3.0
73.449	2.0
73.465	4.0
73.48	2.0
73.495	3.0
73.51	2.0
73.525	9.0
73.54	5.0
73.556	0.0
73.571	1.0
73.586	2.0
73.601	3.0
73.616	5.0
73.631	3.0
73.646	3.0
73.662	6.0
73.677	5.0
73.692	1.0
73.707	5.0
73.722	5.0
73.737	6.0
73.752	3.0
73.768	7.0
73.783	7.0
73.798	4.0
73.813	6.0
73.828	5.0
73.843	4.0
73.859	2.0
73.874	7.0
73.889	5.0
73.904	7.0
73.919	3.0
73.934	3.0
73.949	1.0
73.965	1.0
73.98	5.0
73.995	0.0
74.01	3.0
74.025	2.0
74.04	5.0
74.056	6.0
74.071	3.0
74.086	5.0
74.101	7.0
74.116	2.0
74.131	5.0
74.146	4.0
74.162	4.0
74.177	3.0
74.192	5.0
74.207	3.0
74.222	11.0
74.237	13.0
74.252	2.0
74.268	4.0
74.283	4.0
74.298	4.0
74.313	6.0
74.328	6.0
74.343	1.0
74.358	4.0
74.374	3.0
74.389	7.0
74.404	3.0
74.419	3.0
74.434	2.0
74.449	1.0
74.464	1.0
74.48	3.0
74.495	0.0
74.51	3.0
74.525	4.0
74.54	2.0
74.555	2.0
74.57	4.0
74.586	5.0
74.601	2.0
74.616	4.0
74.631	5.0
74.646	5.0
74.661	3.0
74.676	4.0
74.691	5.0
74.707	1.0
74.722	0.0
74.737	5.0
74.752	8.0
74.767	1.0
74.782	3.0
74.797	6.0
74.813	4.0
74.828	4.0
74.843	2.0
74.858	5.0
74.873	3.0
74.888	3.0
74.903	2.0
74.918	5.0
74.934	4.0
74.949	2.0
74.964	0.0
74.979	5.0
74.994	4.0
75.009	6.0
75.024	7.0
75.04	5.0
75.055	6.0
75.07	9.0
75.085	5.0
75.1	5.0
75.115	2.0
75.13	4.0
75.145	3.0
75.161	0.0
75.176	6.0
75.191	8.0
75.206	0.0
75.221	2.0
75.236	5.0
75.251	4.0
75.266	2.0
75.282	4.0
75.297	4.0
75.312	4.0
75.327	9.0
75.342	5.0
75.357	2.0
75.372	5.0
75.387	3.0
75.403	2.0
75.418	3.0
75.433	1.0
75.448	7.0
75.463	3.0
75.478	4.0
75.493	0.0
75.509	2.0
75.524	9.0
75.539	6.0
75.554	3.0
75.569	4.0
75.584	4.0
75.599	6.0
75.614	7.0
75.63	4.0
75.645	3.0
75.66	0.0
75.675	0.0
75.69	2.0
75.705	5.0
75.72	1.0
75.735	5.0
75.751	3.0
75.766	6.0
75.781	3.0
75.796	7.0
75.811	6.0
75.826	3.0
75.841	3.0
75.856	3.0
75.872	5.0
75.887	5.0
75.902	4.0
75.917	4.0
75.932	3.0
75.947	3.0
75.962	4.0
75.977	3.0
75.993	5.0
76.008	1.0
76.023	5.0
76.038	1.0
76.053	3.0
76.068	0.0
76.083	2.0
76.098	3.0
76.114	3.0
76.129	4.0
76.144	5.0
76.159	5.0
76.174	1.0
76.189	3.0
76.204	3.0
76.22	2.0
76.235	3.0
76.25	3.0
76.265	2.0
76.28	2.0
76.295	4.0
76.31	1.0
76.325	1.0
76.341	3.0
76.356	3.0
76.371	2.0
76.386	4.0
76.401	5.0
76.416	8.0
76.431	3.0
76.446	6.0
76.462	1.0
76.477	2.0
76.492	3.0
76.507	6.0
76.522	2.0
76.537	1.0
76.552	0.0
76.567	2.0
76.583	5.0
76.598	2.0
76.613	1.0
76.628	5.0
76.643	1.0
76.658	3.0
76.673	6.0
76.688	4.0
76.704	4.0
76.719	5.0
76.734	5.0
76.749	6.0
76.764	4.0
76.779	4.0
76.794	2.0
76.809	3.0
76.824	2.0
76.84	5.0
76.855	3.0
76.87	6.0
76.885	5.0
76.9	3.0
76.915	6.0
76.93	1.0
76.945	1.0
76.96	3.0
76.976	1.0
76.991	3.0
77.006	4.0
77.021	1.0
77.036	2.0
77.051	1.0
77.066	1.0
77.081	2.0
77.096	3.0
77.112	4.0
77.127	8.0
77.142	3.0
77.157	2.0
77.172	5.0
77.187	3.0
77.202	2.0
77.217	4.0
77.232	4.0
77.247	5.0
77.263	8.0
77.278	6.0
77.293	7.0
77.308	6.0
77.323	7.0
77.338	6.0
77.353	6.0
77.368	2.0
77.383	3.0
77.398	2.0
77.413	5.0
77.428	8.0
77.444	4.0
77.459	2.0
77.474	3.0
77.489	6.0
77.504	7.0
77.519	5.0
77.534	4.0
77.549	3.0
77.564	2.0
77.579	5.0
77.594	6.0
77.609	5.0
77.624	7.0
77.64	8.0
77.655	8.0
77.67	4.0
77.685	3.0
77.7	4.0
77.715	7.0
77.73	8.0
77.745	5.0
77.76	3.0
77.775	2.0
77.79	3.0
77.805	5.0
77.82	1.0
77.835	5.0
77.85	6.0
77.865	4.0
77.88	0.0
77.895	2.0
77.91	1.0
77.926	5.0
77.941	2.0
77.956	3.0
77.971	2.0
77.986	0.0
78.001	0.0
78.016	7.0
78.031	5.0
78.046	9.0
78.061	0.0
78.076	4.0
78.091	5.0
78.106	4.0
78.121	3.0
78.136	4.0
78.151	3.0
78.166	3.0
78.181	6.0
78.196	9.0
78.211	4.0
78.226	3.0
78.241	3.0
78.256	2.0
78.271	5.0
78.286	4.0
78.301	3.0
78.316	3.0
78.331	3.0
78.346	2.0
78.361	1.0
78.376	1.0
78.391	2.0
78.406	4.0
78.421	6.0
78.436	7.0
78.451	3.0
78.466	3.0
78.481	6.0
78.496	4.0
78.511	1.0
78.526	5.0
78.541	6.0
78.556	1.0
78.571	2.0
78.586	5.0
78.601	4.0
78.616	2.0
78.631	3.0
78.646	0.0
78.661	5.0
78.676	6.0
78.691	3.0
78.706	5.0
78.721	2.0
78.736	1.0
78.751	5.0
78.766	4.0
78.781	3.0
78.796	4.0
78.811	1.0
78.826	2.0
78.841	5.0
78.856	4.0
78.871	1.0
78.885	3.0
78.9	2.0
78.915	0.0
78.93	1.0
78.945	1.0
78.96	2.0
78.975	0.0
78.99	1.0
79.005	1.0
79.02	3.0
79.035	2.0
79.05	5.0
79.065	3.0
79.08	2.0
79.095	2.0
79.11	5.0
79.125	6.0
79.14	4.0
79.155	2.0
79.17	4.0
79.185	3.0
79.2	3.0
79.215	5.0
79.23	5.0
79.245	3.0
79.26	2.0
79.275	5.0
79.29	1.0
79.304	2.0
79.319	3.0
79.334	2.0
79.349	2.0
79.364	2.0
79.379	5.0
79.394	3.0
79.409	2.0
79.424	1.0
79.439	5.0
79.454	4.0
79.469	5.0
79.484	1.0
79.499	3.0
79.514	2.0
79.529	4.0
79.544	2.0
79.559	5.0
79.574	1.0
79.589	1.0
79.604	1.0
79.619	4.0
79.634	3.0
79.649	1.0
79.664	5.0
79.679	4.0
79.693	4.0
79.708	1.0
79.723	4.0
79.738	4.0
79.753	1.0
79.768	4.0
79.783	1.0
79.798	1.0
79.813	2.0
79.828	3.0
79.843	4.0
79.858	3.0
79.873	3.0
79.888	2.0
79.903	3.0
79.918	3.0
79.933	0.0
79.948	3.0
79.963	3.0
79.978	8.0
79.993	3.0
80.008	5.0
80.023	5.0
80.038	2.0
80.053	3.0
80.068	4.0
80.083	2.0
80.098	8.0
80.113	4.0
80.128	6.0
80.143	4.0
80.158	3.0
80.173	1.0
80.188	4.0
80.202	5.0
80.217	6.0
80.232	2.0
80.247	3.0
80.262	1.0
80.277	3.0
80.292	2.0
80.307	5.0
80.322	2.0
80.337	4.0
80.352	5.0
80.367	1.0
80.382	2.0
80.397	2.0
80.412	1.0
80.427	2.0
80.442	2.0
80.457	8.0
80.472	2.0
80.487	3.0
80.502	2.0
80.517	6.0
80.532	4.0
80.547	3.0
80.562	7.0
80.577	1.0
80.592	7.0
80.607	2.0
80.622	2.0
80.637	5.0
80.652	4.0
80.667	0.0
80.682	4.0
80.697	4.0
80.712	2.0
80.727	5.0
80.742	2.0
80.757	3.0
80.772	2.0
80.787	3.0
80.802	5.0
80.817	3.0
80.832	3.0
80.847	2.0
80.862	0.0
80.877	5.0
80.892	5.0
80.907	2.0
80.922	3.0
80.937	2.0
80.952	1.0
80.967	1.0
80.982	4.0
80.997	1.0
81.012	4.0
81.027	1.0
81.042	4.0
81.057	2.0
81.072	4.0
81.087	0.0
81.101	0.0
81.116	6.0
81.131	2.0
81.146	7.0
81.161	6.0
81.176	5.0
81.191	0.0
81.206	4.0
81.221	2.0
81.236	0.0
81.251	2.0
81.266	6.0
81.281	3.0
81.296	1.0
81.311	5.0
81.326	7.0
81.341	4.0
81.356	3.0
81.371	2.0
81.386	5.0
81.401	3.0
81.416	2.0
81.431	2.0
81.446	3.0
81.461	1.0
81.476	3.0
81.491	5.0
81.506	1.0
81.521	3.0
81.536	1.0
81.55	4.0
81.565	4.0
81.58	3.0
81.595	2.0
81.61	4.0
81.625	2.0
81.64	5.0
81.655	0.0
81.67	3.0
81.685	3.0
81.7	5.0
81.715	3.0
81.73	4.0
81.745	5.0
81.76	2.0
81.775	3.0
81.79	2.0
81.805	3.0
81.819	1.0
81.834	3.0
81.849	6.0
81.864	5.0
81.879	3.0
81.894	7.0
81.909	3.0
81.924	2.0
81.939	3.0
81.954	5.0
81.969	5.0
81.984	4.0
81.999	4.0
82.013	4.0
82.028	3.0
82.043	4.0
82.058	1.0
82.073	2.0
82.088	0.0
82.103	2.0
82.118	5.0
82.133	4.0
82.148	1.0
82.163	2.0
82.177	3.0
82.192	4.0
82.207	3.0
82.222	1.0
82.237	2.0
82.252	2.0
82.267	1.0
82.282	2.0
82.297	0.0
82.312	5.0
82.326	3.0
82.341	2.0
82.356	2.0
82.371	2.0
82.386	4.0
82.401	9.0
82.416	3.0
82.431	4.0
82.445	4.0
82.46	4.0
82.475	5.0
82.49	6.0
82.505	4.0
82.52	4.0
82.535	2.0
82.55	6.0
82.565	1.0
82.579	4.0
82.594	4.0
82.609	0.0
82.624	1.0
82.639	4.0
82.654	2.0
82.669	6.0
82.684	2.0
82.698	1.0
82.713	3.0
82.728	2.0
82.743	4.0
82.758	2.0
82.773	3.0
82.788	3.0
82.803	2.0
82.817	3.0
82.832	5.0
82.847	1.0
82.862	2.0
82.877	4.0
82.892	1.0
82.907	4.0
82.922	7.0
82.937	4.0
82.951	4.0
82.966	4.0
82.981	1.0
82.996	7.0
83.011	3.0
83.026	4.0
83.041	1.0
83.056	2.0
83.07	2.0
83.085	6.0
83.1	2.0
83.115	4.0
83.13	4.0
83.145	3.0
83.16	5.0
83.175	3.0
83.19	6.0
83.204	2.0
83.219	4.0
83.234	1.0
83.249	2.0
83.264	0.0
83.279	1.0
83.294	4.0
83.309	3.0
83.324	3.0
83.339	6.0
83.353	2.0
83.368	2.0
83.383	4.0
83.398	0.0
83.413	2.0
83.428	5.0
83.443	4.0
83.458	4.0
83.473	1.0
83.488	3.0
83.503	1.0
83.517	1.0
83.532	4.0
83.547	9.0
83.562	2.0
83.577	4.0
83.592	3.0
83.607	3.0
83.622	4.0
83.637	4.0
83.652	2.0
83.667	2.0
83.682	4.0
83.697	3.0
83.712	1.0
83.727	3.0
83.741	2.0
83.756	5.0
83.771	2.0
83.786	3.0
83.801	6.0
83.816	4.0
83.831	2.0
83.846	3.0
83.861	3.0
83.876	1.0
83.891	1.0
83.906	5.0
83.921	4.0
83.936	3.0
83.951	1.0
83.966	3.0
83.981	1.0
83.996	1.0
84.011	6.0
84.026	3.0
84.041	4.0
84.056	2.0
84.071	3.0
84.086	1.0
84.101	4.0
84.116	4.0
84.131	2.0
84.146	5.0
84.161	3.0
84.176	4.0
84.191	3.0
84.206	5.0
84.221	1.0
84.236	1.0
84.251	6.0
84.266	2.0
84.281	4.0
84.296	2.0
84.311	4.0
84.326	0.0
84.341	6.0
84.356	4.0
84.371	8.0
84.386	3.0
84.401	5.0
84.416	4.0
84.431	7.0
84.446	6.0
84.461	3.0
84.476	6.0
84.492	6.0
84.507	2.0
84.522	4.0
84.537	8.0
84.552	6.0
84.567	4.0
84.582	3.0
84.597	2.0
84.612	3.0
84.627	2.0
84.642	3.0
84.657	2.0
84.672	2.0
84.687	6.0
84.702	5.0
84.717	3.0
84.733	5.0
84.748	8.0
84.763	2.0
84.778	4.0
84.793	2.0
84.808	6.0
84.823	5.0
84.838	4.0
84.853	2.0
84.868	5.0
84.883	5.0
84.898	2.0
84.913	6.0
84.929	7.0
84.944	6.0
84.959	4.0
84.974	4.0
84.989	6.0
85.004	0.0
85.019	2.0
85.034	3.0
85.049	4.0
85.064	4.0
85.079	4.0
85.094	2.0
85.11	5.0
85.125	1.0
85.14	1.0
85.155	4.0
85.17	2.0
85.185	5.0
85.2	3.0
85.215	4.0
85.23	2.0
85.245	3.0
85.26	3.0
85.276	2.0
85.291	1.0
85.306	5.0
85.321	4.0
85.336	2.0
85.351	4.0
85.366	4.0
85.381	3.0
85.396	3.0
85.411	3.0
85.426	4.0
85.441	1.0
85.457	2.0
85.472	4.0
85.487	2.0
85.502	2.0
85.517	1.0
85.532	3.0
85.547	6.0
85.562	3.0
85.577	3.0
85.592	1.0
85.607	2.0
85.622	3.0
85.637	2.0
85.653	0.0
85.668	1.0
85.683	6.0
85.698	5.0
85.713	2.0
85.728	4.0
85.743	4.0
85.758	2.0
85.773	1.0
85.788	5.0
85.803	0.0
85.818	4.0
85.833	7.0
85.848	2.0
85.863	2.0
85.879	1.0
85.894	4.0
85.909	4.0
85.924	4.0
85.939	1.0
85.954	3.0
85.969	5.0
85.984	3.0
85.999	1.0
86.014	3.0
86.029	5.0
86.044	3.0
86.059	2.0
86.074	1.0
86.089	5.0
86.104	5.0
86.119	4.0
86.134	2.0
86.149	6.0
86.164	1.0
86.179	2.0
86.194	2.0
86.209	6.0
86.224	2.0
86.239	3.0
86.254	1.0
86.269	2.0
86.284	5.0
86.299	2.0
86.314	6.0
86.33	3.0
86.345	1.0
86.36	5.0
86.375	4.0
86.39	4.0
86.405	2.0
86.42	1.0
86.435	2.0
86.45	5.0
86.465	1.0
86.48	3.0
86.495	1.0
86.51	3.0
86.525	2.0
86.54	3.0
86.555	4.0
86.57	3.0
86.585	2.0
86.6	3.0
86.615	2.0
86.63	4.0
86.645	4.0
86.659	1.0
86.674	2.0
86.689	2.0
86.704	3.0
86.719	2.0
86.734	3.0
86.749	6.0
86.764	3.0
86.779	0.0
86.794	5.0
86.809	3.0
86.824	3.0
86.839	6.0
86.854	4.0
86.869	5.0
86.884	2.0
86.899	6.0
86.914	4.0
86.929	3.0
86.944	4.0
86.959	5.0
86.974	3.0
86.989	2.0
87.004	3.0
87.019	6.0
87.034	4.0
87.049	7.0
87.064	3.0
87.079	2.0
87.094	2.0
87.109	2.0
87.124	3.0
87.139	1.0
87.154	0.0
87.169	4.0
87.184	1.0
87.199	0.0
87.214	3.0
87.229	2.0
87.244	2.0
87.259	5.0
87.274	4.0
87.289	2.0
87.304	3.0
87.319	2.0
87.334	5.0
87.349	2.0
87.364	6.0
87.379	2.0
87.394	5.0
87.409	1.0
87.424	2.0
87.438	2.0
87.453	6.0
87.468	3.0
87.483	4.0
87.498	3.0
87.513	4.0
87.528	5.0
87.543	6.0
87.558	3.0
87.573	6.0
87.588	3.0
87.603	5.0
87.618	8.0
87.633	6.0
87.648	2.0
87.663	1.0
87.678	3.0
87.693	8.0
87.708	4.0
87.723	8.0
87.738	4.0
87.753	3.0
87.768	2.0
87.783	6.0
87.798	3.0
87.813	1.0
87.828	4.0
87.843	3.0
87.858	2.0
87.873	5.0
87.888	5.0
87.903	5.0
87.918	5.0
87.933	3.0
87.948	4.0
87.963	2.0
87.978	1.0
87.993	4.0
88.008	6.0
88.023	6.0
88.038	3.0
88.053	3.0
88.068	4.0
88.083	2.0
88.098	2.0
88.113	1.0
88.128	4.0
88.143	3.0
88.158	6.0
88.174	1.0
88.189	3.0
88.204	4.0
88.219	1.0
88.234	3.0
88.249	1.0
88.264	2.0
88.279	1.0
88.294	3.0
88.309	1.0
88.324	1.0
88.339	0.0
88.354	7.0
88.369	2.0
88.384	3.0
88.399	7.0
88.414	3.0
88.429	2.0
88.444	3.0
88.459	3.0
88.474	4.0
88.489	4.0
88.504	1.0
88.519	2.0
88.534	3.0
88.549	0.0
88.564	2.0
88.58	3.0
88.595	6.0
88.61	3.0
88.625	4.0
88.64	3.0
88.655	4.0
88.67	6.0
88.685	5.0
88.7	1.0
88.715	4.0
88.73	2.0
88.745	0.0
88.76	1.0
88.775	2.0
88.79	1.0
88.805	5.0
88.82	2.0
88.835	5.0
88.85	4.0
88.865	5.0
88.88	2.0
88.895	3.0
88.911	2.0
88.926	3.0
88.941	4.0
88.956	4.0
88.971	2.0
88.986	4.0
89.001	1.0
89.016	3.0
89.031	4.0
89.046	3.0
89.061	1.0
89.076	2.0
89.091	2.0
89.106	4.0
89.121	3.0
89.136	4.0
89.151	2.0
89.166	0.0
89.181	4.0
89.196	5.0
89.211	2.0
89.227	3.0
89.242	0.0
89.257	5.0
89.272	4.0
89.287	9.0
89.302	5.0
89.317	2.0
89.332	4.0
89.347	2.0
89.362	2.0
89.377	3.0
89.392	1.0
89.407	5.0
89.422	2.0
89.437	4.0
89.452	3.0
89.467	3.0
89.482	3.0
89.497	3.0
89.512	8.0
89.527	3.0
89.542	2.0
89.557	1.0
89.572	2.0
89.587	3.0
89.602	7.0
89.617	1.0
89.632	3.0
89.647	4.0
89.662	3.0
89.677	2.0
89.693	0.0
89.708	0.0
89.723	4.0
89.738	4.0
89.753	2.0
89.768	6.0
89.783	2.0
89.798	1.0
89.813	5.0
89.828	5.0
89.843	1.0
89.858	1.0
89.873	1.0
89.888	4.0
89.903	7.0
89.918	3.0
89.933	7.0
89.948	3.0
89.963	1.0
89.978	5.0
89.993	0.0
90.008	2.0
90.023	4.0
90.038	4.0
90.053	3.0
90.068	4.0
90.083	3.0
90.097	3.0
90.112	5.0
90.127	5.0
90.142	4.0
90.157	4.0
90.172	5.0
90.187	4.0
90.202	4.0
90.217	7.0
90.232	4.0
90.247	4.0
90.262	6.0
90.277	9.0
90.292	2.0
90.307	5.0
90.322	3.0
90.337	3.0
90.352	4.0
90.367	2.0
90.382	1.0
90.397	3.0
90.412	3.0
90.427	4.0
90.442	2.0
90.457	4.0
90.472	5.0
90.487	3.0
90.501	1.0
90.516	4.0
90.531	1.0
90.546	1.0
90.561	5.0
90.576	5.0
90.591	1.0
90.606	4.0
90.621	1.0
90.636	7.0
90.651	1.0
90.666	2.0
90.681	1.0
90.696	8.0
90.711	5.0
90.726	3.0
90.741	5.0
90.755	4.0
90.77	5.0
90.785	4.0
90.8	1.0
90.815	0.0
90.83	5.0
90.845	5.0
90.86	4.0
90.875	4.0
90.89	5.0
90.905	9.0
90.92	4.0
90.935	4.0
90.95	3.0
90.965	1.0
90.979	8.0
90.994	3.0
91.009	8.0
91.024	3.0
91.039	5.0
91.054	2.0
91.069	3.0
91.084	5.0
91.099	1.0
91.114	3.0
91.129	3.0
91.144	2.0
91.159	4.0
91.174	3.0
91.188	2.0
91.203	0.0
91.218	2.0
91.233	4.0
91.248	1.0
91.263	1.0
91.278	0.0
91.293	5.0
91.308	5.0
91.323	2.0
91.338	1.0
91.353	4.0
91.368	4.0
91.383	4.0
91.398	1.0
91.412	9.0
91.427	1.0
91.442	3.0
91.457	4.0
91.472	2.0
91.487	5.0
91.502	1.0
91.517	2.0
91.532	3.0
91.547	1.0
91.562	2.0
91.577	1.0
91.592	5.0
91.607	3.0
91.622	4.0
91.637	6.0
91.652	2.0
91.666	8.0
91.681	5.0
91.696	3.0
91.711	0.0
91.726	2.0
91.741	5.0
91.756	4.0
91.771	5.0
91.786	4.0
91.801	3.0
91.816	4.0
91.831	1.0
91.846	2.0
91.861	2.0
91.876	5.0
91.891	4.0
91.906	3.0
91.921	2.0
91.936	6.0
91.951	1.0
91.966	9.0
91.981	3.0
91.995	1.0
92.01	4.0
92.025	2.0
92.04	2.0
92.055	4.0
92.07	1.0
92.085	0.0
92.1	3.0
92.115	5.0
92.13	1.0
92.145	4.0
92.16	1.0
92.175	2.0
92.19	4.0
92.205	3.0
92.22	4.0
92.235	7.0
92.25	1.0
92.265	0.0
92.28	6.0
92.295	3.0
92.31	3.0
92.325	2.0
92.34	2.0
92.355	1.0
92.37	0.0
92.385	5.0
92.4	2.0
92.415	2.0
92.43	4.0
92.445	6.0
92.46	1.0
92.475	5.0
92.49	2.0
92.505	1.0
92.52	4.0
92.535	3.0
92.55	3.0
92.565	3.0
92.58	2.0
92.595	4.0
92.61	3.0
92.625	4.0
92.64	4.0
92.655	2.0
92.67	5.0
92.685	6.0
92.7	3.0
92.715	4.0
92.73	1.0
92.745	5.0
92.76	1.0
92.775	4.0
92.79	4.0
92.805	4.0
92.82	2.0
92.835	1.0
92.85	3.0
92.865	3.0
92.88	4.0
92.895	3.0
92.91	4.0
92.925	5.0
92.94	4.0
92.955	4.0
92.97	3.0
92.985	2.0
93.0	5.0
93.015	4.0
93.03	3.0
93.045	2.0
93.06	1.0
93.075	2.0
93.09	0.0
93.105	6.0
93.12	3.0
93.135	1.0
93.15	1.0
93.165	1.0
93.18	2.0
93.195	4.0
93.21	0.0
93.225	4.0
93.24	4.0
93.255	7.0
93.27	5.0
93.285	5.0
93.3	3.0
93.315	6.0
93.33	1.0
93.345	3.0
93.36	4.0
93.375	3.0
93.39	1.0
93.405	2.0
93.42	2.0
93.435	4.0
93.45	3.0
93.465	1.0
93.48	7.0
93.495	1.0
93.51	2.0
93.525	2.0
93.54	1.0
93.555	5.0
93.57	4.0
93.585	2.0
93.6	4.0
93.615	3.0
93.63	2.0
93.645	7.0
93.66	4.0
93.675	2.0
93.69	5.0
93.705	1.0
93.72	3.0
93.735	2.0
93.75	4.0
93.765	2.0
93.78	5.0
93.795	2.0
93.81	1.0
93.824	4.0
93.839	2.0
93.854	5.0
93.869	3.0
93.884	3.0
93.899	3.0
93.914	2.0
93.929	1.0
93.944	3.0
93.959	1.0
93.974	4.0
93.989	2.0
94.004	7.0
94.019	3.0
94.034	4.0
94.049	2.0
94.064	2.0
94.079	8.0
94.094	0.0
94.108	7.0
94.123	1.0
94.138	1.0
94.153	3.0
94.168	3.0
94.183	0.0
94.198	5.0
94.213	5.0
94.228	3.0
94.243	4.0
94.258	0.0
94.273	4.0
94.288	4.0
94.302	6.0
94.317	4.0
94.332	3.0
94.347	6.0
94.362	4.0
94.377	9.0
94.392	1.0
94.407	2.0
94.422	1.0
94.437	8.0
94.452	3.0
94.466	5.0
94.481	7.0
94.496	7.0
94.511	5.0
94.526	8.0
94.541	3.0
94.556	3.0
94.571	3.0
94.586	3.0
94.601	4.0
94.615	2.0
94.63	4.0
94.645	4.0
94.66	3.0
94.675	3.0
94.69	5.0
94.705	2.0
94.72	2.0
94.735	3.0
94.749	9.0
94.764	2.0
94.779	3.0
94.794	7.0
94.809	1.0
94.824	9.0
94.839	2.0
94.854	3.0
94.868	2.0
94.883	3.0
94.898	0.0
94.913	1.0
94.928	1.0
94.943	5.0
94.958	0.0
94.973	1.0
94.987	2.0
95.002	0.0
95.017	3.0
95.032	3.0
95.047	3.0
95.062	2.0
95.077	2.0
95.092	4.0
95.106	5.0
95.121	5.0
95.136	3.0
95.151	6.0
95.166	2.0
95.181	6.0
95.196	7.0
95.211	8.0
95.226	2.0
95.24	5.0
95.255	3.0
95.27	4.0
95.285	6.0
95.3	3.0
95.315	3.0
95.33	2.0
95.345	5.0
95.359	0.0
95.374	6.0
95.389	3.0
95.404	6.0
95.419	2.0
95.434	0.0
95.449	3.0
95.464	3.0
95.478	4.0
95.493	3.0
95.508	3.0
95.523	2.0
95.538	3.0
95.553	2.0
95.568	2.0
95.583	3.0
95.597	3.0
95.612	4.0
95.627	3.0
95.642	3.0
95.657	4.0
95.672	6.0
95.687	3.0
95.702	2.0
95.717	4.0
95.731	3.0
95.746	5.0
95.761	1.0
95.776	3.0
95.791	3.0
95.806	4.0
95.821	6.0
95.836	4.0
95.851	3.0
95.866	3.0
95.88	2.0
95.895	2.0
95.91	4.0
95.925	5.0
95.94	3.0
95.955	4.0
95.97	4.0
95.985	4.0
96.0	4.0
96.015	2.0
96.029	6.0
96.044	4.0
96.059	3.0
96.074	9.0
96.089	5.0
96.104	3.0
96.119	3.0
96.134	2.0
96.149	3.0
96.164	4.0
96.179	1.0
96.194	3.0
96.208	2.0
96.223	6.0
96.238	1.0
96.253	3.0
96.268	2.0
96.283	3.0
96.298	2.0
96.313	1.0
96.328	2.0
96.343	4.0
96.358	2.0
96.373	2.0
96.388	1.0
96.403	3.0
96.417	1.0
96.432	3.0
96.447	3.0
96.462	2.0
96.477	2.0
96.492	4.0
96.507	3.0
96.522	1.0
96.537	3.0
96.552	4.0
96.567	4.0
96.582	0.0
96.597	3.0
96.612	4.0
96.627	3.0
96.642	6.0
96.656	2.0
96.671	6.0
96.686	2.0
96.701	1.0
96.716	4.0
96.731	6.0
96.746	3.0
96.761	1.0
96.776	2.0
96.791	3.0
96.806	5.0
96.821	4.0
96.836	4.0
96.851	2.0
96.866	3.0
96.881	4.0
96.896	2.0
96.911	2.0
96.926	4.0
96.94	4.0
96.955	3.0
96.97	3.0
96.985	5.0
97.0	6.0
97.015	1.0
97.03	3.0
97.045	7.0
97.06	3.0
97.075	7.0
97.09	5.0
97.105	6.0
97.12	4.0
97.135	3.0
97.15	6.0
97.165	5.0
97.18	0.0
97.195	2.0
97.21	6.0
97.225	0.0
97.239	3.0
97.254	4.0
97.269	1.0
97.284	1.0
97.299	5.0
97.314	0.0
97.329	4.0
97.344	1.0
97.359	3.0
97.374	3.0
97.389	3.0
97.404	2.0
97.419	4.0
97.434	5.0
97.449	0.0
97.464	2.0
97.479	4.0
97.494	2.0
97.509	1.0
97.524	1.0
97.538	5.0
97.553	5.0
97.568	1.0
97.583	2.0
97.598	3.0
97.613	3.0
97.628	3.0
97.643	2.0
97.658	2.0
97.673	2.0
97.688	4.0
97.703	6.0
97.718	2.0
97.733	1.0
97.748	2.0
97.763	4.0
97.778	6.0
97.792	5.0
97.807	2.0
97.822	2.0
97.837	3.0
97.852	5.0
97.867	5.0
97.882	4.0
97.897	3.0
97.912	4.0
97.927	4.0
97.942	2.0
97.957	1.0
97.972	1.0
97.987	2.0
98.001	7.0
98.016	2.0
98.031	4.0
98.046	0.0
98.061	2.0
98.076	4.0
98.091	4.0
98.106	3.0
98.121	3.0
98.136	2.0
98.151	4.0
98.166	4.0
98.181	2.0
98.195	4.0
98.21	4.0
98.225	2.0
98.24	6.0
98.255	2.0
98.27	2.0
98.285	5.0
98.3	0.0
98.315	4.0
98.33	5.0
98.345	1.0
98.359	1.0
98.374	2.0
98.389	3.0
98.404	6.0
98.419	2.0
98.434	3.0
98.449	7.0
98.464	3.0
98.479	6.0
98.494	1.0
98.508	2.0
98.523	4.0
98.538	1.0
98.553	1.0
98.568	6.0
98.583	3.0
98.598	5.0
98.613	5.0
98.628	3.0
98.642	5.0
98.657	2.0
98.672	2.0
98.687	5.0
98.702	3.0
98.717	4.0
98.732	1.0
98.747	3.0
98.762	5.0
98.776	4.0
98.791	0.0
98.806	4.0
98.821	1.0
98.836	8.0
98.851	2.0
98.866	2.0
98.881	5.0
98.896	3.0
98.91	1.0
98.925	4.0
98.94	0.0
98.955	1.0
98.97	2.0
98.985	5.0
99.0	0.0
99.015	4.0
99.029	5.0
99.044	2.0
99.059	2.0
99.074	4.0
99.089	0.0
99.104	2.0
99.119	3.0
99.133	1.0
99.148	0.0
99.163	6.0
99.178	1.0
99.193	0.0
99.208	2.0
99.223	2.0
99.238	3.0
99.252	3.0
99.267	1.0
99.282	1.0
99.297	3.0
99.312	2.0
99.327	3.0
99.342	2.0
99.356	4.0
99.371	2.0
99.386	3.0
99.401	4.0
99.416	2.0
99.431	3.0
99.446	1.0
99.461	3.0
99.475	0.0
99.49	1.0
99.505	2.0
99.52	2.0
99.535	2.0
99.55	6.0
99.565	3.0
99.579	6.0
99.594	4.0
99.609	5.0
99.624	2.0
99.639	3.0
99.654	3.0
99.669	4.0
99.683	2.0
99.698	3.0
99.713	4.0
99.728	2.0
99.743	4.0
99.758	6.0
99.772	5.0
99.787	3.0
99.802	2.0
99.817	6.0
99.832	5.0
99.847	2.0
99.862	4.0
99.876	3.0
99.891	4.0
99.906	2.0
99.921	6.0
99.936	3.0
99.951	2.0
99.966	1.0
99.98	2.0
99.995	1.0
100.01	2.0
100.025	5.0
100.04	1.0
100.055	2.0
100.069	2.0
100.084	4.0
100.099	3.0
100.114	4.0
100.129	3.0
100.144	2.0
100.159	2.0
100.173	2.0
100.188	3.0
100.203	4.0
100.218	6.0
100.233	3.0
100.248	7.0
100.262	3.0
100.277	6.0
100.292	4.0
100.307	7.0
100.322	6.0
100.337	5.0
100.351	2.0
100.366	4.0
100.381	5.0
100.396	4.0
100.411	5.0
100.426	3.0
100.441	5.0
100.455	1.0
100.47	3.0
100.485	3.0
100.5	2.0
100.515	1.0
100.53	5.0
100.544	9.0
100.559	4.0
100.574	3.0
100.589	4.0
100.604	5.0
100.619	6.0
100.633	3.0
100.648	1.0
100.663	4.0
100.678	4.0
100.693	3.0
100.708	3.0
100.722	2.0
100.737	4.0
100.752	7.0
100.767	1.0
100.782	0.0
100.796	4.0
100.811	4.0
100.826	1.0
100.841	3.0
100.856	3.0
100.871	5.0
100.885	1.0
100.9	1.0
100.915	4.0
100.93	3.0
100.945	3.0
100.96	2.0
100.974	1.0
100.989	1.0
101.004	2.0
101.019	1.0
101.034	0.0
101.048	5.0
101.063	6.0
101.078	2.0
101.093	4.0
101.108	2.0
101.123	6.0
101.137	2.0
101.152	4.0
101.167	3.0
101.182	2.0
101.197	1.0
101.211	2.0
101.226	6.0
101.241	4.0
101.256	2.0
101.271	5.0
101.285	5.0
101.3	1.0
101.315	0.0
101.33	1.0
101.345	6.0
101.359	4.0
101.374	1.0
101.389	1.0
101.404	1.0
101.419	3.0
101.433	4.0
101.448	3.0
101.463	6.0
101.478	2.0
101.493	5.0
101.507	3.0
101.522	3.0
101.537	3.0
101.552	6.0
101.567	5.0
101.581	1.0
101.596	1.0
101.611	3.0
101.626	3.0
101.64	2.0
101.655	2.0
101.67	3.0
101.685	3.0
101.7	1.0
101.714	2.0
101.729	0.0
101.744	3.0
101.759	1.0
101.773	4.0
101.788	4.0
101.803	1.0
101.818	4.0
101.833	4.0
101.847	4.0
101.862	1.0
101.877	5.0
101.892	4.0
101.906	3.0
101.921	2.0
101.936	4.0
101.951	2.0
101.965	6.0
101.98	5.0
101.995	6.0
102.01	1.0
102.025	6.0
102.039	3.0
102.054	6.0
102.069	4.0
102.084	3.0
102.098	3.0
102.113	4.0
102.128	6.0
102.143	3.0
102.157	4.0
102.172	3.0
102.187	4.0
102.202	4.0
102.216	3.0
102.231	2.0
102.246	2.0
102.261	0.0
102.275	4.0
102.29	3.0
102.305	0.0
102.32	1.0
102.334	1.0
102.349	2.0
102.364	3.0
102.378	7.0
102.393	1.0
102.408	2.0
102.423	1.0
102.437	4.0
102.452	4.0
102.467	2.0
102.482	6.0
102.496	2.0
102.511	3.0
102.526	1.0
102.541	3.0
102.555	1.0
102.57	1.0
102.585	4.0
102.6	3.0
102.614	2.0
102.629	5.0
102.644	2.0
102.659	4.0
102.673	3.0
102.688	1.0
102.703	2.0
102.717	5.0
102.732	3.0
102.747	1.0
102.762	4.0
102.776	4.0
102.791	3.0
102.806	5.0
102.821	2.0
102.835	7.0
102.85	6.0
102.865	3.0
102.88	5.0
102.894	6.0
102.909	1.0
102.924	2.0
102.938	6.0
102.953	2.0
102.968	1.0
102.983	3.0
102.997	0.0
103.012	1.0
103.027	4.0
103.042	2.0
103.056	3.0
103.071	3.0
103.086	2.0
103.101	1.0
103.115	2.0
103.13	4.0
103.145	3.0
103.16	6.0
103.174	2.0
103.189	0.0
103.204	3.0
103.219	1.0
103.233	3.0
103.248	6.0
103.263	4.0
103.278	2.0
103.292	4.0
103.307	7.0
103.322	4.0
103.337	1.0
103.351	3.0
103.366	3.0
103.381	1.0
103.396	1.0
103.41	5.0
103.425	2.0
103.44	2.0
103.455	1.0
103.469	1.0
103.484	5.0
103.499	2.0
103.514	3.0
103.529	2.0
103.543	5.0
103.558	1.0
103.573	3.0
103.588	2.0
103.602	2.0
103.617	1.0
103.632	4.0
103.647	1.0
103.661	3.0
103.676	5.0
103.691	4.0
103.706	2.0
103.721	5.0
103.735	3.0
103.75	4.0
103.765	6.0
103.78	3.0
103.795	2.0
103.809	3.0
103.824	7.0
103.839	2.0
103.854	5.0
103.869	5.0
103.883	3.0
103.898	2.0
103.913	7.0
103.928	3.0
103.943	0.0
103.957	3.0
103.972	6.0
103.987	2.0
104.002	5.0
104.017	1.0
104.031	6.0
104.046	3.0
104.061	2.0
104.076	3.0
104.091	5.0
104.106	4.0
104.12	4.0
104.135	1.0
104.15	2.0
104.165	4.0
104.18	5.0
104.195	4.0
104.209	4.0
104.224	2.0
104.239	4.0
104.254	1.0
104.269	6.0
104.284	5.0
104.299	2.0
104.313	2.0
104.328	2.0
104.343	5.0
104.358	4.0
104.373	0.0
104.388	1.0
104.403	3.0
104.417	3.0
104.432	1.0
104.447	2.0
104.462	1.0
104.477	5.0
104.492	0.0
104.507	1.0
104.522	3.0
104.536	3.0
104.551	3.0
104.566	2.0
104.581	3.0
104.596	1.0
104.611	6.0
104.626	3.0
104.641	2.0
104.656	2.0
104.67	6.0
104.685	1.0
104.7	1.0
104.715	2.0
104.73	0.0
104.745	4.0
104.76	4.0
104.775	0.0
104.79	3.0
104.804	4.0
104.819	4.0
104.834	4.0
104.849	2.0
104.864	7.0
104.879	6.0
104.894	3.0
104.909	5.0
104.924	2.0
104.939	1.0
104.954	3.0
104.968	1.0
104.983	2.0
104.998	3.0
105.013	1.0
105.028	1.0
105.043	6.0
105.058	4.0
105.073	1.0
105.088	4.0
105.103	7.0
105.118	7.0
105.133	2.0
105.147	3.0
105.162	3.0
105.177	3.0
105.192	3.0
105.207	2.0
105.222	3.0
105.237	4.0
105.252	1.0
105.267	4.0
105.282	3.0
105.297	3.0
105.312	5.0
105.327	2.0
105.342	4.0
105.356	2.0
105.371	3.0
105.386	6.0
105.401	2.0
105.416	6.0
105.431	2.0
105.446	3.0
105.461	5.0
105.476	4.0
105.491	3.0
105.506	3.0
105.521	3.0
105.536	6.0
105.551	3.0
105.566	5.0
105.581	3.0
105.595	2.0
105.61	4.0
105.625	3.0
105.64	3.0
105.655	3.0
105.67	1.0
105.685	3.0
105.7	2.0
105.715	4.0
105.73	2.0
105.745	2.0
105.76	3.0
105.775	5.0
105.79	1.0
105.805	3.0
105.82	0.0
105.835	4.0
105.85	2.0
105.864	3.0
105.879	1.0
105.894	1.0
105.909	2.0
105.924	1.0
105.939	2.0
105.954	5.0
105.969	1.0
105.984	3.0
105.999	3.0
106.014	1.0
106.029	2.0
106.044	3.0
106.059	3.0
106.074	2.0
106.089	1.0
106.104	0.0
106.119	6.0
106.134	3.0
106.148	6.0
106.163	3.0
106.178	1.0
106.193	2.0
106.208	6.0
106.223	6.0
106.238	4.0
106.253	3.0
106.268	5.0
106.283	4.0
106.298	4.0
106.313	5.0
106.328	0.0
106.343	5.0
106.358	2.0
106.373	4.0
106.388	3.0
106.403	4.0
106.418	6.0
106.432	2.0
106.447	0.0
106.462	4.0
106.477	4.0
106.492	4.0
106.507	3.0
106.522	3.0
106.537	0.0
106.552	2.0
106.567	4.0
106.582	1.0
106.597	3.0
106.612	5.0
106.627	6.0
106.642	2.0
106.657	2.0
106.672	5.0
106.687	2.0
106.701	6.0
106.716	2.0
106.731	3.0
106.746	2.0
106.761	7.0
106.776	1.0
106.791	1.0
106.806	1.0
106.821	3.0
106.836	4.0
106.851	2.0
106.866	4.0
106.881	0.0
106.896	1.0
106.911	5.0
106.926	0.0
106.941	6.0
106.955	4.0
106.97	6.0
106.985	4.0
107.0	5.0
107.015	6.0
107.03	1.0
107.045	2.0
107.06	3.0
107.075	3.0
107.09	1.0
107.105	2.0
107.12	4.0
107.135	5.0
107.15	1.0
107.165	4.0
107.18	5.0
107.194	6.0
107.209	5.0
107.224	8.0
107.239	5.0
107.254	5.0
107.269	6.0
107.284	3.0
107.299	1.0
107.314	3.0
107.329	4.0
107.344	3.0
107.359	4.0
107.374	2.0
107.389	6.0
107.404	3.0
107.418	2.0
107.433	3.0
107.448	2.0
107.463	4.0
107.478	4.0
107.493	3.0
107.508	7.0
107.523	4.0
107.538	2.0
107.553	3.0
107.568	0.0
107.583	1.0
107.598	2.0
107.613	4.0
107.627	7.0
107.642	6.0
107.657	1.0
107.672	2.0
107.687	2.0
107.702	0.0
107.717	2.0
107.732	3.0
107.747	2.0
107.762	1.0
107.777	5.0
107.792	8.0
107.807	4.0
107.821	8.0
107.836	3.0
107.851	3.0
107.866	4.0
107.881	2.0
107.896	8.0
107.911	4.0
107.926	3.0
107.941	8.0
107.956	3.0
107.971	5.0
107.986	2.0
108.0	2.0
108.015	6.0
108.03	1.0
108.045	5.0
108.06	6.0
108.075	7.0
108.09	5.0
108.105	6.0
108.12	5.0
108.135	2.0
108.15	5.0
108.164	4.0
108.179	5.0
108.194	5.0
108.209	4.0
108.224	2.0
108.239	1.0
108.254	1.0
108.269	3.0
108.284	2.0
108.299	4.0
108.313	0.0
108.328	4.0
108.343	3.0
108.358	4.0
108.373	1.0
108.388	6.0
108.403	3.0
108.418	2.0
108.433	4.0
108.448	2.0
108.462	3.0
108.477	0.0
108.492	1.0
108.507	4.0
108.522	2.0
108.537	2.0
108.552	3.0
108.567	3.0
108.582	1.0
108.597	7.0
108.611	6.0
108.626	2.0
108.641	2.0
108.656	1.0
108.671	0.0
108.686	2.0
108.701	3.0
108.716	3.0
108.731	3.0
108.745	3.0
108.76	4.0
108.775	3.0
108.79	0.0
108.805	2.0
108.82	2.0
108.835	5.0
108.85	3.0
108.865	7.0
108.879	5.0
108.894	4.0
108.909	4.0
108.924	5.0
108.939	5.0
108.954	2.0
108.969	7.0
108.984	1.0
108.999	3.0
109.013	5.0
109.028	1.0
109.043	1.0
109.058	5.0
109.073	5.0
109.088	0.0
109.103	2.0
109.118	2.0
109.133	1.0
109.147	3.0
109.162	2.0
109.177	4.0
109.192	3.0
109.207	6.0
109.222	3.0
109.237	7.0
109.252	0.0
109.267	5.0
109.281	4.0
109.296	4.0
109.311	4.0
109.326	2.0
109.341	4.0
109.356	3.0
109.371	2.0
109.386	2.0
109.4	1.0
109.415	3.0
109.43	4.0
109.445	2.0
109.46	5.0
109.475	3.0
109.49	5.0
109.505	7.0
109.52	1.0
109.534	2.0
109.549	8.0
109.564	3.0
109.579	3.0
109.594	3.0
109.609	5.0
109.624	4.0
109.639	1.0
109.653	4.0
109.668	4.0
109.683	4.0
109.698	6.0
109.713	4.0
109.728	3.0
109.743	6.0
109.758	2.0
109.773	4.0
109.787	4.0
109.802	2.0
109.817	1.0
109.832	3.0
109.847	3.0
109.862	6.0
109.877	2.0
109.892	3.0
109.907	3.0
109.921	3.0
109.936	6.0
109.951	2.0
109.966	2.0
109.981	2.0
109.996	4.0
110.011	2.0
110.026	7.0
110.04	4.0
110.055	6.0
110.07	4.0
110.085	6.0
110.1	2.0
110.115	3.0
110.13	4.0
110.145	4.0
110.16	7.0
110.174	2.0
110.189	6.0
110.204	3.0
110.219	4.0
110.234	2.0
110.249	3.0
110.264	2.0
110.279	5.0
110.294	3.0
110.308	3.0
110.323	2.0
110.338	6.0
110.353	1.0
110.368	1.0
110.383	0.0
110.398	4.0
110.413	2.0
110.428	1.0
110.442	5.0
110.457	3.0
110.472	4.0
110.487	4.0
110.502	4.0
110.517	5.0
110.532	1.0
110.547	5.0
110.561	4.0
110.576	3.0
110.591	4.0
110.606	0.0
110.621	1.0
110.636	4.0
110.651	4.0
110.666	3.0
110.681	2.0
110.695	2.0
110.71	1.0
110.725	1.0
110.74	1.0
110.755	4.0
110.77	3.0
110.785	3.0
110.8	2.0
110.815	4.0
110.829	6.0
110.844	3.0
110.859	3.0
110.874	2.0
110.889	5.0
110.904	4.0
110.919	1.0
110.934	6.0
110.948	1.0
110.963	2.0
110.978	3.0
110.993	1.0
111.008	2.0
111.023	4.0
111.038	4.0
111.053	5.0
111.067	2.0
111.082	4.0
111.097	3.0
111.112	5.0
111.127	4.0
111.142	1.0
111.157	6.0
111.172	4.0
111.186	4.0
111.201	3.0
111.216	2.0
111.231	1.0
111.246	6.0
111.261	3.0
111.276	1.0
111.291	4.0
111.305	0.0
111.32	5.0
111.335	4.0
111.35	3.0
111.365	4.0
111.38	1.0
111.395	5.0
111.41	5.0
111.424	6.0
111.439	6.0
111.454	2.0
111.469	3.0
111.484	1.0
111.499	4.0
111.514	4.0
111.528	1.0
111.543	2.0
111.558	2.0
111.573	3.0
111.588	2.0
111.603	6.0
111.618	5.0
111.633	5.0
111.647	7.0
111.662	2.0
111.677	5.0
111.692	8.0
111.707	4.0
111.722	3.0
111.737	4.0
111.751	5.0
111.766	4.0
111.781	3.0
111.796	1.0
111.811	8.0
111.826	7.0
111.84	5.0
111.855	3.0
111.87	4.0
111.885	3.0
111.9	2.0
111.915	3.0
111.93	4.0
111.944	4.0
111.959	5.0
111.974	4.0
111.989	2.0
112.004	3.0
112.019	2.0
112.033	2.0
112.048	4.0
112.063	7.0
112.078	2.0
112.093	7.0
112.108	2.0
112.123	3.0
112.137	6.0
112.152	0.0
112.167	5.0
112.182	5.0
112.197	3.0
112.212	6.0
112.226	3.0
112.241	3.0
112.256	1.0
112.271	3.0
112.286	4.0
112.301	3.0
112.315	1.0
112.33	3.0
112.345	0.0
112.36	6.0
112.375	3.0
112.389	3.0
112.404	3.0
112.419	3.0
112.434	4.0
112.449	7.0
112.464	6.0
112.478	4.0
112.493	2.0
112.508	4.0
112.523	3.0
112.538	2.0
112.553	5.0
112.567	3.0
112.582	3.0
112.597	1.0
112.612	1.0
112.627	5.0
112.642	0.0
112.656	5.0
112.671	3.0
112.686	7.0
112.701	7.0
112.716	3.0
112.73	5.0
112.745	5.0
112.76	6.0
112.775	2.0
112.79	4.0
112.805	5.0
112.819	2.0
112.834	1.0
112.849	3.0
112.864	5.0
112.879	2.0
112.894	3.0
112.908	5.0
112.923	2.0
112.938	2.0
112.953	7.0
112.968	2.0
112.983	0.0
112.997	1.0
113.012	2.0
113.027	4.0
113.042	4.0
113.057	4.0
113.072	3.0
113.086	6.0
113.101	4.0
113.116	0.0
113.131	3.0
113.146	4.0
113.161	3.0
113.175	2.0
113.19	8.0
113.205	2.0
113.22	1.0
113.235	4.0
113.25	8.0
113.265	2.0
113.279	6.0
113.294	4.0
113.309	3.0
113.324	4.0
113.339	3.0
113.354	5.0
113.368	3.0
113.383	8.0
113.398	1.0
113.413	4.0
113.428	4.0
113.443	2.0
113.458	9.0
113.472	0.0
113.487	5.0
113.502	2.0
113.517	7.0
113.532	3.0
113.547	5.0
113.562	5.0
113.576	7.0
113.591	3.0
113.606	4.0
113.621	5.0
113.636	6.0
113.651	2.0
113.666	4.0
113.681	5.0
113.695	8.0
113.71	4.0
113.725	1.0
113.74	1.0
113.755	5.0
113.77	5.0
113.785	4.0
113.8	2.0
113.814	3.0
113.829	1.0
113.844	4.0
113.859	3.0
113.874	2.0
113.889	5.0
113.904	5.0
113.919	2.0
113.934	3.0
113.949	5.0
113.963	2.0
113.978	3.0
113.993	7.0
114.008	2.0
114.023	8.0
114.038	6.0
114.053	3.0
114.068	2.0
114.083	4.0
114.098	3.0
114.113	2.0
114.127	2.0
114.142	2.0
114.157	4.0
114.172	5.0
114.187	2.0
114.202	3.0
114.217	5.0
114.232	5.0
114.247	3.0
114.262	2.0
114.277	5.0
114.292	3.0
114.307	4.0
114.322	4.0
114.337	1.0
114.351	2.0
114.366	2.0
114.381	5.0
114.396	8.0
114.411	5.0
114.426	4.0
114.441	2.0
114.456	1.0
114.471	4.0
114.486	6.0
114.501	3.0
114.516	5.0
114.531	1.0
114.546	0.0
114.561	5.0
114.576	5.0
114.591	1.0
114.606	3.0
114.621	3.0
114.636	3.0
114.65	1.0
114.665	4.0
114.68	2.0
114.695	6.0
114.71	2.0
114.725	5.0
114.74	3.0
114.755	4.0
114.77	6.0
114.785	1.0
114.8	1.0
114.815	4.0
114.83	5.0
114.845	6.0
114.86	3.0
114.875	8.0
114.89	5.0
114.905	2.0
114.92	4.0
114.935	5.0
114.95	3.0
114.965	3.0
114.98	1.0
114.995	2.0
115.009	4.0
115.024	3.0
115.039	3.0
115.054	1.0
115.069	5.0
115.084	5.0
115.099	2.0
115.114	4.0
115.129	4.0
115.144	4.0
115.159	3.0
115.174	2.0
115.189	2.0
115.204	0.0
115.219	1.0
115.234	3.0
115.249	6.0
115.264	4.0
115.279	1.0
115.294	2.0
115.309	1.0
115.323	5.0
115.338	8.0
115.353	4.0
115.368	2.0
115.383	1.0
115.398	5.0
115.413	4.0
115.428	1.0
115.443	1.0
115.458	2.0
115.473	3.0
115.488	1.0
115.503	1.0
115.518	3.0
115.533	8.0
115.548	4.0
115.562	5.0
115.577	6.0
115.592	4.0
115.607	5.0
115.622	4.0
115.637	2.0
115.652	5.0
115.667	6.0
115.682	3.0
115.697	3.0
115.712	3.0
115.727	5.0
115.741	5.0
115.756	4.0
115.771	5.0
115.786	4.0
115.801	6.0
115.816	8.0
115.831	1.0
115.846	3.0
115.861	1.0
115.875	1.0
115.89	3.0
115.905	3.0
115.92	2.0
115.935	5.0
115.95	4.0
115.965	4.0
115.98	4.0
115.995	4.0
116.009	3.0
116.024	5.0
116.039	3.0
116.054	4.0
116.069	1.0
116.084	0.0
116.099	3.0
116.113	3.0
116.128	5.0
116.143	5.0
116.158	7.0
116.173	3.0
116.188	2.0
116.202	2.0
116.217	5.0
116.232	5.0
116.247	5.0
116.262	5.0
116.277	4.0
116.291	5.0
116.306	6.0
116.321	5.0
116.336	6.0
116.351	2.0
116.366	3.0
116.38	4.0
116.395	5.0
116.41	4.0
116.425	10.0
116.44	0.0
116.454	2.0
116.469	7.0
116.484	3.0
116.499	2.0
116.514	5.0
116.528	3.0
116.543	2.0
116.558	6.0
116.573	3.0
116.588	5.0
116.602	2.0
116.617	5.0
116.632	2.0
116.647	4.0
116.662	4.0
116.676	3.0
116.691	1.0
116.706	2.0
116.721	2.0
116.735	4.0
116.75	4.0
116.765	4.0
116.78	3.0
116.795	3.0
116.809	3.0
116.824	3.0
116.839	3.0
116.854	5.0
116.868	3.0
116.883	9.0
116.898	1.0
116.913	3.0
116.927	5.0
116.942	3.0
116.957	1.0
116.972	2.0
116.986	2.0
117.001	1.0
117.016	5.0
117.031	1.0
117.045	3.0
117.06	4.0
117.075	4.0
117.09	2.0
117.104	4.0
117.119	5.0
117.134	3.0
117.149	6.0
117.163	6.0
117.178	4.0
117.193	4.0
117.208	2.0
117.222	5.0
117.237	4.0
117.252	4.0
117.267	7.0
117.281	4.0
117.296	7.0
117.311	3.0
117.325	7.0
117.34	8.0
117.355	5.0
117.37	8.0
117.384	5.0
117.399	1.0
117.414	3.0
117.429	4.0
117.443	4.0
117.458	4.0
117.473	3.0
117.487	3.0
117.502	6.0
117.517	4.0
117.532	5.0
117.546	0.0
117.561	2.0
117.576	4.0
117.59	7.0
117.605	5.0
117.62	3.0
117.635	4.0
117.649	5.0
117.664	4.0
117.679	4.0
117.693	5.0
117.708	4.0
117.723	5.0
117.738	4.0
117.752	6.0
117.767	3.0
117.782	5.0
117.796	3.0
117.811	1.0
117.826	1.0
117.841	3.0
117.855	1.0
117.87	6.0
117.885	4.0
117.899	1.0
117.914	5.0
117.929	1.0
117.944	3.0
117.958	7.0
117.973	3.0
117.988	2.0
118.002	7.0
118.017	2.0
118.032	4.0
118.047	0.0
118.062	9.0
118.077	7.0
118.092	5.0
118.107	3.0
118.121	5.0
118.136	7.0
118.151	7.0
118.166	5.0
118.181	2.0
118.196	2.0
118.211	7.0
118.225	7.0
118.24	1.0
118.255	4.0
118.27	9.0
118.285	3.0
118.3	3.0
118.315	2.0
118.33	5.0
118.344	5.0
118.359	1.0
118.374	4.0
118.389	6.0
118.404	5.0
118.419	4.0
118.434	2.0
118.449	6.0
118.463	3.0
118.478	2.0
118.493	5.0
118.508	2.0
118.523	8.0
118.538	4.0
118.553	6.0
118.567	3.0
118.582	3.0
118.597	1.0
118.612	3.0
118.627	5.0
118.642	1.0
118.657	4.0
118.672	6.0
118.686	3.0
118.701	6.0
118.716	4.0
118.731	2.0
118.746	2.0
118.761	5.0
118.776	6.0
118.791	3.0
118.805	4.0
118.82	4.0
118.835	5.0
118.85	3.0
118.865	3.0
118.88	5.0
118.895	3.0
118.909	4.0
118.924	2.0
118.939	2.0
118.954	3.0
118.969	2.0
118.984	2.0
118.999	4.0
119.014	2.0
119.028	2.0
119.043	3.0
119.058	6.0
119.073	7.0
119.088	4.0
119.103	1.0
119.118	6.0
119.133	4.0
119.147	2.0
119.162	3.0
119.177	3.0
119.192	7.0
119.207	4.0
119.222	3.0
119.237	4.0
119.251	8.0
119.266	4.0
119.281	5.0
119.296	1.0
119.311	3.0
119.326	9.0
119.341	2.0
119.356	2.0
119.37	4.0
119.385	0.0
119.4	8.0
119.415	7.0
119.43	5.0
119.445	6.0
119.46	7.0
119.475	5.0
119.489	2.0
119.504	4.0
119.519	2.0
119.534	3.0
119.549	2.0
119.564	0.0
119.579	2.0
119.593	1.0
119.608	4.0
119.623	5.0
119.638	1.0
119.653	0.0
119.668	5.0
119.683	6.0
119.698	3.0
119.712	4.0
119.727	3.0
119.742	4.0
119.757	2.0
119.772	5.0
119.787	3.0
119.802	0.0
119.817	3.0
119.831	5.0
119.846	3.0
119.861	2.0
119.876	4.0
119.891	2.0
119.906	4.0
119.921	4.0
119.935	1.0
119.95	11.0
119.965	3.0
119.98	3.0
119.995	3.0
120.01	3.0
120.025	1.0
120.04	2.0
120.054	1.0
120.069	1.0
120.084	0.0
120.099	1.0
120.114	3.0
120.129	1.0
120.144	4.0
120.159	3.0
120.173	3.0
120.188	0.0
120.203	2.0
120.218	3.0
120.233	2.0
120.248	2.0
120.263	0.0
120.277	2.0
120.292	1.0
120.307	1.0
120.322	0.0
120.337	1.0
120.352	2.0
120.367	0.0
120.382	0.0
120.396	0.0
120.411	0.0
120.426	1.0
120.441	0.0
120.456	1.0
120.471	2.0
120.486	0.0
120.501	0.0
120.515	0.0
120.53	0.0
120.545	0.0
120.56	1.0
120.575	0.0
120.59	0.0
120.605	0.0
120.619	0.0
120.634	0.0
120.649	0.0
120.664	0.0
120.679	0.0
120.694	0.0
120.709	0.0
120.724	0.0
120.738	0.0
120.753	1.0
120.768	0.0
120.783	0.0
120.798	0.0
120.813	0.0
120.828	0.0
120.843	0.0
120.857	0.0
120.872	0.0
120.887	0.0
120.902	0.0
120.917	0.0
120.932	1.0
120.947	0.0
120.961	0.0
120.976	0.0
