-1.217	0.0
-1.202	0.0
-1.187	0.0
-1.172	0.0
-1.157	0.0
-1.142	1.0
-1.128	0.0
-1.113	0.0
-1.098	0.0
-1.083	0.0
-1.068	0.0
-1.054	1.0
-1.039	0.0
-1.024	0.0
-1.009	0.0
-0.994	0.0
-0.979	0.0
-0.965	0.0
-0.95	0.0
-0.935	0.0
-0.92	0.0
-0.905	0.0
-0.891	0.0
-0.876	0.0
-0.861	0.0
-0.846	0.0
-0.831	0.0
-0.816	0.0
-0.802	0.0
-0.787	0.0
-0.772	0.0
-0.757	0.0
-0.742	0.0
-0.728	0.0
-0.713	0.0
-0.698	0.0
-0.683	0.0
-0.668	0.0
-0.653	0.0
-0.639	0.0
-0.624	0.0
-0.609	0.0
-0.594	0.0
-0.579	0.0
-0.565	0.0
-0.55	0.0
-0.535	0.0
-0.52	0.0
-0.505	0.0
-0.49	0.0
-0.476	0.0
-0.461	0.0
-0.446	1.0
-0.431	0.0
-0.416	0.0
-0.401	0.0
-0.387	0.0
-0.372	0.0
-0.357	0.0
-0.342	0.0
-0.327	0.0
-0.313	0.0
-0.298	0.0
-0.283	0.0
-0.268	0.0
-0.253	0.0
-0.238	0.0
-0.224	0.0
-0.209	0.0
-0.194	0.0
-0.179	0.0
-0.164	0.0
-0.15	0.0
-0.135	0.0
-0.12	0.0
-0.105	0.0
-0.09	0.0
-0.075	0.0
-0.061	0.0
-0.046	0.0
-0.031	0.0
-0.016	0.0
-0.001	0.0
0.013	0.0
0.028	0.0
0.043	0.0
0.058	0.0
0.073	0.0
0.088	0.0
0.102	0.0
0.117	0.0
0.132	0.0
0.147	0.0
0.162	0.0
0.176	0.0
0.191	0.0
0.206	0.0
0.221	0.0
0.236	0.0
0.251	0.0
0.265	0.0
0.28	1.0
0.295	0.0
0.31	0.0
0.325	0.0
0.339	0.0
0.354	0.0
0.369	0.0
0.384	0.0
0.399	0.0
0.414	0.0
0.428	0.0
0.443	0.0
0.458	0.0
0.473	0.0
0.488	0.0
0.502	0.0
0.517	0.0
0.532	0.0
0.547	0.0
0.562	0.0
0.577	0.0
0.591	0.0
0.606	0.0
0.621	0.0
0.636	0.0
0.651	0.0
0.665	1.0
0.68	0.0
0.695	0.0
0.71	0.0
0.725	0.0
0.74	0.0
0.754	0.0
0.769	0.0
0.784	0.0
0.799	0.0
0.814	0.0
0.828	0.0
0.843	0.0
0.858	0.0
0.873	0.0
0.888	0.0
0.903	0.0
0.917	0.0
0.932	0.0
0.947	0.0
0.962	0.0
0.977	0.0
0.991	0.0
1.006	0.0
1.021	0.0
1.036	0.0
1.051	0.0
1.065	1.0
1.08	0.0
1.095	0.0
1.11	0.0
1.125	0.0
1.14	0.0
1.154	0.0
1.169	0.0
1.184	0.0
1.199	0.0
1.214	0.0
1.228	0.0
1.243	0.0
1.258	0.0
1.273	0.0
1.288	0.0
1.302	0.0
1.317	0.0
1.332	0.0
1.347	0.0
1.362	0.0
1.376	0.0
1.391	0.0
1.406	0.0
1.421	1.0
1.436	0.0
1.45	0.0
1.465	0.0
1.48	0.0
1.495	0.0
1.51	0.0
1.524	0.0
1.539	0.0
1.554	0.0
1.569	0.0
1.584	1.0
1.598	1.0
1.613	0.0
1.628	0.0
1.643	0.0
1.658	0.0
1.672	0.0
1.687	1.0
1.702	0.0
1.717	0.0
1.732	0.0
1.746	0.0
1.761	0.0
1.776	0.0
1.791	0.0
1.806	0.0
1.82	0.0
1.835	0.0
1.85	0.0
1.865	0.0
1.88	0.0
1.894	0.0
1.909	1.0
1.924	1.0
1.939	0.0
1.954	0.0
1.968	1.0
1.983	1.0
1.998	1.0
2.013	0.0
2.028	0.0
2.042	0.0
2.057	0.0
2.072	0.0
2.087	0.0
2.101	0.0
2.116	0.0
2.131	0.0
2.146	0.0
2.161	1.0
2.175	0.0
2.19	0.0
2.205	0.0
2.22	0.0
2.235	0.0
2.249	1.0
2.264	1.0
2.279	0.0
2.294	0.0
2.308	1.0
2.323	0.0
2.338	2.0
2.353	0.0
2.368	1.0
2.382	0.0
2.397	1.0
2.412	1.0
2.427	3.0
2.442	0.0
2.456	1.0
2.471	1.0
2.486	4.0
2.501	1.0
2.515	3.0
2.53	1.0
2.545	3.0
2.56	1.0
2.575	1.0
2.589	3.0
2.604	2.0
2.619	2.0
2.634	1.0
2.649	2.0
2.663	2.0
2.678	1.0
2.693	3.0
2.708	5.0
2.722	4.0
2.737	3.0
2.752	2.0
2.767	4.0
2.782	4.0
2.796	6.0
2.811	3.0
2.826	2.0
2.841	3.0
2.856	2.0
2.87	2.0
2.885	3.0
2.9	1.0
2.915	3.0
2.93	2.0
2.944	1.0
2.959	5.0
2.974	3.0
2.989	4.0
3.004	6.0
3.018	0.0
3.033	5.0
3.048	3.0
3.063	0.0
3.078	3.0
3.092	5.0
3.107	5.0
3.122	7.0
3.137	5.0
3.152	2.0
3.166	3.0
3.181	5.0
3.196	7.0
3.211	0.0
3.226	1.0
3.24	3.0
3.255	2.0
3.27	1.0
3.285	5.0
3.3	6.0
3.315	5.0
3.329	10.0
3.344	3.0
3.359	8.0
3.374	5.0
3.389	7.0
3.403	8.0
3.418	7.0
3.433	4.0
3.448	5.0
3.463	4.0
3.478	4.0
3.492	1.0
3.507	8.0
3.522	6.0
3.537	1.0
3.552	6.0
3.567	9.0
3.581	4.0
3.596	4.0
3.611	4.0
3.626	2.0
3.641	1.0
3.656	3.0
3.671	6.0
3.685	9.0
3.7	6.0
3.715	5.0
3.73	3.0
3.745	10.0
3.76	9.0
3.775	4.0
3.789	5.0
3.804	9.0
3.819	8.0
3.834	6.0
3.849	6.0
3.864	7.0
3.879	7.0
3.894	2.0
3.908	4.0
3.923	3.0
3.938	7.0
3.953	10.0
3.968	1.0
3.983	6.0
3.998	7.0
4.013	3.0
4.027	8.0
4.042	5.0
4.057	8.0
4.072	13.0
4.087	9.0
4.102	11.0
4.117	7.0
4.132	12.0
4.147	6.0
4.162	9.0
4.176	6.0
4.191	9.0
4.206	10.0
4.221	8.0
4.236	4.0
4.251	9.0
4.266	11.0
4.281	12.0
4.296	4.0
4.311	8.0
4.326	11.0
4.341	5.0
4.356	3.0
4.37	3.0
4.385	9.0
4.4	9.0
4.415	4.0
4.43	6.0
4.445	10.0
4.46	5.0
4.475	12.0
4.49	11.0
4.505	8.0
4.52	5.0
4.535	4.0
4.55	8.0
4.565	3.0
4.58	6.0
4.595	2.0
4.61	7.0
4.625	8.0
4.639	5.0
4.654	4.0
4.669	6.0
4.684	7.0
4.699	6.0
4.714	3.0
4.729	4.0
4.744	12.0
4.759	2.0
4.774	7.0
4.789	4.0
4.804	6.0
4.819	4.0
4.834	5.0
4.849	9.0
4.864	5.0
4.879	8.0
4.894	9.0
4.909	9.0
4.924	6.0
4.939	6.0
4.954	6.0
4.969	7.0
4.984	8.0
4.999	8.0
5.014	12.0
5.029	12.0
5.044	6.0
5.059	8.0
5.074	8.0
5.089	7.0
5.104	9.0
5.119	6.0
5.134	7.0
5.149	4.0
5.164	9.0
5.179	10.0
5.194	5.0
5.209	3.0
5.224	3.0
5.239	12.0
5.254	9.0
5.269	9.0
5.284	6.0
5.299	7.0
5.314	8.0
5.329	8.0
5.344	6.0
5.359	5.0
5.374	8.0
5.389	15.0
5.404	5.0
5.419	10.0
5.434	8.0
5.449	8.0
5.464	7.0
5.479	3.0
5.494	5.0
5.509	4.0
5.524	8.0
5.539	6.0
5.554	9.0
5.569	15.0
5.584	4.0
5.599	6.0
5.614	12.0
5.629	9.0
5.644	6.0
5.659	15.0
5.674	7.0
5.689	5.0
5.704	8.0
5.719	10.0
5.734	12.0
5.749	11.0
5.764	8.0
5.779	12.0
5.794	5.0
5.809	9.0
5.824	3.0
5.839	6.0
5.854	6.0
5.869	12.0
5.884	12.0
5.899	6.0
5.914	6.0
5.929	9.0
5.944	8.0
5.959	11.0
5.974	7.0
5.989	6.0
6.004	7.0
6.019	6.0
6.034	8.0
6.049	8.0
6.064	8.0
6.079	10.0
6.094	11.0
6.109	10.0
6.124	10.0
6.139	9.0
6.154	8.0
6.169	10.0
6.184	4.0
6.199	7.0
6.214	5.0
6.229	14.0
6.244	8.0
6.259	8.0
6.274	8.0
6.289	7.0
6.304	6.0
6.319	5.0
6.334	10.0
6.349	5.0
6.364	5.0
6.379	15.0
6.394	9.0
6.409	5.0
6.424	8.0
6.439	12.0
6.454	7.0
6.469	9.0
6.484	12.0
6.499	6.0
6.514	3.0
6.529	9.0
6.544	9.0
6.559	13.0
6.574	10.0
6.589	11.0
6.604	15.0
6.619	12.0
6.634	6.0
6.649	9.0
6.664	2.0
6.679	9.0
6.694	4.0
6.709	6.0
6.724	10.0
6.739	9.0
6.754	8.0
6.769	5.0
6.784	5.0
6.799	10.0
6.814	10.0
6.829	12.0
6.844	5.0
6.859	12.0
6.873	8.0
6.888	7.0
6.903	13.0
6.918	10.0
6.933	11.0
6.948	7.0
6.963	10.0
6.978	8.0
6.993	8.0
7.008	8.0
7.023	8.0
7.038	10.0
7.053	9.0
7.068	12.0
7.083	5.0
7.098	6.0
7.113	5.0
7.128	15.0
7.143	7.0
7.157	11.0
7.172	10.0
7.187	5.0
7.202	8.0
7.217	9.0
7.232	11.0
7.247	8.0
7.262	12.0
7.277	9.0
7.292	15.0
7.307	7.0
7.322	11.0
7.336	4.0
7.351	9.0
7.366	10.0
7.381	11.0
7.396	7.0
7.411	8.0
7.426	14.0
7.441	9.0
7.456	6.0
7.471	7.0
7.485	8.0
7.5	6.0
7.515	6.0
7.53	5.0
7.545	10.0
7.56	8.0
7.575	10.0
7.59	9.0
7.604	5.0
7.619	10.0
7.634	9.0
7.649	6.0
7.664	10.0
7.679	7.0
7.693	6.0
7.708	7.0
7.723	4.0
7.738	12.0
7.753	9.0
7.768	12.0
7.783	8.0
7.797	4.0
7.812	1.0
7.827	7.0
7.842	9.0
7.857	5.0
7.871	12.0
7.886	12.0
7.901	9.0
7.916	11.0
7.931	7.0
7.945	12.0
7.96	12.0
7.975	12.0
7.99	11.0
8.005	8.0
8.019	9.0
8.034	11.0
8.049	5.0
8.064	8.0
8.078	5.0
8.093	9.0
8.108	11.0
8.123	8.0
8.137	8.0
8.152	8.0
8.167	10.0
8.182	9.0
8.196	6.0
8.211	5.0
8.226	7.0
8.241	10.0
8.255	5.0
8.27	12.0
8.285	9.0
8.3	8.0
8.314	18.0
8.329	9.0
8.344	10.0
8.358	4.0
8.373	6.0
8.388	5.0
8.403	7.0
8.417	7.0
8.432	9.0
8.447	14.0
8.461	10.0
8.476	4.0
8.491	6.0
8.505	10.0
8.52	11.0
8.535	5.0
8.55	7.0
8.564	10.0
8.579	6.0
8.594	5.0
8.608	2.0
8.623	9.0
8.638	5.0
8.652	9.0
8.667	8.0
8.682	12.0
8.696	9.0
8.711	7.0
8.726	13.0
8.74	10.0
8.755	4.0
8.77	12.0
8.784	13.0
8.799	6.0
8.814	9.0
8.828	3.0
8.843	10.0
8.858	5.0
8.872	12.0
8.887	7.0
8.902	7.0
8.916	12.0
8.931	9.0
8.946	10.0
8.96	13.0
8.975	7.0
8.99	8.0
9.004	12.0
9.019	9.0
9.034	9.0
9.048	9.0
9.063	13.0
9.077	11.0
9.092	7.0
9.107	4.0
9.121	7.0
9.136	5.0
9.151	11.0
9.165	15.0
9.18	14.0
9.195	9.0
9.209	8.0
9.224	9.0
9.239	5.0
9.253	7.0
9.268	6.0
9.283	11.0
9.297	6.0
9.312	8.0
9.327	5.0
9.341	8.0
9.356	11.0
9.371	4.0
9.385	9.0
9.4	11.0
9.415	10.0
9.429	6.0
9.444	8.0
9.458	5.0
9.473	7.0
9.488	8.0
9.502	14.0
9.517	5.0
9.532	9.0
9.546	11.0
9.561	5.0
9.576	11.0
9.59	10.0
9.605	7.0
9.62	9.0
9.635	7.0
9.649	8.0
9.664	8.0
9.679	12.0
9.693	6.0
9.708	9.0
9.723	5.0
9.737	9.0
9.752	6.0
9.767	8.0
9.781	7.0
9.796	10.0
9.811	8.0
9.825	5.0
9.84	9.0
9.855	7.0
9.87	13.0
9.884	6.0
9.899	11.0
9.914	8.0
9.928	5.0
9.943	5.0
9.958	6.0
9.973	9.0
9.987	8.0
10.002	4.0
10.017	5.0
10.031	11.0
10.046	7.0
10.061	8.0
10.076	10.0
10.09	14.0
10.105	16.0
10.12	10.0
10.135	11.0
10.149	8.0
10.164	10.0
10.179	6.0
10.194	11.0
10.208	3.0
10.223	8.0
10.238	5.0
10.253	7.0
10.267	14.0
10.282	5.0
10.297	3.0
10.312	8.0
10.326	3.0
10.341	8.0
10.356	3.0
10.371	7.0
10.386	8.0
10.4	9.0
10.415	11.0
10.43	9.0
10.445	11.0
10.46	12.0
10.474	5.0
10.489	7.0
10.504	14.0
10.519	7.0
10.533	8.0
10.548	6.0
10.563	9.0
10.578	9.0
10.593	7.0
10.608	4.0
10.622	5.0
10.637	9.0
10.652	11.0
10.667	11.0
10.682	9.0
10.696	13.0
10.711	6.0
10.726	4.0
10.741	5.0
10.756	10.0
10.771	6.0
10.785	7.0
10.8	12.0
10.815	6.0
10.83	6.0
10.845	4.0
10.86	7.0
10.874	9.0
10.889	9.0
10.904	5.0
10.919	7.0
10.934	14.0
10.949	7.0
10.963	3.0
10.978	6.0
10.993	9.0
11.008	4.0
11.023	4.0
11.038	8.0
11.053	8.0
11.067	5.0
11.082	9.0
11.097	5.0
11.112	4.0
11.127	11.0
11.142	3.0
11.157	1.0
11.172	10.0
11.186	5.0
11.201	4.0
11.216	2.0
11.231	7.0
11.246	5.0
11.261	9.0
11.276	9.0
11.291	5.0
11.305	7.0
11.32	5.0
11.335	10.0
11.35	7.0
11.365	7.0
11.38	7.0
11.395	4.0
11.41	7.0
11.424	5.0
11.439	6.0
11.454	5.0
11.469	8.0
11.484	7.0
11.499	4.0
11.514	6.0
11.529	6.0
11.544	6.0
11.558	4.0
11.573	9.0
11.588	8.0
11.603	11.0
11.618	5.0
11.633	7.0
11.648	5.0
11.663	8.0
11.678	8.0
11.693	8.0
11.707	6.0
11.722	7.0
11.737	11.0
11.752	8.0
11.767	9.0
11.782	6.0
11.797	6.0
11.812	11.0
11.827	13.0
11.842	3.0
11.856	12.0
11.871	8.0
11.886	15.0
11.901	6.0
11.916	12.0
11.931	9.0
11.946	16.0
11.961	4.0
11.976	6.0
11.991	14.0
12.006	12.0
12.02	11.0
12.035	7.0
12.05	13.0
12.065	13.0
12.08	17.0
12.095	9.0
12.11	9.0
12.125	10.0
12.14	10.0
12.155	8.0
12.17	14.0
12.184	3.0
12.199	7.0
12.214	9.0
12.229	6.0
12.244	7.0
12.259	12.0
12.274	7.0
12.289	12.0
12.304	9.0
12.319	8.0
12.334	5.0
12.348	12.0
12.363	9.0
12.378	12.0
12.393	13.0
12.408	11.0
12.423	11.0
12.438	12.0
12.453	10.0
12.468	22.0
12.483	12.0
12.498	13.0
12.513	11.0
12.527	9.0
12.542	9.0
12.557	9.0
12.572	19.0
12.587	11.0
12.602	13.0
12.617	14.0
12.632	8.0
12.647	17.0
12.662	9.0
12.677	11.0
12.692	11.0
12.707	8.0
12.721	14.0
12.736	15.0
12.751	20.0
12.766	11.0
12.781	11.0
12.796	9.0
12.811	14.0
12.826	14.0
12.841	12.0
12.856	12.0
12.871	13.0
12.886	13.0
12.9	20.0
12.915	12.0
12.93	9.0
12.945	16.0
12.96	10.0
12.975	19.0
12.99	13.0
13.005	16.0
13.02	16.0
13.035	12.0
13.05	19.0
13.065	17.0
13.08	19.0
13.094	13.0
13.109	15.0
13.124	23.0
13.139	12.0
13.154	15.0
13.169	25.0
13.184	10.0
13.199	19.0
13.214	15.0
13.229	17.0
13.244	16.0
13.259	14.0
13.274	17.0
13.288	18.0
13.303	24.0
13.318	17.0
13.333	18.0
13.348	21.0
13.363	26.0
13.378	22.0
13.393	17.0
13.408	27.0
13.423	30.0
13.438	29.0
13.453	22.0
13.468	33.0
13.482	38.0
13.497	34.0
13.512	34.0
13.527	36.0
13.542	47.0
13.557	51.0
13.572	53.0
13.587	61.0
13.602	46.0
13.617	68.0
13.632	72.0
13.647	65.0
13.662	67.0
13.677	73.0
13.691	70.0
13.706	81.0
13.721	103.0
13.736	105.0
13.751	90.0
13.766	104.0
13.781	112.0
13.796	106.0
13.811	126.0
13.826	121.0
13.841	121.0
13.856	113.0
13.871	94.0
13.885	90.0
13.9	62.0
13.915	76.0
13.93	72.0
13.945	55.0
13.96	46.0
13.975	41.0
13.99	31.0
14.005	39.0
14.02	29.0
14.035	25.0
14.05	32.0
14.065	22.0
14.08	14.0
14.094	24.0
14.109	30.0
14.124	23.0
14.139	13.0
14.154	20.0
14.169	28.0
14.184	21.0
14.199	25.0
14.214	19.0
14.229	24.0
14.244	28.0
14.259	20.0
14.274	16.0
14.288	27.0
14.303	19.0
14.318	18.0
14.333	21.0
14.348	21.0
14.363	18.0
14.378	18.0
14.393	18.0
14.408	21.0
14.423	18.0
14.438	12.0
14.453	12.0
14.468	19.0
14.482	11.0
14.497	15.0
14.512	18.0
14.527	20.0
14.542	19.0
14.557	20.0
14.572	15.0
14.587	21.0
14.602	17.0
14.617	17.0
14.632	17.0
14.647	15.0
14.661	15.0
14.676	20.0
14.691	18.0
14.706	14.0
14.721	19.0
14.736	17.0
14.751	17.0
14.766	12.0
14.781	18.0
14.796	15.0
14.811	15.0
14.826	11.0
14.84	15.0
14.855	16.0
14.87	18.0
14.885	13.0
14.9	18.0
14.915	18.0
14.93	6.0
14.945	18.0
14.96	12.0
14.975	11.0
14.989	16.0
15.004	10.0
15.019	17.0
15.034	15.0
15.049	11.0
15.064	16.0
15.079	6.0
15.094	12.0
15.109	15.0
15.124	12.0
15.138	16.0
15.153	19.0
15.168	6.0
15.183	22.0
15.198	13.0
15.213	10.0
15.228	12.0
15.243	9.0
15.258	17.0
15.272	14.0
15.287	10.0
15.302	10.0
15.317	20.0
15.332	14.0
15.347	17.0
15.362	10.0
15.377	18.0
15.391	12.0
15.406	10.0
15.421	11.0
15.436	13.0
15.451	11.0
15.466	15.0
15.481	14.0
15.496	15.0
15.51	14.0
15.525	12.0
15.54	12.0
15.555	7.0
15.57	9.0
15.585	13.0
15.6	10.0
15.614	17.0
15.629	16.0
15.644	12.0
15.659	9.0
15.674	11.0
15.689	16.0
15.704	15.0
15.718	17.0
15.733	13.0
15.748	13.0
15.763	15.0
15.778	14.0
15.793	12.0
15.808	10.0
15.822	14.0
15.837	15.0
15.852	12.0
15.867	10.0
15.882	17.0
15.897	14.0
15.911	21.0
15.926	13.0
15.941	11.0
15.956	10.0
15.971	14.0
15.986	12.0
16.0	11.0
16.015	12.0
16.03	20.0
16.045	14.0
16.06	17.0
16.074	20.0
16.089	18.0
16.104	12.0
16.119	12.0
16.134	16.0
16.149	12.0
16.163	8.0
16.178	10.0
16.193	18.0
16.208	10.0
16.223	10.0
16.237	14.0
16.252	13.0
16.267	18.0
16.282	13.0
16.297	15.0
16.311	17.0
16.326	8.0
16.341	11.0
16.356	14.0
16.37	12.0
16.385	14.0
16.4	11.0
16.415	16.0
16.43	14.0
16.444	10.0
16.459	17.0
16.474	15.0
16.489	16.0
16.504	8.0
16.518	17.0
16.533	13.0
16.548	19.0
16.563	14.0
16.577	16.0
16.592	16.0
16.607	13.0
16.622	14.0
16.637	23.0
16.651	18.0
16.666	21.0
16.681	20.0
16.696	30.0
16.71	21.0
16.725	28.0
16.74	26.0
16.755	30.0
16.77	44.0
16.784	39.0
16.799	29.0
16.814	49.0
16.829	37.0
16.843	37.0
16.858	45.0
16.873	45.0
16.888	68.0
16.902	63.0
16.917	73.0
16.932	73.0
16.947	64.0
16.961	60.0
16.976	70.0
16.991	63.0
17.006	60.0
17.021	44.0
17.035	47.0
17.05	33.0
17.065	34.0
17.08	36.0
17.094	31.0
17.109	39.0
17.124	24.0
17.139	23.0
17.153	17.0
17.168	28.0
17.183	14.0
17.198	15.0
17.212	11.0
17.227	18.0
17.242	15.0
17.257	11.0
17.271	14.0
17.286	10.0
17.301	15.0
17.316	12.0
17.33	14.0
17.345	15.0
17.36	15.0
17.375	9.0
17.39	19.0
17.404	13.0
17.419	13.0
17.434	9.0
17.449	14.0
17.463	11.0
17.478	14.0
17.493	13.0
17.508	14.0
17.522	12.0
17.537	18.0
17.552	11.0
17.567	10.0
17.581	10.0
17.596	14.0
17.611	12.0
17.626	16.0
17.641	11.0
17.655	12.0
17.67	13.0
17.685	10.0
17.7	10.0
17.714	12.0
17.729	10.0
17.744	9.0
17.759	7.0
17.773	7.0
17.788	13.0
17.803	13.0
17.818	9.0
17.833	13.0
17.847	12.0
17.862	12.0
17.877	13.0
17.892	8.0
17.906	9.0
17.921	23.0
17.936	16.0
17.951	17.0
17.966	9.0
17.98	8.0
17.995	11.0
18.01	8.0
18.025	15.0
18.04	13.0
18.054	10.0
18.069	12.0
18.084	10.0
18.099	10.0
18.114	7.0
18.128	11.0
18.143	7.0
18.158	11.0
18.173	12.0
18.188	21.0
18.202	7.0
18.217	4.0
18.232	10.0
18.247	9.0
18.262	11.0
18.276	8.0
18.291	10.0
18.306	5.0
18.321	13.0
18.336	15.0
18.35	17.0
18.365	15.0
18.38	15.0
18.395	12.0
18.41	8.0
18.424	13.0
18.439	5.0
18.454	8.0
18.469	8.0
18.484	12.0
18.498	7.0
18.513	5.0
18.528	10.0
18.543	13.0
18.558	11.0
18.573	10.0
18.587	12.0
18.602	8.0
18.617	8.0
18.632	13.0
18.647	4.0
18.661	11.0
18.676	8.0
18.691	15.0
18.706	7.0
18.721	13.0
18.736	8.0
18.75	17.0
18.765	8.0
18.78	8.0
18.795	12.0
18.81	8.0
18.825	12.0
18.839	13.0
18.854	13.0
18.869	16.0
18.884	4.0
18.899	10.0
18.913	9.0
18.928	4.0
18.943	15.0
18.958	10.0
18.973	14.0
18.988	8.0
19.002	19.0
19.017	6.0
19.032	15.0
19.047	15.0
19.062	11.0
19.077	16.0
19.091	11.0
19.106	12.0
19.121	14.0
19.136	13.0
19.151	8.0
19.165	14.0
19.18	16.0
19.195	13.0
19.21	13.0
19.225	10.0
19.24	16.0
19.254	14.0
19.269	20.0
19.284	11.0
19.299	17.0
19.314	20.0
19.329	6.0
19.343	19.0
19.358	16.0
19.373	18.0
19.388	16.0
19.403	16.0
19.417	19.0
19.432	17.0
19.447	22.0
19.462	27.0
19.477	23.0
19.492	33.0
19.506	14.0
19.521	32.0
19.536	32.0
19.551	37.0
19.566	35.0
19.58	32.0
19.595	43.0
19.61	32.0
19.625	47.0
19.64	31.0
19.655	36.0
19.669	42.0
19.684	30.0
19.699	32.0
19.714	28.0
19.729	29.0
19.743	16.0
19.758	33.0
19.773	18.0
19.788	18.0
19.803	17.0
19.817	14.0
19.832	14.0
19.847	11.0
19.862	16.0
19.877	18.0
19.891	18.0
19.906	14.0
19.921	16.0
19.936	12.0
19.951	16.0
19.965	15.0
19.98	17.0
19.995	10.0
20.01	11.0
20.025	15.0
20.039	5.0
20.054	8.0
20.069	11.0
20.084	10.0
20.099	12.0
20.113	14.0
20.128	10.0
20.143	10.0
20.158	6.0
20.173	16.0
20.187	12.0
20.202	12.0
20.217	13.0
20.232	13.0
20.246	11.0
20.261	9.0
20.276	13.0
20.291	11.0
20.306	9.0
20.32	8.0
20.335	8.0
20.35	14.0
20.365	12.0
20.38	14.0
20.394	14.0
20.409	10.0
20.424	15.0
20.439	12.0
20.453	8.0
20.468	9.0
20.483	10.0
20.498	10.0
20.513	14.0
20.527	11.0
20.542	7.0
20.557	8.0
20.572	13.0
20.586	9.0
20.601	9.0
20.616	11.0
20.631	12.0
20.646	14.0
20.66	7.0
20.675	10.0
20.69	13.0
20.705	3.0
20.719	14.0
20.734	13.0
20.749	8.0
20.764	7.0
20.779	14.0
20.793	10.0
20.808	6.0
20.823	15.0
20.838	12.0
20.853	9.0
20.867	8.0
20.882	8.0
20.897	5.0
20.912	10.0
20.926	13.0
20.941	12.0
20.956	11.0
20.971	8.0
20.986	13.0
21.0	14.0
21.015	10.0
21.03	5.0
21.045	17.0
21.06	12.0
21.074	7.0
21.089	4.0
21.104	14.0
21.119	12.0
21.134	18.0
21.148	9.0
21.163	15.0
21.178	11.0
21.193	6.0
21.208	8.0
21.222	8.0
21.237	6.0
21.252	8.0
21.267	14.0
21.282	10.0
21.296	10.0
21.311	7.0
21.326	12.0
21.341	14.0
21.356	11.0
21.37	10.0
21.385	14.0
21.4	14.0
21.415	13.0
21.43	16.0
21.444	9.0
21.459	10.0
21.474	10.0
21.489	10.0
21.504	10.0
21.519	9.0
21.533	20.0
21.548	11.0
21.563	18.0
21.578	10.0
21.593	14.0
21.608	17.0
21.622	14.0
21.637	21.0
21.652	17.0
21.667	13.0
21.682	16.0
21.697	24.0
21.712	20.0
21.726	20.0
21.741	25.0
21.756	26.0
21.771	33.0
21.786	30.0
21.801	38.0
21.816	47.0
21.83	38.0
21.845	61.0
21.86	44.0
21.875	63.0
21.89	71.0
21.905	55.0
21.92	66.0
21.935	72.0
21.949	75.0
21.964	71.0
21.979	98.0
21.994	64.0
22.009	68.0
22.024	56.0
22.039	66.0
22.054	47.0
22.069	48.0
22.083	51.0
22.098	39.0
22.113	37.0
22.128	27.0
22.143	14.0
22.158	22.0
22.173	26.0
22.188	20.0
22.203	17.0
22.218	15.0
22.233	6.0
22.248	14.0
22.262	16.0
22.277	15.0
22.292	14.0
22.307	7.0
22.322	8.0
22.337	16.0
22.352	13.0
22.367	11.0
22.382	7.0
22.397	15.0
22.412	15.0
22.427	12.0
22.442	7.0
22.457	10.0
22.472	12.0
22.487	8.0
22.502	16.0
22.516	8.0
22.531	13.0
22.546	12.0
22.561	14.0
22.576	15.0
22.591	10.0
22.606	12.0
22.621	15.0
22.636	8.0
22.651	6.0
22.666	13.0
22.681	15.0
22.696	17.0
22.711	10.0
22.726	6.0
22.741	11.0
22.756	13.0
22.771	9.0
22.786	13.0
22.801	13.0
22.816	14.0
22.831	10.0
22.846	11.0
22.861	8.0
22.876	12.0
22.891	19.0
22.906	8.0
22.92	8.0
22.935	11.0
22.95	6.0
22.965	12.0
22.98	13.0
22.995	11.0
23.01	5.0
23.025	11.0
23.04	7.0
23.055	10.0
23.07	11.0
23.085	4.0
23.1	6.0
23.115	2.0
23.13	6.0
23.145	12.0
23.16	11.0
23.175	9.0
23.19	10.0
23.205	7.0
23.22	6.0
23.235	6.0
23.25	6.0
23.265	11.0
23.28	7.0
23.295	13.0
23.31	10.0
23.325	12.0
23.34	7.0
23.355	10.0
23.37	11.0
23.384	12.0
23.399	9.0
23.414	10.0
23.429	11.0
23.444	14.0
23.459	14.0
23.474	4.0
23.489	8.0
23.504	15.0
23.519	10.0
23.534	12.0
23.549	10.0
23.564	7.0
23.579	9.0
23.594	14.0
23.609	9.0
23.624	6.0
23.639	9.0
23.654	14.0
23.668	15.0
23.683	5.0
23.698	8.0
23.713	11.0
23.728	11.0
23.743	10.0
23.758	9.0
23.773	10.0
23.788	13.0
23.803	9.0
23.818	9.0
23.833	9.0
23.848	21.0
23.862	14.0
23.877	19.0
23.892	10.0
23.907	19.0
23.922	29.0
23.937	32.0
23.952	26.0
23.967	25.0
23.982	38.0
23.997	29.0
24.011	45.0
24.026	27.0
24.041	44.0
24.056	48.0
24.071	49.0
24.086	43.0
24.101	49.0
24.116	51.0
24.131	44.0
24.145	51.0
24.16	41.0
24.175	35.0
24.19	32.0
24.205	31.0
24.22	15.0
24.235	20.0
24.249	26.0
24.264	21.0
24.279	16.0
24.294	18.0
24.309	14.0
24.324	19.0
24.338	12.0
24.353	19.0
24.368	8.0
24.383	18.0
24.398	11.0
24.413	5.0
24.428	17.0
24.442	7.0
24.457	6.0
24.472	10.0
24.487	9.0
24.502	15.0
24.516	17.0
24.531	17.0
24.546	6.0
24.561	14.0
24.576	21.0
24.591	5.0
24.605	13.0
24.62	13.0
24.635	14.0
24.65	14.0
24.665	10.0
24.679	11.0
24.694	11.0
24.709	11.0
24.724	16.0
24.739	13.0
24.753	9.0
24.768	8.0
24.783	7.0
24.798	13.0
24.813	12.0
24.827	7.0
24.842	11.0
24.857	11.0
24.872	12.0
24.886	10.0
24.901	8.0
24.916	4.0
24.931	10.0
24.946	12.0
24.96	11.0
24.975	8.0
24.99	9.0
25.005	10.0
25.019	7.0
25.034	15.0
25.049	12.0
25.064	6.0
25.078	11.0
25.093	5.0
25.108	12.0
25.123	14.0
25.138	9.0
25.152	11.0
25.167	13.0
25.182	8.0
25.197	14.0
25.211	14.0
25.226	13.0
25.241	12.0
25.256	6.0
25.27	10.0
25.285	8.0
25.3	11.0
25.315	9.0
25.329	4.0
25.344	11.0
25.359	12.0
25.374	5.0
25.388	5.0
25.403	14.0
25.418	5.0
25.433	10.0
25.447	9.0
25.462	7.0
25.477	9.0
25.492	9.0
25.506	10.0
25.521	9.0
25.536	14.0
25.55	7.0
25.565	9.0
25.58	12.0
25.595	8.0
25.609	6.0
25.624	10.0
25.639	5.0
25.654	3.0
25.668	10.0
25.683	14.0
25.698	9.0
25.713	16.0
25.727	4.0
25.742	6.0
25.757	6.0
25.772	11.0
25.786	8.0
25.801	11.0
25.816	15.0
25.83	8.0
25.845	10.0
25.86	6.0
25.875	9.0
25.889	11.0
25.904	5.0
25.919	3.0
25.934	7.0
25.948	11.0
25.963	14.0
25.978	6.0
25.992	7.0
26.007	10.0
26.022	7.0
26.037	6.0
26.051	10.0
26.066	11.0
26.081	8.0
26.096	7.0
26.11	11.0
26.125	12.0
26.14	4.0
26.155	5.0
26.169	8.0
26.184	8.0
26.199	10.0
26.213	8.0
26.228	13.0
26.243	10.0
26.258	3.0
26.272	12.0
26.287	11.0
26.302	11.0
26.317	12.0
26.331	9.0
26.346	7.0
26.361	8.0
26.376	5.0
26.39	12.0
26.405	8.0
26.42	8.0
26.434	7.0
26.449	5.0
26.464	11.0
26.479	9.0
26.493	2.0
26.508	13.0
26.523	7.0
26.538	10.0
26.552	10.0
26.567	6.0
26.582	6.0
26.597	9.0
26.611	12.0
26.626	9.0
26.641	10.0
26.656	11.0
26.67	6.0
26.685	9.0
26.7	7.0
26.715	13.0
26.729	9.0
26.744	8.0
26.759	15.0
26.773	12.0
26.788	8.0
26.803	11.0
26.818	8.0
26.832	5.0
26.847	8.0
26.862	13.0
26.877	8.0
26.891	4.0
26.906	1.0
26.921	4.0
26.936	10.0
26.95	9.0
26.965	6.0
26.98	15.0
26.995	14.0
27.01	10.0
27.024	13.0
27.039	10.0
27.054	14.0
27.069	15.0
27.083	8.0
27.098	7.0
27.113	11.0
27.128	8.0
27.142	6.0
27.157	7.0
27.172	14.0
27.187	11.0
27.201	11.0
27.216	6.0
27.231	13.0
27.246	3.0
27.261	8.0
27.275	9.0
27.29	10.0
27.305	8.0
27.32	10.0
27.334	7.0
27.349	9.0
27.364	5.0
27.379	11.0
27.394	4.0
27.408	12.0
27.423	10.0
27.438	9.0
27.453	9.0
27.467	11.0
27.482	5.0
27.497	12.0
27.512	12.0
27.527	7.0
27.541	13.0
27.556	6.0
27.571	6.0
27.586	10.0
27.601	10.0
27.615	17.0
27.63	14.0
27.645	9.0
27.66	9.0
27.675	12.0
27.689	10.0
27.704	17.0
27.719	14.0
27.734	17.0
27.749	19.0
27.763	21.0
27.778	26.0
27.793	20.0
27.808	18.0
27.823	26.0
27.838	25.0
27.852	27.0
27.867	22.0
27.882	22.0
27.897	19.0
27.912	26.0
27.926	25.0
27.941	14.0
27.956	20.0
27.971	16.0
27.986	21.0
28.001	17.0
28.015	16.0
28.03	11.0
28.045	17.0
28.06	12.0
28.075	15.0
28.09	14.0
28.105	11.0
28.119	12.0
28.134	16.0
28.149	15.0
28.164	10.0
28.179	11.0
28.194	8.0
28.208	13.0
28.223	13.0
28.238	5.0
28.253	9.0
28.268	8.0
28.283	8.0
28.298	6.0
28.312	15.0
28.327	7.0
28.342	12.0
28.357	8.0
28.372	11.0
28.387	16.0
28.402	16.0
28.417	12.0
28.431	12.0
28.446	13.0
28.461	9.0
28.476	10.0
28.491	11.0
28.506	10.0
28.521	7.0
28.536	12.0
28.55	11.0
28.565	6.0
28.58	9.0
28.595	13.0
28.61	12.0
28.625	4.0
28.64	9.0
28.655	20.0
28.669	15.0
28.684	13.0
28.699	4.0
28.714	10.0
28.729	6.0
28.744	11.0
28.759	7.0
28.774	12.0
28.788	10.0
28.803	13.0
28.818	6.0
28.833	11.0
28.848	7.0
28.863	10.0
28.878	10.0
28.893	5.0
28.908	7.0
28.922	10.0
28.937	10.0
28.952	7.0
28.967	9.0
28.982	6.0
28.997	8.0
29.012	7.0
29.027	15.0
29.041	11.0
29.056	8.0
29.071	9.0
29.086	11.0
29.101	12.0
29.116	15.0
29.131	13.0
29.146	14.0
29.16	10.0
29.175	6.0
29.19	10.0
29.205	13.0
29.22	6.0
29.235	10.0
29.25	10.0
29.265	16.0
29.279	14.0
29.294	12.0
29.309	9.0
29.324	15.0
29.339	10.0
29.354	16.0
29.369	12.0
29.384	14.0
29.398	14.0
29.413	18.0
29.428	18.0
29.443	13.0
29.458	20.0
29.473	19.0
29.488	27.0
29.502	31.0
29.517	37.0
29.532	26.0
29.547	35.0
29.562	35.0
29.577	44.0
29.592	54.0
29.606	51.0
29.621	53.0
29.636	42.0
29.651	54.0
29.666	40.0
29.681	35.0
29.695	51.0
29.71	29.0
29.725	36.0
29.74	32.0
29.755	35.0
29.77	25.0
29.784	18.0
29.799	32.0
29.814	26.0
29.829	18.0
29.844	30.0
29.859	21.0
29.873	18.0
29.888	15.0
29.903	14.0
29.918	15.0
29.933	13.0
29.947	15.0
29.962	16.0
29.977	10.0
29.992	9.0
30.007	14.0
30.021	6.0
30.036	11.0
30.051	9.0
30.066	5.0
30.081	14.0
30.095	11.0
30.11	16.0
30.125	8.0
30.14	16.0
30.155	17.0
30.169	9.0
30.184	12.0
30.199	3.0
30.214	13.0
30.228	10.0
30.243	9.0
30.258	9.0
30.273	8.0
30.288	16.0
30.302	13.0
30.317	10.0
30.332	6.0
30.347	7.0
30.361	13.0
30.376	8.0
30.391	14.0
30.406	5.0
30.42	11.0
30.435	8.0
30.45	16.0
30.465	6.0
30.479	8.0
30.494	12.0
30.509	7.0
30.524	10.0
30.538	7.0
30.553	9.0
30.568	12.0
30.583	12.0
30.597	11.0
30.612	7.0
30.627	9.0
30.641	9.0
30.656	12.0
30.671	8.0
30.686	8.0
30.7	11.0
30.715	14.0
30.73	7.0
30.745	6.0
30.759	11.0
30.774	13.0
30.789	12.0
30.803	11.0
30.818	15.0
30.833	13.0
30.848	10.0
30.862	15.0
30.877	10.0
30.892	9.0
30.906	6.0
30.921	13.0
30.936	7.0
30.951	17.0
30.965	14.0
30.98	12.0
30.995	10.0
31.009	14.0
31.024	7.0
31.039	16.0
31.053	16.0
31.068	23.0
31.083	13.0
31.098	18.0
31.112	21.0
31.127	23.0
31.142	17.0
31.156	17.0
31.171	28.0
31.186	32.0
31.2	26.0
31.215	33.0
31.23	32.0
31.245	36.0
31.259	47.0
31.274	39.0
31.289	33.0
31.303	24.0
31.318	24.0
31.333	28.0
31.347	18.0
31.362	29.0
31.377	32.0
31.392	24.0
31.406	27.0
31.421	27.0
31.436	21.0
31.45	27.0
31.465	29.0
31.48	15.0
31.494	25.0
31.509	25.0
31.524	19.0
31.538	12.0
31.553	8.0
31.568	14.0
31.583	10.0
31.597	9.0
31.612	15.0
31.627	10.0
31.641	7.0
31.656	12.0
31.671	16.0
31.685	10.0
31.7	13.0
31.715	10.0
31.729	10.0
31.744	6.0
31.759	6.0
31.774	8.0
31.788	14.0
31.803	12.0
31.818	13.0
31.832	12.0
31.847	12.0
31.862	10.0
31.876	6.0
31.891	9.0
31.906	8.0
31.92	12.0
31.935	8.0
31.95	12.0
31.965	10.0
31.979	11.0
31.994	7.0
32.009	11.0
32.023	8.0
32.038	9.0
32.053	11.0
32.067	9.0
32.082	8.0
32.097	12.0
32.112	6.0
32.126	9.0
32.141	4.0
32.156	6.0
32.17	10.0
32.185	15.0
32.2	5.0
32.214	4.0
32.229	12.0
32.244	6.0
32.259	12.0
32.273	13.0
32.288	10.0
32.303	7.0
32.317	14.0
32.332	7.0
32.347	12.0
32.362	4.0
32.376	8.0
32.391	7.0
32.406	12.0
32.42	7.0
32.435	13.0
32.45	11.0
32.465	10.0
32.479	7.0
32.494	10.0
32.509	8.0
32.523	13.0
32.538	6.0
32.553	11.0
32.568	5.0
32.582	12.0
32.597	14.0
32.612	8.0
32.627	11.0
32.641	10.0
32.656	9.0
32.671	19.0
32.685	8.0
32.7	12.0
32.715	11.0
32.73	21.0
32.744	21.0
32.759	23.0
32.774	34.0
32.788	24.0
32.803	25.0
32.818	30.0
32.833	26.0
32.847	23.0
32.862	30.0
32.877	32.0
32.892	17.0
32.906	21.0
32.921	26.0
32.936	18.0
32.951	15.0
32.965	14.0
32.98	19.0
32.995	13.0
33.009	21.0
33.024	15.0
33.039	23.0
33.054	21.0
33.068	9.0
33.083	12.0
33.098	11.0
33.113	13.0
33.127	16.0
33.142	16.0
33.157	11.0
33.172	10.0
33.186	12.0
33.201	7.0
33.216	7.0
33.231	6.0
33.245	7.0
33.26	6.0
33.275	7.0
33.29	6.0
33.304	8.0
33.319	6.0
33.334	13.0
33.349	15.0
33.363	5.0
33.378	6.0
33.393	12.0
33.408	10.0
33.422	10.0
33.437	9.0
33.452	6.0
33.467	11.0
33.481	8.0
33.496	9.0
33.511	8.0
33.526	10.0
33.54	9.0
33.555	7.0
33.57	13.0
33.585	7.0
33.599	6.0
33.614	7.0
33.629	11.0
33.644	14.0
33.658	9.0
33.673	9.0
33.688	5.0
33.703	6.0
33.718	6.0
33.732	9.0
33.747	11.0
33.762	7.0
33.777	6.0
33.791	5.0
33.806	7.0
33.821	8.0
33.836	11.0
33.85	3.0
33.865	14.0
33.88	14.0
33.895	7.0
33.91	11.0
33.924	6.0
33.939	9.0
33.954	18.0
33.969	13.0
33.983	11.0
33.998	8.0
34.013	10.0
34.028	11.0
34.042	12.0
34.057	9.0
34.072	6.0
34.087	12.0
34.102	7.0
34.116	15.0
34.131	6.0
34.146	12.0
34.161	9.0
34.175	13.0
34.19	5.0
34.205	10.0
34.22	12.0
34.235	16.0
34.249	7.0
34.264	15.0
34.279	10.0
34.294	11.0
34.309	16.0
34.323	13.0
34.338	20.0
34.353	7.0
34.368	12.0
34.382	18.0
34.397	8.0
34.412	16.0
34.427	13.0
34.442	12.0
34.456	8.0
34.471	15.0
34.486	9.0
34.501	11.0
34.516	7.0
34.53	8.0
34.545	15.0
34.56	9.0
34.575	11.0
34.59	8.0
34.604	7.0
34.619	13.0
34.634	9.0
34.649	8.0
34.664	15.0
34.678	10.0
34.693	6.0
34.708	8.0
34.723	3.0
34.738	9.0
34.752	9.0
34.767	5.0
34.782	8.0
34.797	13.0
34.812	9.0
34.826	10.0
34.841	5.0
34.856	12.0
34.871	6.0
34.886	7.0
34.9	6.0
34.915	9.0
34.93	9.0
34.945	8.0
34.96	7.0
34.974	9.0
34.989	6.0
35.004	11.0
35.019	10.0
35.034	3.0
35.048	5.0
35.063	7.0
35.078	8.0
35.093	5.0
35.108	9.0
35.122	6.0
35.137	9.0
35.152	13.0
35.167	10.0
35.182	7.0
35.196	12.0
35.211	8.0
35.226	6.0
35.241	6.0
35.256	9.0
35.27	11.0
35.285	5.0
35.3	8.0
35.315	6.0
35.33	7.0
35.344	6.0
35.359	7.0
35.374	14.0
35.389	10.0
35.404	9.0
35.418	8.0
35.433	13.0
35.448	6.0
35.463	8.0
35.478	8.0
35.493	10.0
35.507	12.0
35.522	3.0
35.537	7.0
35.552	8.0
35.567	10.0
35.581	10.0
35.596	6.0
35.611	17.0
35.626	9.0
35.641	8.0
35.655	13.0
35.67	11.0
35.685	17.0
35.7	12.0
35.715	10.0
35.729	16.0
35.744	18.0
35.759	14.0
35.774	20.0
35.789	15.0
35.804	18.0
35.818	14.0
35.833	19.0
35.848	15.0
35.863	14.0
35.878	19.0
35.892	16.0
35.907	12.0
35.922	14.0
35.937	8.0
35.952	13.0
35.966	15.0
35.981	14.0
35.996	9.0
36.011	8.0
36.026	15.0
36.04	12.0
36.055	7.0
36.07	14.0
36.085	11.0
36.1	9.0
36.114	13.0
36.129	10.0
36.144	9.0
36.159	12.0
36.174	9.0
36.189	9.0
36.203	9.0
36.218	12.0
36.233	8.0
36.248	10.0
36.263	11.0
36.277	4.0
36.292	6.0
36.307	13.0
36.322	12.0
36.337	8.0
36.351	9.0
36.366	12.0
36.381	5.0
36.396	7.0
36.411	12.0
36.426	5.0
36.44	7.0
36.455	7.0
36.47	7.0
36.485	7.0
36.5	12.0
36.514	10.0
36.529	10.0
36.544	4.0
36.559	12.0
36.574	11.0
36.589	7.0
36.603	3.0
36.618	9.0
36.633	3.0
36.648	8.0
36.663	7.0
36.677	7.0
36.692	8.0
36.707	7.0
36.722	5.0
36.737	8.0
36.752	12.0
36.766	8.0
36.781	4.0
36.796	5.0
36.811	5.0
36.826	4.0
36.841	13.0
36.855	11.0
36.87	8.0
36.885	7.0
36.9	6.0
36.915	9.0
36.93	11.0
36.944	8.0
36.959	10.0
36.974	10.0
36.989	11.0
37.004	9.0
37.019	8.0
37.033	10.0
37.048	15.0
37.063	11.0
37.078	17.0
37.093	28.0
37.108	19.0
37.123	28.0
37.137	27.0
37.152	34.0
37.167	17.0
37.182	26.0
37.197	45.0
37.212	24.0
37.226	24.0
37.241	17.0
37.256	17.0
37.271	25.0
37.286	13.0
37.301	16.0
37.316	19.0
37.331	15.0
37.345	14.0
37.36	13.0
37.375	19.0
37.39	19.0
37.405	15.0
37.42	19.0
37.435	20.0
37.45	11.0
37.464	12.0
37.479	10.0
37.494	11.0
37.509	8.0
37.524	14.0
37.539	6.0
37.554	10.0
37.569	13.0
37.583	7.0
37.598	7.0
37.613	8.0
37.628	3.0
37.643	5.0
37.658	10.0
37.673	4.0
37.688	12.0
37.703	8.0
37.718	8.0
37.733	4.0
37.747	9.0
37.762	5.0
37.777	12.0
37.792	7.0
37.807	9.0
37.822	8.0
37.837	9.0
37.852	8.0
37.867	7.0
37.882	6.0
37.897	9.0
37.912	2.0
37.927	8.0
37.941	5.0
37.956	10.0
37.971	7.0
37.986	10.0
38.001	7.0
38.016	7.0
38.031	6.0
38.046	11.0
38.061	11.0
38.076	6.0
38.091	7.0
38.106	5.0
38.121	11.0
38.136	6.0
38.151	6.0
38.166	5.0
38.181	11.0
38.196	11.0
38.211	4.0
38.226	5.0
38.241	7.0
38.256	1.0
38.271	12.0
38.285	8.0
38.3	3.0
38.315	7.0
38.33	10.0
38.345	4.0
38.36	7.0
38.375	3.0
38.39	6.0
38.405	4.0
38.42	6.0
38.435	7.0
38.45	4.0
38.465	6.0
38.48	9.0
38.495	10.0
38.51	8.0
38.525	3.0
38.54	12.0
38.555	5.0
38.57	6.0
38.585	6.0
38.6	6.0
38.615	2.0
38.63	8.0
38.645	6.0
38.66	9.0
38.675	4.0
38.69	8.0
38.705	7.0
38.72	6.0
38.735	5.0
38.75	7.0
38.765	6.0
38.78	9.0
38.795	4.0
38.81	5.0
38.825	10.0
38.84	9.0
38.855	4.0
38.87	7.0
38.885	5.0
38.9	6.0
38.915	3.0
38.93	6.0
38.945	7.0
38.96	4.0
38.975	8.0
38.99	3.0
39.005	5.0
39.02	5.0
39.035	6.0
39.05	8.0
39.065	6.0
39.08	4.0
39.095	7.0
39.11	7.0
39.125	5.0
39.14	8.0
39.155	7.0
39.17	4.0
39.185	2.0
39.2	11.0
39.215	5.0
39.23	4.0
39.245	6.0
39.26	2.0
39.275	6.0
39.29	2.0
39.305	5.0
39.32	5.0
39.335	7.0
39.35	5.0
39.365	10.0
39.38	8.0
39.395	3.0
39.409	3.0
39.424	6.0
39.439	5.0
39.454	4.0
39.469	8.0
39.484	4.0
39.499	4.0
39.514	7.0
39.529	7.0
39.544	4.0
39.559	9.0
39.574	4.0
39.589	4.0
39.604	10.0
39.619	5.0
39.634	6.0
39.649	7.0
39.664	6.0
39.678	10.0
39.693	3.0
39.708	2.0
39.723	9.0
39.738	7.0
39.753	10.0
39.768	13.0
39.783	4.0
39.798	10.0
39.813	5.0
39.827	10.0
39.842	5.0
39.857	8.0
39.872	14.0
39.887	6.0
39.902	5.0
39.917	8.0
39.932	8.0
39.947	6.0
39.961	8.0
39.976	11.0
39.991	5.0
40.006	6.0
40.021	13.0
40.036	8.0
40.051	7.0
40.065	3.0
40.08	7.0
40.095	7.0
40.11	7.0
40.125	6.0
40.14	11.0
40.154	9.0
40.169	8.0
40.184	8.0
40.199	6.0
40.214	6.0
40.228	6.0
40.243	5.0
40.258	4.0
40.273	6.0
40.288	5.0
40.302	6.0
40.317	3.0
40.332	10.0
40.347	3.0
40.362	3.0
40.376	5.0
40.391	5.0
40.406	3.0
40.421	8.0
40.436	2.0
40.45	5.0
40.465	6.0
40.48	5.0
40.495	5.0
40.509	7.0
40.524	6.0
40.539	3.0
40.554	5.0
40.568	5.0
40.583	9.0
40.598	9.0
40.613	6.0
40.627	7.0
40.642	4.0
40.657	5.0
40.672	4.0
40.686	2.0
40.701	4.0
40.716	6.0
40.731	1.0
40.745	4.0
40.76	2.0
40.775	6.0
40.79	8.0
40.804	8.0
40.819	8.0
40.834	9.0
40.849	3.0
40.863	5.0
40.878	2.0
40.893	4.0
40.907	8.0
40.922	8.0
40.937	10.0
40.952	9.0
40.966	7.0
40.981	8.0
40.996	5.0
41.011	7.0
41.025	12.0
41.04	15.0
41.055	12.0
41.069	17.0
41.084	10.0
41.099	13.0
41.114	15.0
41.128	19.0
41.143	19.0
41.158	23.0
41.173	23.0
41.187	15.0
41.202	21.0
41.217	21.0
41.231	17.0
41.246	12.0
41.261	15.0
41.276	13.0
41.29	17.0
41.305	6.0
41.32	13.0
41.335	19.0
41.349	8.0
41.364	11.0
41.379	11.0
41.393	11.0
41.408	18.0
41.423	11.0
41.438	12.0
41.452	11.0
41.467	7.0
41.482	11.0
41.497	8.0
41.511	10.0
41.526	8.0
41.541	9.0
41.556	5.0
41.57	9.0
41.585	3.0
41.6	9.0
41.615	6.0
41.629	6.0
41.644	6.0
41.659	5.0
41.674	6.0
41.688	7.0
41.703	4.0
41.718	7.0
41.733	3.0
41.747	4.0
41.762	3.0
41.777	7.0
41.792	8.0
41.806	0.0
41.821	5.0
41.836	4.0
41.851	6.0
41.866	5.0
41.88	6.0
41.895	6.0
41.91	10.0
41.925	11.0
41.939	2.0
41.954	6.0
41.969	5.0
41.984	6.0
41.999	6.0
42.013	6.0
42.028	1.0
42.043	7.0
42.058	5.0
42.073	3.0
42.088	8.0
42.102	4.0
42.117	4.0
42.132	5.0
42.147	5.0
42.162	6.0
42.176	3.0
42.191	7.0
42.206	4.0
42.221	2.0
42.236	9.0
42.251	6.0
42.266	9.0
42.28	11.0
42.295	11.0
42.31	7.0
42.325	9.0
42.34	13.0
42.355	13.0
42.369	9.0
42.384	16.0
42.399	18.0
42.414	14.0
42.429	12.0
42.444	13.0
42.459	10.0
42.474	12.0
42.488	9.0
42.503	11.0
42.518	8.0
42.533	10.0
42.548	14.0
42.563	8.0
42.578	10.0
42.593	9.0
42.608	15.0
42.622	5.0
42.637	17.0
42.652	15.0
42.667	7.0
42.682	10.0
42.697	11.0
42.712	9.0
42.727	5.0
42.742	10.0
42.757	6.0
42.772	5.0
42.786	3.0
42.801	6.0
42.816	8.0
42.831	6.0
42.846	4.0
42.861	1.0
42.876	4.0
42.891	2.0
42.906	8.0
42.921	12.0
42.936	3.0
42.951	0.0
42.966	4.0
42.981	6.0
42.996	5.0
43.011	9.0
43.025	3.0
43.04	7.0
43.055	6.0
43.07	9.0
43.085	3.0
43.1	4.0
43.115	7.0
43.13	5.0
43.145	4.0
43.16	5.0
43.175	6.0
43.19	2.0
43.205	3.0
43.22	6.0
43.235	6.0
43.25	5.0
43.265	4.0
43.28	7.0
43.295	4.0
43.31	8.0
43.325	5.0
43.34	5.0
43.355	6.0
43.37	4.0
43.385	2.0
43.4	2.0
43.415	6.0
43.43	4.0
43.445	3.0
43.46	5.0
43.475	5.0
43.49	6.0
43.505	7.0
43.52	8.0
43.535	6.0
43.55	5.0
43.565	10.0
43.58	5.0
43.595	9.0
43.61	13.0
43.625	7.0
43.64	5.0
43.655	5.0
43.67	7.0
43.685	10.0
43.7	4.0
43.715	6.0
43.73	6.0
43.745	8.0
43.76	5.0
43.775	7.0
43.79	4.0
43.805	7.0
43.82	8.0
43.835	12.0
43.85	8.0
43.865	9.0
43.88	5.0
43.895	12.0
43.91	8.0
43.925	5.0
43.94	6.0
43.955	9.0
43.97	6.0
43.985	7.0
44.0	4.0
44.015	8.0
44.03	1.0
44.045	3.0
44.061	4.0
44.076	6.0
44.091	5.0
44.106	3.0
44.121	5.0
44.136	1.0
44.151	8.0
44.166	8.0
44.181	5.0
44.196	3.0
44.211	8.0
44.226	2.0
44.241	8.0
44.256	11.0
44.271	4.0
44.286	5.0
44.301	4.0
44.316	4.0
44.331	3.0
44.346	7.0
44.361	5.0
44.377	4.0
44.392	1.0
44.407	6.0
44.422	1.0
44.437	7.0
44.452	3.0
44.467	9.0
44.482	9.0
44.497	1.0
44.512	7.0
44.527	5.0
44.542	2.0
44.557	4.0
44.572	4.0
44.587	8.0
44.602	5.0
44.617	5.0
44.632	7.0
44.647	8.0
44.663	4.0
44.678	8.0
44.693	2.0
44.708	9.0
44.723	8.0
44.738	5.0
44.753	9.0
44.768	10.0
44.783	11.0
44.798	9.0
44.813	14.0
44.828	9.0
44.843	5.0
44.858	8.0
44.873	13.0
44.888	5.0
44.903	7.0
44.918	7.0
44.933	11.0
44.948	11.0
44.964	6.0
44.979	5.0
44.994	6.0
45.009	6.0
45.024	7.0
45.039	8.0
45.054	5.0
45.069	13.0
45.084	6.0
45.099	6.0
45.114	6.0
45.129	8.0
45.144	8.0
45.159	6.0
45.174	9.0
45.189	7.0
45.204	11.0
45.219	9.0
45.234	10.0
45.249	5.0
45.264	8.0
45.279	2.0
45.294	6.0
45.309	2.0
45.324	8.0
45.339	4.0
45.354	7.0
45.369	1.0
45.384	3.0
45.399	7.0
45.414	2.0
45.429	7.0
45.444	10.0
45.459	7.0
45.474	4.0
45.489	2.0
45.504	5.0
45.519	10.0
45.534	5.0
45.549	2.0
45.564	6.0
45.579	4.0
45.594	8.0
45.609	6.0
45.624	5.0
45.639	3.0
45.654	7.0
45.669	7.0
45.684	8.0
45.699	8.0
45.714	3.0
45.729	4.0
45.744	0.0
45.759	4.0
45.774	3.0
45.789	7.0
45.804	2.0
45.819	3.0
45.834	8.0
45.849	7.0
45.864	3.0
45.879	7.0
45.894	13.0
45.909	13.0
45.924	13.0
45.939	15.0
45.954	20.0
45.969	10.0
45.984	10.0
45.998	16.0
46.013	21.0
46.028	17.0
46.043	9.0
46.058	15.0
46.073	10.0
46.088	8.0
46.103	11.0
46.118	9.0
46.133	6.0
46.148	5.0
46.163	9.0
46.178	4.0
46.192	13.0
46.207	12.0
46.222	11.0
46.237	14.0
46.252	12.0
46.267	10.0
46.282	7.0
46.297	16.0
46.312	12.0
46.327	8.0
46.341	10.0
46.356	3.0
46.371	7.0
46.386	9.0
46.401	2.0
46.416	4.0
46.431	4.0
46.446	6.0
46.46	2.0
46.475	6.0
46.49	2.0
46.505	5.0
46.52	5.0
46.535	6.0
46.55	6.0
46.564	7.0
46.579	2.0
46.594	4.0
46.609	4.0
46.624	5.0
46.639	3.0
46.654	7.0
46.668	6.0
46.683	5.0
46.698	7.0
46.713	3.0
46.728	9.0
46.743	5.0
46.758	5.0
46.772	7.0
46.787	6.0
46.802	2.0
46.817	6.0
46.832	5.0
46.847	10.0
46.861	4.0
46.876	5.0
46.891	2.0
46.906	6.0
46.921	2.0
46.936	3.0
46.95	2.0
46.965	7.0
46.98	3.0
46.995	9.0
47.01	8.0
47.025	6.0
47.039	15.0
47.054	5.0
47.069	3.0
47.084	9.0
47.099	8.0
47.113	9.0
47.128	6.0
47.143	13.0
47.158	5.0
47.173	4.0
47.188	7.0
47.202	9.0
47.217	11.0
47.232	5.0
47.247	4.0
47.262	3.0
47.277	4.0
47.291	5.0
47.306	8.0
47.321	3.0
47.336	4.0
47.351	7.0
47.365	5.0
47.38	5.0
47.395	6.0
47.41	6.0
47.425	4.0
47.44	9.0
47.454	0.0
47.469	7.0
47.484	3.0
47.499	5.0
47.514	10.0
47.528	9.0
47.543	8.0
47.558	8.0
47.573	7.0
47.588	2.0
47.603	3.0
47.617	2.0
47.632	7.0
47.647	6.0
47.662	3.0
47.677	4.0
47.691	5.0
47.706	4.0
47.721	7.0
47.736	5.0
47.751	6.0
47.766	3.0
47.78	4.0
47.795	4.0
47.81	6.0
47.825	7.0
47.84	6.0
47.855	6.0
47.869	3.0
47.884	5.0
47.899	1.0
47.914	6.0
47.929	5.0
47.944	6.0
47.958	3.0
47.973	4.0
47.988	4.0
48.003	4.0
48.018	5.0
48.033	5.0
48.047	4.0
48.062	2.0
48.077	5.0
48.092	3.0
48.107	1.0
48.122	4.0
48.137	4.0
48.151	4.0
48.166	4.0
48.181	9.0
48.196	5.0
48.211	8.0
48.226	5.0
48.241	6.0
48.255	3.0
48.27	4.0
48.285	6.0
48.3	3.0
48.315	5.0
48.33	5.0
48.345	7.0
48.359	6.0
48.374	3.0
48.389	7.0
48.404	2.0
48.419	5.0
48.434	5.0
48.449	4.0
48.464	4.0
48.478	8.0
48.493	5.0
48.508	3.0
48.523	7.0
48.538	5.0
48.553	5.0
48.568	4.0
48.583	8.0
48.597	10.0
48.612	3.0
48.627	3.0
48.642	7.0
48.657	5.0
48.672	3.0
48.687	2.0
48.702	3.0
48.717	3.0
48.731	6.0
48.746	1.0
48.761	4.0
48.776	4.0
48.791	5.0
48.806	6.0
48.821	2.0
48.836	6.0
48.851	6.0
48.866	1.0
48.88	3.0
48.895	5.0
48.91	6.0
48.925	3.0
48.94	5.0
48.955	4.0
48.97	6.0
48.985	7.0
49.0	1.0
49.015	4.0
49.03	8.0
49.044	6.0
49.059	6.0
49.074	4.0
49.089	3.0
49.104	6.0
49.119	5.0
49.134	6.0
49.149	5.0
49.164	2.0
49.179	3.0
49.194	6.0
49.209	4.0
49.224	6.0
49.238	6.0
49.253	8.0
49.268	8.0
49.283	4.0
49.298	8.0
49.313	9.0
49.328	7.0
49.343	4.0
49.358	5.0
49.373	7.0
49.388	8.0
49.403	5.0
49.418	6.0
49.433	5.0
49.448	5.0
49.463	0.0
49.478	2.0
49.492	4.0
49.507	3.0
49.522	4.0
49.537	7.0
49.552	2.0
49.567	5.0
49.582	8.0
49.597	7.0
49.612	1.0
49.627	4.0
49.642	6.0
49.657	8.0
49.672	3.0
49.687	4.0
49.702	5.0
49.717	8.0
49.732	10.0
49.747	5.0
49.762	8.0
49.777	5.0
49.792	3.0
49.807	6.0
49.822	6.0
49.837	8.0
49.852	4.0
49.867	5.0
49.882	1.0
49.897	1.0
49.912	5.0
49.927	4.0
49.942	4.0
49.957	2.0
49.971	6.0
49.986	3.0
50.001	4.0
50.016	5.0
50.031	8.0
50.046	0.0
50.061	5.0
50.076	7.0
50.091	5.0
50.106	1.0
50.121	1.0
50.136	5.0
50.151	6.0
50.166	3.0
50.181	4.0
50.196	3.0
50.211	10.0
50.226	5.0
50.241	2.0
50.256	6.0
50.271	3.0
50.286	3.0
50.302	3.0
50.317	3.0
50.332	7.0
50.347	5.0
50.362	8.0
50.377	6.0
50.392	5.0
50.407	6.0
50.422	9.0
50.437	5.0
50.452	8.0
50.467	6.0
50.482	8.0
50.497	14.0
50.512	8.0
50.527	6.0
50.542	5.0
50.557	3.0
50.572	5.0
50.587	4.0
50.602	10.0
50.617	2.0
50.632	6.0
50.647	10.0
50.662	3.0
50.677	5.0
50.692	9.0
50.707	7.0
50.722	6.0
50.737	8.0
50.752	6.0
50.767	9.0
50.782	8.0
50.797	6.0
50.812	3.0
50.828	8.0
50.843	7.0
50.858	3.0
50.873	6.0
50.888	4.0
50.903	6.0
50.918	3.0
50.933	5.0
50.948	3.0
50.963	2.0
50.978	3.0
50.993	3.0
51.008	10.0
51.023	6.0
51.038	2.0
51.053	10.0
51.068	3.0
51.083	6.0
51.098	2.0
51.114	3.0
51.129	6.0
51.144	9.0
51.159	11.0
51.174	4.0
51.189	4.0
51.204	13.0
51.219	3.0
51.234	5.0
51.249	10.0
51.264	6.0
51.279	3.0
51.294	4.0
51.309	9.0
51.324	7.0
51.34	9.0
51.355	5.0
51.37	2.0
51.385	9.0
51.4	10.0
51.415	8.0
51.43	10.0
51.445	10.0
51.46	9.0
51.475	11.0
51.49	13.0
51.505	12.0
51.52	21.0
51.535	19.0
51.551	17.0
51.566	13.0
51.581	14.0
51.596	8.0
51.611	11.0
51.626	5.0
51.641	11.0
51.656	11.0
51.671	5.0
51.686	6.0
51.701	6.0
51.716	8.0
51.732	10.0
51.747	8.0
51.762	8.0
51.777	8.0
51.792	7.0
51.807	7.0
51.822	4.0
51.837	18.0
51.852	7.0
51.867	9.0
51.882	9.0
51.898	6.0
51.913	10.0
51.928	5.0
51.943	8.0
51.958	6.0
51.973	5.0
51.988	4.0
52.003	5.0
52.018	6.0
52.033	3.0
52.048	6.0
52.064	5.0
52.079	5.0
52.094	5.0
52.109	3.0
52.124	7.0
52.139	5.0
52.154	3.0
52.169	2.0
52.184	5.0
52.199	3.0
52.215	4.0
52.23	1.0
52.245	9.0
52.26	3.0
52.275	2.0
52.29	3.0
52.305	2.0
52.32	4.0
52.335	6.0
52.35	6.0
52.366	3.0
52.381	4.0
52.396	6.0
52.411	4.0
52.426	8.0
52.441	7.0
52.456	8.0
52.471	4.0
52.486	10.0
52.502	5.0
52.517	5.0
52.532	9.0
52.547	4.0
52.562	10.0
52.577	10.0
52.592	8.0
52.607	9.0
52.622	12.0
52.637	6.0
52.653	13.0
52.668	13.0
52.683	4.0
52.698	6.0
52.713	9.0
52.728	4.0
52.743	3.0
52.758	8.0
52.774	4.0
52.789	3.0
52.804	7.0
52.819	5.0
52.834	6.0
52.849	4.0
52.864	9.0
52.879	11.0
52.894	12.0
52.91	9.0
52.925	12.0
52.94	10.0
52.955	6.0
52.97	3.0
52.985	5.0
53.0	3.0
53.015	4.0
53.031	6.0
53.046	3.0
53.061	7.0
53.076	2.0
53.091	4.0
53.106	3.0
53.121	3.0
53.136	3.0
53.152	2.0
53.167	4.0
53.182	5.0
53.197	4.0
53.212	4.0
53.227	5.0
53.242	5.0
53.257	3.0
53.273	4.0
53.288	4.0
53.303	4.0
53.318	7.0
53.333	2.0
53.348	4.0
53.363	7.0
53.379	4.0
53.394	7.0
53.409	5.0
53.424	4.0
53.439	6.0
53.454	5.0
53.469	6.0
53.484	6.0
53.5	1.0
53.515	2.0
53.53	4.0
53.545	6.0
53.56	9.0
53.575	6.0
53.59	5.0
53.606	3.0
53.621	3.0
53.636	3.0
53.651	3.0
53.666	4.0
53.681	1.0
53.696	5.0
53.712	7.0
53.727	4.0
53.742	1.0
53.757	6.0
53.772	11.0
53.787	4.0
53.802	4.0
53.818	5.0
53.833	5.0
53.848	4.0
53.863	2.0
53.878	4.0
53.893	8.0
53.909	3.0
53.924	3.0
53.939	7.0
53.954	8.0
53.969	3.0
53.984	4.0
53.999	7.0
54.015	5.0
54.03	2.0
54.045	3.0
54.06	7.0
54.075	5.0
54.09	5.0
54.106	4.0
54.121	8.0
54.136	2.0
54.151	6.0
54.166	4.0
54.181	3.0
54.197	6.0
54.212	7.0
54.227	2.0
54.242	3.0
54.257	4.0
54.272	4.0
54.288	7.0
54.303	5.0
54.318	4.0
54.333	5.0
54.348	8.0
54.363	7.0
54.379	5.0
54.394	2.0
54.409	6.0
54.424	5.0
54.439	4.0
54.454	5.0
54.47	3.0
54.485	8.0
54.5	6.0
54.515	9.0
54.53	5.0
54.545	5.0
54.561	4.0
54.576	9.0
54.591	10.0
54.606	9.0
54.621	9.0
54.636	10.0
54.652	13.0
54.667	13.0
54.682	10.0
54.697	14.0
54.712	12.0
54.727	11.0
54.743	5.0
54.758	9.0
54.773	4.0
54.788	10.0
54.803	8.0
54.819	9.0
54.834	5.0
54.849	2.0
54.864	5.0
54.879	5.0
54.894	6.0
54.91	8.0
54.925	8.0
54.94	12.0
54.955	3.0
54.97	6.0
54.985	10.0
55.001	8.0
55.016	5.0
55.031	6.0
55.046	9.0
55.061	6.0
55.077	5.0
55.092	3.0
55.107	8.0
55.122	7.0
55.137	6.0
55.152	7.0
55.168	5.0
55.183	6.0
55.198	4.0
55.213	3.0
55.228	4.0
55.243	6.0
55.259	4.0
55.274	3.0
55.289	5.0
55.304	2.0
55.319	2.0
55.335	3.0
55.35	6.0
55.365	5.0
55.38	4.0
55.395	7.0
55.41	6.0
55.426	5.0
55.441	7.0
55.456	6.0
55.471	1.0
55.486	3.0
55.501	5.0
55.517	3.0
55.532	4.0
55.547	6.0
55.562	2.0
55.577	5.0
55.592	5.0
55.608	9.0
55.623	4.0
55.638	4.0
55.653	11.0
55.668	10.0
55.683	10.0
55.699	6.0
55.714	13.0
55.729	4.0
55.744	9.0
55.759	8.0
55.774	2.0
55.79	7.0
55.805	3.0
55.82	1.0
55.835	3.0
55.85	4.0
55.865	5.0
55.881	4.0
55.896	2.0
55.911	3.0
55.926	4.0
55.941	2.0
55.956	3.0
55.972	7.0
55.987	6.0
56.002	5.0
56.017	9.0
56.032	6.0
56.047	6.0
56.063	10.0
56.078	6.0
56.093	5.0
56.108	2.0
56.123	6.0
56.138	7.0
56.154	4.0
56.169	3.0
56.184	6.0
56.199	4.0
56.214	4.0
56.229	6.0
56.244	2.0
56.26	5.0
56.275	2.0
56.29	3.0
56.305	6.0
56.32	5.0
56.335	1.0
56.351	4.0
56.366	1.0
56.381	0.0
56.396	1.0
56.411	5.0
56.426	5.0
56.441	1.0
56.457	2.0
56.472	3.0
56.487	4.0
56.502	6.0
56.517	5.0
56.532	3.0
56.547	2.0
56.563	6.0
56.578	5.0
56.593	8.0
56.608	3.0
56.623	5.0
56.638	5.0
56.653	4.0
56.668	5.0
56.684	4.0
56.699	2.0
56.714	6.0
56.729	3.0
56.744	2.0
56.759	2.0
56.774	3.0
56.79	5.0
56.805	4.0
56.82	3.0
56.835	10.0
56.85	4.0
56.865	6.0
56.88	3.0
56.895	3.0
56.911	1.0
56.926	4.0
56.941	5.0
56.956	4.0
56.971	5.0
56.986	3.0
57.001	1.0
57.016	4.0
57.031	3.0
57.047	8.0
57.062	3.0
57.077	3.0
57.092	4.0
57.107	3.0
57.122	7.0
57.137	4.0
57.152	8.0
57.167	5.0
57.183	2.0
57.198	5.0
57.213	2.0
57.228	4.0
57.243	5.0
57.258	5.0
57.273	9.0
57.288	4.0
57.303	5.0
57.318	2.0
57.334	7.0
57.349	2.0
57.364	4.0
57.379	6.0
57.394	3.0
57.409	4.0
57.424	2.0
57.439	6.0
57.454	3.0
57.469	7.0
57.484	6.0
57.5	6.0
57.515	10.0
57.53	5.0
57.545	2.0
57.56	2.0
57.575	5.0
57.59	6.0
57.605	5.0
57.62	7.0
57.635	2.0
57.65	6.0
57.665	4.0
57.68	5.0
57.696	5.0
57.711	6.0
57.726	2.0
57.741	4.0
57.756	3.0
57.771	5.0
57.786	3.0
57.801	5.0
57.816	7.0
57.831	6.0
57.846	7.0
57.861	3.0
57.876	7.0
57.891	6.0
57.906	6.0
57.921	6.0
57.937	6.0
57.952	3.0
57.967	3.0
57.982	5.0
57.997	5.0
58.012	5.0
58.027	5.0
58.042	4.0
58.057	4.0
58.072	5.0
58.087	5.0
58.102	9.0
58.117	5.0
58.132	5.0
58.147	1.0
58.162	1.0
58.177	6.0
58.192	6.0
58.207	6.0
58.222	3.0
58.237	5.0
58.252	6.0
58.267	4.0
58.282	1.0
58.297	6.0
58.312	7.0
58.327	2.0
58.342	4.0
58.357	4.0
58.372	6.0
58.387	2.0
58.402	1.0
58.418	4.0
58.433	2.0
58.448	1.0
58.463	5.0
58.478	6.0
58.493	7.0
58.508	3.0
58.523	9.0
58.538	2.0
58.553	5.0
58.568	3.0
58.583	3.0
58.598	11.0
58.613	8.0
58.628	5.0
58.643	5.0
58.658	10.0
58.673	7.0
58.688	7.0
58.703	8.0
58.718	5.0
58.733	3.0
58.748	4.0
58.763	9.0
58.778	6.0
58.793	6.0
58.808	7.0
58.823	4.0
58.838	6.0
58.853	3.0
58.868	3.0
58.883	2.0
58.898	6.0
58.913	3.0
58.928	5.0
58.942	3.0
58.957	5.0
58.972	6.0
58.987	3.0
59.002	5.0
59.017	3.0
59.032	7.0
59.047	10.0
59.062	1.0
59.077	5.0
59.092	4.0
59.107	2.0
59.122	3.0
59.137	8.0
59.152	1.0
59.167	5.0
59.182	4.0
59.197	3.0
59.212	2.0
59.227	6.0
59.242	5.0
59.257	3.0
59.272	1.0
59.287	7.0
59.302	3.0
59.317	5.0
59.332	4.0
59.347	2.0
59.362	2.0
59.377	1.0
59.392	6.0
59.407	2.0
59.422	1.0
59.437	3.0
59.452	6.0
59.467	3.0
59.482	3.0
59.497	1.0
59.512	3.0
59.527	4.0
59.542	4.0
59.557	7.0
59.572	7.0
59.587	13.0
59.602	7.0
59.617	3.0
59.632	2.0
59.647	7.0
59.661	9.0
59.676	5.0
59.691	6.0
59.706	3.0
59.721	3.0
59.736	6.0
59.751	9.0
59.766	4.0
59.781	3.0
59.796	5.0
59.811	2.0
59.826	5.0
59.841	5.0
59.856	7.0
59.871	5.0
59.886	3.0
59.901	3.0
59.916	6.0
59.931	3.0
59.946	8.0
59.961	5.0
59.976	6.0
59.991	4.0
60.006	11.0
60.021	7.0
60.036	4.0
60.051	11.0
60.066	4.0
60.081	8.0
60.096	2.0
60.111	2.0
60.126	3.0
60.141	6.0
60.156	2.0
60.171	4.0
60.186	2.0
60.201	4.0
60.216	4.0
60.231	4.0
60.246	7.0
60.261	7.0
60.276	5.0
60.291	4.0
60.306	6.0
60.321	2.0
60.336	6.0
60.35	6.0
60.365	4.0
60.38	7.0
60.395	4.0
60.41	6.0
60.425	3.0
60.44	6.0
60.455	7.0
60.47	6.0
60.485	10.0
60.5	11.0
60.515	6.0
60.53	7.0
60.545	7.0
60.56	7.0
60.575	11.0
60.59	4.0
60.605	5.0
60.62	5.0
60.635	6.0
60.65	4.0
60.665	5.0
60.68	7.0
60.695	5.0
60.71	1.0
60.725	5.0
60.74	2.0
60.755	8.0
60.77	4.0
60.785	4.0
60.8	2.0
60.815	6.0
60.83	2.0
60.845	4.0
60.86	2.0
60.875	5.0
60.89	3.0
60.905	12.0
60.92	9.0
60.935	3.0
60.95	6.0
60.965	4.0
60.98	4.0
60.995	6.0
61.01	6.0
61.025	6.0
61.04	4.0
61.055	2.0
61.07	5.0
61.085	1.0
61.1	4.0
61.115	5.0
61.13	4.0
61.145	2.0
61.16	4.0
61.175	4.0
61.191	4.0
61.206	1.0
61.221	2.0
61.236	7.0
61.251	3.0
61.266	2.0
61.281	5.0
61.296	5.0
61.311	3.0
61.326	6.0
61.341	4.0
61.356	6.0
61.371	2.0
61.386	4.0
61.401	6.0
61.416	2.0
61.431	4.0
61.446	1.0
61.461	2.0
61.476	2.0
61.491	2.0
61.506	2.0
61.521	3.0
61.536	4.0
61.551	8.0
61.566	5.0
61.581	5.0
61.596	3.0
61.611	6.0
61.626	3.0
61.641	11.0
61.656	3.0
61.672	6.0
61.687	4.0
61.702	6.0
61.717	2.0
61.732	4.0
61.747	7.0
61.762	6.0
61.777	5.0
61.792	5.0
61.807	5.0
61.822	3.0
61.837	7.0
61.852	2.0
61.867	6.0
61.882	10.0
61.897	2.0
61.912	4.0
61.927	4.0
61.943	6.0
61.958	3.0
61.973	2.0
61.988	7.0
62.003	4.0
62.018	6.0
62.033	3.0
62.048	1.0
62.063	2.0
62.078	7.0
62.093	2.0
62.108	7.0
62.123	5.0
62.138	0.0
62.153	5.0
62.169	2.0
62.184	1.0
62.199	8.0
62.214	4.0
62.229	5.0
62.244	2.0
62.259	4.0
62.274	4.0
62.289	7.0
62.304	2.0
62.319	8.0
62.335	1.0
62.35	6.0
62.365	1.0
62.38	2.0
62.395	3.0
62.41	8.0
62.425	7.0
62.44	2.0
62.455	3.0
62.47	7.0
62.485	8.0
62.501	6.0
62.516	2.0
62.531	3.0
62.546	3.0
62.561	5.0
62.576	5.0
62.591	3.0
62.606	1.0
62.621	2.0
62.636	3.0
62.652	0.0
62.667	3.0
62.682	1.0
62.697	4.0
62.712	2.0
62.727	6.0
62.742	4.0
62.757	4.0
62.772	3.0
62.787	2.0
62.803	4.0
62.818	4.0
62.833	6.0
62.848	3.0
62.863	4.0
62.878	5.0
62.893	3.0
62.908	2.0
62.923	3.0
62.939	4.0
62.954	3.0
62.969	4.0
62.984	3.0
62.999	1.0
63.014	3.0
63.029	2.0
63.044	6.0
63.059	6.0
63.074	3.0
63.09	5.0
63.105	3.0
63.12	3.0
63.135	1.0
63.15	2.0
63.165	2.0
63.18	4.0
63.195	3.0
63.21	4.0
63.226	6.0
63.241	4.0
63.256	3.0
63.271	3.0
63.286	3.0
63.301	4.0
63.316	4.0
63.331	6.0
63.346	10.0
63.362	7.0
63.377	7.0
63.392	3.0
63.407	5.0
63.422	11.0
63.437	8.0
63.452	6.0
63.467	2.0
63.482	6.0
63.497	4.0
63.513	5.0
63.528	5.0
63.543	8.0
63.558	5.0
63.573	3.0
63.588	2.0
63.603	6.0
63.618	1.0
63.633	6.0
63.648	3.0
63.664	4.0
63.679	2.0
63.694	4.0
63.709	4.0
63.724	5.0
63.739	1.0
63.754	4.0
63.769	1.0
63.784	7.0
63.799	6.0
63.814	4.0
63.83	8.0
63.845	8.0
63.86	6.0
63.875	7.0
63.89	5.0
63.905	4.0
63.92	4.0
63.935	5.0
63.95	4.0
63.965	5.0
63.98	5.0
63.996	5.0
64.011	4.0
64.026	3.0
64.041	4.0
64.056	3.0
64.071	2.0
64.086	6.0
64.101	7.0
64.116	2.0
64.131	4.0
64.146	2.0
64.161	2.0
64.176	3.0
64.191	5.0
64.207	1.0
64.222	5.0
64.237	4.0
64.252	2.0
64.267	2.0
64.282	3.0
64.297	5.0
64.312	2.0
64.327	4.0
64.342	4.0
64.357	5.0
64.372	6.0
64.387	3.0
64.402	0.0
64.417	4.0
64.433	3.0
64.448	1.0
64.463	4.0
64.478	3.0
64.493	6.0
64.508	4.0
64.523	7.0
64.538	2.0
64.553	1.0
64.568	6.0
64.583	0.0
64.598	3.0
64.613	5.0
64.628	2.0
64.643	9.0
64.658	2.0
64.673	1.0
64.688	2.0
64.703	5.0
64.718	7.0
64.734	2.0
64.749	0.0
64.764	2.0
64.779	1.0
64.794	1.0
64.809	7.0
64.824	5.0
64.839	6.0
64.854	5.0
64.869	1.0
64.884	3.0
64.899	3.0
64.914	1.0
64.929	5.0
64.944	5.0
64.959	5.0
64.974	7.0
64.989	11.0
65.004	6.0
65.019	3.0
65.034	2.0
65.049	1.0
65.064	5.0
65.079	4.0
65.094	6.0
65.109	5.0
65.125	1.0
65.14	4.0
65.155	3.0
65.17	4.0
65.185	2.0
65.2	4.0
65.215	8.0
65.23	5.0
65.245	6.0
65.26	4.0
65.275	1.0
65.29	5.0
65.305	6.0
65.32	6.0
65.335	2.0
65.35	1.0
65.365	4.0
65.38	2.0
65.395	2.0
65.41	1.0
65.425	8.0
65.44	3.0
65.455	4.0
65.47	2.0
65.485	1.0
65.5	2.0
65.515	4.0
65.53	5.0
65.545	1.0
65.56	3.0
65.575	2.0
65.59	4.0
65.605	7.0
65.62	7.0
65.635	2.0
65.65	4.0
65.666	5.0
65.681	4.0
65.696	7.0
65.711	5.0
65.726	1.0
65.741	4.0
65.756	5.0
65.771	8.0
65.786	5.0
65.801	4.0
65.816	7.0
65.831	6.0
65.846	4.0
65.861	3.0
65.876	2.0
65.891	1.0
65.906	3.0
65.921	3.0
65.936	5.0
65.951	6.0
65.966	6.0
65.981	5.0
65.996	3.0
66.011	5.0
66.026	1.0
66.041	4.0
66.056	2.0
66.071	3.0
66.086	2.0
66.101	2.0
66.116	4.0
66.131	9.0
66.146	6.0
66.161	7.0
66.176	8.0
66.191	7.0
66.206	7.0
66.221	11.0
66.236	9.0
66.251	8.0
66.266	9.0
66.281	5.0
66.296	4.0
66.311	6.0
66.327	6.0
66.342	5.0
66.357	1.0
66.372	5.0
66.387	5.0
66.402	2.0
66.417	5.0
66.432	4.0
66.447	4.0
66.462	2.0
66.477	3.0
66.492	1.0
66.507	2.0
66.522	3.0
66.537	2.0
66.552	3.0
66.567	4.0
66.582	4.0
66.597	6.0
66.612	7.0
66.627	6.0
66.642	6.0
66.657	5.0
66.672	4.0
66.687	6.0
66.702	7.0
66.717	6.0
66.732	1.0
66.747	9.0
66.762	4.0
66.777	2.0
66.792	5.0
66.807	4.0
66.822	3.0
66.837	2.0
66.853	3.0
66.868	2.0
66.883	6.0
66.898	1.0
66.913	4.0
66.928	1.0
66.943	1.0
66.958	4.0
66.973	2.0
66.988	1.0
67.003	3.0
67.018	4.0
67.033	3.0
67.048	4.0
67.063	5.0
67.078	4.0
67.093	6.0
67.108	4.0
67.123	3.0
67.138	6.0
67.153	4.0
67.168	4.0
67.183	2.0
67.198	3.0
67.214	1.0
67.229	4.0
67.244	5.0
67.259	3.0
67.274	5.0
67.289	0.0
67.304	7.0
67.319	5.0
67.334	3.0
67.349	1.0
67.364	5.0
67.379	3.0
67.394	4.0
67.409	3.0
67.424	1.0
67.439	7.0
67.454	1.0
67.469	7.0
67.484	3.0
67.5	5.0
67.515	3.0
67.53	2.0
67.545	6.0
67.56	7.0
67.575	5.0
67.59	8.0
67.605	8.0
67.62	3.0
67.635	1.0
67.65	2.0
67.665	5.0
67.68	2.0
67.695	6.0
67.71	2.0
67.726	3.0
67.741	3.0
67.756	6.0
67.771	3.0
67.786	2.0
67.801	5.0
67.816	4.0
67.831	8.0
67.846	3.0
67.861	2.0
67.876	1.0
67.891	4.0
67.906	6.0
67.922	9.0
67.937	2.0
67.952	5.0
67.967	4.0
67.982	4.0
67.997	4.0
68.012	4.0
68.027	5.0
68.042	5.0
68.057	5.0
68.072	4.0
68.087	2.0
68.103	3.0
68.118	2.0
68.133	5.0
68.148	2.0
68.163	5.0
68.178	4.0
68.193	4.0
68.208	3.0
68.223	5.0
68.238	4.0
68.254	2.0
68.269	7.0
68.284	3.0
68.299	3.0
68.314	1.0
68.329	2.0
68.344	3.0
68.359	1.0
68.374	1.0
68.389	4.0
68.405	4.0
68.42	8.0
68.435	3.0
68.45	5.0
68.465	5.0
68.48	5.0
68.495	4.0
68.51	8.0
68.525	0.0
68.54	4.0
68.556	5.0
68.571	5.0
68.586	5.0
68.601	3.0
68.616	3.0
68.631	1.0
68.646	3.0
68.661	4.0
68.676	2.0
68.691	5.0
68.707	1.0
68.722	1.0
68.737	1.0
68.752	3.0
68.767	5.0
68.782	1.0
68.797	2.0
68.812	2.0
68.827	2.0
68.842	1.0
68.857	5.0
68.873	4.0
68.888	6.0
68.903	5.0
68.918	1.0
68.933	7.0
68.948	1.0
68.963	3.0
68.978	5.0
68.993	4.0
69.008	2.0
69.023	4.0
69.038	1.0
69.054	2.0
69.069	5.0
69.084	1.0
69.099	2.0
69.114	2.0
69.129	5.0
69.144	5.0
69.159	3.0
69.174	3.0
69.189	2.0
69.204	3.0
69.219	1.0
69.234	5.0
69.249	4.0
69.264	3.0
69.279	5.0
69.295	5.0
69.31	5.0
69.325	8.0
69.34	3.0
69.355	6.0
69.37	2.0
69.385	2.0
69.4	4.0
69.415	4.0
69.43	3.0
69.445	2.0
69.46	3.0
69.475	2.0
69.49	6.0
69.505	3.0
69.52	0.0
69.535	4.0
69.55	3.0
69.565	4.0
69.58	1.0
69.595	2.0
69.61	1.0
69.625	0.0
69.64	4.0
69.655	2.0
69.67	1.0
69.685	4.0
69.7	4.0
69.715	3.0
69.73	9.0
69.745	7.0
69.76	4.0
69.775	12.0
69.79	5.0
69.805	7.0
69.82	8.0
69.835	7.0
69.85	2.0
69.865	5.0
69.88	2.0
69.895	4.0
69.909	5.0
69.924	3.0
69.939	3.0
69.954	3.0
69.969	2.0
69.984	4.0
69.999	4.0
70.014	3.0
70.029	0.0
70.044	1.0
70.059	7.0
70.074	4.0
70.088	6.0
70.103	2.0
70.118	4.0
70.133	4.0
70.148	5.0
70.163	5.0
70.178	7.0
70.193	1.0
70.208	2.0
70.222	7.0
70.237	9.0
70.252	4.0
70.267	7.0
70.282	4.0
70.297	7.0
70.312	2.0
70.327	9.0
70.341	5.0
70.356	6.0
70.371	4.0
70.386	4.0
70.401	6.0
70.416	3.0
70.43	2.0
70.445	1.0
70.46	7.0
70.475	3.0
70.49	1.0
70.505	5.0
70.519	4.0
70.534	3.0
70.549	5.0
70.564	4.0
70.579	5.0
70.594	2.0
70.608	5.0
70.623	3.0
70.638	6.0
70.653	2.0
70.668	4.0
70.683	5.0
70.697	5.0
70.712	6.0
70.727	2.0
70.742	4.0
70.757	6.0
70.771	2.0
70.786	2.0
70.801	5.0
70.816	3.0
70.831	2.0
70.845	4.0
70.86	1.0
70.875	1.0
70.89	3.0
70.905	5.0
70.92	4.0
70.934	6.0
70.949	2.0
70.964	3.0
70.979	4.0
70.994	1.0
71.008	5.0
71.023	2.0
71.038	1.0
71.053	0.0
71.068	7.0
71.082	2.0
71.097	3.0
71.112	5.0
71.127	6.0
71.142	6.0
71.156	12.0
71.171	4.0
71.186	2.0
71.201	1.0
71.216	8.0
71.231	2.0
71.245	3.0
71.26	1.0
71.275	5.0
71.29	3.0
71.305	2.0
71.319	3.0
71.334	3.0
71.349	2.0
71.364	4.0
71.379	4.0
71.394	4.0
71.408	5.0
71.423	2.0
71.438	1.0
71.453	2.0
71.468	2.0
71.483	5.0
71.497	2.0
71.512	2.0
71.527	0.0
71.542	3.0
71.557	2.0
71.572	4.0
71.586	2.0
71.601	2.0
71.616	7.0
71.631	2.0
71.646	4.0
71.661	3.0
71.676	5.0
71.69	1.0
71.705	1.0
71.72	6.0
71.735	2.0
71.75	1.0
71.765	1.0
71.78	4.0
71.795	2.0
71.81	4.0
71.824	3.0
71.839	3.0
71.854	0.0
71.869	5.0
71.884	3.0
71.899	5.0
71.914	4.0
71.929	2.0
71.944	3.0
71.959	2.0
71.974	4.0
71.988	3.0
72.003	1.0
72.018	2.0
72.033	4.0
72.048	3.0
72.063	2.0
72.078	2.0
72.093	2.0
72.108	3.0
72.123	5.0
72.138	1.0
72.153	2.0
72.168	2.0
72.183	4.0
72.198	2.0
72.213	1.0
72.228	2.0
72.243	7.0
72.258	1.0
72.273	5.0
72.288	3.0
72.303	7.0
72.318	5.0
72.333	2.0
72.348	1.0
72.363	2.0
72.378	4.0
72.393	3.0
72.408	3.0
72.423	4.0
72.438	3.0
72.453	1.0
72.468	3.0
72.483	8.0
72.498	6.0
72.513	3.0
72.528	1.0
72.543	3.0
72.558	6.0
72.573	2.0
72.588	1.0
72.603	4.0
72.618	4.0
72.633	1.0
72.649	2.0
72.664	4.0
72.679	4.0
72.694	4.0
72.709	2.0
72.724	4.0
72.739	2.0
72.754	3.0
72.769	2.0
72.784	3.0
72.799	4.0
72.814	2.0
72.829	3.0
72.845	7.0
72.86	0.0
72.875	4.0
72.89	2.0
72.905	4.0
72.92	7.0
72.935	2.0
72.95	3.0
72.965	7.0
72.98	1.0
72.996	4.0
73.011	1.0
73.026	3.0
73.041	3.0
73.056	5.0
73.071	4.0
73.086	5.0
73.101	3.0
73.117	1.0
73.132	2.0
73.147	3.0
73.162	1.0
73.177	1.0
73.192	2.0
73.207	2.0
73.222	3.0
73.238	1.0
73.253	1.0
73.268	3.0
73.283	5.0
73.298	9.0
73.313	3.0
73.328	4.0
73.343	1.0
73.359	4.0
73.374	4.0
73.389	5.0
73.404	7.0
73.419	1.0
73.434	4.0
73.449	5.0
73.465	4.0
73.48	3.0
73.495	4.0
73.51	0.0
73.525	7.0
73.54	1.0
73.556	1.0
73.571	3.0
73.586	1.0
73.601	2.0
73.616	2.0
73.631	3.0
73.646	5.0
73.662	6.0
73.677	1.0
73.692	2.0
73.707	2.0
73.722	5.0
73.737	1.0
73.752	4.0
73.768	6.0
73.783	1.0
73.798	6.0
73.813	3.0
73.828	3.0
73.843	6.0
73.859	2.0
73.874	4.0
73.889	4.0
73.904	7.0
73.919	3.0
73.934	8.0
73.949	5.0
73.965	5.0
73.98	3.0
73.995	7.0
74.01	6.0
74.025	3.0
74.04	7.0
74.056	5.0
74.071	6.0
74.086	4.0
74.101	1.0
74.116	6.0
74.131	3.0
74.146	5.0
74.162	5.0
74.177	2.0
74.192	5.0
74.207	3.0
74.222	6.0
74.237	4.0
74.252	5.0
74.268	4.0
74.283	3.0
74.298	3.0
74.313	2.0
74.328	2.0
74.343	2.0
74.358	2.0
74.374	5.0
74.389	2.0
74.404	2.0
74.419	2.0
74.434	2.0
74.449	3.0
74.464	2.0
74.48	1.0
74.495	3.0
74.51	2.0
74.525	3.0
74.54	4.0
74.555	1.0
74.57	3.0
74.586	6.0
74.601	2.0
74.616	8.0
74.631	6.0
74.646	3.0
74.661	2.0
74.676	4.0
74.691	0.0
74.707	6.0
74.722	5.0
74.737	1.0
74.752	10.0
74.767	6.0
74.782	2.0
74.797	5.0
74.813	10.0
74.828	1.0
74.843	8.0
74.858	6.0
74.873	1.0
74.888	2.0
74.903	1.0
74.918	3.0
74.934	4.0
74.949	3.0
74.964	3.0
74.979	4.0
74.994	3.0
75.009	4.0
75.024	7.0
75.04	4.0
75.055	3.0
75.07	3.0
75.085	7.0
75.1	6.0
75.115	4.0
75.13	4.0
75.145	5.0
75.161	4.0
75.176	3.0
75.191	4.0
75.206	1.0
75.221	5.0
75.236	5.0
75.251	0.0
75.266	5.0
75.282	3.0
75.297	2.0
75.312	4.0
75.327	0.0
75.342	1.0
75.357	3.0
75.372	4.0
75.387	4.0
75.403	2.0
75.418	5.0
75.433	3.0
75.448	1.0
75.463	1.0
75.478	1.0
75.493	3.0
75.509	3.0
75.524	6.0
75.539	6.0
75.554	4.0
75.569	4.0
75.584	2.0
75.599	5.0
75.614	0.0
75.63	3.0
75.645	3.0
75.66	3.0
75.675	2.0
75.69	3.0
75.705	5.0
75.72	3.0
75.735	3.0
75.751	4.0
75.766	4.0
75.781	0.0
75.796	2.0
75.811	3.0
75.826	2.0
75.841	2.0
75.856	3.0
75.872	4.0
75.887	5.0
75.902	2.0
75.917	7.0
75.932	3.0
75.947	4.0
75.962	5.0
75.977	5.0
75.993	4.0
76.008	5.0
76.023	1.0
76.038	4.0
76.053	2.0
76.068	5.0
76.083	3.0
76.098	3.0
76.114	1.0
76.129	1.0
76.144	1.0
76.159	3.0
76.174	5.0
76.189	4.0
76.204	2.0
76.22	2.0
76.235	1.0
76.25	3.0
76.265	3.0
76.28	5.0
76.295	3.0
76.31	1.0
76.325	2.0
76.341	4.0
76.356	4.0
76.371	3.0
76.386	2.0
76.401	3.0
76.416	5.0
76.431	6.0
76.446	4.0
76.462	1.0
76.477	5.0
76.492	3.0
76.507	3.0
76.522	5.0
76.537	5.0
76.552	5.0
76.567	2.0
76.583	2.0
76.598	3.0
76.613	3.0
76.628	2.0
76.643	5.0
76.658	2.0
76.673	3.0
76.688	5.0
76.704	6.0
76.719	4.0
76.734	2.0
76.749	3.0
76.764	4.0
76.779	3.0
76.794	4.0
76.809	4.0
76.824	1.0
76.84	5.0
76.855	3.0
76.87	2.0
76.885	3.0
76.9	2.0
76.915	4.0
76.93	3.0
76.945	0.0
76.96	3.0
76.976	3.0
76.991	3.0
77.006	0.0
77.021	4.0
77.036	4.0
77.051	1.0
77.066	3.0
77.081	3.0
77.096	2.0
77.112	5.0
77.127	2.0
77.142	4.0
77.157	2.0
77.172	1.0
77.187	2.0
77.202	4.0
77.217	0.0
77.232	6.0
77.247	3.0
77.263	5.0
77.278	2.0
77.293	0.0
77.308	1.0
77.323	6.0
77.338	4.0
77.353	8.0
77.368	1.0
77.383	2.0
77.398	4.0
77.413	3.0
77.428	3.0
77.444	4.0
77.459	5.0
77.474	1.0
77.489	7.0
77.504	3.0
77.519	4.0
77.534	5.0
77.549	4.0
77.564	5.0
77.579	4.0
77.594	5.0
77.609	3.0
77.624	3.0
77.64	5.0
77.655	7.0
77.67	7.0
77.685	3.0
77.7	4.0
77.715	1.0
77.73	4.0
77.745	5.0
77.76	5.0
77.775	2.0
77.79	8.0
77.805	1.0
77.82	0.0
77.835	6.0
77.85	2.0
77.865	1.0
77.88	2.0
77.895	6.0
77.91	3.0
77.926	5.0
77.941	5.0
77.956	3.0
77.971	5.0
77.986	2.0
78.001	5.0
78.016	6.0
78.031	3.0
78.046	7.0
78.061	4.0
78.076	6.0
78.091	4.0
78.106	1.0
78.121	3.0
78.136	6.0
78.151	6.0
78.166	2.0
78.181	3.0
78.196	6.0
78.211	2.0
78.226	4.0
78.241	6.0
78.256	4.0
78.271	1.0
78.286	3.0
78.301	0.0
78.316	1.0
78.331	3.0
78.346	2.0
78.361	3.0
78.376	2.0
78.391	3.0
78.406	2.0
78.421	3.0
78.436	1.0
78.451	3.0
78.466	4.0
78.481	1.0
78.496	4.0
78.511	1.0
78.526	4.0
78.541	0.0
78.556	2.0
78.571	3.0
78.586	0.0
78.601	1.0
78.616	3.0
78.631	1.0
78.646	4.0
78.661	1.0
78.676	3.0
78.691	5.0
78.706	2.0
78.721	3.0
78.736	1.0
78.751	3.0
78.766	4.0
78.781	3.0
78.796	2.0
78.811	5.0
78.826	4.0
78.841	2.0
78.856	4.0
78.871	2.0
78.885	3.0
78.9	3.0
78.915	2.0
78.93	4.0
78.945	3.0
78.96	2.0
78.975	3.0
78.99	3.0
79.005	3.0
79.02	3.0
79.035	3.0
79.05	2.0
79.065	3.0
79.08	2.0
79.095	2.0
79.11	3.0
79.125	4.0
79.14	4.0
79.155	1.0
79.17	3.0
79.185	4.0
79.2	3.0
79.215	4.0
79.23	5.0
79.245	6.0
79.26	2.0
79.275	4.0
79.29	1.0
79.304	3.0
79.319	5.0
79.334	2.0
79.349	3.0
79.364	0.0
79.379	2.0
79.394	7.0
79.409	1.0
79.424	1.0
79.439	3.0
79.454	4.0
79.469	5.0
79.484	1.0
79.499	4.0
79.514	2.0
79.529	2.0
79.544	4.0
79.559	0.0
79.574	5.0
79.589	3.0
79.604	1.0
79.619	1.0
79.634	1.0
79.649	1.0
79.664	2.0
79.679	6.0
79.693	2.0
79.708	3.0
79.723	5.0
79.738	3.0
79.753	2.0
79.768	3.0
79.783	6.0
79.798	3.0
79.813	4.0
79.828	7.0
79.843	6.0
79.858	2.0
79.873	2.0
79.888	4.0
79.903	7.0
79.918	2.0
79.933	1.0
79.948	2.0
79.963	1.0
79.978	4.0
79.993	4.0
80.008	6.0
80.023	4.0
80.038	4.0
80.053	2.0
80.068	4.0
80.083	4.0
80.098	2.0
80.113	3.0
80.128	3.0
80.143	4.0
80.158	4.0
80.173	5.0
80.188	8.0
80.202	2.0
80.217	6.0
80.232	4.0
80.247	4.0
80.262	4.0
80.277	4.0
80.292	3.0
80.307	6.0
80.322	6.0
80.337	1.0
80.352	5.0
80.367	3.0
80.382	1.0
80.397	2.0
80.412	5.0
80.427	3.0
80.442	3.0
80.457	1.0
80.472	7.0
80.487	1.0
80.502	5.0
80.517	2.0
80.532	3.0
80.547	1.0
80.562	2.0
80.577	3.0
80.592	3.0
80.607	1.0
80.622	4.0
80.637	3.0
80.652	6.0
80.667	0.0
80.682	3.0
80.697	5.0
80.712	3.0
80.727	3.0
80.742	2.0
80.757	7.0
80.772	3.0
80.787	3.0
80.802	5.0
80.817	2.0
80.832	3.0
80.847	3.0
80.862	6.0
80.877	1.0
80.892	3.0
80.907	5.0
80.922	2.0
80.937	3.0
80.952	1.0
80.967	2.0
80.982	1.0
80.997	4.0
81.012	5.0
81.027	3.0
81.042	5.0
81.057	7.0
81.072	2.0
81.087	4.0
81.101	6.0
81.116	4.0
81.131	3.0
81.146	2.0
81.161	3.0
81.176	1.0
81.191	4.0
81.206	2.0
81.221	3.0
81.236	0.0
81.251	1.0
81.266	2.0
81.281	1.0
81.296	4.0
81.311	2.0
81.326	1.0
81.341	3.0
81.356	3.0
81.371	2.0
81.386	2.0
81.401	1.0
81.416	3.0
81.431	4.0
81.446	4.0
81.461	3.0
81.476	6.0
81.491	4.0
81.506	2.0
81.521	2.0
81.536	1.0
81.55	7.0
81.565	4.0
81.58	0.0
81.595	1.0
81.61	2.0
81.625	0.0
81.64	6.0
81.655	5.0
81.67	2.0
81.685	3.0
81.7	2.0
81.715	1.0
81.73	3.0
81.745	2.0
81.76	4.0
81.775	3.0
81.79	4.0
81.805	1.0
81.819	3.0
81.834	2.0
81.849	4.0
81.864	5.0
81.879	2.0
81.894	2.0
81.909	5.0
81.924	7.0
81.939	3.0
81.954	3.0
81.969	3.0
81.984	7.0
81.999	0.0
82.013	2.0
82.028	2.0
82.043	2.0
82.058	3.0
82.073	1.0
82.088	3.0
82.103	3.0
82.118	3.0
82.133	5.0
82.148	2.0
82.163	3.0
82.177	2.0
82.192	3.0
82.207	1.0
82.222	1.0
82.237	1.0
82.252	1.0
82.267	2.0
82.282	4.0
82.297	3.0
82.312	0.0
82.326	0.0
82.341	1.0
82.356	5.0
82.371	0.0
82.386	4.0
82.401	3.0
82.416	5.0
82.431	4.0
82.445	4.0
82.46	4.0
82.475	4.0
82.49	2.0
82.505	2.0
82.52	4.0
82.535	3.0
82.55	2.0
82.565	0.0
82.579	1.0
82.594	2.0
82.609	2.0
82.624	6.0
82.639	3.0
82.654	5.0
82.669	3.0
82.684	2.0
82.698	1.0
82.713	7.0
82.728	1.0
82.743	3.0
82.758	5.0
82.773	3.0
82.788	1.0
82.803	2.0
82.817	1.0
82.832	3.0
82.847	3.0
82.862	6.0
82.877	5.0
82.892	1.0
82.907	3.0
82.922	1.0
82.937	5.0
82.951	3.0
82.966	3.0
82.981	3.0
82.996	2.0
83.011	8.0
83.026	0.0
83.041	2.0
83.056	1.0
83.07	2.0
83.085	1.0
83.1	2.0
83.115	4.0
83.13	2.0
83.145	2.0
83.16	2.0
83.175	2.0
83.19	3.0
83.204	5.0
83.219	2.0
83.234	4.0
83.249	1.0
83.264	0.0
83.279	1.0
83.294	0.0
83.309	2.0
83.324	5.0
83.339	2.0
83.353	3.0
83.368	1.0
83.383	5.0
83.398	3.0
83.413	4.0
83.428	4.0
83.443	5.0
83.458	2.0
83.473	2.0
83.488	7.0
83.503	2.0
83.517	5.0
83.532	7.0
83.547	2.0
83.562	7.0
83.577	5.0
83.592	2.0
83.607	3.0
83.622	4.0
83.637	1.0
83.652	3.0
83.667	4.0
83.682	1.0
83.697	6.0
83.712	0.0
83.727	3.0
83.741	4.0
83.756	5.0
83.771	2.0
83.786	1.0
83.801	3.0
83.816	2.0
83.831	3.0
83.846	5.0
83.861	2.0
83.876	4.0
83.891	2.0
83.906	3.0
83.921	4.0
83.936	3.0
83.951	1.0
83.966	3.0
83.981	2.0
83.996	5.0
84.011	3.0
84.026	5.0
84.041	7.0
84.056	2.0
84.071	3.0
84.086	3.0
84.101	4.0
84.116	3.0
84.131	4.0
84.146	2.0
84.161	4.0
84.176	2.0
84.191	3.0
84.206	3.0
84.221	3.0
84.236	3.0
84.251	2.0
84.266	3.0
84.281	2.0
84.296	4.0
84.311	3.0
84.326	2.0
84.341	2.0
84.356	8.0
84.371	7.0
84.386	4.0
84.401	4.0
84.416	5.0
84.431	3.0
84.446	3.0
84.461	2.0
84.476	2.0
84.492	5.0
84.507	1.0
84.522	2.0
84.537	2.0
84.552	3.0
84.567	2.0
84.582	3.0
84.597	3.0
84.612	5.0
84.627	2.0
84.642	3.0
84.657	2.0
84.672	2.0
84.687	7.0
84.702	3.0
84.717	3.0
84.733	3.0
84.748	8.0
84.763	3.0
84.778	1.0
84.793	2.0
84.808	2.0
84.823	4.0
84.838	2.0
84.853	1.0
84.868	3.0
84.883	0.0
84.898	2.0
84.913	1.0
84.929	2.0
84.944	4.0
84.959	3.0
84.974	2.0
84.989	5.0
85.004	4.0
85.019	4.0
85.034	2.0
85.049	1.0
85.064	5.0
85.079	2.0
85.094	3.0
85.11	4.0
85.125	1.0
85.14	2.0
85.155	6.0
85.17	4.0
85.185	4.0
85.2	3.0
85.215	3.0
85.23	6.0
85.245	4.0
85.26	5.0
85.276	4.0
85.291	1.0
85.306	4.0
85.321	0.0
85.336	3.0
85.351	2.0
85.366	3.0
85.381	4.0
85.396	1.0
85.411	2.0
85.426	5.0
85.441	2.0
85.457	3.0
85.472	3.0
85.487	2.0
85.502	2.0
85.517	9.0
85.532	4.0
85.547	1.0
85.562	3.0
85.577	6.0
85.592	1.0
85.607	2.0
85.622	3.0
85.637	5.0
85.653	1.0
85.668	1.0
85.683	3.0
85.698	2.0
85.713	2.0
85.728	3.0
85.743	2.0
85.758	0.0
85.773	5.0
85.788	3.0
85.803	3.0
85.818	3.0
85.833	0.0
85.848	2.0
85.863	5.0
85.879	4.0
85.894	0.0
85.909	4.0
85.924	4.0
85.939	2.0
85.954	1.0
85.969	2.0
85.984	6.0
85.999	3.0
86.014	4.0
86.029	1.0
86.044	1.0
86.059	3.0
86.074	1.0
86.089	4.0
86.104	2.0
86.119	2.0
86.134	3.0
86.149	5.0
86.164	5.0
86.179	1.0
86.194	2.0
86.209	2.0
86.224	2.0
86.239	2.0
86.254	3.0
86.269	1.0
86.284	5.0
86.299	4.0
86.314	5.0
86.33	4.0
86.345	5.0
86.36	6.0
86.375	3.0
86.39	2.0
86.405	2.0
86.42	3.0
86.435	2.0
86.45	1.0
86.465	0.0
86.48	1.0
86.495	4.0
86.51	1.0
86.525	0.0
86.54	2.0
86.555	3.0
86.57	3.0
86.585	3.0
86.6	2.0
86.615	4.0
86.63	2.0
86.645	1.0
86.659	1.0
86.674	3.0
86.689	3.0
86.704	5.0
86.719	4.0
86.734	1.0
86.749	5.0
86.764	2.0
86.779	1.0
86.794	3.0
86.809	5.0
86.824	3.0
86.839	5.0
86.854	6.0
86.869	8.0
86.884	4.0
86.899	1.0
86.914	4.0
86.929	3.0
86.944	2.0
86.959	7.0
86.974	2.0
86.989	4.0
87.004	2.0
87.019	4.0
87.034	2.0
87.049	3.0
87.064	1.0
87.079	3.0
87.094	3.0
87.109	3.0
87.124	2.0
87.139	5.0
87.154	3.0
87.169	5.0
87.184	3.0
87.199	3.0
87.214	7.0
87.229	4.0
87.244	1.0
87.259	7.0
87.274	2.0
87.289	0.0
87.304	1.0
87.319	2.0
87.334	2.0
87.349	2.0
87.364	4.0
87.379	3.0
87.394	1.0
87.409	3.0
87.424	3.0
87.438	2.0
87.453	4.0
87.468	3.0
87.483	1.0
87.498	1.0
87.513	3.0
87.528	3.0
87.543	5.0
87.558	4.0
87.573	1.0
87.588	3.0
87.603	4.0
87.618	3.0
87.633	3.0
87.648	1.0
87.663	6.0
87.678	2.0
87.693	3.0
87.708	7.0
87.723	8.0
87.738	5.0
87.753	8.0
87.768	4.0
87.783	3.0
87.798	2.0
87.813	2.0
87.828	4.0
87.843	7.0
87.858	4.0
87.873	4.0
87.888	1.0
87.903	1.0
87.918	3.0
87.933	3.0
87.948	3.0
87.963	7.0
87.978	1.0
87.993	2.0
88.008	4.0
88.023	4.0
88.038	6.0
88.053	2.0
88.068	4.0
88.083	2.0
88.098	3.0
88.113	2.0
88.128	2.0
88.143	4.0
88.158	1.0
88.174	6.0
88.189	0.0
88.204	1.0
88.219	4.0
88.234	1.0
88.249	3.0
88.264	1.0
88.279	1.0
88.294	6.0
88.309	2.0
88.324	6.0
88.339	5.0
88.354	2.0
88.369	7.0
88.384	3.0
88.399	6.0
88.414	8.0
88.429	3.0
88.444	5.0
88.459	4.0
88.474	4.0
88.489	4.0
88.504	2.0
88.519	3.0
88.534	6.0
88.549	5.0
88.564	2.0
88.58	3.0
88.595	2.0
88.61	1.0
88.625	2.0
88.64	6.0
88.655	4.0
88.67	4.0
88.685	2.0
88.7	4.0
88.715	2.0
88.73	2.0
88.745	2.0
88.76	7.0
88.775	1.0
88.79	5.0
88.805	6.0
88.82	2.0
88.835	3.0
88.85	4.0
88.865	5.0
88.88	1.0
88.895	3.0
88.911	2.0
88.926	1.0
88.941	2.0
88.956	2.0
88.971	4.0
88.986	3.0
89.001	2.0
89.016	3.0
89.031	7.0
89.046	4.0
89.061	1.0
89.076	1.0
89.091	5.0
89.106	2.0
89.121	1.0
89.136	3.0
89.151	3.0
89.166	1.0
89.181	1.0
89.196	3.0
89.211	4.0
89.227	1.0
89.242	4.0
89.257	3.0
89.272	4.0
89.287	6.0
89.302	1.0
89.317	0.0
89.332	2.0
89.347	2.0
89.362	4.0
89.377	1.0
89.392	1.0
89.407	4.0
89.422	1.0
89.437	2.0
89.452	4.0
89.467	5.0
89.482	4.0
89.497	3.0
89.512	4.0
89.527	4.0
89.542	0.0
89.557	3.0
89.572	2.0
89.587	3.0
89.602	2.0
89.617	3.0
89.632	4.0
89.647	4.0
89.662	4.0
89.677	6.0
89.693	2.0
89.708	3.0
89.723	5.0
89.738	4.0
89.753	6.0
89.768	6.0
89.783	1.0
89.798	3.0
89.813	3.0
89.828	5.0
89.843	2.0
89.858	5.0
89.873	4.0
89.888	6.0
89.903	3.0
89.918	2.0
89.933	4.0
89.948	1.0
89.963	2.0
89.978	1.0
89.993	4.0
90.008	7.0
90.023	1.0
90.038	1.0
90.053	6.0
90.068	5.0
90.083	4.0
90.097	3.0
90.112	1.0
90.127	3.0
90.142	6.0
90.157	6.0
90.172	3.0
90.187	5.0
90.202	2.0
90.217	4.0
90.232	6.0
90.247	2.0
90.262	0.0
90.277	5.0
90.292	6.0
90.307	5.0
90.322	3.0
90.337	6.0
90.352	5.0
90.367	5.0
90.382	3.0
90.397	3.0
90.412	3.0
90.427	5.0
90.442	1.0
90.457	2.0
90.472	0.0
90.487	6.0
90.501	1.0
90.516	2.0
90.531	3.0
90.546	4.0
90.561	3.0
90.576	4.0
90.591	2.0
90.606	3.0
90.621	4.0
90.636	2.0
90.651	2.0
90.666	0.0
90.681	0.0
90.696	0.0
90.711	2.0
90.726	4.0
90.741	3.0
90.755	2.0
90.77	2.0
90.785	3.0
90.8	2.0
90.815	4.0
90.83	3.0
90.845	3.0
90.86	2.0
90.875	3.0
90.89	0.0
90.905	1.0
90.92	6.0
90.935	2.0
90.95	4.0
90.965	4.0
90.979	0.0
90.994	4.0
91.009	2.0
91.024	2.0
91.039	3.0
91.054	3.0
91.069	5.0
91.084	1.0
91.099	3.0
91.114	6.0
91.129	6.0
91.144	5.0
91.159	2.0
91.174	4.0
91.188	1.0
91.203	3.0
91.218	3.0
91.233	3.0
91.248	1.0
91.263	5.0
91.278	4.0
91.293	2.0
91.308	4.0
91.323	2.0
91.338	3.0
91.353	0.0
91.368	6.0
91.383	3.0
91.398	0.0
91.412	3.0
91.427	4.0
91.442	4.0
91.457	1.0
91.472	1.0
91.487	2.0
91.502	6.0
91.517	2.0
91.532	0.0
91.547	3.0
91.562	2.0
91.577	1.0
91.592	2.0
91.607	3.0
91.622	4.0
91.637	2.0
91.652	2.0
91.666	3.0
91.681	2.0
91.696	6.0
91.711	1.0
91.726	0.0
91.741	2.0
91.756	3.0
91.771	4.0
91.786	5.0
91.801	4.0
91.816	2.0
91.831	3.0
91.846	3.0
91.861	4.0
91.876	5.0
91.891	3.0
91.906	3.0
91.921	1.0
91.936	1.0
91.951	4.0
91.966	1.0
91.981	0.0
91.995	1.0
92.01	0.0
92.025	1.0
92.04	3.0
92.055	2.0
92.07	4.0
92.085	4.0
92.1	2.0
92.115	3.0
92.13	1.0
92.145	4.0
92.16	4.0
92.175	2.0
92.19	1.0
92.205	2.0
92.22	7.0
92.235	1.0
92.25	3.0
92.265	2.0
92.28	0.0
92.295	7.0
92.31	3.0
92.325	2.0
92.34	3.0
92.355	5.0
92.37	4.0
92.385	3.0
92.4	2.0
92.415	1.0
92.43	5.0
92.445	2.0
92.46	2.0
92.475	1.0
92.49	3.0
92.505	3.0
92.52	3.0
92.535	1.0
92.55	2.0
92.565	4.0
92.58	5.0
92.595	1.0
92.61	5.0
92.625	3.0
92.64	5.0
92.655	4.0
92.67	3.0
92.685	3.0
92.7	5.0
92.715	2.0
92.73	2.0
92.745	2.0
92.76	3.0
92.775	4.0
92.79	4.0
92.805	1.0
92.82	5.0
92.835	2.0
92.85	1.0
92.865	1.0
92.88	2.0
92.895	2.0
92.91	3.0
92.925	6.0
92.94	6.0
92.955	3.0
92.97	5.0
92.985	3.0
93.0	2.0
93.015	5.0
93.03	2.0
93.045	0.0
93.06	3.0
93.075	2.0
93.09	4.0
93.105	3.0
93.12	0.0
93.135	2.0
93.15	2.0
93.165	3.0
93.18	2.0
93.195	3.0
93.21	1.0
93.225	2.0
93.24	4.0
93.255	9.0
93.27	3.0
93.285	3.0
93.3	5.0
93.315	2.0
93.33	2.0
93.345	4.0
93.36	4.0
93.375	4.0
93.39	0.0
93.405	4.0
93.42	3.0
93.435	1.0
93.45	1.0
93.465	1.0
93.48	3.0
93.495	3.0
93.51	4.0
93.525	4.0
93.54	4.0
93.555	3.0
93.57	1.0
93.585	6.0
93.6	5.0
93.615	5.0
93.63	4.0
93.645	6.0
93.66	6.0
93.675	0.0
93.69	3.0
93.705	1.0
93.72	5.0
93.735	2.0
93.75	2.0
93.765	7.0
93.78	5.0
93.795	6.0
93.81	7.0
93.824	3.0
93.839	6.0
93.854	4.0
93.869	1.0
93.884	5.0
93.899	3.0
93.914	3.0
93.929	2.0
93.944	1.0
93.959	1.0
93.974	1.0
93.989	5.0
94.004	3.0
94.019	2.0
94.034	7.0
94.049	3.0
94.064	2.0
94.079	2.0
94.094	5.0
94.108	4.0
94.123	1.0
94.138	5.0
94.153	1.0
94.168	3.0
94.183	3.0
94.198	4.0
94.213	3.0
94.228	1.0
94.243	5.0
94.258	4.0
94.273	2.0
94.288	4.0
94.302	4.0
94.317	3.0
94.332	5.0
94.347	9.0
94.362	3.0
94.377	7.0
94.392	4.0
94.407	3.0
94.422	7.0
94.437	5.0
94.452	8.0
94.466	5.0
94.481	3.0
94.496	4.0
94.511	5.0
94.526	8.0
94.541	2.0
94.556	6.0
94.571	4.0
94.586	3.0
94.601	5.0
94.615	1.0
94.63	4.0
94.645	0.0
94.66	3.0
94.675	2.0
94.69	5.0
94.705	1.0
94.72	5.0
94.735	0.0
94.749	3.0
94.764	1.0
94.779	2.0
94.794	2.0
94.809	4.0
94.824	0.0
94.839	3.0
94.854	4.0
94.868	3.0
94.883	6.0
94.898	3.0
94.913	4.0
94.928	1.0
94.943	2.0
94.958	7.0
94.973	2.0
94.987	2.0
95.002	6.0
95.017	1.0
95.032	3.0
95.047	4.0
95.062	0.0
95.077	9.0
95.092	1.0
95.106	2.0
95.121	2.0
95.136	5.0
95.151	3.0
95.166	2.0
95.181	5.0
95.196	4.0
95.211	3.0
95.226	4.0
95.24	3.0
95.255	3.0
95.27	8.0
95.285	2.0
95.3	6.0
95.315	5.0
95.33	1.0
95.345	2.0
95.359	5.0
95.374	1.0
95.389	5.0
95.404	2.0
95.419	3.0
95.434	3.0
95.449	5.0
95.464	5.0
95.478	3.0
95.493	5.0
95.508	1.0
95.523	2.0
95.538	5.0
95.553	1.0
95.568	3.0
95.583	3.0
95.597	2.0
95.612	5.0
95.627	3.0
95.642	5.0
95.657	2.0
95.672	4.0
95.687	4.0
95.702	2.0
95.717	2.0
95.731	2.0
95.746	3.0
95.761	2.0
95.776	5.0
95.791	2.0
95.806	4.0
95.821	4.0
95.836	3.0
95.851	3.0
95.866	6.0
95.88	4.0
95.895	2.0
95.91	1.0
95.925	9.0
95.94	7.0
95.955	4.0
95.97	1.0
95.985	4.0
96.0	5.0
96.015	6.0
96.029	6.0
96.044	3.0
96.059	2.0
96.074	4.0
96.089	1.0
96.104	2.0
96.119	2.0
96.134	2.0
96.149	2.0
96.164	1.0
96.179	5.0
96.194	1.0
96.208	4.0
96.223	1.0
96.238	3.0
96.253	3.0
96.268	2.0
96.283	2.0
96.298	3.0
96.313	8.0
96.328	2.0
96.343	2.0
96.358	4.0
96.373	2.0
96.388	1.0
96.403	5.0
96.417	7.0
96.432	1.0
96.447	2.0
96.462	3.0
96.477	5.0
96.492	4.0
96.507	4.0
96.522	1.0
96.537	3.0
96.552	3.0
96.567	5.0
96.582	2.0
96.597	4.0
96.612	6.0
96.627	3.0
96.642	2.0
96.656	1.0
96.671	2.0
96.686	4.0
96.701	4.0
96.716	3.0
96.731	3.0
96.746	2.0
96.761	7.0
96.776	7.0
96.791	4.0
96.806	2.0
96.821	4.0
96.836	2.0
96.851	2.0
96.866	4.0
96.881	2.0
96.896	5.0
96.911	1.0
96.926	4.0
96.94	5.0
96.955	6.0
96.97	9.0
96.985	2.0
97.0	4.0
97.015	4.0
97.03	4.0
97.045	2.0
97.06	1.0
97.075	4.0
97.09	4.0
97.105	2.0
97.12	2.0
97.135	2.0
97.15	1.0
97.165	3.0
97.18	2.0
97.195	6.0
97.21	2.0
97.225	3.0
97.239	6.0
97.254	3.0
97.269	6.0
97.284	2.0
97.299	3.0
97.314	3.0
97.329	1.0
97.344	3.0
97.359	3.0
97.374	1.0
97.389	5.0
97.404	6.0
97.419	2.0
97.434	6.0
97.449	3.0
97.464	1.0
97.479	0.0
97.494	5.0
97.509	1.0
97.524	5.0
97.538	1.0
97.553	3.0
97.568	5.0
97.583	3.0
97.598	2.0
97.613	1.0
97.628	3.0
97.643	6.0
97.658	8.0
97.673	3.0
97.688	6.0
97.703	4.0
97.718	3.0
97.733	4.0
97.748	5.0
97.763	3.0
97.778	4.0
97.792	7.0
97.807	6.0
97.822	2.0
97.837	3.0
97.852	6.0
97.867	4.0
97.882	1.0
97.897	4.0
97.912	1.0
97.927	3.0
97.942	1.0
97.957	5.0
97.972	3.0
97.987	2.0
98.001	3.0
98.016	1.0
98.031	2.0
98.046	3.0
98.061	1.0
98.076	2.0
98.091	2.0
98.106	2.0
98.121	0.0
98.136	0.0
98.151	2.0
98.166	4.0
98.181	2.0
98.195	2.0
98.21	2.0
98.225	1.0
98.24	4.0
98.255	4.0
98.27	3.0
98.285	3.0
98.3	7.0
98.315	3.0
98.33	6.0
98.345	2.0
98.359	3.0
98.374	0.0
98.389	4.0
98.404	2.0
98.419	4.0
98.434	3.0
98.449	2.0
98.464	2.0
98.479	4.0
98.494	3.0
98.508	1.0
98.523	4.0
98.538	7.0
98.553	4.0
98.568	2.0
98.583	0.0
98.598	6.0
98.613	1.0
98.628	2.0
98.642	3.0
98.657	2.0
98.672	1.0
98.687	8.0
98.702	2.0
98.717	1.0
98.732	1.0
98.747	4.0
98.762	5.0
98.776	6.0
98.791	5.0
98.806	0.0
98.821	3.0
98.836	2.0
98.851	3.0
98.866	4.0
98.881	3.0
98.896	1.0
98.91	4.0
98.925	2.0
98.94	3.0
98.955	4.0
98.97	3.0
98.985	3.0
99.0	1.0
99.015	0.0
99.029	3.0
99.044	1.0
99.059	6.0
99.074	3.0
99.089	1.0
99.104	1.0
99.119	1.0
99.133	2.0
99.148	2.0
99.163	0.0
99.178	3.0
99.193	2.0
99.208	4.0
99.223	2.0
99.238	0.0
99.252	3.0
99.267	3.0
99.282	4.0
99.297	3.0
99.312	2.0
99.327	1.0
99.342	4.0
99.356	1.0
99.371	3.0
99.386	4.0
99.401	3.0
99.416	4.0
99.431	4.0
99.446	2.0
99.461	4.0
99.475	4.0
99.49	3.0
99.505	1.0
99.52	3.0
99.535	2.0
99.55	5.0
99.565	1.0
99.579	4.0
99.594	4.0
99.609	3.0
99.624	5.0
99.639	3.0
99.654	4.0
99.669	0.0
99.683	5.0
99.698	2.0
99.713	4.0
99.728	2.0
99.743	4.0
99.758	6.0
99.772	4.0
99.787	4.0
99.802	5.0
99.817	3.0
99.832	5.0
99.847	5.0
99.862	1.0
99.876	5.0
99.891	5.0
99.906	3.0
99.921	7.0
99.936	7.0
99.951	3.0
99.966	1.0
99.98	2.0
99.995	2.0
100.01	2.0
100.025	4.0
100.04	1.0
100.055	3.0
100.069	1.0
100.084	1.0
100.099	2.0
100.114	1.0
100.129	8.0
100.144	3.0
100.159	1.0
100.173	3.0
100.188	5.0
100.203	2.0
100.218	3.0
100.233	6.0
100.248	2.0
100.262	3.0
100.277	6.0
100.292	3.0
100.307	5.0
100.322	5.0
100.337	0.0
100.351	2.0
100.366	2.0
100.381	3.0
100.396	4.0
100.411	3.0
100.426	5.0
100.441	3.0
100.455	1.0
100.47	3.0
100.485	5.0
100.5	4.0
100.515	3.0
100.53	4.0
100.544	2.0
100.559	1.0
100.574	2.0
100.589	2.0
100.604	1.0
100.619	4.0
100.633	3.0
100.648	0.0
100.663	3.0
100.678	5.0
100.693	3.0
100.708	1.0
100.722	4.0
100.737	0.0
100.752	5.0
100.767	3.0
100.782	3.0
100.796	3.0
100.811	5.0
100.826	1.0
100.841	0.0
100.856	4.0
100.871	2.0
100.885	3.0
100.9	5.0
100.915	3.0
100.93	2.0
100.945	1.0
100.96	2.0
100.974	2.0
100.989	3.0
101.004	3.0
101.019	2.0
101.034	6.0
101.048	3.0
101.063	1.0
101.078	4.0
101.093	3.0
101.108	4.0
101.123	2.0
101.137	5.0
101.152	4.0
101.167	8.0
101.182	4.0
101.197	5.0
101.211	3.0
101.226	4.0
101.241	3.0
101.256	4.0
101.271	2.0
101.285	2.0
101.3	2.0
101.315	4.0
101.33	3.0
101.345	3.0
101.359	5.0
101.374	2.0
101.389	2.0
101.404	5.0
101.419	6.0
101.433	3.0
101.448	2.0
101.463	2.0
101.478	1.0
101.493	3.0
101.507	1.0
101.522	1.0
101.537	7.0
101.552	7.0
101.567	3.0
101.581	4.0
101.596	3.0
101.611	5.0
101.626	2.0
101.64	3.0
101.655	4.0
101.67	1.0
101.685	3.0
101.7	5.0
101.714	4.0
101.729	4.0
101.744	4.0
101.759	3.0
101.773	3.0
101.788	3.0
101.803	3.0
101.818	2.0
101.833	4.0
101.847	1.0
101.862	4.0
101.877	4.0
101.892	1.0
101.906	4.0
101.921	1.0
101.936	2.0
101.951	3.0
101.965	5.0
101.98	1.0
101.995	2.0
102.01	3.0
102.025	4.0
102.039	4.0
102.054	5.0
102.069	6.0
102.084	5.0
102.098	4.0
102.113	4.0
102.128	2.0
102.143	4.0
102.157	3.0
102.172	3.0
102.187	5.0
102.202	2.0
102.216	1.0
102.231	0.0
102.246	2.0
102.261	2.0
102.275	2.0
102.29	3.0
102.305	3.0
102.32	4.0
102.334	3.0
102.349	6.0
102.364	2.0
102.378	4.0
102.393	5.0
102.408	5.0
102.423	8.0
102.437	3.0
102.452	4.0
102.467	2.0
102.482	5.0
102.496	5.0
102.511	1.0
102.526	2.0
102.541	3.0
102.555	2.0
102.57	2.0
102.585	2.0
102.6	2.0
102.614	1.0
102.629	5.0
102.644	2.0
102.659	1.0
102.673	1.0
102.688	2.0
102.703	5.0
102.717	5.0
102.732	4.0
102.747	1.0
102.762	2.0
102.776	7.0
102.791	3.0
102.806	4.0
102.821	4.0
102.835	2.0
102.85	3.0
102.865	3.0
102.88	2.0
102.894	2.0
102.909	3.0
102.924	2.0
102.938	2.0
102.953	3.0
102.968	5.0
102.983	7.0
102.997	1.0
103.012	1.0
103.027	2.0
103.042	5.0
103.056	3.0
103.071	7.0
103.086	5.0
103.101	4.0
103.115	2.0
103.13	3.0
103.145	2.0
103.16	8.0
103.174	3.0
103.189	3.0
103.204	4.0
103.219	4.0
103.233	4.0
103.248	3.0
103.263	4.0
103.278	3.0
103.292	5.0
103.307	2.0
103.322	3.0
103.337	0.0
103.351	2.0
103.366	2.0
103.381	8.0
103.396	3.0
103.41	1.0
103.425	5.0
103.44	1.0
103.455	1.0
103.469	7.0
103.484	6.0
103.499	2.0
103.514	1.0
103.529	3.0
103.543	2.0
103.558	5.0
103.573	5.0
103.588	0.0
103.602	7.0
103.617	1.0
103.632	5.0
103.647	3.0
103.661	3.0
103.676	2.0
103.691	3.0
103.706	4.0
103.721	2.0
103.735	1.0
103.75	5.0
103.765	3.0
103.78	3.0
103.795	5.0
103.809	6.0
103.824	1.0
103.839	4.0
103.854	7.0
103.869	1.0
103.883	1.0
103.898	4.0
103.913	5.0
103.928	4.0
103.943	1.0
103.957	4.0
103.972	2.0
103.987	3.0
104.002	3.0
104.017	3.0
104.031	2.0
104.046	1.0
104.061	2.0
104.076	4.0
104.091	6.0
104.106	5.0
104.12	2.0
104.135	2.0
104.15	2.0
104.165	1.0
104.18	3.0
104.195	3.0
104.209	1.0
104.224	4.0
104.239	1.0
104.254	2.0
104.269	2.0
104.284	2.0
104.299	0.0
104.313	2.0
104.328	2.0
104.343	2.0
104.358	4.0
104.373	1.0
104.388	4.0
104.403	3.0
104.417	3.0
104.432	2.0
104.447	2.0
104.462	2.0
104.477	3.0
104.492	4.0
104.507	1.0
104.522	6.0
104.536	4.0
104.551	3.0
104.566	3.0
104.581	9.0
104.596	2.0
104.611	2.0
104.626	3.0
104.641	4.0
104.656	4.0
104.67	2.0
104.685	5.0
104.7	1.0
104.715	2.0
104.73	6.0
104.745	3.0
104.76	7.0
104.775	4.0
104.79	2.0
104.804	4.0
104.819	1.0
104.834	4.0
104.849	4.0
104.864	2.0
104.879	4.0
104.894	6.0
104.909	4.0
104.924	5.0
104.939	1.0
104.954	3.0
104.968	2.0
104.983	2.0
104.998	1.0
105.013	2.0
105.028	1.0
105.043	2.0
105.058	3.0
105.073	2.0
105.088	3.0
105.103	5.0
105.118	2.0
105.133	2.0
105.147	1.0
105.162	2.0
105.177	7.0
105.192	2.0
105.207	4.0
105.222	2.0
105.237	1.0
105.252	2.0
105.267	0.0
105.282	7.0
105.297	2.0
105.312	0.0
105.327	5.0
105.342	2.0
105.356	0.0
105.371	0.0
105.386	2.0
105.401	3.0
105.416	0.0
105.431	4.0
105.446	1.0
105.461	2.0
105.476	2.0
105.491	2.0
105.506	4.0
105.521	6.0
105.536	5.0
105.551	4.0
105.566	3.0
105.581	1.0
105.595	2.0
105.61	2.0
105.625	4.0
105.64	1.0
105.655	2.0
105.67	3.0
105.685	3.0
105.7	0.0
105.715	5.0
105.73	4.0
105.745	3.0
105.76	5.0
105.775	0.0
105.79	0.0
105.805	3.0
105.82	3.0
105.835	3.0
105.85	2.0
105.864	2.0
105.879	2.0
105.894	0.0
105.909	3.0
105.924	5.0
105.939	5.0
105.954	3.0
105.969	3.0
105.984	3.0
105.999	3.0
106.014	4.0
106.029	2.0
106.044	4.0
106.059	2.0
106.074	2.0
106.089	1.0
106.104	5.0
106.119	6.0
106.134	4.0
106.148	5.0
106.163	2.0
106.178	3.0
106.193	3.0
106.208	2.0
106.223	2.0
106.238	1.0
106.253	2.0
106.268	2.0
106.283	6.0
106.298	2.0
106.313	4.0
106.328	1.0
106.343	3.0
106.358	4.0
106.373	4.0
106.388	3.0
106.403	2.0
106.418	0.0
106.432	5.0
106.447	6.0
106.462	3.0
106.477	3.0
106.492	4.0
106.507	6.0
106.522	7.0
106.537	2.0
106.552	2.0
106.567	2.0
106.582	2.0
106.597	4.0
106.612	4.0
106.627	3.0
106.642	5.0
106.657	2.0
106.672	2.0
106.687	1.0
106.701	6.0
106.716	2.0
106.731	2.0
106.746	5.0
106.761	5.0
106.776	2.0
106.791	4.0
106.806	4.0
106.821	4.0
106.836	4.0
106.851	2.0
106.866	4.0
106.881	2.0
106.896	5.0
106.911	4.0
106.926	3.0
106.941	4.0
106.955	1.0
106.97	2.0
106.985	1.0
107.0	5.0
107.015	4.0
107.03	3.0
107.045	2.0
107.06	1.0
107.075	1.0
107.09	6.0
107.105	3.0
107.12	3.0
107.135	3.0
107.15	7.0
107.165	6.0
107.18	5.0
107.194	3.0
107.209	3.0
107.224	5.0
107.239	2.0
107.254	5.0
107.269	2.0
107.284	5.0
107.299	2.0
107.314	1.0
107.329	5.0
107.344	4.0
107.359	5.0
107.374	3.0
107.389	5.0
107.404	2.0
107.418	3.0
107.433	4.0
107.448	3.0
107.463	1.0
107.478	6.0
107.493	3.0
107.508	2.0
107.523	3.0
107.538	2.0
107.553	1.0
107.568	1.0
107.583	1.0
107.598	1.0
107.613	6.0
107.627	3.0
107.642	5.0
107.657	2.0
107.672	4.0
107.687	0.0
107.702	1.0
107.717	4.0
107.732	4.0
107.747	1.0
107.762	2.0
107.777	1.0
107.792	2.0
107.807	2.0
107.821	2.0
107.836	5.0
107.851	3.0
107.866	4.0
107.881	1.0
107.896	0.0
107.911	3.0
107.926	3.0
107.941	5.0
107.956	4.0
107.971	1.0
107.986	3.0
108.0	7.0
108.015	3.0
108.03	3.0
108.045	5.0
108.06	3.0
108.075	5.0
108.09	9.0
108.105	3.0
108.12	1.0
108.135	2.0
108.15	5.0
108.164	5.0
108.179	2.0
108.194	4.0
108.209	4.0
108.224	4.0
108.239	6.0
108.254	1.0
108.269	2.0
108.284	5.0
108.299	6.0
108.313	3.0
108.328	3.0
108.343	1.0
108.358	5.0
108.373	2.0
108.388	2.0
108.403	1.0
108.418	5.0
108.433	5.0
108.448	4.0
108.462	2.0
108.477	1.0
108.492	2.0
108.507	6.0
108.522	1.0
108.537	3.0
108.552	3.0
108.567	4.0
108.582	3.0
108.597	7.0
108.611	3.0
108.626	4.0
108.641	6.0
108.656	1.0
108.671	2.0
108.686	1.0
108.701	4.0
108.716	3.0
108.731	5.0
108.745	5.0
108.76	3.0
108.775	1.0
108.79	1.0
108.805	3.0
108.82	4.0
108.835	6.0
108.85	0.0
108.865	4.0
108.879	1.0
108.894	5.0
108.909	4.0
108.924	4.0
108.939	3.0
108.954	2.0
108.969	2.0
108.984	5.0
108.999	3.0
109.013	4.0
109.028	3.0
109.043	8.0
109.058	3.0
109.073	5.0
109.088	4.0
109.103	4.0
109.118	5.0
109.133	3.0
109.147	7.0
109.162	7.0
109.177	2.0
109.192	1.0
109.207	2.0
109.222	3.0
109.237	3.0
109.252	6.0
109.267	2.0
109.281	3.0
109.296	4.0
109.311	2.0
109.326	3.0
109.341	0.0
109.356	5.0
109.371	1.0
109.386	4.0
109.4	2.0
109.415	0.0
109.43	5.0
109.445	6.0
109.46	0.0
109.475	2.0
109.49	5.0
109.505	3.0
109.52	6.0
109.534	3.0
109.549	3.0
109.564	2.0
109.579	1.0
109.594	7.0
109.609	3.0
109.624	7.0
109.639	4.0
109.653	1.0
109.668	4.0
109.683	0.0
109.698	2.0
109.713	2.0
109.728	3.0
109.743	1.0
109.758	3.0
109.773	5.0
109.787	6.0
109.802	1.0
109.817	0.0
109.832	1.0
109.847	4.0
109.862	4.0
109.877	4.0
109.892	3.0
109.907	2.0
109.921	4.0
109.936	3.0
109.951	1.0
109.966	1.0
109.981	1.0
109.996	4.0
110.011	8.0
110.026	4.0
110.04	4.0
110.055	6.0
110.07	2.0
110.085	1.0
110.1	2.0
110.115	3.0
110.13	5.0
110.145	1.0
110.16	4.0
110.174	2.0
110.189	1.0
110.204	2.0
110.219	4.0
110.234	1.0
110.249	1.0
110.264	9.0
110.279	5.0
110.294	2.0
110.308	5.0
110.323	6.0
110.338	1.0
110.353	5.0
110.368	6.0
110.383	3.0
110.398	2.0
110.413	2.0
110.428	3.0
110.442	2.0
110.457	5.0
110.472	2.0
110.487	7.0
110.502	4.0
110.517	1.0
110.532	3.0
110.547	1.0
110.561	2.0
110.576	3.0
110.591	3.0
110.606	3.0
110.621	3.0
110.636	5.0
110.651	1.0
110.666	2.0
110.681	6.0
110.695	4.0
110.71	2.0
110.725	4.0
110.74	7.0
110.755	3.0
110.77	1.0
110.785	6.0
110.8	1.0
110.815	3.0
110.829	6.0
110.844	4.0
110.859	3.0
110.874	6.0
110.889	3.0
110.904	2.0
110.919	3.0
110.934	5.0
110.948	3.0
110.963	2.0
110.978	4.0
110.993	4.0
111.008	3.0
111.023	3.0
111.038	4.0
111.053	6.0
111.067	4.0
111.082	6.0
111.097	2.0
111.112	6.0
111.127	2.0
111.142	4.0
111.157	2.0
111.172	2.0
111.186	4.0
111.201	3.0
111.216	1.0
111.231	5.0
111.246	3.0
111.261	4.0
111.276	1.0
111.291	2.0
111.305	3.0
111.32	2.0
111.335	3.0
111.35	4.0
111.365	0.0
111.38	2.0
111.395	1.0
111.41	1.0
111.424	4.0
111.439	5.0
111.454	4.0
111.469	6.0
111.484	1.0
111.499	2.0
111.514	4.0
111.528	4.0
111.543	4.0
111.558	5.0
111.573	2.0
111.588	3.0
111.603	4.0
111.618	5.0
111.633	3.0
111.647	5.0
111.662	6.0
111.677	2.0
111.692	6.0
111.707	5.0
111.722	4.0
111.737	6.0
111.751	7.0
111.766	3.0
111.781	4.0
111.796	3.0
111.811	4.0
111.826	2.0
111.84	4.0
111.855	3.0
111.87	3.0
111.885	3.0
111.9	4.0
111.915	1.0
111.93	3.0
111.944	3.0
111.959	4.0
111.974	1.0
111.989	3.0
112.004	4.0
112.019	3.0
112.033	2.0
112.048	4.0
112.063	2.0
112.078	3.0
112.093	3.0
112.108	1.0
112.123	2.0
112.137	1.0
112.152	2.0
112.167	5.0
112.182	5.0
112.197	4.0
112.212	3.0
112.226	5.0
112.241	6.0
112.256	2.0
112.271	4.0
112.286	1.0
112.301	1.0
112.315	3.0
112.33	0.0
112.345	1.0
112.36	2.0
112.375	1.0
112.389	3.0
112.404	4.0
112.419	2.0
112.434	6.0
112.449	2.0
112.464	2.0
112.478	2.0
112.493	2.0
112.508	6.0
112.523	3.0
112.538	5.0
112.553	3.0
112.567	4.0
112.582	3.0
112.597	4.0
112.612	5.0
112.627	2.0
112.642	1.0
112.656	6.0
112.671	4.0
112.686	4.0
112.701	2.0
112.716	4.0
112.73	1.0
112.745	3.0
112.76	5.0
112.775	4.0
112.79	4.0
112.805	4.0
112.819	2.0
112.834	7.0
112.849	3.0
112.864	2.0
112.879	3.0
112.894	3.0
112.908	3.0
112.923	1.0
112.938	5.0
112.953	3.0
112.968	5.0
112.983	2.0
112.997	1.0
113.012	10.0
113.027	1.0
113.042	2.0
113.057	1.0
113.072	1.0
113.086	2.0
113.101	6.0
113.116	1.0
113.131	4.0
113.146	2.0
113.161	5.0
113.175	2.0
113.19	3.0
113.205	3.0
113.22	3.0
113.235	4.0
113.25	1.0
113.265	4.0
113.279	8.0
113.294	1.0
113.309	6.0
113.324	3.0
113.339	2.0
113.354	2.0
113.368	4.0
113.383	3.0
113.398	6.0
113.413	2.0
113.428	0.0
113.443	2.0
113.458	5.0
113.472	4.0
113.487	4.0
113.502	3.0
113.517	5.0
113.532	3.0
113.547	1.0
113.562	3.0
113.576	2.0
113.591	2.0
113.606	6.0
113.621	1.0
113.636	5.0
113.651	1.0
113.666	3.0
113.681	3.0
113.695	2.0
113.71	3.0
113.725	5.0
113.74	3.0
113.755	3.0
113.77	1.0
113.785	3.0
113.8	2.0
113.814	3.0
113.829	1.0
113.844	5.0
113.859	2.0
113.874	3.0
113.889	1.0
113.904	2.0
113.919	3.0
113.934	2.0
113.949	0.0
113.963	3.0
113.978	1.0
113.993	0.0
114.008	5.0
114.023	1.0
114.038	2.0
114.053	1.0
114.068	3.0
114.083	3.0
114.098	2.0
114.113	3.0
114.127	3.0
114.142	7.0
114.157	2.0
114.172	4.0
114.187	2.0
114.202	3.0
114.217	2.0
114.232	2.0
114.247	8.0
114.262	2.0
114.277	6.0
114.292	8.0
114.307	2.0
114.322	8.0
114.337	3.0
114.351	3.0
114.366	4.0
114.381	2.0
114.396	4.0
114.411	4.0
114.426	6.0
114.441	2.0
114.456	2.0
114.471	4.0
114.486	6.0
114.501	4.0
114.516	3.0
114.531	1.0
114.546	4.0
114.561	2.0
114.576	5.0
114.591	6.0
114.606	7.0
114.621	0.0
114.636	5.0
114.65	6.0
114.665	3.0
114.68	4.0
114.695	1.0
114.71	3.0
114.725	2.0
114.74	2.0
114.755	6.0
114.77	5.0
114.785	3.0
114.8	6.0
114.815	1.0
114.83	3.0
114.845	5.0
114.86	2.0
114.875	4.0
114.89	2.0
114.905	1.0
114.92	4.0
114.935	3.0
114.95	3.0
114.965	4.0
114.98	3.0
114.995	4.0
115.009	2.0
115.024	2.0
115.039	3.0
115.054	1.0
115.069	1.0
115.084	2.0
115.099	2.0
115.114	0.0
115.129	4.0
115.144	7.0
115.159	3.0
115.174	3.0
115.189	4.0
115.204	2.0
115.219	2.0
115.234	2.0
115.249	4.0
115.264	8.0
115.279	4.0
115.294	5.0
115.309	3.0
115.323	1.0
115.338	3.0
115.353	3.0
115.368	2.0
115.383	4.0
115.398	1.0
115.413	3.0
115.428	6.0
115.443	1.0
115.458	4.0
115.473	5.0
115.488	3.0
115.503	1.0
115.518	5.0
115.533	3.0
115.548	11.0
115.562	1.0
115.577	3.0
115.592	5.0
115.607	3.0
115.622	4.0
115.637	5.0
115.652	2.0
115.667	4.0
115.682	5.0
115.697	4.0
115.712	1.0
115.727	5.0
115.741	8.0
115.756	5.0
115.771	4.0
115.786	4.0
115.801	1.0
115.816	5.0
115.831	1.0
115.846	5.0
115.861	4.0
115.875	4.0
115.89	5.0
115.905	2.0
115.92	5.0
115.935	9.0
115.95	0.0
115.965	3.0
115.98	8.0
115.995	3.0
116.009	2.0
116.024	3.0
116.039	1.0
116.054	4.0
116.069	7.0
116.084	3.0
116.099	4.0
116.113	6.0
116.128	3.0
116.143	3.0
116.158	5.0
116.173	5.0
116.188	3.0
116.202	5.0
116.217	4.0
116.232	4.0
116.247	2.0
116.262	2.0
116.277	3.0
116.291	5.0
116.306	4.0
116.321	1.0
116.336	3.0
116.351	3.0
116.366	2.0
116.38	6.0
116.395	2.0
116.41	1.0
116.425	6.0
116.44	7.0
116.454	4.0
116.469	3.0
116.484	2.0
116.499	2.0
116.514	4.0
116.528	4.0
116.543	4.0
116.558	2.0
116.573	7.0
116.588	1.0
116.602	1.0
116.617	4.0
116.632	2.0
116.647	2.0
116.662	3.0
116.676	4.0
116.691	5.0
116.706	5.0
116.721	6.0
116.735	3.0
116.75	4.0
116.765	4.0
116.78	2.0
116.795	3.0
116.809	1.0
116.824	5.0
116.839	7.0
116.854	6.0
116.868	1.0
116.883	3.0
116.898	3.0
116.913	3.0
116.927	3.0
116.942	1.0
116.957	3.0
116.972	4.0
116.986	1.0
117.001	4.0
117.016	1.0
117.031	4.0
117.045	2.0
117.06	5.0
117.075	5.0
117.09	0.0
117.104	3.0
117.119	5.0
117.134	2.0
117.149	4.0
117.163	4.0
117.178	3.0
117.193	7.0
117.208	3.0
117.222	3.0
117.237	3.0
117.252	6.0
117.267	4.0
117.281	3.0
117.296	6.0
117.311	2.0
117.325	7.0
117.34	1.0
117.355	2.0
117.37	7.0
117.384	1.0
117.399	3.0
117.414	3.0
117.429	4.0
117.443	6.0
117.458	3.0
117.473	3.0
117.487	5.0
117.502	2.0
117.517	3.0
117.532	6.0
117.546	4.0
117.561	3.0
117.576	4.0
117.59	4.0
117.605	4.0
117.62	4.0
117.635	3.0
117.649	3.0
117.664	2.0
117.679	3.0
117.693	2.0
117.708	1.0
117.723	6.0
117.738	3.0
117.752	2.0
117.767	3.0
117.782	1.0
117.796	3.0
117.811	1.0
117.826	5.0
117.841	4.0
117.855	0.0
117.87	1.0
117.885	2.0
117.899	2.0
117.914	5.0
117.929	2.0
117.944	4.0
117.958	7.0
117.973	5.0
117.988	8.0
118.002	2.0
118.017	0.0
118.032	3.0
118.047	4.0
118.062	5.0
118.077	6.0
118.092	7.0
118.107	5.0
118.121	7.0
118.136	6.0
118.151	2.0
118.166	3.0
118.181	3.0
118.196	0.0
118.211	5.0
118.225	3.0
118.24	2.0
118.255	3.0
118.27	1.0
118.285	2.0
118.3	3.0
118.315	6.0
118.33	4.0
118.344	2.0
118.359	2.0
118.374	1.0
118.389	1.0
118.404	4.0
118.419	5.0
118.434	2.0
118.449	4.0
118.463	1.0
118.478	4.0
118.493	4.0
118.508	3.0
118.523	6.0
118.538	4.0
118.553	5.0
118.567	4.0
118.582	7.0
118.597	2.0
118.612	2.0
118.627	8.0
118.642	1.0
118.657	7.0
118.672	0.0
118.686	2.0
118.701	3.0
118.716	2.0
118.731	5.0
118.746	5.0
118.761	2.0
118.776	7.0
118.791	5.0
118.805	5.0
118.82	2.0
118.835	2.0
118.85	3.0
118.865	3.0
118.88	6.0
118.895	5.0
118.909	2.0
118.924	7.0
118.939	3.0
118.954	2.0
118.969	1.0
118.984	4.0
118.999	5.0
119.014	2.0
119.028	3.0
119.043	4.0
119.058	4.0
119.073	5.0
119.088	3.0
119.103	1.0
119.118	2.0
119.133	2.0
119.147	8.0
119.162	1.0
119.177	5.0
119.192	5.0
119.207	4.0
119.222	3.0
119.237	8.0
119.251	4.0
119.266	2.0
119.281	4.0
119.296	4.0
119.311	4.0
119.326	4.0
119.341	5.0
119.356	4.0
119.37	4.0
119.385	0.0
119.4	3.0
119.415	3.0
119.43	4.0
119.445	6.0
119.46	3.0
119.475	7.0
119.489	3.0
119.504	3.0
119.519	4.0
119.534	8.0
119.549	8.0
119.564	2.0
119.579	3.0
119.593	1.0
119.608	1.0
119.623	2.0
119.638	2.0
119.653	3.0
119.668	7.0
119.683	3.0
119.698	0.0
119.712	3.0
119.727	0.0
119.742	3.0
119.757	3.0
119.772	3.0
119.787	1.0
119.802	1.0
119.817	6.0
119.831	4.0
119.846	2.0
119.861	3.0
119.876	3.0
119.891	1.0
119.906	1.0
119.921	3.0
119.935	3.0
119.95	3.0
119.965	3.0
119.98	1.0
119.995	1.0
120.01	2.0
120.025	4.0
120.04	2.0
120.054	3.0
120.069	0.0
120.084	3.0
120.099	1.0
120.114	1.0
120.129	1.0
120.144	0.0
120.159	0.0
120.173	2.0
120.188	1.0
120.203	1.0
120.218	1.0
120.233	0.0
120.248	2.0
120.263	0.0
120.277	0.0
120.292	1.0
120.307	0.0
120.322	0.0
120.337	0.0
120.352	0.0
120.367	1.0
120.382	1.0
120.396	0.0
120.411	0.0
120.426	0.0
120.441	0.0
120.456	0.0
120.471	0.0
120.486	0.0
120.501	0.0
120.515	1.0
120.53	0.0
120.545	0.0
120.56	0.0
120.575	1.0
120.59	0.0
120.605	0.0
120.619	0.0
120.634	1.0
120.649	0.0
120.664	1.0
120.679	1.0
120.694	0.0
120.709	0.0
120.724	0.0
120.738	0.0
120.753	0.0
120.768	0.0
120.783	0.0
120.798	0.0
120.813	1.0
120.828	0.0
120.843	0.0
120.857	0.0
120.872	0.0
120.887	0.0
120.902	0.0
120.917	0.0
120.932	0.0
120.947	0.0
120.961	0.0
120.976	0.0
