-1.217	0.0
-1.202	0.0
-1.187	0.0
-1.172	0.0
-1.157	0.0
-1.142	0.0
-1.128	0.0
-1.113	0.0
-1.098	0.0
-1.083	0.0
-1.068	0.0
-1.054	0.0
-1.039	0.0
-1.024	0.0
-1.009	0.0
-0.994	0.0
-0.979	0.0
-0.965	0.0
-0.95	0.0
-0.935	0.0
-0.92	0.0
-0.905	0.0
-0.891	0.0
-0.876	0.0
-0.861	0.0
-0.846	0.0
-0.831	0.0
-0.816	0.0
-0.802	0.0
-0.787	0.0
-0.772	0.0
-0.757	0.0
-0.742	0.0
-0.728	0.0
-0.713	0.0
-0.698	0.0
-0.683	0.0
-0.668	1.0
-0.653	0.0
-0.639	0.0
-0.624	0.0
-0.609	0.0
-0.594	0.0
-0.579	0.0
-0.565	0.0
-0.55	0.0
-0.535	0.0
-0.52	0.0
-0.505	0.0
-0.49	0.0
-0.476	0.0
-0.461	0.0
-0.446	0.0
-0.431	0.0
-0.416	0.0
-0.401	0.0
-0.387	0.0
-0.372	0.0
-0.357	0.0
-0.342	0.0
-0.327	0.0
-0.313	0.0
-0.298	0.0
-0.283	0.0
-0.268	0.0
-0.253	0.0
-0.238	0.0
-0.224	0.0
-0.209	0.0
-0.194	0.0
-0.179	0.0
-0.164	0.0
-0.15	0.0
-0.135	0.0
-0.12	0.0
-0.105	0.0
-0.09	0.0
-0.075	0.0
-0.061	0.0
-0.046	0.0
-0.031	0.0
-0.016	0.0
-0.001	0.0
0.013	0.0
0.028	0.0
0.043	0.0
0.058	0.0
0.073	0.0
0.088	1.0
0.102	0.0
0.117	0.0
0.132	1.0
0.147	0.0
0.162	0.0
0.176	1.0
0.191	0.0
0.206	0.0
0.221	0.0
0.236	0.0
0.251	0.0
0.265	0.0
0.28	0.0
0.295	0.0
0.31	0.0
0.325	0.0
0.339	0.0
0.354	0.0
0.369	0.0
0.384	0.0
0.399	0.0
0.414	0.0
0.428	0.0
0.443	0.0
0.458	0.0
0.473	0.0
0.488	0.0
0.502	0.0
0.517	0.0
0.532	0.0
0.547	0.0
0.562	0.0
0.577	0.0
0.591	0.0
0.606	0.0
0.621	0.0
0.636	0.0
0.651	0.0
0.665	0.0
0.68	0.0
0.695	0.0
0.71	0.0
0.725	0.0
0.74	0.0
0.754	0.0
0.769	0.0
0.784	0.0
0.799	0.0
0.814	0.0
0.828	0.0
0.843	0.0
0.858	0.0
0.873	0.0
0.888	0.0
0.903	0.0
0.917	0.0
0.932	0.0
0.947	0.0
0.962	0.0
0.977	1.0
0.991	0.0
1.006	0.0
1.021	0.0
1.036	0.0
1.051	0.0
1.065	0.0
1.08	0.0
1.095	0.0
1.11	0.0
1.125	0.0
1.14	0.0
1.154	0.0
1.169	0.0
1.184	0.0
1.199	0.0
1.214	0.0
1.228	0.0
1.243	0.0
1.258	0.0
1.273	0.0
1.288	0.0
1.302	0.0
1.317	0.0
1.332	0.0
1.347	0.0
1.362	0.0
1.376	0.0
1.391	1.0
1.406	0.0
1.421	0.0
1.436	0.0
1.45	0.0
1.465	0.0
1.48	0.0
1.495	1.0
1.51	0.0
1.524	0.0
1.539	0.0
1.554	0.0
1.569	0.0
1.584	0.0
1.598	0.0
1.613	0.0
1.628	0.0
1.643	0.0
1.658	0.0
1.672	0.0
1.687	0.0
1.702	0.0
1.717	0.0
1.732	0.0
1.746	0.0
1.761	0.0
1.776	1.0
1.791	0.0
1.806	0.0
1.82	0.0
1.835	0.0
1.85	0.0
1.865	0.0
1.88	0.0
1.894	0.0
1.909	0.0
1.924	0.0
1.939	0.0
1.954	0.0
1.968	0.0
1.983	0.0
1.998	0.0
2.013	0.0
2.028	0.0
2.042	0.0
2.057	1.0
2.072	0.0
2.087	0.0
2.101	0.0
2.116	0.0
2.131	0.0
2.146	0.0
2.161	1.0
2.175	1.0
2.19	1.0
2.205	0.0
2.22	0.0
2.235	0.0
2.249	1.0
2.264	1.0
2.279	0.0
2.294	0.0
2.308	0.0
2.323	1.0
2.338	1.0
2.353	0.0
2.368	0.0
2.382	2.0
2.397	2.0
2.412	3.0
2.427	0.0
2.442	1.0
2.456	2.0
2.471	1.0
2.486	1.0
2.501	0.0
2.515	3.0
2.53	2.0
2.545	4.0
2.56	3.0
2.575	1.0
2.589	2.0
2.604	0.0
2.619	4.0
2.634	2.0
2.649	2.0
2.663	4.0
2.678	4.0
2.693	3.0
2.708	4.0
2.722	2.0
2.737	4.0
2.752	1.0
2.767	2.0
2.782	2.0
2.796	1.0
2.811	1.0
2.826	0.0
2.841	6.0
2.856	7.0
2.87	4.0
2.885	2.0
2.9	2.0
2.915	1.0
2.93	3.0
2.944	2.0
2.959	6.0
2.974	0.0
2.989	4.0
3.004	5.0
3.018	4.0
3.033	2.0
3.048	3.0
3.063	5.0
3.078	3.0
3.092	2.0
3.107	4.0
3.122	4.0
3.137	7.0
3.152	1.0
3.166	2.0
3.181	0.0
3.196	5.0
3.211	5.0
3.226	3.0
3.24	8.0
3.255	2.0
3.27	5.0
3.285	3.0
3.3	1.0
3.315	2.0
3.329	7.0
3.344	3.0
3.359	10.0
3.374	4.0
3.389	4.0
3.403	4.0
3.418	5.0
3.433	8.0
3.448	8.0
3.463	1.0
3.478	6.0
3.492	8.0
3.507	4.0
3.522	4.0
3.537	6.0
3.552	7.0
3.567	2.0
3.581	4.0
3.596	6.0
3.611	6.0
3.626	8.0
3.641	6.0
3.656	5.0
3.671	6.0
3.685	3.0
3.7	4.0
3.715	2.0
3.73	9.0
3.745	9.0
3.76	4.0
3.775	3.0
3.789	8.0
3.804	4.0
3.819	5.0
3.834	5.0
3.849	8.0
3.864	1.0
3.879	6.0
3.894	5.0
3.908	4.0
3.923	4.0
3.938	7.0
3.953	8.0
3.968	9.0
3.983	3.0
3.998	7.0
4.013	9.0
4.027	4.0
4.042	8.0
4.057	8.0
4.072	6.0
4.087	11.0
4.102	11.0
4.117	8.0
4.132	7.0
4.147	6.0
4.162	11.0
4.176	9.0
4.191	7.0
4.206	8.0
4.221	4.0
4.236	4.0
4.251	5.0
4.266	3.0
4.281	12.0
4.296	6.0
4.311	11.0
4.326	8.0
4.341	8.0
4.356	8.0
4.37	9.0
4.385	5.0
4.4	11.0
4.415	3.0
4.43	8.0
4.445	8.0
4.46	5.0
4.475	7.0
4.49	5.0
4.505	5.0
4.52	7.0
4.535	11.0
4.55	4.0
4.565	8.0
4.58	7.0
4.595	10.0
4.61	7.0
4.625	8.0
4.639	2.0
4.654	7.0
4.669	1.0
4.684	6.0
4.699	7.0
4.714	5.0
4.729	8.0
4.744	11.0
4.759	12.0
4.774	8.0
4.789	6.0
4.804	5.0
4.819	15.0
4.834	8.0
4.849	5.0
4.864	7.0
4.879	6.0
4.894	4.0
4.909	4.0
4.924	8.0
4.939	7.0
4.954	4.0
4.969	7.0
4.984	9.0
4.999	3.0
5.014	8.0
5.029	7.0
5.044	6.0
5.059	6.0
5.074	6.0
5.089	7.0
5.104	8.0
5.119	5.0
5.134	5.0
5.149	11.0
5.164	6.0
5.179	6.0
5.194	6.0
5.209	9.0
5.224	10.0
5.239	9.0
5.254	7.0
5.269	8.0
5.284	9.0
5.299	9.0
5.314	10.0
5.329	7.0
5.344	8.0
5.359	7.0
5.374	11.0
5.389	12.0
5.404	6.0
5.419	5.0
5.434	4.0
5.449	9.0
5.464	3.0
5.479	4.0
5.494	5.0
5.509	6.0
5.524	3.0
5.539	8.0
5.554	7.0
5.569	7.0
5.584	4.0
5.599	4.0
5.614	8.0
5.629	10.0
5.644	12.0
5.659	6.0
5.674	3.0
5.689	14.0
5.704	7.0
5.719	13.0
5.734	8.0
5.749	11.0
5.764	10.0
5.779	7.0
5.794	9.0
5.809	11.0
5.824	11.0
5.839	6.0
5.854	4.0
5.869	8.0
5.884	8.0
5.899	5.0
5.914	14.0
5.929	11.0
5.944	5.0
5.959	12.0
5.974	8.0
5.989	8.0
6.004	6.0
6.019	6.0
6.034	10.0
6.049	15.0
6.064	10.0
6.079	12.0
6.094	12.0
6.109	8.0
6.124	4.0
6.139	10.0
6.154	6.0
6.169	9.0
6.184	13.0
6.199	8.0
6.214	10.0
6.229	6.0
6.244	9.0
6.259	3.0
6.274	6.0
6.289	4.0
6.304	7.0
6.319	3.0
6.334	9.0
6.349	11.0
6.364	13.0
6.379	10.0
6.394	10.0
6.409	3.0
6.424	4.0
6.439	3.0
6.454	15.0
6.469	5.0
6.484	9.0
6.499	10.0
6.514	8.0
6.529	6.0
6.544	6.0
6.559	4.0
6.574	8.0
6.589	5.0
6.604	4.0
6.619	10.0
6.634	10.0
6.649	12.0
6.664	11.0
6.679	7.0
6.694	9.0
6.709	9.0
6.724	12.0
6.739	11.0
6.754	6.0
6.769	10.0
6.784	12.0
6.799	8.0
6.814	10.0
6.829	12.0
6.844	10.0
6.859	11.0
6.873	7.0
6.888	13.0
6.903	3.0
6.918	7.0
6.933	9.0
6.948	12.0
6.963	10.0
6.978	4.0
6.993	6.0
7.008	5.0
7.023	7.0
7.038	8.0
7.053	2.0
7.068	2.0
7.083	9.0
7.098	8.0
7.113	6.0
7.128	6.0
7.143	7.0
7.157	8.0
7.172	8.0
7.187	6.0
7.202	8.0
7.217	5.0
7.232	12.0
7.247	12.0
7.262	11.0
7.277	10.0
7.292	5.0
7.307	9.0
7.322	8.0
7.336	4.0
7.351	5.0
7.366	7.0
7.381	7.0
7.396	10.0
7.411	9.0
7.426	11.0
7.441	14.0
7.456	10.0
7.471	8.0
7.485	6.0
7.5	4.0
7.515	6.0
7.53	8.0
7.545	6.0
7.56	7.0
7.575	14.0
7.59	10.0
7.604	11.0
7.619	7.0
7.634	14.0
7.649	8.0
7.664	7.0
7.679	7.0
7.693	9.0
7.708	6.0
7.723	10.0
7.738	12.0
7.753	9.0
7.768	9.0
7.783	10.0
7.797	10.0
7.812	12.0
7.827	11.0
7.842	8.0
7.857	8.0
7.871	6.0
7.886	8.0
7.901	9.0
7.916	1.0
7.931	7.0
7.945	6.0
7.96	10.0
7.975	13.0
7.99	12.0
8.005	7.0
8.019	6.0
8.034	9.0
8.049	9.0
8.064	7.0
8.078	7.0
8.093	9.0
8.108	9.0
8.123	6.0
8.137	9.0
8.152	6.0
8.167	9.0
8.182	3.0
8.196	10.0
8.211	8.0
8.226	7.0
8.241	11.0
8.255	8.0
8.27	6.0
8.285	8.0
8.3	12.0
8.314	9.0
8.329	4.0
8.344	11.0
8.358	11.0
8.373	11.0
8.388	11.0
8.403	10.0
8.417	9.0
8.432	2.0
8.447	6.0
8.461	6.0
8.476	7.0
8.491	12.0
8.505	4.0
8.52	13.0
8.535	13.0
8.55	13.0
8.564	6.0
8.579	7.0
8.594	12.0
8.608	8.0
8.623	5.0
8.638	11.0
8.652	8.0
8.667	6.0
8.682	12.0
8.696	7.0
8.711	11.0
8.726	6.0
8.74	11.0
8.755	4.0
8.77	9.0
8.784	7.0
8.799	7.0
8.814	9.0
8.828	10.0
8.843	4.0
8.858	5.0
8.872	9.0
8.887	4.0
8.902	11.0
8.916	7.0
8.931	2.0
8.946	7.0
8.96	4.0
8.975	5.0
8.99	4.0
9.004	3.0
9.019	8.0
9.034	2.0
9.048	7.0
9.063	8.0
9.077	6.0
9.092	8.0
9.107	7.0
9.121	8.0
9.136	4.0
9.151	7.0
9.165	9.0
9.18	9.0
9.195	5.0
9.209	10.0
9.224	5.0
9.239	6.0
9.253	13.0
9.268	8.0
9.283	9.0
9.297	6.0
9.312	11.0
9.327	12.0
9.341	4.0
9.356	10.0
9.371	12.0
9.385	4.0
9.4	7.0
9.415	10.0
9.429	12.0
9.444	8.0
9.458	8.0
9.473	7.0
9.488	10.0
9.502	7.0
9.517	10.0
9.532	7.0
9.546	9.0
9.561	6.0
9.576	5.0
9.59	9.0
9.605	7.0
9.62	7.0
9.635	7.0
9.649	7.0
9.664	4.0
9.679	4.0
9.693	3.0
9.708	7.0
9.723	7.0
9.737	5.0
9.752	8.0
9.767	12.0
9.781	7.0
9.796	8.0
9.811	11.0
9.825	10.0
9.84	4.0
9.855	6.0
9.87	7.0
9.884	13.0
9.899	9.0
9.914	10.0
9.928	13.0
9.943	10.0
9.958	5.0
9.973	9.0
9.987	9.0
10.002	16.0
10.017	10.0
10.031	8.0
10.046	10.0
10.061	5.0
10.076	6.0
10.09	12.0
10.105	6.0
10.12	8.0
10.135	6.0
10.149	11.0
10.164	3.0
10.179	9.0
10.194	6.0
10.208	8.0
10.223	7.0
10.238	3.0
10.253	6.0
10.267	8.0
10.282	5.0
10.297	13.0
10.312	5.0
10.326	8.0
10.341	9.0
10.356	13.0
10.371	9.0
10.386	6.0
10.4	4.0
10.415	10.0
10.43	10.0
10.445	9.0
10.46	6.0
10.474	7.0
10.489	8.0
10.504	12.0
10.519	8.0
10.533	8.0
10.548	11.0
10.563	11.0
10.578	10.0
10.593	10.0
10.608	5.0
10.622	4.0
10.637	8.0
10.652	11.0
10.667	6.0
10.682	11.0
10.696	13.0
10.711	9.0
10.726	1.0
10.741	8.0
10.756	9.0
10.771	9.0
10.785	11.0
10.8	8.0
10.815	4.0
10.83	5.0
10.845	8.0
10.86	6.0
10.874	14.0
10.889	5.0
10.904	6.0
10.919	4.0
10.934	8.0
10.949	14.0
10.963	11.0
10.978	1.0
10.993	5.0
11.008	7.0
11.023	10.0
11.038	11.0
11.053	10.0
11.067	6.0
11.082	5.0
11.097	3.0
11.112	6.0
11.127	11.0
11.142	5.0
11.157	4.0
11.172	7.0
11.186	3.0
11.201	7.0
11.216	4.0
11.231	10.0
11.246	15.0
11.261	3.0
11.276	11.0
11.291	7.0
11.305	6.0
11.32	8.0
11.335	10.0
11.35	16.0
11.365	5.0
11.38	9.0
11.395	8.0
11.41	7.0
11.424	6.0
11.439	5.0
11.454	10.0
11.469	13.0
11.484	8.0
11.499	9.0
11.514	8.0
11.529	13.0
11.544	6.0
11.558	12.0
11.573	11.0
11.588	10.0
11.603	7.0
11.618	5.0
11.633	8.0
11.648	13.0
11.663	10.0
11.678	8.0
11.693	10.0
11.707	6.0
11.722	8.0
11.737	12.0
11.752	9.0
11.767	7.0
11.782	5.0
11.797	7.0
11.812	9.0
11.827	10.0
11.842	8.0
11.856	6.0
11.871	5.0
11.886	3.0
11.901	5.0
11.916	4.0
11.931	9.0
11.946	13.0
11.961	11.0
11.976	14.0
11.991	5.0
12.006	13.0
12.02	12.0
12.035	9.0
12.05	9.0
12.065	6.0
12.08	14.0
12.095	5.0
12.11	5.0
12.125	12.0
12.14	5.0
12.155	7.0
12.17	4.0
12.184	14.0
12.199	7.0
12.214	14.0
12.229	9.0
12.244	15.0
12.259	9.0
12.274	17.0
12.289	7.0
12.304	14.0
12.319	12.0
12.334	9.0
12.348	6.0
12.363	10.0
12.378	7.0
12.393	16.0
12.408	14.0
12.423	9.0
12.438	4.0
12.453	13.0
12.468	14.0
12.483	8.0
12.498	12.0
12.513	17.0
12.527	8.0
12.542	10.0
12.557	17.0
12.572	12.0
12.587	16.0
12.602	12.0
12.617	6.0
12.632	18.0
12.647	10.0
12.662	10.0
12.677	13.0
12.692	10.0
12.707	10.0
12.721	14.0
12.736	17.0
12.751	17.0
12.766	15.0
12.781	14.0
12.796	14.0
12.811	12.0
12.826	11.0
12.841	14.0
12.856	20.0
12.871	16.0
12.886	12.0
12.9	17.0
12.915	12.0
12.93	15.0
12.945	8.0
12.96	15.0
12.975	20.0
12.99	14.0
13.005	18.0
13.02	18.0
13.035	17.0
13.05	21.0
13.065	19.0
13.08	22.0
13.094	14.0
13.109	16.0
13.124	13.0
13.139	13.0
13.154	19.0
13.169	14.0
13.184	18.0
13.199	16.0
13.214	16.0
13.229	20.0
13.244	24.0
13.259	18.0
13.274	13.0
13.288	18.0
13.303	24.0
13.318	16.0
13.333	25.0
13.348	28.0
13.363	16.0
13.378	22.0
13.393	23.0
13.408	33.0
13.423	16.0
13.438	23.0
13.453	40.0
13.468	33.0
13.482	42.0
13.497	27.0
13.512	47.0
13.527	36.0
13.542	46.0
13.557	61.0
13.572	47.0
13.587	39.0
13.602	48.0
13.617	65.0
13.632	63.0
13.647	78.0
13.662	75.0
13.677	79.0
13.691	87.0
13.706	80.0
13.721	71.0
13.736	86.0
13.751	97.0
13.766	98.0
13.781	105.0
13.796	132.0
13.811	125.0
13.826	119.0
13.841	122.0
13.856	115.0
13.871	114.0
13.885	89.0
13.9	72.0
13.915	64.0
13.93	72.0
13.945	61.0
13.96	56.0
13.975	45.0
13.99	27.0
14.005	28.0
14.02	34.0
14.035	30.0
14.05	27.0
14.065	23.0
14.08	22.0
14.094	28.0
14.109	20.0
14.124	31.0
14.139	34.0
14.154	23.0
14.169	22.0
14.184	26.0
14.199	20.0
14.214	20.0
14.229	21.0
14.244	21.0
14.259	25.0
14.274	11.0
14.288	18.0
14.303	18.0
14.318	19.0
14.333	16.0
14.348	19.0
14.363	20.0
14.378	15.0
14.393	16.0
14.408	21.0
14.423	15.0
14.438	18.0
14.453	12.0
14.468	19.0
14.482	24.0
14.497	13.0
14.512	22.0
14.527	19.0
14.542	19.0
14.557	18.0
14.572	16.0
14.587	21.0
14.602	11.0
14.617	17.0
14.632	20.0
14.647	24.0
14.661	11.0
14.676	12.0
14.691	15.0
14.706	21.0
14.721	17.0
14.736	15.0
14.751	13.0
14.766	17.0
14.781	17.0
14.796	15.0
14.811	20.0
14.826	15.0
14.84	10.0
14.855	17.0
14.87	15.0
14.885	16.0
14.9	14.0
14.915	10.0
14.93	11.0
14.945	20.0
14.96	15.0
14.975	13.0
14.989	23.0
15.004	12.0
15.019	11.0
15.034	16.0
15.049	11.0
15.064	19.0
15.079	13.0
15.094	18.0
15.109	11.0
15.124	29.0
15.138	14.0
15.153	9.0
15.168	13.0
15.183	10.0
15.198	10.0
15.213	12.0
15.228	17.0
15.243	5.0
15.258	21.0
15.272	9.0
15.287	17.0
15.302	21.0
15.317	13.0
15.332	10.0
15.347	15.0
15.362	19.0
15.377	12.0
15.391	7.0
15.406	12.0
15.421	14.0
15.436	12.0
15.451	17.0
15.466	15.0
15.481	10.0
15.496	14.0
15.51	8.0
15.525	10.0
15.54	12.0
15.555	20.0
15.57	11.0
15.585	21.0
15.6	11.0
15.614	15.0
15.629	13.0
15.644	15.0
15.659	14.0
15.674	15.0
15.689	10.0
15.704	20.0
15.718	18.0
15.733	11.0
15.748	12.0
15.763	12.0
15.778	12.0
15.793	12.0
15.808	15.0
15.822	20.0
15.837	9.0
15.852	9.0
15.867	5.0
15.882	13.0
15.897	16.0
15.911	12.0
15.926	6.0
15.941	16.0
15.956	7.0
15.971	8.0
15.986	5.0
16.0	10.0
16.015	11.0
16.03	13.0
16.045	19.0
16.06	23.0
16.074	13.0
16.089	10.0
16.104	11.0
16.119	11.0
16.134	9.0
16.149	13.0
16.163	9.0
16.178	14.0
16.193	12.0
16.208	10.0
16.223	14.0
16.237	14.0
16.252	19.0
16.267	16.0
16.282	13.0
16.297	9.0
16.311	11.0
16.326	11.0
16.341	13.0
16.356	17.0
16.37	17.0
16.385	17.0
16.4	17.0
16.415	13.0
16.43	17.0
16.444	16.0
16.459	13.0
16.474	15.0
16.489	14.0
16.504	12.0
16.518	11.0
16.533	10.0
16.548	17.0
16.563	19.0
16.577	22.0
16.592	13.0
16.607	14.0
16.622	14.0
16.637	19.0
16.651	22.0
16.666	22.0
16.681	20.0
16.696	22.0
16.71	23.0
16.725	31.0
16.74	31.0
16.755	30.0
16.77	40.0
16.784	34.0
16.799	40.0
16.814	41.0
16.829	42.0
16.843	51.0
16.858	55.0
16.873	57.0
16.888	55.0
16.902	52.0
16.917	67.0
16.932	77.0
16.947	95.0
16.961	72.0
16.976	66.0
16.991	64.0
17.006	80.0
17.021	56.0
17.035	66.0
17.05	58.0
17.065	43.0
17.08	30.0
17.094	29.0
17.109	33.0
17.124	28.0
17.139	23.0
17.153	24.0
17.168	20.0
17.183	16.0
17.198	22.0
17.212	12.0
17.227	11.0
17.242	10.0
17.257	16.0
17.271	9.0
17.286	12.0
17.301	13.0
17.316	19.0
17.33	20.0
17.345	16.0
17.36	10.0
17.375	18.0
17.39	8.0
17.404	17.0
17.419	13.0
17.434	10.0
17.449	11.0
17.463	8.0
17.478	12.0
17.493	22.0
17.508	18.0
17.522	9.0
17.537	14.0
17.552	20.0
17.567	6.0
17.581	15.0
17.596	10.0
17.611	12.0
17.626	12.0
17.641	10.0
17.655	15.0
17.67	7.0
17.685	10.0
17.7	14.0
17.714	5.0
17.729	12.0
17.744	8.0
17.759	19.0
17.773	11.0
17.788	11.0
17.803	12.0
17.818	7.0
17.833	14.0
17.847	10.0
17.862	12.0
17.877	10.0
17.892	13.0
17.906	7.0
17.921	11.0
17.936	14.0
17.951	7.0
17.966	8.0
17.98	11.0
17.995	13.0
18.01	14.0
18.025	18.0
18.04	13.0
18.054	8.0
18.069	9.0
18.084	9.0
18.099	18.0
18.114	12.0
18.128	11.0
18.143	7.0
18.158	10.0
18.173	13.0
18.188	15.0
18.202	8.0
18.217	3.0
18.232	16.0
18.247	7.0
18.262	9.0
18.276	9.0
18.291	13.0
18.306	10.0
18.321	17.0
18.336	15.0
18.35	18.0
18.365	6.0
18.38	11.0
18.395	9.0
18.41	11.0
18.424	18.0
18.439	9.0
18.454	12.0
18.469	10.0
18.484	7.0
18.498	9.0
18.513	10.0
18.528	12.0
18.543	14.0
18.558	13.0
18.573	18.0
18.587	7.0
18.602	15.0
18.617	8.0
18.632	17.0
18.647	12.0
18.661	11.0
18.676	9.0
18.691	8.0
18.706	15.0
18.721	19.0
18.736	12.0
18.75	10.0
18.765	7.0
18.78	14.0
18.795	15.0
18.81	13.0
18.825	15.0
18.839	6.0
18.854	10.0
18.869	13.0
18.884	12.0
18.899	12.0
18.913	10.0
18.928	13.0
18.943	8.0
18.958	9.0
18.973	10.0
18.988	9.0
19.002	14.0
19.017	13.0
19.032	10.0
19.047	7.0
19.062	10.0
19.077	13.0
19.091	7.0
19.106	9.0
19.121	13.0
19.136	8.0
19.151	14.0
19.165	14.0
19.18	17.0
19.195	11.0
19.21	12.0
19.225	10.0
19.24	13.0
19.254	14.0
19.269	8.0
19.284	13.0
19.299	15.0
19.314	7.0
19.329	17.0
19.343	15.0
19.358	21.0
19.373	19.0
19.388	13.0
19.403	23.0
19.417	17.0
19.432	17.0
19.447	26.0
19.462	28.0
19.477	23.0
19.492	30.0
19.506	26.0
19.521	35.0
19.536	41.0
19.551	36.0
19.566	34.0
19.58	49.0
19.595	29.0
19.61	29.0
19.625	29.0
19.64	45.0
19.655	35.0
19.669	26.0
19.684	29.0
19.699	36.0
19.714	21.0
19.729	22.0
19.743	27.0
19.758	25.0
19.773	18.0
19.788	30.0
19.803	19.0
19.817	19.0
19.832	17.0
19.847	11.0
19.862	12.0
19.877	7.0
19.891	5.0
19.906	18.0
19.921	9.0
19.936	17.0
19.951	9.0
19.965	8.0
19.98	13.0
19.995	16.0
20.01	7.0
20.025	10.0
20.039	13.0
20.054	13.0
20.069	15.0
20.084	8.0
20.099	11.0
20.113	7.0
20.128	13.0
20.143	15.0
20.158	13.0
20.173	9.0
20.187	22.0
20.202	11.0
20.217	12.0
20.232	12.0
20.246	12.0
20.261	10.0
20.276	12.0
20.291	8.0
20.306	10.0
20.32	12.0
20.335	13.0
20.35	8.0
20.365	13.0
20.38	8.0
20.394	7.0
20.409	12.0
20.424	10.0
20.439	6.0
20.453	10.0
20.468	12.0
20.483	16.0
20.498	15.0
20.513	8.0
20.527	6.0
20.542	13.0
20.557	12.0
20.572	12.0
20.586	9.0
20.601	10.0
20.616	19.0
20.631	15.0
20.646	10.0
20.66	3.0
20.675	12.0
20.69	7.0
20.705	8.0
20.719	10.0
20.734	21.0
20.749	9.0
20.764	8.0
20.779	10.0
20.793	10.0
20.808	6.0
20.823	6.0
20.838	9.0
20.853	6.0
20.867	10.0
20.882	16.0
20.897	6.0
20.912	11.0
20.926	12.0
20.941	15.0
20.956	10.0
20.971	12.0
20.986	16.0
21.0	16.0
21.015	17.0
21.03	7.0
21.045	9.0
21.06	7.0
21.074	14.0
21.089	5.0
21.104	10.0
21.119	11.0
21.134	13.0
21.148	10.0
21.163	9.0
21.178	8.0
21.193	17.0
21.208	13.0
21.222	4.0
21.237	10.0
21.252	13.0
21.267	15.0
21.282	6.0
21.296	8.0
21.311	13.0
21.326	17.0
21.341	12.0
21.356	13.0
21.37	9.0
21.385	14.0
21.4	11.0
21.415	12.0
21.43	14.0
21.444	11.0
21.459	9.0
21.474	10.0
21.489	8.0
21.504	15.0
21.519	10.0
21.533	14.0
21.548	14.0
21.563	9.0
21.578	9.0
21.593	11.0
21.608	13.0
21.622	14.0
21.637	13.0
21.652	12.0
21.667	15.0
21.682	18.0
21.697	21.0
21.712	22.0
21.726	21.0
21.741	19.0
21.756	17.0
21.771	22.0
21.786	34.0
21.801	45.0
21.816	53.0
21.83	49.0
21.845	54.0
21.86	53.0
21.875	51.0
21.89	69.0
21.905	69.0
21.92	90.0
21.935	86.0
21.949	78.0
21.964	83.0
21.979	68.0
21.994	72.0
22.009	68.0
22.024	55.0
22.039	49.0
22.054	61.0
22.069	52.0
22.083	50.0
22.098	40.0
22.113	26.0
22.128	32.0
22.143	28.0
22.158	26.0
22.173	10.0
22.188	23.0
22.203	27.0
22.218	14.0
22.233	20.0
22.248	10.0
22.262	10.0
22.277	8.0
22.292	11.0
22.307	8.0
22.322	9.0
22.337	18.0
22.352	17.0
22.367	11.0
22.382	15.0
22.397	24.0
22.412	17.0
22.427	13.0
22.442	10.0
22.457	11.0
22.472	14.0
22.487	14.0
22.502	19.0
22.516	13.0
22.531	23.0
22.546	10.0
22.561	17.0
22.576	12.0
22.591	10.0
22.606	12.0
22.621	13.0
22.636	9.0
22.651	13.0
22.666	11.0
22.681	13.0
22.696	10.0
22.711	11.0
22.726	15.0
22.741	14.0
22.756	13.0
22.771	14.0
22.786	9.0
22.801	13.0
22.816	7.0
22.831	9.0
22.846	10.0
22.861	8.0
22.876	3.0
22.891	11.0
22.906	8.0
22.92	7.0
22.935	8.0
22.95	11.0
22.965	14.0
22.98	8.0
22.995	7.0
23.01	18.0
23.025	11.0
23.04	14.0
23.055	17.0
23.07	14.0
23.085	8.0
23.1	7.0
23.115	7.0
23.13	8.0
23.145	14.0
23.16	11.0
23.175	15.0
23.19	11.0
23.205	13.0
23.22	9.0
23.235	10.0
23.25	12.0
23.265	4.0
23.28	6.0
23.295	13.0
23.31	9.0
23.325	5.0
23.34	15.0
23.355	13.0
23.37	12.0
23.384	4.0
23.399	11.0
23.414	8.0
23.429	8.0
23.444	10.0
23.459	12.0
23.474	12.0
23.489	9.0
23.504	14.0
23.519	11.0
23.534	9.0
23.549	8.0
23.564	10.0
23.579	13.0
23.594	11.0
23.609	8.0
23.624	12.0
23.639	2.0
23.654	10.0
23.668	13.0
23.683	15.0
23.698	6.0
23.713	3.0
23.728	9.0
23.743	12.0
23.758	12.0
23.773	17.0
23.788	17.0
23.803	19.0
23.818	13.0
23.833	13.0
23.848	8.0
23.862	15.0
23.877	14.0
23.892	19.0
23.907	21.0
23.922	23.0
23.937	24.0
23.952	30.0
23.967	42.0
23.982	27.0
23.997	36.0
24.011	32.0
24.026	32.0
24.041	47.0
24.056	59.0
24.071	54.0
24.086	53.0
24.101	50.0
24.116	46.0
24.131	50.0
24.145	56.0
24.16	40.0
24.175	37.0
24.19	42.0
24.205	22.0
24.22	42.0
24.235	40.0
24.249	32.0
24.264	23.0
24.279	19.0
24.294	22.0
24.309	13.0
24.324	26.0
24.338	19.0
24.353	13.0
24.368	14.0
24.383	9.0
24.398	13.0
24.413	12.0
24.428	15.0
24.442	10.0
24.457	17.0
24.472	15.0
24.487	9.0
24.502	16.0
24.516	18.0
24.531	18.0
24.546	12.0
24.561	10.0
24.576	12.0
24.591	14.0
24.605	10.0
24.62	5.0
24.635	6.0
24.65	9.0
24.665	9.0
24.679	7.0
24.694	14.0
24.709	13.0
24.724	11.0
24.739	10.0
24.753	5.0
24.768	12.0
24.783	13.0
24.798	3.0
24.813	10.0
24.827	11.0
24.842	6.0
24.857	13.0
24.872	17.0
24.886	10.0
24.901	9.0
24.916	11.0
24.931	15.0
24.946	8.0
24.96	11.0
24.975	7.0
24.99	9.0
25.005	9.0
25.019	13.0
25.034	9.0
25.049	10.0
25.064	9.0
25.078	15.0
25.093	15.0
25.108	12.0
25.123	9.0
25.138	25.0
25.152	12.0
25.167	13.0
25.182	18.0
25.197	10.0
25.211	9.0
25.226	6.0
25.241	10.0
25.256	12.0
25.27	12.0
25.285	6.0
25.3	7.0
25.315	14.0
25.329	7.0
25.344	8.0
25.359	7.0
25.374	9.0
25.388	6.0
25.403	10.0
25.418	5.0
25.433	13.0
25.447	6.0
25.462	8.0
25.477	5.0
25.492	15.0
25.506	8.0
25.521	10.0
25.536	8.0
25.55	9.0
25.565	7.0
25.58	8.0
25.595	9.0
25.609	12.0
25.624	4.0
25.639	12.0
25.654	10.0
25.668	13.0
25.683	5.0
25.698	7.0
25.713	12.0
25.727	8.0
25.742	11.0
25.757	3.0
25.772	7.0
25.786	6.0
25.801	10.0
25.816	11.0
25.83	6.0
25.845	12.0
25.86	7.0
25.875	15.0
25.889	9.0
25.904	8.0
25.919	9.0
25.934	9.0
25.948	8.0
25.963	12.0
25.978	6.0
25.992	12.0
26.007	11.0
26.022	9.0
26.037	11.0
26.051	5.0
26.066	8.0
26.081	6.0
26.096	8.0
26.11	9.0
26.125	10.0
26.14	14.0
26.155	5.0
26.169	8.0
26.184	10.0
26.199	9.0
26.213	9.0
26.228	11.0
26.243	11.0
26.258	16.0
26.272	8.0
26.287	6.0
26.302	9.0
26.317	9.0
26.331	6.0
26.346	10.0
26.361	13.0
26.376	5.0
26.39	9.0
26.405	11.0
26.42	11.0
26.434	11.0
26.449	10.0
26.464	6.0
26.479	10.0
26.493	11.0
26.508	12.0
26.523	6.0
26.538	10.0
26.552	11.0
26.567	8.0
26.582	12.0
26.597	13.0
26.611	8.0
26.626	7.0
26.641	17.0
26.656	9.0
26.67	7.0
26.685	12.0
26.7	8.0
26.715	14.0
26.729	7.0
26.744	10.0
26.759	6.0
26.773	9.0
26.788	12.0
26.803	9.0
26.818	4.0
26.832	11.0
26.847	9.0
26.862	8.0
26.877	6.0
26.891	11.0
26.906	13.0
26.921	6.0
26.936	10.0
26.95	10.0
26.965	10.0
26.98	5.0
26.995	10.0
27.01	11.0
27.024	10.0
27.039	17.0
27.054	10.0
27.069	16.0
27.083	10.0
27.098	14.0
27.113	6.0
27.128	11.0
27.142	8.0
27.157	6.0
27.172	11.0
27.187	17.0
27.201	14.0
27.216	11.0
27.231	10.0
27.246	10.0
27.261	12.0
27.275	7.0
27.29	5.0
27.305	15.0
27.32	13.0
27.334	9.0
27.349	10.0
27.364	7.0
27.379	13.0
27.394	9.0
27.408	6.0
27.423	14.0
27.438	9.0
27.453	13.0
27.467	11.0
27.482	6.0
27.497	13.0
27.512	13.0
27.527	5.0
27.541	18.0
27.556	9.0
27.571	6.0
27.586	6.0
27.601	13.0
27.615	14.0
27.63	10.0
27.645	6.0
27.66	11.0
27.675	21.0
27.689	17.0
27.704	16.0
27.719	22.0
27.734	11.0
27.749	15.0
27.763	22.0
27.778	17.0
27.793	7.0
27.808	22.0
27.823	22.0
27.838	25.0
27.852	21.0
27.867	21.0
27.882	27.0
27.897	28.0
27.912	23.0
27.926	25.0
27.941	25.0
27.956	19.0
27.971	22.0
27.986	24.0
28.001	14.0
28.015	20.0
28.03	14.0
28.045	18.0
28.06	11.0
28.075	19.0
28.09	19.0
28.105	8.0
28.119	14.0
28.134	7.0
28.149	7.0
28.164	10.0
28.179	19.0
28.194	9.0
28.208	13.0
28.223	11.0
28.238	7.0
28.253	6.0
28.268	9.0
28.283	13.0
28.298	11.0
28.312	10.0
28.327	9.0
28.342	12.0
28.357	6.0
28.372	8.0
28.387	9.0
28.402	10.0
28.417	9.0
28.431	15.0
28.446	7.0
28.461	15.0
28.476	10.0
28.491	7.0
28.506	9.0
28.521	11.0
28.536	8.0
28.55	7.0
28.565	11.0
28.58	8.0
28.595	7.0
28.61	10.0
28.625	12.0
28.64	7.0
28.655	8.0
28.669	11.0
28.684	10.0
28.699	9.0
28.714	9.0
28.729	8.0
28.744	12.0
28.759	5.0
28.774	11.0
28.788	10.0
28.803	11.0
28.818	15.0
28.833	11.0
28.848	15.0
28.863	9.0
28.878	10.0
28.893	10.0
28.908	10.0
28.922	11.0
28.937	13.0
28.952	13.0
28.967	11.0
28.982	10.0
28.997	7.0
29.012	14.0
29.027	8.0
29.041	10.0
29.056	14.0
29.071	7.0
29.086	6.0
29.101	6.0
29.116	5.0
29.131	11.0
29.146	13.0
29.16	15.0
29.175	8.0
29.19	8.0
29.205	14.0
29.22	9.0
29.235	11.0
29.25	10.0
29.265	9.0
29.279	10.0
29.294	12.0
29.309	11.0
29.324	11.0
29.339	15.0
29.354	14.0
29.369	5.0
29.384	14.0
29.398	18.0
29.413	22.0
29.428	22.0
29.443	16.0
29.458	22.0
29.473	24.0
29.488	27.0
29.502	23.0
29.517	26.0
29.532	36.0
29.547	32.0
29.562	48.0
29.577	42.0
29.592	62.0
29.606	34.0
29.621	49.0
29.636	32.0
29.651	68.0
29.666	40.0
29.681	46.0
29.695	44.0
29.71	21.0
29.725	42.0
29.74	36.0
29.755	31.0
29.77	24.0
29.784	34.0
29.799	25.0
29.814	37.0
29.829	30.0
29.844	19.0
29.859	22.0
29.873	18.0
29.888	16.0
29.903	17.0
29.918	14.0
29.933	16.0
29.947	13.0
29.962	15.0
29.977	12.0
29.992	17.0
30.007	9.0
30.021	7.0
30.036	13.0
30.051	11.0
30.066	14.0
30.081	15.0
30.095	4.0
30.11	11.0
30.125	8.0
30.14	9.0
30.155	11.0
30.169	9.0
30.184	7.0
30.199	3.0
30.214	6.0
30.228	14.0
30.243	6.0
30.258	10.0
30.273	10.0
30.288	10.0
30.302	14.0
30.317	14.0
30.332	12.0
30.347	17.0
30.361	12.0
30.376	16.0
30.391	5.0
30.406	8.0
30.42	16.0
30.435	14.0
30.45	11.0
30.465	13.0
30.479	12.0
30.494	15.0
30.509	13.0
30.524	11.0
30.538	13.0
30.553	4.0
30.568	14.0
30.583	11.0
30.597	11.0
30.612	21.0
30.627	9.0
30.641	10.0
30.656	10.0
30.671	9.0
30.686	13.0
30.7	13.0
30.715	12.0
30.73	8.0
30.745	12.0
30.759	9.0
30.774	15.0
30.789	12.0
30.803	11.0
30.818	9.0
30.833	13.0
30.848	14.0
30.862	9.0
30.877	12.0
30.892	12.0
30.906	7.0
30.921	10.0
30.936	10.0
30.951	8.0
30.965	16.0
30.98	10.0
30.995	14.0
31.009	9.0
31.024	11.0
31.039	16.0
31.053	7.0
31.068	11.0
31.083	18.0
31.098	20.0
31.112	14.0
31.127	14.0
31.142	24.0
31.156	25.0
31.171	21.0
31.186	20.0
31.2	37.0
31.215	36.0
31.23	43.0
31.245	47.0
31.259	41.0
31.274	33.0
31.289	32.0
31.303	40.0
31.318	29.0
31.333	29.0
31.347	36.0
31.362	23.0
31.377	28.0
31.392	24.0
31.406	37.0
31.421	29.0
31.436	15.0
31.45	36.0
31.465	20.0
31.48	21.0
31.494	24.0
31.509	25.0
31.524	21.0
31.538	13.0
31.553	18.0
31.568	12.0
31.583	14.0
31.597	13.0
31.612	11.0
31.627	7.0
31.641	4.0
31.656	11.0
31.671	7.0
31.685	7.0
31.7	10.0
31.715	8.0
31.729	13.0
31.744	6.0
31.759	3.0
31.774	7.0
31.788	8.0
31.803	7.0
31.818	8.0
31.832	8.0
31.847	7.0
31.862	7.0
31.876	8.0
31.891	16.0
31.906	6.0
31.92	11.0
31.935	10.0
31.95	11.0
31.965	13.0
31.979	13.0
31.994	8.0
32.009	13.0
32.023	11.0
32.038	9.0
32.053	5.0
32.067	6.0
32.082	10.0
32.097	9.0
32.112	8.0
32.126	15.0
32.141	16.0
32.156	13.0
32.17	7.0
32.185	14.0
32.2	14.0
32.214	13.0
32.229	3.0
32.244	14.0
32.259	7.0
32.273	7.0
32.288	11.0
32.303	10.0
32.317	6.0
32.332	7.0
32.347	14.0
32.362	11.0
32.376	18.0
32.391	9.0
32.406	12.0
32.42	9.0
32.435	8.0
32.45	11.0
32.465	9.0
32.479	8.0
32.494	9.0
32.509	8.0
32.523	13.0
32.538	13.0
32.553	10.0
32.568	7.0
32.582	7.0
32.597	11.0
32.612	8.0
32.627	10.0
32.641	18.0
32.656	15.0
32.671	16.0
32.685	20.0
32.7	12.0
32.715	20.0
32.73	22.0
32.744	16.0
32.759	17.0
32.774	16.0
32.788	32.0
32.803	28.0
32.818	30.0
32.833	33.0
32.847	19.0
32.862	31.0
32.877	20.0
32.892	20.0
32.906	20.0
32.921	23.0
32.936	14.0
32.951	19.0
32.965	18.0
32.98	19.0
32.995	20.0
33.009	19.0
33.024	12.0
33.039	17.0
33.054	13.0
33.068	15.0
33.083	20.0
33.098	15.0
33.113	13.0
33.127	14.0
33.142	6.0
33.157	14.0
33.172	10.0
33.186	6.0
33.201	6.0
33.216	6.0
33.231	4.0
33.245	12.0
33.26	8.0
33.275	8.0
33.29	10.0
33.304	9.0
33.319	12.0
33.334	10.0
33.349	7.0
33.363	7.0
33.378	13.0
33.393	13.0
33.408	9.0
33.422	7.0
33.437	9.0
33.452	9.0
33.467	11.0
33.481	9.0
33.496	8.0
33.511	7.0
33.526	8.0
33.54	14.0
33.555	5.0
33.57	8.0
33.585	9.0
33.599	14.0
33.614	10.0
33.629	8.0
33.644	11.0
33.658	6.0
33.673	5.0
33.688	11.0
33.703	8.0
33.718	9.0
33.732	2.0
33.747	8.0
33.762	10.0
33.777	13.0
33.791	7.0
33.806	10.0
33.821	10.0
33.836	12.0
33.85	11.0
33.865	5.0
33.88	9.0
33.895	13.0
33.91	10.0
33.924	8.0
33.939	14.0
33.954	6.0
33.969	3.0
33.983	13.0
33.998	8.0
34.013	7.0
34.028	4.0
34.042	8.0
34.057	9.0
34.072	10.0
34.087	14.0
34.102	13.0
34.116	6.0
34.131	6.0
34.146	10.0
34.161	7.0
34.175	10.0
34.19	12.0
34.205	9.0
34.22	10.0
34.235	12.0
34.249	13.0
34.264	10.0
34.279	14.0
34.294	6.0
34.309	15.0
34.323	11.0
34.338	11.0
34.353	14.0
34.368	12.0
34.382	8.0
34.397	9.0
34.412	15.0
34.427	16.0
34.442	18.0
34.456	14.0
34.471	5.0
34.486	7.0
34.501	8.0
34.516	11.0
34.53	10.0
34.545	12.0
34.56	9.0
34.575	9.0
34.59	8.0
34.604	14.0
34.619	10.0
34.634	6.0
34.649	11.0
34.664	5.0
34.678	6.0
34.693	13.0
34.708	8.0
34.723	6.0
34.738	9.0
34.752	5.0
34.767	8.0
34.782	8.0
34.797	9.0
34.812	4.0
34.826	15.0
34.841	9.0
34.856	9.0
34.871	6.0
34.886	3.0
34.9	9.0
34.915	4.0
34.93	12.0
34.945	13.0
34.96	6.0
34.974	11.0
34.989	5.0
35.004	8.0
35.019	6.0
35.034	11.0
35.048	9.0
35.063	6.0
35.078	8.0
35.093	9.0
35.108	5.0
35.122	5.0
35.137	6.0
35.152	7.0
35.167	8.0
35.182	5.0
35.196	10.0
35.211	12.0
35.226	6.0
35.241	5.0
35.256	10.0
35.27	1.0
35.285	7.0
35.3	4.0
35.315	2.0
35.33	9.0
35.344	9.0
35.359	10.0
35.374	7.0
35.389	6.0
35.404	5.0
35.418	10.0
35.433	6.0
35.448	9.0
35.463	10.0
35.478	15.0
35.493	11.0
35.507	8.0
35.522	4.0
35.537	11.0
35.552	9.0
35.567	10.0
35.581	11.0
35.596	9.0
35.611	13.0
35.626	8.0
35.641	20.0
35.655	17.0
35.67	10.0
35.685	11.0
35.7	18.0
35.715	14.0
35.729	21.0
35.744	15.0
35.759	19.0
35.774	16.0
35.789	23.0
35.804	17.0
35.818	17.0
35.833	12.0
35.848	21.0
35.863	14.0
35.878	14.0
35.892	14.0
35.907	17.0
35.922	16.0
35.937	11.0
35.952	10.0
35.966	13.0
35.981	12.0
35.996	17.0
36.011	14.0
36.026	13.0
36.04	17.0
36.055	11.0
36.07	8.0
36.085	12.0
36.1	5.0
36.114	11.0
36.129	12.0
36.144	9.0
36.159	5.0
36.174	7.0
36.189	10.0
36.203	7.0
36.218	4.0
36.233	13.0
36.248	6.0
36.263	8.0
36.277	5.0
36.292	6.0
36.307	7.0
36.322	9.0
36.337	3.0
36.351	6.0
36.366	10.0
36.381	8.0
36.396	4.0
36.411	10.0
36.426	4.0
36.44	9.0
36.455	14.0
36.47	6.0
36.485	6.0
36.5	11.0
36.514	6.0
36.529	5.0
36.544	5.0
36.559	12.0
36.574	9.0
36.589	10.0
36.603	8.0
36.618	10.0
36.633	6.0
36.648	5.0
36.663	9.0
36.677	4.0
36.692	9.0
36.707	11.0
36.722	5.0
36.737	7.0
36.752	6.0
36.766	7.0
36.781	9.0
36.796	6.0
36.811	3.0
36.826	4.0
36.841	10.0
36.855	4.0
36.87	2.0
36.885	8.0
36.9	8.0
36.915	10.0
36.93	9.0
36.944	5.0
36.959	8.0
36.974	5.0
36.989	13.0
37.004	14.0
37.019	11.0
37.033	13.0
37.048	21.0
37.063	17.0
37.078	22.0
37.093	18.0
37.108	25.0
37.123	17.0
37.137	24.0
37.152	33.0
37.167	31.0
37.182	22.0
37.197	26.0
37.212	21.0
37.226	23.0
37.241	23.0
37.256	17.0
37.271	11.0
37.286	15.0
37.301	21.0
37.316	25.0
37.331	20.0
37.345	16.0
37.36	17.0
37.375	17.0
37.39	23.0
37.405	17.0
37.42	22.0
37.435	11.0
37.45	16.0
37.464	14.0
37.479	10.0
37.494	14.0
37.509	16.0
37.524	11.0
37.539	8.0
37.554	9.0
37.569	8.0
37.583	10.0
37.598	14.0
37.613	8.0
37.628	8.0
37.643	5.0
37.658	8.0
37.673	5.0
37.688	6.0
37.703	5.0
37.718	7.0
37.733	9.0
37.747	7.0
37.762	7.0
37.777	7.0
37.792	5.0
37.807	4.0
37.822	7.0
37.837	4.0
37.852	8.0
37.867	3.0
37.882	4.0
37.897	11.0
37.912	8.0
37.927	9.0
37.941	7.0
37.956	9.0
37.971	7.0
37.986	9.0
38.001	4.0
38.016	8.0
38.031	5.0
38.046	6.0
38.061	10.0
38.076	6.0
38.091	7.0
38.106	4.0
38.121	2.0
38.136	9.0
38.151	4.0
38.166	6.0
38.181	10.0
38.196	9.0
38.211	7.0
38.226	3.0
38.241	4.0
38.256	6.0
38.271	5.0
38.285	6.0
38.3	5.0
38.315	5.0
38.33	7.0
38.345	4.0
38.36	6.0
38.375	7.0
38.39	6.0
38.405	7.0
38.42	8.0
38.435	8.0
38.45	1.0
38.465	3.0
38.48	3.0
38.495	4.0
38.51	4.0
38.525	6.0
38.54	6.0
38.555	6.0
38.57	4.0
38.585	6.0
38.6	7.0
38.615	7.0
38.63	3.0
38.645	6.0
38.66	4.0
38.675	5.0
38.69	9.0
38.705	8.0
38.72	7.0
38.735	5.0
38.75	7.0
38.765	3.0
38.78	3.0
38.795	6.0
38.81	8.0
38.825	8.0
38.84	5.0
38.855	9.0
38.87	4.0
38.885	7.0
38.9	4.0
38.915	6.0
38.93	4.0
38.945	5.0
38.96	7.0
38.975	3.0
38.99	2.0
39.005	7.0
39.02	6.0
39.035	7.0
39.05	7.0
39.065	8.0
39.08	11.0
39.095	4.0
39.11	6.0
39.125	6.0
39.14	4.0
39.155	2.0
39.17	5.0
39.185	10.0
39.2	2.0
39.215	8.0
39.23	6.0
39.245	5.0
39.26	8.0
39.275	4.0
39.29	8.0
39.305	4.0
39.32	7.0
39.335	5.0
39.35	9.0
39.365	4.0
39.38	4.0
39.395	5.0
39.409	10.0
39.424	5.0
39.439	3.0
39.454	7.0
39.469	3.0
39.484	5.0
39.499	4.0
39.514	5.0
39.529	10.0
39.544	7.0
39.559	3.0
39.574	10.0
39.589	7.0
39.604	2.0
39.619	6.0
39.634	6.0
39.649	4.0
39.664	11.0
39.678	6.0
39.693	8.0
39.708	5.0
39.723	7.0
39.738	4.0
39.753	9.0
39.768	8.0
39.783	7.0
39.798	6.0
39.813	12.0
39.827	4.0
39.842	8.0
39.857	8.0
39.872	9.0
39.887	8.0
39.902	12.0
39.917	8.0
39.932	6.0
39.947	7.0
39.961	8.0
39.976	6.0
39.991	8.0
40.006	5.0
40.021	12.0
40.036	7.0
40.051	10.0
40.065	9.0
40.08	6.0
40.095	12.0
40.11	10.0
40.125	6.0
40.14	8.0
40.154	7.0
40.169	6.0
40.184	6.0
40.199	8.0
40.214	5.0
40.228	12.0
40.243	3.0
40.258	8.0
40.273	3.0
40.288	3.0
40.302	3.0
40.317	6.0
40.332	8.0
40.347	11.0
40.362	5.0
40.376	7.0
40.391	5.0
40.406	6.0
40.421	7.0
40.436	4.0
40.45	1.0
40.465	2.0
40.48	2.0
40.495	5.0
40.509	5.0
40.524	12.0
40.539	4.0
40.554	6.0
40.568	4.0
40.583	6.0
40.598	6.0
40.613	6.0
40.627	6.0
40.642	1.0
40.657	5.0
40.672	7.0
40.686	7.0
40.701	7.0
40.716	3.0
40.731	3.0
40.745	9.0
40.76	5.0
40.775	4.0
40.79	7.0
40.804	5.0
40.819	4.0
40.834	4.0
40.849	2.0
40.863	5.0
40.878	4.0
40.893	10.0
40.907	8.0
40.922	11.0
40.937	4.0
40.952	6.0
40.966	8.0
40.981	11.0
40.996	11.0
41.011	4.0
41.025	9.0
41.04	10.0
41.055	11.0
41.069	9.0
41.084	19.0
41.099	19.0
41.114	14.0
41.128	16.0
41.143	13.0
41.158	17.0
41.173	16.0
41.187	15.0
41.202	11.0
41.217	15.0
41.231	14.0
41.246	21.0
41.261	10.0
41.276	16.0
41.29	13.0
41.305	14.0
41.32	9.0
41.335	14.0
41.349	7.0
41.364	11.0
41.379	12.0
41.393	17.0
41.408	9.0
41.423	10.0
41.438	13.0
41.452	3.0
41.467	13.0
41.482	11.0
41.497	8.0
41.511	8.0
41.526	6.0
41.541	6.0
41.556	3.0
41.57	2.0
41.585	8.0
41.6	11.0
41.615	7.0
41.629	10.0
41.644	7.0
41.659	6.0
41.674	3.0
41.688	2.0
41.703	6.0
41.718	6.0
41.733	4.0
41.747	5.0
41.762	5.0
41.777	3.0
41.792	4.0
41.806	8.0
41.821	3.0
41.836	4.0
41.851	6.0
41.866	3.0
41.88	6.0
41.895	4.0
41.91	3.0
41.925	3.0
41.939	5.0
41.954	3.0
41.969	6.0
41.984	6.0
41.999	4.0
42.013	5.0
42.028	8.0
42.043	4.0
42.058	8.0
42.073	6.0
42.088	3.0
42.102	9.0
42.117	4.0
42.132	7.0
42.147	9.0
42.162	5.0
42.176	5.0
42.191	5.0
42.206	10.0
42.221	7.0
42.236	6.0
42.251	4.0
42.266	3.0
42.28	8.0
42.295	12.0
42.31	7.0
42.325	12.0
42.34	23.0
42.355	11.0
42.369	19.0
42.384	13.0
42.399	17.0
42.414	12.0
42.429	11.0
42.444	13.0
42.459	16.0
42.474	12.0
42.488	11.0
42.503	12.0
42.518	13.0
42.533	5.0
42.548	9.0
42.563	9.0
42.578	10.0
42.593	12.0
42.608	9.0
42.622	5.0
42.637	15.0
42.652	8.0
42.667	15.0
42.682	8.0
42.697	13.0
42.712	9.0
42.727	10.0
42.742	8.0
42.757	5.0
42.772	8.0
42.786	8.0
42.801	7.0
42.816	3.0
42.831	5.0
42.846	2.0
42.861	6.0
42.876	7.0
42.891	5.0
42.906	5.0
42.921	3.0
42.936	5.0
42.951	7.0
42.966	5.0
42.981	5.0
42.996	1.0
43.011	8.0
43.025	3.0
43.04	5.0
43.055	9.0
43.07	6.0
43.085	6.0
43.1	4.0
43.115	9.0
43.13	5.0
43.145	8.0
43.16	2.0
43.175	8.0
43.19	7.0
43.205	3.0
43.22	4.0
43.235	4.0
43.25	3.0
43.265	6.0
43.28	6.0
43.295	4.0
43.31	5.0
43.325	7.0
43.34	5.0
43.355	9.0
43.37	0.0
43.385	11.0
43.4	3.0
43.415	2.0
43.43	4.0
43.445	8.0
43.46	2.0
43.475	3.0
43.49	3.0
43.505	11.0
43.52	3.0
43.535	3.0
43.55	11.0
43.565	9.0
43.58	4.0
43.595	10.0
43.61	14.0
43.625	14.0
43.64	10.0
43.655	12.0
43.67	6.0
43.685	6.0
43.7	4.0
43.715	3.0
43.73	6.0
43.745	3.0
43.76	7.0
43.775	5.0
43.79	4.0
43.805	5.0
43.82	4.0
43.835	6.0
43.85	3.0
43.865	8.0
43.88	5.0
43.895	6.0
43.91	7.0
43.925	3.0
43.94	10.0
43.955	5.0
43.97	4.0
43.985	6.0
44.0	1.0
44.015	0.0
44.03	3.0
44.045	5.0
44.061	7.0
44.076	3.0
44.091	4.0
44.106	7.0
44.121	6.0
44.136	2.0
44.151	6.0
44.166	6.0
44.181	8.0
44.196	3.0
44.211	2.0
44.226	4.0
44.241	5.0
44.256	2.0
44.271	3.0
44.286	1.0
44.301	7.0
44.316	9.0
44.331	5.0
44.346	6.0
44.361	4.0
44.377	5.0
44.392	6.0
44.407	4.0
44.422	7.0
44.437	5.0
44.452	3.0
44.467	4.0
44.482	7.0
44.497	4.0
44.512	3.0
44.527	5.0
44.542	6.0
44.557	6.0
44.572	6.0
44.587	5.0
44.602	9.0
44.617	5.0
44.632	11.0
44.647	4.0
44.663	7.0
44.678	9.0
44.693	4.0
44.708	4.0
44.723	7.0
44.738	9.0
44.753	6.0
44.768	3.0
44.783	13.0
44.798	8.0
44.813	11.0
44.828	11.0
44.843	14.0
44.858	8.0
44.873	7.0
44.888	9.0
44.903	8.0
44.918	4.0
44.933	6.0
44.948	7.0
44.964	6.0
44.979	4.0
44.994	11.0
45.009	6.0
45.024	11.0
45.039	11.0
45.054	4.0
45.069	4.0
45.084	3.0
45.099	7.0
45.114	9.0
45.129	5.0
45.144	5.0
45.159	4.0
45.174	4.0
45.189	7.0
45.204	3.0
45.219	7.0
45.234	7.0
45.249	2.0
45.264	6.0
45.279	5.0
45.294	8.0
45.309	7.0
45.324	6.0
45.339	3.0
45.354	7.0
45.369	4.0
45.384	9.0
45.399	6.0
45.414	4.0
45.429	8.0
45.444	6.0
45.459	4.0
45.474	7.0
45.489	4.0
45.504	5.0
45.519	7.0
45.534	6.0
45.549	4.0
45.564	2.0
45.579	1.0
45.594	5.0
45.609	2.0
45.624	4.0
45.639	7.0
45.654	5.0
45.669	6.0
45.684	8.0
45.699	7.0
45.714	6.0
45.729	6.0
45.744	4.0
45.759	5.0
45.774	6.0
45.789	4.0
45.804	5.0
45.819	5.0
45.834	5.0
45.849	4.0
45.864	9.0
45.879	8.0
45.894	10.0
45.909	15.0
45.924	14.0
45.939	11.0
45.954	16.0
45.969	12.0
45.984	18.0
45.998	20.0
46.013	17.0
46.028	11.0
46.043	7.0
46.058	16.0
46.073	21.0
46.088	10.0
46.103	15.0
46.118	6.0
46.133	13.0
46.148	7.0
46.163	3.0
46.178	6.0
46.192	5.0
46.207	7.0
46.222	8.0
46.237	12.0
46.252	10.0
46.267	10.0
46.282	2.0
46.297	11.0
46.312	9.0
46.327	16.0
46.341	10.0
46.356	10.0
46.371	7.0
46.386	8.0
46.401	8.0
46.416	13.0
46.431	8.0
46.446	5.0
46.46	6.0
46.475	5.0
46.49	5.0
46.505	9.0
46.52	2.0
46.535	3.0
46.55	6.0
46.564	3.0
46.579	4.0
46.594	7.0
46.609	5.0
46.624	6.0
46.639	6.0
46.654	1.0
46.668	10.0
46.683	7.0
46.698	3.0
46.713	2.0
46.728	3.0
46.743	6.0
46.758	3.0
46.772	4.0
46.787	4.0
46.802	3.0
46.817	5.0
46.832	3.0
46.847	5.0
46.861	4.0
46.876	4.0
46.891	6.0
46.906	3.0
46.921	3.0
46.936	9.0
46.95	7.0
46.965	7.0
46.98	5.0
46.995	2.0
47.01	9.0
47.025	4.0
47.039	9.0
47.054	8.0
47.069	9.0
47.084	6.0
47.099	8.0
47.113	12.0
47.128	7.0
47.143	10.0
47.158	12.0
47.173	15.0
47.188	10.0
47.202	8.0
47.217	3.0
47.232	8.0
47.247	8.0
47.262	5.0
47.277	14.0
47.291	3.0
47.306	7.0
47.321	6.0
47.336	2.0
47.351	5.0
47.365	4.0
47.38	11.0
47.395	7.0
47.41	11.0
47.425	8.0
47.44	4.0
47.454	5.0
47.469	4.0
47.484	5.0
47.499	8.0
47.514	5.0
47.528	5.0
47.543	5.0
47.558	5.0
47.573	7.0
47.588	2.0
47.603	3.0
47.617	5.0
47.632	6.0
47.647	5.0
47.662	4.0
47.677	4.0
47.691	4.0
47.706	4.0
47.721	4.0
47.736	3.0
47.751	7.0
47.766	5.0
47.78	4.0
47.795	4.0
47.81	4.0
47.825	4.0
47.84	3.0
47.855	3.0
47.869	4.0
47.884	5.0
47.899	2.0
47.914	1.0
47.929	5.0
47.944	7.0
47.958	3.0
47.973	3.0
47.988	8.0
48.003	2.0
48.018	6.0
48.033	5.0
48.047	5.0
48.062	2.0
48.077	1.0
48.092	6.0
48.107	6.0
48.122	5.0
48.137	7.0
48.151	3.0
48.166	4.0
48.181	7.0
48.196	4.0
48.211	7.0
48.226	9.0
48.241	1.0
48.255	4.0
48.27	2.0
48.285	5.0
48.3	4.0
48.315	1.0
48.33	7.0
48.345	3.0
48.359	1.0
48.374	3.0
48.389	6.0
48.404	5.0
48.419	8.0
48.434	2.0
48.449	6.0
48.464	9.0
48.478	3.0
48.493	4.0
48.508	4.0
48.523	4.0
48.538	1.0
48.553	7.0
48.568	4.0
48.583	3.0
48.597	5.0
48.612	6.0
48.627	4.0
48.642	2.0
48.657	2.0
48.672	7.0
48.687	5.0
48.702	9.0
48.717	7.0
48.731	5.0
48.746	6.0
48.761	5.0
48.776	2.0
48.791	4.0
48.806	2.0
48.821	7.0
48.836	3.0
48.851	4.0
48.866	4.0
48.88	5.0
48.895	2.0
48.91	4.0
48.925	2.0
48.94	3.0
48.955	7.0
48.97	6.0
48.985	2.0
49.0	5.0
49.015	5.0
49.03	5.0
49.044	3.0
49.059	2.0
49.074	3.0
49.089	5.0
49.104	3.0
49.119	6.0
49.134	7.0
49.149	8.0
49.164	1.0
49.179	4.0
49.194	11.0
49.209	3.0
49.224	6.0
49.238	4.0
49.253	3.0
49.268	6.0
49.283	9.0
49.298	6.0
49.313	7.0
49.328	3.0
49.343	5.0
49.358	6.0
49.373	9.0
49.388	7.0
49.403	4.0
49.418	11.0
49.433	7.0
49.448	5.0
49.463	6.0
49.478	5.0
49.492	4.0
49.507	3.0
49.522	4.0
49.537	7.0
49.552	4.0
49.567	3.0
49.582	3.0
49.597	5.0
49.612	11.0
49.627	7.0
49.642	8.0
49.657	3.0
49.672	3.0
49.687	13.0
49.702	9.0
49.717	2.0
49.732	7.0
49.747	7.0
49.762	5.0
49.777	5.0
49.792	3.0
49.807	4.0
49.822	3.0
49.837	4.0
49.852	6.0
49.867	5.0
49.882	8.0
49.897	6.0
49.912	6.0
49.927	0.0
49.942	8.0
49.957	6.0
49.971	3.0
49.986	7.0
50.001	5.0
50.016	4.0
50.031	5.0
50.046	4.0
50.061	2.0
50.076	6.0
50.091	5.0
50.106	8.0
50.121	7.0
50.136	5.0
50.151	5.0
50.166	4.0
50.181	4.0
50.196	5.0
50.211	5.0
50.226	6.0
50.241	5.0
50.256	3.0
50.271	8.0
50.286	6.0
50.302	8.0
50.317	9.0
50.332	6.0
50.347	4.0
50.362	5.0
50.377	7.0
50.392	6.0
50.407	5.0
50.422	8.0
50.437	9.0
50.452	11.0
50.467	14.0
50.482	12.0
50.497	4.0
50.512	10.0
50.527	5.0
50.542	9.0
50.557	7.0
50.572	6.0
50.587	9.0
50.602	8.0
50.617	6.0
50.632	4.0
50.647	2.0
50.662	7.0
50.677	7.0
50.692	3.0
50.707	6.0
50.722	5.0
50.737	4.0
50.752	3.0
50.767	7.0
50.782	8.0
50.797	7.0
50.812	5.0
50.828	5.0
50.843	5.0
50.858	12.0
50.873	2.0
50.888	4.0
50.903	6.0
50.918	5.0
50.933	4.0
50.948	6.0
50.963	8.0
50.978	4.0
50.993	8.0
51.008	2.0
51.023	3.0
51.038	2.0
51.053	4.0
51.068	5.0
51.083	2.0
51.098	7.0
51.114	5.0
51.129	5.0
51.144	5.0
51.159	8.0
51.174	8.0
51.189	5.0
51.204	1.0
51.219	6.0
51.234	11.0
51.249	3.0
51.264	5.0
51.279	2.0
51.294	1.0
51.309	3.0
51.324	4.0
51.34	8.0
51.355	7.0
51.37	3.0
51.385	4.0
51.4	8.0
51.415	9.0
51.43	8.0
51.445	3.0
51.46	6.0
51.475	12.0
51.49	13.0
51.505	16.0
51.52	10.0
51.535	15.0
51.551	15.0
51.566	17.0
51.581	14.0
51.596	11.0
51.611	5.0
51.626	9.0
51.641	8.0
51.656	6.0
51.671	7.0
51.686	9.0
51.701	5.0
51.716	8.0
51.732	7.0
51.747	8.0
51.762	15.0
51.777	6.0
51.792	3.0
51.807	8.0
51.822	8.0
51.837	7.0
51.852	6.0
51.867	13.0
51.882	10.0
51.898	13.0
51.913	11.0
51.928	5.0
51.943	4.0
51.958	9.0
51.973	2.0
51.988	4.0
52.003	5.0
52.018	10.0
52.033	9.0
52.048	4.0
52.064	3.0
52.079	7.0
52.094	3.0
52.109	5.0
52.124	1.0
52.139	1.0
52.154	2.0
52.169	4.0
52.184	5.0
52.199	7.0
52.215	3.0
52.23	1.0
52.245	4.0
52.26	3.0
52.275	4.0
52.29	2.0
52.305	6.0
52.32	0.0
52.335	6.0
52.35	4.0
52.366	2.0
52.381	5.0
52.396	6.0
52.411	11.0
52.426	5.0
52.441	10.0
52.456	4.0
52.471	7.0
52.486	2.0
52.502	12.0
52.517	9.0
52.532	12.0
52.547	10.0
52.562	8.0
52.577	9.0
52.592	11.0
52.607	9.0
52.622	6.0
52.637	9.0
52.653	9.0
52.668	5.0
52.683	6.0
52.698	8.0
52.713	6.0
52.728	4.0
52.743	4.0
52.758	2.0
52.774	11.0
52.789	6.0
52.804	3.0
52.819	7.0
52.834	1.0
52.849	3.0
52.864	4.0
52.879	7.0
52.894	3.0
52.91	7.0
52.925	4.0
52.94	5.0
52.955	3.0
52.97	6.0
52.985	7.0
53.0	5.0
53.015	9.0
53.031	6.0
53.046	3.0
53.061	3.0
53.076	4.0
53.091	6.0
53.106	6.0
53.121	1.0
53.136	9.0
53.152	2.0
53.167	5.0
53.182	6.0
53.197	5.0
53.212	6.0
53.227	1.0
53.242	5.0
53.257	6.0
53.273	2.0
53.288	3.0
53.303	4.0
53.318	7.0
53.333	3.0
53.348	4.0
53.363	5.0
53.379	1.0
53.394	4.0
53.409	2.0
53.424	5.0
53.439	6.0
53.454	5.0
53.469	8.0
53.484	8.0
53.5	6.0
53.515	3.0
53.53	4.0
53.545	6.0
53.56	4.0
53.575	4.0
53.59	4.0
53.606	2.0
53.621	6.0
53.636	5.0
53.651	3.0
53.666	4.0
53.681	5.0
53.696	7.0
53.712	3.0
53.727	7.0
53.742	4.0
53.757	2.0
53.772	6.0
53.787	6.0
53.802	4.0
53.818	7.0
53.833	7.0
53.848	7.0
53.863	5.0
53.878	7.0
53.893	4.0
53.909	4.0
53.924	3.0
53.939	5.0
53.954	7.0
53.969	3.0
53.984	5.0
53.999	4.0
54.015	6.0
54.03	7.0
54.045	7.0
54.06	4.0
54.075	3.0
54.09	6.0
54.106	7.0
54.121	6.0
54.136	4.0
54.151	6.0
54.166	4.0
54.181	6.0
54.197	5.0
54.212	0.0
54.227	2.0
54.242	5.0
54.257	5.0
54.272	3.0
54.288	7.0
54.303	8.0
54.318	3.0
54.333	6.0
54.348	4.0
54.363	5.0
54.379	6.0
54.394	4.0
54.409	6.0
54.424	4.0
54.439	3.0
54.454	5.0
54.47	7.0
54.485	10.0
54.5	5.0
54.515	7.0
54.53	7.0
54.545	8.0
54.561	10.0
54.576	13.0
54.591	6.0
54.606	9.0
54.621	10.0
54.636	10.0
54.652	15.0
54.667	19.0
54.682	11.0
54.697	11.0
54.712	10.0
54.727	6.0
54.743	11.0
54.758	7.0
54.773	4.0
54.788	6.0
54.803	5.0
54.819	5.0
54.834	3.0
54.849	7.0
54.864	5.0
54.879	8.0
54.894	7.0
54.91	5.0
54.925	4.0
54.94	8.0
54.955	8.0
54.97	8.0
54.985	6.0
55.001	12.0
55.016	4.0
55.031	9.0
55.046	8.0
55.061	8.0
55.077	5.0
55.092	6.0
55.107	5.0
55.122	6.0
55.137	2.0
55.152	3.0
55.168	3.0
55.183	3.0
55.198	7.0
55.213	5.0
55.228	4.0
55.243	0.0
55.259	5.0
55.274	2.0
55.289	4.0
55.304	3.0
55.319	2.0
55.335	1.0
55.35	5.0
55.365	8.0
55.38	4.0
55.395	1.0
55.41	6.0
55.426	6.0
55.441	6.0
55.456	6.0
55.471	3.0
55.486	1.0
55.501	3.0
55.517	2.0
55.532	5.0
55.547	1.0
55.562	2.0
55.577	8.0
55.592	5.0
55.608	6.0
55.623	0.0
55.638	4.0
55.653	4.0
55.668	8.0
55.683	5.0
55.699	2.0
55.714	3.0
55.729	3.0
55.744	4.0
55.759	9.0
55.774	9.0
55.79	4.0
55.805	4.0
55.82	4.0
55.835	5.0
55.85	7.0
55.865	5.0
55.881	5.0
55.896	14.0
55.911	6.0
55.926	7.0
55.941	4.0
55.956	5.0
55.972	8.0
55.987	8.0
56.002	6.0
56.017	4.0
56.032	8.0
56.047	7.0
56.063	12.0
56.078	6.0
56.093	8.0
56.108	5.0
56.123	10.0
56.138	8.0
56.154	4.0
56.169	6.0
56.184	4.0
56.199	6.0
56.214	6.0
56.229	10.0
56.244	4.0
56.26	3.0
56.275	8.0
56.29	5.0
56.305	3.0
56.32	6.0
56.335	6.0
56.351	3.0
56.366	9.0
56.381	5.0
56.396	2.0
56.411	4.0
56.426	10.0
56.441	2.0
56.457	4.0
56.472	1.0
56.487	3.0
56.502	1.0
56.517	5.0
56.532	6.0
56.547	3.0
56.563	6.0
56.578	1.0
56.593	7.0
56.608	7.0
56.623	8.0
56.638	1.0
56.653	3.0
56.668	3.0
56.684	2.0
56.699	4.0
56.714	2.0
56.729	0.0
56.744	6.0
56.759	2.0
56.774	2.0
56.79	4.0
56.805	5.0
56.82	6.0
56.835	4.0
56.85	5.0
56.865	3.0
56.88	4.0
56.895	5.0
56.911	3.0
56.926	3.0
56.941	8.0
56.956	3.0
56.971	1.0
56.986	6.0
57.001	3.0
57.016	6.0
57.031	6.0
57.047	8.0
57.062	2.0
57.077	2.0
57.092	4.0
57.107	3.0
57.122	3.0
57.137	0.0
57.152	7.0
57.167	4.0
57.183	4.0
57.198	2.0
57.213	7.0
57.228	4.0
57.243	8.0
57.258	2.0
57.273	4.0
57.288	3.0
57.303	4.0
57.318	6.0
57.334	2.0
57.349	6.0
57.364	3.0
57.379	3.0
57.394	5.0
57.409	3.0
57.424	1.0
57.439	5.0
57.454	3.0
57.469	2.0
57.484	8.0
57.5	1.0
57.515	5.0
57.53	4.0
57.545	4.0
57.56	4.0
57.575	5.0
57.59	5.0
57.605	2.0
57.62	4.0
57.635	3.0
57.65	9.0
57.665	4.0
57.68	6.0
57.696	3.0
57.711	6.0
57.726	5.0
57.741	2.0
57.756	5.0
57.771	3.0
57.786	5.0
57.801	1.0
57.816	5.0
57.831	2.0
57.846	7.0
57.861	5.0
57.876	4.0
57.891	8.0
57.906	1.0
57.921	9.0
57.937	5.0
57.952	5.0
57.967	5.0
57.982	6.0
57.997	8.0
58.012	5.0
58.027	1.0
58.042	8.0
58.057	5.0
58.072	7.0
58.087	4.0
58.102	4.0
58.117	4.0
58.132	1.0
58.147	4.0
58.162	4.0
58.177	4.0
58.192	4.0
58.207	7.0
58.222	4.0
58.237	3.0
58.252	3.0
58.267	4.0
58.282	3.0
58.297	5.0
58.312	2.0
58.327	5.0
58.342	3.0
58.357	7.0
58.372	3.0
58.387	6.0
58.402	4.0
58.418	6.0
58.433	5.0
58.448	2.0
58.463	2.0
58.478	8.0
58.493	7.0
58.508	1.0
58.523	5.0
58.538	6.0
58.553	4.0
58.568	4.0
58.583	9.0
58.598	10.0
58.613	8.0
58.628	12.0
58.643	13.0
58.658	9.0
58.673	11.0
58.688	11.0
58.703	11.0
58.718	7.0
58.733	3.0
58.748	2.0
58.763	5.0
58.778	1.0
58.793	7.0
58.808	4.0
58.823	2.0
58.838	4.0
58.853	1.0
58.868	7.0
58.883	5.0
58.898	7.0
58.913	6.0
58.928	5.0
58.942	4.0
58.957	7.0
58.972	8.0
58.987	12.0
59.002	5.0
59.017	9.0
59.032	10.0
59.047	9.0
59.062	5.0
59.077	3.0
59.092	7.0
59.107	4.0
59.122	8.0
59.137	7.0
59.152	3.0
59.167	2.0
59.182	5.0
59.197	9.0
59.212	0.0
59.227	4.0
59.242	2.0
59.257	3.0
59.272	4.0
59.287	4.0
59.302	5.0
59.317	4.0
59.332	10.0
59.347	2.0
59.362	2.0
59.377	2.0
59.392	5.0
59.407	3.0
59.422	2.0
59.437	5.0
59.452	2.0
59.467	6.0
59.482	6.0
59.497	4.0
59.512	4.0
59.527	3.0
59.542	3.0
59.557	13.0
59.572	5.0
59.587	9.0
59.602	8.0
59.617	9.0
59.632	10.0
59.647	7.0
59.661	5.0
59.676	3.0
59.691	7.0
59.706	3.0
59.721	6.0
59.736	3.0
59.751	5.0
59.766	7.0
59.781	6.0
59.796	6.0
59.811	11.0
59.826	4.0
59.841	1.0
59.856	5.0
59.871	5.0
59.886	7.0
59.901	3.0
59.916	3.0
59.931	3.0
59.946	7.0
59.961	3.0
59.976	4.0
59.991	9.0
60.006	6.0
60.021	5.0
60.036	9.0
60.051	5.0
60.066	7.0
60.081	6.0
60.096	1.0
60.111	7.0
60.126	5.0
60.141	3.0
60.156	6.0
60.171	2.0
60.186	3.0
60.201	7.0
60.216	3.0
60.231	2.0
60.246	0.0
60.261	4.0
60.276	3.0
60.291	3.0
60.306	4.0
60.321	3.0
60.336	4.0
60.35	6.0
60.365	3.0
60.38	5.0
60.395	4.0
60.41	3.0
60.425	5.0
60.44	1.0
60.455	3.0
60.47	3.0
60.485	7.0
60.5	5.0
60.515	7.0
60.53	10.0
60.545	8.0
60.56	8.0
60.575	11.0
60.59	1.0
60.605	7.0
60.62	5.0
60.635	6.0
60.65	5.0
60.665	7.0
60.68	7.0
60.695	3.0
60.71	4.0
60.725	2.0
60.74	4.0
60.755	3.0
60.77	5.0
60.785	4.0
60.8	2.0
60.815	3.0
60.83	5.0
60.845	7.0
60.86	5.0
60.875	5.0
60.89	1.0
60.905	5.0
60.92	7.0
60.935	4.0
60.95	3.0
60.965	4.0
60.98	5.0
60.995	2.0
61.01	6.0
61.025	6.0
61.04	6.0
61.055	3.0
61.07	9.0
61.085	5.0
61.1	3.0
61.115	4.0
61.13	5.0
61.145	6.0
61.16	3.0
61.175	4.0
61.191	2.0
61.206	3.0
61.221	6.0
61.236	4.0
61.251	3.0
61.266	2.0
61.281	3.0
61.296	4.0
61.311	5.0
61.326	4.0
61.341	5.0
61.356	4.0
61.371	1.0
61.386	6.0
61.401	7.0
61.416	6.0
61.431	3.0
61.446	2.0
61.461	3.0
61.476	1.0
61.491	7.0
61.506	6.0
61.521	7.0
61.536	7.0
61.551	10.0
61.566	4.0
61.581	5.0
61.596	4.0
61.611	6.0
61.626	5.0
61.641	3.0
61.656	4.0
61.672	4.0
61.687	2.0
61.702	1.0
61.717	4.0
61.732	6.0
61.747	3.0
61.762	5.0
61.777	7.0
61.792	3.0
61.807	6.0
61.822	4.0
61.837	3.0
61.852	2.0
61.867	5.0
61.882	8.0
61.897	1.0
61.912	6.0
61.927	1.0
61.943	2.0
61.958	3.0
61.973	2.0
61.988	6.0
62.003	4.0
62.018	3.0
62.033	3.0
62.048	3.0
62.063	1.0
62.078	1.0
62.093	2.0
62.108	5.0
62.123	3.0
62.138	2.0
62.153	3.0
62.169	5.0
62.184	1.0
62.199	1.0
62.214	3.0
62.229	5.0
62.244	7.0
62.259	3.0
62.274	1.0
62.289	4.0
62.304	3.0
62.319	5.0
62.335	8.0
62.35	4.0
62.365	5.0
62.38	2.0
62.395	4.0
62.41	7.0
62.425	1.0
62.44	5.0
62.455	5.0
62.47	4.0
62.485	5.0
62.501	7.0
62.516	5.0
62.531	3.0
62.546	7.0
62.561	1.0
62.576	4.0
62.591	5.0
62.606	8.0
62.621	1.0
62.636	3.0
62.652	3.0
62.667	2.0
62.682	2.0
62.697	1.0
62.712	4.0
62.727	4.0
62.742	1.0
62.757	2.0
62.772	6.0
62.787	6.0
62.803	6.0
62.818	5.0
62.833	5.0
62.848	3.0
62.863	2.0
62.878	5.0
62.893	4.0
62.908	4.0
62.923	1.0
62.939	12.0
62.954	2.0
62.969	1.0
62.984	6.0
62.999	6.0
63.014	5.0
63.029	1.0
63.044	5.0
63.059	5.0
63.074	2.0
63.09	4.0
63.105	4.0
63.12	4.0
63.135	4.0
63.15	5.0
63.165	6.0
63.18	5.0
63.195	3.0
63.21	6.0
63.226	3.0
63.241	1.0
63.256	4.0
63.271	4.0
63.286	8.0
63.301	8.0
63.316	7.0
63.331	5.0
63.346	5.0
63.362	6.0
63.377	9.0
63.392	8.0
63.407	10.0
63.422	6.0
63.437	4.0
63.452	3.0
63.467	5.0
63.482	8.0
63.497	5.0
63.513	5.0
63.528	2.0
63.543	2.0
63.558	6.0
63.573	3.0
63.588	2.0
63.603	4.0
63.618	5.0
63.633	3.0
63.648	6.0
63.664	9.0
63.679	2.0
63.694	8.0
63.709	2.0
63.724	4.0
63.739	3.0
63.754	6.0
63.769	3.0
63.784	8.0
63.799	4.0
63.814	3.0
63.83	6.0
63.845	4.0
63.86	5.0
63.875	6.0
63.89	4.0
63.905	8.0
63.92	6.0
63.935	5.0
63.95	7.0
63.965	6.0
63.98	1.0
63.996	1.0
64.011	4.0
64.026	4.0
64.041	4.0
64.056	7.0
64.071	6.0
64.086	4.0
64.101	4.0
64.116	3.0
64.131	3.0
64.146	8.0
64.161	4.0
64.176	5.0
64.191	3.0
64.207	4.0
64.222	3.0
64.237	5.0
64.252	3.0
64.267	6.0
64.282	4.0
64.297	5.0
64.312	3.0
64.327	6.0
64.342	4.0
64.357	3.0
64.372	3.0
64.387	4.0
64.402	0.0
64.417	5.0
64.433	3.0
64.448	4.0
64.463	3.0
64.478	5.0
64.493	9.0
64.508	1.0
64.523	3.0
64.538	2.0
64.553	4.0
64.568	1.0
64.583	2.0
64.598	1.0
64.613	5.0
64.628	4.0
64.643	3.0
64.658	3.0
64.673	2.0
64.688	4.0
64.703	3.0
64.718	2.0
64.734	2.0
64.749	3.0
64.764	4.0
64.779	8.0
64.794	4.0
64.809	3.0
64.824	4.0
64.839	7.0
64.854	5.0
64.869	1.0
64.884	2.0
64.899	6.0
64.914	6.0
64.929	7.0
64.944	2.0
64.959	2.0
64.974	4.0
64.989	3.0
65.004	3.0
65.019	4.0
65.034	6.0
65.049	4.0
65.064	4.0
65.079	3.0
65.094	4.0
65.109	6.0
65.125	1.0
65.14	2.0
65.155	7.0
65.17	6.0
65.185	4.0
65.2	10.0
65.215	4.0
65.23	4.0
65.245	3.0
65.26	0.0
65.275	3.0
65.29	3.0
65.305	2.0
65.32	8.0
65.335	2.0
65.35	7.0
65.365	3.0
65.38	7.0
65.395	4.0
65.41	1.0
65.425	3.0
65.44	4.0
65.455	3.0
65.47	4.0
65.485	3.0
65.5	5.0
65.515	1.0
65.53	4.0
65.545	6.0
65.56	4.0
65.575	1.0
65.59	5.0
65.605	1.0
65.62	2.0
65.635	7.0
65.65	3.0
65.666	5.0
65.681	4.0
65.696	5.0
65.711	0.0
65.726	3.0
65.741	6.0
65.756	5.0
65.771	1.0
65.786	2.0
65.801	4.0
65.816	5.0
65.831	3.0
65.846	4.0
65.861	2.0
65.876	3.0
65.891	4.0
65.906	2.0
65.921	5.0
65.936	2.0
65.951	5.0
65.966	3.0
65.981	7.0
65.996	3.0
66.011	4.0
66.026	6.0
66.041	3.0
66.056	5.0
66.071	3.0
66.086	5.0
66.101	4.0
66.116	7.0
66.131	7.0
66.146	7.0
66.161	5.0
66.176	6.0
66.191	7.0
66.206	5.0
66.221	6.0
66.236	5.0
66.251	6.0
66.266	6.0
66.281	4.0
66.296	3.0
66.311	4.0
66.327	2.0
66.342	5.0
66.357	5.0
66.372	2.0
66.387	2.0
66.402	3.0
66.417	5.0
66.432	4.0
66.447	6.0
66.462	7.0
66.477	8.0
66.492	5.0
66.507	5.0
66.522	5.0
66.537	5.0
66.552	5.0
66.567	7.0
66.582	8.0
66.597	4.0
66.612	8.0
66.627	8.0
66.642	6.0
66.657	6.0
66.672	9.0
66.687	2.0
66.702	6.0
66.717	4.0
66.732	2.0
66.747	5.0
66.762	2.0
66.777	2.0
66.792	1.0
66.807	3.0
66.822	4.0
66.837	5.0
66.853	2.0
66.868	3.0
66.883	3.0
66.898	4.0
66.913	4.0
66.928	3.0
66.943	1.0
66.958	4.0
66.973	2.0
66.988	6.0
67.003	4.0
67.018	8.0
67.033	3.0
67.048	3.0
67.063	4.0
67.078	6.0
67.093	5.0
67.108	3.0
67.123	4.0
67.138	5.0
67.153	6.0
67.168	6.0
67.183	4.0
67.198	3.0
67.214	1.0
67.229	3.0
67.244	6.0
67.259	4.0
67.274	4.0
67.289	6.0
67.304	3.0
67.319	6.0
67.334	2.0
67.349	5.0
67.364	3.0
67.379	7.0
67.394	5.0
67.409	4.0
67.424	2.0
67.439	5.0
67.454	2.0
67.469	4.0
67.484	4.0
67.5	5.0
67.515	2.0
67.53	6.0
67.545	3.0
67.56	10.0
67.575	3.0
67.59	4.0
67.605	0.0
67.62	3.0
67.635	4.0
67.65	3.0
67.665	2.0
67.68	3.0
67.695	7.0
67.71	3.0
67.726	3.0
67.741	1.0
67.756	4.0
67.771	6.0
67.786	2.0
67.801	6.0
67.816	0.0
67.831	0.0
67.846	3.0
67.861	2.0
67.876	5.0
67.891	4.0
67.906	0.0
67.922	0.0
67.937	4.0
67.952	4.0
67.967	3.0
67.982	4.0
67.997	3.0
68.012	2.0
68.027	1.0
68.042	7.0
68.057	4.0
68.072	6.0
68.087	3.0
68.103	4.0
68.118	0.0
68.133	6.0
68.148	8.0
68.163	7.0
68.178	2.0
68.193	6.0
68.208	2.0
68.223	2.0
68.238	2.0
68.254	5.0
68.269	3.0
68.284	5.0
68.299	5.0
68.314	5.0
68.329	4.0
68.344	3.0
68.359	4.0
68.374	3.0
68.389	1.0
68.405	4.0
68.42	3.0
68.435	3.0
68.45	4.0
68.465	3.0
68.48	8.0
68.495	2.0
68.51	0.0
68.525	4.0
68.54	4.0
68.556	4.0
68.571	3.0
68.586	3.0
68.601	6.0
68.616	2.0
68.631	6.0
68.646	6.0
68.661	1.0
68.676	4.0
68.691	5.0
68.707	3.0
68.722	5.0
68.737	1.0
68.752	5.0
68.767	2.0
68.782	3.0
68.797	0.0
68.812	2.0
68.827	5.0
68.842	3.0
68.857	7.0
68.873	6.0
68.888	1.0
68.903	5.0
68.918	10.0
68.933	5.0
68.948	9.0
68.963	3.0
68.978	6.0
68.993	2.0
69.008	5.0
69.023	2.0
69.038	5.0
69.054	4.0
69.069	5.0
69.084	5.0
69.099	1.0
69.114	5.0
69.129	2.0
69.144	3.0
69.159	2.0
69.174	1.0
69.189	4.0
69.204	5.0
69.219	1.0
69.234	2.0
69.249	3.0
69.264	4.0
69.279	4.0
69.295	4.0
69.31	5.0
69.325	1.0
69.34	3.0
69.355	4.0
69.37	4.0
69.385	5.0
69.4	4.0
69.415	1.0
69.43	3.0
69.445	7.0
69.46	3.0
69.475	3.0
69.49	3.0
69.505	5.0
69.52	8.0
69.535	4.0
69.55	4.0
69.565	5.0
69.58	4.0
69.595	4.0
69.61	2.0
69.625	4.0
69.64	3.0
69.655	2.0
69.67	6.0
69.685	2.0
69.7	5.0
69.715	4.0
69.73	4.0
69.745	5.0
69.76	3.0
69.775	4.0
69.79	3.0
69.805	9.0
69.82	5.0
69.835	7.0
69.85	3.0
69.865	7.0
69.88	3.0
69.895	1.0
69.909	3.0
69.924	1.0
69.939	1.0
69.954	1.0
69.969	6.0
69.984	4.0
69.999	2.0
70.014	2.0
70.029	4.0
70.044	5.0
70.059	4.0
70.074	4.0
70.088	4.0
70.103	3.0
70.118	5.0
70.133	5.0
70.148	3.0
70.163	2.0
70.178	1.0
70.193	1.0
70.208	7.0
70.222	5.0
70.237	5.0
70.252	4.0
70.267	7.0
70.282	1.0
70.297	4.0
70.312	4.0
70.327	8.0
70.341	2.0
70.356	9.0
70.371	5.0
70.386	7.0
70.401	5.0
70.416	4.0
70.43	8.0
70.445	5.0
70.46	6.0
70.475	2.0
70.49	6.0
70.505	2.0
70.519	4.0
70.534	7.0
70.549	4.0
70.564	2.0
70.579	0.0
70.594	4.0
70.608	3.0
70.623	2.0
70.638	5.0
70.653	5.0
70.668	6.0
70.683	4.0
70.697	3.0
70.712	2.0
70.727	3.0
70.742	2.0
70.757	5.0
70.771	2.0
70.786	4.0
70.801	2.0
70.816	2.0
70.831	6.0
70.845	3.0
70.86	6.0
70.875	8.0
70.89	2.0
70.905	0.0
70.92	4.0
70.934	4.0
70.949	3.0
70.964	2.0
70.979	1.0
70.994	5.0
71.008	2.0
71.023	2.0
71.038	3.0
71.053	6.0
71.068	3.0
71.082	3.0
71.097	5.0
71.112	3.0
71.127	3.0
71.142	3.0
71.156	6.0
71.171	1.0
71.186	8.0
71.201	7.0
71.216	6.0
71.231	5.0
71.245	3.0
71.26	6.0
71.275	5.0
71.29	2.0
71.305	3.0
71.319	1.0
71.334	9.0
71.349	3.0
71.364	0.0
71.379	4.0
71.394	1.0
71.408	1.0
71.423	5.0
71.438	2.0
71.453	5.0
71.468	2.0
71.483	9.0
71.497	0.0
71.512	5.0
71.527	2.0
71.542	3.0
71.557	4.0
71.572	2.0
71.586	2.0
71.601	4.0
71.616	3.0
71.631	0.0
71.646	1.0
71.661	1.0
71.676	3.0
71.69	4.0
71.705	6.0
71.72	4.0
71.735	2.0
71.75	1.0
71.765	8.0
71.78	4.0
71.795	4.0
71.81	2.0
71.824	2.0
71.839	8.0
71.854	4.0
71.869	5.0
71.884	6.0
71.899	4.0
71.914	2.0
71.929	3.0
71.944	2.0
71.959	2.0
71.974	7.0
71.988	2.0
72.003	3.0
72.018	2.0
72.033	1.0
72.048	2.0
72.063	4.0
72.078	4.0
72.093	3.0
72.108	3.0
72.123	2.0
72.138	6.0
72.153	1.0
72.168	4.0
72.183	2.0
72.198	3.0
72.213	6.0
72.228	2.0
72.243	5.0
72.258	5.0
72.273	3.0
72.288	3.0
72.303	1.0
72.318	1.0
72.333	2.0
72.348	3.0
72.363	3.0
72.378	3.0
72.393	3.0
72.408	4.0
72.423	4.0
72.438	3.0
72.453	2.0
72.468	3.0
72.483	5.0
72.498	3.0
72.513	3.0
72.528	0.0
72.543	2.0
72.558	4.0
72.573	5.0
72.588	5.0
72.603	5.0
72.618	5.0
72.633	5.0
72.649	2.0
72.664	2.0
72.679	5.0
72.694	2.0
72.709	3.0
72.724	3.0
72.739	4.0
72.754	1.0
72.769	4.0
72.784	0.0
72.799	6.0
72.814	2.0
72.829	3.0
72.845	0.0
72.86	6.0
72.875	3.0
72.89	4.0
72.905	5.0
72.92	2.0
72.935	3.0
72.95	1.0
72.965	5.0
72.98	0.0
72.996	6.0
73.011	1.0
73.026	5.0
73.041	3.0
73.056	3.0
73.071	2.0
73.086	4.0
73.101	2.0
73.117	3.0
73.132	7.0
73.147	1.0
73.162	3.0
73.177	0.0
73.192	3.0
73.207	3.0
73.222	3.0
73.238	5.0
73.253	3.0
73.268	11.0
73.283	7.0
73.298	1.0
73.313	3.0
73.328	3.0
73.343	5.0
73.359	5.0
73.374	7.0
73.389	3.0
73.404	3.0
73.419	7.0
73.434	3.0
73.449	1.0
73.465	2.0
73.48	4.0
73.495	5.0
73.51	1.0
73.525	4.0
73.54	3.0
73.556	0.0
73.571	3.0
73.586	1.0
73.601	5.0
73.616	2.0
73.631	3.0
73.646	5.0
73.662	0.0
73.677	5.0
73.692	3.0
73.707	3.0
73.722	2.0
73.737	1.0
73.752	8.0
73.768	5.0
73.783	1.0
73.798	2.0
73.813	4.0
73.828	4.0
73.843	4.0
73.859	6.0
73.874	3.0
73.889	1.0
73.904	4.0
73.919	1.0
73.934	4.0
73.949	3.0
73.965	2.0
73.98	7.0
73.995	2.0
74.01	1.0
74.025	0.0
74.04	4.0
74.056	2.0
74.071	3.0
74.086	3.0
74.101	5.0
74.116	6.0
74.131	7.0
74.146	7.0
74.162	9.0
74.177	3.0
74.192	9.0
74.207	3.0
74.222	5.0
74.237	4.0
74.252	3.0
74.268	4.0
74.283	2.0
74.298	6.0
74.313	2.0
74.328	4.0
74.343	1.0
74.358	4.0
74.374	1.0
74.389	3.0
74.404	3.0
74.419	6.0
74.434	1.0
74.449	3.0
74.464	2.0
74.48	3.0
74.495	1.0
74.51	3.0
74.525	5.0
74.54	4.0
74.555	3.0
74.57	4.0
74.586	3.0
74.601	4.0
74.616	5.0
74.631	5.0
74.646	7.0
74.661	3.0
74.676	3.0
74.691	3.0
74.707	6.0
74.722	6.0
74.737	7.0
74.752	6.0
74.767	4.0
74.782	4.0
74.797	4.0
74.813	4.0
74.828	5.0
74.843	4.0
74.858	2.0
74.873	3.0
74.888	5.0
74.903	5.0
74.918	3.0
74.934	3.0
74.949	2.0
74.964	1.0
74.979	7.0
74.994	5.0
75.009	6.0
75.024	4.0
75.04	6.0
75.055	6.0
75.07	6.0
75.085	3.0
75.1	4.0
75.115	4.0
75.13	4.0
75.145	7.0
75.161	5.0
75.176	8.0
75.191	2.0
75.206	7.0
75.221	3.0
75.236	3.0
75.251	4.0
75.266	1.0
75.282	2.0
75.297	7.0
75.312	6.0
75.327	5.0
75.342	6.0
75.357	5.0
75.372	3.0
75.387	6.0
75.403	6.0
75.418	1.0
75.433	5.0
75.448	1.0
75.463	5.0
75.478	3.0
75.493	1.0
75.509	5.0
75.524	7.0
75.539	4.0
75.554	7.0
75.569	6.0
75.584	3.0
75.599	10.0
75.614	2.0
75.63	2.0
75.645	5.0
75.66	1.0
75.675	4.0
75.69	3.0
75.705	4.0
75.72	1.0
75.735	6.0
75.751	5.0
75.766	1.0
75.781	1.0
75.796	6.0
75.811	3.0
75.826	3.0
75.841	1.0
75.856	4.0
75.872	5.0
75.887	4.0
75.902	3.0
75.917	3.0
75.932	2.0
75.947	4.0
75.962	4.0
75.977	4.0
75.993	3.0
76.008	1.0
76.023	3.0
76.038	5.0
76.053	2.0
76.068	2.0
76.083	0.0
76.098	2.0
76.114	2.0
76.129	3.0
76.144	2.0
76.159	1.0
76.174	4.0
76.189	6.0
76.204	5.0
76.22	1.0
76.235	4.0
76.25	4.0
76.265	2.0
76.28	3.0
76.295	3.0
76.31	2.0
76.325	3.0
76.341	4.0
76.356	2.0
76.371	6.0
76.386	3.0
76.401	3.0
76.416	7.0
76.431	2.0
76.446	3.0
76.462	0.0
76.477	5.0
76.492	3.0
76.507	5.0
76.522	3.0
76.537	1.0
76.552	3.0
76.567	3.0
76.583	5.0
76.598	5.0
76.613	4.0
76.628	0.0
76.643	5.0
76.658	3.0
76.673	3.0
76.688	6.0
76.704	3.0
76.719	5.0
76.734	4.0
76.749	4.0
76.764	2.0
76.779	3.0
76.794	3.0
76.809	5.0
76.824	3.0
76.84	6.0
76.855	3.0
76.87	4.0
76.885	3.0
76.9	7.0
76.915	4.0
76.93	2.0
76.945	4.0
76.96	6.0
76.976	4.0
76.991	3.0
77.006	3.0
77.021	5.0
77.036	1.0
77.051	2.0
77.066	6.0
77.081	5.0
77.096	3.0
77.112	3.0
77.127	2.0
77.142	3.0
77.157	3.0
77.172	4.0
77.187	4.0
77.202	3.0
77.217	2.0
77.232	4.0
77.247	3.0
77.263	5.0
77.278	6.0
77.293	7.0
77.308	4.0
77.323	1.0
77.338	4.0
77.353	6.0
77.368	4.0
77.383	2.0
77.398	2.0
77.413	3.0
77.428	0.0
77.444	5.0
77.459	3.0
77.474	3.0
77.489	2.0
77.504	3.0
77.519	5.0
77.534	3.0
77.549	5.0
77.564	7.0
77.579	1.0
77.594	5.0
77.609	8.0
77.624	4.0
77.64	3.0
77.655	3.0
77.67	6.0
77.685	6.0
77.7	3.0
77.715	6.0
77.73	3.0
77.745	3.0
77.76	3.0
77.775	7.0
77.79	4.0
77.805	4.0
77.82	2.0
77.835	4.0
77.85	4.0
77.865	2.0
77.88	4.0
77.895	2.0
77.91	5.0
77.926	3.0
77.941	0.0
77.956	1.0
77.971	1.0
77.986	2.0
78.001	4.0
78.016	1.0
78.031	2.0
78.046	3.0
78.061	6.0
78.076	2.0
78.091	6.0
78.106	4.0
78.121	0.0
78.136	9.0
78.151	3.0
78.166	2.0
78.181	3.0
78.196	3.0
78.211	4.0
78.226	7.0
78.241	7.0
78.256	2.0
78.271	1.0
78.286	4.0
78.301	5.0
78.316	6.0
78.331	1.0
78.346	1.0
78.361	6.0
78.376	4.0
78.391	5.0
78.406	0.0
78.421	4.0
78.436	7.0
78.451	3.0
78.466	3.0
78.481	0.0
78.496	4.0
78.511	1.0
78.526	0.0
78.541	2.0
78.556	1.0
78.571	2.0
78.586	4.0
78.601	3.0
78.616	2.0
78.631	3.0
78.646	1.0
78.661	5.0
78.676	1.0
78.691	3.0
78.706	3.0
78.721	2.0
78.736	1.0
78.751	4.0
78.766	1.0
78.781	2.0
78.796	1.0
78.811	5.0
78.826	3.0
78.841	1.0
78.856	3.0
78.871	5.0
78.885	5.0
78.9	2.0
78.915	5.0
78.93	1.0
78.945	2.0
78.96	4.0
78.975	0.0
78.99	5.0
79.005	6.0
79.02	2.0
79.035	5.0
79.05	2.0
79.065	1.0
79.08	5.0
79.095	1.0
79.11	4.0
79.125	2.0
79.14	3.0
79.155	5.0
79.17	4.0
79.185	5.0
79.2	2.0
79.215	2.0
79.23	3.0
79.245	2.0
79.26	7.0
79.275	3.0
79.29	6.0
79.304	2.0
79.319	4.0
79.334	1.0
79.349	4.0
79.364	7.0
79.379	1.0
79.394	6.0
79.409	4.0
79.424	3.0
79.439	4.0
79.454	2.0
79.469	1.0
79.484	6.0
79.499	1.0
79.514	2.0
79.529	0.0
79.544	3.0
79.559	1.0
79.574	2.0
79.589	6.0
79.604	3.0
79.619	1.0
79.634	0.0
79.649	3.0
79.664	1.0
79.679	2.0
79.693	5.0
79.708	2.0
79.723	1.0
79.738	2.0
79.753	1.0
79.768	1.0
79.783	1.0
79.798	2.0
79.813	3.0
79.828	2.0
79.843	0.0
79.858	4.0
79.873	3.0
79.888	3.0
79.903	4.0
79.918	7.0
79.933	4.0
79.948	3.0
79.963	3.0
79.978	3.0
79.993	3.0
80.008	1.0
80.023	3.0
80.038	2.0
80.053	1.0
80.068	3.0
80.083	5.0
80.098	3.0
80.113	3.0
80.128	5.0
80.143	2.0
80.158	5.0
80.173	2.0
80.188	2.0
80.202	6.0
80.217	5.0
80.232	4.0
80.247	9.0
80.262	6.0
80.277	2.0
80.292	2.0
80.307	2.0
80.322	0.0
80.337	6.0
80.352	0.0
80.367	2.0
80.382	4.0
80.397	4.0
80.412	2.0
80.427	4.0
80.442	4.0
80.457	4.0
80.472	2.0
80.487	5.0
80.502	4.0
80.517	2.0
80.532	6.0
80.547	2.0
80.562	6.0
80.577	1.0
80.592	3.0
80.607	2.0
80.622	6.0
80.637	2.0
80.652	3.0
80.667	4.0
80.682	3.0
80.697	5.0
80.712	5.0
80.727	8.0
80.742	3.0
80.757	2.0
80.772	2.0
80.787	11.0
80.802	2.0
80.817	1.0
80.832	6.0
80.847	6.0
80.862	3.0
80.877	3.0
80.892	0.0
80.907	6.0
80.922	2.0
80.937	3.0
80.952	3.0
80.967	4.0
80.982	1.0
80.997	4.0
81.012	2.0
81.027	3.0
81.042	4.0
81.057	2.0
81.072	7.0
81.087	2.0
81.101	4.0
81.116	2.0
81.131	2.0
81.146	3.0
81.161	4.0
81.176	3.0
81.191	2.0
81.206	3.0
81.221	0.0
81.236	3.0
81.251	2.0
81.266	1.0
81.281	4.0
81.296	1.0
81.311	3.0
81.326	1.0
81.341	0.0
81.356	3.0
81.371	4.0
81.386	5.0
81.401	2.0
81.416	1.0
81.431	4.0
81.446	4.0
81.461	3.0
81.476	5.0
81.491	5.0
81.506	5.0
81.521	0.0
81.536	1.0
81.55	1.0
81.565	4.0
81.58	1.0
81.595	3.0
81.61	3.0
81.625	3.0
81.64	1.0
81.655	5.0
81.67	0.0
81.685	6.0
81.7	4.0
81.715	8.0
81.73	4.0
81.745	1.0
81.76	2.0
81.775	3.0
81.79	4.0
81.805	4.0
81.819	4.0
81.834	3.0
81.849	2.0
81.864	3.0
81.879	3.0
81.894	3.0
81.909	4.0
81.924	2.0
81.939	4.0
81.954	3.0
81.969	5.0
81.984	0.0
81.999	6.0
82.013	2.0
82.028	2.0
82.043	5.0
82.058	2.0
82.073	3.0
82.088	2.0
82.103	4.0
82.118	3.0
82.133	3.0
82.148	6.0
82.163	2.0
82.177	3.0
82.192	3.0
82.207	1.0
82.222	4.0
82.237	2.0
82.252	6.0
82.267	2.0
82.282	4.0
82.297	6.0
82.312	4.0
82.326	1.0
82.341	1.0
82.356	4.0
82.371	5.0
82.386	2.0
82.401	3.0
82.416	6.0
82.431	2.0
82.445	5.0
82.46	5.0
82.475	1.0
82.49	2.0
82.505	4.0
82.52	5.0
82.535	2.0
82.55	3.0
82.565	3.0
82.579	0.0
82.594	6.0
82.609	4.0
82.624	5.0
82.639	0.0
82.654	1.0
82.669	1.0
82.684	6.0
82.698	1.0
82.713	3.0
82.728	1.0
82.743	4.0
82.758	2.0
82.773	1.0
82.788	0.0
82.803	1.0
82.817	0.0
82.832	1.0
82.847	3.0
82.862	1.0
82.877	5.0
82.892	6.0
82.907	2.0
82.922	1.0
82.937	4.0
82.951	2.0
82.966	3.0
82.981	3.0
82.996	4.0
83.011	2.0
83.026	2.0
83.041	4.0
83.056	3.0
83.07	4.0
83.085	5.0
83.1	4.0
83.115	2.0
83.13	3.0
83.145	2.0
83.16	3.0
83.175	1.0
83.19	1.0
83.204	3.0
83.219	4.0
83.234	3.0
83.249	1.0
83.264	1.0
83.279	6.0
83.294	2.0
83.309	3.0
83.324	3.0
83.339	0.0
83.353	2.0
83.368	3.0
83.383	3.0
83.398	2.0
83.413	5.0
83.428	3.0
83.443	6.0
83.458	3.0
83.473	1.0
83.488	9.0
83.503	5.0
83.517	5.0
83.532	7.0
83.547	3.0
83.562	3.0
83.577	6.0
83.592	4.0
83.607	1.0
83.622	1.0
83.637	6.0
83.652	2.0
83.667	2.0
83.682	2.0
83.697	2.0
83.712	3.0
83.727	4.0
83.741	3.0
83.756	2.0
83.771	0.0
83.786	3.0
83.801	1.0
83.816	4.0
83.831	3.0
83.846	2.0
83.861	3.0
83.876	1.0
83.891	1.0
83.906	2.0
83.921	4.0
83.936	4.0
83.951	5.0
83.966	2.0
83.981	4.0
83.996	3.0
84.011	8.0
84.026	2.0
84.041	1.0
84.056	1.0
84.071	4.0
84.086	4.0
84.101	3.0
84.116	2.0
84.131	1.0
84.146	2.0
84.161	1.0
84.176	0.0
84.191	3.0
84.206	5.0
84.221	7.0
84.236	6.0
84.251	7.0
84.266	0.0
84.281	2.0
84.296	8.0
84.311	4.0
84.326	7.0
84.341	6.0
84.356	4.0
84.371	2.0
84.386	8.0
84.401	1.0
84.416	6.0
84.431	3.0
84.446	5.0
84.461	1.0
84.476	3.0
84.492	3.0
84.507	0.0
84.522	2.0
84.537	2.0
84.552	5.0
84.567	1.0
84.582	3.0
84.597	2.0
84.612	2.0
84.627	3.0
84.642	7.0
84.657	2.0
84.672	2.0
84.687	1.0
84.702	3.0
84.717	2.0
84.733	3.0
84.748	6.0
84.763	2.0
84.778	4.0
84.793	2.0
84.808	3.0
84.823	6.0
84.838	4.0
84.853	2.0
84.868	2.0
84.883	3.0
84.898	7.0
84.913	2.0
84.929	5.0
84.944	3.0
84.959	2.0
84.974	5.0
84.989	3.0
85.004	5.0
85.019	1.0
85.034	1.0
85.049	4.0
85.064	5.0
85.079	3.0
85.094	2.0
85.11	7.0
85.125	6.0
85.14	2.0
85.155	4.0
85.17	3.0
85.185	2.0
85.2	6.0
85.215	0.0
85.23	2.0
85.245	2.0
85.26	6.0
85.276	3.0
85.291	2.0
85.306	2.0
85.321	3.0
85.336	1.0
85.351	2.0
85.366	5.0
85.381	4.0
85.396	1.0
85.411	4.0
85.426	1.0
85.441	4.0
85.457	3.0
85.472	6.0
85.487	4.0
85.502	1.0
85.517	3.0
85.532	3.0
85.547	2.0
85.562	4.0
85.577	4.0
85.592	2.0
85.607	3.0
85.622	5.0
85.637	5.0
85.653	3.0
85.668	1.0
85.683	3.0
85.698	4.0
85.713	3.0
85.728	4.0
85.743	1.0
85.758	4.0
85.773	2.0
85.788	0.0
85.803	4.0
85.818	2.0
85.833	1.0
85.848	2.0
85.863	4.0
85.879	2.0
85.894	2.0
85.909	6.0
85.924	2.0
85.939	0.0
85.954	5.0
85.969	5.0
85.984	1.0
85.999	5.0
86.014	3.0
86.029	4.0
86.044	6.0
86.059	1.0
86.074	2.0
86.089	4.0
86.104	3.0
86.119	2.0
86.134	6.0
86.149	2.0
86.164	3.0
86.179	1.0
86.194	6.0
86.209	5.0
86.224	6.0
86.239	1.0
86.254	2.0
86.269	4.0
86.284	3.0
86.299	3.0
86.314	1.0
86.33	0.0
86.345	4.0
86.36	1.0
86.375	3.0
86.39	1.0
86.405	4.0
86.42	2.0
86.435	4.0
86.45	7.0
86.465	0.0
86.48	2.0
86.495	2.0
86.51	0.0
86.525	5.0
86.54	3.0
86.555	4.0
86.57	4.0
86.585	4.0
86.6	3.0
86.615	1.0
86.63	7.0
86.645	2.0
86.659	5.0
86.674	5.0
86.689	5.0
86.704	3.0
86.719	2.0
86.734	4.0
86.749	0.0
86.764	0.0
86.779	5.0
86.794	4.0
86.809	1.0
86.824	2.0
86.839	6.0
86.854	6.0
86.869	5.0
86.884	8.0
86.899	5.0
86.914	2.0
86.929	1.0
86.944	2.0
86.959	3.0
86.974	4.0
86.989	3.0
87.004	5.0
87.019	4.0
87.034	4.0
87.049	1.0
87.064	7.0
87.079	1.0
87.094	1.0
87.109	9.0
87.124	0.0
87.139	1.0
87.154	4.0
87.169	2.0
87.184	0.0
87.199	4.0
87.214	5.0
87.229	4.0
87.244	2.0
87.259	1.0
87.274	4.0
87.289	4.0
87.304	2.0
87.319	5.0
87.334	4.0
87.349	3.0
87.364	5.0
87.379	3.0
87.394	1.0
87.409	3.0
87.424	5.0
87.438	3.0
87.453	2.0
87.468	1.0
87.483	1.0
87.498	4.0
87.513	4.0
87.528	1.0
87.543	2.0
87.558	3.0
87.573	2.0
87.588	2.0
87.603	2.0
87.618	2.0
87.633	0.0
87.648	3.0
87.663	4.0
87.678	1.0
87.693	6.0
87.708	1.0
87.723	6.0
87.738	0.0
87.753	5.0
87.768	5.0
87.783	7.0
87.798	3.0
87.813	5.0
87.828	3.0
87.843	6.0
87.858	4.0
87.873	4.0
87.888	3.0
87.903	3.0
87.918	2.0
87.933	3.0
87.948	1.0
87.963	6.0
87.978	3.0
87.993	7.0
88.008	1.0
88.023	1.0
88.038	0.0
88.053	4.0
88.068	6.0
88.083	2.0
88.098	4.0
88.113	0.0
88.128	1.0
88.143	5.0
88.158	4.0
88.174	4.0
88.189	3.0
88.204	5.0
88.219	3.0
88.234	10.0
88.249	1.0
88.264	3.0
88.279	2.0
88.294	4.0
88.309	3.0
88.324	3.0
88.339	3.0
88.354	3.0
88.369	6.0
88.384	2.0
88.399	6.0
88.414	3.0
88.429	2.0
88.444	5.0
88.459	7.0
88.474	4.0
88.489	2.0
88.504	4.0
88.519	3.0
88.534	5.0
88.549	5.0
88.564	5.0
88.58	3.0
88.595	2.0
88.61	2.0
88.625	0.0
88.64	1.0
88.655	1.0
88.67	2.0
88.685	2.0
88.7	1.0
88.715	1.0
88.73	3.0
88.745	2.0
88.76	2.0
88.775	4.0
88.79	2.0
88.805	3.0
88.82	3.0
88.835	4.0
88.85	3.0
88.865	1.0
88.88	0.0
88.895	3.0
88.911	4.0
88.926	1.0
88.941	2.0
88.956	3.0
88.971	2.0
88.986	5.0
89.001	4.0
89.016	4.0
89.031	2.0
89.046	1.0
89.061	2.0
89.076	1.0
89.091	3.0
89.106	1.0
89.121	3.0
89.136	4.0
89.151	5.0
89.166	4.0
89.181	2.0
89.196	4.0
89.211	1.0
89.227	1.0
89.242	2.0
89.257	4.0
89.272	4.0
89.287	3.0
89.302	4.0
89.317	3.0
89.332	4.0
89.347	4.0
89.362	0.0
89.377	3.0
89.392	4.0
89.407	4.0
89.422	0.0
89.437	4.0
89.452	4.0
89.467	5.0
89.482	2.0
89.497	2.0
89.512	2.0
89.527	4.0
89.542	1.0
89.557	2.0
89.572	2.0
89.587	3.0
89.602	4.0
89.617	1.0
89.632	2.0
89.647	1.0
89.662	4.0
89.677	1.0
89.693	5.0
89.708	3.0
89.723	2.0
89.738	3.0
89.753	0.0
89.768	4.0
89.783	1.0
89.798	3.0
89.813	6.0
89.828	0.0
89.843	0.0
89.858	3.0
89.873	2.0
89.888	0.0
89.903	1.0
89.918	3.0
89.933	4.0
89.948	0.0
89.963	4.0
89.978	1.0
89.993	3.0
90.008	2.0
90.023	2.0
90.038	1.0
90.053	4.0
90.068	3.0
90.083	1.0
90.097	5.0
90.112	1.0
90.127	3.0
90.142	5.0
90.157	5.0
90.172	4.0
90.187	8.0
90.202	6.0
90.217	5.0
90.232	1.0
90.247	3.0
90.262	6.0
90.277	6.0
90.292	5.0
90.307	3.0
90.322	1.0
90.337	5.0
90.352	1.0
90.367	5.0
90.382	5.0
90.397	3.0
90.412	2.0
90.427	2.0
90.442	4.0
90.457	5.0
90.472	3.0
90.487	2.0
90.501	6.0
90.516	2.0
90.531	7.0
90.546	2.0
90.561	5.0
90.576	4.0
90.591	4.0
90.606	1.0
90.621	6.0
90.636	3.0
90.651	0.0
90.666	4.0
90.681	3.0
90.696	9.0
90.711	1.0
90.726	2.0
90.741	5.0
90.755	2.0
90.77	6.0
90.785	6.0
90.8	5.0
90.815	2.0
90.83	2.0
90.845	3.0
90.86	6.0
90.875	5.0
90.89	2.0
90.905	1.0
90.92	5.0
90.935	6.0
90.95	5.0
90.965	2.0
90.979	1.0
90.994	2.0
91.009	5.0
91.024	5.0
91.039	5.0
91.054	7.0
91.069	3.0
91.084	3.0
91.099	3.0
91.114	2.0
91.129	0.0
91.144	6.0
91.159	4.0
91.174	1.0
91.188	1.0
91.203	6.0
91.218	4.0
91.233	3.0
91.248	1.0
91.263	4.0
91.278	0.0
91.293	4.0
91.308	2.0
91.323	2.0
91.338	5.0
91.353	5.0
91.368	1.0
91.383	3.0
91.398	3.0
91.412	0.0
91.427	2.0
91.442	1.0
91.457	3.0
91.472	6.0
91.487	2.0
91.502	2.0
91.517	2.0
91.532	4.0
91.547	2.0
91.562	4.0
91.577	3.0
91.592	2.0
91.607	5.0
91.622	4.0
91.637	4.0
91.652	0.0
91.666	6.0
91.681	3.0
91.696	2.0
91.711	1.0
91.726	5.0
91.741	3.0
91.756	5.0
91.771	8.0
91.786	5.0
91.801	4.0
91.816	2.0
91.831	2.0
91.846	1.0
91.861	1.0
91.876	2.0
91.891	2.0
91.906	2.0
91.921	3.0
91.936	3.0
91.951	2.0
91.966	6.0
91.981	4.0
91.995	4.0
92.01	1.0
92.025	3.0
92.04	4.0
92.055	1.0
92.07	7.0
92.085	2.0
92.1	1.0
92.115	0.0
92.13	2.0
92.145	4.0
92.16	2.0
92.175	2.0
92.19	1.0
92.205	4.0
92.22	3.0
92.235	4.0
92.25	4.0
92.265	0.0
92.28	3.0
92.295	4.0
92.31	0.0
92.325	1.0
92.34	2.0
92.355	5.0
92.37	2.0
92.385	1.0
92.4	4.0
92.415	3.0
92.43	2.0
92.445	1.0
92.46	1.0
92.475	1.0
92.49	4.0
92.505	2.0
92.52	3.0
92.535	4.0
92.55	1.0
92.565	6.0
92.58	1.0
92.595	1.0
92.61	2.0
92.625	4.0
92.64	1.0
92.655	1.0
92.67	3.0
92.685	1.0
92.7	2.0
92.715	3.0
92.73	3.0
92.745	1.0
92.76	5.0
92.775	4.0
92.79	2.0
92.805	3.0
92.82	1.0
92.835	4.0
92.85	4.0
92.865	2.0
92.88	2.0
92.895	3.0
92.91	6.0
92.925	4.0
92.94	3.0
92.955	1.0
92.97	3.0
92.985	3.0
93.0	1.0
93.015	5.0
93.03	2.0
93.045	3.0
93.06	4.0
93.075	3.0
93.09	2.0
93.105	3.0
93.12	2.0
93.135	3.0
93.15	2.0
93.165	3.0
93.18	3.0
93.195	1.0
93.21	1.0
93.225	4.0
93.24	3.0
93.255	3.0
93.27	4.0
93.285	1.0
93.3	2.0
93.315	4.0
93.33	1.0
93.345	5.0
93.36	2.0
93.375	5.0
93.39	5.0
93.405	0.0
93.42	7.0
93.435	3.0
93.45	1.0
93.465	4.0
93.48	3.0
93.495	3.0
93.51	3.0
93.525	0.0
93.54	2.0
93.555	1.0
93.57	3.0
93.585	5.0
93.6	2.0
93.615	3.0
93.63	3.0
93.645	0.0
93.66	1.0
93.675	2.0
93.69	2.0
93.705	5.0
93.72	1.0
93.735	7.0
93.75	0.0
93.765	1.0
93.78	2.0
93.795	5.0
93.81	2.0
93.824	1.0
93.839	10.0
93.854	1.0
93.869	1.0
93.884	3.0
93.899	3.0
93.914	5.0
93.929	6.0
93.944	0.0
93.959	0.0
93.974	2.0
93.989	3.0
94.004	2.0
94.019	3.0
94.034	3.0
94.049	1.0
94.064	1.0
94.079	4.0
94.094	2.0
94.108	2.0
94.123	1.0
94.138	2.0
94.153	3.0
94.168	3.0
94.183	3.0
94.198	2.0
94.213	7.0
94.228	3.0
94.243	5.0
94.258	2.0
94.273	4.0
94.288	2.0
94.302	8.0
94.317	2.0
94.332	5.0
94.347	2.0
94.362	4.0
94.377	5.0
94.392	6.0
94.407	4.0
94.422	6.0
94.437	3.0
94.452	6.0
94.466	2.0
94.481	4.0
94.496	4.0
94.511	5.0
94.526	4.0
94.541	6.0
94.556	1.0
94.571	3.0
94.586	7.0
94.601	5.0
94.615	5.0
94.63	3.0
94.645	0.0
94.66	3.0
94.675	1.0
94.69	5.0
94.705	4.0
94.72	4.0
94.735	2.0
94.749	4.0
94.764	1.0
94.779	2.0
94.794	1.0
94.809	1.0
94.824	3.0
94.839	1.0
94.854	2.0
94.868	2.0
94.883	1.0
94.898	2.0
94.913	1.0
94.928	3.0
94.943	2.0
94.958	2.0
94.973	2.0
94.987	3.0
95.002	3.0
95.017	1.0
95.032	4.0
95.047	5.0
95.062	0.0
95.077	3.0
95.092	4.0
95.106	4.0
95.121	4.0
95.136	3.0
95.151	2.0
95.166	2.0
95.181	5.0
95.196	1.0
95.211	2.0
95.226	5.0
95.24	2.0
95.255	1.0
95.27	6.0
95.285	2.0
95.3	3.0
95.315	4.0
95.33	2.0
95.345	1.0
95.359	1.0
95.374	3.0
95.389	2.0
95.404	6.0
95.419	4.0
95.434	4.0
95.449	5.0
95.464	3.0
95.478	3.0
95.493	3.0
95.508	2.0
95.523	1.0
95.538	3.0
95.553	5.0
95.568	1.0
95.583	0.0
95.597	4.0
95.612	7.0
95.627	1.0
95.642	1.0
95.657	3.0
95.672	3.0
95.687	4.0
95.702	7.0
95.717	6.0
95.731	0.0
95.746	3.0
95.761	7.0
95.776	2.0
95.791	3.0
95.806	1.0
95.821	1.0
95.836	2.0
95.851	3.0
95.866	3.0
95.88	3.0
95.895	4.0
95.91	2.0
95.925	4.0
95.94	0.0
95.955	3.0
95.97	6.0
95.985	8.0
96.0	3.0
96.015	2.0
96.029	4.0
96.044	4.0
96.059	6.0
96.074	3.0
96.089	4.0
96.104	5.0
96.119	7.0
96.134	1.0
96.149	6.0
96.164	2.0
96.179	2.0
96.194	3.0
96.208	4.0
96.223	6.0
96.238	5.0
96.253	0.0
96.268	1.0
96.283	2.0
96.298	2.0
96.313	4.0
96.328	5.0
96.343	3.0
96.358	1.0
96.373	1.0
96.388	3.0
96.403	1.0
96.417	2.0
96.432	4.0
96.447	1.0
96.462	3.0
96.477	4.0
96.492	3.0
96.507	2.0
96.522	3.0
96.537	2.0
96.552	2.0
96.567	2.0
96.582	5.0
96.597	2.0
96.612	3.0
96.627	2.0
96.642	6.0
96.656	3.0
96.671	4.0
96.686	2.0
96.701	5.0
96.716	2.0
96.731	2.0
96.746	4.0
96.761	3.0
96.776	3.0
96.791	3.0
96.806	7.0
96.821	2.0
96.836	4.0
96.851	2.0
96.866	6.0
96.881	5.0
96.896	3.0
96.911	1.0
96.926	3.0
96.94	3.0
96.955	1.0
96.97	1.0
96.985	1.0
97.0	6.0
97.015	2.0
97.03	4.0
97.045	2.0
97.06	3.0
97.075	2.0
97.09	4.0
97.105	3.0
97.12	5.0
97.135	5.0
97.15	1.0
97.165	0.0
97.18	3.0
97.195	3.0
97.21	2.0
97.225	4.0
97.239	1.0
97.254	1.0
97.269	0.0
97.284	3.0
97.299	2.0
97.314	3.0
97.329	3.0
97.344	6.0
97.359	3.0
97.374	2.0
97.389	6.0
97.404	1.0
97.419	2.0
97.434	0.0
97.449	2.0
97.464	3.0
97.479	2.0
97.494	4.0
97.509	4.0
97.524	4.0
97.538	3.0
97.553	3.0
97.568	4.0
97.583	4.0
97.598	3.0
97.613	0.0
97.628	4.0
97.643	2.0
97.658	3.0
97.673	5.0
97.688	2.0
97.703	7.0
97.718	4.0
97.733	4.0
97.748	6.0
97.763	3.0
97.778	5.0
97.792	1.0
97.807	3.0
97.822	3.0
97.837	4.0
97.852	1.0
97.867	4.0
97.882	4.0
97.897	2.0
97.912	2.0
97.927	1.0
97.942	3.0
97.957	5.0
97.972	1.0
97.987	1.0
98.001	2.0
98.016	4.0
98.031	1.0
98.046	1.0
98.061	1.0
98.076	2.0
98.091	3.0
98.106	6.0
98.121	3.0
98.136	1.0
98.151	5.0
98.166	1.0
98.181	1.0
98.195	2.0
98.21	6.0
98.225	1.0
98.24	5.0
98.255	3.0
98.27	4.0
98.285	3.0
98.3	3.0
98.315	4.0
98.33	1.0
98.345	2.0
98.359	5.0
98.374	1.0
98.389	2.0
98.404	2.0
98.419	2.0
98.434	0.0
98.449	1.0
98.464	5.0
98.479	2.0
98.494	2.0
98.508	3.0
98.523	0.0
98.538	3.0
98.553	2.0
98.568	3.0
98.583	4.0
98.598	5.0
98.613	4.0
98.628	4.0
98.642	0.0
98.657	2.0
98.672	0.0
98.687	5.0
98.702	3.0
98.717	3.0
98.732	3.0
98.747	6.0
98.762	7.0
98.776	1.0
98.791	0.0
98.806	6.0
98.821	0.0
98.836	2.0
98.851	7.0
98.866	2.0
98.881	5.0
98.896	0.0
98.91	4.0
98.925	4.0
98.94	2.0
98.955	5.0
98.97	6.0
98.985	2.0
99.0	3.0
99.015	4.0
99.029	1.0
99.044	3.0
99.059	2.0
99.074	2.0
99.089	4.0
99.104	2.0
99.119	4.0
99.133	2.0
99.148	1.0
99.163	4.0
99.178	1.0
99.193	1.0
99.208	3.0
99.223	2.0
99.238	4.0
99.252	3.0
99.267	4.0
99.282	5.0
99.297	4.0
99.312	4.0
99.327	1.0
99.342	6.0
99.356	3.0
99.371	3.0
99.386	1.0
99.401	0.0
99.416	2.0
99.431	2.0
99.446	3.0
99.461	0.0
99.475	3.0
99.49	3.0
99.505	7.0
99.52	1.0
99.535	5.0
99.55	2.0
99.565	1.0
99.579	2.0
99.594	1.0
99.609	5.0
99.624	5.0
99.639	3.0
99.654	3.0
99.669	2.0
99.683	1.0
99.698	1.0
99.713	5.0
99.728	3.0
99.743	3.0
99.758	3.0
99.772	1.0
99.787	2.0
99.802	0.0
99.817	2.0
99.832	1.0
99.847	1.0
99.862	4.0
99.876	0.0
99.891	3.0
99.906	2.0
99.921	5.0
99.936	5.0
99.951	2.0
99.966	8.0
99.98	3.0
99.995	1.0
100.01	1.0
100.025	5.0
100.04	5.0
100.055	5.0
100.069	1.0
100.084	2.0
100.099	4.0
100.114	5.0
100.129	3.0
100.144	4.0
100.159	1.0
100.173	3.0
100.188	2.0
100.203	4.0
100.218	0.0
100.233	2.0
100.248	3.0
100.262	7.0
100.277	5.0
100.292	3.0
100.307	5.0
100.322	7.0
100.337	0.0
100.351	5.0
100.366	5.0
100.381	10.0
100.396	5.0
100.411	3.0
100.426	1.0
100.441	4.0
100.455	3.0
100.47	3.0
100.485	4.0
100.5	3.0
100.515	3.0
100.53	4.0
100.544	2.0
100.559	6.0
100.574	3.0
100.589	1.0
100.604	0.0
100.619	1.0
100.633	3.0
100.648	2.0
100.663	5.0
100.678	6.0
100.693	1.0
100.708	1.0
100.722	3.0
100.737	1.0
100.752	4.0
100.767	7.0
100.782	3.0
100.796	5.0
100.811	2.0
100.826	6.0
100.841	9.0
100.856	2.0
100.871	2.0
100.885	0.0
100.9	7.0
100.915	4.0
100.93	3.0
100.945	4.0
100.96	2.0
100.974	2.0
100.989	2.0
101.004	1.0
101.019	4.0
101.034	3.0
101.048	0.0
101.063	0.0
101.078	3.0
101.093	3.0
101.108	2.0
101.123	7.0
101.137	3.0
101.152	2.0
101.167	2.0
101.182	3.0
101.197	5.0
101.211	1.0
101.226	2.0
101.241	5.0
101.256	8.0
101.271	5.0
101.285	1.0
101.3	4.0
101.315	3.0
101.33	3.0
101.345	3.0
101.359	2.0
101.374	1.0
101.389	4.0
101.404	2.0
101.419	3.0
101.433	3.0
101.448	5.0
101.463	8.0
101.478	2.0
101.493	0.0
101.507	3.0
101.522	2.0
101.537	5.0
101.552	3.0
101.567	2.0
101.581	0.0
101.596	0.0
101.611	3.0
101.626	3.0
101.64	5.0
101.655	2.0
101.67	5.0
101.685	2.0
101.7	2.0
101.714	3.0
101.729	3.0
101.744	3.0
101.759	2.0
101.773	1.0
101.788	2.0
101.803	3.0
101.818	0.0
101.833	0.0
101.847	6.0
101.862	0.0
101.877	2.0
101.892	4.0
101.906	4.0
101.921	0.0
101.936	4.0
101.951	4.0
101.965	3.0
101.98	5.0
101.995	5.0
102.01	5.0
102.025	1.0
102.039	4.0
102.054	5.0
102.069	5.0
102.084	5.0
102.098	4.0
102.113	3.0
102.128	4.0
102.143	3.0
102.157	7.0
102.172	2.0
102.187	5.0
102.202	5.0
102.216	2.0
102.231	5.0
102.246	5.0
102.261	5.0
102.275	3.0
102.29	4.0
102.305	2.0
102.32	3.0
102.334	6.0
102.349	2.0
102.364	3.0
102.378	4.0
102.393	2.0
102.408	3.0
102.423	5.0
102.437	2.0
102.452	4.0
102.467	1.0
102.482	3.0
102.496	2.0
102.511	0.0
102.526	3.0
102.541	5.0
102.555	6.0
102.57	4.0
102.585	2.0
102.6	3.0
102.614	5.0
102.629	5.0
102.644	2.0
102.659	3.0
102.673	4.0
102.688	3.0
102.703	2.0
102.717	3.0
102.732	2.0
102.747	3.0
102.762	4.0
102.776	3.0
102.791	2.0
102.806	3.0
102.821	0.0
102.835	3.0
102.85	4.0
102.865	4.0
102.88	2.0
102.894	1.0
102.909	5.0
102.924	1.0
102.938	3.0
102.953	8.0
102.968	3.0
102.983	5.0
102.997	5.0
103.012	1.0
103.027	1.0
103.042	2.0
103.056	1.0
103.071	4.0
103.086	2.0
103.101	1.0
103.115	5.0
103.13	1.0
103.145	1.0
103.16	3.0
103.174	3.0
103.189	1.0
103.204	1.0
103.219	1.0
103.233	4.0
103.248	1.0
103.263	4.0
103.278	4.0
103.292	1.0
103.307	3.0
103.322	2.0
103.337	5.0
103.351	2.0
103.366	1.0
103.381	4.0
103.396	5.0
103.41	3.0
103.425	5.0
103.44	3.0
103.455	5.0
103.469	4.0
103.484	5.0
103.499	4.0
103.514	2.0
103.529	3.0
103.543	1.0
103.558	4.0
103.573	2.0
103.588	4.0
103.602	5.0
103.617	2.0
103.632	5.0
103.647	1.0
103.661	5.0
103.676	0.0
103.691	6.0
103.706	1.0
103.721	0.0
103.735	3.0
103.75	7.0
103.765	2.0
103.78	2.0
103.795	4.0
103.809	2.0
103.824	3.0
103.839	3.0
103.854	5.0
103.869	2.0
103.883	7.0
103.898	7.0
103.913	3.0
103.928	8.0
103.943	3.0
103.957	1.0
103.972	2.0
103.987	9.0
104.002	1.0
104.017	4.0
104.031	4.0
104.046	4.0
104.061	3.0
104.076	3.0
104.091	2.0
104.106	4.0
104.12	4.0
104.135	4.0
104.15	6.0
104.165	9.0
104.18	3.0
104.195	2.0
104.209	5.0
104.224	3.0
104.239	7.0
104.254	1.0
104.269	3.0
104.284	1.0
104.299	1.0
104.313	6.0
104.328	4.0
104.343	4.0
104.358	3.0
104.373	0.0
104.388	1.0
104.403	4.0
104.417	3.0
104.432	2.0
104.447	3.0
104.462	5.0
104.477	6.0
104.492	1.0
104.507	3.0
104.522	2.0
104.536	3.0
104.551	2.0
104.566	3.0
104.581	1.0
104.596	6.0
104.611	6.0
104.626	3.0
104.641	4.0
104.656	1.0
104.67	4.0
104.685	2.0
104.7	3.0
104.715	3.0
104.73	3.0
104.745	4.0
104.76	1.0
104.775	6.0
104.79	0.0
104.804	4.0
104.819	3.0
104.834	4.0
104.849	4.0
104.864	2.0
104.879	6.0
104.894	4.0
104.909	3.0
104.924	0.0
104.939	4.0
104.954	1.0
104.968	1.0
104.983	2.0
104.998	2.0
105.013	5.0
105.028	2.0
105.043	0.0
105.058	3.0
105.073	4.0
105.088	3.0
105.103	2.0
105.118	2.0
105.133	0.0
105.147	2.0
105.162	3.0
105.177	1.0
105.192	2.0
105.207	3.0
105.222	5.0
105.237	3.0
105.252	2.0
105.267	1.0
105.282	2.0
105.297	2.0
105.312	5.0
105.327	4.0
105.342	4.0
105.356	4.0
105.371	5.0
105.386	4.0
105.401	5.0
105.416	7.0
105.431	8.0
105.446	5.0
105.461	3.0
105.476	6.0
105.491	4.0
105.506	2.0
105.521	2.0
105.536	4.0
105.551	3.0
105.566	3.0
105.581	2.0
105.595	3.0
105.61	8.0
105.625	7.0
105.64	3.0
105.655	1.0
105.67	2.0
105.685	6.0
105.7	2.0
105.715	4.0
105.73	6.0
105.745	4.0
105.76	2.0
105.775	3.0
105.79	4.0
105.805	2.0
105.82	6.0
105.835	3.0
105.85	8.0
105.864	2.0
105.879	2.0
105.894	3.0
105.909	0.0
105.924	4.0
105.939	4.0
105.954	3.0
105.969	4.0
105.984	1.0
105.999	0.0
106.014	3.0
106.029	2.0
106.044	2.0
106.059	3.0
106.074	2.0
106.089	0.0
106.104	4.0
106.119	3.0
106.134	4.0
106.148	3.0
106.163	2.0
106.178	3.0
106.193	2.0
106.208	1.0
106.223	1.0
106.238	0.0
106.253	1.0
106.268	3.0
106.283	3.0
106.298	2.0
106.313	5.0
106.328	2.0
106.343	2.0
106.358	3.0
106.373	2.0
106.388	3.0
106.403	4.0
106.418	4.0
106.432	4.0
106.447	4.0
106.462	1.0
106.477	2.0
106.492	5.0
106.507	1.0
106.522	2.0
106.537	5.0
106.552	3.0
106.567	3.0
106.582	6.0
106.597	2.0
106.612	2.0
106.627	3.0
106.642	1.0
106.657	2.0
106.672	3.0
106.687	0.0
106.701	2.0
106.716	3.0
106.731	3.0
106.746	4.0
106.761	2.0
106.776	3.0
106.791	4.0
106.806	8.0
106.821	3.0
106.836	3.0
106.851	2.0
106.866	3.0
106.881	3.0
106.896	3.0
106.911	3.0
106.926	1.0
106.941	5.0
106.955	3.0
106.97	0.0
106.985	3.0
107.0	1.0
107.015	3.0
107.03	3.0
107.045	6.0
107.06	1.0
107.075	3.0
107.09	3.0
107.105	1.0
107.12	2.0
107.135	2.0
107.15	4.0
107.165	4.0
107.18	10.0
107.194	2.0
107.209	2.0
107.224	5.0
107.239	3.0
107.254	3.0
107.269	6.0
107.284	3.0
107.299	3.0
107.314	1.0
107.329	2.0
107.344	5.0
107.359	2.0
107.374	2.0
107.389	1.0
107.404	6.0
107.418	2.0
107.433	5.0
107.448	3.0
107.463	2.0
107.478	1.0
107.493	6.0
107.508	0.0
107.523	2.0
107.538	0.0
107.553	3.0
107.568	3.0
107.583	5.0
107.598	4.0
107.613	5.0
107.627	1.0
107.642	1.0
107.657	1.0
107.672	5.0
107.687	5.0
107.702	3.0
107.717	5.0
107.732	2.0
107.747	9.0
107.762	2.0
107.777	3.0
107.792	1.0
107.807	3.0
107.821	2.0
107.836	3.0
107.851	2.0
107.866	3.0
107.881	4.0
107.896	1.0
107.911	1.0
107.926	2.0
107.941	3.0
107.956	0.0
107.971	4.0
107.986	1.0
108.0	2.0
108.015	3.0
108.03	2.0
108.045	3.0
108.06	2.0
108.075	3.0
108.09	4.0
108.105	7.0
108.12	8.0
108.135	8.0
108.15	5.0
108.164	5.0
108.179	3.0
108.194	5.0
108.209	2.0
108.224	1.0
108.239	4.0
108.254	3.0
108.269	2.0
108.284	5.0
108.299	4.0
108.313	4.0
108.328	1.0
108.343	4.0
108.358	3.0
108.373	3.0
108.388	0.0
108.403	3.0
108.418	3.0
108.433	1.0
108.448	3.0
108.462	1.0
108.477	2.0
108.492	3.0
108.507	2.0
108.522	6.0
108.537	1.0
108.552	3.0
108.567	3.0
108.582	8.0
108.597	1.0
108.611	4.0
108.626	1.0
108.641	2.0
108.656	3.0
108.671	1.0
108.686	5.0
108.701	5.0
108.716	3.0
108.731	4.0
108.745	3.0
108.76	5.0
108.775	6.0
108.79	1.0
108.805	0.0
108.82	7.0
108.835	8.0
108.85	6.0
108.865	6.0
108.879	4.0
108.894	5.0
108.909	4.0
108.924	5.0
108.939	8.0
108.954	5.0
108.969	4.0
108.984	4.0
108.999	3.0
109.013	7.0
109.028	4.0
109.043	5.0
109.058	3.0
109.073	3.0
109.088	7.0
109.103	2.0
109.118	2.0
109.133	7.0
109.147	2.0
109.162	3.0
109.177	3.0
109.192	4.0
109.207	2.0
109.222	6.0
109.237	3.0
109.252	5.0
109.267	5.0
109.281	5.0
109.296	5.0
109.311	2.0
109.326	5.0
109.341	3.0
109.356	2.0
109.371	6.0
109.386	2.0
109.4	5.0
109.415	4.0
109.43	0.0
109.445	5.0
109.46	5.0
109.475	2.0
109.49	2.0
109.505	4.0
109.52	0.0
109.534	4.0
109.549	4.0
109.564	4.0
109.579	2.0
109.594	7.0
109.609	4.0
109.624	3.0
109.639	4.0
109.653	2.0
109.668	0.0
109.683	2.0
109.698	3.0
109.713	2.0
109.728	2.0
109.743	2.0
109.758	4.0
109.773	3.0
109.787	4.0
109.802	2.0
109.817	5.0
109.832	2.0
109.847	4.0
109.862	7.0
109.877	5.0
109.892	4.0
109.907	4.0
109.921	2.0
109.936	2.0
109.951	4.0
109.966	3.0
109.981	2.0
109.996	4.0
110.011	1.0
110.026	2.0
110.04	7.0
110.055	0.0
110.07	2.0
110.085	3.0
110.1	3.0
110.115	4.0
110.13	4.0
110.145	3.0
110.16	2.0
110.174	1.0
110.189	4.0
110.204	6.0
110.219	2.0
110.234	3.0
110.249	3.0
110.264	2.0
110.279	3.0
110.294	4.0
110.308	5.0
110.323	5.0
110.338	5.0
110.353	2.0
110.368	4.0
110.383	2.0
110.398	3.0
110.413	1.0
110.428	2.0
110.442	3.0
110.457	2.0
110.472	3.0
110.487	5.0
110.502	2.0
110.517	5.0
110.532	3.0
110.547	1.0
110.561	3.0
110.576	5.0
110.591	4.0
110.606	6.0
110.621	6.0
110.636	3.0
110.651	1.0
110.666	3.0
110.681	2.0
110.695	5.0
110.71	6.0
110.725	2.0
110.74	5.0
110.755	4.0
110.77	1.0
110.785	2.0
110.8	2.0
110.815	2.0
110.829	3.0
110.844	2.0
110.859	3.0
110.874	1.0
110.889	5.0
110.904	1.0
110.919	3.0
110.934	3.0
110.948	2.0
110.963	3.0
110.978	3.0
110.993	0.0
111.008	3.0
111.023	2.0
111.038	2.0
111.053	4.0
111.067	6.0
111.082	2.0
111.097	3.0
111.112	0.0
111.127	2.0
111.142	2.0
111.157	2.0
111.172	5.0
111.186	2.0
111.201	2.0
111.216	7.0
111.231	4.0
111.246	3.0
111.261	3.0
111.276	3.0
111.291	2.0
111.305	6.0
111.32	2.0
111.335	1.0
111.35	1.0
111.365	3.0
111.38	2.0
111.395	2.0
111.41	0.0
111.424	1.0
111.439	2.0
111.454	1.0
111.469	2.0
111.484	4.0
111.499	4.0
111.514	4.0
111.528	3.0
111.543	3.0
111.558	2.0
111.573	1.0
111.588	5.0
111.603	4.0
111.618	1.0
111.633	4.0
111.647	4.0
111.662	2.0
111.677	5.0
111.692	1.0
111.707	1.0
111.722	6.0
111.737	3.0
111.751	5.0
111.766	3.0
111.781	3.0
111.796	1.0
111.811	4.0
111.826	0.0
111.84	6.0
111.855	1.0
111.87	3.0
111.885	4.0
111.9	1.0
111.915	5.0
111.93	4.0
111.944	3.0
111.959	3.0
111.974	5.0
111.989	3.0
112.004	5.0
112.019	8.0
112.033	2.0
112.048	3.0
112.063	3.0
112.078	3.0
112.093	3.0
112.108	3.0
112.123	1.0
112.137	2.0
112.152	1.0
112.167	4.0
112.182	3.0
112.197	2.0
112.212	2.0
112.226	3.0
112.241	1.0
112.256	5.0
112.271	1.0
112.286	0.0
112.301	1.0
112.315	3.0
112.33	4.0
112.345	6.0
112.36	6.0
112.375	3.0
112.389	3.0
112.404	3.0
112.419	2.0
112.434	4.0
112.449	3.0
112.464	2.0
112.478	5.0
112.493	0.0
112.508	2.0
112.523	2.0
112.538	4.0
112.553	3.0
112.567	4.0
112.582	4.0
112.597	3.0
112.612	7.0
112.627	2.0
112.642	1.0
112.656	0.0
112.671	2.0
112.686	4.0
112.701	0.0
112.716	3.0
112.73	6.0
112.745	3.0
112.76	5.0
112.775	3.0
112.79	8.0
112.805	2.0
112.819	2.0
112.834	2.0
112.849	6.0
112.864	7.0
112.879	6.0
112.894	2.0
112.908	4.0
112.923	3.0
112.938	3.0
112.953	0.0
112.968	2.0
112.983	6.0
112.997	1.0
113.012	4.0
113.027	2.0
113.042	4.0
113.057	1.0
113.072	5.0
113.086	3.0
113.101	5.0
113.116	1.0
113.131	1.0
113.146	5.0
113.161	2.0
113.175	3.0
113.19	2.0
113.205	2.0
113.22	0.0
113.235	4.0
113.25	3.0
113.265	4.0
113.279	0.0
113.294	2.0
113.309	1.0
113.324	4.0
113.339	6.0
113.354	5.0
113.368	4.0
113.383	3.0
113.398	3.0
113.413	5.0
113.428	5.0
113.443	2.0
113.458	2.0
113.472	1.0
113.487	2.0
113.502	1.0
113.517	1.0
113.532	5.0
113.547	4.0
113.562	1.0
113.576	2.0
113.591	3.0
113.606	4.0
113.621	1.0
113.636	7.0
113.651	1.0
113.666	4.0
113.681	2.0
113.695	1.0
113.71	2.0
113.725	3.0
113.74	5.0
113.755	4.0
113.77	2.0
113.785	4.0
113.8	4.0
113.814	5.0
113.829	1.0
113.844	1.0
113.859	2.0
113.874	2.0
113.889	4.0
113.904	4.0
113.919	4.0
113.934	2.0
113.949	3.0
113.963	3.0
113.978	4.0
113.993	4.0
114.008	5.0
114.023	7.0
114.038	2.0
114.053	2.0
114.068	4.0
114.083	3.0
114.098	5.0
114.113	4.0
114.127	3.0
114.142	6.0
114.157	5.0
114.172	4.0
114.187	2.0
114.202	5.0
114.217	5.0
114.232	4.0
114.247	4.0
114.262	1.0
114.277	6.0
114.292	8.0
114.307	4.0
114.322	5.0
114.337	4.0
114.351	2.0
114.366	4.0
114.381	5.0
114.396	3.0
114.411	5.0
114.426	1.0
114.441	4.0
114.456	5.0
114.471	2.0
114.486	3.0
114.501	2.0
114.516	3.0
114.531	2.0
114.546	3.0
114.561	2.0
114.576	3.0
114.591	5.0
114.606	6.0
114.621	6.0
114.636	2.0
114.65	7.0
114.665	4.0
114.68	5.0
114.695	5.0
114.71	4.0
114.725	3.0
114.74	4.0
114.755	4.0
114.77	3.0
114.785	6.0
114.8	2.0
114.815	1.0
114.83	0.0
114.845	1.0
114.86	1.0
114.875	2.0
114.89	4.0
114.905	4.0
114.92	6.0
114.935	1.0
114.95	2.0
114.965	4.0
114.98	5.0
114.995	3.0
115.009	5.0
115.024	2.0
115.039	2.0
115.054	4.0
115.069	2.0
115.084	1.0
115.099	2.0
115.114	4.0
115.129	2.0
115.144	5.0
115.159	3.0
115.174	11.0
115.189	2.0
115.204	1.0
115.219	3.0
115.234	3.0
115.249	1.0
115.264	3.0
115.279	5.0
115.294	5.0
115.309	5.0
115.323	4.0
115.338	7.0
115.353	2.0
115.368	2.0
115.383	4.0
115.398	4.0
115.413	4.0
115.428	2.0
115.443	1.0
115.458	1.0
115.473	3.0
115.488	3.0
115.503	4.0
115.518	4.0
115.533	10.0
115.548	8.0
115.562	6.0
115.577	6.0
115.592	5.0
115.607	3.0
115.622	1.0
115.637	5.0
115.652	4.0
115.667	2.0
115.682	3.0
115.697	3.0
115.712	2.0
115.727	4.0
115.741	3.0
115.756	6.0
115.771	6.0
115.786	4.0
115.801	1.0
115.816	1.0
115.831	3.0
115.846	5.0
115.861	8.0
115.875	3.0
115.89	4.0
115.905	8.0
115.92	3.0
115.935	3.0
115.95	4.0
115.965	2.0
115.98	4.0
115.995	4.0
116.009	5.0
116.024	6.0
116.039	0.0
116.054	5.0
116.069	0.0
116.084	4.0
116.099	2.0
116.113	5.0
116.128	3.0
116.143	2.0
116.158	2.0
116.173	1.0
116.188	6.0
116.202	4.0
116.217	2.0
116.232	5.0
116.247	6.0
116.262	3.0
116.277	6.0
116.291	6.0
116.306	5.0
116.321	2.0
116.336	7.0
116.351	4.0
116.366	4.0
116.38	5.0
116.395	5.0
116.41	5.0
116.425	2.0
116.44	3.0
116.454	6.0
116.469	5.0
116.484	3.0
116.499	5.0
116.514	7.0
116.528	5.0
116.543	3.0
116.558	4.0
116.573	1.0
116.588	4.0
116.602	3.0
116.617	4.0
116.632	5.0
116.647	5.0
116.662	3.0
116.676	3.0
116.691	3.0
116.706	2.0
116.721	3.0
116.735	2.0
116.75	7.0
116.765	1.0
116.78	1.0
116.795	1.0
116.809	1.0
116.824	2.0
116.839	3.0
116.854	5.0
116.868	3.0
116.883	5.0
116.898	2.0
116.913	5.0
116.927	2.0
116.942	5.0
116.957	4.0
116.972	4.0
116.986	2.0
117.001	3.0
117.016	3.0
117.031	2.0
117.045	6.0
117.06	4.0
117.075	2.0
117.09	7.0
117.104	3.0
117.119	5.0
117.134	2.0
117.149	1.0
117.163	3.0
117.178	5.0
117.193	3.0
117.208	1.0
117.222	3.0
117.237	3.0
117.252	3.0
117.267	2.0
117.281	2.0
117.296	4.0
117.311	0.0
117.325	3.0
117.34	5.0
117.355	6.0
117.37	5.0
117.384	4.0
117.399	7.0
117.414	3.0
117.429	2.0
117.443	0.0
117.458	6.0
117.473	4.0
117.487	2.0
117.502	2.0
117.517	4.0
117.532	1.0
117.546	4.0
117.561	3.0
117.576	3.0
117.59	3.0
117.605	5.0
117.62	2.0
117.635	6.0
117.649	3.0
117.664	2.0
117.679	6.0
117.693	3.0
117.708	2.0
117.723	5.0
117.738	3.0
117.752	4.0
117.767	2.0
117.782	2.0
117.796	3.0
117.811	2.0
117.826	5.0
117.841	3.0
117.855	2.0
117.87	1.0
117.885	1.0
117.899	3.0
117.914	5.0
117.929	5.0
117.944	4.0
117.958	1.0
117.973	3.0
117.988	2.0
118.002	1.0
118.017	2.0
118.032	4.0
118.047	8.0
118.062	6.0
118.077	5.0
118.092	4.0
118.107	3.0
118.121	5.0
118.136	5.0
118.151	1.0
118.166	4.0
118.181	1.0
118.196	5.0
118.211	8.0
118.225	4.0
118.24	1.0
118.255	0.0
118.27	2.0
118.285	3.0
118.3	2.0
118.315	1.0
118.33	1.0
118.344	7.0
118.359	2.0
118.374	2.0
118.389	5.0
118.404	2.0
118.419	5.0
118.434	4.0
118.449	2.0
118.463	6.0
118.478	5.0
118.493	9.0
118.508	3.0
118.523	0.0
118.538	1.0
118.553	1.0
118.567	2.0
118.582	7.0
118.597	3.0
118.612	5.0
118.627	1.0
118.642	5.0
118.657	6.0
118.672	5.0
118.686	0.0
118.701	5.0
118.716	5.0
118.731	4.0
118.746	3.0
118.761	5.0
118.776	5.0
118.791	3.0
118.805	3.0
118.82	3.0
118.835	3.0
118.85	3.0
118.865	10.0
118.88	4.0
118.895	2.0
118.909	5.0
118.924	3.0
118.939	6.0
118.954	4.0
118.969	1.0
118.984	4.0
118.999	2.0
119.014	0.0
119.028	4.0
119.043	4.0
119.058	6.0
119.073	7.0
119.088	6.0
119.103	3.0
119.118	2.0
119.133	1.0
119.147	7.0
119.162	6.0
119.177	2.0
119.192	5.0
119.207	1.0
119.222	2.0
119.237	4.0
119.251	9.0
119.266	7.0
119.281	2.0
119.296	3.0
119.311	5.0
119.326	7.0
119.341	5.0
119.356	6.0
119.37	5.0
119.385	4.0
119.4	4.0
119.415	1.0
119.43	3.0
119.445	0.0
119.46	1.0
119.475	4.0
119.489	3.0
119.504	3.0
119.519	2.0
119.534	5.0
119.549	5.0
119.564	3.0
119.579	6.0
119.593	5.0
119.608	1.0
119.623	2.0
119.638	1.0
119.653	5.0
119.668	2.0
119.683	4.0
119.698	4.0
119.712	4.0
119.727	1.0
119.742	4.0
119.757	3.0
119.772	5.0
119.787	2.0
119.802	4.0
119.817	3.0
119.831	1.0
119.846	1.0
119.861	6.0
119.876	1.0
119.891	2.0
119.906	3.0
119.921	2.0
119.935	1.0
119.95	2.0
119.965	2.0
119.98	3.0
119.995	2.0
120.01	1.0
120.025	3.0
120.04	3.0
120.054	0.0
120.069	5.0
120.084	2.0
120.099	5.0
120.114	2.0
120.129	1.0
120.144	1.0
120.159	0.0
120.173	1.0
120.188	0.0
120.203	0.0
120.218	2.0
120.233	1.0
120.248	2.0
120.263	0.0
120.277	0.0
120.292	0.0
120.307	0.0
120.322	0.0
120.337	1.0
120.352	0.0
120.367	0.0
120.382	1.0
120.396	0.0
120.411	0.0
120.426	0.0
120.441	0.0
120.456	0.0
120.471	2.0
120.486	0.0
120.501	0.0
120.515	0.0
120.53	0.0
120.545	0.0
120.56	0.0
120.575	1.0
120.59	0.0
120.605	0.0
120.619	0.0
120.634	1.0
120.649	0.0
120.664	0.0
120.679	0.0
120.694	0.0
120.709	0.0
120.724	0.0
120.738	0.0
120.753	0.0
120.768	0.0
120.783	0.0
120.798	0.0
120.813	0.0
120.828	0.0
120.843	0.0
120.857	0.0
120.872	0.0
120.887	0.0
120.902	0.0
120.917	0.0
120.932	0.0
120.947	0.0
120.961	0.0
120.976	0.0
