-1.217	0.0
-1.202	0.0
-1.187	0.0
-1.172	0.0
-1.157	0.0
-1.142	0.0
-1.128	0.0
-1.113	0.0
-1.098	0.0
-1.083	0.0
-1.068	0.0
-1.054	0.0
-1.039	0.0
-1.024	1.0
-1.009	0.0
-0.994	0.0
-0.979	0.0
-0.965	0.0
-0.95	0.0
-0.935	0.0
-0.92	0.0
-0.905	0.0
-0.891	0.0
-0.876	0.0
-0.861	0.0
-0.846	0.0
-0.831	0.0
-0.816	0.0
-0.802	0.0
-0.787	0.0
-0.772	0.0
-0.757	0.0
-0.742	0.0
-0.728	0.0
-0.713	0.0
-0.698	0.0
-0.683	0.0
-0.668	0.0
-0.653	0.0
-0.639	0.0
-0.624	0.0
-0.609	0.0
-0.594	0.0
-0.579	0.0
-0.565	0.0
-0.55	0.0
-0.535	0.0
-0.52	0.0
-0.505	0.0
-0.49	0.0
-0.476	0.0
-0.461	0.0
-0.446	0.0
-0.431	0.0
-0.416	0.0
-0.401	0.0
-0.387	0.0
-0.372	0.0
-0.357	0.0
-0.342	0.0
-0.327	0.0
-0.313	0.0
-0.298	0.0
-0.283	0.0
-0.268	0.0
-0.253	0.0
-0.238	0.0
-0.224	0.0
-0.209	0.0
-0.194	0.0
-0.179	0.0
-0.164	0.0
-0.15	0.0
-0.135	0.0
-0.12	0.0
-0.105	0.0
-0.09	0.0
-0.075	0.0
-0.061	0.0
-0.046	0.0
-0.031	0.0
-0.016	0.0
-0.001	0.0
0.013	0.0
0.028	0.0
0.043	0.0
0.058	0.0
0.073	0.0
0.088	0.0
0.102	0.0
0.117	0.0
0.132	0.0
0.147	0.0
0.162	0.0
0.176	0.0
0.191	0.0
0.206	0.0
0.221	0.0
0.236	0.0
0.251	0.0
0.265	0.0
0.28	0.0
0.295	0.0
0.31	0.0
0.325	0.0
0.339	0.0
0.354	0.0
0.369	0.0
0.384	0.0
0.399	0.0
0.414	0.0
0.428	0.0
0.443	0.0
0.458	0.0
0.473	0.0
0.488	0.0
0.502	0.0
0.517	0.0
0.532	1.0
0.547	0.0
0.562	0.0
0.577	0.0
0.591	0.0
0.606	0.0
0.621	0.0
0.636	0.0
0.651	0.0
0.665	0.0
0.68	0.0
0.695	0.0
0.71	0.0
0.725	0.0
0.74	0.0
0.754	0.0
0.769	0.0
0.784	0.0
0.799	0.0
0.814	0.0
0.828	0.0
0.843	0.0
0.858	0.0
0.873	0.0
0.888	0.0
0.903	0.0
0.917	0.0
0.932	0.0
0.947	0.0
0.962	0.0
0.977	0.0
0.991	0.0
1.006	0.0
1.021	0.0
1.036	0.0
1.051	0.0
1.065	0.0
1.08	0.0
1.095	0.0
1.11	0.0
1.125	0.0
1.14	0.0
1.154	0.0
1.169	0.0
1.184	0.0
1.199	0.0
1.214	0.0
1.228	0.0
1.243	0.0
1.258	0.0
1.273	0.0
1.288	0.0
1.302	0.0
1.317	0.0
1.332	0.0
1.347	0.0
1.362	0.0
1.376	0.0
1.391	0.0
1.406	0.0
1.421	0.0
1.436	0.0
1.45	0.0
1.465	0.0
1.48	0.0
1.495	0.0
1.51	0.0
1.524	0.0
1.539	0.0
1.554	0.0
1.569	0.0
1.584	0.0
1.598	1.0
1.613	0.0
1.628	0.0
1.643	0.0
1.658	1.0
1.672	0.0
1.687	0.0
1.702	0.0
1.717	0.0
1.732	0.0
1.746	0.0
1.761	0.0
1.776	0.0
1.791	0.0
1.806	0.0
1.82	0.0
1.835	1.0
1.85	0.0
1.865	0.0
1.88	0.0
1.894	0.0
1.909	1.0
1.924	0.0
1.939	0.0
1.954	0.0
1.968	0.0
1.983	0.0
1.998	0.0
2.013	0.0
2.028	1.0
2.042	0.0
2.057	0.0
2.072	0.0
2.087	0.0
2.101	0.0
2.116	0.0
2.131	1.0
2.146	0.0
2.161	2.0
2.175	0.0
2.19	0.0
2.205	0.0
2.22	1.0
2.235	0.0
2.249	2.0
2.264	2.0
2.279	0.0
2.294	1.0
2.308	0.0
2.323	0.0
2.338	3.0
2.353	0.0
2.368	0.0
2.382	2.0
2.397	3.0
2.412	1.0
2.427	0.0
2.442	0.0
2.456	0.0
2.471	2.0
2.486	3.0
2.501	3.0
2.515	1.0
2.53	2.0
2.545	2.0
2.56	2.0
2.575	4.0
2.589	2.0
2.604	0.0
2.619	3.0
2.634	1.0
2.649	0.0
2.663	4.0
2.678	6.0
2.693	3.0
2.708	3.0
2.722	3.0
2.737	2.0
2.752	3.0
2.767	1.0
2.782	4.0
2.796	3.0
2.811	2.0
2.826	4.0
2.841	5.0
2.856	6.0
2.87	4.0
2.885	3.0
2.9	2.0
2.915	1.0
2.93	2.0
2.944	5.0
2.959	5.0
2.974	3.0
2.989	1.0
3.004	6.0
3.018	4.0
3.033	4.0
3.048	2.0
3.063	1.0
3.078	1.0
3.092	1.0
3.107	5.0
3.122	3.0
3.137	6.0
3.152	2.0
3.166	2.0
3.181	3.0
3.196	5.0
3.211	2.0
3.226	3.0
3.24	5.0
3.255	4.0
3.27	5.0
3.285	5.0
3.3	2.0
3.315	5.0
3.329	3.0
3.344	6.0
3.359	4.0
3.374	6.0
3.389	3.0
3.403	6.0
3.418	4.0
3.433	4.0
3.448	0.0
3.463	4.0
3.478	3.0
3.492	8.0
3.507	5.0
3.522	4.0
3.537	4.0
3.552	3.0
3.567	6.0
3.581	4.0
3.596	6.0
3.611	6.0
3.626	6.0
3.641	7.0
3.656	7.0
3.671	8.0
3.685	3.0
3.7	8.0
3.715	7.0
3.73	7.0
3.745	5.0
3.76	10.0
3.775	6.0
3.789	7.0
3.804	4.0
3.819	5.0
3.834	6.0
3.849	7.0
3.864	5.0
3.879	8.0
3.894	5.0
3.908	7.0
3.923	5.0
3.938	6.0
3.953	11.0
3.968	6.0
3.983	6.0
3.998	6.0
4.013	3.0
4.027	8.0
4.042	5.0
4.057	5.0
4.072	8.0
4.087	5.0
4.102	1.0
4.117	10.0
4.132	9.0
4.147	7.0
4.162	6.0
4.176	5.0
4.191	2.0
4.206	8.0
4.221	4.0
4.236	7.0
4.251	4.0
4.266	6.0
4.281	9.0
4.296	4.0
4.311	9.0
4.326	9.0
4.341	7.0
4.356	7.0
4.37	3.0
4.385	5.0
4.4	5.0
4.415	7.0
4.43	7.0
4.445	11.0
4.46	9.0
4.475	12.0
4.49	13.0
4.505	5.0
4.52	6.0
4.535	5.0
4.55	8.0
4.565	6.0
4.58	6.0
4.595	6.0
4.61	9.0
4.625	7.0
4.639	4.0
4.654	3.0
4.669	6.0
4.684	11.0
4.699	8.0
4.714	3.0
4.729	7.0
4.744	9.0
4.759	12.0
4.774	5.0
4.789	7.0
4.804	6.0
4.819	5.0
4.834	5.0
4.849	6.0
4.864	8.0
4.879	9.0
4.894	8.0
4.909	5.0
4.924	7.0
4.939	8.0
4.954	10.0
4.969	13.0
4.984	5.0
4.999	8.0
5.014	10.0
5.029	11.0
5.044	2.0
5.059	7.0
5.074	9.0
5.089	8.0
5.104	16.0
5.119	7.0
5.134	8.0
5.149	12.0
5.164	9.0
5.179	10.0
5.194	11.0
5.209	4.0
5.224	8.0
5.239	11.0
5.254	9.0
5.269	3.0
5.284	2.0
5.299	8.0
5.314	7.0
5.329	10.0
5.344	5.0
5.359	3.0
5.374	5.0
5.389	6.0
5.404	9.0
5.419	3.0
5.434	3.0
5.449	7.0
5.464	10.0
5.479	8.0
5.494	5.0
5.509	11.0
5.524	9.0
5.539	16.0
5.554	4.0
5.569	7.0
5.584	3.0
5.599	9.0
5.614	6.0
5.629	9.0
5.644	7.0
5.659	5.0
5.674	6.0
5.689	9.0
5.704	14.0
5.719	7.0
5.734	11.0
5.749	7.0
5.764	3.0
5.779	7.0
5.794	5.0
5.809	7.0
5.824	8.0
5.839	8.0
5.854	8.0
5.869	5.0
5.884	10.0
5.899	12.0
5.914	5.0
5.929	8.0
5.944	5.0
5.959	9.0
5.974	5.0
5.989	8.0
6.004	9.0
6.019	9.0
6.034	8.0
6.049	8.0
6.064	13.0
6.079	11.0
6.094	5.0
6.109	6.0
6.124	17.0
6.139	12.0
6.154	8.0
6.169	5.0
6.184	5.0
6.199	2.0
6.214	8.0
6.229	8.0
6.244	6.0
6.259	7.0
6.274	16.0
6.289	9.0
6.304	15.0
6.319	7.0
6.334	12.0
6.349	6.0
6.364	9.0
6.379	10.0
6.394	10.0
6.409	11.0
6.424	11.0
6.439	7.0
6.454	9.0
6.469	7.0
6.484	3.0
6.499	11.0
6.514	5.0
6.529	4.0
6.544	5.0
6.559	11.0
6.574	11.0
6.589	6.0
6.604	7.0
6.619	12.0
6.634	7.0
6.649	8.0
6.664	4.0
6.679	4.0
6.694	6.0
6.709	12.0
6.724	7.0
6.739	11.0
6.754	10.0
6.769	17.0
6.784	15.0
6.799	6.0
6.814	8.0
6.829	7.0
6.844	5.0
6.859	12.0
6.873	11.0
6.888	9.0
6.903	9.0
6.918	7.0
6.933	15.0
6.948	12.0
6.963	11.0
6.978	6.0
6.993	6.0
7.008	3.0
7.023	5.0
7.038	10.0
7.053	3.0
7.068	9.0
7.083	7.0
7.098	8.0
7.113	4.0
7.128	8.0
7.143	7.0
7.157	7.0
7.172	10.0
7.187	9.0
7.202	11.0
7.217	12.0
7.232	8.0
7.247	5.0
7.262	6.0
7.277	10.0
7.292	7.0
7.307	12.0
7.322	13.0
7.336	5.0
7.351	4.0
7.366	9.0
7.381	8.0
7.396	11.0
7.411	7.0
7.426	14.0
7.441	9.0
7.456	8.0
7.471	3.0
7.485	12.0
7.5	8.0
7.515	10.0
7.53	10.0
7.545	8.0
7.56	11.0
7.575	7.0
7.59	7.0
7.604	10.0
7.619	7.0
7.634	9.0
7.649	8.0
7.664	11.0
7.679	10.0
7.693	4.0
7.708	8.0
7.723	8.0
7.738	10.0
7.753	4.0
7.768	16.0
7.783	4.0
7.797	7.0
7.812	8.0
7.827	10.0
7.842	9.0
7.857	8.0
7.871	10.0
7.886	9.0
7.901	6.0
7.916	9.0
7.931	9.0
7.945	5.0
7.96	9.0
7.975	11.0
7.99	9.0
8.005	7.0
8.019	10.0
8.034	7.0
8.049	5.0
8.064	11.0
8.078	8.0
8.093	5.0
8.108	11.0
8.123	10.0
8.137	8.0
8.152	11.0
8.167	12.0
8.182	5.0
8.196	7.0
8.211	5.0
8.226	7.0
8.241	10.0
8.255	9.0
8.27	9.0
8.285	7.0
8.3	9.0
8.314	10.0
8.329	6.0
8.344	9.0
8.358	14.0
8.373	5.0
8.388	11.0
8.403	5.0
8.417	10.0
8.432	5.0
8.447	9.0
8.461	11.0
8.476	7.0
8.491	12.0
8.505	10.0
8.52	9.0
8.535	9.0
8.55	7.0
8.564	8.0
8.579	10.0
8.594	8.0
8.608	7.0
8.623	14.0
8.638	10.0
8.652	8.0
8.667	9.0
8.682	5.0
8.696	1.0
8.711	10.0
8.726	7.0
8.74	10.0
8.755	12.0
8.77	12.0
8.784	5.0
8.799	7.0
8.814	16.0
8.828	4.0
8.843	13.0
8.858	6.0
8.872	9.0
8.887	8.0
8.902	9.0
8.916	8.0
8.931	6.0
8.946	9.0
8.96	7.0
8.975	8.0
8.99	9.0
9.004	8.0
9.019	7.0
9.034	8.0
9.048	9.0
9.063	5.0
9.077	8.0
9.092	9.0
9.107	11.0
9.121	2.0
9.136	6.0
9.151	7.0
9.165	7.0
9.18	13.0
9.195	9.0
9.209	5.0
9.224	17.0
9.239	11.0
9.253	7.0
9.268	5.0
9.283	11.0
9.297	2.0
9.312	9.0
9.327	11.0
9.341	3.0
9.356	4.0
9.371	8.0
9.385	7.0
9.4	9.0
9.415	4.0
9.429	6.0
9.444	7.0
9.458	11.0
9.473	6.0
9.488	9.0
9.502	8.0
9.517	6.0
9.532	6.0
9.546	4.0
9.561	8.0
9.576	8.0
9.59	12.0
9.605	11.0
9.62	11.0
9.635	9.0
9.649	9.0
9.664	5.0
9.679	12.0
9.693	9.0
9.708	5.0
9.723	8.0
9.737	9.0
9.752	10.0
9.767	5.0
9.781	11.0
9.796	4.0
9.811	8.0
9.825	8.0
9.84	8.0
9.855	11.0
9.87	9.0
9.884	11.0
9.899	11.0
9.914	7.0
9.928	12.0
9.943	11.0
9.958	6.0
9.973	11.0
9.987	7.0
10.002	7.0
10.017	6.0
10.031	4.0
10.046	6.0
10.061	11.0
10.076	5.0
10.09	7.0
10.105	9.0
10.12	13.0
10.135	11.0
10.149	8.0
10.164	7.0
10.179	5.0
10.194	14.0
10.208	9.0
10.223	8.0
10.238	9.0
10.253	10.0
10.267	5.0
10.282	7.0
10.297	11.0
10.312	11.0
10.326	5.0
10.341	6.0
10.356	9.0
10.371	8.0
10.386	8.0
10.4	5.0
10.415	7.0
10.43	9.0
10.445	9.0
10.46	8.0
10.474	5.0
10.489	9.0
10.504	1.0
10.519	7.0
10.533	7.0
10.548	9.0
10.563	14.0
10.578	8.0
10.593	6.0
10.608	7.0
10.622	7.0
10.637	8.0
10.652	8.0
10.667	3.0
10.682	10.0
10.696	1.0
10.711	7.0
10.726	6.0
10.741	4.0
10.756	6.0
10.771	7.0
10.785	9.0
10.8	10.0
10.815	8.0
10.83	10.0
10.845	6.0
10.86	6.0
10.874	3.0
10.889	8.0
10.904	8.0
10.919	5.0
10.934	12.0
10.949	7.0
10.963	8.0
10.978	10.0
10.993	9.0
11.008	7.0
11.023	11.0
11.038	3.0
11.053	3.0
11.067	8.0
11.082	7.0
11.097	5.0
11.112	6.0
11.127	8.0
11.142	7.0
11.157	7.0
11.172	5.0
11.186	9.0
11.201	7.0
11.216	5.0
11.231	12.0
11.246	7.0
11.261	5.0
11.276	10.0
11.291	9.0
11.305	14.0
11.32	12.0
11.335	14.0
11.35	4.0
11.365	10.0
11.38	11.0
11.395	7.0
11.41	12.0
11.424	7.0
11.439	3.0
11.454	12.0
11.469	7.0
11.484	14.0
11.499	10.0
11.514	14.0
11.529	5.0
11.544	6.0
11.558	8.0
11.573	7.0
11.588	5.0
11.603	9.0
11.618	9.0
11.633	6.0
11.648	10.0
11.663	9.0
11.678	5.0
11.693	7.0
11.707	7.0
11.722	8.0
11.737	13.0
11.752	8.0
11.767	12.0
11.782	11.0
11.797	8.0
11.812	2.0
11.827	7.0
11.842	4.0
11.856	6.0
11.871	9.0
11.886	7.0
11.901	5.0
11.916	8.0
11.931	3.0
11.946	10.0
11.961	14.0
11.976	10.0
11.991	11.0
12.006	6.0
12.02	8.0
12.035	5.0
12.05	11.0
12.065	8.0
12.08	7.0
12.095	9.0
12.11	18.0
12.125	11.0
12.14	4.0
12.155	8.0
12.17	11.0
12.184	7.0
12.199	3.0
12.214	13.0
12.229	14.0
12.244	11.0
12.259	13.0
12.274	6.0
12.289	14.0
12.304	11.0
12.319	12.0
12.334	11.0
12.348	7.0
12.363	10.0
12.378	14.0
12.393	8.0
12.408	11.0
12.423	10.0
12.438	14.0
12.453	8.0
12.468	13.0
12.483	13.0
12.498	16.0
12.513	21.0
12.527	12.0
12.542	10.0
12.557	6.0
12.572	14.0
12.587	15.0
12.602	8.0
12.617	14.0
12.632	13.0
12.647	12.0
12.662	10.0
12.677	13.0
12.692	14.0
12.707	21.0
12.721	10.0
12.736	12.0
12.751	11.0
12.766	10.0
12.781	19.0
12.796	18.0
12.811	16.0
12.826	15.0
12.841	8.0
12.856	14.0
12.871	13.0
12.886	9.0
12.9	18.0
12.915	12.0
12.93	15.0
12.945	20.0
12.96	16.0
12.975	8.0
12.99	15.0
13.005	15.0
13.02	17.0
13.035	22.0
13.05	16.0
13.065	14.0
13.08	16.0
13.094	19.0
13.109	16.0
13.124	11.0
13.139	21.0
13.154	21.0
13.169	19.0
13.184	23.0
13.199	14.0
13.214	19.0
13.229	19.0
13.244	19.0
13.259	20.0
13.274	25.0
13.288	20.0
13.303	23.0
13.318	30.0
13.333	26.0
13.348	18.0
13.363	21.0
13.378	28.0
13.393	21.0
13.408	20.0
13.423	16.0
13.438	34.0
13.453	24.0
13.468	38.0
13.482	28.0
13.497	47.0
13.512	36.0
13.527	39.0
13.542	26.0
13.557	40.0
13.572	38.0
13.587	49.0
13.602	63.0
13.617	73.0
13.632	73.0
13.647	64.0
13.662	71.0
13.677	86.0
13.691	95.0
13.706	81.0
13.721	104.0
13.736	95.0
13.751	78.0
13.766	105.0
13.781	119.0
13.796	120.0
13.811	138.0
13.826	121.0
13.841	126.0
13.856	113.0
13.871	117.0
13.885	87.0
13.9	83.0
13.915	65.0
13.93	64.0
13.945	58.0
13.96	51.0
13.975	41.0
13.99	37.0
14.005	32.0
14.02	28.0
14.035	18.0
14.05	32.0
14.065	27.0
14.08	26.0
14.094	20.0
14.109	24.0
14.124	28.0
14.139	21.0
14.154	20.0
14.169	18.0
14.184	33.0
14.199	20.0
14.214	17.0
14.229	19.0
14.244	17.0
14.259	25.0
14.274	18.0
14.288	20.0
14.303	18.0
14.318	20.0
14.333	15.0
14.348	23.0
14.363	20.0
14.378	23.0
14.393	27.0
14.408	23.0
14.423	24.0
14.438	21.0
14.453	21.0
14.468	20.0
14.482	16.0
14.497	6.0
14.512	19.0
14.527	12.0
14.542	17.0
14.557	15.0
14.572	24.0
14.587	10.0
14.602	11.0
14.617	21.0
14.632	13.0
14.647	15.0
14.661	17.0
14.676	19.0
14.691	13.0
14.706	13.0
14.721	20.0
14.736	16.0
14.751	16.0
14.766	16.0
14.781	15.0
14.796	12.0
14.811	15.0
14.826	10.0
14.84	18.0
14.855	16.0
14.87	16.0
14.885	16.0
14.9	12.0
14.915	18.0
14.93	10.0
14.945	13.0
14.96	19.0
14.975	23.0
14.989	19.0
15.004	14.0
15.019	17.0
15.034	17.0
15.049	9.0
15.064	8.0
15.079	11.0
15.094	16.0
15.109	12.0
15.124	16.0
15.138	22.0
15.153	21.0
15.168	12.0
15.183	17.0
15.198	15.0
15.213	13.0
15.228	17.0
15.243	17.0
15.258	9.0
15.272	15.0
15.287	12.0
15.302	13.0
15.317	11.0
15.332	9.0
15.347	15.0
15.362	11.0
15.377	17.0
15.391	9.0
15.406	19.0
15.421	12.0
15.436	19.0
15.451	14.0
15.466	20.0
15.481	18.0
15.496	17.0
15.51	8.0
15.525	10.0
15.54	13.0
15.555	11.0
15.57	17.0
15.585	15.0
15.6	6.0
15.614	9.0
15.629	13.0
15.644	17.0
15.659	12.0
15.674	8.0
15.689	11.0
15.704	11.0
15.718	10.0
15.733	12.0
15.748	13.0
15.763	17.0
15.778	9.0
15.793	5.0
15.808	13.0
15.822	9.0
15.837	16.0
15.852	15.0
15.867	9.0
15.882	10.0
15.897	11.0
15.911	21.0
15.926	9.0
15.941	14.0
15.956	17.0
15.971	22.0
15.986	14.0
16.0	9.0
16.015	14.0
16.03	15.0
16.045	13.0
16.06	8.0
16.074	18.0
16.089	14.0
16.104	16.0
16.119	14.0
16.134	13.0
16.149	16.0
16.163	14.0
16.178	5.0
16.193	13.0
16.208	16.0
16.223	9.0
16.237	11.0
16.252	15.0
16.267	8.0
16.282	8.0
16.297	20.0
16.311	16.0
16.326	10.0
16.341	10.0
16.356	7.0
16.37	19.0
16.385	18.0
16.4	23.0
16.415	7.0
16.43	8.0
16.444	17.0
16.459	11.0
16.474	12.0
16.489	10.0
16.504	13.0
16.518	15.0
16.533	17.0
16.548	17.0
16.563	14.0
16.577	13.0
16.592	12.0
16.607	12.0
16.622	18.0
16.637	23.0
16.651	21.0
16.666	20.0
16.681	20.0
16.696	30.0
16.71	39.0
16.725	32.0
16.74	21.0
16.755	25.0
16.77	35.0
16.784	39.0
16.799	25.0
16.814	43.0
16.829	51.0
16.843	45.0
16.858	52.0
16.873	62.0
16.888	54.0
16.902	61.0
16.917	68.0
16.932	72.0
16.947	65.0
16.961	88.0
16.976	80.0
16.991	52.0
17.006	53.0
17.021	52.0
17.035	54.0
17.05	50.0
17.065	39.0
17.08	28.0
17.094	29.0
17.109	26.0
17.124	24.0
17.139	25.0
17.153	20.0
17.168	22.0
17.183	22.0
17.198	17.0
17.212	17.0
17.227	14.0
17.242	21.0
17.257	13.0
17.271	13.0
17.286	19.0
17.301	13.0
17.316	17.0
17.33	11.0
17.345	17.0
17.36	12.0
17.375	15.0
17.39	15.0
17.404	9.0
17.419	15.0
17.434	15.0
17.449	8.0
17.463	14.0
17.478	7.0
17.493	11.0
17.508	6.0
17.522	15.0
17.537	9.0
17.552	6.0
17.567	14.0
17.581	11.0
17.596	11.0
17.611	14.0
17.626	13.0
17.641	15.0
17.655	8.0
17.67	12.0
17.685	11.0
17.7	9.0
17.714	15.0
17.729	16.0
17.744	9.0
17.759	8.0
17.773	19.0
17.788	13.0
17.803	9.0
17.818	12.0
17.833	13.0
17.847	10.0
17.862	12.0
17.877	8.0
17.892	14.0
17.906	10.0
17.921	18.0
17.936	10.0
17.951	12.0
17.966	10.0
17.98	10.0
17.995	19.0
18.01	12.0
18.025	10.0
18.04	11.0
18.054	14.0
18.069	12.0
18.084	9.0
18.099	8.0
18.114	10.0
18.128	12.0
18.143	12.0
18.158	11.0
18.173	7.0
18.188	7.0
18.202	12.0
18.217	12.0
18.232	12.0
18.247	12.0
18.262	12.0
18.276	12.0
18.291	10.0
18.306	11.0
18.321	13.0
18.336	12.0
18.35	13.0
18.365	9.0
18.38	9.0
18.395	12.0
18.41	7.0
18.424	6.0
18.439	9.0
18.454	9.0
18.469	6.0
18.484	12.0
18.498	9.0
18.513	11.0
18.528	11.0
18.543	13.0
18.558	10.0
18.573	10.0
18.587	10.0
18.602	9.0
18.617	14.0
18.632	7.0
18.647	9.0
18.661	11.0
18.676	10.0
18.691	7.0
18.706	5.0
18.721	17.0
18.736	17.0
18.75	13.0
18.765	11.0
18.78	10.0
18.795	9.0
18.81	13.0
18.825	9.0
18.839	8.0
18.854	13.0
18.869	12.0
18.884	12.0
18.899	14.0
18.913	10.0
18.928	12.0
18.943	8.0
18.958	14.0
18.973	12.0
18.988	11.0
19.002	15.0
19.017	14.0
19.032	6.0
19.047	5.0
19.062	9.0
19.077	18.0
19.091	10.0
19.106	9.0
19.121	15.0
19.136	13.0
19.151	10.0
19.165	8.0
19.18	8.0
19.195	9.0
19.21	11.0
19.225	11.0
19.24	11.0
19.254	10.0
19.269	12.0
19.284	18.0
19.299	16.0
19.314	15.0
19.329	11.0
19.343	16.0
19.358	12.0
19.373	15.0
19.388	19.0
19.403	23.0
19.417	26.0
19.432	24.0
19.447	16.0
19.462	20.0
19.477	20.0
19.492	18.0
19.506	29.0
19.521	38.0
19.536	25.0
19.551	31.0
19.566	33.0
19.58	34.0
19.595	38.0
19.61	44.0
19.625	39.0
19.64	34.0
19.655	40.0
19.669	36.0
19.684	34.0
19.699	33.0
19.714	31.0
19.729	17.0
19.743	22.0
19.758	25.0
19.773	19.0
19.788	26.0
19.803	15.0
19.817	15.0
19.832	15.0
19.847	15.0
19.862	13.0
19.877	12.0
19.891	17.0
19.906	9.0
19.921	14.0
19.936	13.0
19.951	10.0
19.965	13.0
19.98	15.0
19.995	11.0
20.01	17.0
20.025	8.0
20.039	16.0
20.054	11.0
20.069	10.0
20.084	10.0
20.099	11.0
20.113	14.0
20.128	14.0
20.143	12.0
20.158	15.0
20.173	13.0
20.187	12.0
20.202	15.0
20.217	11.0
20.232	9.0
20.246	7.0
20.261	10.0
20.276	10.0
20.291	16.0
20.306	7.0
20.32	8.0
20.335	9.0
20.35	7.0
20.365	14.0
20.38	10.0
20.394	16.0
20.409	6.0
20.424	15.0
20.439	11.0
20.453	8.0
20.468	13.0
20.483	11.0
20.498	6.0
20.513	13.0
20.527	16.0
20.542	5.0
20.557	8.0
20.572	10.0
20.586	16.0
20.601	12.0
20.616	6.0
20.631	10.0
20.646	8.0
20.66	6.0
20.675	17.0
20.69	12.0
20.705	14.0
20.719	11.0
20.734	14.0
20.749	9.0
20.764	11.0
20.779	13.0
20.793	8.0
20.808	11.0
20.823	11.0
20.838	14.0
20.853	15.0
20.867	19.0
20.882	5.0
20.897	16.0
20.912	10.0
20.926	6.0
20.941	8.0
20.956	10.0
20.971	7.0
20.986	17.0
21.0	15.0
21.015	6.0
21.03	11.0
21.045	7.0
21.06	9.0
21.074	13.0
21.089	17.0
21.104	11.0
21.119	18.0
21.134	10.0
21.148	16.0
21.163	9.0
21.178	11.0
21.193	9.0
21.208	10.0
21.222	10.0
21.237	12.0
21.252	10.0
21.267	9.0
21.282	11.0
21.296	12.0
21.311	6.0
21.326	16.0
21.341	16.0
21.356	9.0
21.37	15.0
21.385	11.0
21.4	8.0
21.415	8.0
21.43	12.0
21.444	8.0
21.459	14.0
21.474	7.0
21.489	10.0
21.504	11.0
21.519	11.0
21.533	10.0
21.548	10.0
21.563	14.0
21.578	8.0
21.593	8.0
21.608	9.0
21.622	13.0
21.637	15.0
21.652	19.0
21.667	13.0
21.682	17.0
21.697	19.0
21.712	19.0
21.726	19.0
21.741	25.0
21.756	23.0
21.771	24.0
21.786	36.0
21.801	36.0
21.816	50.0
21.83	44.0
21.845	40.0
21.86	50.0
21.875	72.0
21.89	77.0
21.905	85.0
21.92	66.0
21.935	96.0
21.949	75.0
21.964	74.0
21.979	77.0
21.994	62.0
22.009	75.0
22.024	57.0
22.039	43.0
22.054	39.0
22.069	52.0
22.083	50.0
22.098	37.0
22.113	39.0
22.128	34.0
22.143	30.0
22.158	31.0
22.173	23.0
22.188	13.0
22.203	17.0
22.218	12.0
22.233	16.0
22.248	10.0
22.262	18.0
22.277	10.0
22.292	15.0
22.307	9.0
22.322	6.0
22.337	11.0
22.352	14.0
22.367	8.0
22.382	10.0
22.397	16.0
22.412	8.0
22.427	10.0
22.442	12.0
22.457	14.0
22.472	18.0
22.487	7.0
22.502	9.0
22.516	20.0
22.531	16.0
22.546	15.0
22.561	15.0
22.576	9.0
22.591	15.0
22.606	7.0
22.621	11.0
22.636	6.0
22.651	12.0
22.666	8.0
22.681	10.0
22.696	11.0
22.711	10.0
22.726	9.0
22.741	12.0
22.756	10.0
22.771	8.0
22.786	13.0
22.801	9.0
22.816	13.0
22.831	9.0
22.846	14.0
22.861	5.0
22.876	6.0
22.891	15.0
22.906	12.0
22.92	14.0
22.935	7.0
22.95	5.0
22.965	13.0
22.98	18.0
22.995	13.0
23.01	13.0
23.025	14.0
23.04	12.0
23.055	12.0
23.07	12.0
23.085	9.0
23.1	7.0
23.115	10.0
23.13	10.0
23.145	2.0
23.16	9.0
23.175	7.0
23.19	9.0
23.205	9.0
23.22	14.0
23.235	8.0
23.25	10.0
23.265	14.0
23.28	20.0
23.295	8.0
23.31	8.0
23.325	8.0
23.34	10.0
23.355	5.0
23.37	4.0
23.384	12.0
23.399	7.0
23.414	8.0
23.429	15.0
23.444	9.0
23.459	5.0
23.474	11.0
23.489	9.0
23.504	12.0
23.519	6.0
23.534	13.0
23.549	14.0
23.564	11.0
23.579	12.0
23.594	7.0
23.609	11.0
23.624	8.0
23.639	12.0
23.654	9.0
23.668	9.0
23.683	10.0
23.698	12.0
23.713	9.0
23.728	9.0
23.743	11.0
23.758	16.0
23.773	14.0
23.788	11.0
23.803	14.0
23.818	9.0
23.833	16.0
23.848	20.0
23.862	14.0
23.877	16.0
23.892	18.0
23.907	20.0
23.922	22.0
23.937	17.0
23.952	23.0
23.967	24.0
23.982	33.0
23.997	35.0
24.011	46.0
24.026	33.0
24.041	58.0
24.056	45.0
24.071	46.0
24.086	44.0
24.101	35.0
24.116	49.0
24.131	38.0
24.145	41.0
24.16	39.0
24.175	36.0
24.19	42.0
24.205	48.0
24.22	29.0
24.235	31.0
24.249	27.0
24.264	25.0
24.279	22.0
24.294	26.0
24.309	15.0
24.324	15.0
24.338	10.0
24.353	14.0
24.368	14.0
24.383	12.0
24.398	20.0
24.413	20.0
24.428	10.0
24.442	6.0
24.457	11.0
24.472	7.0
24.487	15.0
24.502	10.0
24.516	10.0
24.531	11.0
24.546	8.0
24.561	11.0
24.576	9.0
24.591	7.0
24.605	10.0
24.62	10.0
24.635	10.0
24.65	10.0
24.665	8.0
24.679	6.0
24.694	13.0
24.709	10.0
24.724	10.0
24.739	18.0
24.753	15.0
24.768	17.0
24.783	11.0
24.798	9.0
24.813	14.0
24.827	11.0
24.842	6.0
24.857	5.0
24.872	5.0
24.886	12.0
24.901	11.0
24.916	12.0
24.931	9.0
24.946	10.0
24.96	10.0
24.975	10.0
24.99	11.0
25.005	6.0
25.019	13.0
25.034	2.0
25.049	10.0
25.064	10.0
25.078	7.0
25.093	9.0
25.108	3.0
25.123	11.0
25.138	15.0
25.152	9.0
25.167	8.0
25.182	7.0
25.197	10.0
25.211	4.0
25.226	10.0
25.241	7.0
25.256	6.0
25.27	15.0
25.285	7.0
25.3	15.0
25.315	9.0
25.329	11.0
25.344	9.0
25.359	17.0
25.374	7.0
25.388	9.0
25.403	9.0
25.418	12.0
25.433	10.0
25.447	13.0
25.462	8.0
25.477	10.0
25.492	8.0
25.506	15.0
25.521	17.0
25.536	8.0
25.55	7.0
25.565	13.0
25.58	5.0
25.595	4.0
25.609	15.0
25.624	10.0
25.639	15.0
25.654	11.0
25.668	9.0
25.683	5.0
25.698	12.0
25.713	12.0
25.727	10.0
25.742	6.0
25.757	10.0
25.772	6.0
25.786	13.0
25.801	7.0
25.816	4.0
25.83	7.0
25.845	15.0
25.86	6.0
25.875	5.0
25.889	12.0
25.904	12.0
25.919	9.0
25.934	4.0
25.948	16.0
25.963	11.0
25.978	8.0
25.992	4.0
26.007	8.0
26.022	13.0
26.037	9.0
26.051	6.0
26.066	16.0
26.081	10.0
26.096	4.0
26.11	5.0
26.125	6.0
26.14	8.0
26.155	7.0
26.169	5.0
26.184	10.0
26.199	10.0
26.213	13.0
26.228	10.0
26.243	9.0
26.258	7.0
26.272	5.0
26.287	13.0
26.302	11.0
26.317	5.0
26.331	7.0
26.346	6.0
26.361	6.0
26.376	8.0
26.39	6.0
26.405	11.0
26.42	9.0
26.434	9.0
26.449	6.0
26.464	14.0
26.479	12.0
26.493	8.0
26.508	8.0
26.523	9.0
26.538	12.0
26.552	8.0
26.567	5.0
26.582	10.0
26.597	13.0
26.611	10.0
26.626	6.0
26.641	5.0
26.656	12.0
26.67	8.0
26.685	9.0
26.7	10.0
26.715	9.0
26.729	9.0
26.744	9.0
26.759	12.0
26.773	6.0
26.788	10.0
26.803	9.0
26.818	7.0
26.832	7.0
26.847	15.0
26.862	8.0
26.877	8.0
26.891	6.0
26.906	12.0
26.921	7.0
26.936	14.0
26.95	13.0
26.965	9.0
26.98	12.0
26.995	6.0
27.01	15.0
27.024	6.0
27.039	9.0
27.054	7.0
27.069	5.0
27.083	12.0
27.098	5.0
27.113	5.0
27.128	9.0
27.142	8.0
27.157	12.0
27.172	9.0
27.187	13.0
27.201	5.0
27.216	9.0
27.231	12.0
27.246	8.0
27.261	10.0
27.275	9.0
27.29	7.0
27.305	7.0
27.32	12.0
27.334	17.0
27.349	22.0
27.364	15.0
27.379	8.0
27.394	8.0
27.408	5.0
27.423	10.0
27.438	9.0
27.453	10.0
27.467	6.0
27.482	12.0
27.497	15.0
27.512	5.0
27.527	14.0
27.541	9.0
27.556	9.0
27.571	16.0
27.586	19.0
27.601	10.0
27.615	6.0
27.63	11.0
27.645	8.0
27.66	9.0
27.675	8.0
27.689	16.0
27.704	14.0
27.719	15.0
27.734	21.0
27.749	12.0
27.763	15.0
27.778	13.0
27.793	16.0
27.808	18.0
27.823	20.0
27.838	24.0
27.852	23.0
27.867	19.0
27.882	16.0
27.897	23.0
27.912	22.0
27.926	24.0
27.941	19.0
27.956	15.0
27.971	25.0
27.986	19.0
28.001	17.0
28.015	15.0
28.03	20.0
28.045	13.0
28.06	17.0
28.075	17.0
28.09	20.0
28.105	15.0
28.119	14.0
28.134	11.0
28.149	11.0
28.164	10.0
28.179	10.0
28.194	5.0
28.208	10.0
28.223	9.0
28.238	13.0
28.253	7.0
28.268	10.0
28.283	18.0
28.298	10.0
28.312	7.0
28.327	15.0
28.342	6.0
28.357	11.0
28.372	13.0
28.387	10.0
28.402	8.0
28.417	4.0
28.431	11.0
28.446	8.0
28.461	12.0
28.476	17.0
28.491	8.0
28.506	7.0
28.521	8.0
28.536	20.0
28.55	9.0
28.565	14.0
28.58	13.0
28.595	8.0
28.61	5.0
28.625	11.0
28.64	5.0
28.655	14.0
28.669	9.0
28.684	12.0
28.699	12.0
28.714	5.0
28.729	10.0
28.744	9.0
28.759	9.0
28.774	17.0
28.788	4.0
28.803	12.0
28.818	6.0
28.833	4.0
28.848	13.0
28.863	10.0
28.878	9.0
28.893	15.0
28.908	13.0
28.922	16.0
28.937	17.0
28.952	15.0
28.967	9.0
28.982	19.0
28.997	19.0
29.012	15.0
29.027	8.0
29.041	14.0
29.056	6.0
29.071	9.0
29.086	16.0
29.101	8.0
29.116	11.0
29.131	11.0
29.146	10.0
29.16	6.0
29.175	9.0
29.19	12.0
29.205	7.0
29.22	12.0
29.235	5.0
29.25	9.0
29.265	12.0
29.279	11.0
29.294	14.0
29.309	8.0
29.324	7.0
29.339	10.0
29.354	15.0
29.369	16.0
29.384	14.0
29.398	23.0
29.413	17.0
29.428	17.0
29.443	13.0
29.458	24.0
29.473	28.0
29.488	30.0
29.502	21.0
29.517	25.0
29.532	36.0
29.547	35.0
29.562	45.0
29.577	56.0
29.592	50.0
29.606	52.0
29.621	48.0
29.636	42.0
29.651	34.0
29.666	39.0
29.681	38.0
29.695	50.0
29.71	45.0
29.725	42.0
29.74	35.0
29.755	25.0
29.77	46.0
29.784	27.0
29.799	28.0
29.814	26.0
29.829	33.0
29.844	30.0
29.859	31.0
29.873	17.0
29.888	20.0
29.903	12.0
29.918	20.0
29.933	15.0
29.947	9.0
29.962	12.0
29.977	13.0
29.992	11.0
30.007	9.0
30.021	8.0
30.036	14.0
30.051	6.0
30.066	9.0
30.081	6.0
30.095	4.0
30.11	7.0
30.125	7.0
30.14	8.0
30.155	10.0
30.169	13.0
30.184	19.0
30.199	14.0
30.214	12.0
30.228	12.0
30.243	14.0
30.258	18.0
30.273	12.0
30.288	6.0
30.302	7.0
30.317	11.0
30.332	5.0
30.347	11.0
30.361	9.0
30.376	12.0
30.391	6.0
30.406	12.0
30.42	9.0
30.435	14.0
30.45	9.0
30.465	12.0
30.479	8.0
30.494	12.0
30.509	12.0
30.524	10.0
30.538	9.0
30.553	8.0
30.568	6.0
30.583	6.0
30.597	10.0
30.612	10.0
30.627	8.0
30.641	15.0
30.656	6.0
30.671	7.0
30.686	13.0
30.7	11.0
30.715	10.0
30.73	13.0
30.745	10.0
30.759	8.0
30.774	7.0
30.789	7.0
30.803	7.0
30.818	14.0
30.833	8.0
30.848	10.0
30.862	10.0
30.877	10.0
30.892	15.0
30.906	4.0
30.921	10.0
30.936	10.0
30.951	2.0
30.965	9.0
30.98	9.0
30.995	23.0
31.009	12.0
31.024	9.0
31.039	10.0
31.053	9.0
31.068	19.0
31.083	16.0
31.098	12.0
31.112	11.0
31.127	20.0
31.142	23.0
31.156	20.0
31.171	22.0
31.186	37.0
31.2	37.0
31.215	27.0
31.23	34.0
31.245	35.0
31.259	36.0
31.274	33.0
31.289	38.0
31.303	40.0
31.318	32.0
31.333	21.0
31.347	23.0
31.362	26.0
31.377	35.0
31.392	24.0
31.406	21.0
31.421	22.0
31.436	16.0
31.45	27.0
31.465	33.0
31.48	26.0
31.494	20.0
31.509	18.0
31.524	14.0
31.538	8.0
31.553	6.0
31.568	14.0
31.583	11.0
31.597	4.0
31.612	11.0
31.627	14.0
31.641	16.0
31.656	8.0
31.671	9.0
31.685	8.0
31.7	7.0
31.715	8.0
31.729	5.0
31.744	9.0
31.759	16.0
31.774	12.0
31.788	19.0
31.803	17.0
31.818	10.0
31.832	7.0
31.847	11.0
31.862	6.0
31.876	8.0
31.891	13.0
31.906	11.0
31.92	18.0
31.935	9.0
31.95	16.0
31.965	4.0
31.979	10.0
31.994	8.0
32.009	15.0
32.023	13.0
32.038	9.0
32.053	8.0
32.067	7.0
32.082	5.0
32.097	10.0
32.112	8.0
32.126	3.0
32.141	8.0
32.156	8.0
32.17	15.0
32.185	6.0
32.2	4.0
32.214	10.0
32.229	9.0
32.244	10.0
32.259	4.0
32.273	6.0
32.288	12.0
32.303	10.0
32.317	11.0
32.332	12.0
32.347	8.0
32.362	6.0
32.376	11.0
32.391	7.0
32.406	8.0
32.42	14.0
32.435	11.0
32.45	9.0
32.465	9.0
32.479	9.0
32.494	9.0
32.509	18.0
32.523	11.0
32.538	7.0
32.553	11.0
32.568	5.0
32.582	9.0
32.597	16.0
32.612	5.0
32.627	9.0
32.641	13.0
32.656	11.0
32.671	6.0
32.685	19.0
32.7	19.0
32.715	10.0
32.73	26.0
32.744	19.0
32.759	23.0
32.774	19.0
32.788	19.0
32.803	21.0
32.818	29.0
32.833	28.0
32.847	25.0
32.862	19.0
32.877	20.0
32.892	27.0
32.906	31.0
32.921	20.0
32.936	25.0
32.951	18.0
32.965	11.0
32.98	19.0
32.995	15.0
33.009	25.0
33.024	16.0
33.039	14.0
33.054	10.0
33.068	16.0
33.083	10.0
33.098	16.0
33.113	10.0
33.127	11.0
33.142	8.0
33.157	16.0
33.172	12.0
33.186	12.0
33.201	11.0
33.216	7.0
33.231	5.0
33.245	6.0
33.26	6.0
33.275	9.0
33.29	4.0
33.304	12.0
33.319	9.0
33.334	8.0
33.349	7.0
33.363	8.0
33.378	3.0
33.393	5.0
33.408	11.0
33.422	8.0
33.437	11.0
33.452	8.0
33.467	11.0
33.481	8.0
33.496	7.0
33.511	8.0
33.526	13.0
33.54	7.0
33.555	4.0
33.57	8.0
33.585	5.0
33.599	6.0
33.614	6.0
33.629	4.0
33.644	7.0
33.658	7.0
33.673	13.0
33.688	5.0
33.703	8.0
33.718	8.0
33.732	5.0
33.747	12.0
33.762	6.0
33.777	11.0
33.791	10.0
33.806	10.0
33.821	13.0
33.836	14.0
33.85	6.0
33.865	9.0
33.88	7.0
33.895	15.0
33.91	7.0
33.924	5.0
33.939	11.0
33.954	3.0
33.969	10.0
33.983	10.0
33.998	7.0
34.013	11.0
34.028	11.0
34.042	7.0
34.057	10.0
34.072	11.0
34.087	13.0
34.102	9.0
34.116	8.0
34.131	6.0
34.146	11.0
34.161	8.0
34.175	8.0
34.19	12.0
34.205	14.0
34.22	12.0
34.235	18.0
34.249	14.0
34.264	12.0
34.279	10.0
34.294	10.0
34.309	18.0
34.323	10.0
34.338	13.0
34.353	15.0
34.368	7.0
34.382	10.0
34.397	13.0
34.412	7.0
34.427	14.0
34.442	10.0
34.456	12.0
34.471	12.0
34.486	17.0
34.501	11.0
34.516	9.0
34.53	10.0
34.545	13.0
34.56	18.0
34.575	11.0
34.59	11.0
34.604	3.0
34.619	10.0
34.634	10.0
34.649	11.0
34.664	8.0
34.678	7.0
34.693	6.0
34.708	6.0
34.723	6.0
34.738	13.0
34.752	10.0
34.767	10.0
34.782	12.0
34.797	9.0
34.812	8.0
34.826	10.0
34.841	5.0
34.856	6.0
34.871	8.0
34.886	7.0
34.9	11.0
34.915	10.0
34.93	10.0
34.945	10.0
34.96	8.0
34.974	9.0
34.989	13.0
35.004	12.0
35.019	11.0
35.034	11.0
35.048	7.0
35.063	8.0
35.078	9.0
35.093	8.0
35.108	13.0
35.122	10.0
35.137	12.0
35.152	8.0
35.167	8.0
35.182	9.0
35.196	14.0
35.211	5.0
35.226	4.0
35.241	10.0
35.256	10.0
35.27	8.0
35.285	11.0
35.3	2.0
35.315	8.0
35.33	6.0
35.344	10.0
35.359	9.0
35.374	12.0
35.389	11.0
35.404	13.0
35.418	15.0
35.433	6.0
35.448	6.0
35.463	10.0
35.478	10.0
35.493	8.0
35.507	7.0
35.522	15.0
35.537	5.0
35.552	10.0
35.567	14.0
35.581	12.0
35.596	16.0
35.611	7.0
35.626	7.0
35.641	8.0
35.655	13.0
35.67	6.0
35.685	7.0
35.7	13.0
35.715	24.0
35.729	15.0
35.744	19.0
35.759	19.0
35.774	14.0
35.789	20.0
35.804	27.0
35.818	19.0
35.833	17.0
35.848	13.0
35.863	10.0
35.878	16.0
35.892	8.0
35.907	15.0
35.922	15.0
35.937	12.0
35.952	13.0
35.966	17.0
35.981	8.0
35.996	12.0
36.011	15.0
36.026	16.0
36.04	14.0
36.055	13.0
36.07	13.0
36.085	10.0
36.1	11.0
36.114	6.0
36.129	12.0
36.144	9.0
36.159	5.0
36.174	4.0
36.189	9.0
36.203	4.0
36.218	7.0
36.233	8.0
36.248	8.0
36.263	13.0
36.277	5.0
36.292	1.0
36.307	5.0
36.322	13.0
36.337	12.0
36.351	17.0
36.366	7.0
36.381	5.0
36.396	5.0
36.411	9.0
36.426	6.0
36.44	14.0
36.455	8.0
36.47	6.0
36.485	6.0
36.5	7.0
36.514	6.0
36.529	9.0
36.544	8.0
36.559	9.0
36.574	6.0
36.589	8.0
36.603	7.0
36.618	12.0
36.633	6.0
36.648	10.0
36.663	4.0
36.677	5.0
36.692	3.0
36.707	9.0
36.722	3.0
36.737	5.0
36.752	5.0
36.766	8.0
36.781	6.0
36.796	6.0
36.811	4.0
36.826	12.0
36.841	9.0
36.855	3.0
36.87	7.0
36.885	13.0
36.9	8.0
36.915	7.0
36.93	9.0
36.944	4.0
36.959	9.0
36.974	6.0
36.989	13.0
37.004	13.0
37.019	16.0
37.033	10.0
37.048	7.0
37.063	12.0
37.078	18.0
37.093	22.0
37.108	34.0
37.123	27.0
37.137	22.0
37.152	27.0
37.167	25.0
37.182	31.0
37.197	28.0
37.212	30.0
37.226	30.0
37.241	19.0
37.256	21.0
37.271	12.0
37.286	16.0
37.301	20.0
37.316	16.0
37.331	16.0
37.345	15.0
37.36	14.0
37.375	22.0
37.39	16.0
37.405	22.0
37.42	18.0
37.435	11.0
37.45	18.0
37.464	20.0
37.479	15.0
37.494	9.0
37.509	11.0
37.524	9.0
37.539	13.0
37.554	6.0
37.569	6.0
37.583	10.0
37.598	13.0
37.613	6.0
37.628	8.0
37.643	7.0
37.658	7.0
37.673	7.0
37.688	6.0
37.703	11.0
37.718	9.0
37.733	7.0
37.747	6.0
37.762	7.0
37.777	10.0
37.792	7.0
37.807	5.0
37.822	5.0
37.837	3.0
37.852	10.0
37.867	5.0
37.882	4.0
37.897	4.0
37.912	7.0
37.927	13.0
37.941	8.0
37.956	9.0
37.971	5.0
37.986	4.0
38.001	3.0
38.016	8.0
38.031	8.0
38.046	4.0
38.061	8.0
38.076	5.0
38.091	3.0
38.106	5.0
38.121	6.0
38.136	9.0
38.151	7.0
38.166	7.0
38.181	12.0
38.196	5.0
38.211	5.0
38.226	8.0
38.241	8.0
38.256	6.0
38.271	7.0
38.285	7.0
38.3	5.0
38.315	6.0
38.33	5.0
38.345	7.0
38.36	10.0
38.375	8.0
38.39	6.0
38.405	7.0
38.42	6.0
38.435	5.0
38.45	3.0
38.465	6.0
38.48	5.0
38.495	4.0
38.51	11.0
38.525	3.0
38.54	6.0
38.555	7.0
38.57	8.0
38.585	7.0
38.6	4.0
38.615	7.0
38.63	4.0
38.645	6.0
38.66	7.0
38.675	8.0
38.69	9.0
38.705	7.0
38.72	3.0
38.735	8.0
38.75	10.0
38.765	8.0
38.78	7.0
38.795	8.0
38.81	3.0
38.825	7.0
38.84	5.0
38.855	8.0
38.87	4.0
38.885	2.0
38.9	7.0
38.915	7.0
38.93	9.0
38.945	12.0
38.96	11.0
38.975	10.0
38.99	5.0
39.005	4.0
39.02	3.0
39.035	6.0
39.05	3.0
39.065	5.0
39.08	1.0
39.095	4.0
39.11	8.0
39.125	4.0
39.14	5.0
39.155	8.0
39.17	5.0
39.185	6.0
39.2	2.0
39.215	4.0
39.23	3.0
39.245	8.0
39.26	9.0
39.275	9.0
39.29	3.0
39.305	3.0
39.32	4.0
39.335	6.0
39.35	6.0
39.365	7.0
39.38	5.0
39.395	8.0
39.409	2.0
39.424	4.0
39.439	4.0
39.454	3.0
39.469	6.0
39.484	7.0
39.499	5.0
39.514	6.0
39.529	7.0
39.544	2.0
39.559	3.0
39.574	3.0
39.589	4.0
39.604	5.0
39.619	5.0
39.634	5.0
39.649	6.0
39.664	6.0
39.678	8.0
39.693	7.0
39.708	8.0
39.723	12.0
39.738	7.0
39.753	3.0
39.768	8.0
39.783	9.0
39.798	8.0
39.813	10.0
39.827	16.0
39.842	8.0
39.857	8.0
39.872	11.0
39.887	7.0
39.902	12.0
39.917	8.0
39.932	7.0
39.947	8.0
39.961	6.0
39.976	6.0
39.991	9.0
40.006	6.0
40.021	6.0
40.036	10.0
40.051	2.0
40.065	10.0
40.08	9.0
40.095	8.0
40.11	10.0
40.125	10.0
40.14	7.0
40.154	6.0
40.169	5.0
40.184	6.0
40.199	4.0
40.214	2.0
40.228	7.0
40.243	4.0
40.258	7.0
40.273	8.0
40.288	3.0
40.302	6.0
40.317	8.0
40.332	4.0
40.347	4.0
40.362	5.0
40.376	6.0
40.391	6.0
40.406	2.0
40.421	4.0
40.436	8.0
40.45	3.0
40.465	4.0
40.48	3.0
40.495	8.0
40.509	8.0
40.524	6.0
40.539	6.0
40.554	6.0
40.568	2.0
40.583	7.0
40.598	5.0
40.613	6.0
40.627	0.0
40.642	8.0
40.657	7.0
40.672	8.0
40.686	7.0
40.701	12.0
40.716	2.0
40.731	5.0
40.745	11.0
40.76	8.0
40.775	7.0
40.79	3.0
40.804	6.0
40.819	7.0
40.834	2.0
40.849	9.0
40.863	5.0
40.878	6.0
40.893	4.0
40.907	6.0
40.922	4.0
40.937	10.0
40.952	7.0
40.966	4.0
40.981	5.0
40.996	10.0
41.011	11.0
41.025	9.0
41.04	12.0
41.055	9.0
41.069	16.0
41.084	20.0
41.099	22.0
41.114	13.0
41.128	25.0
41.143	20.0
41.158	15.0
41.173	14.0
41.187	24.0
41.202	25.0
41.217	18.0
41.231	16.0
41.246	11.0
41.261	9.0
41.276	10.0
41.29	15.0
41.305	7.0
41.32	4.0
41.335	9.0
41.349	11.0
41.364	14.0
41.379	14.0
41.393	8.0
41.408	17.0
41.423	15.0
41.438	8.0
41.452	13.0
41.467	7.0
41.482	4.0
41.497	9.0
41.511	7.0
41.526	7.0
41.541	10.0
41.556	5.0
41.57	10.0
41.585	8.0
41.6	3.0
41.615	5.0
41.629	7.0
41.644	4.0
41.659	6.0
41.674	6.0
41.688	6.0
41.703	8.0
41.718	4.0
41.733	5.0
41.747	6.0
41.762	4.0
41.777	8.0
41.792	3.0
41.806	7.0
41.821	3.0
41.836	3.0
41.851	5.0
41.866	5.0
41.88	3.0
41.895	8.0
41.91	4.0
41.925	6.0
41.939	9.0
41.954	12.0
41.969	6.0
41.984	5.0
41.999	6.0
42.013	4.0
42.028	7.0
42.043	3.0
42.058	5.0
42.073	6.0
42.088	5.0
42.102	4.0
42.117	7.0
42.132	5.0
42.147	4.0
42.162	6.0
42.176	8.0
42.191	9.0
42.206	2.0
42.221	8.0
42.236	6.0
42.251	9.0
42.266	4.0
42.28	10.0
42.295	17.0
42.31	6.0
42.325	8.0
42.34	10.0
42.355	14.0
42.369	16.0
42.384	13.0
42.399	11.0
42.414	19.0
42.429	12.0
42.444	9.0
42.459	10.0
42.474	15.0
42.488	8.0
42.503	9.0
42.518	10.0
42.533	11.0
42.548	8.0
42.563	7.0
42.578	1.0
42.593	10.0
42.608	11.0
42.622	12.0
42.637	5.0
42.652	14.0
42.667	18.0
42.682	12.0
42.697	13.0
42.712	9.0
42.727	10.0
42.742	8.0
42.757	8.0
42.772	9.0
42.786	5.0
42.801	6.0
42.816	8.0
42.831	15.0
42.846	4.0
42.861	7.0
42.876	6.0
42.891	4.0
42.906	8.0
42.921	5.0
42.936	5.0
42.951	0.0
42.966	6.0
42.981	7.0
42.996	8.0
43.011	4.0
43.025	9.0
43.04	2.0
43.055	4.0
43.07	6.0
43.085	9.0
43.1	8.0
43.115	7.0
43.13	3.0
43.145	3.0
43.16	12.0
43.175	6.0
43.19	5.0
43.205	6.0
43.22	4.0
43.235	6.0
43.25	4.0
43.265	3.0
43.28	6.0
43.295	2.0
43.31	1.0
43.325	2.0
43.34	3.0
43.355	3.0
43.37	5.0
43.385	4.0
43.4	6.0
43.415	3.0
43.43	9.0
43.445	2.0
43.46	7.0
43.475	6.0
43.49	6.0
43.505	5.0
43.52	7.0
43.535	11.0
43.55	6.0
43.565	10.0
43.58	5.0
43.595	7.0
43.61	8.0
43.625	7.0
43.64	10.0
43.655	8.0
43.67	13.0
43.685	12.0
43.7	6.0
43.715	8.0
43.73	6.0
43.745	5.0
43.76	2.0
43.775	5.0
43.79	12.0
43.805	8.0
43.82	6.0
43.835	9.0
43.85	5.0
43.865	5.0
43.88	6.0
43.895	11.0
43.91	10.0
43.925	5.0
43.94	11.0
43.955	8.0
43.97	8.0
43.985	10.0
44.0	3.0
44.015	3.0
44.03	5.0
44.045	6.0
44.061	4.0
44.076	7.0
44.091	5.0
44.106	3.0
44.121	6.0
44.136	11.0
44.151	4.0
44.166	5.0
44.181	4.0
44.196	3.0
44.211	8.0
44.226	7.0
44.241	8.0
44.256	4.0
44.271	10.0
44.286	2.0
44.301	5.0
44.316	5.0
44.331	2.0
44.346	8.0
44.361	7.0
44.377	6.0
44.392	9.0
44.407	6.0
44.422	4.0
44.437	5.0
44.452	8.0
44.467	4.0
44.482	8.0
44.497	1.0
44.512	3.0
44.527	3.0
44.542	1.0
44.557	2.0
44.572	1.0
44.587	4.0
44.602	3.0
44.617	9.0
44.632	6.0
44.647	4.0
44.663	4.0
44.678	6.0
44.693	12.0
44.708	13.0
44.723	10.0
44.738	10.0
44.753	7.0
44.768	8.0
44.783	9.0
44.798	13.0
44.813	8.0
44.828	10.0
44.843	15.0
44.858	13.0
44.873	12.0
44.888	7.0
44.903	10.0
44.918	7.0
44.933	5.0
44.948	8.0
44.964	6.0
44.979	3.0
44.994	7.0
45.009	9.0
45.024	11.0
45.039	3.0
45.054	10.0
45.069	6.0
45.084	10.0
45.099	9.0
45.114	8.0
45.129	8.0
45.144	4.0
45.159	10.0
45.174	7.0
45.189	6.0
45.204	6.0
45.219	2.0
45.234	5.0
45.249	6.0
45.264	8.0
45.279	4.0
45.294	2.0
45.309	8.0
45.324	2.0
45.339	3.0
45.354	7.0
45.369	3.0
45.384	6.0
45.399	2.0
45.414	5.0
45.429	4.0
45.444	5.0
45.459	10.0
45.474	8.0
45.489	3.0
45.504	3.0
45.519	7.0
45.534	3.0
45.549	7.0
45.564	3.0
45.579	7.0
45.594	6.0
45.609	2.0
45.624	4.0
45.639	3.0
45.654	3.0
45.669	9.0
45.684	4.0
45.699	3.0
45.714	8.0
45.729	4.0
45.744	7.0
45.759	6.0
45.774	11.0
45.789	7.0
45.804	5.0
45.819	11.0
45.834	11.0
45.849	6.0
45.864	7.0
45.879	7.0
45.894	16.0
45.909	8.0
45.924	19.0
45.939	15.0
45.954	17.0
45.969	10.0
45.984	9.0
45.998	12.0
46.013	12.0
46.028	17.0
46.043	10.0
46.058	7.0
46.073	10.0
46.088	12.0
46.103	12.0
46.118	11.0
46.133	7.0
46.148	6.0
46.163	15.0
46.178	9.0
46.192	11.0
46.207	11.0
46.222	12.0
46.237	6.0
46.252	8.0
46.267	5.0
46.282	12.0
46.297	11.0
46.312	6.0
46.327	5.0
46.341	3.0
46.356	8.0
46.371	3.0
46.386	6.0
46.401	8.0
46.416	4.0
46.431	2.0
46.446	4.0
46.46	3.0
46.475	3.0
46.49	6.0
46.505	3.0
46.52	4.0
46.535	5.0
46.55	4.0
46.564	6.0
46.579	1.0
46.594	8.0
46.609	4.0
46.624	4.0
46.639	7.0
46.654	7.0
46.668	2.0
46.683	7.0
46.698	3.0
46.713	4.0
46.728	7.0
46.743	6.0
46.758	5.0
46.772	3.0
46.787	7.0
46.802	2.0
46.817	6.0
46.832	5.0
46.847	4.0
46.861	8.0
46.876	9.0
46.891	5.0
46.906	4.0
46.921	8.0
46.936	5.0
46.95	4.0
46.965	6.0
46.98	6.0
46.995	4.0
47.01	4.0
47.025	6.0
47.039	5.0
47.054	7.0
47.069	6.0
47.084	8.0
47.099	9.0
47.113	10.0
47.128	11.0
47.143	10.0
47.158	11.0
47.173	12.0
47.188	13.0
47.202	9.0
47.217	5.0
47.232	6.0
47.247	10.0
47.262	4.0
47.277	7.0
47.291	5.0
47.306	7.0
47.321	4.0
47.336	8.0
47.351	5.0
47.365	7.0
47.38	9.0
47.395	2.0
47.41	11.0
47.425	13.0
47.44	9.0
47.454	10.0
47.469	9.0
47.484	5.0
47.499	2.0
47.514	6.0
47.528	4.0
47.543	2.0
47.558	6.0
47.573	5.0
47.588	7.0
47.603	7.0
47.617	3.0
47.632	4.0
47.647	2.0
47.662	3.0
47.677	7.0
47.691	5.0
47.706	5.0
47.721	3.0
47.736	3.0
47.751	3.0
47.766	9.0
47.78	5.0
47.795	3.0
47.81	3.0
47.825	3.0
47.84	1.0
47.855	4.0
47.869	7.0
47.884	2.0
47.899	3.0
47.914	4.0
47.929	5.0
47.944	2.0
47.958	4.0
47.973	3.0
47.988	5.0
48.003	4.0
48.018	2.0
48.033	5.0
48.047	3.0
48.062	5.0
48.077	5.0
48.092	3.0
48.107	2.0
48.122	5.0
48.137	4.0
48.151	4.0
48.166	4.0
48.181	5.0
48.196	8.0
48.211	2.0
48.226	4.0
48.241	6.0
48.255	6.0
48.27	6.0
48.285	3.0
48.3	7.0
48.315	2.0
48.33	7.0
48.345	10.0
48.359	9.0
48.374	5.0
48.389	6.0
48.404	9.0
48.419	2.0
48.434	6.0
48.449	4.0
48.464	4.0
48.478	7.0
48.493	9.0
48.508	3.0
48.523	6.0
48.538	3.0
48.553	5.0
48.568	3.0
48.583	3.0
48.597	3.0
48.612	1.0
48.627	2.0
48.642	2.0
48.657	6.0
48.672	3.0
48.687	7.0
48.702	6.0
48.717	6.0
48.731	3.0
48.746	5.0
48.761	7.0
48.776	5.0
48.791	8.0
48.806	3.0
48.821	7.0
48.836	3.0
48.851	7.0
48.866	4.0
48.88	6.0
48.895	1.0
48.91	5.0
48.925	2.0
48.94	4.0
48.955	6.0
48.97	11.0
48.985	4.0
49.0	5.0
49.015	7.0
49.03	4.0
49.044	6.0
49.059	3.0
49.074	10.0
49.089	5.0
49.104	2.0
49.119	3.0
49.134	2.0
49.149	4.0
49.164	6.0
49.179	7.0
49.194	7.0
49.209	6.0
49.224	6.0
49.238	4.0
49.253	7.0
49.268	5.0
49.283	6.0
49.298	8.0
49.313	5.0
49.328	9.0
49.343	5.0
49.358	7.0
49.373	7.0
49.388	9.0
49.403	7.0
49.418	10.0
49.433	7.0
49.448	6.0
49.463	8.0
49.478	3.0
49.492	2.0
49.507	1.0
49.522	5.0
49.537	4.0
49.552	10.0
49.567	5.0
49.582	4.0
49.597	9.0
49.612	1.0
49.627	3.0
49.642	3.0
49.657	6.0
49.672	2.0
49.687	2.0
49.702	4.0
49.717	3.0
49.732	3.0
49.747	4.0
49.762	7.0
49.777	0.0
49.792	6.0
49.807	3.0
49.822	8.0
49.837	2.0
49.852	4.0
49.867	2.0
49.882	4.0
49.897	5.0
49.912	8.0
49.927	7.0
49.942	3.0
49.957	2.0
49.971	7.0
49.986	6.0
50.001	11.0
50.016	6.0
50.031	5.0
50.046	2.0
50.061	2.0
50.076	3.0
50.091	9.0
50.106	2.0
50.121	3.0
50.136	6.0
50.151	6.0
50.166	3.0
50.181	4.0
50.196	6.0
50.211	2.0
50.226	5.0
50.241	7.0
50.256	6.0
50.271	3.0
50.286	6.0
50.302	6.0
50.317	5.0
50.332	7.0
50.347	5.0
50.362	5.0
50.377	3.0
50.392	3.0
50.407	12.0
50.422	4.0
50.437	10.0
50.452	9.0
50.467	5.0
50.482	4.0
50.497	4.0
50.512	8.0
50.527	7.0
50.542	7.0
50.557	3.0
50.572	6.0
50.587	3.0
50.602	3.0
50.617	5.0
50.632	2.0
50.647	9.0
50.662	13.0
50.677	3.0
50.692	6.0
50.707	7.0
50.722	3.0
50.737	5.0
50.752	8.0
50.767	7.0
50.782	5.0
50.797	11.0
50.812	6.0
50.828	7.0
50.843	4.0
50.858	6.0
50.873	6.0
50.888	2.0
50.903	8.0
50.918	2.0
50.933	3.0
50.948	5.0
50.963	4.0
50.978	7.0
50.993	1.0
51.008	1.0
51.023	6.0
51.038	4.0
51.053	5.0
51.068	5.0
51.083	3.0
51.098	2.0
51.114	6.0
51.129	4.0
51.144	7.0
51.159	2.0
51.174	4.0
51.189	6.0
51.204	7.0
51.219	3.0
51.234	9.0
51.249	4.0
51.264	4.0
51.279	6.0
51.294	6.0
51.309	3.0
51.324	8.0
51.34	5.0
51.355	4.0
51.37	4.0
51.385	8.0
51.4	9.0
51.415	12.0
51.43	7.0
51.445	7.0
51.46	3.0
51.475	10.0
51.49	14.0
51.505	14.0
51.52	13.0
51.535	14.0
51.551	17.0
51.566	21.0
51.581	14.0
51.596	8.0
51.611	4.0
51.626	8.0
51.641	3.0
51.656	6.0
51.671	15.0
51.686	8.0
51.701	7.0
51.716	6.0
51.732	2.0
51.747	4.0
51.762	7.0
51.777	9.0
51.792	10.0
51.807	9.0
51.822	14.0
51.837	11.0
51.852	15.0
51.867	9.0
51.882	9.0
51.898	11.0
51.913	5.0
51.928	11.0
51.943	0.0
51.958	6.0
51.973	4.0
51.988	6.0
52.003	3.0
52.018	6.0
52.033	8.0
52.048	10.0
52.064	7.0
52.079	3.0
52.094	5.0
52.109	6.0
52.124	6.0
52.139	9.0
52.154	10.0
52.169	5.0
52.184	7.0
52.199	6.0
52.215	6.0
52.23	8.0
52.245	8.0
52.26	2.0
52.275	7.0
52.29	6.0
52.305	4.0
52.32	3.0
52.335	6.0
52.35	6.0
52.366	6.0
52.381	7.0
52.396	1.0
52.411	2.0
52.426	5.0
52.441	4.0
52.456	7.0
52.471	7.0
52.486	10.0
52.502	5.0
52.517	8.0
52.532	6.0
52.547	12.0
52.562	12.0
52.577	7.0
52.592	5.0
52.607	13.0
52.622	7.0
52.637	5.0
52.653	9.0
52.668	10.0
52.683	2.0
52.698	3.0
52.713	6.0
52.728	4.0
52.743	5.0
52.758	3.0
52.774	4.0
52.789	7.0
52.804	7.0
52.819	5.0
52.834	5.0
52.849	8.0
52.864	7.0
52.879	5.0
52.894	4.0
52.91	10.0
52.925	6.0
52.94	6.0
52.955	8.0
52.97	6.0
52.985	12.0
53.0	6.0
53.015	7.0
53.031	4.0
53.046	10.0
53.061	5.0
53.076	8.0
53.091	6.0
53.106	3.0
53.121	4.0
53.136	6.0
53.152	4.0
53.167	7.0
53.182	2.0
53.197	3.0
53.212	8.0
53.227	3.0
53.242	6.0
53.257	3.0
53.273	3.0
53.288	3.0
53.303	2.0
53.318	2.0
53.333	8.0
53.348	9.0
53.363	5.0
53.379	2.0
53.394	6.0
53.409	4.0
53.424	5.0
53.439	5.0
53.454	9.0
53.469	4.0
53.484	4.0
53.5	5.0
53.515	6.0
53.53	5.0
53.545	6.0
53.56	6.0
53.575	5.0
53.59	6.0
53.606	4.0
53.621	6.0
53.636	4.0
53.651	2.0
53.666	3.0
53.681	5.0
53.696	4.0
53.712	0.0
53.727	4.0
53.742	8.0
53.757	6.0
53.772	7.0
53.787	6.0
53.802	3.0
53.818	8.0
53.833	3.0
53.848	0.0
53.863	2.0
53.878	4.0
53.893	4.0
53.909	4.0
53.924	6.0
53.939	4.0
53.954	3.0
53.969	2.0
53.984	9.0
53.999	2.0
54.015	6.0
54.03	4.0
54.045	5.0
54.06	6.0
54.075	8.0
54.09	6.0
54.106	4.0
54.121	5.0
54.136	4.0
54.151	4.0
54.166	5.0
54.181	4.0
54.197	5.0
54.212	5.0
54.227	3.0
54.242	3.0
54.257	3.0
54.272	7.0
54.288	6.0
54.303	9.0
54.318	3.0
54.333	2.0
54.348	2.0
54.363	5.0
54.379	6.0
54.394	7.0
54.409	3.0
54.424	1.0
54.439	4.0
54.454	6.0
54.47	10.0
54.485	6.0
54.5	7.0
54.515	2.0
54.53	10.0
54.545	9.0
54.561	8.0
54.576	7.0
54.591	15.0
54.606	13.0
54.621	9.0
54.636	10.0
54.652	7.0
54.667	13.0
54.682	11.0
54.697	15.0
54.712	10.0
54.727	14.0
54.743	11.0
54.758	7.0
54.773	6.0
54.788	7.0
54.803	6.0
54.819	2.0
54.834	2.0
54.849	7.0
54.864	6.0
54.879	2.0
54.894	9.0
54.91	12.0
54.925	6.0
54.94	7.0
54.955	7.0
54.97	6.0
54.985	11.0
55.001	7.0
55.016	7.0
55.031	8.0
55.046	6.0
55.061	9.0
55.077	3.0
55.092	4.0
55.107	5.0
55.122	4.0
55.137	7.0
55.152	2.0
55.168	4.0
55.183	3.0
55.198	3.0
55.213	3.0
55.228	8.0
55.243	2.0
55.259	4.0
55.274	3.0
55.289	7.0
55.304	4.0
55.319	4.0
55.335	4.0
55.35	4.0
55.365	2.0
55.38	7.0
55.395	2.0
55.41	9.0
55.426	6.0
55.441	4.0
55.456	3.0
55.471	2.0
55.486	2.0
55.501	5.0
55.517	8.0
55.532	2.0
55.547	4.0
55.562	4.0
55.577	4.0
55.592	8.0
55.608	4.0
55.623	5.0
55.638	6.0
55.653	6.0
55.668	7.0
55.683	10.0
55.699	4.0
55.714	6.0
55.729	6.0
55.744	5.0
55.759	8.0
55.774	5.0
55.79	3.0
55.805	6.0
55.82	4.0
55.835	3.0
55.85	7.0
55.865	4.0
55.881	5.0
55.896	4.0
55.911	6.0
55.926	4.0
55.941	7.0
55.956	7.0
55.972	5.0
55.987	5.0
56.002	7.0
56.017	4.0
56.032	7.0
56.047	5.0
56.063	9.0
56.078	5.0
56.093	7.0
56.108	1.0
56.123	9.0
56.138	9.0
56.154	4.0
56.169	5.0
56.184	3.0
56.199	4.0
56.214	5.0
56.229	5.0
56.244	6.0
56.26	2.0
56.275	4.0
56.29	6.0
56.305	3.0
56.32	4.0
56.335	6.0
56.351	6.0
56.366	4.0
56.381	2.0
56.396	2.0
56.411	5.0
56.426	3.0
56.441	4.0
56.457	3.0
56.472	3.0
56.487	5.0
56.502	4.0
56.517	1.0
56.532	2.0
56.547	7.0
56.563	4.0
56.578	7.0
56.593	2.0
56.608	2.0
56.623	3.0
56.638	6.0
56.653	7.0
56.668	5.0
56.684	4.0
56.699	4.0
56.714	6.0
56.729	2.0
56.744	2.0
56.759	4.0
56.774	2.0
56.79	4.0
56.805	3.0
56.82	3.0
56.835	7.0
56.85	2.0
56.865	0.0
56.88	5.0
56.895	7.0
56.911	4.0
56.926	7.0
56.941	3.0
56.956	3.0
56.971	5.0
56.986	2.0
57.001	1.0
57.016	4.0
57.031	4.0
57.047	6.0
57.062	3.0
57.077	2.0
57.092	6.0
57.107	4.0
57.122	2.0
57.137	7.0
57.152	2.0
57.167	3.0
57.183	4.0
57.198	5.0
57.213	6.0
57.228	3.0
57.243	5.0
57.258	3.0
57.273	4.0
57.288	2.0
57.303	3.0
57.318	1.0
57.334	1.0
57.349	3.0
57.364	3.0
57.379	7.0
57.394	4.0
57.409	6.0
57.424	4.0
57.439	4.0
57.454	2.0
57.469	5.0
57.484	2.0
57.5	3.0
57.515	5.0
57.53	1.0
57.545	4.0
57.56	5.0
57.575	3.0
57.59	9.0
57.605	5.0
57.62	4.0
57.635	8.0
57.65	4.0
57.665	5.0
57.68	7.0
57.696	2.0
57.711	5.0
57.726	3.0
57.741	4.0
57.756	6.0
57.771	3.0
57.786	6.0
57.801	5.0
57.816	3.0
57.831	3.0
57.846	4.0
57.861	3.0
57.876	3.0
57.891	4.0
57.906	2.0
57.921	2.0
57.937	3.0
57.952	7.0
57.967	2.0
57.982	3.0
57.997	5.0
58.012	3.0
58.027	9.0
58.042	3.0
58.057	1.0
58.072	6.0
58.087	5.0
58.102	6.0
58.117	6.0
58.132	4.0
58.147	2.0
58.162	5.0
58.177	6.0
58.192	1.0
58.207	4.0
58.222	4.0
58.237	5.0
58.252	4.0
58.267	5.0
58.282	1.0
58.297	10.0
58.312	4.0
58.327	4.0
58.342	8.0
58.357	6.0
58.372	2.0
58.387	3.0
58.402	4.0
58.418	2.0
58.433	4.0
58.448	4.0
58.463	2.0
58.478	2.0
58.493	8.0
58.508	6.0
58.523	5.0
58.538	4.0
58.553	4.0
58.568	11.0
58.583	9.0
58.598	9.0
58.613	9.0
58.628	11.0
58.643	10.0
58.658	14.0
58.673	6.0
58.688	9.0
58.703	3.0
58.718	6.0
58.733	7.0
58.748	1.0
58.763	8.0
58.778	10.0
58.793	2.0
58.808	8.0
58.823	1.0
58.838	3.0
58.853	4.0
58.868	3.0
58.883	8.0
58.898	6.0
58.913	4.0
58.928	5.0
58.942	4.0
58.957	6.0
58.972	6.0
58.987	5.0
59.002	5.0
59.017	3.0
59.032	8.0
59.047	10.0
59.062	5.0
59.077	4.0
59.092	4.0
59.107	4.0
59.122	6.0
59.137	3.0
59.152	6.0
59.167	3.0
59.182	6.0
59.197	1.0
59.212	4.0
59.227	6.0
59.242	0.0
59.257	8.0
59.272	6.0
59.287	3.0
59.302	2.0
59.317	4.0
59.332	2.0
59.347	2.0
59.362	4.0
59.377	2.0
59.392	1.0
59.407	4.0
59.422	2.0
59.437	4.0
59.452	6.0
59.467	4.0
59.482	0.0
59.497	3.0
59.512	4.0
59.527	6.0
59.542	7.0
59.557	7.0
59.572	9.0
59.587	4.0
59.602	7.0
59.617	8.0
59.632	9.0
59.647	8.0
59.661	7.0
59.676	4.0
59.691	8.0
59.706	10.0
59.721	8.0
59.736	12.0
59.751	6.0
59.766	6.0
59.781	3.0
59.796	7.0
59.811	6.0
59.826	3.0
59.841	4.0
59.856	7.0
59.871	5.0
59.886	4.0
59.901	6.0
59.916	4.0
59.931	2.0
59.946	3.0
59.961	8.0
59.976	7.0
59.991	6.0
60.006	8.0
60.021	7.0
60.036	5.0
60.051	5.0
60.066	8.0
60.081	2.0
60.096	2.0
60.111	5.0
60.126	5.0
60.141	2.0
60.156	7.0
60.171	2.0
60.186	5.0
60.201	6.0
60.216	4.0
60.231	4.0
60.246	4.0
60.261	3.0
60.276	4.0
60.291	5.0
60.306	4.0
60.321	3.0
60.336	3.0
60.35	5.0
60.365	2.0
60.38	4.0
60.395	2.0
60.41	4.0
60.425	5.0
60.44	4.0
60.455	4.0
60.47	2.0
60.485	5.0
60.5	3.0
60.515	4.0
60.53	5.0
60.545	5.0
60.56	8.0
60.575	5.0
60.59	14.0
60.605	7.0
60.62	10.0
60.635	9.0
60.65	2.0
60.665	6.0
60.68	7.0
60.695	3.0
60.71	8.0
60.725	4.0
60.74	5.0
60.755	4.0
60.77	1.0
60.785	3.0
60.8	9.0
60.815	5.0
60.83	5.0
60.845	4.0
60.86	0.0
60.875	5.0
60.89	5.0
60.905	4.0
60.92	5.0
60.935	5.0
60.95	4.0
60.965	2.0
60.98	4.0
60.995	4.0
61.01	1.0
61.025	8.0
61.04	8.0
61.055	5.0
61.07	8.0
61.085	5.0
61.1	3.0
61.115	3.0
61.13	0.0
61.145	2.0
61.16	2.0
61.175	4.0
61.191	2.0
61.206	3.0
61.221	3.0
61.236	0.0
61.251	3.0
61.266	1.0
61.281	1.0
61.296	5.0
61.311	0.0
61.326	4.0
61.341	9.0
61.356	3.0
61.371	6.0
61.386	3.0
61.401	4.0
61.416	3.0
61.431	8.0
61.446	3.0
61.461	4.0
61.476	2.0
61.491	2.0
61.506	4.0
61.521	5.0
61.536	3.0
61.551	4.0
61.566	5.0
61.581	2.0
61.596	5.0
61.611	5.0
61.626	4.0
61.641	4.0
61.656	5.0
61.672	1.0
61.687	3.0
61.702	2.0
61.717	4.0
61.732	1.0
61.747	5.0
61.762	5.0
61.777	3.0
61.792	1.0
61.807	1.0
61.822	4.0
61.837	6.0
61.852	5.0
61.867	6.0
61.882	4.0
61.897	6.0
61.912	5.0
61.927	2.0
61.943	3.0
61.958	6.0
61.973	3.0
61.988	6.0
62.003	3.0
62.018	4.0
62.033	5.0
62.048	5.0
62.063	6.0
62.078	2.0
62.093	11.0
62.108	6.0
62.123	5.0
62.138	5.0
62.153	3.0
62.169	3.0
62.184	3.0
62.199	4.0
62.214	1.0
62.229	9.0
62.244	4.0
62.259	1.0
62.274	3.0
62.289	7.0
62.304	7.0
62.319	3.0
62.335	9.0
62.35	1.0
62.365	6.0
62.38	5.0
62.395	7.0
62.41	5.0
62.425	5.0
62.44	4.0
62.455	4.0
62.47	6.0
62.485	3.0
62.501	4.0
62.516	5.0
62.531	6.0
62.546	4.0
62.561	8.0
62.576	1.0
62.591	1.0
62.606	4.0
62.621	4.0
62.636	6.0
62.652	3.0
62.667	6.0
62.682	2.0
62.697	1.0
62.712	3.0
62.727	6.0
62.742	2.0
62.757	5.0
62.772	6.0
62.787	4.0
62.803	2.0
62.818	1.0
62.833	2.0
62.848	1.0
62.863	1.0
62.878	3.0
62.893	3.0
62.908	5.0
62.923	4.0
62.939	6.0
62.954	1.0
62.969	3.0
62.984	3.0
62.999	4.0
63.014	1.0
63.029	8.0
63.044	1.0
63.059	3.0
63.074	7.0
63.09	2.0
63.105	4.0
63.12	2.0
63.135	3.0
63.15	3.0
63.165	3.0
63.18	1.0
63.195	2.0
63.21	3.0
63.226	2.0
63.241	6.0
63.256	1.0
63.271	5.0
63.286	8.0
63.301	9.0
63.316	6.0
63.331	6.0
63.346	4.0
63.362	4.0
63.377	2.0
63.392	5.0
63.407	4.0
63.422	5.0
63.437	6.0
63.452	5.0
63.467	7.0
63.482	5.0
63.497	4.0
63.513	7.0
63.528	3.0
63.543	5.0
63.558	6.0
63.573	4.0
63.588	5.0
63.603	2.0
63.618	3.0
63.633	2.0
63.648	2.0
63.664	4.0
63.679	3.0
63.694	3.0
63.709	5.0
63.724	1.0
63.739	2.0
63.754	2.0
63.769	3.0
63.784	6.0
63.799	3.0
63.814	9.0
63.83	9.0
63.845	4.0
63.86	4.0
63.875	4.0
63.89	4.0
63.905	2.0
63.92	6.0
63.935	8.0
63.95	4.0
63.965	7.0
63.98	2.0
63.996	2.0
64.011	4.0
64.026	4.0
64.041	3.0
64.056	2.0
64.071	2.0
64.086	1.0
64.101	4.0
64.116	2.0
64.131	4.0
64.146	4.0
64.161	4.0
64.176	5.0
64.191	4.0
64.207	5.0
64.222	2.0
64.237	2.0
64.252	4.0
64.267	3.0
64.282	5.0
64.297	3.0
64.312	6.0
64.327	4.0
64.342	8.0
64.357	4.0
64.372	1.0
64.387	3.0
64.402	2.0
64.417	3.0
64.433	1.0
64.448	3.0
64.463	3.0
64.478	5.0
64.493	3.0
64.508	4.0
64.523	1.0
64.538	1.0
64.553	3.0
64.568	4.0
64.583	2.0
64.598	3.0
64.613	1.0
64.628	5.0
64.643	2.0
64.658	4.0
64.673	5.0
64.688	2.0
64.703	5.0
64.718	1.0
64.734	6.0
64.749	2.0
64.764	2.0
64.779	5.0
64.794	6.0
64.809	3.0
64.824	3.0
64.839	8.0
64.854	3.0
64.869	4.0
64.884	0.0
64.899	5.0
64.914	3.0
64.929	3.0
64.944	5.0
64.959	7.0
64.974	3.0
64.989	3.0
65.004	2.0
65.019	3.0
65.034	6.0
65.049	4.0
65.064	4.0
65.079	3.0
65.094	3.0
65.109	1.0
65.125	9.0
65.14	1.0
65.155	1.0
65.17	4.0
65.185	4.0
65.2	3.0
65.215	3.0
65.23	4.0
65.245	5.0
65.26	2.0
65.275	3.0
65.29	4.0
65.305	4.0
65.32	3.0
65.335	3.0
65.35	3.0
65.365	8.0
65.38	6.0
65.395	1.0
65.41	1.0
65.425	4.0
65.44	5.0
65.455	2.0
65.47	5.0
65.485	4.0
65.5	5.0
65.515	5.0
65.53	2.0
65.545	3.0
65.56	6.0
65.575	2.0
65.59	3.0
65.605	1.0
65.62	5.0
65.635	5.0
65.65	3.0
65.666	2.0
65.681	4.0
65.696	3.0
65.711	6.0
65.726	3.0
65.741	4.0
65.756	5.0
65.771	2.0
65.786	2.0
65.801	5.0
65.816	5.0
65.831	5.0
65.846	1.0
65.861	3.0
65.876	3.0
65.891	4.0
65.906	6.0
65.921	2.0
65.936	4.0
65.951	2.0
65.966	2.0
65.981	3.0
65.996	5.0
66.011	6.0
66.026	3.0
66.041	2.0
66.056	2.0
66.071	6.0
66.086	3.0
66.101	3.0
66.116	6.0
66.131	5.0
66.146	7.0
66.161	5.0
66.176	11.0
66.191	9.0
66.206	9.0
66.221	6.0
66.236	7.0
66.251	7.0
66.266	3.0
66.281	5.0
66.296	2.0
66.311	8.0
66.327	3.0
66.342	3.0
66.357	4.0
66.372	1.0
66.387	3.0
66.402	5.0
66.417	5.0
66.432	3.0
66.447	4.0
66.462	7.0
66.477	4.0
66.492	6.0
66.507	3.0
66.522	2.0
66.537	1.0
66.552	5.0
66.567	7.0
66.582	9.0
66.597	5.0
66.612	2.0
66.627	6.0
66.642	7.0
66.657	10.0
66.672	3.0
66.687	6.0
66.702	5.0
66.717	3.0
66.732	4.0
66.747	3.0
66.762	3.0
66.777	4.0
66.792	2.0
66.807	2.0
66.822	5.0
66.837	1.0
66.853	6.0
66.868	6.0
66.883	2.0
66.898	2.0
66.913	3.0
66.928	3.0
66.943	2.0
66.958	4.0
66.973	3.0
66.988	5.0
67.003	5.0
67.018	2.0
67.033	5.0
67.048	4.0
67.063	8.0
67.078	4.0
67.093	4.0
67.108	5.0
67.123	6.0
67.138	5.0
67.153	5.0
67.168	5.0
67.183	3.0
67.198	3.0
67.214	2.0
67.229	4.0
67.244	5.0
67.259	1.0
67.274	4.0
67.289	6.0
67.304	3.0
67.319	2.0
67.334	5.0
67.349	3.0
67.364	4.0
67.379	4.0
67.394	7.0
67.409	5.0
67.424	4.0
67.439	3.0
67.454	3.0
67.469	2.0
67.484	3.0
67.5	4.0
67.515	5.0
67.53	4.0
67.545	5.0
67.56	4.0
67.575	5.0
67.59	2.0
67.605	5.0
67.62	4.0
67.635	2.0
67.65	5.0
67.665	4.0
67.68	2.0
67.695	1.0
67.71	1.0
67.726	3.0
67.741	1.0
67.756	6.0
67.771	4.0
67.786	2.0
67.801	4.0
67.816	3.0
67.831	5.0
67.846	8.0
67.861	4.0
67.876	2.0
67.891	4.0
67.906	7.0
67.922	4.0
67.937	3.0
67.952	4.0
67.967	2.0
67.982	5.0
67.997	3.0
68.012	11.0
68.027	5.0
68.042	3.0
68.057	4.0
68.072	1.0
68.087	5.0
68.103	6.0
68.118	3.0
68.133	5.0
68.148	3.0
68.163	2.0
68.178	7.0
68.193	6.0
68.208	2.0
68.223	6.0
68.238	2.0
68.254	4.0
68.269	2.0
68.284	2.0
68.299	2.0
68.314	2.0
68.329	4.0
68.344	2.0
68.359	2.0
68.374	2.0
68.389	4.0
68.405	3.0
68.42	7.0
68.435	5.0
68.45	7.0
68.465	4.0
68.48	5.0
68.495	4.0
68.51	2.0
68.525	3.0
68.54	4.0
68.556	4.0
68.571	2.0
68.586	1.0
68.601	2.0
68.616	1.0
68.631	1.0
68.646	1.0
68.661	3.0
68.676	3.0
68.691	1.0
68.707	1.0
68.722	1.0
68.737	1.0
68.752	7.0
68.767	5.0
68.782	1.0
68.797	2.0
68.812	4.0
68.827	1.0
68.842	5.0
68.857	3.0
68.873	3.0
68.888	2.0
68.903	3.0
68.918	6.0
68.933	4.0
68.948	4.0
68.963	3.0
68.978	5.0
68.993	4.0
69.008	8.0
69.023	5.0
69.038	1.0
69.054	3.0
69.069	1.0
69.084	3.0
69.099	6.0
69.114	0.0
69.129	4.0
69.144	8.0
69.159	0.0
69.174	5.0
69.189	6.0
69.204	0.0
69.219	3.0
69.234	4.0
69.249	5.0
69.264	2.0
69.279	3.0
69.295	5.0
69.31	4.0
69.325	3.0
69.34	6.0
69.355	3.0
69.37	0.0
69.385	5.0
69.4	7.0
69.415	3.0
69.43	3.0
69.445	2.0
69.46	5.0
69.475	4.0
69.49	5.0
69.505	7.0
69.52	5.0
69.535	2.0
69.55	4.0
69.565	3.0
69.58	5.0
69.595	2.0
69.61	4.0
69.625	7.0
69.64	8.0
69.655	2.0
69.67	6.0
69.685	6.0
69.7	6.0
69.715	1.0
69.73	1.0
69.745	5.0
69.76	5.0
69.775	6.0
69.79	8.0
69.805	7.0
69.82	5.0
69.835	3.0
69.85	5.0
69.865	6.0
69.88	5.0
69.895	5.0
69.909	2.0
69.924	5.0
69.939	6.0
69.954	7.0
69.969	5.0
69.984	4.0
69.999	3.0
70.014	3.0
70.029	4.0
70.044	2.0
70.059	2.0
70.074	0.0
70.088	4.0
70.103	3.0
70.118	1.0
70.133	5.0
70.148	3.0
70.163	2.0
70.178	5.0
70.193	9.0
70.208	10.0
70.222	5.0
70.237	5.0
70.252	3.0
70.267	6.0
70.282	3.0
70.297	1.0
70.312	5.0
70.327	5.0
70.341	3.0
70.356	4.0
70.371	3.0
70.386	4.0
70.401	4.0
70.416	5.0
70.43	1.0
70.445	5.0
70.46	3.0
70.475	3.0
70.49	5.0
70.505	3.0
70.519	6.0
70.534	8.0
70.549	5.0
70.564	3.0
70.579	3.0
70.594	3.0
70.608	2.0
70.623	5.0
70.638	7.0
70.653	5.0
70.668	1.0
70.683	5.0
70.697	9.0
70.712	7.0
70.727	2.0
70.742	6.0
70.757	3.0
70.771	3.0
70.786	5.0
70.801	6.0
70.816	3.0
70.831	4.0
70.845	5.0
70.86	4.0
70.875	3.0
70.89	4.0
70.905	5.0
70.92	4.0
70.934	1.0
70.949	4.0
70.964	7.0
70.979	1.0
70.994	3.0
71.008	2.0
71.023	2.0
71.038	3.0
71.053	6.0
71.068	3.0
71.082	2.0
71.097	4.0
71.112	4.0
71.127	2.0
71.142	6.0
71.156	4.0
71.171	5.0
71.186	4.0
71.201	7.0
71.216	4.0
71.231	0.0
71.245	7.0
71.26	6.0
71.275	2.0
71.29	3.0
71.305	3.0
71.319	6.0
71.334	4.0
71.349	2.0
71.364	5.0
71.379	3.0
71.394	3.0
71.408	2.0
71.423	3.0
71.438	5.0
71.453	3.0
71.468	2.0
71.483	4.0
71.497	5.0
71.512	4.0
71.527	3.0
71.542	2.0
71.557	2.0
71.572	0.0
71.586	1.0
71.601	5.0
71.616	2.0
71.631	2.0
71.646	1.0
71.661	2.0
71.676	3.0
71.69	1.0
71.705	3.0
71.72	4.0
71.735	2.0
71.75	4.0
71.765	4.0
71.78	6.0
71.795	3.0
71.81	1.0
71.824	1.0
71.839	6.0
71.854	3.0
71.869	6.0
71.884	2.0
71.899	2.0
71.914	3.0
71.929	6.0
71.944	2.0
71.959	6.0
71.974	1.0
71.988	4.0
72.003	2.0
72.018	4.0
72.033	1.0
72.048	3.0
72.063	4.0
72.078	6.0
72.093	6.0
72.108	2.0
72.123	3.0
72.138	4.0
72.153	2.0
72.168	0.0
72.183	1.0
72.198	3.0
72.213	2.0
72.228	1.0
72.243	3.0
72.258	3.0
72.273	1.0
72.288	4.0
72.303	3.0
72.318	3.0
72.333	3.0
72.348	5.0
72.363	3.0
72.378	5.0
72.393	8.0
72.408	3.0
72.423	2.0
72.438	3.0
72.453	2.0
72.468	2.0
72.483	4.0
72.498	2.0
72.513	4.0
72.528	3.0
72.543	1.0
72.558	2.0
72.573	2.0
72.588	5.0
72.603	9.0
72.618	4.0
72.633	4.0
72.649	6.0
72.664	3.0
72.679	2.0
72.694	4.0
72.709	2.0
72.724	5.0
72.739	1.0
72.754	0.0
72.769	3.0
72.784	3.0
72.799	4.0
72.814	4.0
72.829	2.0
72.845	2.0
72.86	1.0
72.875	5.0
72.89	5.0
72.905	1.0
72.92	3.0
72.935	4.0
72.95	4.0
72.965	4.0
72.98	2.0
72.996	2.0
73.011	3.0
73.026	2.0
73.041	3.0
73.056	9.0
73.071	6.0
73.086	4.0
73.101	2.0
73.117	3.0
73.132	6.0
73.147	3.0
73.162	3.0
73.177	3.0
73.192	3.0
73.207	2.0
73.222	3.0
73.238	0.0
73.253	6.0
73.268	4.0
73.283	5.0
73.298	3.0
73.313	6.0
73.328	4.0
73.343	2.0
73.359	3.0
73.374	2.0
73.389	8.0
73.404	3.0
73.419	4.0
73.434	4.0
73.449	5.0
73.465	5.0
73.48	2.0
73.495	2.0
73.51	2.0
73.525	6.0
73.54	4.0
73.556	4.0
73.571	4.0
73.586	4.0
73.601	0.0
73.616	4.0
73.631	1.0
73.646	2.0
73.662	3.0
73.677	4.0
73.692	3.0
73.707	4.0
73.722	1.0
73.737	4.0
73.752	5.0
73.768	2.0
73.783	3.0
73.798	6.0
73.813	5.0
73.828	5.0
73.843	4.0
73.859	3.0
73.874	2.0
73.889	7.0
73.904	4.0
73.919	4.0
73.934	4.0
73.949	3.0
73.965	2.0
73.98	5.0
73.995	4.0
74.01	1.0
74.025	4.0
74.04	2.0
74.056	2.0
74.071	3.0
74.086	5.0
74.101	4.0
74.116	4.0
74.131	4.0
74.146	6.0
74.162	9.0
74.177	2.0
74.192	6.0
74.207	3.0
74.222	7.0
74.237	10.0
74.252	9.0
74.268	5.0
74.283	5.0
74.298	4.0
74.313	5.0
74.328	2.0
74.343	4.0
74.358	3.0
74.374	4.0
74.389	6.0
74.404	2.0
74.419	3.0
74.434	4.0
74.449	4.0
74.464	4.0
74.48	2.0
74.495	1.0
74.51	1.0
74.525	3.0
74.54	4.0
74.555	3.0
74.57	3.0
74.586	0.0
74.601	3.0
74.616	4.0
74.631	1.0
74.646	4.0
74.661	3.0
74.676	2.0
74.691	3.0
74.707	1.0
74.722	4.0
74.737	4.0
74.752	2.0
74.767	0.0
74.782	2.0
74.797	2.0
74.813	3.0
74.828	1.0
74.843	3.0
74.858	1.0
74.873	2.0
74.888	3.0
74.903	5.0
74.918	5.0
74.934	2.0
74.949	3.0
74.964	3.0
74.979	6.0
74.994	3.0
75.009	8.0
75.024	6.0
75.04	3.0
75.055	1.0
75.07	3.0
75.085	2.0
75.1	3.0
75.115	6.0
75.13	1.0
75.145	2.0
75.161	1.0
75.176	1.0
75.191	4.0
75.206	4.0
75.221	5.0
75.236	5.0
75.251	4.0
75.266	3.0
75.282	3.0
75.297	3.0
75.312	5.0
75.327	5.0
75.342	4.0
75.357	2.0
75.372	6.0
75.387	2.0
75.403	2.0
75.418	4.0
75.433	2.0
75.448	4.0
75.463	4.0
75.478	5.0
75.493	1.0
75.509	1.0
75.524	3.0
75.539	2.0
75.554	3.0
75.569	3.0
75.584	7.0
75.599	5.0
75.614	2.0
75.63	3.0
75.645	2.0
75.66	4.0
75.675	3.0
75.69	6.0
75.705	2.0
75.72	4.0
75.735	1.0
75.751	4.0
75.766	1.0
75.781	2.0
75.796	2.0
75.811	2.0
75.826	2.0
75.841	2.0
75.856	3.0
75.872	6.0
75.887	5.0
75.902	4.0
75.917	1.0
75.932	1.0
75.947	3.0
75.962	3.0
75.977	2.0
75.993	3.0
76.008	4.0
76.023	1.0
76.038	2.0
76.053	5.0
76.068	3.0
76.083	4.0
76.098	0.0
76.114	2.0
76.129	1.0
76.144	2.0
76.159	5.0
76.174	5.0
76.189	2.0
76.204	7.0
76.22	1.0
76.235	0.0
76.25	1.0
76.265	1.0
76.28	1.0
76.295	2.0
76.31	1.0
76.325	3.0
76.341	2.0
76.356	2.0
76.371	2.0
76.386	5.0
76.401	1.0
76.416	5.0
76.431	5.0
76.446	6.0
76.462	6.0
76.477	3.0
76.492	2.0
76.507	3.0
76.522	3.0
76.537	7.0
76.552	5.0
76.567	2.0
76.583	4.0
76.598	3.0
76.613	3.0
76.628	6.0
76.643	7.0
76.658	5.0
76.673	6.0
76.688	1.0
76.704	7.0
76.719	4.0
76.734	6.0
76.749	2.0
76.764	2.0
76.779	3.0
76.794	6.0
76.809	7.0
76.824	5.0
76.84	4.0
76.855	5.0
76.87	5.0
76.885	3.0
76.9	6.0
76.915	1.0
76.93	3.0
76.945	6.0
76.96	1.0
76.976	9.0
76.991	3.0
77.006	3.0
77.021	3.0
77.036	3.0
77.051	5.0
77.066	3.0
77.081	2.0
77.096	3.0
77.112	2.0
77.127	3.0
77.142	3.0
77.157	2.0
77.172	2.0
77.187	1.0
77.202	1.0
77.217	2.0
77.232	3.0
77.247	2.0
77.263	6.0
77.278	4.0
77.293	4.0
77.308	1.0
77.323	5.0
77.338	4.0
77.353	4.0
77.368	3.0
77.383	2.0
77.398	2.0
77.413	2.0
77.428	1.0
77.444	3.0
77.459	2.0
77.474	3.0
77.489	4.0
77.504	3.0
77.519	6.0
77.534	5.0
77.549	2.0
77.564	7.0
77.579	1.0
77.594	4.0
77.609	8.0
77.624	4.0
77.64	4.0
77.655	6.0
77.67	4.0
77.685	5.0
77.7	4.0
77.715	1.0
77.73	2.0
77.745	1.0
77.76	6.0
77.775	6.0
77.79	3.0
77.805	1.0
77.82	3.0
77.835	3.0
77.85	1.0
77.865	3.0
77.88	7.0
77.895	9.0
77.91	3.0
77.926	1.0
77.941	2.0
77.956	6.0
77.971	5.0
77.986	2.0
78.001	1.0
78.016	8.0
78.031	5.0
78.046	1.0
78.061	6.0
78.076	6.0
78.091	3.0
78.106	2.0
78.121	4.0
78.136	4.0
78.151	3.0
78.166	4.0
78.181	6.0
78.196	4.0
78.211	4.0
78.226	5.0
78.241	2.0
78.256	4.0
78.271	4.0
78.286	2.0
78.301	4.0
78.316	3.0
78.331	5.0
78.346	5.0
78.361	2.0
78.376	1.0
78.391	1.0
78.406	4.0
78.421	3.0
78.436	5.0
78.451	2.0
78.466	1.0
78.481	3.0
78.496	4.0
78.511	2.0
78.526	1.0
78.541	4.0
78.556	3.0
78.571	2.0
78.586	1.0
78.601	3.0
78.616	4.0
78.631	2.0
78.646	3.0
78.661	6.0
78.676	8.0
78.691	3.0
78.706	1.0
78.721	2.0
78.736	5.0
78.751	6.0
78.766	4.0
78.781	2.0
78.796	4.0
78.811	2.0
78.826	0.0
78.841	4.0
78.856	2.0
78.871	4.0
78.885	3.0
78.9	2.0
78.915	4.0
78.93	2.0
78.945	7.0
78.96	1.0
78.975	1.0
78.99	3.0
79.005	3.0
79.02	2.0
79.035	1.0
79.05	2.0
79.065	3.0
79.08	1.0
79.095	3.0
79.11	1.0
79.125	2.0
79.14	2.0
79.155	1.0
79.17	2.0
79.185	2.0
79.2	2.0
79.215	2.0
79.23	4.0
79.245	3.0
79.26	0.0
79.275	4.0
79.29	5.0
79.304	2.0
79.319	0.0
79.334	3.0
79.349	2.0
79.364	4.0
79.379	2.0
79.394	2.0
79.409	4.0
79.424	3.0
79.439	4.0
79.454	6.0
79.469	3.0
79.484	6.0
79.499	3.0
79.514	4.0
79.529	4.0
79.544	2.0
79.559	1.0
79.574	5.0
79.589	4.0
79.604	0.0
79.619	0.0
79.634	0.0
79.649	4.0
79.664	1.0
79.679	3.0
79.693	0.0
79.708	4.0
79.723	2.0
79.738	6.0
79.753	2.0
79.768	2.0
79.783	4.0
79.798	4.0
79.813	2.0
79.828	2.0
79.843	3.0
79.858	2.0
79.873	3.0
79.888	4.0
79.903	1.0
79.918	4.0
79.933	4.0
79.948	2.0
79.963	2.0
79.978	1.0
79.993	5.0
80.008	3.0
80.023	3.0
80.038	5.0
80.053	8.0
80.068	4.0
80.083	1.0
80.098	4.0
80.113	2.0
80.128	5.0
80.143	4.0
80.158	6.0
80.173	4.0
80.188	1.0
80.202	6.0
80.217	6.0
80.232	4.0
80.247	5.0
80.262	2.0
80.277	2.0
80.292	4.0
80.307	1.0
80.322	2.0
80.337	2.0
80.352	5.0
80.367	2.0
80.382	4.0
80.397	2.0
80.412	4.0
80.427	3.0
80.442	1.0
80.457	2.0
80.472	5.0
80.487	4.0
80.502	3.0
80.517	4.0
80.532	1.0
80.547	3.0
80.562	2.0
80.577	2.0
80.592	1.0
80.607	3.0
80.622	1.0
80.637	2.0
80.652	2.0
80.667	1.0
80.682	3.0
80.697	5.0
80.712	2.0
80.727	1.0
80.742	2.0
80.757	1.0
80.772	5.0
80.787	2.0
80.802	3.0
80.817	3.0
80.832	3.0
80.847	3.0
80.862	3.0
80.877	4.0
80.892	1.0
80.907	5.0
80.922	1.0
80.937	2.0
80.952	3.0
80.967	4.0
80.982	3.0
80.997	4.0
81.012	5.0
81.027	1.0
81.042	2.0
81.057	3.0
81.072	5.0
81.087	6.0
81.101	2.0
81.116	2.0
81.131	2.0
81.146	2.0
81.161	2.0
81.176	3.0
81.191	5.0
81.206	1.0
81.221	5.0
81.236	4.0
81.251	4.0
81.266	3.0
81.281	2.0
81.296	5.0
81.311	3.0
81.326	2.0
81.341	3.0
81.356	2.0
81.371	2.0
81.386	1.0
81.401	3.0
81.416	3.0
81.431	2.0
81.446	2.0
81.461	4.0
81.476	3.0
81.491	3.0
81.506	3.0
81.521	4.0
81.536	2.0
81.55	3.0
81.565	1.0
81.58	4.0
81.595	4.0
81.61	1.0
81.625	3.0
81.64	1.0
81.655	4.0
81.67	4.0
81.685	3.0
81.7	4.0
81.715	1.0
81.73	0.0
81.745	1.0
81.76	0.0
81.775	3.0
81.79	2.0
81.805	3.0
81.819	1.0
81.834	1.0
81.849	3.0
81.864	2.0
81.879	6.0
81.894	2.0
81.909	3.0
81.924	6.0
81.939	2.0
81.954	3.0
81.969	3.0
81.984	4.0
81.999	4.0
82.013	4.0
82.028	4.0
82.043	4.0
82.058	7.0
82.073	3.0
82.088	4.0
82.103	1.0
82.118	4.0
82.133	2.0
82.148	5.0
82.163	2.0
82.177	4.0
82.192	4.0
82.207	2.0
82.222	1.0
82.237	5.0
82.252	2.0
82.267	5.0
82.282	5.0
82.297	4.0
82.312	5.0
82.326	5.0
82.341	2.0
82.356	2.0
82.371	3.0
82.386	0.0
82.401	3.0
82.416	5.0
82.431	5.0
82.445	6.0
82.46	5.0
82.475	2.0
82.49	1.0
82.505	4.0
82.52	3.0
82.535	1.0
82.55	0.0
82.565	0.0
82.579	4.0
82.594	1.0
82.609	2.0
82.624	5.0
82.639	4.0
82.654	2.0
82.669	5.0
82.684	2.0
82.698	4.0
82.713	1.0
82.728	1.0
82.743	1.0
82.758	4.0
82.773	1.0
82.788	5.0
82.803	1.0
82.817	1.0
82.832	2.0
82.847	4.0
82.862	0.0
82.877	1.0
82.892	2.0
82.907	2.0
82.922	3.0
82.937	2.0
82.951	4.0
82.966	2.0
82.981	3.0
82.996	7.0
83.011	3.0
83.026	4.0
83.041	3.0
83.056	0.0
83.07	5.0
83.085	4.0
83.1	4.0
83.115	3.0
83.13	2.0
83.145	2.0
83.16	3.0
83.175	2.0
83.19	0.0
83.204	5.0
83.219	3.0
83.234	3.0
83.249	4.0
83.264	2.0
83.279	0.0
83.294	1.0
83.309	0.0
83.324	1.0
83.339	3.0
83.353	5.0
83.368	3.0
83.383	3.0
83.398	0.0
83.413	2.0
83.428	1.0
83.443	3.0
83.458	5.0
83.473	3.0
83.488	4.0
83.503	7.0
83.517	6.0
83.532	4.0
83.547	1.0
83.562	4.0
83.577	5.0
83.592	3.0
83.607	4.0
83.622	5.0
83.637	3.0
83.652	2.0
83.667	3.0
83.682	2.0
83.697	4.0
83.712	5.0
83.727	4.0
83.741	2.0
83.756	2.0
83.771	4.0
83.786	3.0
83.801	2.0
83.816	2.0
83.831	3.0
83.846	1.0
83.861	3.0
83.876	4.0
83.891	2.0
83.906	3.0
83.921	1.0
83.936	0.0
83.951	1.0
83.966	3.0
83.981	3.0
83.996	3.0
84.011	3.0
84.026	2.0
84.041	5.0
84.056	3.0
84.071	3.0
84.086	3.0
84.101	2.0
84.116	2.0
84.131	5.0
84.146	3.0
84.161	0.0
84.176	5.0
84.191	4.0
84.206	3.0
84.221	1.0
84.236	7.0
84.251	2.0
84.266	2.0
84.281	2.0
84.296	2.0
84.311	2.0
84.326	4.0
84.341	2.0
84.356	7.0
84.371	6.0
84.386	7.0
84.401	4.0
84.416	2.0
84.431	5.0
84.446	4.0
84.461	6.0
84.476	3.0
84.492	1.0
84.507	4.0
84.522	2.0
84.537	2.0
84.552	1.0
84.567	7.0
84.582	2.0
84.597	1.0
84.612	3.0
84.627	4.0
84.642	2.0
84.657	5.0
84.672	5.0
84.687	3.0
84.702	4.0
84.717	2.0
84.733	2.0
84.748	5.0
84.763	4.0
84.778	4.0
84.793	4.0
84.808	4.0
84.823	1.0
84.838	3.0
84.853	4.0
84.868	1.0
84.883	8.0
84.898	2.0
84.913	3.0
84.929	4.0
84.944	7.0
84.959	4.0
84.974	2.0
84.989	5.0
85.004	2.0
85.019	3.0
85.034	2.0
85.049	5.0
85.064	2.0
85.079	3.0
85.094	1.0
85.11	3.0
85.125	1.0
85.14	2.0
85.155	4.0
85.17	3.0
85.185	2.0
85.2	5.0
85.215	1.0
85.23	3.0
85.245	1.0
85.26	4.0
85.276	4.0
85.291	2.0
85.306	0.0
85.321	1.0
85.336	5.0
85.351	0.0
85.366	1.0
85.381	3.0
85.396	1.0
85.411	0.0
85.426	8.0
85.441	3.0
85.457	0.0
85.472	2.0
85.487	2.0
85.502	2.0
85.517	1.0
85.532	2.0
85.547	6.0
85.562	4.0
85.577	0.0
85.592	3.0
85.607	5.0
85.622	3.0
85.637	3.0
85.653	3.0
85.668	3.0
85.683	3.0
85.698	1.0
85.713	1.0
85.728	3.0
85.743	4.0
85.758	1.0
85.773	1.0
85.788	3.0
85.803	3.0
85.818	5.0
85.833	1.0
85.848	2.0
85.863	6.0
85.879	1.0
85.894	2.0
85.909	5.0
85.924	3.0
85.939	3.0
85.954	4.0
85.969	1.0
85.984	5.0
85.999	2.0
86.014	6.0
86.029	3.0
86.044	6.0
86.059	2.0
86.074	3.0
86.089	1.0
86.104	2.0
86.119	6.0
86.134	5.0
86.149	3.0
86.164	2.0
86.179	0.0
86.194	3.0
86.209	4.0
86.224	1.0
86.239	4.0
86.254	3.0
86.269	3.0
86.284	1.0
86.299	2.0
86.314	3.0
86.33	2.0
86.345	3.0
86.36	3.0
86.375	3.0
86.39	6.0
86.405	3.0
86.42	3.0
86.435	4.0
86.45	4.0
86.465	6.0
86.48	3.0
86.495	3.0
86.51	4.0
86.525	4.0
86.54	1.0
86.555	2.0
86.57	3.0
86.585	1.0
86.6	2.0
86.615	4.0
86.63	1.0
86.645	3.0
86.659	1.0
86.674	1.0
86.689	4.0
86.704	3.0
86.719	2.0
86.734	2.0
86.749	4.0
86.764	1.0
86.779	7.0
86.794	2.0
86.809	3.0
86.824	2.0
86.839	3.0
86.854	2.0
86.869	6.0
86.884	0.0
86.899	2.0
86.914	9.0
86.929	7.0
86.944	2.0
86.959	7.0
86.974	2.0
86.989	2.0
87.004	2.0
87.019	4.0
87.034	4.0
87.049	3.0
87.064	2.0
87.079	2.0
87.094	3.0
87.109	1.0
87.124	1.0
87.139	2.0
87.154	3.0
87.169	2.0
87.184	2.0
87.199	2.0
87.214	0.0
87.229	0.0
87.244	1.0
87.259	2.0
87.274	5.0
87.289	2.0
87.304	2.0
87.319	2.0
87.334	4.0
87.349	0.0
87.364	3.0
87.379	5.0
87.394	2.0
87.409	4.0
87.424	3.0
87.438	4.0
87.453	3.0
87.468	5.0
87.483	4.0
87.498	4.0
87.513	2.0
87.528	4.0
87.543	2.0
87.558	5.0
87.573	7.0
87.588	4.0
87.603	3.0
87.618	4.0
87.633	3.0
87.648	5.0
87.663	3.0
87.678	4.0
87.693	5.0
87.708	4.0
87.723	5.0
87.738	3.0
87.753	4.0
87.768	3.0
87.783	8.0
87.798	1.0
87.813	2.0
87.828	2.0
87.843	8.0
87.858	5.0
87.873	3.0
87.888	1.0
87.903	5.0
87.918	3.0
87.933	4.0
87.948	1.0
87.963	4.0
87.978	4.0
87.993	2.0
88.008	5.0
88.023	4.0
88.038	2.0
88.053	5.0
88.068	4.0
88.083	1.0
88.098	3.0
88.113	3.0
88.128	3.0
88.143	3.0
88.158	3.0
88.174	2.0
88.189	4.0
88.204	0.0
88.219	5.0
88.234	4.0
88.249	2.0
88.264	1.0
88.279	4.0
88.294	4.0
88.309	4.0
88.324	4.0
88.339	5.0
88.354	3.0
88.369	3.0
88.384	2.0
88.399	4.0
88.414	5.0
88.429	3.0
88.444	2.0
88.459	3.0
88.474	5.0
88.489	5.0
88.504	3.0
88.519	1.0
88.534	8.0
88.549	7.0
88.564	4.0
88.58	6.0
88.595	6.0
88.61	1.0
88.625	2.0
88.64	4.0
88.655	3.0
88.67	6.0
88.685	1.0
88.7	4.0
88.715	2.0
88.73	3.0
88.745	0.0
88.76	2.0
88.775	0.0
88.79	3.0
88.805	5.0
88.82	4.0
88.835	2.0
88.85	3.0
88.865	6.0
88.88	0.0
88.895	3.0
88.911	2.0
88.926	8.0
88.941	2.0
88.956	1.0
88.971	0.0
88.986	3.0
89.001	3.0
89.016	5.0
89.031	4.0
89.046	1.0
89.061	5.0
89.076	2.0
89.091	2.0
89.106	1.0
89.121	4.0
89.136	2.0
89.151	5.0
89.166	3.0
89.181	2.0
89.196	2.0
89.211	2.0
89.227	2.0
89.242	2.0
89.257	4.0
89.272	3.0
89.287	1.0
89.302	3.0
89.317	0.0
89.332	1.0
89.347	3.0
89.362	4.0
89.377	1.0
89.392	2.0
89.407	4.0
89.422	3.0
89.437	1.0
89.452	2.0
89.467	2.0
89.482	2.0
89.497	2.0
89.512	7.0
89.527	6.0
89.542	3.0
89.557	2.0
89.572	2.0
89.587	3.0
89.602	2.0
89.617	3.0
89.632	2.0
89.647	2.0
89.662	5.0
89.677	2.0
89.693	4.0
89.708	0.0
89.723	5.0
89.738	2.0
89.753	3.0
89.768	3.0
89.783	2.0
89.798	1.0
89.813	2.0
89.828	3.0
89.843	4.0
89.858	2.0
89.873	1.0
89.888	2.0
89.903	6.0
89.918	5.0
89.933	4.0
89.948	4.0
89.963	4.0
89.978	3.0
89.993	4.0
90.008	3.0
90.023	6.0
90.038	4.0
90.053	2.0
90.068	4.0
90.083	0.0
90.097	4.0
90.112	1.0
90.127	5.0
90.142	3.0
90.157	5.0
90.172	0.0
90.187	3.0
90.202	1.0
90.217	2.0
90.232	2.0
90.247	2.0
90.262	3.0
90.277	5.0
90.292	4.0
90.307	1.0
90.322	2.0
90.337	2.0
90.352	2.0
90.367	0.0
90.382	2.0
90.397	2.0
90.412	2.0
90.427	7.0
90.442	5.0
90.457	3.0
90.472	4.0
90.487	7.0
90.501	2.0
90.516	2.0
90.531	6.0
90.546	2.0
90.561	7.0
90.576	6.0
90.591	3.0
90.606	5.0
90.621	6.0
90.636	2.0
90.651	4.0
90.666	3.0
90.681	4.0
90.696	3.0
90.711	1.0
90.726	3.0
90.741	3.0
90.755	2.0
90.77	2.0
90.785	2.0
90.8	1.0
90.815	2.0
90.83	2.0
90.845	3.0
90.86	7.0
90.875	1.0
90.89	3.0
90.905	1.0
90.92	3.0
90.935	8.0
90.95	5.0
90.965	2.0
90.979	3.0
90.994	2.0
91.009	4.0
91.024	5.0
91.039	4.0
91.054	0.0
91.069	4.0
91.084	1.0
91.099	0.0
91.114	5.0
91.129	5.0
91.144	4.0
91.159	3.0
91.174	4.0
91.188	2.0
91.203	4.0
91.218	3.0
91.233	2.0
91.248	1.0
91.263	6.0
91.278	6.0
91.293	0.0
91.308	1.0
91.323	2.0
91.338	6.0
91.353	3.0
91.368	4.0
91.383	5.0
91.398	0.0
91.412	7.0
91.427	2.0
91.442	2.0
91.457	4.0
91.472	3.0
91.487	7.0
91.502	1.0
91.517	5.0
91.532	5.0
91.547	4.0
91.562	4.0
91.577	5.0
91.592	1.0
91.607	8.0
91.622	2.0
91.637	0.0
91.652	2.0
91.666	1.0
91.681	4.0
91.696	8.0
91.711	4.0
91.726	2.0
91.741	4.0
91.756	2.0
91.771	4.0
91.786	1.0
91.801	4.0
91.816	2.0
91.831	3.0
91.846	2.0
91.861	1.0
91.876	1.0
91.891	3.0
91.906	2.0
91.921	5.0
91.936	1.0
91.951	3.0
91.966	2.0
91.981	4.0
91.995	1.0
92.01	1.0
92.025	1.0
92.04	3.0
92.055	5.0
92.07	2.0
92.085	7.0
92.1	3.0
92.115	3.0
92.13	1.0
92.145	1.0
92.16	0.0
92.175	3.0
92.19	2.0
92.205	3.0
92.22	2.0
92.235	1.0
92.25	4.0
92.265	8.0
92.28	4.0
92.295	5.0
92.31	1.0
92.325	6.0
92.34	3.0
92.355	1.0
92.37	1.0
92.385	1.0
92.4	0.0
92.415	5.0
92.43	3.0
92.445	2.0
92.46	5.0
92.475	6.0
92.49	4.0
92.505	5.0
92.52	6.0
92.535	2.0
92.55	6.0
92.565	1.0
92.58	4.0
92.595	4.0
92.61	3.0
92.625	5.0
92.64	4.0
92.655	3.0
92.67	3.0
92.685	5.0
92.7	1.0
92.715	2.0
92.73	3.0
92.745	2.0
92.76	4.0
92.775	3.0
92.79	5.0
92.805	4.0
92.82	3.0
92.835	2.0
92.85	3.0
92.865	2.0
92.88	2.0
92.895	1.0
92.91	3.0
92.925	1.0
92.94	5.0
92.955	0.0
92.97	1.0
92.985	5.0
93.0	3.0
93.015	3.0
93.03	5.0
93.045	2.0
93.06	2.0
93.075	4.0
93.09	1.0
93.105	0.0
93.12	2.0
93.135	6.0
93.15	2.0
93.165	3.0
93.18	2.0
93.195	4.0
93.21	2.0
93.225	0.0
93.24	0.0
93.255	4.0
93.27	1.0
93.285	2.0
93.3	4.0
93.315	1.0
93.33	2.0
93.345	4.0
93.36	2.0
93.375	3.0
93.39	5.0
93.405	2.0
93.42	4.0
93.435	4.0
93.45	6.0
93.465	4.0
93.48	9.0
93.495	2.0
93.51	5.0
93.525	3.0
93.54	1.0
93.555	3.0
93.57	4.0
93.585	5.0
93.6	2.0
93.615	0.0
93.63	3.0
93.645	5.0
93.66	3.0
93.675	2.0
93.69	7.0
93.705	2.0
93.72	2.0
93.735	4.0
93.75	2.0
93.765	5.0
93.78	1.0
93.795	1.0
93.81	2.0
93.824	3.0
93.839	1.0
93.854	4.0
93.869	4.0
93.884	2.0
93.899	1.0
93.914	4.0
93.929	2.0
93.944	2.0
93.959	1.0
93.974	2.0
93.989	3.0
94.004	7.0
94.019	3.0
94.034	2.0
94.049	6.0
94.064	4.0
94.079	2.0
94.094	1.0
94.108	4.0
94.123	6.0
94.138	3.0
94.153	1.0
94.168	3.0
94.183	0.0
94.198	7.0
94.213	1.0
94.228	3.0
94.243	5.0
94.258	2.0
94.273	3.0
94.288	2.0
94.302	4.0
94.317	1.0
94.332	2.0
94.347	5.0
94.362	5.0
94.377	7.0
94.392	6.0
94.407	5.0
94.422	6.0
94.437	5.0
94.452	9.0
94.466	3.0
94.481	3.0
94.496	5.0
94.511	6.0
94.526	2.0
94.541	2.0
94.556	1.0
94.571	4.0
94.586	2.0
94.601	1.0
94.615	6.0
94.63	2.0
94.645	0.0
94.66	3.0
94.675	4.0
94.69	3.0
94.705	1.0
94.72	1.0
94.735	1.0
94.749	6.0
94.764	4.0
94.779	4.0
94.794	2.0
94.809	3.0
94.824	2.0
94.839	6.0
94.854	3.0
94.868	1.0
94.883	1.0
94.898	5.0
94.913	3.0
94.928	3.0
94.943	0.0
94.958	1.0
94.973	2.0
94.987	2.0
95.002	2.0
95.017	5.0
95.032	1.0
95.047	4.0
95.062	6.0
95.077	1.0
95.092	5.0
95.106	5.0
95.121	4.0
95.136	3.0
95.151	3.0
95.166	5.0
95.181	1.0
95.196	3.0
95.211	4.0
95.226	7.0
95.24	4.0
95.255	4.0
95.27	2.0
95.285	1.0
95.3	7.0
95.315	3.0
95.33	4.0
95.345	2.0
95.359	3.0
95.374	4.0
95.389	1.0
95.404	0.0
95.419	4.0
95.434	0.0
95.449	4.0
95.464	3.0
95.478	1.0
95.493	3.0
95.508	3.0
95.523	2.0
95.538	2.0
95.553	1.0
95.568	2.0
95.583	6.0
95.597	8.0
95.612	4.0
95.627	4.0
95.642	4.0
95.657	2.0
95.672	5.0
95.687	3.0
95.702	11.0
95.717	1.0
95.731	2.0
95.746	3.0
95.761	2.0
95.776	0.0
95.791	3.0
95.806	3.0
95.821	1.0
95.836	3.0
95.851	0.0
95.866	2.0
95.88	2.0
95.895	4.0
95.91	5.0
95.925	2.0
95.94	1.0
95.955	5.0
95.97	4.0
95.985	5.0
96.0	8.0
96.015	2.0
96.029	1.0
96.044	2.0
96.059	5.0
96.074	1.0
96.089	2.0
96.104	3.0
96.119	6.0
96.134	3.0
96.149	8.0
96.164	0.0
96.179	3.0
96.194	3.0
96.208	3.0
96.223	1.0
96.238	1.0
96.253	1.0
96.268	5.0
96.283	2.0
96.298	7.0
96.313	2.0
96.328	2.0
96.343	2.0
96.358	1.0
96.373	2.0
96.388	7.0
96.403	4.0
96.417	2.0
96.432	4.0
96.447	3.0
96.462	0.0
96.477	4.0
96.492	1.0
96.507	2.0
96.522	3.0
96.537	3.0
96.552	1.0
96.567	1.0
96.582	1.0
96.597	4.0
96.612	5.0
96.627	1.0
96.642	3.0
96.656	3.0
96.671	1.0
96.686	1.0
96.701	4.0
96.716	2.0
96.731	4.0
96.746	2.0
96.761	7.0
96.776	2.0
96.791	3.0
96.806	4.0
96.821	6.0
96.836	2.0
96.851	2.0
96.866	2.0
96.881	3.0
96.896	6.0
96.911	4.0
96.926	3.0
96.94	5.0
96.955	2.0
96.97	8.0
96.985	6.0
97.0	5.0
97.015	5.0
97.03	4.0
97.045	2.0
97.06	1.0
97.075	2.0
97.09	3.0
97.105	5.0
97.12	5.0
97.135	0.0
97.15	1.0
97.165	4.0
97.18	3.0
97.195	3.0
97.21	4.0
97.225	3.0
97.239	2.0
97.254	2.0
97.269	2.0
97.284	3.0
97.299	1.0
97.314	1.0
97.329	3.0
97.344	1.0
97.359	3.0
97.374	2.0
97.389	0.0
97.404	2.0
97.419	1.0
97.434	4.0
97.449	3.0
97.464	2.0
97.479	5.0
97.494	2.0
97.509	2.0
97.524	2.0
97.538	0.0
97.553	6.0
97.568	2.0
97.583	3.0
97.598	2.0
97.613	2.0
97.628	5.0
97.643	2.0
97.658	4.0
97.673	1.0
97.688	4.0
97.703	4.0
97.718	2.0
97.733	3.0
97.748	4.0
97.763	1.0
97.778	2.0
97.792	5.0
97.807	3.0
97.822	6.0
97.837	4.0
97.852	1.0
97.867	4.0
97.882	2.0
97.897	3.0
97.912	6.0
97.927	5.0
97.942	1.0
97.957	2.0
97.972	2.0
97.987	3.0
98.001	2.0
98.016	4.0
98.031	4.0
98.046	3.0
98.061	1.0
98.076	0.0
98.091	2.0
98.106	5.0
98.121	2.0
98.136	2.0
98.151	5.0
98.166	5.0
98.181	0.0
98.195	1.0
98.21	5.0
98.225	2.0
98.24	0.0
98.255	3.0
98.27	3.0
98.285	4.0
98.3	0.0
98.315	5.0
98.33	2.0
98.345	1.0
98.359	2.0
98.374	1.0
98.389	2.0
98.404	3.0
98.419	3.0
98.434	4.0
98.449	1.0
98.464	2.0
98.479	7.0
98.494	2.0
98.508	3.0
98.523	6.0
98.538	1.0
98.553	2.0
98.568	3.0
98.583	4.0
98.598	3.0
98.613	3.0
98.628	5.0
98.642	9.0
98.657	0.0
98.672	5.0
98.687	2.0
98.702	3.0
98.717	3.0
98.732	1.0
98.747	2.0
98.762	2.0
98.776	1.0
98.791	3.0
98.806	6.0
98.821	1.0
98.836	2.0
98.851	10.0
98.866	3.0
98.881	1.0
98.896	5.0
98.91	1.0
98.925	3.0
98.94	1.0
98.955	0.0
98.97	2.0
98.985	4.0
99.0	4.0
99.015	3.0
99.029	4.0
99.044	4.0
99.059	4.0
99.074	2.0
99.089	2.0
99.104	3.0
99.119	0.0
99.133	1.0
99.148	1.0
99.163	4.0
99.178	4.0
99.193	3.0
99.208	1.0
99.223	3.0
99.238	1.0
99.252	1.0
99.267	4.0
99.282	5.0
99.297	2.0
99.312	5.0
99.327	2.0
99.342	4.0
99.356	2.0
99.371	0.0
99.386	0.0
99.401	3.0
99.416	3.0
99.431	4.0
99.446	3.0
99.461	5.0
99.475	5.0
99.49	3.0
99.505	5.0
99.52	2.0
99.535	1.0
99.55	2.0
99.565	1.0
99.579	3.0
99.594	1.0
99.609	5.0
99.624	1.0
99.639	6.0
99.654	2.0
99.669	3.0
99.683	2.0
99.698	4.0
99.713	3.0
99.728	1.0
99.743	4.0
99.758	1.0
99.772	3.0
99.787	5.0
99.802	4.0
99.817	4.0
99.832	3.0
99.847	3.0
99.862	1.0
99.876	5.0
99.891	6.0
99.906	3.0
99.921	4.0
99.936	4.0
99.951	2.0
99.966	4.0
99.98	4.0
99.995	2.0
100.01	3.0
100.025	1.0
100.04	3.0
100.055	3.0
100.069	4.0
100.084	1.0
100.099	2.0
100.114	2.0
100.129	5.0
100.144	2.0
100.159	3.0
100.173	2.0
100.188	3.0
100.203	6.0
100.218	7.0
100.233	2.0
100.248	2.0
100.262	3.0
100.277	8.0
100.292	5.0
100.307	5.0
100.322	2.0
100.337	4.0
100.351	3.0
100.366	2.0
100.381	5.0
100.396	3.0
100.411	3.0
100.426	4.0
100.441	1.0
100.455	6.0
100.47	4.0
100.485	3.0
100.5	8.0
100.515	4.0
100.53	3.0
100.544	2.0
100.559	2.0
100.574	2.0
100.589	3.0
100.604	5.0
100.619	2.0
100.633	2.0
100.648	1.0
100.663	0.0
100.678	1.0
100.693	2.0
100.708	4.0
100.722	0.0
100.737	0.0
100.752	5.0
100.767	7.0
100.782	1.0
100.796	2.0
100.811	1.0
100.826	0.0
100.841	3.0
100.856	3.0
100.871	1.0
100.885	2.0
100.9	3.0
100.915	2.0
100.93	2.0
100.945	1.0
100.96	3.0
100.974	6.0
100.989	1.0
101.004	6.0
101.019	4.0
101.034	1.0
101.048	1.0
101.063	4.0
101.078	5.0
101.093	5.0
101.108	6.0
101.123	3.0
101.137	3.0
101.152	4.0
101.167	2.0
101.182	5.0
101.197	2.0
101.211	3.0
101.226	2.0
101.241	1.0
101.256	2.0
101.271	3.0
101.285	5.0
101.3	3.0
101.315	3.0
101.33	2.0
101.345	3.0
101.359	2.0
101.374	3.0
101.389	2.0
101.404	2.0
101.419	5.0
101.433	5.0
101.448	1.0
101.463	2.0
101.478	3.0
101.493	4.0
101.507	5.0
101.522	4.0
101.537	4.0
101.552	0.0
101.567	2.0
101.581	1.0
101.596	7.0
101.611	3.0
101.626	5.0
101.64	3.0
101.655	2.0
101.67	0.0
101.685	2.0
101.7	2.0
101.714	0.0
101.729	4.0
101.744	2.0
101.759	2.0
101.773	2.0
101.788	2.0
101.803	4.0
101.818	4.0
101.833	1.0
101.847	2.0
101.862	1.0
101.877	5.0
101.892	3.0
101.906	4.0
101.921	5.0
101.936	3.0
101.951	3.0
101.965	3.0
101.98	3.0
101.995	4.0
102.01	7.0
102.025	3.0
102.039	6.0
102.054	3.0
102.069	0.0
102.084	8.0
102.098	4.0
102.113	2.0
102.128	6.0
102.143	3.0
102.157	5.0
102.172	2.0
102.187	3.0
102.202	1.0
102.216	1.0
102.231	0.0
102.246	1.0
102.261	2.0
102.275	2.0
102.29	2.0
102.305	9.0
102.32	1.0
102.334	3.0
102.349	4.0
102.364	1.0
102.378	3.0
102.393	2.0
102.408	3.0
102.423	6.0
102.437	2.0
102.452	2.0
102.467	1.0
102.482	4.0
102.496	3.0
102.511	5.0
102.526	3.0
102.541	6.0
102.555	1.0
102.57	4.0
102.585	1.0
102.6	1.0
102.614	5.0
102.629	0.0
102.644	3.0
102.659	2.0
102.673	5.0
102.688	4.0
102.703	5.0
102.717	3.0
102.732	4.0
102.747	3.0
102.762	4.0
102.776	0.0
102.791	5.0
102.806	2.0
102.821	3.0
102.835	4.0
102.85	3.0
102.865	2.0
102.88	5.0
102.894	6.0
102.909	6.0
102.924	5.0
102.938	3.0
102.953	5.0
102.968	3.0
102.983	3.0
102.997	3.0
103.012	3.0
103.027	1.0
103.042	4.0
103.056	3.0
103.071	3.0
103.086	2.0
103.101	1.0
103.115	3.0
103.13	2.0
103.145	2.0
103.16	5.0
103.174	6.0
103.189	2.0
103.204	1.0
103.219	0.0
103.233	2.0
103.248	4.0
103.263	1.0
103.278	3.0
103.292	0.0
103.307	3.0
103.322	1.0
103.337	7.0
103.351	2.0
103.366	6.0
103.381	5.0
103.396	1.0
103.41	4.0
103.425	2.0
103.44	7.0
103.455	3.0
103.469	3.0
103.484	3.0
103.499	6.0
103.514	2.0
103.529	4.0
103.543	1.0
103.558	2.0
103.573	4.0
103.588	0.0
103.602	3.0
103.617	6.0
103.632	3.0
103.647	2.0
103.661	2.0
103.676	5.0
103.691	4.0
103.706	3.0
103.721	3.0
103.735	3.0
103.75	3.0
103.765	2.0
103.78	2.0
103.795	7.0
103.809	1.0
103.824	1.0
103.839	3.0
103.854	5.0
103.869	2.0
103.883	4.0
103.898	2.0
103.913	2.0
103.928	4.0
103.943	4.0
103.957	5.0
103.972	1.0
103.987	4.0
104.002	5.0
104.017	0.0
104.031	2.0
104.046	3.0
104.061	3.0
104.076	2.0
104.091	3.0
104.106	4.0
104.12	3.0
104.135	3.0
104.15	1.0
104.165	4.0
104.18	6.0
104.195	3.0
104.209	1.0
104.224	3.0
104.239	4.0
104.254	4.0
104.269	6.0
104.284	2.0
104.299	4.0
104.313	3.0
104.328	1.0
104.343	0.0
104.358	3.0
104.373	3.0
104.388	2.0
104.403	2.0
104.417	1.0
104.432	5.0
104.447	5.0
104.462	0.0
104.477	1.0
104.492	3.0
104.507	2.0
104.522	7.0
104.536	2.0
104.551	3.0
104.566	1.0
104.581	3.0
104.596	6.0
104.611	0.0
104.626	4.0
104.641	3.0
104.656	2.0
104.67	2.0
104.685	3.0
104.7	3.0
104.715	4.0
104.73	7.0
104.745	5.0
104.76	5.0
104.775	1.0
104.79	2.0
104.804	3.0
104.819	4.0
104.834	4.0
104.849	4.0
104.864	2.0
104.879	2.0
104.894	1.0
104.909	3.0
104.924	4.0
104.939	1.0
104.954	2.0
104.968	1.0
104.983	2.0
104.998	0.0
105.013	4.0
105.028	3.0
105.043	5.0
105.058	6.0
105.073	3.0
105.088	2.0
105.103	3.0
105.118	2.0
105.133	2.0
105.147	1.0
105.162	4.0
105.177	2.0
105.192	2.0
105.207	3.0
105.222	3.0
105.237	2.0
105.252	5.0
105.267	2.0
105.282	4.0
105.297	1.0
105.312	7.0
105.327	5.0
105.342	2.0
105.356	2.0
105.371	6.0
105.386	3.0
105.401	4.0
105.416	3.0
105.431	5.0
105.446	1.0
105.461	6.0
105.476	2.0
105.491	1.0
105.506	4.0
105.521	4.0
105.536	1.0
105.551	3.0
105.566	5.0
105.581	3.0
105.595	1.0
105.61	2.0
105.625	6.0
105.64	3.0
105.655	4.0
105.67	6.0
105.685	5.0
105.7	0.0
105.715	2.0
105.73	4.0
105.745	3.0
105.76	1.0
105.775	3.0
105.79	2.0
105.805	0.0
105.82	2.0
105.835	2.0
105.85	2.0
105.864	5.0
105.879	4.0
105.894	2.0
105.909	3.0
105.924	4.0
105.939	2.0
105.954	2.0
105.969	3.0
105.984	3.0
105.999	1.0
106.014	4.0
106.029	2.0
106.044	4.0
106.059	2.0
106.074	3.0
106.089	7.0
106.104	0.0
106.119	1.0
106.134	5.0
106.148	6.0
106.163	4.0
106.178	5.0
106.193	1.0
106.208	5.0
106.223	2.0
106.238	2.0
106.253	2.0
106.268	5.0
106.283	6.0
106.298	4.0
106.313	1.0
106.328	0.0
106.343	4.0
106.358	1.0
106.373	3.0
106.388	4.0
106.403	2.0
106.418	4.0
106.432	3.0
106.447	2.0
106.462	2.0
106.477	2.0
106.492	2.0
106.507	3.0
106.522	5.0
106.537	2.0
106.552	1.0
106.567	1.0
106.582	0.0
106.597	2.0
106.612	4.0
106.627	1.0
106.642	0.0
106.657	0.0
106.672	4.0
106.687	0.0
106.701	4.0
106.716	1.0
106.731	0.0
106.746	1.0
106.761	5.0
106.776	3.0
106.791	4.0
106.806	3.0
106.821	1.0
106.836	1.0
106.851	2.0
106.866	3.0
106.881	4.0
106.896	2.0
106.911	4.0
106.926	5.0
106.941	2.0
106.955	3.0
106.97	5.0
106.985	3.0
107.0	2.0
107.015	2.0
107.03	7.0
107.045	4.0
107.06	6.0
107.075	4.0
107.09	3.0
107.105	1.0
107.12	3.0
107.135	3.0
107.15	4.0
107.165	4.0
107.18	6.0
107.194	2.0
107.209	2.0
107.224	6.0
107.239	4.0
107.254	1.0
107.269	5.0
107.284	2.0
107.299	2.0
107.314	5.0
107.329	2.0
107.344	1.0
107.359	2.0
107.374	1.0
107.389	7.0
107.404	3.0
107.418	5.0
107.433	4.0
107.448	0.0
107.463	6.0
107.478	1.0
107.493	4.0
107.508	3.0
107.523	1.0
107.538	3.0
107.553	4.0
107.568	5.0
107.583	1.0
107.598	1.0
107.613	1.0
107.627	3.0
107.642	4.0
107.657	5.0
107.672	1.0
107.687	1.0
107.702	5.0
107.717	7.0
107.732	1.0
107.747	7.0
107.762	3.0
107.777	0.0
107.792	3.0
107.807	2.0
107.821	3.0
107.836	1.0
107.851	6.0
107.866	2.0
107.881	3.0
107.896	1.0
107.911	3.0
107.926	2.0
107.941	5.0
107.956	6.0
107.971	2.0
107.986	10.0
108.0	4.0
108.015	5.0
108.03	2.0
108.045	0.0
108.06	3.0
108.075	4.0
108.09	7.0
108.105	5.0
108.12	5.0
108.135	5.0
108.15	4.0
108.164	4.0
108.179	2.0
108.194	4.0
108.209	5.0
108.224	4.0
108.239	5.0
108.254	2.0
108.269	3.0
108.284	2.0
108.299	3.0
108.313	4.0
108.328	2.0
108.343	3.0
108.358	3.0
108.373	3.0
108.388	1.0
108.403	4.0
108.418	4.0
108.433	4.0
108.448	3.0
108.462	1.0
108.477	2.0
108.492	2.0
108.507	3.0
108.522	7.0
108.537	4.0
108.552	8.0
108.567	4.0
108.582	5.0
108.597	3.0
108.611	3.0
108.626	4.0
108.641	2.0
108.656	4.0
108.671	6.0
108.686	1.0
108.701	3.0
108.716	4.0
108.731	2.0
108.745	3.0
108.76	4.0
108.775	2.0
108.79	0.0
108.805	3.0
108.82	0.0
108.835	4.0
108.85	2.0
108.865	3.0
108.879	1.0
108.894	5.0
108.909	4.0
108.924	4.0
108.939	4.0
108.954	4.0
108.969	4.0
108.984	3.0
108.999	2.0
109.013	8.0
109.028	6.0
109.043	3.0
109.058	4.0
109.073	5.0
109.088	3.0
109.103	1.0
109.118	2.0
109.133	4.0
109.147	2.0
109.162	4.0
109.177	1.0
109.192	2.0
109.207	3.0
109.222	3.0
109.237	3.0
109.252	4.0
109.267	3.0
109.281	4.0
109.296	1.0
109.311	5.0
109.326	3.0
109.341	4.0
109.356	3.0
109.371	2.0
109.386	0.0
109.4	1.0
109.415	4.0
109.43	1.0
109.445	6.0
109.46	2.0
109.475	3.0
109.49	6.0
109.505	3.0
109.52	1.0
109.534	1.0
109.549	2.0
109.564	5.0
109.579	2.0
109.594	6.0
109.609	6.0
109.624	2.0
109.639	3.0
109.653	1.0
109.668	2.0
109.683	1.0
109.698	3.0
109.713	4.0
109.728	2.0
109.743	0.0
109.758	0.0
109.773	2.0
109.787	3.0
109.802	2.0
109.817	2.0
109.832	4.0
109.847	5.0
109.862	0.0
109.877	3.0
109.892	4.0
109.907	4.0
109.921	4.0
109.936	4.0
109.951	3.0
109.966	4.0
109.981	1.0
109.996	1.0
110.011	1.0
110.026	2.0
110.04	3.0
110.055	3.0
110.07	4.0
110.085	2.0
110.1	1.0
110.115	0.0
110.13	3.0
110.145	3.0
110.16	3.0
110.174	4.0
110.189	4.0
110.204	3.0
110.219	6.0
110.234	3.0
110.249	4.0
110.264	2.0
110.279	5.0
110.294	2.0
110.308	3.0
110.323	1.0
110.338	3.0
110.353	5.0
110.368	2.0
110.383	1.0
110.398	2.0
110.413	2.0
110.428	3.0
110.442	2.0
110.457	3.0
110.472	3.0
110.487	5.0
110.502	6.0
110.517	2.0
110.532	3.0
110.547	8.0
110.561	2.0
110.576	2.0
110.591	4.0
110.606	2.0
110.621	3.0
110.636	0.0
110.651	2.0
110.666	7.0
110.681	3.0
110.695	1.0
110.71	3.0
110.725	2.0
110.74	4.0
110.755	0.0
110.77	2.0
110.785	4.0
110.8	4.0
110.815	0.0
110.829	6.0
110.844	6.0
110.859	2.0
110.874	3.0
110.889	5.0
110.904	4.0
110.919	2.0
110.934	1.0
110.948	4.0
110.963	3.0
110.978	4.0
110.993	4.0
111.008	2.0
111.023	4.0
111.038	6.0
111.053	4.0
111.067	8.0
111.082	4.0
111.097	4.0
111.112	6.0
111.127	3.0
111.142	4.0
111.157	4.0
111.172	2.0
111.186	6.0
111.201	2.0
111.216	2.0
111.231	5.0
111.246	3.0
111.261	3.0
111.276	6.0
111.291	3.0
111.305	3.0
111.32	2.0
111.335	3.0
111.35	3.0
111.365	3.0
111.38	3.0
111.395	2.0
111.41	9.0
111.424	3.0
111.439	2.0
111.454	5.0
111.469	1.0
111.484	1.0
111.499	2.0
111.514	2.0
111.528	3.0
111.543	7.0
111.558	2.0
111.573	8.0
111.588	1.0
111.603	6.0
111.618	7.0
111.633	9.0
111.647	5.0
111.662	5.0
111.677	1.0
111.692	5.0
111.707	6.0
111.722	3.0
111.737	0.0
111.751	3.0
111.766	6.0
111.781	8.0
111.796	2.0
111.811	4.0
111.826	5.0
111.84	6.0
111.855	5.0
111.87	3.0
111.885	1.0
111.9	4.0
111.915	4.0
111.93	3.0
111.944	3.0
111.959	4.0
111.974	7.0
111.989	1.0
112.004	5.0
112.019	1.0
112.033	3.0
112.048	6.0
112.063	4.0
112.078	6.0
112.093	1.0
112.108	6.0
112.123	4.0
112.137	5.0
112.152	3.0
112.167	2.0
112.182	2.0
112.197	7.0
112.212	1.0
112.226	4.0
112.241	2.0
112.256	2.0
112.271	5.0
112.286	1.0
112.301	3.0
112.315	4.0
112.33	4.0
112.345	1.0
112.36	1.0
112.375	1.0
112.389	3.0
112.404	4.0
112.419	2.0
112.434	2.0
112.449	3.0
112.464	1.0
112.478	3.0
112.493	3.0
112.508	3.0
112.523	3.0
112.538	3.0
112.553	1.0
112.567	3.0
112.582	3.0
112.597	1.0
112.612	8.0
112.627	5.0
112.642	6.0
112.656	5.0
112.671	5.0
112.686	4.0
112.701	3.0
112.716	0.0
112.73	4.0
112.745	2.0
112.76	4.0
112.775	2.0
112.79	3.0
112.805	2.0
112.819	6.0
112.834	4.0
112.849	3.0
112.864	3.0
112.879	4.0
112.894	4.0
112.908	2.0
112.923	3.0
112.938	3.0
112.953	3.0
112.968	3.0
112.983	2.0
112.997	2.0
113.012	1.0
113.027	0.0
113.042	2.0
113.057	3.0
113.072	2.0
113.086	1.0
113.101	1.0
113.116	2.0
113.131	8.0
113.146	4.0
113.161	3.0
113.175	7.0
113.19	3.0
113.205	1.0
113.22	1.0
113.235	4.0
113.25	2.0
113.265	3.0
113.279	2.0
113.294	4.0
113.309	3.0
113.324	3.0
113.339	2.0
113.354	1.0
113.368	4.0
113.383	6.0
113.398	4.0
113.413	3.0
113.428	1.0
113.443	4.0
113.458	1.0
113.472	1.0
113.487	3.0
113.502	2.0
113.517	1.0
113.532	2.0
113.547	5.0
113.562	4.0
113.576	3.0
113.591	2.0
113.606	2.0
113.621	0.0
113.636	3.0
113.651	2.0
113.666	3.0
113.681	3.0
113.695	5.0
113.71	4.0
113.725	6.0
113.74	1.0
113.755	2.0
113.77	5.0
113.785	2.0
113.8	3.0
113.814	1.0
113.829	5.0
113.844	4.0
113.859	4.0
113.874	5.0
113.889	3.0
113.904	1.0
113.919	1.0
113.934	3.0
113.949	2.0
113.963	5.0
113.978	5.0
113.993	3.0
114.008	3.0
114.023	5.0
114.038	3.0
114.053	6.0
114.068	3.0
114.083	7.0
114.098	3.0
114.113	6.0
114.127	2.0
114.142	2.0
114.157	5.0
114.172	1.0
114.187	7.0
114.202	1.0
114.217	2.0
114.232	2.0
114.247	5.0
114.262	2.0
114.277	9.0
114.292	5.0
114.307	0.0
114.322	2.0
114.337	4.0
114.351	2.0
114.366	3.0
114.381	5.0
114.396	6.0
114.411	4.0
114.426	4.0
114.441	3.0
114.456	5.0
114.471	6.0
114.486	3.0
114.501	6.0
114.516	6.0
114.531	3.0
114.546	3.0
114.561	3.0
114.576	8.0
114.591	3.0
114.606	5.0
114.621	1.0
114.636	2.0
114.65	0.0
114.665	3.0
114.68	5.0
114.695	1.0
114.71	2.0
114.725	1.0
114.74	3.0
114.755	2.0
114.77	3.0
114.785	5.0
114.8	4.0
114.815	2.0
114.83	5.0
114.845	3.0
114.86	3.0
114.875	4.0
114.89	2.0
114.905	5.0
114.92	4.0
114.935	5.0
114.95	1.0
114.965	1.0
114.98	4.0
114.995	4.0
115.009	3.0
115.024	2.0
115.039	2.0
115.054	3.0
115.069	1.0
115.084	3.0
115.099	3.0
115.114	6.0
115.129	8.0
115.144	6.0
115.159	5.0
115.174	3.0
115.189	7.0
115.204	2.0
115.219	4.0
115.234	4.0
115.249	1.0
115.264	1.0
115.279	4.0
115.294	4.0
115.309	2.0
115.323	6.0
115.338	4.0
115.353	6.0
115.368	6.0
115.383	5.0
115.398	6.0
115.413	6.0
115.428	4.0
115.443	7.0
115.458	1.0
115.473	1.0
115.488	4.0
115.503	3.0
115.518	3.0
115.533	3.0
115.548	1.0
115.562	0.0
115.577	5.0
115.592	4.0
115.607	5.0
115.622	7.0
115.637	4.0
115.652	4.0
115.667	4.0
115.682	2.0
115.697	0.0
115.712	3.0
115.727	2.0
115.741	6.0
115.756	2.0
115.771	2.0
115.786	4.0
115.801	1.0
115.816	2.0
115.831	6.0
115.846	2.0
115.861	6.0
115.875	4.0
115.89	3.0
115.905	0.0
115.92	1.0
115.935	3.0
115.95	3.0
115.965	3.0
115.98	3.0
115.995	4.0
116.009	6.0
116.024	4.0
116.039	3.0
116.054	0.0
116.069	4.0
116.084	2.0
116.099	5.0
116.113	4.0
116.128	1.0
116.143	3.0
116.158	0.0
116.173	1.0
116.188	4.0
116.202	1.0
116.217	4.0
116.232	4.0
116.247	6.0
116.262	4.0
116.277	3.0
116.291	1.0
116.306	3.0
116.321	1.0
116.336	3.0
116.351	4.0
116.366	4.0
116.38	3.0
116.395	5.0
116.41	5.0
116.425	3.0
116.44	4.0
116.454	3.0
116.469	1.0
116.484	3.0
116.499	6.0
116.514	4.0
116.528	2.0
116.543	7.0
116.558	2.0
116.573	5.0
116.588	4.0
116.602	4.0
116.617	4.0
116.632	2.0
116.647	5.0
116.662	5.0
116.676	3.0
116.691	4.0
116.706	1.0
116.721	3.0
116.735	4.0
116.75	5.0
116.765	2.0
116.78	5.0
116.795	2.0
116.809	2.0
116.824	1.0
116.839	1.0
116.854	4.0
116.868	3.0
116.883	1.0
116.898	3.0
116.913	2.0
116.927	3.0
116.942	5.0
116.957	6.0
116.972	5.0
116.986	2.0
117.001	4.0
117.016	5.0
117.031	7.0
117.045	4.0
117.06	4.0
117.075	1.0
117.09	4.0
117.104	5.0
117.119	4.0
117.134	3.0
117.149	5.0
117.163	3.0
117.178	5.0
117.193	0.0
117.208	6.0
117.222	2.0
117.237	3.0
117.252	5.0
117.267	7.0
117.281	3.0
117.296	5.0
117.311	4.0
117.325	3.0
117.34	3.0
117.355	3.0
117.37	4.0
117.384	6.0
117.399	2.0
117.414	6.0
117.429	5.0
117.443	4.0
117.458	4.0
117.473	5.0
117.487	3.0
117.502	3.0
117.517	2.0
117.532	1.0
117.546	6.0
117.561	6.0
117.576	1.0
117.59	3.0
117.605	7.0
117.62	4.0
117.635	2.0
117.649	5.0
117.664	8.0
117.679	3.0
117.693	2.0
117.708	3.0
117.723	0.0
117.738	4.0
117.752	4.0
117.767	5.0
117.782	7.0
117.796	1.0
117.811	3.0
117.826	0.0
117.841	7.0
117.855	7.0
117.87	3.0
117.885	2.0
117.899	3.0
117.914	4.0
117.929	1.0
117.944	4.0
117.958	2.0
117.973	1.0
117.988	3.0
118.002	1.0
118.017	4.0
118.032	5.0
118.047	3.0
118.062	6.0
118.077	11.0
118.092	4.0
118.107	5.0
118.121	3.0
118.136	2.0
118.151	10.0
118.166	8.0
118.181	1.0
118.196	5.0
118.211	4.0
118.225	7.0
118.24	3.0
118.255	8.0
118.27	5.0
118.285	4.0
118.3	4.0
118.315	2.0
118.33	4.0
118.344	3.0
118.359	3.0
118.374	4.0
118.389	1.0
118.404	6.0
118.419	3.0
118.434	8.0
118.449	2.0
118.463	3.0
118.478	2.0
118.493	2.0
118.508	4.0
118.523	1.0
118.538	5.0
118.553	2.0
118.567	2.0
118.582	1.0
118.597	4.0
118.612	2.0
118.627	3.0
118.642	3.0
118.657	2.0
118.672	0.0
118.686	2.0
118.701	5.0
118.716	3.0
118.731	2.0
118.746	2.0
118.761	4.0
118.776	2.0
118.791	1.0
118.805	3.0
118.82	5.0
118.835	3.0
118.85	3.0
118.865	5.0
118.88	3.0
118.895	6.0
118.909	3.0
118.924	2.0
118.939	2.0
118.954	3.0
118.969	5.0
118.984	5.0
118.999	6.0
119.014	6.0
119.028	9.0
119.043	7.0
119.058	4.0
119.073	1.0
119.088	2.0
119.103	2.0
119.118	2.0
119.133	1.0
119.147	3.0
119.162	3.0
119.177	2.0
119.192	3.0
119.207	2.0
119.222	3.0
119.237	4.0
119.251	4.0
119.266	3.0
119.281	3.0
119.296	5.0
119.311	3.0
119.326	6.0
119.341	4.0
119.356	0.0
119.37	1.0
119.385	2.0
119.4	6.0
119.415	5.0
119.43	1.0
119.445	2.0
119.46	5.0
119.475	0.0
119.489	5.0
119.504	4.0
119.519	2.0
119.534	3.0
119.549	3.0
119.564	3.0
119.579	3.0
119.593	4.0
119.608	0.0
119.623	3.0
119.638	2.0
119.653	6.0
119.668	1.0
119.683	6.0
119.698	3.0
119.712	4.0
119.727	0.0
119.742	4.0
119.757	6.0
119.772	7.0
119.787	3.0
119.802	3.0
119.817	1.0
119.831	5.0
119.846	5.0
119.861	3.0
119.876	3.0
119.891	4.0
119.906	1.0
119.921	2.0
119.935	4.0
119.95	2.0
119.965	1.0
119.98	2.0
119.995	2.0
120.01	3.0
120.025	3.0
120.04	5.0
120.054	0.0
120.069	1.0
120.084	3.0
120.099	2.0
120.114	0.0
120.129	2.0
120.144	1.0
120.159	0.0
120.173	0.0
120.188	0.0
120.203	0.0
120.218	0.0
120.233	1.0
120.248	0.0
120.263	1.0
120.277	1.0
120.292	1.0
120.307	0.0
120.322	0.0
120.337	2.0
120.352	0.0
120.367	1.0
120.382	0.0
120.396	0.0
120.411	1.0
120.426	1.0
120.441	1.0
120.456	0.0
120.471	1.0
120.486	0.0
120.501	0.0
120.515	0.0
120.53	0.0
120.545	0.0
120.56	0.0
120.575	0.0
120.59	0.0
120.605	0.0
120.619	0.0
120.634	1.0
120.649	0.0
120.664	0.0
120.679	0.0
120.694	0.0
120.709	0.0
120.724	0.0
120.738	0.0
120.753	1.0
120.768	0.0
120.783	0.0
120.798	0.0
120.813	0.0
120.828	0.0
120.843	0.0
120.857	0.0
120.872	0.0
120.887	0.0
120.902	0.0
120.917	0.0
120.932	0.0
120.947	0.0
120.961	0.0
120.976	0.0
