-1.217	0.0
-1.202	0.0
-1.187	0.0
-1.172	0.0
-1.157	0.0
-1.142	0.0
-1.128	0.0
-1.113	0.0
-1.098	0.0
-1.083	0.0
-1.068	0.0
-1.054	0.0
-1.039	0.0
-1.024	0.0
-1.009	0.0
-0.994	0.0
-0.979	0.0
-0.965	0.0
-0.95	0.0
-0.935	0.0
-0.92	0.0
-0.905	0.0
-0.891	0.0
-0.876	0.0
-0.861	0.0
-0.846	0.0
-0.831	0.0
-0.816	0.0
-0.802	0.0
-0.787	0.0
-0.772	0.0
-0.757	0.0
-0.742	0.0
-0.728	0.0
-0.713	0.0
-0.698	0.0
-0.683	0.0
-0.668	0.0
-0.653	0.0
-0.639	0.0
-0.624	0.0
-0.609	0.0
-0.594	0.0
-0.579	0.0
-0.565	0.0
-0.55	0.0
-0.535	0.0
-0.52	0.0
-0.505	0.0
-0.49	0.0
-0.476	0.0
-0.461	0.0
-0.446	0.0
-0.431	0.0
-0.416	0.0
-0.401	0.0
-0.387	0.0
-0.372	0.0
-0.357	0.0
-0.342	0.0
-0.327	0.0
-0.313	0.0
-0.298	0.0
-0.283	0.0
-0.268	0.0
-0.253	0.0
-0.238	0.0
-0.224	0.0
-0.209	0.0
-0.194	0.0
-0.179	0.0
-0.164	1.0
-0.15	0.0
-0.135	1.0
-0.12	0.0
-0.105	0.0
-0.09	0.0
-0.075	0.0
-0.061	0.0
-0.046	1.0
-0.031	0.0
-0.016	0.0
-0.001	0.0
0.013	0.0
0.028	0.0
0.043	0.0
0.058	0.0
0.073	1.0
0.088	0.0
0.102	0.0
0.117	0.0
0.132	0.0
0.147	0.0
0.162	0.0
0.176	0.0
0.191	0.0
0.206	0.0
0.221	0.0
0.236	0.0
0.251	0.0
0.265	0.0
0.28	0.0
0.295	0.0
0.31	0.0
0.325	0.0
0.339	0.0
0.354	0.0
0.369	0.0
0.384	0.0
0.399	0.0
0.414	0.0
0.428	0.0
0.443	0.0
0.458	0.0
0.473	0.0
0.488	0.0
0.502	0.0
0.517	0.0
0.532	0.0
0.547	0.0
0.562	0.0
0.577	0.0
0.591	0.0
0.606	0.0
0.621	0.0
0.636	0.0
0.651	0.0
0.665	0.0
0.68	0.0
0.695	0.0
0.71	0.0
0.725	0.0
0.74	0.0
0.754	0.0
0.769	0.0
0.784	0.0
0.799	0.0
0.814	0.0
0.828	0.0
0.843	0.0
0.858	0.0
0.873	0.0
0.888	0.0
0.903	0.0
0.917	0.0
0.932	0.0
0.947	0.0
0.962	0.0
0.977	0.0
0.991	0.0
1.006	0.0
1.021	0.0
1.036	0.0
1.051	1.0
1.065	0.0
1.08	0.0
1.095	0.0
1.11	0.0
1.125	0.0
1.14	1.0
1.154	0.0
1.169	0.0
1.184	0.0
1.199	0.0
1.214	0.0
1.228	0.0
1.243	0.0
1.258	0.0
1.273	0.0
1.288	0.0
1.302	0.0
1.317	0.0
1.332	0.0
1.347	0.0
1.362	0.0
1.376	0.0
1.391	0.0
1.406	0.0
1.421	0.0
1.436	0.0
1.45	0.0
1.465	0.0
1.48	0.0
1.495	0.0
1.51	0.0
1.524	0.0
1.539	0.0
1.554	1.0
1.569	0.0
1.584	0.0
1.598	0.0
1.613	0.0
1.628	0.0
1.643	0.0
1.658	0.0
1.672	0.0
1.687	0.0
1.702	0.0
1.717	0.0
1.732	0.0
1.746	0.0
1.761	0.0
1.776	1.0
1.791	0.0
1.806	1.0
1.82	0.0
1.835	0.0
1.85	0.0
1.865	0.0
1.88	0.0
1.894	0.0
1.909	0.0
1.924	0.0
1.939	0.0
1.954	0.0
1.968	0.0
1.983	0.0
1.998	0.0
2.013	0.0
2.028	0.0
2.042	0.0
2.057	0.0
2.072	1.0
2.087	0.0
2.101	0.0
2.116	0.0
2.131	0.0
2.146	0.0
2.161	0.0
2.175	0.0
2.19	0.0
2.205	0.0
2.22	0.0
2.235	0.0
2.249	0.0
2.264	1.0
2.279	1.0
2.294	1.0
2.308	2.0
2.323	1.0
2.338	1.0
2.353	2.0
2.368	0.0
2.382	1.0
2.397	0.0
2.412	2.0
2.427	0.0
2.442	2.0
2.456	3.0
2.471	0.0
2.486	2.0
2.501	2.0
2.515	1.0
2.53	4.0
2.545	0.0
2.56	1.0
2.575	1.0
2.589	1.0
2.604	1.0
2.619	1.0
2.634	1.0
2.649	4.0
2.663	4.0
2.678	3.0
2.693	2.0
2.708	3.0
2.722	6.0
2.737	3.0
2.752	3.0
2.767	3.0
2.782	5.0
2.796	4.0
2.811	8.0
2.826	6.0
2.841	4.0
2.856	4.0
2.87	4.0
2.885	2.0
2.9	4.0
2.915	6.0
2.93	3.0
2.944	4.0
2.959	2.0
2.974	5.0
2.989	2.0
3.004	0.0
3.018	4.0
3.033	6.0
3.048	4.0
3.063	5.0
3.078	5.0
3.092	4.0
3.107	4.0
3.122	2.0
3.137	3.0
3.152	6.0
3.166	1.0
3.181	4.0
3.196	3.0
3.211	1.0
3.226	3.0
3.24	4.0
3.255	5.0
3.27	4.0
3.285	4.0
3.3	4.0
3.315	8.0
3.329	7.0
3.344	8.0
3.359	7.0
3.374	3.0
3.389	4.0
3.403	9.0
3.418	6.0
3.433	3.0
3.448	2.0
3.463	5.0
3.478	7.0
3.492	4.0
3.507	4.0
3.522	6.0
3.537	5.0
3.552	2.0
3.567	4.0
3.581	7.0
3.596	6.0
3.611	10.0
3.626	7.0
3.641	7.0
3.656	7.0
3.671	6.0
3.685	3.0
3.7	8.0
3.715	3.0
3.73	8.0
3.745	9.0
3.76	5.0
3.775	4.0
3.789	5.0
3.804	3.0
3.819	5.0
3.834	9.0
3.849	9.0
3.864	8.0
3.879	12.0
3.894	6.0
3.908	7.0
3.923	5.0
3.938	3.0
3.953	10.0
3.968	3.0
3.983	7.0
3.998	4.0
4.013	5.0
4.027	2.0
4.042	6.0
4.057	3.0
4.072	7.0
4.087	7.0
4.102	10.0
4.117	5.0
4.132	11.0
4.147	6.0
4.162	5.0
4.176	4.0
4.191	7.0
4.206	5.0
4.221	4.0
4.236	5.0
4.251	7.0
4.266	6.0
4.281	5.0
4.296	7.0
4.311	8.0
4.326	6.0
4.341	4.0
4.356	4.0
4.37	8.0
4.385	10.0
4.4	11.0
4.415	9.0
4.43	10.0
4.445	7.0
4.46	8.0
4.475	7.0
4.49	7.0
4.505	6.0
4.52	8.0
4.535	8.0
4.55	5.0
4.565	5.0
4.58	10.0
4.595	10.0
4.61	5.0
4.625	12.0
4.639	6.0
4.654	5.0
4.669	10.0
4.684	7.0
4.699	12.0
4.714	7.0
4.729	8.0
4.744	9.0
4.759	9.0
4.774	11.0
4.789	6.0
4.804	9.0
4.819	6.0
4.834	14.0
4.849	11.0
4.864	15.0
4.879	7.0
4.894	8.0
4.909	13.0
4.924	12.0
4.939	7.0
4.954	3.0
4.969	10.0
4.984	12.0
4.999	5.0
5.014	4.0
5.029	10.0
5.044	6.0
5.059	7.0
5.074	10.0
5.089	10.0
5.104	15.0
5.119	11.0
5.134	6.0
5.149	8.0
5.164	10.0
5.179	12.0
5.194	9.0
5.209	8.0
5.224	6.0
5.239	3.0
5.254	3.0
5.269	12.0
5.284	11.0
5.299	4.0
5.314	11.0
5.329	10.0
5.344	6.0
5.359	5.0
5.374	6.0
5.389	9.0
5.404	15.0
5.419	6.0
5.434	3.0
5.449	6.0
5.464	10.0
5.479	7.0
5.494	15.0
5.509	10.0
5.524	5.0
5.539	2.0
5.554	10.0
5.569	10.0
5.584	14.0
5.599	7.0
5.614	11.0
5.629	6.0
5.644	11.0
5.659	7.0
5.674	6.0
5.689	5.0
5.704	6.0
5.719	6.0
5.734	7.0
5.749	15.0
5.764	9.0
5.779	2.0
5.794	12.0
5.809	5.0
5.824	11.0
5.839	11.0
5.854	12.0
5.869	3.0
5.884	7.0
5.899	8.0
5.914	8.0
5.929	15.0
5.944	11.0
5.959	9.0
5.974	12.0
5.989	5.0
6.004	7.0
6.019	8.0
6.034	5.0
6.049	5.0
6.064	5.0
6.079	11.0
6.094	10.0
6.109	10.0
6.124	11.0
6.139	10.0
6.154	7.0
6.169	10.0
6.184	9.0
6.199	7.0
6.214	9.0
6.229	10.0
6.244	12.0
6.259	12.0
6.274	7.0
6.289	9.0
6.304	13.0
6.319	6.0
6.334	14.0
6.349	8.0
6.364	9.0
6.379	9.0
6.394	6.0
6.409	13.0
6.424	12.0
6.439	7.0
6.454	7.0
6.469	12.0
6.484	3.0
6.499	6.0
6.514	8.0
6.529	7.0
6.544	7.0
6.559	3.0
6.574	11.0
6.589	7.0
6.604	7.0
6.619	7.0
6.634	7.0
6.649	5.0
6.664	8.0
6.679	10.0
6.694	9.0
6.709	16.0
6.724	11.0
6.739	9.0
6.754	10.0
6.769	8.0
6.784	4.0
6.799	13.0
6.814	3.0
6.829	5.0
6.844	6.0
6.859	14.0
6.873	14.0
6.888	7.0
6.903	7.0
6.918	7.0
6.933	15.0
6.948	16.0
6.963	5.0
6.978	10.0
6.993	6.0
7.008	8.0
7.023	13.0
7.038	3.0
7.053	7.0
7.068	6.0
7.083	10.0
7.098	11.0
7.113	6.0
7.128	11.0
7.143	5.0
7.157	7.0
7.172	15.0
7.187	2.0
7.202	9.0
7.217	13.0
7.232	5.0
7.247	12.0
7.262	5.0
7.277	7.0
7.292	7.0
7.307	5.0
7.322	4.0
7.336	12.0
7.351	8.0
7.366	12.0
7.381	7.0
7.396	12.0
7.411	12.0
7.426	6.0
7.441	10.0
7.456	6.0
7.471	9.0
7.485	6.0
7.5	8.0
7.515	11.0
7.53	7.0
7.545	11.0
7.56	10.0
7.575	8.0
7.59	7.0
7.604	12.0
7.619	8.0
7.634	6.0
7.649	7.0
7.664	15.0
7.679	11.0
7.693	11.0
7.708	5.0
7.723	8.0
7.738	7.0
7.753	7.0
7.768	8.0
7.783	6.0
7.797	8.0
7.812	8.0
7.827	9.0
7.842	5.0
7.857	7.0
7.871	12.0
7.886	9.0
7.901	9.0
7.916	6.0
7.931	6.0
7.945	4.0
7.96	13.0
7.975	13.0
7.99	13.0
8.005	11.0
8.019	10.0
8.034	12.0
8.049	8.0
8.064	7.0
8.078	11.0
8.093	10.0
8.108	10.0
8.123	5.0
8.137	11.0
8.152	8.0
8.167	9.0
8.182	15.0
8.196	10.0
8.211	8.0
8.226	10.0
8.241	9.0
8.255	8.0
8.27	15.0
8.285	5.0
8.3	7.0
8.314	9.0
8.329	11.0
8.344	8.0
8.358	11.0
8.373	12.0
8.388	10.0
8.403	6.0
8.417	9.0
8.432	7.0
8.447	9.0
8.461	8.0
8.476	13.0
8.491	2.0
8.505	9.0
8.52	11.0
8.535	17.0
8.55	3.0
8.564	7.0
8.579	9.0
8.594	12.0
8.608	6.0
8.623	8.0
8.638	8.0
8.652	11.0
8.667	11.0
8.682	12.0
8.696	6.0
8.711	10.0
8.726	8.0
8.74	7.0
8.755	3.0
8.77	5.0
8.784	8.0
8.799	9.0
8.814	6.0
8.828	11.0
8.843	9.0
8.858	8.0
8.872	7.0
8.887	7.0
8.902	11.0
8.916	4.0
8.931	9.0
8.946	13.0
8.96	9.0
8.975	13.0
8.99	10.0
9.004	7.0
9.019	8.0
9.034	6.0
9.048	13.0
9.063	6.0
9.077	7.0
9.092	9.0
9.107	9.0
9.121	10.0
9.136	12.0
9.151	15.0
9.165	7.0
9.18	11.0
9.195	10.0
9.209	6.0
9.224	8.0
9.239	8.0
9.253	6.0
9.268	7.0
9.283	7.0
9.297	2.0
9.312	14.0
9.327	11.0
9.341	7.0
9.356	9.0
9.371	11.0
9.385	6.0
9.4	7.0
9.415	12.0
9.429	7.0
9.444	18.0
9.458	7.0
9.473	10.0
9.488	12.0
9.502	10.0
9.517	8.0
9.532	7.0
9.546	9.0
9.561	7.0
9.576	5.0
9.59	10.0
9.605	10.0
9.62	8.0
9.635	9.0
9.649	6.0
9.664	9.0
9.679	13.0
9.693	8.0
9.708	9.0
9.723	8.0
9.737	7.0
9.752	7.0
9.767	13.0
9.781	6.0
9.796	6.0
9.811	8.0
9.825	11.0
9.84	6.0
9.855	15.0
9.87	5.0
9.884	9.0
9.899	10.0
9.914	13.0
9.928	12.0
9.943	10.0
9.958	5.0
9.973	10.0
9.987	8.0
10.002	5.0
10.017	6.0
10.031	13.0
10.046	10.0
10.061	3.0
10.076	12.0
10.09	9.0
10.105	9.0
10.12	12.0
10.135	4.0
10.149	10.0
10.164	6.0
10.179	7.0
10.194	2.0
10.208	10.0
10.223	5.0
10.238	4.0
10.253	5.0
10.267	7.0
10.282	6.0
10.297	11.0
10.312	14.0
10.326	8.0
10.341	14.0
10.356	7.0
10.371	9.0
10.386	6.0
10.4	3.0
10.415	10.0
10.43	11.0
10.445	7.0
10.46	8.0
10.474	11.0
10.489	6.0
10.504	4.0
10.519	10.0
10.533	11.0
10.548	8.0
10.563	6.0
10.578	8.0
10.593	8.0
10.608	15.0
10.622	5.0
10.637	8.0
10.652	5.0
10.667	8.0
10.682	10.0
10.696	4.0
10.711	3.0
10.726	4.0
10.741	4.0
10.756	6.0
10.771	10.0
10.785	8.0
10.8	10.0
10.815	8.0
10.83	6.0
10.845	9.0
10.86	9.0
10.874	9.0
10.889	10.0
10.904	4.0
10.919	13.0
10.934	7.0
10.949	8.0
10.963	6.0
10.978	10.0
10.993	7.0
11.008	12.0
11.023	6.0
11.038	8.0
11.053	10.0
11.067	4.0
11.082	7.0
11.097	5.0
11.112	6.0
11.127	11.0
11.142	9.0
11.157	3.0
11.172	8.0
11.186	7.0
11.201	9.0
11.216	4.0
11.231	4.0
11.246	9.0
11.261	5.0
11.276	7.0
11.291	6.0
11.305	15.0
11.32	6.0
11.335	6.0
11.35	6.0
11.365	8.0
11.38	7.0
11.395	12.0
11.41	5.0
11.424	5.0
11.439	10.0
11.454	4.0
11.469	6.0
11.484	5.0
11.499	7.0
11.514	8.0
11.529	11.0
11.544	7.0
11.558	11.0
11.573	9.0
11.588	11.0
11.603	14.0
11.618	10.0
11.633	7.0
11.648	10.0
11.663	6.0
11.678	10.0
11.693	14.0
11.707	6.0
11.722	12.0
11.737	7.0
11.752	12.0
11.767	4.0
11.782	10.0
11.797	5.0
11.812	11.0
11.827	4.0
11.842	13.0
11.856	9.0
11.871	10.0
11.886	5.0
11.901	9.0
11.916	9.0
11.931	5.0
11.946	11.0
11.961	9.0
11.976	10.0
11.991	18.0
12.006	7.0
12.02	12.0
12.035	12.0
12.05	8.0
12.065	11.0
12.08	12.0
12.095	9.0
12.11	9.0
12.125	8.0
12.14	13.0
12.155	16.0
12.17	10.0
12.184	13.0
12.199	15.0
12.214	13.0
12.229	7.0
12.244	15.0
12.259	12.0
12.274	14.0
12.289	11.0
12.304	12.0
12.319	8.0
12.334	12.0
12.348	6.0
12.363	12.0
12.378	9.0
12.393	11.0
12.408	9.0
12.423	14.0
12.438	10.0
12.453	14.0
12.468	19.0
12.483	16.0
12.498	11.0
12.513	11.0
12.527	13.0
12.542	10.0
12.557	15.0
12.572	13.0
12.587	15.0
12.602	13.0
12.617	7.0
12.632	14.0
12.647	11.0
12.662	19.0
12.677	14.0
12.692	16.0
12.707	9.0
12.721	11.0
12.736	6.0
12.751	9.0
12.766	18.0
12.781	15.0
12.796	10.0
12.811	9.0
12.826	11.0
12.841	16.0
12.856	17.0
12.871	14.0
12.886	15.0
12.9	15.0
12.915	19.0
12.93	11.0
12.945	14.0
12.96	22.0
12.975	12.0
12.99	20.0
13.005	27.0
13.02	11.0
13.035	18.0
13.05	11.0
13.065	22.0
13.08	17.0
13.094	13.0
13.109	17.0
13.124	20.0
13.139	13.0
13.154	14.0
13.169	21.0
13.184	19.0
13.199	17.0
13.214	20.0
13.229	15.0
13.244	14.0
13.259	19.0
13.274	14.0
13.288	30.0
13.303	27.0
13.318	25.0
13.333	24.0
13.348	18.0
13.363	27.0
13.378	25.0
13.393	22.0
13.408	27.0
13.423	27.0
13.438	22.0
13.453	35.0
13.468	36.0
13.482	28.0
13.497	50.0
13.512	44.0
13.527	38.0
13.542	45.0
13.557	47.0
13.572	44.0
13.587	56.0
13.602	64.0
13.617	68.0
13.632	57.0
13.647	78.0
13.662	90.0
13.677	68.0
13.691	79.0
13.706	102.0
13.721	66.0
13.736	85.0
13.751	122.0
13.766	128.0
13.781	117.0
13.796	138.0
13.811	118.0
13.826	135.0
13.841	125.0
13.856	110.0
13.871	128.0
13.885	107.0
13.9	91.0
13.915	75.0
13.93	74.0
13.945	64.0
13.96	50.0
13.975	48.0
13.99	31.0
14.005	35.0
14.02	24.0
14.035	31.0
14.05	27.0
14.065	26.0
14.08	27.0
14.094	20.0
14.109	25.0
14.124	27.0
14.139	20.0
14.154	22.0
14.169	15.0
14.184	27.0
14.199	12.0
14.214	17.0
14.229	19.0
14.244	24.0
14.259	21.0
14.274	13.0
14.288	18.0
14.303	16.0
14.318	16.0
14.333	16.0
14.348	19.0
14.363	21.0
14.378	11.0
14.393	27.0
14.408	26.0
14.423	24.0
14.438	17.0
14.453	14.0
14.468	12.0
14.482	16.0
14.497	23.0
14.512	18.0
14.527	16.0
14.542	13.0
14.557	9.0
14.572	22.0
14.587	13.0
14.602	14.0
14.617	23.0
14.632	16.0
14.647	17.0
14.661	14.0
14.676	22.0
14.691	17.0
14.706	14.0
14.721	20.0
14.736	17.0
14.751	12.0
14.766	24.0
14.781	12.0
14.796	14.0
14.811	13.0
14.826	16.0
14.84	16.0
14.855	11.0
14.87	16.0
14.885	15.0
14.9	21.0
14.915	8.0
14.93	8.0
14.945	19.0
14.96	8.0
14.975	10.0
14.989	18.0
15.004	11.0
15.019	11.0
15.034	15.0
15.049	15.0
15.064	15.0
15.079	13.0
15.094	13.0
15.109	11.0
15.124	15.0
15.138	17.0
15.153	18.0
15.168	18.0
15.183	14.0
15.198	12.0
15.213	14.0
15.228	12.0
15.243	9.0
15.258	16.0
15.272	20.0
15.287	13.0
15.302	13.0
15.317	13.0
15.332	15.0
15.347	22.0
15.362	16.0
15.377	11.0
15.391	11.0
15.406	10.0
15.421	7.0
15.436	12.0
15.451	17.0
15.466	19.0
15.481	22.0
15.496	10.0
15.51	15.0
15.525	12.0
15.54	13.0
15.555	17.0
15.57	17.0
15.585	11.0
15.6	6.0
15.614	19.0
15.629	13.0
15.644	19.0
15.659	21.0
15.674	17.0
15.689	11.0
15.704	6.0
15.718	19.0
15.733	10.0
15.748	16.0
15.763	12.0
15.778	22.0
15.793	11.0
15.808	5.0
15.822	11.0
15.837	6.0
15.852	18.0
15.867	15.0
15.882	15.0
15.897	8.0
15.911	17.0
15.926	8.0
15.941	15.0
15.956	16.0
15.971	21.0
15.986	12.0
16.0	7.0
16.015	4.0
16.03	16.0
16.045	14.0
16.06	15.0
16.074	18.0
16.089	12.0
16.104	8.0
16.119	16.0
16.134	14.0
16.149	15.0
16.163	13.0
16.178	19.0
16.193	16.0
16.208	19.0
16.223	15.0
16.237	13.0
16.252	8.0
16.267	10.0
16.282	17.0
16.297	13.0
16.311	16.0
16.326	16.0
16.341	13.0
16.356	15.0
16.37	14.0
16.385	17.0
16.4	20.0
16.415	11.0
16.43	17.0
16.444	18.0
16.459	12.0
16.474	12.0
16.489	14.0
16.504	16.0
16.518	17.0
16.533	19.0
16.548	20.0
16.563	16.0
16.577	25.0
16.592	11.0
16.607	21.0
16.622	18.0
16.637	17.0
16.651	14.0
16.666	24.0
16.681	19.0
16.696	32.0
16.71	25.0
16.725	27.0
16.74	29.0
16.755	30.0
16.77	27.0
16.784	34.0
16.799	41.0
16.814	39.0
16.829	33.0
16.843	57.0
16.858	45.0
16.873	62.0
16.888	70.0
16.902	69.0
16.917	74.0
16.932	92.0
16.947	60.0
16.961	76.0
16.976	70.0
16.991	73.0
17.006	65.0
17.021	51.0
17.035	63.0
17.05	58.0
17.065	47.0
17.08	34.0
17.094	33.0
17.109	32.0
17.124	30.0
17.139	27.0
17.153	26.0
17.168	11.0
17.183	21.0
17.198	16.0
17.212	16.0
17.227	18.0
17.242	14.0
17.257	12.0
17.271	14.0
17.286	12.0
17.301	14.0
17.316	10.0
17.33	19.0
17.345	20.0
17.36	18.0
17.375	13.0
17.39	23.0
17.404	9.0
17.419	13.0
17.434	11.0
17.449	14.0
17.463	9.0
17.478	17.0
17.493	9.0
17.508	8.0
17.522	15.0
17.537	15.0
17.552	11.0
17.567	11.0
17.581	12.0
17.596	16.0
17.611	18.0
17.626	7.0
17.641	16.0
17.655	7.0
17.67	19.0
17.685	15.0
17.7	9.0
17.714	13.0
17.729	16.0
17.744	12.0
17.759	14.0
17.773	9.0
17.788	13.0
17.803	16.0
17.818	13.0
17.833	12.0
17.847	6.0
17.862	16.0
17.877	6.0
17.892	14.0
17.906	11.0
17.921	16.0
17.936	13.0
17.951	10.0
17.966	8.0
17.98	11.0
17.995	15.0
18.01	11.0
18.025	15.0
18.04	11.0
18.054	6.0
18.069	13.0
18.084	14.0
18.099	9.0
18.114	9.0
18.128	19.0
18.143	18.0
18.158	10.0
18.173	15.0
18.188	11.0
18.202	10.0
18.217	12.0
18.232	5.0
18.247	23.0
18.262	15.0
18.276	10.0
18.291	12.0
18.306	9.0
18.321	12.0
18.336	13.0
18.35	12.0
18.365	10.0
18.38	13.0
18.395	11.0
18.41	8.0
18.424	15.0
18.439	9.0
18.454	18.0
18.469	17.0
18.484	9.0
18.498	8.0
18.513	17.0
18.528	8.0
18.543	12.0
18.558	5.0
18.573	6.0
18.587	17.0
18.602	12.0
18.617	13.0
18.632	5.0
18.647	15.0
18.661	6.0
18.676	14.0
18.691	18.0
18.706	11.0
18.721	9.0
18.736	9.0
18.75	15.0
18.765	13.0
18.78	15.0
18.795	9.0
18.81	16.0
18.825	13.0
18.839	10.0
18.854	13.0
18.869	7.0
18.884	9.0
18.899	4.0
18.913	12.0
18.928	9.0
18.943	19.0
18.958	12.0
18.973	21.0
18.988	15.0
19.002	16.0
19.017	16.0
19.032	11.0
19.047	16.0
19.062	8.0
19.077	6.0
19.091	12.0
19.106	14.0
19.121	18.0
19.136	17.0
19.151	10.0
19.165	10.0
19.18	15.0
19.195	12.0
19.21	16.0
19.225	16.0
19.24	10.0
19.254	7.0
19.269	12.0
19.284	14.0
19.299	19.0
19.314	9.0
19.329	23.0
19.343	14.0
19.358	14.0
19.373	26.0
19.388	15.0
19.403	15.0
19.417	15.0
19.432	27.0
19.447	24.0
19.462	17.0
19.477	27.0
19.492	28.0
19.506	23.0
19.521	41.0
19.536	41.0
19.551	34.0
19.566	37.0
19.58	44.0
19.595	37.0
19.61	52.0
19.625	42.0
19.64	38.0
19.655	41.0
19.669	32.0
19.684	35.0
19.699	29.0
19.714	29.0
19.729	20.0
19.743	12.0
19.758	25.0
19.773	17.0
19.788	11.0
19.803	18.0
19.817	19.0
19.832	16.0
19.847	21.0
19.862	16.0
19.877	11.0
19.891	8.0
19.906	11.0
19.921	12.0
19.936	14.0
19.951	16.0
19.965	17.0
19.98	19.0
19.995	13.0
20.01	14.0
20.025	9.0
20.039	8.0
20.054	6.0
20.069	12.0
20.084	7.0
20.099	12.0
20.113	11.0
20.128	15.0
20.143	11.0
20.158	19.0
20.173	10.0
20.187	14.0
20.202	10.0
20.217	16.0
20.232	9.0
20.246	7.0
20.261	8.0
20.276	10.0
20.291	11.0
20.306	12.0
20.32	13.0
20.335	8.0
20.35	13.0
20.365	17.0
20.38	9.0
20.394	9.0
20.409	8.0
20.424	10.0
20.439	11.0
20.453	12.0
20.468	15.0
20.483	16.0
20.498	14.0
20.513	11.0
20.527	10.0
20.542	11.0
20.557	10.0
20.572	11.0
20.586	11.0
20.601	9.0
20.616	16.0
20.631	13.0
20.646	19.0
20.66	15.0
20.675	11.0
20.69	6.0
20.705	14.0
20.719	10.0
20.734	16.0
20.749	12.0
20.764	10.0
20.779	14.0
20.793	14.0
20.808	12.0
20.823	15.0
20.838	8.0
20.853	11.0
20.867	11.0
20.882	16.0
20.897	9.0
20.912	10.0
20.926	10.0
20.941	17.0
20.956	8.0
20.971	14.0
20.986	9.0
21.0	12.0
21.015	9.0
21.03	9.0
21.045	18.0
21.06	12.0
21.074	10.0
21.089	9.0
21.104	15.0
21.119	15.0
21.134	15.0
21.148	11.0
21.163	7.0
21.178	12.0
21.193	12.0
21.208	16.0
21.222	8.0
21.237	6.0
21.252	11.0
21.267	12.0
21.282	11.0
21.296	9.0
21.311	14.0
21.326	9.0
21.341	10.0
21.356	8.0
21.37	12.0
21.385	7.0
21.4	13.0
21.415	9.0
21.43	13.0
21.444	18.0
21.459	9.0
21.474	9.0
21.489	13.0
21.504	8.0
21.519	14.0
21.533	14.0
21.548	20.0
21.563	18.0
21.578	18.0
21.593	14.0
21.608	15.0
21.622	13.0
21.637	17.0
21.652	20.0
21.667	16.0
21.682	19.0
21.697	20.0
21.712	20.0
21.726	31.0
21.741	21.0
21.756	26.0
21.771	23.0
21.786	39.0
21.801	37.0
21.816	49.0
21.83	36.0
21.845	57.0
21.86	70.0
21.875	45.0
21.89	68.0
21.905	84.0
21.92	83.0
21.935	67.0
21.949	86.0
21.964	67.0
21.979	77.0
21.994	68.0
22.009	71.0
22.024	82.0
22.039	57.0
22.054	46.0
22.069	42.0
22.083	49.0
22.098	37.0
22.113	28.0
22.128	28.0
22.143	27.0
22.158	29.0
22.173	20.0
22.188	17.0
22.203	16.0
22.218	16.0
22.233	12.0
22.248	20.0
22.262	20.0
22.277	14.0
22.292	20.0
22.307	10.0
22.322	18.0
22.337	8.0
22.352	15.0
22.367	20.0
22.382	12.0
22.397	6.0
22.412	5.0
22.427	9.0
22.442	14.0
22.457	18.0
22.472	15.0
22.487	12.0
22.502	11.0
22.516	2.0
22.531	17.0
22.546	10.0
22.561	13.0
22.576	15.0
22.591	11.0
22.606	14.0
22.621	16.0
22.636	12.0
22.651	11.0
22.666	9.0
22.681	22.0
22.696	11.0
22.711	11.0
22.726	8.0
22.741	16.0
22.756	9.0
22.771	11.0
22.786	12.0
22.801	15.0
22.816	7.0
22.831	13.0
22.846	9.0
22.861	7.0
22.876	14.0
22.891	6.0
22.906	13.0
22.92	13.0
22.935	12.0
22.95	10.0
22.965	11.0
22.98	12.0
22.995	20.0
23.01	12.0
23.025	14.0
23.04	15.0
23.055	11.0
23.07	8.0
23.085	7.0
23.1	10.0
23.115	4.0
23.13	13.0
23.145	8.0
23.16	9.0
23.175	10.0
23.19	11.0
23.205	5.0
23.22	7.0
23.235	10.0
23.25	8.0
23.265	11.0
23.28	12.0
23.295	11.0
23.31	14.0
23.325	10.0
23.34	10.0
23.355	5.0
23.37	8.0
23.384	12.0
23.399	13.0
23.414	10.0
23.429	11.0
23.444	12.0
23.459	14.0
23.474	12.0
23.489	15.0
23.504	14.0
23.519	9.0
23.534	9.0
23.549	12.0
23.564	13.0
23.579	17.0
23.594	13.0
23.609	11.0
23.624	12.0
23.639	9.0
23.654	8.0
23.668	11.0
23.683	5.0
23.698	9.0
23.713	7.0
23.728	9.0
23.743	16.0
23.758	18.0
23.773	8.0
23.788	6.0
23.803	18.0
23.818	14.0
23.833	16.0
23.848	14.0
23.862	20.0
23.877	23.0
23.892	9.0
23.907	17.0
23.922	22.0
23.937	18.0
23.952	28.0
23.967	32.0
23.982	29.0
23.997	33.0
24.011	44.0
24.026	56.0
24.041	40.0
24.056	43.0
24.071	61.0
24.086	65.0
24.101	40.0
24.116	40.0
24.131	37.0
24.145	42.0
24.16	35.0
24.175	33.0
24.19	30.0
24.205	36.0
24.22	44.0
24.235	35.0
24.249	24.0
24.264	30.0
24.279	25.0
24.294	26.0
24.309	16.0
24.324	6.0
24.338	17.0
24.353	14.0
24.368	16.0
24.383	9.0
24.398	8.0
24.413	13.0
24.428	10.0
24.442	11.0
24.457	14.0
24.472	6.0
24.487	11.0
24.502	13.0
24.516	6.0
24.531	12.0
24.546	7.0
24.561	13.0
24.576	15.0
24.591	8.0
24.605	9.0
24.62	16.0
24.635	14.0
24.65	10.0
24.665	12.0
24.679	8.0
24.694	9.0
24.709	9.0
24.724	11.0
24.739	8.0
24.753	8.0
24.768	12.0
24.783	14.0
24.798	10.0
24.813	9.0
24.827	13.0
24.842	15.0
24.857	10.0
24.872	8.0
24.886	16.0
24.901	14.0
24.916	14.0
24.931	5.0
24.946	10.0
24.96	17.0
24.975	17.0
24.99	13.0
25.005	13.0
25.019	9.0
25.034	10.0
25.049	13.0
25.064	11.0
25.078	7.0
25.093	6.0
25.108	15.0
25.123	12.0
25.138	10.0
25.152	15.0
25.167	11.0
25.182	14.0
25.197	12.0
25.211	7.0
25.226	8.0
25.241	8.0
25.256	13.0
25.27	11.0
25.285	8.0
25.3	12.0
25.315	18.0
25.329	9.0
25.344	9.0
25.359	12.0
25.374	11.0
25.388	13.0
25.403	7.0
25.418	4.0
25.433	12.0
25.447	12.0
25.462	8.0
25.477	11.0
25.492	10.0
25.506	10.0
25.521	4.0
25.536	24.0
25.55	4.0
25.565	10.0
25.58	6.0
25.595	10.0
25.609	9.0
25.624	18.0
25.639	8.0
25.654	8.0
25.668	12.0
25.683	8.0
25.698	7.0
25.713	11.0
25.727	7.0
25.742	10.0
25.757	16.0
25.772	10.0
25.786	12.0
25.801	8.0
25.816	5.0
25.83	3.0
25.845	10.0
25.86	8.0
25.875	9.0
25.889	10.0
25.904	8.0
25.919	20.0
25.934	6.0
25.948	8.0
25.963	8.0
25.978	6.0
25.992	10.0
26.007	11.0
26.022	12.0
26.037	6.0
26.051	11.0
26.066	13.0
26.081	9.0
26.096	6.0
26.11	7.0
26.125	14.0
26.14	15.0
26.155	7.0
26.169	8.0
26.184	9.0
26.199	9.0
26.213	8.0
26.228	7.0
26.243	12.0
26.258	14.0
26.272	9.0
26.287	18.0
26.302	12.0
26.317	10.0
26.331	10.0
26.346	8.0
26.361	10.0
26.376	8.0
26.39	9.0
26.405	4.0
26.42	14.0
26.434	7.0
26.449	4.0
26.464	9.0
26.479	9.0
26.493	9.0
26.508	10.0
26.523	4.0
26.538	9.0
26.552	15.0
26.567	5.0
26.582	7.0
26.597	13.0
26.611	9.0
26.626	9.0
26.641	4.0
26.656	6.0
26.67	11.0
26.685	9.0
26.7	6.0
26.715	13.0
26.729	11.0
26.744	10.0
26.759	9.0
26.773	10.0
26.788	8.0
26.803	11.0
26.818	12.0
26.832	8.0
26.847	14.0
26.862	7.0
26.877	13.0
26.891	5.0
26.906	11.0
26.921	14.0
26.936	9.0
26.95	13.0
26.965	6.0
26.98	13.0
26.995	9.0
27.01	7.0
27.024	7.0
27.039	10.0
27.054	4.0
27.069	6.0
27.083	9.0
27.098	7.0
27.113	10.0
27.128	13.0
27.142	6.0
27.157	6.0
27.172	6.0
27.187	7.0
27.201	15.0
27.216	12.0
27.231	9.0
27.246	10.0
27.261	11.0
27.275	12.0
27.29	13.0
27.305	13.0
27.32	7.0
27.334	11.0
27.349	12.0
27.364	14.0
27.379	12.0
27.394	6.0
27.408	11.0
27.423	10.0
27.438	7.0
27.453	5.0
27.467	17.0
27.482	15.0
27.497	13.0
27.512	11.0
27.527	7.0
27.541	12.0
27.556	7.0
27.571	7.0
27.586	11.0
27.601	14.0
27.615	15.0
27.63	14.0
27.645	14.0
27.66	13.0
27.675	14.0
27.689	12.0
27.704	13.0
27.719	15.0
27.734	21.0
27.749	13.0
27.763	14.0
27.778	20.0
27.793	17.0
27.808	26.0
27.823	36.0
27.838	25.0
27.852	26.0
27.867	23.0
27.882	24.0
27.897	22.0
27.912	23.0
27.926	12.0
27.941	16.0
27.956	15.0
27.971	20.0
27.986	17.0
28.001	25.0
28.015	22.0
28.03	16.0
28.045	17.0
28.06	17.0
28.075	22.0
28.09	13.0
28.105	20.0
28.119	15.0
28.134	9.0
28.149	14.0
28.164	13.0
28.179	7.0
28.194	12.0
28.208	9.0
28.223	8.0
28.238	14.0
28.253	11.0
28.268	12.0
28.283	17.0
28.298	13.0
28.312	9.0
28.327	6.0
28.342	2.0
28.357	15.0
28.372	9.0
28.387	16.0
28.402	7.0
28.417	4.0
28.431	9.0
28.446	7.0
28.461	13.0
28.476	15.0
28.491	7.0
28.506	8.0
28.521	8.0
28.536	8.0
28.55	11.0
28.565	9.0
28.58	8.0
28.595	12.0
28.61	12.0
28.625	9.0
28.64	15.0
28.655	10.0
28.669	10.0
28.684	13.0
28.699	9.0
28.714	11.0
28.729	8.0
28.744	12.0
28.759	11.0
28.774	7.0
28.788	12.0
28.803	8.0
28.818	12.0
28.833	8.0
28.848	8.0
28.863	17.0
28.878	13.0
28.893	11.0
28.908	14.0
28.922	9.0
28.937	12.0
28.952	10.0
28.967	17.0
28.982	13.0
28.997	14.0
29.012	12.0
29.027	9.0
29.041	15.0
29.056	8.0
29.071	11.0
29.086	8.0
29.101	8.0
29.116	15.0
29.131	15.0
29.146	8.0
29.16	11.0
29.175	13.0
29.19	7.0
29.205	17.0
29.22	7.0
29.235	7.0
29.25	6.0
29.265	11.0
29.279	8.0
29.294	10.0
29.309	17.0
29.324	9.0
29.339	15.0
29.354	19.0
29.369	14.0
29.384	15.0
29.398	18.0
29.413	24.0
29.428	10.0
29.443	16.0
29.458	20.0
29.473	22.0
29.488	27.0
29.502	32.0
29.517	28.0
29.532	39.0
29.547	30.0
29.562	37.0
29.577	55.0
29.592	48.0
29.606	46.0
29.621	38.0
29.636	44.0
29.651	46.0
29.666	46.0
29.681	42.0
29.695	36.0
29.71	36.0
29.725	38.0
29.74	33.0
29.755	27.0
29.77	30.0
29.784	30.0
29.799	35.0
29.814	28.0
29.829	22.0
29.844	33.0
29.859	16.0
29.873	20.0
29.888	20.0
29.903	17.0
29.918	16.0
29.933	16.0
29.947	12.0
29.962	9.0
29.977	14.0
29.992	14.0
30.007	9.0
30.021	7.0
30.036	8.0
30.051	18.0
30.066	13.0
30.081	11.0
30.095	11.0
30.11	5.0
30.125	12.0
30.14	10.0
30.155	10.0
30.169	15.0
30.184	9.0
30.199	12.0
30.214	15.0
30.228	14.0
30.243	11.0
30.258	11.0
30.273	16.0
30.288	12.0
30.302	15.0
30.317	11.0
30.332	14.0
30.347	6.0
30.361	9.0
30.376	12.0
30.391	16.0
30.406	10.0
30.42	12.0
30.435	12.0
30.45	10.0
30.465	14.0
30.479	13.0
30.494	9.0
30.509	7.0
30.524	10.0
30.538	16.0
30.553	11.0
30.568	17.0
30.583	11.0
30.597	6.0
30.612	20.0
30.627	13.0
30.641	12.0
30.656	13.0
30.671	6.0
30.686	11.0
30.7	11.0
30.715	14.0
30.73	16.0
30.745	9.0
30.759	11.0
30.774	17.0
30.789	12.0
30.803	16.0
30.818	10.0
30.833	10.0
30.848	7.0
30.862	13.0
30.877	12.0
30.892	9.0
30.906	8.0
30.921	14.0
30.936	8.0
30.951	14.0
30.965	7.0
30.98	15.0
30.995	8.0
31.009	8.0
31.024	13.0
31.039	14.0
31.053	21.0
31.068	12.0
31.083	12.0
31.098	12.0
31.112	18.0
31.127	25.0
31.142	18.0
31.156	28.0
31.171	22.0
31.186	36.0
31.2	34.0
31.215	31.0
31.23	36.0
31.245	34.0
31.259	36.0
31.274	33.0
31.289	45.0
31.303	30.0
31.318	44.0
31.333	30.0
31.347	31.0
31.362	30.0
31.377	20.0
31.392	19.0
31.406	36.0
31.421	35.0
31.436	21.0
31.45	28.0
31.465	31.0
31.48	26.0
31.494	25.0
31.509	17.0
31.524	18.0
31.538	16.0
31.553	21.0
31.568	11.0
31.583	10.0
31.597	16.0
31.612	12.0
31.627	8.0
31.641	17.0
31.656	6.0
31.671	13.0
31.685	14.0
31.7	8.0
31.715	5.0
31.729	12.0
31.744	5.0
31.759	14.0
31.774	10.0
31.788	10.0
31.803	4.0
31.818	11.0
31.832	11.0
31.847	13.0
31.862	12.0
31.876	7.0
31.891	5.0
31.906	15.0
31.92	10.0
31.935	8.0
31.95	14.0
31.965	8.0
31.979	12.0
31.994	9.0
32.009	8.0
32.023	15.0
32.038	8.0
32.053	10.0
32.067	13.0
32.082	8.0
32.097	11.0
32.112	14.0
32.126	3.0
32.141	18.0
32.156	13.0
32.17	10.0
32.185	12.0
32.2	7.0
32.214	11.0
32.229	13.0
32.244	8.0
32.259	6.0
32.273	10.0
32.288	8.0
32.303	8.0
32.317	11.0
32.332	10.0
32.347	11.0
32.362	11.0
32.376	17.0
32.391	9.0
32.406	11.0
32.42	8.0
32.435	11.0
32.45	12.0
32.465	11.0
32.479	15.0
32.494	14.0
32.509	6.0
32.523	9.0
32.538	14.0
32.553	14.0
32.568	15.0
32.582	12.0
32.597	13.0
32.612	9.0
32.627	8.0
32.641	17.0
32.656	13.0
32.671	20.0
32.685	16.0
32.7	9.0
32.715	11.0
32.73	18.0
32.744	20.0
32.759	18.0
32.774	23.0
32.788	19.0
32.803	26.0
32.818	31.0
32.833	36.0
32.847	19.0
32.862	21.0
32.877	21.0
32.892	17.0
32.906	28.0
32.921	23.0
32.936	20.0
32.951	21.0
32.965	13.0
32.98	10.0
32.995	19.0
33.009	17.0
33.024	20.0
33.039	19.0
33.054	22.0
33.068	13.0
33.083	20.0
33.098	12.0
33.113	17.0
33.127	12.0
33.142	10.0
33.157	10.0
33.172	8.0
33.186	10.0
33.201	10.0
33.216	11.0
33.231	15.0
33.245	10.0
33.26	18.0
33.275	11.0
33.29	8.0
33.304	9.0
33.319	9.0
33.334	10.0
33.349	7.0
33.363	15.0
33.378	10.0
33.393	10.0
33.408	6.0
33.422	9.0
33.437	12.0
33.452	8.0
33.467	12.0
33.481	10.0
33.496	10.0
33.511	12.0
33.526	8.0
33.54	7.0
33.555	13.0
33.57	10.0
33.585	5.0
33.599	9.0
33.614	8.0
33.629	7.0
33.644	10.0
33.658	6.0
33.673	6.0
33.688	8.0
33.703	9.0
33.718	11.0
33.732	13.0
33.747	15.0
33.762	14.0
33.777	7.0
33.791	10.0
33.806	13.0
33.821	11.0
33.836	11.0
33.85	8.0
33.865	6.0
33.88	9.0
33.895	16.0
33.91	7.0
33.924	6.0
33.939	6.0
33.954	7.0
33.969	5.0
33.983	6.0
33.998	15.0
34.013	11.0
34.028	9.0
34.042	12.0
34.057	9.0
34.072	16.0
34.087	7.0
34.102	10.0
34.116	14.0
34.131	12.0
34.146	12.0
34.161	8.0
34.175	11.0
34.19	4.0
34.205	10.0
34.22	11.0
34.235	15.0
34.249	14.0
34.264	15.0
34.279	8.0
34.294	24.0
34.309	10.0
34.323	12.0
34.338	11.0
34.353	10.0
34.368	19.0
34.382	9.0
34.397	13.0
34.412	13.0
34.427	8.0
34.442	15.0
34.456	9.0
34.471	13.0
34.486	12.0
34.501	8.0
34.516	12.0
34.53	8.0
34.545	6.0
34.56	8.0
34.575	12.0
34.59	15.0
34.604	9.0
34.619	16.0
34.634	14.0
34.649	9.0
34.664	12.0
34.678	10.0
34.693	11.0
34.708	11.0
34.723	5.0
34.738	7.0
34.752	8.0
34.767	7.0
34.782	7.0
34.797	7.0
34.812	11.0
34.826	9.0
34.841	9.0
34.856	12.0
34.871	10.0
34.886	9.0
34.9	15.0
34.915	11.0
34.93	7.0
34.945	4.0
34.96	2.0
34.974	6.0
34.989	11.0
35.004	11.0
35.019	9.0
35.034	11.0
35.048	5.0
35.063	8.0
35.078	12.0
35.093	5.0
35.108	10.0
35.122	5.0
35.137	3.0
35.152	11.0
35.167	11.0
35.182	13.0
35.196	8.0
35.211	11.0
35.226	8.0
35.241	10.0
35.256	9.0
35.27	10.0
35.285	10.0
35.3	9.0
35.315	7.0
35.33	14.0
35.344	10.0
35.359	11.0
35.374	9.0
35.389	11.0
35.404	10.0
35.418	10.0
35.433	6.0
35.448	13.0
35.463	9.0
35.478	8.0
35.493	8.0
35.507	8.0
35.522	7.0
35.537	8.0
35.552	10.0
35.567	7.0
35.581	8.0
35.596	11.0
35.611	11.0
35.626	7.0
35.641	11.0
35.655	7.0
35.67	11.0
35.685	15.0
35.7	19.0
35.715	19.0
35.729	12.0
35.744	12.0
35.759	16.0
35.774	18.0
35.789	21.0
35.804	24.0
35.818	14.0
35.833	18.0
35.848	16.0
35.863	14.0
35.878	15.0
35.892	13.0
35.907	15.0
35.922	10.0
35.937	14.0
35.952	18.0
35.966	16.0
35.981	11.0
35.996	10.0
36.011	14.0
36.026	24.0
36.04	13.0
36.055	15.0
36.07	16.0
36.085	15.0
36.1	12.0
36.114	11.0
36.129	12.0
36.144	11.0
36.159	12.0
36.174	5.0
36.189	8.0
36.203	10.0
36.218	9.0
36.233	12.0
36.248	9.0
36.263	13.0
36.277	3.0
36.292	7.0
36.307	4.0
36.322	12.0
36.337	10.0
36.351	12.0
36.366	7.0
36.381	11.0
36.396	6.0
36.411	7.0
36.426	11.0
36.44	12.0
36.455	5.0
36.47	5.0
36.485	8.0
36.5	4.0
36.514	5.0
36.529	10.0
36.544	8.0
36.559	7.0
36.574	6.0
36.589	9.0
36.603	5.0
36.618	6.0
36.633	5.0
36.648	9.0
36.663	7.0
36.677	7.0
36.692	11.0
36.707	8.0
36.722	9.0
36.737	8.0
36.752	7.0
36.766	10.0
36.781	11.0
36.796	5.0
36.811	4.0
36.826	8.0
36.841	8.0
36.855	6.0
36.87	9.0
36.885	6.0
36.9	8.0
36.915	8.0
36.93	8.0
36.944	13.0
36.959	9.0
36.974	18.0
36.989	5.0
37.004	14.0
37.019	11.0
37.033	9.0
37.048	13.0
37.063	15.0
37.078	15.0
37.093	21.0
37.108	23.0
37.123	22.0
37.137	28.0
37.152	27.0
37.167	36.0
37.182	34.0
37.197	21.0
37.212	25.0
37.226	33.0
37.241	26.0
37.256	18.0
37.271	25.0
37.286	13.0
37.301	21.0
37.316	13.0
37.331	25.0
37.345	21.0
37.36	19.0
37.375	21.0
37.39	23.0
37.405	13.0
37.42	19.0
37.435	17.0
37.45	25.0
37.464	13.0
37.479	10.0
37.494	11.0
37.509	10.0
37.524	10.0
37.539	3.0
37.554	4.0
37.569	17.0
37.583	6.0
37.598	10.0
37.613	7.0
37.628	12.0
37.643	4.0
37.658	6.0
37.673	6.0
37.688	10.0
37.703	12.0
37.718	8.0
37.733	4.0
37.747	1.0
37.762	7.0
37.777	3.0
37.792	9.0
37.807	4.0
37.822	6.0
37.837	11.0
37.852	6.0
37.867	13.0
37.882	4.0
37.897	7.0
37.912	3.0
37.927	8.0
37.941	10.0
37.956	5.0
37.971	8.0
37.986	8.0
38.001	8.0
38.016	7.0
38.031	4.0
38.046	5.0
38.061	7.0
38.076	7.0
38.091	10.0
38.106	7.0
38.121	7.0
38.136	8.0
38.151	8.0
38.166	5.0
38.181	5.0
38.196	8.0
38.211	7.0
38.226	4.0
38.241	3.0
38.256	4.0
38.271	8.0
38.285	5.0
38.3	10.0
38.315	4.0
38.33	1.0
38.345	4.0
38.36	5.0
38.375	7.0
38.39	11.0
38.405	8.0
38.42	3.0
38.435	5.0
38.45	4.0
38.465	7.0
38.48	6.0
38.495	3.0
38.51	4.0
38.525	14.0
38.54	6.0
38.555	9.0
38.57	9.0
38.585	4.0
38.6	2.0
38.615	8.0
38.63	7.0
38.645	7.0
38.66	10.0
38.675	4.0
38.69	8.0
38.705	6.0
38.72	11.0
38.735	8.0
38.75	4.0
38.765	8.0
38.78	6.0
38.795	8.0
38.81	1.0
38.825	11.0
38.84	7.0
38.855	10.0
38.87	4.0
38.885	1.0
38.9	3.0
38.915	7.0
38.93	5.0
38.945	7.0
38.96	3.0
38.975	10.0
38.99	9.0
39.005	6.0
39.02	6.0
39.035	6.0
39.05	7.0
39.065	3.0
39.08	11.0
39.095	2.0
39.11	8.0
39.125	7.0
39.14	6.0
39.155	3.0
39.17	6.0
39.185	7.0
39.2	3.0
39.215	5.0
39.23	4.0
39.245	2.0
39.26	7.0
39.275	7.0
39.29	2.0
39.305	5.0
39.32	4.0
39.335	5.0
39.35	6.0
39.365	4.0
39.38	4.0
39.395	5.0
39.409	3.0
39.424	3.0
39.439	3.0
39.454	3.0
39.469	3.0
39.484	4.0
39.499	9.0
39.514	4.0
39.529	10.0
39.544	5.0
39.559	3.0
39.574	9.0
39.589	12.0
39.604	7.0
39.619	5.0
39.634	3.0
39.649	7.0
39.664	5.0
39.678	5.0
39.693	4.0
39.708	5.0
39.723	1.0
39.738	11.0
39.753	10.0
39.768	7.0
39.783	5.0
39.798	6.0
39.813	7.0
39.827	11.0
39.842	10.0
39.857	10.0
39.872	14.0
39.887	11.0
39.902	5.0
39.917	6.0
39.932	11.0
39.947	14.0
39.961	2.0
39.976	13.0
39.991	7.0
40.006	4.0
40.021	5.0
40.036	8.0
40.051	9.0
40.065	10.0
40.08	8.0
40.095	7.0
40.11	2.0
40.125	8.0
40.14	2.0
40.154	8.0
40.169	2.0
40.184	5.0
40.199	4.0
40.214	8.0
40.228	6.0
40.243	7.0
40.258	5.0
40.273	6.0
40.288	9.0
40.302	7.0
40.317	5.0
40.332	4.0
40.347	5.0
40.362	9.0
40.376	4.0
40.391	1.0
40.406	8.0
40.421	6.0
40.436	6.0
40.45	6.0
40.465	4.0
40.48	8.0
40.495	7.0
40.509	6.0
40.524	7.0
40.539	3.0
40.554	3.0
40.568	5.0
40.583	7.0
40.598	9.0
40.613	5.0
40.627	8.0
40.642	6.0
40.657	5.0
40.672	9.0
40.686	7.0
40.701	3.0
40.716	8.0
40.731	5.0
40.745	5.0
40.76	8.0
40.775	4.0
40.79	8.0
40.804	7.0
40.819	5.0
40.834	5.0
40.849	9.0
40.863	4.0
40.878	8.0
40.893	5.0
40.907	6.0
40.922	7.0
40.937	7.0
40.952	5.0
40.966	9.0
40.981	4.0
40.996	10.0
41.011	13.0
41.025	15.0
41.04	14.0
41.055	9.0
41.069	11.0
41.084	17.0
41.099	12.0
41.114	22.0
41.128	23.0
41.143	14.0
41.158	13.0
41.173	10.0
41.187	21.0
41.202	14.0
41.217	13.0
41.231	19.0
41.246	16.0
41.261	10.0
41.276	14.0
41.29	13.0
41.305	12.0
41.32	11.0
41.335	9.0
41.349	12.0
41.364	15.0
41.379	13.0
41.393	15.0
41.408	10.0
41.423	14.0
41.438	10.0
41.452	9.0
41.467	6.0
41.482	12.0
41.497	3.0
41.511	4.0
41.526	8.0
41.541	10.0
41.556	4.0
41.57	6.0
41.585	5.0
41.6	7.0
41.615	10.0
41.629	7.0
41.644	6.0
41.659	9.0
41.674	11.0
41.688	4.0
41.703	5.0
41.718	4.0
41.733	4.0
41.747	7.0
41.762	4.0
41.777	4.0
41.792	7.0
41.806	8.0
41.821	5.0
41.836	6.0
41.851	7.0
41.866	5.0
41.88	7.0
41.895	6.0
41.91	6.0
41.925	3.0
41.939	5.0
41.954	3.0
41.969	4.0
41.984	4.0
41.999	4.0
42.013	6.0
42.028	6.0
42.043	3.0
42.058	6.0
42.073	4.0
42.088	5.0
42.102	9.0
42.117	4.0
42.132	3.0
42.147	6.0
42.162	7.0
42.176	10.0
42.191	12.0
42.206	9.0
42.221	9.0
42.236	9.0
42.251	3.0
42.266	6.0
42.28	9.0
42.295	15.0
42.31	10.0
42.325	9.0
42.34	9.0
42.355	9.0
42.369	12.0
42.384	14.0
42.399	14.0
42.414	14.0
42.429	18.0
42.444	17.0
42.459	17.0
42.474	19.0
42.488	8.0
42.503	16.0
42.518	15.0
42.533	13.0
42.548	8.0
42.563	7.0
42.578	16.0
42.593	5.0
42.608	14.0
42.622	13.0
42.637	15.0
42.652	11.0
42.667	13.0
42.682	15.0
42.697	10.0
42.712	9.0
42.727	9.0
42.742	12.0
42.757	6.0
42.772	10.0
42.786	5.0
42.801	4.0
42.816	5.0
42.831	6.0
42.846	6.0
42.861	8.0
42.876	2.0
42.891	8.0
42.906	4.0
42.921	8.0
42.936	5.0
42.951	8.0
42.966	11.0
42.981	3.0
42.996	1.0
43.011	6.0
43.025	3.0
43.04	2.0
43.055	4.0
43.07	7.0
43.085	3.0
43.1	4.0
43.115	2.0
43.13	5.0
43.145	2.0
43.16	3.0
43.175	5.0
43.19	3.0
43.205	0.0
43.22	4.0
43.235	7.0
43.25	6.0
43.265	6.0
43.28	2.0
43.295	6.0
43.31	4.0
43.325	2.0
43.34	6.0
43.355	6.0
43.37	8.0
43.385	2.0
43.4	3.0
43.415	12.0
43.43	8.0
43.445	9.0
43.46	10.0
43.475	7.0
43.49	8.0
43.505	4.0
43.52	9.0
43.535	5.0
43.55	8.0
43.565	6.0
43.58	9.0
43.595	5.0
43.61	12.0
43.625	7.0
43.64	9.0
43.655	12.0
43.67	7.0
43.685	12.0
43.7	8.0
43.715	1.0
43.73	6.0
43.745	5.0
43.76	9.0
43.775	9.0
43.79	9.0
43.805	11.0
43.82	7.0
43.835	5.0
43.85	7.0
43.865	7.0
43.88	10.0
43.895	9.0
43.91	11.0
43.925	7.0
43.94	7.0
43.955	7.0
43.97	5.0
43.985	5.0
44.0	6.0
44.015	7.0
44.03	5.0
44.045	5.0
44.061	4.0
44.076	3.0
44.091	3.0
44.106	8.0
44.121	2.0
44.136	4.0
44.151	2.0
44.166	2.0
44.181	9.0
44.196	7.0
44.211	4.0
44.226	2.0
44.241	5.0
44.256	5.0
44.271	9.0
44.286	2.0
44.301	4.0
44.316	2.0
44.331	4.0
44.346	5.0
44.361	8.0
44.377	8.0
44.392	3.0
44.407	5.0
44.422	6.0
44.437	6.0
44.452	3.0
44.467	3.0
44.482	8.0
44.497	9.0
44.512	4.0
44.527	1.0
44.542	8.0
44.557	1.0
44.572	4.0
44.587	5.0
44.602	5.0
44.617	7.0
44.632	6.0
44.647	6.0
44.663	8.0
44.678	6.0
44.693	10.0
44.708	4.0
44.723	6.0
44.738	9.0
44.753	10.0
44.768	10.0
44.783	15.0
44.798	8.0
44.813	12.0
44.828	16.0
44.843	7.0
44.858	7.0
44.873	12.0
44.888	5.0
44.903	7.0
44.918	4.0
44.933	10.0
44.948	8.0
44.964	13.0
44.979	9.0
44.994	6.0
45.009	8.0
45.024	7.0
45.039	5.0
45.054	10.0
45.069	8.0
45.084	6.0
45.099	10.0
45.114	9.0
45.129	13.0
45.144	7.0
45.159	7.0
45.174	9.0
45.189	4.0
45.204	6.0
45.219	6.0
45.234	6.0
45.249	2.0
45.264	4.0
45.279	2.0
45.294	7.0
45.309	4.0
45.324	4.0
45.339	9.0
45.354	3.0
45.369	2.0
45.384	5.0
45.399	4.0
45.414	6.0
45.429	8.0
45.444	7.0
45.459	3.0
45.474	7.0
45.489	8.0
45.504	4.0
45.519	5.0
45.534	6.0
45.549	7.0
45.564	9.0
45.579	7.0
45.594	6.0
45.609	8.0
45.624	5.0
45.639	5.0
45.654	3.0
45.669	8.0
45.684	6.0
45.699	4.0
45.714	2.0
45.729	8.0
45.744	5.0
45.759	3.0
45.774	7.0
45.789	7.0
45.804	6.0
45.819	4.0
45.834	4.0
45.849	8.0
45.864	7.0
45.879	15.0
45.894	10.0
45.909	15.0
45.924	12.0
45.939	11.0
45.954	11.0
45.969	12.0
45.984	19.0
45.998	13.0
46.013	11.0
46.028	18.0
46.043	16.0
46.058	8.0
46.073	8.0
46.088	7.0
46.103	9.0
46.118	9.0
46.133	8.0
46.148	2.0
46.163	7.0
46.178	9.0
46.192	6.0
46.207	7.0
46.222	5.0
46.237	10.0
46.252	16.0
46.267	4.0
46.282	14.0
46.297	8.0
46.312	1.0
46.327	7.0
46.341	10.0
46.356	4.0
46.371	8.0
46.386	4.0
46.401	6.0
46.416	3.0
46.431	7.0
46.446	4.0
46.46	6.0
46.475	3.0
46.49	2.0
46.505	3.0
46.52	3.0
46.535	6.0
46.55	6.0
46.564	4.0
46.579	7.0
46.594	6.0
46.609	9.0
46.624	4.0
46.639	4.0
46.654	7.0
46.668	3.0
46.683	8.0
46.698	2.0
46.713	6.0
46.728	3.0
46.743	12.0
46.758	6.0
46.772	3.0
46.787	5.0
46.802	3.0
46.817	4.0
46.832	5.0
46.847	7.0
46.861	2.0
46.876	7.0
46.891	5.0
46.906	8.0
46.921	4.0
46.936	11.0
46.95	6.0
46.965	6.0
46.98	5.0
46.995	9.0
47.01	8.0
47.025	12.0
47.039	7.0
47.054	6.0
47.069	13.0
47.084	9.0
47.099	9.0
47.113	10.0
47.128	11.0
47.143	17.0
47.158	11.0
47.173	5.0
47.188	7.0
47.202	7.0
47.217	3.0
47.232	10.0
47.247	7.0
47.262	4.0
47.277	3.0
47.291	7.0
47.306	4.0
47.321	9.0
47.336	9.0
47.351	3.0
47.365	5.0
47.38	9.0
47.395	9.0
47.41	4.0
47.425	8.0
47.44	9.0
47.454	6.0
47.469	10.0
47.484	5.0
47.499	6.0
47.514	7.0
47.528	1.0
47.543	8.0
47.558	2.0
47.573	2.0
47.588	3.0
47.603	4.0
47.617	2.0
47.632	3.0
47.647	5.0
47.662	2.0
47.677	9.0
47.691	5.0
47.706	6.0
47.721	6.0
47.736	6.0
47.751	7.0
47.766	2.0
47.78	5.0
47.795	6.0
47.81	11.0
47.825	4.0
47.84	7.0
47.855	2.0
47.869	2.0
47.884	4.0
47.899	2.0
47.914	7.0
47.929	4.0
47.944	7.0
47.958	4.0
47.973	5.0
47.988	5.0
48.003	6.0
48.018	2.0
48.033	4.0
48.047	3.0
48.062	3.0
48.077	5.0
48.092	6.0
48.107	2.0
48.122	3.0
48.137	6.0
48.151	5.0
48.166	4.0
48.181	7.0
48.196	3.0
48.211	5.0
48.226	3.0
48.241	3.0
48.255	7.0
48.27	2.0
48.285	6.0
48.3	9.0
48.315	3.0
48.33	3.0
48.345	8.0
48.359	6.0
48.374	4.0
48.389	7.0
48.404	7.0
48.419	5.0
48.434	3.0
48.449	5.0
48.464	5.0
48.478	2.0
48.493	4.0
48.508	3.0
48.523	1.0
48.538	8.0
48.553	6.0
48.568	2.0
48.583	7.0
48.597	3.0
48.612	5.0
48.627	5.0
48.642	4.0
48.657	8.0
48.672	9.0
48.687	4.0
48.702	6.0
48.717	3.0
48.731	3.0
48.746	5.0
48.761	3.0
48.776	5.0
48.791	1.0
48.806	3.0
48.821	2.0
48.836	2.0
48.851	7.0
48.866	3.0
48.88	2.0
48.895	2.0
48.91	3.0
48.925	3.0
48.94	6.0
48.955	5.0
48.97	3.0
48.985	1.0
49.0	3.0
49.015	1.0
49.03	7.0
49.044	5.0
49.059	4.0
49.074	3.0
49.089	7.0
49.104	6.0
49.119	6.0
49.134	3.0
49.149	6.0
49.164	5.0
49.179	2.0
49.194	9.0
49.209	6.0
49.224	6.0
49.238	9.0
49.253	4.0
49.268	6.0
49.283	4.0
49.298	6.0
49.313	6.0
49.328	9.0
49.343	6.0
49.358	7.0
49.373	6.0
49.388	4.0
49.403	9.0
49.418	7.0
49.433	6.0
49.448	6.0
49.463	7.0
49.478	6.0
49.492	9.0
49.507	8.0
49.522	1.0
49.537	5.0
49.552	3.0
49.567	6.0
49.582	11.0
49.597	6.0
49.612	8.0
49.627	4.0
49.642	9.0
49.657	9.0
49.672	7.0
49.687	4.0
49.702	9.0
49.717	8.0
49.732	6.0
49.747	3.0
49.762	3.0
49.777	7.0
49.792	4.0
49.807	4.0
49.822	6.0
49.837	6.0
49.852	2.0
49.867	4.0
49.882	6.0
49.897	6.0
49.912	5.0
49.927	5.0
49.942	4.0
49.957	2.0
49.971	2.0
49.986	0.0
50.001	6.0
50.016	5.0
50.031	5.0
50.046	5.0
50.061	3.0
50.076	2.0
50.091	4.0
50.106	1.0
50.121	6.0
50.136	4.0
50.151	5.0
50.166	2.0
50.181	3.0
50.196	5.0
50.211	8.0
50.226	5.0
50.241	5.0
50.256	7.0
50.271	8.0
50.286	7.0
50.302	5.0
50.317	5.0
50.332	8.0
50.347	6.0
50.362	8.0
50.377	4.0
50.392	11.0
50.407	4.0
50.422	13.0
50.437	16.0
50.452	5.0
50.467	6.0
50.482	6.0
50.497	6.0
50.512	9.0
50.527	5.0
50.542	3.0
50.557	9.0
50.572	4.0
50.587	5.0
50.602	3.0
50.617	7.0
50.632	5.0
50.647	7.0
50.662	6.0
50.677	4.0
50.692	3.0
50.707	6.0
50.722	3.0
50.737	5.0
50.752	5.0
50.767	1.0
50.782	4.0
50.797	7.0
50.812	1.0
50.828	8.0
50.843	5.0
50.858	8.0
50.873	7.0
50.888	3.0
50.903	5.0
50.918	6.0
50.933	2.0
50.948	5.0
50.963	7.0
50.978	4.0
50.993	7.0
51.008	6.0
51.023	3.0
51.038	11.0
51.053	3.0
51.068	8.0
51.083	6.0
51.098	5.0
51.114	2.0
51.129	6.0
51.144	5.0
51.159	4.0
51.174	3.0
51.189	1.0
51.204	3.0
51.219	6.0
51.234	7.0
51.249	3.0
51.264	8.0
51.279	6.0
51.294	4.0
51.309	4.0
51.324	9.0
51.34	7.0
51.355	8.0
51.37	4.0
51.385	5.0
51.4	5.0
51.415	10.0
51.43	13.0
51.445	8.0
51.46	14.0
51.475	16.0
51.49	11.0
51.505	16.0
51.52	24.0
51.535	15.0
51.551	22.0
51.566	17.0
51.581	13.0
51.596	10.0
51.611	7.0
51.626	12.0
51.641	5.0
51.656	14.0
51.671	6.0
51.686	12.0
51.701	4.0
51.716	7.0
51.732	6.0
51.747	3.0
51.762	7.0
51.777	6.0
51.792	4.0
51.807	9.0
51.822	10.0
51.837	13.0
51.852	8.0
51.867	20.0
51.882	10.0
51.898	11.0
51.913	7.0
51.928	4.0
51.943	4.0
51.958	8.0
51.973	8.0
51.988	8.0
52.003	7.0
52.018	10.0
52.033	2.0
52.048	5.0
52.064	8.0
52.079	3.0
52.094	4.0
52.109	3.0
52.124	3.0
52.139	11.0
52.154	5.0
52.169	2.0
52.184	3.0
52.199	4.0
52.215	4.0
52.23	5.0
52.245	3.0
52.26	6.0
52.275	2.0
52.29	4.0
52.305	2.0
52.32	4.0
52.335	10.0
52.35	9.0
52.366	4.0
52.381	5.0
52.396	5.0
52.411	6.0
52.426	9.0
52.441	7.0
52.456	6.0
52.471	9.0
52.486	7.0
52.502	9.0
52.517	6.0
52.532	6.0
52.547	8.0
52.562	6.0
52.577	6.0
52.592	4.0
52.607	7.0
52.622	10.0
52.637	7.0
52.653	8.0
52.668	13.0
52.683	7.0
52.698	5.0
52.713	2.0
52.728	6.0
52.743	4.0
52.758	3.0
52.774	5.0
52.789	6.0
52.804	8.0
52.819	6.0
52.834	5.0
52.849	12.0
52.864	5.0
52.879	7.0
52.894	10.0
52.91	11.0
52.925	4.0
52.94	11.0
52.955	3.0
52.97	7.0
52.985	4.0
53.0	2.0
53.015	7.0
53.031	5.0
53.046	2.0
53.061	6.0
53.076	4.0
53.091	2.0
53.106	4.0
53.121	4.0
53.136	4.0
53.152	1.0
53.167	7.0
53.182	9.0
53.197	3.0
53.212	2.0
53.227	8.0
53.242	2.0
53.257	3.0
53.273	5.0
53.288	5.0
53.303	4.0
53.318	8.0
53.333	0.0
53.348	4.0
53.363	5.0
53.379	5.0
53.394	10.0
53.409	5.0
53.424	6.0
53.439	7.0
53.454	4.0
53.469	7.0
53.484	8.0
53.5	5.0
53.515	3.0
53.53	4.0
53.545	5.0
53.56	4.0
53.575	4.0
53.59	7.0
53.606	1.0
53.621	3.0
53.636	4.0
53.651	6.0
53.666	3.0
53.681	2.0
53.696	4.0
53.712	8.0
53.727	6.0
53.742	4.0
53.757	5.0
53.772	5.0
53.787	5.0
53.802	3.0
53.818	6.0
53.833	3.0
53.848	1.0
53.863	2.0
53.878	5.0
53.893	6.0
53.909	5.0
53.924	2.0
53.939	4.0
53.954	4.0
53.969	4.0
53.984	6.0
53.999	6.0
54.015	7.0
54.03	2.0
54.045	6.0
54.06	3.0
54.075	5.0
54.09	7.0
54.106	4.0
54.121	8.0
54.136	5.0
54.151	5.0
54.166	6.0
54.181	4.0
54.197	5.0
54.212	4.0
54.227	5.0
54.242	3.0
54.257	5.0
54.272	6.0
54.288	6.0
54.303	3.0
54.318	6.0
54.333	3.0
54.348	4.0
54.363	9.0
54.379	8.0
54.394	4.0
54.409	3.0
54.424	3.0
54.439	10.0
54.454	6.0
54.47	7.0
54.485	6.0
54.5	6.0
54.515	7.0
54.53	6.0
54.545	4.0
54.561	7.0
54.576	13.0
54.591	6.0
54.606	3.0
54.621	9.0
54.636	6.0
54.652	8.0
54.667	13.0
54.682	13.0
54.697	14.0
54.712	9.0
54.727	8.0
54.743	8.0
54.758	9.0
54.773	7.0
54.788	8.0
54.803	7.0
54.819	4.0
54.834	5.0
54.849	6.0
54.864	8.0
54.879	5.0
54.894	6.0
54.91	10.0
54.925	7.0
54.94	5.0
54.955	9.0
54.97	8.0
54.985	6.0
55.001	5.0
55.016	9.0
55.031	6.0
55.046	8.0
55.061	5.0
55.077	12.0
55.092	7.0
55.107	8.0
55.122	7.0
55.137	5.0
55.152	4.0
55.168	11.0
55.183	3.0
55.198	5.0
55.213	6.0
55.228	7.0
55.243	7.0
55.259	6.0
55.274	7.0
55.289	5.0
55.304	2.0
55.319	5.0
55.335	6.0
55.35	1.0
55.365	4.0
55.38	2.0
55.395	5.0
55.41	3.0
55.426	3.0
55.441	2.0
55.456	6.0
55.471	7.0
55.486	5.0
55.501	2.0
55.517	2.0
55.532	3.0
55.547	3.0
55.562	8.0
55.577	8.0
55.592	3.0
55.608	5.0
55.623	13.0
55.638	9.0
55.653	10.0
55.668	9.0
55.683	12.0
55.699	6.0
55.714	7.0
55.729	11.0
55.744	3.0
55.759	9.0
55.774	3.0
55.79	3.0
55.805	4.0
55.82	6.0
55.835	6.0
55.85	6.0
55.865	8.0
55.881	7.0
55.896	3.0
55.911	3.0
55.926	5.0
55.941	6.0
55.956	3.0
55.972	6.0
55.987	4.0
56.002	3.0
56.017	5.0
56.032	7.0
56.047	9.0
56.063	3.0
56.078	4.0
56.093	8.0
56.108	8.0
56.123	6.0
56.138	2.0
56.154	3.0
56.169	4.0
56.184	5.0
56.199	3.0
56.214	6.0
56.229	8.0
56.244	5.0
56.26	5.0
56.275	5.0
56.29	2.0
56.305	3.0
56.32	1.0
56.335	0.0
56.351	2.0
56.366	9.0
56.381	4.0
56.396	2.0
56.411	3.0
56.426	5.0
56.441	3.0
56.457	5.0
56.472	7.0
56.487	3.0
56.502	4.0
56.517	6.0
56.532	7.0
56.547	3.0
56.563	2.0
56.578	4.0
56.593	9.0
56.608	6.0
56.623	5.0
56.638	4.0
56.653	4.0
56.668	4.0
56.684	3.0
56.699	4.0
56.714	4.0
56.729	4.0
56.744	5.0
56.759	5.0
56.774	6.0
56.79	5.0
56.805	4.0
56.82	8.0
56.835	3.0
56.85	9.0
56.865	7.0
56.88	7.0
56.895	10.0
56.911	7.0
56.926	4.0
56.941	9.0
56.956	5.0
56.971	2.0
56.986	4.0
57.001	4.0
57.016	0.0
57.031	4.0
57.047	4.0
57.062	5.0
57.077	3.0
57.092	1.0
57.107	3.0
57.122	6.0
57.137	3.0
57.152	6.0
57.167	3.0
57.183	8.0
57.198	3.0
57.213	6.0
57.228	9.0
57.243	3.0
57.258	4.0
57.273	6.0
57.288	7.0
57.303	5.0
57.318	2.0
57.334	15.0
57.349	5.0
57.364	7.0
57.379	1.0
57.394	6.0
57.409	2.0
57.424	4.0
57.439	6.0
57.454	4.0
57.469	5.0
57.484	3.0
57.5	7.0
57.515	5.0
57.53	2.0
57.545	4.0
57.56	6.0
57.575	3.0
57.59	5.0
57.605	9.0
57.62	5.0
57.635	5.0
57.65	6.0
57.665	6.0
57.68	7.0
57.696	12.0
57.711	7.0
57.726	5.0
57.741	4.0
57.756	5.0
57.771	3.0
57.786	9.0
57.801	5.0
57.816	5.0
57.831	7.0
57.846	8.0
57.861	3.0
57.876	4.0
57.891	7.0
57.906	2.0
57.921	6.0
57.937	5.0
57.952	0.0
57.967	4.0
57.982	3.0
57.997	3.0
58.012	9.0
58.027	6.0
58.042	6.0
58.057	1.0
58.072	7.0
58.087	10.0
58.102	3.0
58.117	6.0
58.132	3.0
58.147	5.0
58.162	5.0
58.177	3.0
58.192	4.0
58.207	5.0
58.222	7.0
58.237	5.0
58.252	5.0
58.267	5.0
58.282	1.0
58.297	9.0
58.312	12.0
58.327	8.0
58.342	5.0
58.357	1.0
58.372	2.0
58.387	4.0
58.402	3.0
58.418	3.0
58.433	6.0
58.448	6.0
58.463	8.0
58.478	5.0
58.493	2.0
58.508	5.0
58.523	6.0
58.538	3.0
58.553	4.0
58.568	6.0
58.583	7.0
58.598	6.0
58.613	9.0
58.628	4.0
58.643	11.0
58.658	13.0
58.673	9.0
58.688	9.0
58.703	11.0
58.718	8.0
58.733	6.0
58.748	3.0
58.763	5.0
58.778	5.0
58.793	4.0
58.808	5.0
58.823	7.0
58.838	6.0
58.853	2.0
58.868	6.0
58.883	5.0
58.898	7.0
58.913	5.0
58.928	2.0
58.942	3.0
58.957	7.0
58.972	5.0
58.987	9.0
59.002	9.0
59.017	6.0
59.032	4.0
59.047	10.0
59.062	5.0
59.077	6.0
59.092	8.0
59.107	9.0
59.122	9.0
59.137	5.0
59.152	5.0
59.167	3.0
59.182	3.0
59.197	8.0
59.212	9.0
59.227	6.0
59.242	2.0
59.257	5.0
59.272	5.0
59.287	4.0
59.302	3.0
59.317	5.0
59.332	4.0
59.347	5.0
59.362	3.0
59.377	3.0
59.392	3.0
59.407	2.0
59.422	5.0
59.437	4.0
59.452	5.0
59.467	6.0
59.482	11.0
59.497	0.0
59.512	5.0
59.527	10.0
59.542	6.0
59.557	6.0
59.572	7.0
59.587	11.0
59.602	11.0
59.617	5.0
59.632	16.0
59.647	9.0
59.661	5.0
59.676	5.0
59.691	7.0
59.706	5.0
59.721	8.0
59.736	3.0
59.751	5.0
59.766	8.0
59.781	2.0
59.796	4.0
59.811	5.0
59.826	7.0
59.841	2.0
59.856	6.0
59.871	4.0
59.886	6.0
59.901	8.0
59.916	3.0
59.931	6.0
59.946	8.0
59.961	5.0
59.976	4.0
59.991	2.0
60.006	13.0
60.021	11.0
60.036	3.0
60.051	6.0
60.066	5.0
60.081	5.0
60.096	4.0
60.111	6.0
60.126	9.0
60.141	4.0
60.156	5.0
60.171	4.0
60.186	5.0
60.201	7.0
60.216	4.0
60.231	2.0
60.246	7.0
60.261	3.0
60.276	5.0
60.291	10.0
60.306	6.0
60.321	5.0
60.336	7.0
60.35	4.0
60.365	4.0
60.38	3.0
60.395	4.0
60.41	5.0
60.425	3.0
60.44	3.0
60.455	9.0
60.47	4.0
60.485	7.0
60.5	5.0
60.515	6.0
60.53	4.0
60.545	3.0
60.56	7.0
60.575	3.0
60.59	9.0
60.605	8.0
60.62	7.0
60.635	14.0
60.65	6.0
60.665	9.0
60.68	1.0
60.695	7.0
60.71	4.0
60.725	4.0
60.74	4.0
60.755	7.0
60.77	3.0
60.785	3.0
60.8	4.0
60.815	5.0
60.83	7.0
60.845	2.0
60.86	7.0
60.875	3.0
60.89	5.0
60.905	3.0
60.92	9.0
60.935	4.0
60.95	6.0
60.965	5.0
60.98	7.0
60.995	9.0
61.01	3.0
61.025	4.0
61.04	5.0
61.055	5.0
61.07	4.0
61.085	8.0
61.1	7.0
61.115	6.0
61.13	0.0
61.145	3.0
61.16	6.0
61.175	5.0
61.191	3.0
61.206	3.0
61.221	4.0
61.236	3.0
61.251	7.0
61.266	4.0
61.281	6.0
61.296	2.0
61.311	3.0
61.326	4.0
61.341	4.0
61.356	5.0
61.371	2.0
61.386	3.0
61.401	3.0
61.416	1.0
61.431	4.0
61.446	6.0
61.461	3.0
61.476	6.0
61.491	9.0
61.506	11.0
61.521	8.0
61.536	5.0
61.551	8.0
61.566	4.0
61.581	3.0
61.596	6.0
61.611	6.0
61.626	5.0
61.641	4.0
61.656	2.0
61.672	3.0
61.687	7.0
61.702	2.0
61.717	8.0
61.732	11.0
61.747	5.0
61.762	5.0
61.777	3.0
61.792	2.0
61.807	4.0
61.822	3.0
61.837	11.0
61.852	1.0
61.867	5.0
61.882	5.0
61.897	9.0
61.912	4.0
61.927	5.0
61.943	6.0
61.958	9.0
61.973	7.0
61.988	6.0
62.003	4.0
62.018	2.0
62.033	1.0
62.048	6.0
62.063	2.0
62.078	7.0
62.093	5.0
62.108	2.0
62.123	1.0
62.138	5.0
62.153	6.0
62.169	4.0
62.184	4.0
62.199	1.0
62.214	4.0
62.229	4.0
62.244	2.0
62.259	3.0
62.274	5.0
62.289	3.0
62.304	2.0
62.319	4.0
62.335	3.0
62.35	4.0
62.365	4.0
62.38	0.0
62.395	6.0
62.41	4.0
62.425	3.0
62.44	7.0
62.455	1.0
62.47	8.0
62.485	7.0
62.501	3.0
62.516	5.0
62.531	6.0
62.546	2.0
62.561	0.0
62.576	6.0
62.591	5.0
62.606	6.0
62.621	3.0
62.636	2.0
62.652	10.0
62.667	3.0
62.682	6.0
62.697	4.0
62.712	2.0
62.727	2.0
62.742	3.0
62.757	7.0
62.772	5.0
62.787	1.0
62.803	5.0
62.818	3.0
62.833	5.0
62.848	3.0
62.863	4.0
62.878	5.0
62.893	7.0
62.908	1.0
62.923	1.0
62.939	4.0
62.954	6.0
62.969	2.0
62.984	6.0
62.999	6.0
63.014	6.0
63.029	2.0
63.044	4.0
63.059	4.0
63.074	4.0
63.09	2.0
63.105	5.0
63.12	2.0
63.135	8.0
63.15	7.0
63.165	6.0
63.18	4.0
63.195	4.0
63.21	0.0
63.226	4.0
63.241	9.0
63.256	3.0
63.271	7.0
63.286	3.0
63.301	4.0
63.316	3.0
63.331	5.0
63.346	3.0
63.362	5.0
63.377	7.0
63.392	9.0
63.407	7.0
63.422	0.0
63.437	8.0
63.452	11.0
63.467	5.0
63.482	11.0
63.497	5.0
63.513	3.0
63.528	2.0
63.543	3.0
63.558	2.0
63.573	3.0
63.588	6.0
63.603	7.0
63.618	1.0
63.633	3.0
63.648	4.0
63.664	7.0
63.679	5.0
63.694	2.0
63.709	4.0
63.724	3.0
63.739	2.0
63.754	6.0
63.769	4.0
63.784	2.0
63.799	7.0
63.814	5.0
63.83	3.0
63.845	4.0
63.86	11.0
63.875	8.0
63.89	4.0
63.905	4.0
63.92	8.0
63.935	2.0
63.95	5.0
63.965	3.0
63.98	4.0
63.996	4.0
64.011	6.0
64.026	3.0
64.041	3.0
64.056	6.0
64.071	2.0
64.086	5.0
64.101	1.0
64.116	2.0
64.131	5.0
64.146	5.0
64.161	5.0
64.176	1.0
64.191	4.0
64.207	5.0
64.222	5.0
64.237	1.0
64.252	1.0
64.267	4.0
64.282	3.0
64.297	8.0
64.312	2.0
64.327	1.0
64.342	1.0
64.357	7.0
64.372	1.0
64.387	1.0
64.402	3.0
64.417	4.0
64.433	4.0
64.448	6.0
64.463	7.0
64.478	4.0
64.493	4.0
64.508	3.0
64.523	2.0
64.538	6.0
64.553	5.0
64.568	5.0
64.583	3.0
64.598	8.0
64.613	7.0
64.628	5.0
64.643	2.0
64.658	5.0
64.673	3.0
64.688	1.0
64.703	6.0
64.718	4.0
64.734	1.0
64.749	4.0
64.764	4.0
64.779	4.0
64.794	5.0
64.809	1.0
64.824	1.0
64.839	2.0
64.854	4.0
64.869	5.0
64.884	5.0
64.899	4.0
64.914	3.0
64.929	4.0
64.944	2.0
64.959	0.0
64.974	4.0
64.989	1.0
65.004	1.0
65.019	5.0
65.034	3.0
65.049	4.0
65.064	3.0
65.079	6.0
65.094	3.0
65.109	0.0
65.125	6.0
65.14	5.0
65.155	7.0
65.17	3.0
65.185	3.0
65.2	5.0
65.215	3.0
65.23	8.0
65.245	6.0
65.26	3.0
65.275	3.0
65.29	1.0
65.305	2.0
65.32	3.0
65.335	6.0
65.35	3.0
65.365	2.0
65.38	3.0
65.395	5.0
65.41	3.0
65.425	0.0
65.44	4.0
65.455	2.0
65.47	6.0
65.485	2.0
65.5	3.0
65.515	1.0
65.53	1.0
65.545	5.0
65.56	4.0
65.575	3.0
65.59	4.0
65.605	1.0
65.62	2.0
65.635	5.0
65.65	2.0
65.666	4.0
65.681	3.0
65.696	5.0
65.711	3.0
65.726	2.0
65.741	2.0
65.756	6.0
65.771	4.0
65.786	5.0
65.801	4.0
65.816	1.0
65.831	3.0
65.846	4.0
65.861	5.0
65.876	2.0
65.891	6.0
65.906	5.0
65.921	1.0
65.936	8.0
65.951	1.0
65.966	5.0
65.981	7.0
65.996	6.0
66.011	3.0
66.026	6.0
66.041	2.0
66.056	1.0
66.071	4.0
66.086	6.0
66.101	5.0
66.116	8.0
66.131	7.0
66.146	8.0
66.161	6.0
66.176	4.0
66.191	9.0
66.206	9.0
66.221	4.0
66.236	2.0
66.251	6.0
66.266	4.0
66.281	5.0
66.296	7.0
66.311	7.0
66.327	4.0
66.342	3.0
66.357	3.0
66.372	2.0
66.387	4.0
66.402	5.0
66.417	6.0
66.432	3.0
66.447	1.0
66.462	5.0
66.477	3.0
66.492	3.0
66.507	2.0
66.522	7.0
66.537	6.0
66.552	6.0
66.567	8.0
66.582	6.0
66.597	6.0
66.612	5.0
66.627	7.0
66.642	10.0
66.657	6.0
66.672	8.0
66.687	9.0
66.702	7.0
66.717	5.0
66.732	3.0
66.747	2.0
66.762	4.0
66.777	3.0
66.792	2.0
66.807	3.0
66.822	2.0
66.837	2.0
66.853	5.0
66.868	2.0
66.883	6.0
66.898	3.0
66.913	1.0
66.928	4.0
66.943	5.0
66.958	3.0
66.973	6.0
66.988	5.0
67.003	2.0
67.018	1.0
67.033	4.0
67.048	5.0
67.063	5.0
67.078	8.0
67.093	6.0
67.108	9.0
67.123	5.0
67.138	3.0
67.153	5.0
67.168	2.0
67.183	2.0
67.198	4.0
67.214	1.0
67.229	4.0
67.244	3.0
67.259	4.0
67.274	4.0
67.289	4.0
67.304	4.0
67.319	1.0
67.334	1.0
67.349	1.0
67.364	3.0
67.379	4.0
67.394	6.0
67.409	8.0
67.424	4.0
67.439	8.0
67.454	4.0
67.469	3.0
67.484	5.0
67.5	4.0
67.515	5.0
67.53	5.0
67.545	6.0
67.56	5.0
67.575	5.0
67.59	5.0
67.605	3.0
67.62	4.0
67.635	5.0
67.65	6.0
67.665	3.0
67.68	10.0
67.695	5.0
67.71	2.0
67.726	5.0
67.741	3.0
67.756	3.0
67.771	6.0
67.786	6.0
67.801	1.0
67.816	2.0
67.831	3.0
67.846	2.0
67.861	4.0
67.876	5.0
67.891	4.0
67.906	5.0
67.922	3.0
67.937	4.0
67.952	4.0
67.967	5.0
67.982	5.0
67.997	7.0
68.012	1.0
68.027	2.0
68.042	3.0
68.057	4.0
68.072	4.0
68.087	3.0
68.103	5.0
68.118	5.0
68.133	2.0
68.148	2.0
68.163	1.0
68.178	1.0
68.193	2.0
68.208	2.0
68.223	6.0
68.238	3.0
68.254	1.0
68.269	4.0
68.284	1.0
68.299	4.0
68.314	6.0
68.329	4.0
68.344	4.0
68.359	2.0
68.374	2.0
68.389	3.0
68.405	2.0
68.42	2.0
68.435	8.0
68.45	2.0
68.465	2.0
68.48	5.0
68.495	3.0
68.51	3.0
68.525	4.0
68.54	4.0
68.556	1.0
68.571	3.0
68.586	2.0
68.601	4.0
68.616	3.0
68.631	0.0
68.646	1.0
68.661	2.0
68.676	4.0
68.691	4.0
68.707	6.0
68.722	3.0
68.737	3.0
68.752	5.0
68.767	4.0
68.782	0.0
68.797	1.0
68.812	3.0
68.827	3.0
68.842	2.0
68.857	2.0
68.873	5.0
68.888	7.0
68.903	2.0
68.918	1.0
68.933	3.0
68.948	5.0
68.963	9.0
68.978	2.0
68.993	2.0
69.008	5.0
69.023	3.0
69.038	4.0
69.054	3.0
69.069	5.0
69.084	4.0
69.099	2.0
69.114	9.0
69.129	0.0
69.144	1.0
69.159	5.0
69.174	3.0
69.189	5.0
69.204	4.0
69.219	4.0
69.234	7.0
69.249	4.0
69.264	6.0
69.279	3.0
69.295	2.0
69.31	6.0
69.325	5.0
69.34	1.0
69.355	6.0
69.37	4.0
69.385	3.0
69.4	3.0
69.415	0.0
69.43	3.0
69.445	5.0
69.46	4.0
69.475	2.0
69.49	2.0
69.505	4.0
69.52	5.0
69.535	4.0
69.55	5.0
69.565	3.0
69.58	4.0
69.595	6.0
69.61	3.0
69.625	3.0
69.64	5.0
69.655	1.0
69.67	4.0
69.685	6.0
69.7	10.0
69.715	3.0
69.73	9.0
69.745	6.0
69.76	5.0
69.775	6.0
69.79	10.0
69.805	12.0
69.82	11.0
69.835	2.0
69.85	7.0
69.865	5.0
69.88	8.0
69.895	5.0
69.909	8.0
69.924	2.0
69.939	6.0
69.954	2.0
69.969	2.0
69.984	1.0
69.999	3.0
70.014	2.0
70.029	4.0
70.044	5.0
70.059	3.0
70.074	2.0
70.088	5.0
70.103	6.0
70.118	5.0
70.133	3.0
70.148	5.0
70.163	5.0
70.178	5.0
70.193	0.0
70.208	2.0
70.222	3.0
70.237	3.0
70.252	3.0
70.267	4.0
70.282	4.0
70.297	4.0
70.312	4.0
70.327	6.0
70.341	4.0
70.356	6.0
70.371	3.0
70.386	6.0
70.401	7.0
70.416	3.0
70.43	0.0
70.445	6.0
70.46	3.0
70.475	3.0
70.49	3.0
70.505	7.0
70.519	4.0
70.534	5.0
70.549	2.0
70.564	4.0
70.579	9.0
70.594	7.0
70.608	4.0
70.623	5.0
70.638	5.0
70.653	8.0
70.668	3.0
70.683	4.0
70.697	6.0
70.712	3.0
70.727	6.0
70.742	3.0
70.757	6.0
70.771	4.0
70.786	3.0
70.801	4.0
70.816	6.0
70.831	3.0
70.845	5.0
70.86	4.0
70.875	2.0
70.89	5.0
70.905	6.0
70.92	2.0
70.934	3.0
70.949	3.0
70.964	3.0
70.979	4.0
70.994	7.0
71.008	5.0
71.023	2.0
71.038	2.0
71.053	0.0
71.068	5.0
71.082	2.0
71.097	3.0
71.112	10.0
71.127	7.0
71.142	5.0
71.156	8.0
71.171	4.0
71.186	7.0
71.201	3.0
71.216	2.0
71.231	3.0
71.245	6.0
71.26	7.0
71.275	4.0
71.29	3.0
71.305	5.0
71.319	3.0
71.334	5.0
71.349	4.0
71.364	2.0
71.379	5.0
71.394	5.0
71.408	1.0
71.423	2.0
71.438	1.0
71.453	3.0
71.468	4.0
71.483	3.0
71.497	5.0
71.512	3.0
71.527	0.0
71.542	1.0
71.557	3.0
71.572	3.0
71.586	2.0
71.601	1.0
71.616	1.0
71.631	1.0
71.646	3.0
71.661	1.0
71.676	2.0
71.69	5.0
71.705	4.0
71.72	6.0
71.735	1.0
71.75	0.0
71.765	3.0
71.78	5.0
71.795	1.0
71.81	5.0
71.824	5.0
71.839	2.0
71.854	2.0
71.869	4.0
71.884	0.0
71.899	3.0
71.914	4.0
71.929	3.0
71.944	2.0
71.959	1.0
71.974	2.0
71.988	3.0
72.003	1.0
72.018	7.0
72.033	1.0
72.048	7.0
72.063	3.0
72.078	8.0
72.093	6.0
72.108	2.0
72.123	7.0
72.138	1.0
72.153	3.0
72.168	5.0
72.183	1.0
72.198	3.0
72.213	1.0
72.228	5.0
72.243	5.0
72.258	3.0
72.273	1.0
72.288	2.0
72.303	5.0
72.318	2.0
72.333	2.0
72.348	3.0
72.363	3.0
72.378	7.0
72.393	2.0
72.408	2.0
72.423	2.0
72.438	3.0
72.453	4.0
72.468	6.0
72.483	6.0
72.498	2.0
72.513	8.0
72.528	4.0
72.543	5.0
72.558	3.0
72.573	1.0
72.588	2.0
72.603	2.0
72.618	6.0
72.633	1.0
72.649	7.0
72.664	3.0
72.679	5.0
72.694	2.0
72.709	4.0
72.724	6.0
72.739	3.0
72.754	4.0
72.769	4.0
72.784	5.0
72.799	4.0
72.814	4.0
72.829	1.0
72.845	6.0
72.86	5.0
72.875	2.0
72.89	4.0
72.905	2.0
72.92	4.0
72.935	7.0
72.95	4.0
72.965	1.0
72.98	3.0
72.996	1.0
73.011	3.0
73.026	6.0
73.041	4.0
73.056	5.0
73.071	2.0
73.086	4.0
73.101	1.0
73.117	5.0
73.132	1.0
73.147	1.0
73.162	3.0
73.177	3.0
73.192	2.0
73.207	2.0
73.222	4.0
73.238	5.0
73.253	4.0
73.268	1.0
73.283	2.0
73.298	0.0
73.313	4.0
73.328	3.0
73.343	3.0
73.359	6.0
73.374	5.0
73.389	1.0
73.404	5.0
73.419	3.0
73.434	2.0
73.449	2.0
73.465	1.0
73.48	4.0
73.495	4.0
73.51	3.0
73.525	1.0
73.54	3.0
73.556	4.0
73.571	0.0
73.586	3.0
73.601	0.0
73.616	4.0
73.631	5.0
73.646	5.0
73.662	5.0
73.677	2.0
73.692	9.0
73.707	6.0
73.722	8.0
73.737	7.0
73.752	3.0
73.768	3.0
73.783	2.0
73.798	8.0
73.813	2.0
73.828	4.0
73.843	2.0
73.859	4.0
73.874	3.0
73.889	3.0
73.904	3.0
73.919	3.0
73.934	5.0
73.949	3.0
73.965	0.0
73.98	7.0
73.995	3.0
74.01	4.0
74.025	3.0
74.04	6.0
74.056	5.0
74.071	5.0
74.086	1.0
74.101	2.0
74.116	1.0
74.131	8.0
74.146	4.0
74.162	10.0
74.177	8.0
74.192	5.0
74.207	6.0
74.222	4.0
74.237	6.0
74.252	7.0
74.268	3.0
74.283	1.0
74.298	3.0
74.313	1.0
74.328	5.0
74.343	4.0
74.358	3.0
74.374	3.0
74.389	6.0
74.404	4.0
74.419	1.0
74.434	7.0
74.449	2.0
74.464	2.0
74.48	2.0
74.495	3.0
74.51	6.0
74.525	3.0
74.54	3.0
74.555	6.0
74.57	7.0
74.586	6.0
74.601	4.0
74.616	6.0
74.631	4.0
74.646	5.0
74.661	4.0
74.676	6.0
74.691	5.0
74.707	5.0
74.722	4.0
74.737	7.0
74.752	4.0
74.767	2.0
74.782	7.0
74.797	3.0
74.813	8.0
74.828	3.0
74.843	4.0
74.858	0.0
74.873	8.0
74.888	5.0
74.903	2.0
74.918	5.0
74.934	8.0
74.949	1.0
74.964	5.0
74.979	9.0
74.994	3.0
75.009	6.0
75.024	7.0
75.04	6.0
75.055	8.0
75.07	4.0
75.085	8.0
75.1	8.0
75.115	4.0
75.13	6.0
75.145	4.0
75.161	2.0
75.176	5.0
75.191	6.0
75.206	2.0
75.221	4.0
75.236	2.0
75.251	3.0
75.266	2.0
75.282	2.0
75.297	1.0
75.312	2.0
75.327	3.0
75.342	1.0
75.357	4.0
75.372	1.0
75.387	4.0
75.403	3.0
75.418	2.0
75.433	0.0
75.448	3.0
75.463	4.0
75.478	3.0
75.493	4.0
75.509	4.0
75.524	0.0
75.539	2.0
75.554	2.0
75.569	4.0
75.584	1.0
75.599	2.0
75.614	1.0
75.63	4.0
75.645	4.0
75.66	5.0
75.675	5.0
75.69	4.0
75.705	1.0
75.72	4.0
75.735	5.0
75.751	1.0
75.766	2.0
75.781	5.0
75.796	2.0
75.811	5.0
75.826	7.0
75.841	5.0
75.856	4.0
75.872	7.0
75.887	2.0
75.902	3.0
75.917	4.0
75.932	6.0
75.947	3.0
75.962	1.0
75.977	4.0
75.993	2.0
76.008	1.0
76.023	2.0
76.038	6.0
76.053	4.0
76.068	5.0
76.083	4.0
76.098	1.0
76.114	3.0
76.129	3.0
76.144	2.0
76.159	3.0
76.174	2.0
76.189	4.0
76.204	2.0
76.22	9.0
76.235	3.0
76.25	3.0
76.265	6.0
76.28	3.0
76.295	5.0
76.31	1.0
76.325	5.0
76.341	1.0
76.356	7.0
76.371	3.0
76.386	3.0
76.401	3.0
76.416	1.0
76.431	5.0
76.446	1.0
76.462	5.0
76.477	4.0
76.492	2.0
76.507	7.0
76.522	4.0
76.537	3.0
76.552	0.0
76.567	2.0
76.583	0.0
76.598	5.0
76.613	1.0
76.628	4.0
76.643	8.0
76.658	0.0
76.673	4.0
76.688	4.0
76.704	3.0
76.719	4.0
76.734	7.0
76.749	3.0
76.764	3.0
76.779	9.0
76.794	8.0
76.809	3.0
76.824	8.0
76.84	2.0
76.855	1.0
76.87	2.0
76.885	2.0
76.9	3.0
76.915	2.0
76.93	5.0
76.945	2.0
76.96	3.0
76.976	2.0
76.991	2.0
77.006	1.0
77.021	1.0
77.036	3.0
77.051	4.0
77.066	2.0
77.081	0.0
77.096	5.0
77.112	5.0
77.127	5.0
77.142	4.0
77.157	8.0
77.172	5.0
77.187	6.0
77.202	4.0
77.217	3.0
77.232	2.0
77.247	4.0
77.263	2.0
77.278	4.0
77.293	5.0
77.308	4.0
77.323	5.0
77.338	4.0
77.353	2.0
77.368	2.0
77.383	5.0
77.398	6.0
77.413	5.0
77.428	2.0
77.444	1.0
77.459	2.0
77.474	3.0
77.489	3.0
77.504	2.0
77.519	6.0
77.534	3.0
77.549	3.0
77.564	3.0
77.579	10.0
77.594	6.0
77.609	3.0
77.624	6.0
77.64	4.0
77.655	2.0
77.67	6.0
77.685	3.0
77.7	4.0
77.715	4.0
77.73	1.0
77.745	3.0
77.76	2.0
77.775	5.0
77.79	3.0
77.805	3.0
77.82	4.0
77.835	1.0
77.85	4.0
77.865	3.0
77.88	3.0
77.895	1.0
77.91	2.0
77.926	3.0
77.941	3.0
77.956	7.0
77.971	4.0
77.986	1.0
78.001	3.0
78.016	4.0
78.031	1.0
78.046	3.0
78.061	3.0
78.076	3.0
78.091	4.0
78.106	5.0
78.121	3.0
78.136	8.0
78.151	6.0
78.166	4.0
78.181	3.0
78.196	4.0
78.211	9.0
78.226	1.0
78.241	1.0
78.256	3.0
78.271	1.0
78.286	2.0
78.301	0.0
78.316	3.0
78.331	1.0
78.346	3.0
78.361	6.0
78.376	0.0
78.391	2.0
78.406	0.0
78.421	5.0
78.436	1.0
78.451	3.0
78.466	1.0
78.481	1.0
78.496	2.0
78.511	0.0
78.526	2.0
78.541	5.0
78.556	2.0
78.571	4.0
78.586	4.0
78.601	1.0
78.616	1.0
78.631	3.0
78.646	2.0
78.661	3.0
78.676	3.0
78.691	6.0
78.706	1.0
78.721	1.0
78.736	6.0
78.751	3.0
78.766	3.0
78.781	2.0
78.796	1.0
78.811	1.0
78.826	4.0
78.841	4.0
78.856	5.0
78.871	0.0
78.885	1.0
78.9	1.0
78.915	1.0
78.93	5.0
78.945	1.0
78.96	2.0
78.975	2.0
78.99	3.0
79.005	1.0
79.02	2.0
79.035	0.0
79.05	2.0
79.065	3.0
79.08	1.0
79.095	2.0
79.11	3.0
79.125	4.0
79.14	2.0
79.155	2.0
79.17	2.0
79.185	4.0
79.2	0.0
79.215	4.0
79.23	2.0
79.245	3.0
79.26	5.0
79.275	6.0
79.29	2.0
79.304	7.0
79.319	7.0
79.334	5.0
79.349	6.0
79.364	10.0
79.379	0.0
79.394	5.0
79.409	2.0
79.424	2.0
79.439	6.0
79.454	3.0
79.469	3.0
79.484	3.0
79.499	2.0
79.514	3.0
79.529	1.0
79.544	4.0
79.559	1.0
79.574	4.0
79.589	1.0
79.604	1.0
79.619	3.0
79.634	4.0
79.649	3.0
79.664	6.0
79.679	2.0
79.693	2.0
79.708	3.0
79.723	3.0
79.738	0.0
79.753	7.0
79.768	0.0
79.783	3.0
79.798	2.0
79.813	4.0
79.828	5.0
79.843	1.0
79.858	4.0
79.873	2.0
79.888	3.0
79.903	4.0
79.918	2.0
79.933	1.0
79.948	2.0
79.963	5.0
79.978	6.0
79.993	4.0
80.008	3.0
80.023	2.0
80.038	6.0
80.053	3.0
80.068	0.0
80.083	1.0
80.098	1.0
80.113	12.0
80.128	4.0
80.143	6.0
80.158	6.0
80.173	5.0
80.188	3.0
80.202	5.0
80.217	2.0
80.232	4.0
80.247	7.0
80.262	3.0
80.277	2.0
80.292	1.0
80.307	6.0
80.322	3.0
80.337	6.0
80.352	1.0
80.367	3.0
80.382	1.0
80.397	4.0
80.412	4.0
80.427	1.0
80.442	1.0
80.457	1.0
80.472	2.0
80.487	2.0
80.502	3.0
80.517	1.0
80.532	2.0
80.547	4.0
80.562	2.0
80.577	3.0
80.592	0.0
80.607	3.0
80.622	2.0
80.637	2.0
80.652	3.0
80.667	1.0
80.682	5.0
80.697	5.0
80.712	2.0
80.727	1.0
80.742	6.0
80.757	3.0
80.772	4.0
80.787	3.0
80.802	1.0
80.817	5.0
80.832	5.0
80.847	4.0
80.862	5.0
80.877	5.0
80.892	4.0
80.907	2.0
80.922	6.0
80.937	2.0
80.952	4.0
80.967	2.0
80.982	4.0
80.997	4.0
81.012	1.0
81.027	5.0
81.042	5.0
81.057	6.0
81.072	5.0
81.087	3.0
81.101	5.0
81.116	2.0
81.131	2.0
81.146	1.0
81.161	3.0
81.176	2.0
81.191	2.0
81.206	5.0
81.221	8.0
81.236	5.0
81.251	5.0
81.266	2.0
81.281	1.0
81.296	2.0
81.311	2.0
81.326	3.0
81.341	1.0
81.356	2.0
81.371	1.0
81.386	5.0
81.401	5.0
81.416	5.0
81.431	1.0
81.446	5.0
81.461	5.0
81.476	4.0
81.491	4.0
81.506	2.0
81.521	0.0
81.536	5.0
81.55	2.0
81.565	1.0
81.58	4.0
81.595	6.0
81.61	7.0
81.625	3.0
81.64	4.0
81.655	5.0
81.67	2.0
81.685	4.0
81.7	3.0
81.715	2.0
81.73	3.0
81.745	4.0
81.76	3.0
81.775	2.0
81.79	3.0
81.805	2.0
81.819	3.0
81.834	3.0
81.849	5.0
81.864	5.0
81.879	8.0
81.894	4.0
81.909	5.0
81.924	5.0
81.939	4.0
81.954	2.0
81.969	2.0
81.984	2.0
81.999	1.0
82.013	3.0
82.028	4.0
82.043	2.0
82.058	1.0
82.073	3.0
82.088	1.0
82.103	1.0
82.118	1.0
82.133	2.0
82.148	4.0
82.163	4.0
82.177	3.0
82.192	1.0
82.207	4.0
82.222	4.0
82.237	1.0
82.252	1.0
82.267	4.0
82.282	2.0
82.297	3.0
82.312	4.0
82.326	4.0
82.341	1.0
82.356	4.0
82.371	6.0
82.386	1.0
82.401	3.0
82.416	7.0
82.431	4.0
82.445	1.0
82.46	1.0
82.475	3.0
82.49	4.0
82.505	6.0
82.52	1.0
82.535	5.0
82.55	3.0
82.565	5.0
82.579	3.0
82.594	3.0
82.609	1.0
82.624	3.0
82.639	2.0
82.654	4.0
82.669	4.0
82.684	2.0
82.698	4.0
82.713	1.0
82.728	2.0
82.743	2.0
82.758	2.0
82.773	2.0
82.788	1.0
82.803	5.0
82.817	3.0
82.832	1.0
82.847	3.0
82.862	0.0
82.877	0.0
82.892	4.0
82.907	3.0
82.922	5.0
82.937	1.0
82.951	3.0
82.966	3.0
82.981	4.0
82.996	2.0
83.011	6.0
83.026	2.0
83.041	3.0
83.056	4.0
83.07	4.0
83.085	2.0
83.1	3.0
83.115	3.0
83.13	4.0
83.145	3.0
83.16	2.0
83.175	3.0
83.19	4.0
83.204	2.0
83.219	5.0
83.234	2.0
83.249	1.0
83.264	1.0
83.279	1.0
83.294	2.0
83.309	3.0
83.324	4.0
83.339	3.0
83.353	3.0
83.368	4.0
83.383	4.0
83.398	1.0
83.413	3.0
83.428	5.0
83.443	3.0
83.458	5.0
83.473	4.0
83.488	7.0
83.503	4.0
83.517	5.0
83.532	0.0
83.547	8.0
83.562	2.0
83.577	5.0
83.592	5.0
83.607	4.0
83.622	5.0
83.637	2.0
83.652	2.0
83.667	2.0
83.682	2.0
83.697	6.0
83.712	6.0
83.727	4.0
83.741	4.0
83.756	2.0
83.771	1.0
83.786	3.0
83.801	1.0
83.816	4.0
83.831	2.0
83.846	3.0
83.861	1.0
83.876	4.0
83.891	1.0
83.906	2.0
83.921	1.0
83.936	6.0
83.951	0.0
83.966	1.0
83.981	2.0
83.996	8.0
84.011	2.0
84.026	5.0
84.041	6.0
84.056	3.0
84.071	0.0
84.086	3.0
84.101	3.0
84.116	1.0
84.131	8.0
84.146	7.0
84.161	3.0
84.176	6.0
84.191	4.0
84.206	5.0
84.221	1.0
84.236	3.0
84.251	2.0
84.266	7.0
84.281	4.0
84.296	5.0
84.311	2.0
84.326	5.0
84.341	2.0
84.356	2.0
84.371	8.0
84.386	4.0
84.401	5.0
84.416	2.0
84.431	6.0
84.446	2.0
84.461	1.0
84.476	3.0
84.492	2.0
84.507	4.0
84.522	2.0
84.537	3.0
84.552	4.0
84.567	0.0
84.582	6.0
84.597	0.0
84.612	5.0
84.627	3.0
84.642	5.0
84.657	4.0
84.672	3.0
84.687	2.0
84.702	1.0
84.717	3.0
84.733	2.0
84.748	6.0
84.763	2.0
84.778	4.0
84.793	1.0
84.808	3.0
84.823	3.0
84.838	1.0
84.853	5.0
84.868	3.0
84.883	5.0
84.898	5.0
84.913	4.0
84.929	3.0
84.944	3.0
84.959	2.0
84.974	3.0
84.989	3.0
85.004	4.0
85.019	6.0
85.034	2.0
85.049	6.0
85.064	2.0
85.079	2.0
85.094	1.0
85.11	4.0
85.125	4.0
85.14	4.0
85.155	2.0
85.17	3.0
85.185	4.0
85.2	2.0
85.215	6.0
85.23	2.0
85.245	3.0
85.26	3.0
85.276	0.0
85.291	0.0
85.306	3.0
85.321	2.0
85.336	0.0
85.351	5.0
85.366	4.0
85.381	2.0
85.396	4.0
85.411	1.0
85.426	4.0
85.441	5.0
85.457	7.0
85.472	2.0
85.487	1.0
85.502	5.0
85.517	2.0
85.532	5.0
85.547	0.0
85.562	3.0
85.577	5.0
85.592	2.0
85.607	0.0
85.622	1.0
85.637	3.0
85.653	2.0
85.668	4.0
85.683	4.0
85.698	2.0
85.713	3.0
85.728	4.0
85.743	2.0
85.758	1.0
85.773	7.0
85.788	1.0
85.803	2.0
85.818	1.0
85.833	3.0
85.848	2.0
85.863	3.0
85.879	2.0
85.894	2.0
85.909	4.0
85.924	1.0
85.939	8.0
85.954	2.0
85.969	7.0
85.984	3.0
85.999	1.0
86.014	3.0
86.029	2.0
86.044	4.0
86.059	4.0
86.074	2.0
86.089	1.0
86.104	6.0
86.119	2.0
86.134	4.0
86.149	5.0
86.164	2.0
86.179	3.0
86.194	3.0
86.209	2.0
86.224	4.0
86.239	3.0
86.254	2.0
86.269	4.0
86.284	2.0
86.299	6.0
86.314	6.0
86.33	4.0
86.345	3.0
86.36	1.0
86.375	2.0
86.39	2.0
86.405	1.0
86.42	5.0
86.435	3.0
86.45	5.0
86.465	7.0
86.48	2.0
86.495	7.0
86.51	1.0
86.525	1.0
86.54	2.0
86.555	6.0
86.57	3.0
86.585	3.0
86.6	1.0
86.615	2.0
86.63	3.0
86.645	2.0
86.659	3.0
86.674	4.0
86.689	2.0
86.704	3.0
86.719	5.0
86.734	3.0
86.749	5.0
86.764	4.0
86.779	4.0
86.794	2.0
86.809	4.0
86.824	3.0
86.839	5.0
86.854	4.0
86.869	5.0
86.884	6.0
86.899	3.0
86.914	3.0
86.929	8.0
86.944	7.0
86.959	7.0
86.974	3.0
86.989	5.0
87.004	5.0
87.019	4.0
87.034	6.0
87.049	4.0
87.064	2.0
87.079	4.0
87.094	3.0
87.109	6.0
87.124	3.0
87.139	3.0
87.154	2.0
87.169	1.0
87.184	1.0
87.199	1.0
87.214	4.0
87.229	4.0
87.244	2.0
87.259	4.0
87.274	2.0
87.289	8.0
87.304	2.0
87.319	1.0
87.334	1.0
87.349	5.0
87.364	6.0
87.379	2.0
87.394	6.0
87.409	2.0
87.424	2.0
87.438	4.0
87.453	2.0
87.468	4.0
87.483	3.0
87.498	2.0
87.513	3.0
87.528	2.0
87.543	3.0
87.558	3.0
87.573	5.0
87.588	3.0
87.603	4.0
87.618	3.0
87.633	2.0
87.648	5.0
87.663	5.0
87.678	4.0
87.693	2.0
87.708	3.0
87.723	7.0
87.738	4.0
87.753	9.0
87.768	4.0
87.783	8.0
87.798	2.0
87.813	4.0
87.828	6.0
87.843	6.0
87.858	2.0
87.873	3.0
87.888	4.0
87.903	5.0
87.918	4.0
87.933	4.0
87.948	7.0
87.963	1.0
87.978	4.0
87.993	1.0
88.008	3.0
88.023	2.0
88.038	1.0
88.053	3.0
88.068	2.0
88.083	5.0
88.098	1.0
88.113	1.0
88.128	3.0
88.143	2.0
88.158	6.0
88.174	3.0
88.189	1.0
88.204	1.0
88.219	5.0
88.234	1.0
88.249	4.0
88.264	4.0
88.279	2.0
88.294	2.0
88.309	7.0
88.324	4.0
88.339	1.0
88.354	2.0
88.369	3.0
88.384	5.0
88.399	5.0
88.414	7.0
88.429	3.0
88.444	5.0
88.459	4.0
88.474	7.0
88.489	7.0
88.504	3.0
88.519	4.0
88.534	3.0
88.549	2.0
88.564	1.0
88.58	5.0
88.595	2.0
88.61	5.0
88.625	7.0
88.64	6.0
88.655	5.0
88.67	3.0
88.685	2.0
88.7	5.0
88.715	0.0
88.73	2.0
88.745	3.0
88.76	3.0
88.775	2.0
88.79	2.0
88.805	5.0
88.82	4.0
88.835	2.0
88.85	4.0
88.865	4.0
88.88	3.0
88.895	3.0
88.911	5.0
88.926	2.0
88.941	4.0
88.956	3.0
88.971	4.0
88.986	2.0
89.001	1.0
89.016	1.0
89.031	5.0
89.046	4.0
89.061	3.0
89.076	3.0
89.091	1.0
89.106	7.0
89.121	1.0
89.136	1.0
89.151	2.0
89.166	2.0
89.181	5.0
89.196	6.0
89.211	1.0
89.227	2.0
89.242	7.0
89.257	3.0
89.272	3.0
89.287	6.0
89.302	1.0
89.317	5.0
89.332	3.0
89.347	3.0
89.362	2.0
89.377	5.0
89.392	3.0
89.407	4.0
89.422	7.0
89.437	6.0
89.452	5.0
89.467	4.0
89.482	3.0
89.497	2.0
89.512	0.0
89.527	1.0
89.542	3.0
89.557	5.0
89.572	3.0
89.587	1.0
89.602	1.0
89.617	1.0
89.632	4.0
89.647	5.0
89.662	2.0
89.677	3.0
89.693	3.0
89.708	2.0
89.723	2.0
89.738	3.0
89.753	4.0
89.768	7.0
89.783	4.0
89.798	3.0
89.813	6.0
89.828	4.0
89.843	1.0
89.858	0.0
89.873	2.0
89.888	3.0
89.903	3.0
89.918	2.0
89.933	4.0
89.948	4.0
89.963	4.0
89.978	5.0
89.993	4.0
90.008	4.0
90.023	3.0
90.038	2.0
90.053	5.0
90.068	3.0
90.083	4.0
90.097	4.0
90.112	6.0
90.127	2.0
90.142	1.0
90.157	5.0
90.172	4.0
90.187	3.0
90.202	5.0
90.217	5.0
90.232	3.0
90.247	4.0
90.262	5.0
90.277	2.0
90.292	5.0
90.307	7.0
90.322	6.0
90.337	2.0
90.352	6.0
90.367	6.0
90.382	4.0
90.397	3.0
90.412	2.0
90.427	5.0
90.442	3.0
90.457	3.0
90.472	1.0
90.487	3.0
90.501	4.0
90.516	2.0
90.531	4.0
90.546	3.0
90.561	2.0
90.576	4.0
90.591	6.0
90.606	4.0
90.621	6.0
90.636	3.0
90.651	0.0
90.666	5.0
90.681	2.0
90.696	2.0
90.711	3.0
90.726	3.0
90.741	0.0
90.755	4.0
90.77	3.0
90.785	2.0
90.8	6.0
90.815	3.0
90.83	6.0
90.845	2.0
90.86	1.0
90.875	2.0
90.89	3.0
90.905	2.0
90.92	5.0
90.935	2.0
90.95	1.0
90.965	4.0
90.979	3.0
90.994	3.0
91.009	4.0
91.024	1.0
91.039	1.0
91.054	4.0
91.069	5.0
91.084	3.0
91.099	4.0
91.114	3.0
91.129	3.0
91.144	1.0
91.159	1.0
91.174	4.0
91.188	4.0
91.203	3.0
91.218	7.0
91.233	3.0
91.248	5.0
91.263	0.0
91.278	3.0
91.293	2.0
91.308	4.0
91.323	1.0
91.338	0.0
91.353	2.0
91.368	1.0
91.383	1.0
91.398	3.0
91.412	1.0
91.427	1.0
91.442	1.0
91.457	3.0
91.472	4.0
91.487	2.0
91.502	4.0
91.517	5.0
91.532	4.0
91.547	2.0
91.562	1.0
91.577	3.0
91.592	8.0
91.607	5.0
91.622	3.0
91.637	0.0
91.652	3.0
91.666	3.0
91.681	2.0
91.696	1.0
91.711	1.0
91.726	1.0
91.741	2.0
91.756	3.0
91.771	3.0
91.786	4.0
91.801	1.0
91.816	7.0
91.831	3.0
91.846	1.0
91.861	6.0
91.876	5.0
91.891	4.0
91.906	4.0
91.921	4.0
91.936	5.0
91.951	0.0
91.966	4.0
91.981	4.0
91.995	0.0
92.01	1.0
92.025	4.0
92.04	3.0
92.055	2.0
92.07	5.0
92.085	4.0
92.1	2.0
92.115	3.0
92.13	4.0
92.145	2.0
92.16	3.0
92.175	4.0
92.19	5.0
92.205	2.0
92.22	1.0
92.235	3.0
92.25	3.0
92.265	3.0
92.28	3.0
92.295	1.0
92.31	2.0
92.325	1.0
92.34	1.0
92.355	4.0
92.37	4.0
92.385	4.0
92.4	3.0
92.415	6.0
92.43	1.0
92.445	3.0
92.46	2.0
92.475	5.0
92.49	1.0
92.505	0.0
92.52	3.0
92.535	0.0
92.55	2.0
92.565	4.0
92.58	6.0
92.595	3.0
92.61	8.0
92.625	2.0
92.64	3.0
92.655	3.0
92.67	5.0
92.685	4.0
92.7	2.0
92.715	1.0
92.73	3.0
92.745	7.0
92.76	4.0
92.775	4.0
92.79	6.0
92.805	2.0
92.82	1.0
92.835	4.0
92.85	2.0
92.865	6.0
92.88	2.0
92.895	3.0
92.91	4.0
92.925	3.0
92.94	0.0
92.955	1.0
92.97	3.0
92.985	3.0
93.0	7.0
93.015	3.0
93.03	4.0
93.045	2.0
93.06	4.0
93.075	0.0
93.09	3.0
93.105	5.0
93.12	4.0
93.135	3.0
93.15	3.0
93.165	2.0
93.18	4.0
93.195	4.0
93.21	5.0
93.225	4.0
93.24	6.0
93.255	6.0
93.27	6.0
93.285	3.0
93.3	4.0
93.315	1.0
93.33	7.0
93.345	4.0
93.36	6.0
93.375	3.0
93.39	5.0
93.405	2.0
93.42	2.0
93.435	5.0
93.45	3.0
93.465	5.0
93.48	2.0
93.495	5.0
93.51	1.0
93.525	8.0
93.54	1.0
93.555	4.0
93.57	1.0
93.585	5.0
93.6	4.0
93.615	2.0
93.63	4.0
93.645	3.0
93.66	2.0
93.675	3.0
93.69	4.0
93.705	7.0
93.72	1.0
93.735	3.0
93.75	1.0
93.765	5.0
93.78	6.0
93.795	0.0
93.81	1.0
93.824	8.0
93.839	7.0
93.854	1.0
93.869	5.0
93.884	1.0
93.899	0.0
93.914	4.0
93.929	3.0
93.944	2.0
93.959	4.0
93.974	2.0
93.989	8.0
94.004	1.0
94.019	1.0
94.034	4.0
94.049	5.0
94.064	5.0
94.079	6.0
94.094	2.0
94.108	3.0
94.123	4.0
94.138	4.0
94.153	3.0
94.168	4.0
94.183	2.0
94.198	7.0
94.213	0.0
94.228	2.0
94.243	1.0
94.258	3.0
94.273	2.0
94.288	4.0
94.302	3.0
94.317	1.0
94.332	2.0
94.347	7.0
94.362	4.0
94.377	5.0
94.392	6.0
94.407	2.0
94.422	4.0
94.437	4.0
94.452	4.0
94.466	4.0
94.481	4.0
94.496	8.0
94.511	4.0
94.526	1.0
94.541	5.0
94.556	2.0
94.571	5.0
94.586	3.0
94.601	3.0
94.615	3.0
94.63	2.0
94.645	4.0
94.66	5.0
94.675	7.0
94.69	1.0
94.705	4.0
94.72	4.0
94.735	6.0
94.749	5.0
94.764	6.0
94.779	5.0
94.794	4.0
94.809	4.0
94.824	2.0
94.839	5.0
94.854	3.0
94.868	3.0
94.883	3.0
94.898	2.0
94.913	3.0
94.928	1.0
94.943	0.0
94.958	2.0
94.973	3.0
94.987	4.0
95.002	4.0
95.017	4.0
95.032	1.0
95.047	4.0
95.062	4.0
95.077	0.0
95.092	1.0
95.106	5.0
95.121	5.0
95.136	5.0
95.151	7.0
95.166	2.0
95.181	3.0
95.196	5.0
95.211	5.0
95.226	9.0
95.24	1.0
95.255	5.0
95.27	4.0
95.285	4.0
95.3	1.0
95.315	6.0
95.33	2.0
95.345	6.0
95.359	6.0
95.374	5.0
95.389	1.0
95.404	5.0
95.419	3.0
95.434	1.0
95.449	7.0
95.464	2.0
95.478	5.0
95.493	1.0
95.508	3.0
95.523	4.0
95.538	5.0
95.553	4.0
95.568	3.0
95.583	2.0
95.597	3.0
95.612	2.0
95.627	3.0
95.642	3.0
95.657	2.0
95.672	5.0
95.687	3.0
95.702	4.0
95.717	5.0
95.731	2.0
95.746	5.0
95.761	2.0
95.776	5.0
95.791	1.0
95.806	2.0
95.821	3.0
95.836	1.0
95.851	3.0
95.866	4.0
95.88	4.0
95.895	4.0
95.91	1.0
95.925	3.0
95.94	4.0
95.955	2.0
95.97	9.0
95.985	5.0
96.0	7.0
96.015	3.0
96.029	3.0
96.044	6.0
96.059	5.0
96.074	6.0
96.089	4.0
96.104	2.0
96.119	2.0
96.134	2.0
96.149	0.0
96.164	5.0
96.179	4.0
96.194	2.0
96.208	4.0
96.223	3.0
96.238	4.0
96.253	1.0
96.268	4.0
96.283	5.0
96.298	3.0
96.313	6.0
96.328	4.0
96.343	6.0
96.358	2.0
96.373	4.0
96.388	2.0
96.403	5.0
96.417	0.0
96.432	2.0
96.447	6.0
96.462	4.0
96.477	3.0
96.492	2.0
96.507	3.0
96.522	2.0
96.537	5.0
96.552	10.0
96.567	2.0
96.582	1.0
96.597	3.0
96.612	1.0
96.627	1.0
96.642	1.0
96.656	4.0
96.671	4.0
96.686	1.0
96.701	4.0
96.716	4.0
96.731	3.0
96.746	2.0
96.761	4.0
96.776	3.0
96.791	3.0
96.806	3.0
96.821	3.0
96.836	6.0
96.851	6.0
96.866	7.0
96.881	2.0
96.896	5.0
96.911	5.0
96.926	7.0
96.94	4.0
96.955	5.0
96.97	6.0
96.985	4.0
97.0	5.0
97.015	2.0
97.03	3.0
97.045	2.0
97.06	4.0
97.075	1.0
97.09	5.0
97.105	3.0
97.12	2.0
97.135	5.0
97.15	3.0
97.165	6.0
97.18	1.0
97.195	4.0
97.21	2.0
97.225	3.0
97.239	6.0
97.254	5.0
97.269	3.0
97.284	5.0
97.299	2.0
97.314	2.0
97.329	2.0
97.344	1.0
97.359	4.0
97.374	5.0
97.389	2.0
97.404	5.0
97.419	5.0
97.434	2.0
97.449	2.0
97.464	3.0
97.479	6.0
97.494	3.0
97.509	1.0
97.524	5.0
97.538	3.0
97.553	4.0
97.568	1.0
97.583	3.0
97.598	3.0
97.613	1.0
97.628	4.0
97.643	5.0
97.658	4.0
97.673	4.0
97.688	3.0
97.703	6.0
97.718	6.0
97.733	3.0
97.748	3.0
97.763	1.0
97.778	3.0
97.792	5.0
97.807	2.0
97.822	0.0
97.837	3.0
97.852	2.0
97.867	3.0
97.882	1.0
97.897	1.0
97.912	7.0
97.927	3.0
97.942	2.0
97.957	5.0
97.972	4.0
97.987	3.0
98.001	2.0
98.016	2.0
98.031	6.0
98.046	2.0
98.061	3.0
98.076	2.0
98.091	2.0
98.106	4.0
98.121	4.0
98.136	2.0
98.151	5.0
98.166	2.0
98.181	6.0
98.195	4.0
98.21	2.0
98.225	3.0
98.24	2.0
98.255	1.0
98.27	4.0
98.285	1.0
98.3	4.0
98.315	1.0
98.33	5.0
98.345	1.0
98.359	3.0
98.374	2.0
98.389	1.0
98.404	6.0
98.419	3.0
98.434	3.0
98.449	3.0
98.464	2.0
98.479	1.0
98.494	3.0
98.508	6.0
98.523	3.0
98.538	5.0
98.553	5.0
98.568	0.0
98.583	5.0
98.598	4.0
98.613	5.0
98.628	5.0
98.642	1.0
98.657	3.0
98.672	5.0
98.687	2.0
98.702	2.0
98.717	1.0
98.732	3.0
98.747	2.0
98.762	2.0
98.776	1.0
98.791	2.0
98.806	4.0
98.821	5.0
98.836	3.0
98.851	3.0
98.866	2.0
98.881	2.0
98.896	3.0
98.91	4.0
98.925	2.0
98.94	7.0
98.955	2.0
98.97	2.0
98.985	2.0
99.0	4.0
99.015	2.0
99.029	6.0
99.044	3.0
99.059	2.0
99.074	1.0
99.089	3.0
99.104	6.0
99.119	0.0
99.133	1.0
99.148	3.0
99.163	3.0
99.178	0.0
99.193	2.0
99.208	3.0
99.223	0.0
99.238	1.0
99.252	2.0
99.267	4.0
99.282	0.0
99.297	4.0
99.312	4.0
99.327	4.0
99.342	4.0
99.356	4.0
99.371	2.0
99.386	2.0
99.401	1.0
99.416	4.0
99.431	5.0
99.446	3.0
99.461	2.0
99.475	2.0
99.49	4.0
99.505	4.0
99.52	2.0
99.535	4.0
99.55	1.0
99.565	2.0
99.579	7.0
99.594	4.0
99.609	2.0
99.624	6.0
99.639	2.0
99.654	1.0
99.669	1.0
99.683	6.0
99.698	1.0
99.713	5.0
99.728	2.0
99.743	3.0
99.758	1.0
99.772	1.0
99.787	4.0
99.802	0.0
99.817	2.0
99.832	2.0
99.847	3.0
99.862	3.0
99.876	6.0
99.891	4.0
99.906	3.0
99.921	6.0
99.936	2.0
99.951	1.0
99.966	3.0
99.98	3.0
99.995	6.0
100.01	3.0
100.025	5.0
100.04	2.0
100.055	4.0
100.069	1.0
100.084	0.0
100.099	3.0
100.114	6.0
100.129	7.0
100.144	7.0
100.159	4.0
100.173	6.0
100.188	0.0
100.203	6.0
100.218	2.0
100.233	3.0
100.248	2.0
100.262	1.0
100.277	5.0
100.292	3.0
100.307	3.0
100.322	4.0
100.337	6.0
100.351	1.0
100.366	2.0
100.381	3.0
100.396	2.0
100.411	2.0
100.426	5.0
100.441	5.0
100.455	4.0
100.47	3.0
100.485	4.0
100.5	1.0
100.515	1.0
100.53	5.0
100.544	3.0
100.559	5.0
100.574	5.0
100.589	4.0
100.604	1.0
100.619	4.0
100.633	4.0
100.648	3.0
100.663	1.0
100.678	5.0
100.693	5.0
100.708	4.0
100.722	1.0
100.737	3.0
100.752	2.0
100.767	6.0
100.782	1.0
100.796	1.0
100.811	7.0
100.826	5.0
100.841	1.0
100.856	3.0
100.871	2.0
100.885	4.0
100.9	4.0
100.915	4.0
100.93	4.0
100.945	2.0
100.96	2.0
100.974	2.0
100.989	3.0
101.004	1.0
101.019	3.0
101.034	6.0
101.048	3.0
101.063	1.0
101.078	5.0
101.093	4.0
101.108	4.0
101.123	3.0
101.137	1.0
101.152	6.0
101.167	7.0
101.182	4.0
101.197	4.0
101.211	2.0
101.226	1.0
101.241	8.0
101.256	3.0
101.271	1.0
101.285	1.0
101.3	2.0
101.315	4.0
101.33	4.0
101.345	3.0
101.359	5.0
101.374	4.0
101.389	1.0
101.404	4.0
101.419	4.0
101.433	4.0
101.448	4.0
101.463	3.0
101.478	5.0
101.493	2.0
101.507	4.0
101.522	4.0
101.537	4.0
101.552	1.0
101.567	1.0
101.581	7.0
101.596	0.0
101.611	2.0
101.626	3.0
101.64	3.0
101.655	8.0
101.67	4.0
101.685	1.0
101.7	3.0
101.714	5.0
101.729	3.0
101.744	6.0
101.759	2.0
101.773	3.0
101.788	6.0
101.803	0.0
101.818	5.0
101.833	4.0
101.847	2.0
101.862	10.0
101.877	3.0
101.892	0.0
101.906	3.0
101.921	6.0
101.936	3.0
101.951	3.0
101.965	5.0
101.98	3.0
101.995	6.0
102.01	3.0
102.025	1.0
102.039	4.0
102.054	5.0
102.069	5.0
102.084	3.0
102.098	3.0
102.113	2.0
102.128	0.0
102.143	5.0
102.157	4.0
102.172	3.0
102.187	7.0
102.202	1.0
102.216	0.0
102.231	3.0
102.246	2.0
102.261	7.0
102.275	2.0
102.29	3.0
102.305	6.0
102.32	3.0
102.334	8.0
102.349	5.0
102.364	3.0
102.378	2.0
102.393	6.0
102.408	3.0
102.423	2.0
102.437	3.0
102.452	1.0
102.467	3.0
102.482	1.0
102.496	4.0
102.511	5.0
102.526	0.0
102.541	3.0
102.555	5.0
102.57	3.0
102.585	3.0
102.6	7.0
102.614	3.0
102.629	2.0
102.644	5.0
102.659	3.0
102.673	3.0
102.688	5.0
102.703	2.0
102.717	1.0
102.732	4.0
102.747	4.0
102.762	3.0
102.776	2.0
102.791	3.0
102.806	1.0
102.821	5.0
102.835	0.0
102.85	5.0
102.865	0.0
102.88	3.0
102.894	6.0
102.909	1.0
102.924	6.0
102.938	2.0
102.953	7.0
102.968	2.0
102.983	1.0
102.997	1.0
103.012	5.0
103.027	2.0
103.042	4.0
103.056	4.0
103.071	5.0
103.086	5.0
103.101	6.0
103.115	0.0
103.13	1.0
103.145	2.0
103.16	4.0
103.174	4.0
103.189	4.0
103.204	3.0
103.219	5.0
103.233	3.0
103.248	1.0
103.263	5.0
103.278	5.0
103.292	2.0
103.307	6.0
103.322	3.0
103.337	3.0
103.351	1.0
103.366	5.0
103.381	4.0
103.396	4.0
103.41	2.0
103.425	6.0
103.44	1.0
103.455	2.0
103.469	3.0
103.484	4.0
103.499	2.0
103.514	2.0
103.529	3.0
103.543	2.0
103.558	4.0
103.573	1.0
103.588	4.0
103.602	3.0
103.617	6.0
103.632	3.0
103.647	3.0
103.661	4.0
103.676	4.0
103.691	4.0
103.706	3.0
103.721	7.0
103.735	3.0
103.75	3.0
103.765	2.0
103.78	1.0
103.795	7.0
103.809	4.0
103.824	3.0
103.839	3.0
103.854	3.0
103.869	2.0
103.883	4.0
103.898	4.0
103.913	1.0
103.928	1.0
103.943	1.0
103.957	6.0
103.972	2.0
103.987	1.0
104.002	6.0
104.017	0.0
104.031	4.0
104.046	5.0
104.061	4.0
104.076	4.0
104.091	3.0
104.106	3.0
104.12	4.0
104.135	0.0
104.15	6.0
104.165	4.0
104.18	0.0
104.195	1.0
104.209	8.0
104.224	2.0
104.239	1.0
104.254	3.0
104.269	4.0
104.284	3.0
104.299	2.0
104.313	2.0
104.328	3.0
104.343	2.0
104.358	2.0
104.373	1.0
104.388	5.0
104.403	3.0
104.417	2.0
104.432	1.0
104.447	3.0
104.462	1.0
104.477	6.0
104.492	1.0
104.507	2.0
104.522	1.0
104.536	5.0
104.551	2.0
104.566	2.0
104.581	9.0
104.596	3.0
104.611	3.0
104.626	7.0
104.641	2.0
104.656	5.0
104.67	4.0
104.685	2.0
104.7	4.0
104.715	3.0
104.73	3.0
104.745	2.0
104.76	3.0
104.775	5.0
104.79	0.0
104.804	3.0
104.819	1.0
104.834	4.0
104.849	5.0
104.864	5.0
104.879	2.0
104.894	2.0
104.909	4.0
104.924	4.0
104.939	5.0
104.954	2.0
104.968	2.0
104.983	0.0
104.998	4.0
105.013	3.0
105.028	4.0
105.043	5.0
105.058	4.0
105.073	3.0
105.088	4.0
105.103	1.0
105.118	6.0
105.133	4.0
105.147	1.0
105.162	1.0
105.177	7.0
105.192	5.0
105.207	5.0
105.222	6.0
105.237	1.0
105.252	1.0
105.267	5.0
105.282	6.0
105.297	3.0
105.312	5.0
105.327	4.0
105.342	3.0
105.356	5.0
105.371	3.0
105.386	4.0
105.401	2.0
105.416	4.0
105.431	3.0
105.446	3.0
105.461	7.0
105.476	5.0
105.491	5.0
105.506	5.0
105.521	4.0
105.536	1.0
105.551	6.0
105.566	3.0
105.581	4.0
105.595	3.0
105.61	5.0
105.625	1.0
105.64	1.0
105.655	1.0
105.67	6.0
105.685	2.0
105.7	4.0
105.715	3.0
105.73	4.0
105.745	5.0
105.76	3.0
105.775	2.0
105.79	4.0
105.805	1.0
105.82	4.0
105.835	3.0
105.85	2.0
105.864	2.0
105.879	1.0
105.894	2.0
105.909	1.0
105.924	5.0
105.939	4.0
105.954	1.0
105.969	4.0
105.984	5.0
105.999	5.0
106.014	3.0
106.029	4.0
106.044	2.0
106.059	3.0
106.074	1.0
106.089	2.0
106.104	3.0
106.119	4.0
106.134	3.0
106.148	5.0
106.163	1.0
106.178	3.0
106.193	1.0
106.208	8.0
106.223	3.0
106.238	3.0
106.253	7.0
106.268	5.0
106.283	2.0
106.298	2.0
106.313	5.0
106.328	3.0
106.343	5.0
106.358	2.0
106.373	1.0
106.388	8.0
106.403	4.0
106.418	3.0
106.432	4.0
106.447	6.0
106.462	2.0
106.477	3.0
106.492	3.0
106.507	3.0
106.522	3.0
106.537	5.0
106.552	2.0
106.567	7.0
106.582	4.0
106.597	4.0
106.612	4.0
106.627	4.0
106.642	2.0
106.657	4.0
106.672	4.0
106.687	0.0
106.701	3.0
106.716	3.0
106.731	2.0
106.746	5.0
106.761	3.0
106.776	4.0
106.791	4.0
106.806	3.0
106.821	6.0
106.836	2.0
106.851	3.0
106.866	2.0
106.881	0.0
106.896	3.0
106.911	3.0
106.926	2.0
106.941	5.0
106.955	5.0
106.97	3.0
106.985	5.0
107.0	5.0
107.015	5.0
107.03	6.0
107.045	5.0
107.06	1.0
107.075	6.0
107.09	3.0
107.105	3.0
107.12	7.0
107.135	4.0
107.15	2.0
107.165	4.0
107.18	5.0
107.194	6.0
107.209	5.0
107.224	0.0
107.239	5.0
107.254	6.0
107.269	3.0
107.284	3.0
107.299	2.0
107.314	4.0
107.329	6.0
107.344	2.0
107.359	7.0
107.374	8.0
107.389	4.0
107.404	3.0
107.418	2.0
107.433	3.0
107.448	3.0
107.463	4.0
107.478	3.0
107.493	5.0
107.508	2.0
107.523	6.0
107.538	3.0
107.553	1.0
107.568	3.0
107.583	2.0
107.598	6.0
107.613	5.0
107.627	3.0
107.642	1.0
107.657	0.0
107.672	1.0
107.687	3.0
107.702	5.0
107.717	3.0
107.732	6.0
107.747	3.0
107.762	3.0
107.777	5.0
107.792	6.0
107.807	4.0
107.821	5.0
107.836	2.0
107.851	1.0
107.866	4.0
107.881	2.0
107.896	1.0
107.911	6.0
107.926	0.0
107.941	2.0
107.956	5.0
107.971	2.0
107.986	3.0
108.0	4.0
108.015	7.0
108.03	6.0
108.045	5.0
108.06	3.0
108.075	7.0
108.09	7.0
108.105	4.0
108.12	4.0
108.135	6.0
108.15	5.0
108.164	3.0
108.179	6.0
108.194	7.0
108.209	1.0
108.224	3.0
108.239	5.0
108.254	3.0
108.269	3.0
108.284	3.0
108.299	5.0
108.313	3.0
108.328	2.0
108.343	6.0
108.358	5.0
108.373	4.0
108.388	4.0
108.403	1.0
108.418	1.0
108.433	3.0
108.448	3.0
108.462	6.0
108.477	5.0
108.492	4.0
108.507	1.0
108.522	1.0
108.537	3.0
108.552	0.0
108.567	2.0
108.582	2.0
108.597	3.0
108.611	2.0
108.626	5.0
108.641	7.0
108.656	4.0
108.671	5.0
108.686	3.0
108.701	2.0
108.716	5.0
108.731	3.0
108.745	2.0
108.76	2.0
108.775	4.0
108.79	4.0
108.805	0.0
108.82	3.0
108.835	2.0
108.85	4.0
108.865	5.0
108.879	5.0
108.894	4.0
108.909	2.0
108.924	1.0
108.939	2.0
108.954	3.0
108.969	0.0
108.984	2.0
108.999	2.0
109.013	4.0
109.028	3.0
109.043	4.0
109.058	3.0
109.073	5.0
109.088	3.0
109.103	3.0
109.118	4.0
109.133	4.0
109.147	1.0
109.162	1.0
109.177	6.0
109.192	5.0
109.207	2.0
109.222	3.0
109.237	2.0
109.252	2.0
109.267	3.0
109.281	2.0
109.296	3.0
109.311	4.0
109.326	4.0
109.341	2.0
109.356	5.0
109.371	0.0
109.386	3.0
109.4	3.0
109.415	4.0
109.43	1.0
109.445	2.0
109.46	3.0
109.475	2.0
109.49	2.0
109.505	3.0
109.52	4.0
109.534	5.0
109.549	4.0
109.564	4.0
109.579	3.0
109.594	3.0
109.609	2.0
109.624	4.0
109.639	3.0
109.653	4.0
109.668	2.0
109.683	3.0
109.698	1.0
109.713	3.0
109.728	3.0
109.743	1.0
109.758	4.0
109.773	3.0
109.787	5.0
109.802	3.0
109.817	3.0
109.832	3.0
109.847	5.0
109.862	5.0
109.877	3.0
109.892	1.0
109.907	1.0
109.921	4.0
109.936	5.0
109.951	2.0
109.966	2.0
109.981	3.0
109.996	6.0
110.011	5.0
110.026	3.0
110.04	4.0
110.055	7.0
110.07	9.0
110.085	5.0
110.1	3.0
110.115	1.0
110.13	7.0
110.145	2.0
110.16	5.0
110.174	4.0
110.189	4.0
110.204	4.0
110.219	3.0
110.234	4.0
110.249	6.0
110.264	1.0
110.279	1.0
110.294	2.0
110.308	2.0
110.323	1.0
110.338	4.0
110.353	3.0
110.368	3.0
110.383	6.0
110.398	1.0
110.413	5.0
110.428	0.0
110.442	3.0
110.457	3.0
110.472	3.0
110.487	3.0
110.502	5.0
110.517	0.0
110.532	2.0
110.547	7.0
110.561	5.0
110.576	3.0
110.591	2.0
110.606	1.0
110.621	4.0
110.636	1.0
110.651	1.0
110.666	5.0
110.681	2.0
110.695	1.0
110.71	3.0
110.725	1.0
110.74	1.0
110.755	3.0
110.77	1.0
110.785	2.0
110.8	4.0
110.815	5.0
110.829	1.0
110.844	3.0
110.859	2.0
110.874	2.0
110.889	0.0
110.904	3.0
110.919	1.0
110.934	1.0
110.948	2.0
110.963	7.0
110.978	5.0
110.993	0.0
111.008	3.0
111.023	5.0
111.038	2.0
111.053	3.0
111.067	3.0
111.082	3.0
111.097	6.0
111.112	7.0
111.127	1.0
111.142	2.0
111.157	3.0
111.172	2.0
111.186	2.0
111.201	3.0
111.216	3.0
111.231	0.0
111.246	0.0
111.261	6.0
111.276	8.0
111.291	4.0
111.305	2.0
111.32	1.0
111.335	1.0
111.35	0.0
111.365	3.0
111.38	3.0
111.395	1.0
111.41	4.0
111.424	3.0
111.439	4.0
111.454	5.0
111.469	4.0
111.484	4.0
111.499	7.0
111.514	4.0
111.528	2.0
111.543	2.0
111.558	3.0
111.573	4.0
111.588	8.0
111.603	3.0
111.618	4.0
111.633	1.0
111.647	3.0
111.662	4.0
111.677	5.0
111.692	0.0
111.707	4.0
111.722	3.0
111.737	6.0
111.751	5.0
111.766	6.0
111.781	6.0
111.796	3.0
111.811	5.0
111.826	4.0
111.84	6.0
111.855	5.0
111.87	6.0
111.885	3.0
111.9	4.0
111.915	6.0
111.93	2.0
111.944	1.0
111.959	3.0
111.974	3.0
111.989	4.0
112.004	1.0
112.019	1.0
112.033	2.0
112.048	5.0
112.063	4.0
112.078	4.0
112.093	3.0
112.108	1.0
112.123	2.0
112.137	1.0
112.152	3.0
112.167	2.0
112.182	2.0
112.197	7.0
112.212	5.0
112.226	2.0
112.241	4.0
112.256	3.0
112.271	6.0
112.286	0.0
112.301	6.0
112.315	5.0
112.33	5.0
112.345	5.0
112.36	2.0
112.375	7.0
112.389	4.0
112.404	5.0
112.419	3.0
112.434	1.0
112.449	4.0
112.464	4.0
112.478	3.0
112.493	0.0
112.508	3.0
112.523	4.0
112.538	4.0
112.553	3.0
112.567	4.0
112.582	7.0
112.597	5.0
112.612	3.0
112.627	3.0
112.642	5.0
112.656	0.0
112.671	3.0
112.686	1.0
112.701	3.0
112.716	4.0
112.73	6.0
112.745	5.0
112.76	5.0
112.775	2.0
112.79	3.0
112.805	2.0
112.819	5.0
112.834	1.0
112.849	3.0
112.864	6.0
112.879	3.0
112.894	3.0
112.908	5.0
112.923	0.0
112.938	3.0
112.953	3.0
112.968	4.0
112.983	5.0
112.997	3.0
113.012	1.0
113.027	2.0
113.042	2.0
113.057	4.0
113.072	4.0
113.086	3.0
113.101	2.0
113.116	2.0
113.131	7.0
113.146	3.0
113.161	0.0
113.175	1.0
113.19	1.0
113.205	4.0
113.22	5.0
113.235	5.0
113.25	1.0
113.265	3.0
113.279	5.0
113.294	2.0
113.309	1.0
113.324	5.0
113.339	4.0
113.354	4.0
113.368	3.0
113.383	2.0
113.398	3.0
113.413	2.0
113.428	2.0
113.443	4.0
113.458	3.0
113.472	2.0
113.487	2.0
113.502	2.0
113.517	4.0
113.532	3.0
113.547	2.0
113.562	4.0
113.576	2.0
113.591	5.0
113.606	3.0
113.621	3.0
113.636	2.0
113.651	3.0
113.666	2.0
113.681	4.0
113.695	0.0
113.71	4.0
113.725	3.0
113.74	0.0
113.755	7.0
113.77	1.0
113.785	2.0
113.8	3.0
113.814	2.0
113.829	2.0
113.844	5.0
113.859	5.0
113.874	4.0
113.889	4.0
113.904	1.0
113.919	1.0
113.934	10.0
113.949	2.0
113.963	6.0
113.978	3.0
113.993	6.0
114.008	3.0
114.023	1.0
114.038	3.0
114.053	6.0
114.068	4.0
114.083	1.0
114.098	2.0
114.113	3.0
114.127	3.0
114.142	6.0
114.157	0.0
114.172	3.0
114.187	2.0
114.202	4.0
114.217	2.0
114.232	0.0
114.247	1.0
114.262	6.0
114.277	7.0
114.292	3.0
114.307	2.0
114.322	3.0
114.337	2.0
114.351	2.0
114.366	3.0
114.381	6.0
114.396	3.0
114.411	5.0
114.426	0.0
114.441	4.0
114.456	1.0
114.471	5.0
114.486	3.0
114.501	3.0
114.516	9.0
114.531	1.0
114.546	4.0
114.561	2.0
114.576	8.0
114.591	3.0
114.606	4.0
114.621	1.0
114.636	2.0
114.65	5.0
114.665	5.0
114.68	2.0
114.695	2.0
114.71	5.0
114.725	3.0
114.74	3.0
114.755	8.0
114.77	9.0
114.785	5.0
114.8	3.0
114.815	4.0
114.83	2.0
114.845	5.0
114.86	1.0
114.875	4.0
114.89	7.0
114.905	5.0
114.92	2.0
114.935	4.0
114.95	8.0
114.965	2.0
114.98	5.0
114.995	4.0
115.009	3.0
115.024	3.0
115.039	4.0
115.054	4.0
115.069	2.0
115.084	3.0
115.099	5.0
115.114	6.0
115.129	2.0
115.144	3.0
115.159	4.0
115.174	2.0
115.189	5.0
115.204	2.0
115.219	4.0
115.234	5.0
115.249	5.0
115.264	6.0
115.279	6.0
115.294	2.0
115.309	8.0
115.323	5.0
115.338	7.0
115.353	2.0
115.368	4.0
115.383	3.0
115.398	4.0
115.413	2.0
115.428	3.0
115.443	4.0
115.458	4.0
115.473	3.0
115.488	3.0
115.503	2.0
115.518	5.0
115.533	2.0
115.548	2.0
115.562	4.0
115.577	3.0
115.592	4.0
115.607	1.0
115.622	5.0
115.637	1.0
115.652	1.0
115.667	2.0
115.682	5.0
115.697	6.0
115.712	3.0
115.727	2.0
115.741	2.0
115.756	1.0
115.771	3.0
115.786	4.0
115.801	0.0
115.816	6.0
115.831	2.0
115.846	5.0
115.861	2.0
115.875	2.0
115.89	5.0
115.905	6.0
115.92	6.0
115.935	2.0
115.95	4.0
115.965	1.0
115.98	4.0
115.995	6.0
116.009	2.0
116.024	4.0
116.039	0.0
116.054	3.0
116.069	4.0
116.084	2.0
116.099	4.0
116.113	4.0
116.128	5.0
116.143	7.0
116.158	7.0
116.173	6.0
116.188	2.0
116.202	2.0
116.217	2.0
116.232	5.0
116.247	7.0
116.262	1.0
116.277	4.0
116.291	2.0
116.306	4.0
116.321	5.0
116.336	2.0
116.351	2.0
116.366	4.0
116.38	4.0
116.395	4.0
116.41	5.0
116.425	3.0
116.44	2.0
116.454	6.0
116.469	2.0
116.484	3.0
116.499	2.0
116.514	2.0
116.528	3.0
116.543	4.0
116.558	4.0
116.573	2.0
116.588	4.0
116.602	3.0
116.617	7.0
116.632	4.0
116.647	1.0
116.662	2.0
116.676	6.0
116.691	3.0
116.706	3.0
116.721	3.0
116.735	0.0
116.75	2.0
116.765	3.0
116.78	4.0
116.795	3.0
116.809	5.0
116.824	3.0
116.839	3.0
116.854	1.0
116.868	6.0
116.883	2.0
116.898	1.0
116.913	3.0
116.927	7.0
116.942	4.0
116.957	2.0
116.972	4.0
116.986	2.0
117.001	7.0
117.016	2.0
117.031	3.0
117.045	3.0
117.06	4.0
117.075	3.0
117.09	5.0
117.104	5.0
117.119	6.0
117.134	5.0
117.149	4.0
117.163	4.0
117.178	4.0
117.193	0.0
117.208	6.0
117.222	4.0
117.237	7.0
117.252	3.0
117.267	1.0
117.281	9.0
117.296	4.0
117.311	5.0
117.325	3.0
117.34	5.0
117.355	6.0
117.37	4.0
117.384	3.0
117.399	3.0
117.414	4.0
117.429	1.0
117.443	2.0
117.458	1.0
117.473	6.0
117.487	4.0
117.502	6.0
117.517	2.0
117.532	4.0
117.546	6.0
117.561	4.0
117.576	4.0
117.59	2.0
117.605	2.0
117.62	1.0
117.635	3.0
117.649	3.0
117.664	3.0
117.679	5.0
117.693	1.0
117.708	2.0
117.723	4.0
117.738	3.0
117.752	3.0
117.767	1.0
117.782	9.0
117.796	2.0
117.811	10.0
117.826	4.0
117.841	3.0
117.855	3.0
117.87	3.0
117.885	5.0
117.899	3.0
117.914	5.0
117.929	1.0
117.944	5.0
117.958	5.0
117.973	4.0
117.988	3.0
118.002	5.0
118.017	4.0
118.032	2.0
118.047	7.0
118.062	1.0
118.077	5.0
118.092	2.0
118.107	5.0
118.121	7.0
118.136	5.0
118.151	9.0
118.166	5.0
118.181	5.0
118.196	14.0
118.211	7.0
118.225	1.0
118.24	6.0
118.255	5.0
118.27	2.0
118.285	3.0
118.3	1.0
118.315	4.0
118.33	2.0
118.344	2.0
118.359	2.0
118.374	5.0
118.389	3.0
118.404	1.0
118.419	5.0
118.434	0.0
118.449	4.0
118.463	6.0
118.478	4.0
118.493	8.0
118.508	3.0
118.523	5.0
118.538	2.0
118.553	5.0
118.567	3.0
118.582	6.0
118.597	4.0
118.612	1.0
118.627	1.0
118.642	5.0
118.657	4.0
118.672	4.0
118.686	2.0
118.701	3.0
118.716	1.0
118.731	5.0
118.746	3.0
118.761	3.0
118.776	2.0
118.791	3.0
118.805	4.0
118.82	3.0
118.835	2.0
118.85	5.0
118.865	1.0
118.88	3.0
118.895	2.0
118.909	7.0
118.924	2.0
118.939	6.0
118.954	1.0
118.969	4.0
118.984	3.0
118.999	4.0
119.014	3.0
119.028	5.0
119.043	2.0
119.058	2.0
119.073	3.0
119.088	4.0
119.103	3.0
119.118	3.0
119.133	3.0
119.147	7.0
119.162	5.0
119.177	3.0
119.192	4.0
119.207	4.0
119.222	3.0
119.237	6.0
119.251	2.0
119.266	4.0
119.281	3.0
119.296	3.0
119.311	0.0
119.326	4.0
119.341	1.0
119.356	3.0
119.37	4.0
119.385	4.0
119.4	4.0
119.415	2.0
119.43	0.0
119.445	3.0
119.46	3.0
119.475	4.0
119.489	2.0
119.504	1.0
119.519	2.0
119.534	2.0
119.549	6.0
119.564	5.0
119.579	4.0
119.593	4.0
119.608	7.0
119.623	4.0
119.638	5.0
119.653	2.0
119.668	4.0
119.683	5.0
119.698	2.0
119.712	2.0
119.727	3.0
119.742	4.0
119.757	2.0
119.772	3.0
119.787	4.0
119.802	2.0
119.817	4.0
119.831	2.0
119.846	4.0
119.861	3.0
119.876	3.0
119.891	3.0
119.906	1.0
119.921	4.0
119.935	3.0
119.95	1.0
119.965	4.0
119.98	5.0
119.995	4.0
120.01	3.0
120.025	3.0
120.04	5.0
120.054	5.0
120.069	2.0
120.084	2.0
120.099	2.0
120.114	3.0
120.129	2.0
120.144	2.0
120.159	1.0
120.173	2.0
120.188	1.0
120.203	0.0
120.218	1.0
120.233	1.0
120.248	3.0
120.263	0.0
120.277	1.0
120.292	0.0
120.307	2.0
120.322	1.0
120.337	0.0
120.352	0.0
120.367	0.0
120.382	0.0
120.396	1.0
120.411	0.0
120.426	0.0
120.441	0.0
120.456	0.0
120.471	0.0
120.486	0.0
120.501	0.0
120.515	0.0
120.53	0.0
120.545	1.0
120.56	0.0
120.575	0.0
120.59	0.0
120.605	0.0
120.619	0.0
120.634	0.0
120.649	0.0
120.664	0.0
120.679	0.0
120.694	1.0
120.709	0.0
120.724	0.0
120.738	0.0
120.753	0.0
120.768	1.0
120.783	0.0
120.798	0.0
120.813	0.0
120.828	0.0
120.843	0.0
120.857	0.0
120.872	0.0
120.887	0.0
120.902	0.0
120.917	0.0
120.932	0.0
120.947	0.0
120.961	0.0
120.976	0.0
