-1.217	0.0
-1.202	0.0
-1.187	0.0
-1.172	0.0
-1.157	0.0
-1.142	0.0
-1.128	0.0
-1.113	0.0
-1.098	0.0
-1.083	0.0
-1.068	0.0
-1.054	0.0
-1.039	0.0
-1.024	0.0
-1.009	0.0
-0.994	0.0
-0.979	0.0
-0.965	0.0
-0.95	0.0
-0.935	0.0
-0.92	0.0
-0.905	0.0
-0.891	0.0
-0.876	0.0
-0.861	0.0
-0.846	0.0
-0.831	0.0
-0.816	0.0
-0.802	0.0
-0.787	0.0
-0.772	0.0
-0.757	0.0
-0.742	0.0
-0.728	0.0
-0.713	0.0
-0.698	0.0
-0.683	0.0
-0.668	0.0
-0.653	0.0
-0.639	0.0
-0.624	1.0
-0.609	0.0
-0.594	0.0
-0.579	0.0
-0.565	0.0
-0.55	0.0
-0.535	0.0
-0.52	0.0
-0.505	0.0
-0.49	0.0
-0.476	0.0
-0.461	0.0
-0.446	0.0
-0.431	0.0
-0.416	0.0
-0.401	0.0
-0.387	0.0
-0.372	0.0
-0.357	0.0
-0.342	0.0
-0.327	0.0
-0.313	0.0
-0.298	0.0
-0.283	0.0
-0.268	0.0
-0.253	0.0
-0.238	0.0
-0.224	0.0
-0.209	0.0
-0.194	0.0
-0.179	0.0
-0.164	0.0
-0.15	0.0
-0.135	0.0
-0.12	0.0
-0.105	0.0
-0.09	0.0
-0.075	0.0
-0.061	0.0
-0.046	0.0
-0.031	0.0
-0.016	0.0
-0.001	0.0
0.013	0.0
0.028	0.0
0.043	0.0
0.058	0.0
0.073	0.0
0.088	0.0
0.102	0.0
0.117	0.0
0.132	0.0
0.147	0.0
0.162	0.0
0.176	0.0
0.191	0.0
0.206	0.0
0.221	0.0
0.236	0.0
0.251	1.0
0.265	0.0
0.28	0.0
0.295	0.0
0.31	0.0
0.325	0.0
0.339	0.0
0.354	0.0
0.369	0.0
0.384	0.0
0.399	0.0
0.414	0.0
0.428	0.0
0.443	0.0
0.458	1.0
0.473	0.0
0.488	0.0
0.502	0.0
0.517	0.0
0.532	0.0
0.547	0.0
0.562	0.0
0.577	0.0
0.591	0.0
0.606	0.0
0.621	0.0
0.636	0.0
0.651	0.0
0.665	0.0
0.68	0.0
0.695	0.0
0.71	0.0
0.725	0.0
0.74	0.0
0.754	0.0
0.769	0.0
0.784	0.0
0.799	0.0
0.814	0.0
0.828	0.0
0.843	0.0
0.858	0.0
0.873	0.0
0.888	0.0
0.903	0.0
0.917	0.0
0.932	0.0
0.947	0.0
0.962	0.0
0.977	0.0
0.991	0.0
1.006	0.0
1.021	0.0
1.036	0.0
1.051	0.0
1.065	0.0
1.08	0.0
1.095	0.0
1.11	0.0
1.125	0.0
1.14	0.0
1.154	0.0
1.169	0.0
1.184	1.0
1.199	0.0
1.214	0.0
1.228	0.0
1.243	0.0
1.258	0.0
1.273	0.0
1.288	0.0
1.302	0.0
1.317	1.0
1.332	0.0
1.347	0.0
1.362	0.0
1.376	1.0
1.391	0.0
1.406	0.0
1.421	0.0
1.436	0.0
1.45	0.0
1.465	0.0
1.48	0.0
1.495	0.0
1.51	1.0
1.524	0.0
1.539	0.0
1.554	0.0
1.569	0.0
1.584	0.0
1.598	0.0
1.613	0.0
1.628	0.0
1.643	0.0
1.658	0.0
1.672	0.0
1.687	1.0
1.702	0.0
1.717	0.0
1.732	0.0
1.746	1.0
1.761	1.0
1.776	0.0
1.791	0.0
1.806	0.0
1.82	0.0
1.835	1.0
1.85	0.0
1.865	0.0
1.88	0.0
1.894	0.0
1.909	0.0
1.924	1.0
1.939	1.0
1.954	1.0
1.968	0.0
1.983	0.0
1.998	0.0
2.013	0.0
2.028	0.0
2.042	0.0
2.057	0.0
2.072	0.0
2.087	1.0
2.101	0.0
2.116	0.0
2.131	0.0
2.146	1.0
2.161	0.0
2.175	1.0
2.19	0.0
2.205	1.0
2.22	0.0
2.235	1.0
2.249	0.0
2.264	1.0
2.279	0.0
2.294	1.0
2.308	0.0
2.323	3.0
2.338	2.0
2.353	0.0
2.368	0.0
2.382	2.0
2.397	2.0
2.412	0.0
2.427	1.0
2.442	2.0
2.456	0.0
2.471	3.0
2.486	1.0
2.501	4.0
2.515	1.0
2.53	1.0
2.545	2.0
2.56	7.0
2.575	1.0
2.589	1.0
2.604	1.0
2.619	1.0
2.634	0.0
2.649	2.0
2.663	1.0
2.678	3.0
2.693	1.0
2.708	4.0
2.722	2.0
2.737	0.0
2.752	2.0
2.767	6.0
2.782	0.0
2.796	2.0
2.811	3.0
2.826	1.0
2.841	2.0
2.856	3.0
2.87	3.0
2.885	3.0
2.9	2.0
2.915	3.0
2.93	3.0
2.944	2.0
2.959	4.0
2.974	5.0
2.989	6.0
3.004	3.0
3.018	2.0
3.033	6.0
3.048	5.0
3.063	1.0
3.078	3.0
3.092	6.0
3.107	2.0
3.122	4.0
3.137	7.0
3.152	10.0
3.166	2.0
3.181	5.0
3.196	1.0
3.211	2.0
3.226	5.0
3.24	4.0
3.255	4.0
3.27	7.0
3.285	2.0
3.3	5.0
3.315	4.0
3.329	2.0
3.344	3.0
3.359	5.0
3.374	7.0
3.389	3.0
3.403	3.0
3.418	6.0
3.433	2.0
3.448	12.0
3.463	11.0
3.478	3.0
3.492	1.0
3.507	3.0
3.522	3.0
3.537	6.0
3.552	5.0
3.567	5.0
3.581	2.0
3.596	10.0
3.611	6.0
3.626	3.0
3.641	10.0
3.656	3.0
3.671	5.0
3.685	6.0
3.7	6.0
3.715	7.0
3.73	8.0
3.745	4.0
3.76	6.0
3.775	9.0
3.789	5.0
3.804	6.0
3.819	6.0
3.834	9.0
3.849	7.0
3.864	2.0
3.879	7.0
3.894	6.0
3.908	8.0
3.923	4.0
3.938	6.0
3.953	3.0
3.968	7.0
3.983	5.0
3.998	9.0
4.013	3.0
4.027	6.0
4.042	3.0
4.057	5.0
4.072	7.0
4.087	6.0
4.102	6.0
4.117	8.0
4.132	9.0
4.147	5.0
4.162	8.0
4.176	8.0
4.191	8.0
4.206	7.0
4.221	6.0
4.236	5.0
4.251	10.0
4.266	8.0
4.281	4.0
4.296	7.0
4.311	6.0
4.326	6.0
4.341	6.0
4.356	5.0
4.37	3.0
4.385	7.0
4.4	7.0
4.415	2.0
4.43	7.0
4.445	9.0
4.46	9.0
4.475	17.0
4.49	5.0
4.505	6.0
4.52	9.0
4.535	5.0
4.55	14.0
4.565	4.0
4.58	7.0
4.595	5.0
4.61	12.0
4.625	8.0
4.639	9.0
4.654	8.0
4.669	6.0
4.684	10.0
4.699	3.0
4.714	7.0
4.729	5.0
4.744	7.0
4.759	6.0
4.774	6.0
4.789	10.0
4.804	6.0
4.819	12.0
4.834	10.0
4.849	4.0
4.864	9.0
4.879	7.0
4.894	14.0
4.909	9.0
4.924	11.0
4.939	7.0
4.954	10.0
4.969	13.0
4.984	6.0
4.999	9.0
5.014	12.0
5.029	5.0
5.044	8.0
5.059	4.0
5.074	11.0
5.089	9.0
5.104	8.0
5.119	10.0
5.134	6.0
5.149	7.0
5.164	6.0
5.179	6.0
5.194	6.0
5.209	6.0
5.224	10.0
5.239	5.0
5.254	9.0
5.269	9.0
5.284	4.0
5.299	6.0
5.314	9.0
5.329	6.0
5.344	8.0
5.359	11.0
5.374	8.0
5.389	8.0
5.404	8.0
5.419	7.0
5.434	13.0
5.449	7.0
5.464	11.0
5.479	7.0
5.494	13.0
5.509	14.0
5.524	7.0
5.539	7.0
5.554	4.0
5.569	9.0
5.584	14.0
5.599	7.0
5.614	4.0
5.629	10.0
5.644	12.0
5.659	11.0
5.674	8.0
5.689	8.0
5.704	5.0
5.719	7.0
5.734	7.0
5.749	10.0
5.764	7.0
5.779	8.0
5.794	7.0
5.809	8.0
5.824	12.0
5.839	12.0
5.854	10.0
5.869	13.0
5.884	14.0
5.899	9.0
5.914	8.0
5.929	9.0
5.944	8.0
5.959	11.0
5.974	8.0
5.989	9.0
6.004	10.0
6.019	4.0
6.034	10.0
6.049	11.0
6.064	5.0
6.079	10.0
6.094	2.0
6.109	8.0
6.124	17.0
6.139	4.0
6.154	7.0
6.169	12.0
6.184	6.0
6.199	7.0
6.214	5.0
6.229	8.0
6.244	10.0
6.259	9.0
6.274	11.0
6.289	6.0
6.304	13.0
6.319	6.0
6.334	7.0
6.349	11.0
6.364	6.0
6.379	10.0
6.394	12.0
6.409	9.0
6.424	5.0
6.439	7.0
6.454	13.0
6.469	6.0
6.484	3.0
6.499	11.0
6.514	5.0
6.529	13.0
6.544	8.0
6.559	8.0
6.574	10.0
6.589	14.0
6.604	6.0
6.619	6.0
6.634	6.0
6.649	6.0
6.664	10.0
6.679	11.0
6.694	9.0
6.709	4.0
6.724	7.0
6.739	12.0
6.754	14.0
6.769	9.0
6.784	11.0
6.799	12.0
6.814	7.0
6.829	7.0
6.844	11.0
6.859	8.0
6.873	12.0
6.888	19.0
6.903	10.0
6.918	7.0
6.933	9.0
6.948	8.0
6.963	13.0
6.978	9.0
6.993	7.0
7.008	8.0
7.023	15.0
7.038	5.0
7.053	6.0
7.068	9.0
7.083	3.0
7.098	8.0
7.113	12.0
7.128	9.0
7.143	4.0
7.157	9.0
7.172	11.0
7.187	5.0
7.202	11.0
7.217	4.0
7.232	9.0
7.247	9.0
7.262	11.0
7.277	11.0
7.292	9.0
7.307	10.0
7.322	7.0
7.336	5.0
7.351	7.0
7.366	8.0
7.381	15.0
7.396	8.0
7.411	6.0
7.426	8.0
7.441	6.0
7.456	8.0
7.471	11.0
7.485	8.0
7.5	8.0
7.515	8.0
7.53	7.0
7.545	9.0
7.56	5.0
7.575	8.0
7.59	6.0
7.604	6.0
7.619	4.0
7.634	6.0
7.649	10.0
7.664	9.0
7.679	12.0
7.693	8.0
7.708	6.0
7.723	3.0
7.738	6.0
7.753	13.0
7.768	8.0
7.783	10.0
7.797	10.0
7.812	7.0
7.827	6.0
7.842	7.0
7.857	7.0
7.871	12.0
7.886	8.0
7.901	14.0
7.916	11.0
7.931	8.0
7.945	11.0
7.96	5.0
7.975	10.0
7.99	7.0
8.005	7.0
8.019	12.0
8.034	8.0
8.049	13.0
8.064	11.0
8.078	8.0
8.093	7.0
8.108	9.0
8.123	10.0
8.137	10.0
8.152	7.0
8.167	8.0
8.182	13.0
8.196	12.0
8.211	12.0
8.226	10.0
8.241	14.0
8.255	8.0
8.27	15.0
8.285	12.0
8.3	7.0
8.314	7.0
8.329	8.0
8.344	8.0
8.358	10.0
8.373	4.0
8.388	7.0
8.403	7.0
8.417	5.0
8.432	8.0
8.447	7.0
8.461	10.0
8.476	8.0
8.491	5.0
8.505	8.0
8.52	13.0
8.535	8.0
8.55	9.0
8.564	9.0
8.579	10.0
8.594	9.0
8.608	6.0
8.623	16.0
8.638	12.0
8.652	14.0
8.667	9.0
8.682	4.0
8.696	6.0
8.711	10.0
8.726	7.0
8.74	12.0
8.755	12.0
8.77	6.0
8.784	6.0
8.799	9.0
8.814	9.0
8.828	6.0
8.843	9.0
8.858	6.0
8.872	11.0
8.887	6.0
8.902	5.0
8.916	7.0
8.931	13.0
8.946	8.0
8.96	9.0
8.975	13.0
8.99	6.0
9.004	11.0
9.019	10.0
9.034	4.0
9.048	12.0
9.063	8.0
9.077	9.0
9.092	8.0
9.107	11.0
9.121	11.0
9.136	4.0
9.151	8.0
9.165	10.0
9.18	8.0
9.195	9.0
9.209	14.0
9.224	13.0
9.239	12.0
9.253	8.0
9.268	4.0
9.283	15.0
9.297	8.0
9.312	8.0
9.327	7.0
9.341	5.0
9.356	6.0
9.371	10.0
9.385	8.0
9.4	14.0
9.415	9.0
9.429	8.0
9.444	10.0
9.458	12.0
9.473	5.0
9.488	11.0
9.502	7.0
9.517	6.0
9.532	5.0
9.546	11.0
9.561	9.0
9.576	7.0
9.59	9.0
9.605	12.0
9.62	6.0
9.635	8.0
9.649	3.0
9.664	6.0
9.679	17.0
9.693	8.0
9.708	9.0
9.723	9.0
9.737	9.0
9.752	3.0
9.767	10.0
9.781	13.0
9.796	7.0
9.811	13.0
9.825	8.0
9.84	4.0
9.855	8.0
9.87	7.0
9.884	12.0
9.899	6.0
9.914	10.0
9.928	5.0
9.943	11.0
9.958	13.0
9.973	8.0
9.987	5.0
10.002	10.0
10.017	11.0
10.031	12.0
10.046	11.0
10.061	8.0
10.076	10.0
10.09	7.0
10.105	9.0
10.12	7.0
10.135	9.0
10.149	13.0
10.164	10.0
10.179	8.0
10.194	10.0
10.208	10.0
10.223	7.0
10.238	6.0
10.253	11.0
10.267	4.0
10.282	14.0
10.297	7.0
10.312	14.0
10.326	5.0
10.341	6.0
10.356	6.0
10.371	7.0
10.386	8.0
10.4	7.0
10.415	11.0
10.43	2.0
10.445	9.0
10.46	6.0
10.474	4.0
10.489	4.0
10.504	10.0
10.519	5.0
10.533	9.0
10.548	11.0
10.563	7.0
10.578	6.0
10.593	9.0
10.608	8.0
10.622	10.0
10.637	17.0
10.652	11.0
10.667	8.0
10.682	8.0
10.696	10.0
10.711	12.0
10.726	7.0
10.741	8.0
10.756	4.0
10.771	5.0
10.785	7.0
10.8	11.0
10.815	6.0
10.83	7.0
10.845	8.0
10.86	9.0
10.874	9.0
10.889	8.0
10.904	8.0
10.919	10.0
10.934	10.0
10.949	4.0
10.963	4.0
10.978	6.0
10.993	12.0
11.008	10.0
11.023	7.0
11.038	7.0
11.053	11.0
11.067	5.0
11.082	11.0
11.097	9.0
11.112	10.0
11.127	10.0
11.142	8.0
11.157	3.0
11.172	9.0
11.186	4.0
11.201	11.0
11.216	6.0
11.231	3.0
11.246	5.0
11.261	15.0
11.276	10.0
11.291	4.0
11.305	8.0
11.32	9.0
11.335	6.0
11.35	7.0
11.365	10.0
11.38	4.0
11.395	16.0
11.41	6.0
11.424	12.0
11.439	7.0
11.454	5.0
11.469	15.0
11.484	3.0
11.499	5.0
11.514	8.0
11.529	10.0
11.544	14.0
11.558	7.0
11.573	12.0
11.588	4.0
11.603	6.0
11.618	12.0
11.633	6.0
11.648	10.0
11.663	4.0
11.678	7.0
11.693	10.0
11.707	8.0
11.722	5.0
11.737	17.0
11.752	11.0
11.767	7.0
11.782	7.0
11.797	11.0
11.812	5.0
11.827	8.0
11.842	11.0
11.856	13.0
11.871	10.0
11.886	9.0
11.901	5.0
11.916	9.0
11.931	10.0
11.946	5.0
11.961	14.0
11.976	11.0
11.991	13.0
12.006	8.0
12.02	10.0
12.035	8.0
12.05	7.0
12.065	7.0
12.08	11.0
12.095	11.0
12.11	9.0
12.125	14.0
12.14	9.0
12.155	7.0
12.17	5.0
12.184	7.0
12.199	11.0
12.214	11.0
12.229	7.0
12.244	4.0
12.259	8.0
12.274	9.0
12.289	16.0
12.304	4.0
12.319	18.0
12.334	12.0
12.348	6.0
12.363	12.0
12.378	17.0
12.393	13.0
12.408	8.0
12.423	8.0
12.438	6.0
12.453	9.0
12.468	12.0
12.483	13.0
12.498	9.0
12.513	14.0
12.527	13.0
12.542	12.0
12.557	15.0
12.572	5.0
12.587	12.0
12.602	10.0
12.617	8.0
12.632	15.0
12.647	15.0
12.662	11.0
12.677	14.0
12.692	11.0
12.707	14.0
12.721	9.0
12.736	15.0
12.751	12.0
12.766	17.0
12.781	14.0
12.796	17.0
12.811	19.0
12.826	14.0
12.841	11.0
12.856	20.0
12.871	17.0
12.886	14.0
12.9	15.0
12.915	19.0
12.93	15.0
12.945	16.0
12.96	12.0
12.975	11.0
12.99	14.0
13.005	18.0
13.02	17.0
13.035	18.0
13.05	18.0
13.065	20.0
13.08	13.0
13.094	9.0
13.109	18.0
13.124	23.0
13.139	17.0
13.154	19.0
13.169	22.0
13.184	16.0
13.199	20.0
13.214	23.0
13.229	14.0
13.244	19.0
13.259	22.0
13.274	13.0
13.288	25.0
13.303	17.0
13.318	18.0
13.333	18.0
13.348	17.0
13.363	21.0
13.378	27.0
13.393	32.0
13.408	31.0
13.423	34.0
13.438	34.0
13.453	39.0
13.468	36.0
13.482	38.0
13.497	40.0
13.512	39.0
13.527	36.0
13.542	46.0
13.557	53.0
13.572	49.0
13.587	59.0
13.602	53.0
13.617	64.0
13.632	77.0
13.647	86.0
13.662	65.0
13.677	86.0
13.691	86.0
13.706	102.0
13.721	87.0
13.736	108.0
13.751	91.0
13.766	109.0
13.781	101.0
13.796	113.0
13.811	126.0
13.826	112.0
13.841	115.0
13.856	109.0
13.871	111.0
13.885	100.0
13.9	93.0
13.915	84.0
13.93	70.0
13.945	64.0
13.96	61.0
13.975	53.0
13.99	26.0
14.005	27.0
14.02	26.0
14.035	27.0
14.05	21.0
14.065	18.0
14.08	20.0
14.094	24.0
14.109	22.0
14.124	24.0
14.139	23.0
14.154	21.0
14.169	23.0
14.184	23.0
14.199	24.0
14.214	11.0
14.229	26.0
14.244	21.0
14.259	12.0
14.274	24.0
14.288	21.0
14.303	20.0
14.318	20.0
14.333	19.0
14.348	21.0
14.363	24.0
14.378	17.0
14.393	15.0
14.408	12.0
14.423	23.0
14.438	15.0
14.453	14.0
14.468	16.0
14.482	22.0
14.497	21.0
14.512	12.0
14.527	28.0
14.542	18.0
14.557	11.0
14.572	16.0
14.587	14.0
14.602	19.0
14.617	17.0
14.632	9.0
14.647	16.0
14.661	19.0
14.676	23.0
14.691	13.0
14.706	15.0
14.721	10.0
14.736	17.0
14.751	11.0
14.766	15.0
14.781	9.0
14.796	13.0
14.811	14.0
14.826	17.0
14.84	14.0
14.855	11.0
14.87	18.0
14.885	17.0
14.9	8.0
14.915	21.0
14.93	15.0
14.945	15.0
14.96	18.0
14.975	13.0
14.989	14.0
15.004	22.0
15.019	17.0
15.034	16.0
15.049	15.0
15.064	14.0
15.079	14.0
15.094	8.0
15.109	18.0
15.124	14.0
15.138	21.0
15.153	11.0
15.168	12.0
15.183	17.0
15.198	18.0
15.213	18.0
15.228	9.0
15.243	8.0
15.258	13.0
15.272	13.0
15.287	16.0
15.302	17.0
15.317	8.0
15.332	19.0
15.347	10.0
15.362	14.0
15.377	18.0
15.391	9.0
15.406	18.0
15.421	14.0
15.436	18.0
15.451	11.0
15.466	14.0
15.481	10.0
15.496	14.0
15.51	14.0
15.525	14.0
15.54	19.0
15.555	21.0
15.57	8.0
15.585	27.0
15.6	13.0
15.614	6.0
15.629	17.0
15.644	20.0
15.659	18.0
15.674	9.0
15.689	16.0
15.704	12.0
15.718	14.0
15.733	15.0
15.748	16.0
15.763	17.0
15.778	15.0
15.793	9.0
15.808	18.0
15.822	12.0
15.837	11.0
15.852	15.0
15.867	8.0
15.882	14.0
15.897	19.0
15.911	17.0
15.926	8.0
15.941	15.0
15.956	12.0
15.971	14.0
15.986	15.0
16.0	13.0
16.015	9.0
16.03	14.0
16.045	19.0
16.06	10.0
16.074	13.0
16.089	18.0
16.104	19.0
16.119	19.0
16.134	8.0
16.149	14.0
16.163	20.0
16.178	13.0
16.193	15.0
16.208	19.0
16.223	16.0
16.237	12.0
16.252	14.0
16.267	8.0
16.282	16.0
16.297	12.0
16.311	14.0
16.326	14.0
16.341	10.0
16.356	16.0
16.37	13.0
16.385	12.0
16.4	16.0
16.415	15.0
16.43	10.0
16.444	13.0
16.459	17.0
16.474	21.0
16.489	18.0
16.504	11.0
16.518	14.0
16.533	20.0
16.548	21.0
16.563	14.0
16.577	15.0
16.592	11.0
16.607	21.0
16.622	20.0
16.637	20.0
16.651	19.0
16.666	12.0
16.681	17.0
16.696	19.0
16.71	21.0
16.725	28.0
16.74	26.0
16.755	41.0
16.77	24.0
16.784	39.0
16.799	36.0
16.814	46.0
16.829	43.0
16.843	57.0
16.858	64.0
16.873	68.0
16.888	57.0
16.902	52.0
16.917	75.0
16.932	60.0
16.947	60.0
16.961	61.0
16.976	80.0
16.991	67.0
17.006	64.0
17.021	46.0
17.035	68.0
17.05	51.0
17.065	49.0
17.08	33.0
17.094	31.0
17.109	39.0
17.124	27.0
17.139	25.0
17.153	10.0
17.168	22.0
17.183	24.0
17.198	27.0
17.212	21.0
17.227	15.0
17.242	14.0
17.257	15.0
17.271	16.0
17.286	13.0
17.301	9.0
17.316	10.0
17.33	13.0
17.345	15.0
17.36	10.0
17.375	17.0
17.39	13.0
17.404	14.0
17.419	15.0
17.434	13.0
17.449	10.0
17.463	15.0
17.478	8.0
17.493	7.0
17.508	9.0
17.522	17.0
17.537	11.0
17.552	20.0
17.567	7.0
17.581	15.0
17.596	13.0
17.611	14.0
17.626	15.0
17.641	24.0
17.655	14.0
17.67	8.0
17.685	14.0
17.7	13.0
17.714	11.0
17.729	9.0
17.744	10.0
17.759	15.0
17.773	16.0
17.788	13.0
17.803	9.0
17.818	8.0
17.833	13.0
17.847	10.0
17.862	10.0
17.877	4.0
17.892	11.0
17.906	13.0
17.921	13.0
17.936	8.0
17.951	17.0
17.966	10.0
17.98	12.0
17.995	13.0
18.01	14.0
18.025	13.0
18.04	12.0
18.054	12.0
18.069	13.0
18.084	17.0
18.099	18.0
18.114	19.0
18.128	11.0
18.143	12.0
18.158	10.0
18.173	17.0
18.188	15.0
18.202	5.0
18.217	8.0
18.232	11.0
18.247	9.0
18.262	10.0
18.276	10.0
18.291	10.0
18.306	12.0
18.321	7.0
18.336	16.0
18.35	11.0
18.365	13.0
18.38	10.0
18.395	12.0
18.41	7.0
18.424	10.0
18.439	9.0
18.454	12.0
18.469	12.0
18.484	13.0
18.498	15.0
18.513	10.0
18.528	14.0
18.543	16.0
18.558	6.0
18.573	15.0
18.587	7.0
18.602	8.0
18.617	14.0
18.632	9.0
18.647	12.0
18.661	8.0
18.676	9.0
18.691	13.0
18.706	12.0
18.721	14.0
18.736	14.0
18.75	6.0
18.765	17.0
18.78	10.0
18.795	12.0
18.81	13.0
18.825	6.0
18.839	17.0
18.854	9.0
18.869	15.0
18.884	11.0
18.899	23.0
18.913	17.0
18.928	14.0
18.943	7.0
18.958	14.0
18.973	13.0
18.988	12.0
19.002	15.0
19.017	15.0
19.032	7.0
19.047	18.0
19.062	14.0
19.077	10.0
19.091	15.0
19.106	13.0
19.121	6.0
19.136	17.0
19.151	9.0
19.165	13.0
19.18	11.0
19.195	8.0
19.21	15.0
19.225	15.0
19.24	11.0
19.254	19.0
19.269	13.0
19.284	11.0
19.299	13.0
19.314	17.0
19.329	13.0
19.343	16.0
19.358	13.0
19.373	19.0
19.388	23.0
19.403	20.0
19.417	24.0
19.432	26.0
19.447	29.0
19.462	27.0
19.477	21.0
19.492	38.0
19.506	31.0
19.521	35.0
19.536	43.0
19.551	38.0
19.566	46.0
19.58	48.0
19.595	46.0
19.61	32.0
19.625	41.0
19.64	41.0
19.655	46.0
19.669	30.0
19.684	37.0
19.699	28.0
19.714	36.0
19.729	28.0
19.743	20.0
19.758	15.0
19.773	19.0
19.788	21.0
19.803	18.0
19.817	17.0
19.832	14.0
19.847	14.0
19.862	14.0
19.877	10.0
19.891	15.0
19.906	11.0
19.921	9.0
19.936	11.0
19.951	14.0
19.965	10.0
19.98	15.0
19.995	12.0
20.01	16.0
20.025	8.0
20.039	8.0
20.054	10.0
20.069	16.0
20.084	13.0
20.099	16.0
20.113	9.0
20.128	11.0
20.143	13.0
20.158	14.0
20.173	7.0
20.187	13.0
20.202	12.0
20.217	15.0
20.232	14.0
20.246	8.0
20.261	21.0
20.276	7.0
20.291	11.0
20.306	10.0
20.32	8.0
20.335	23.0
20.35	10.0
20.365	14.0
20.38	6.0
20.394	10.0
20.409	13.0
20.424	9.0
20.439	17.0
20.453	10.0
20.468	11.0
20.483	11.0
20.498	6.0
20.513	17.0
20.527	17.0
20.542	19.0
20.557	11.0
20.572	15.0
20.586	14.0
20.601	9.0
20.616	12.0
20.631	14.0
20.646	5.0
20.66	11.0
20.675	13.0
20.69	8.0
20.705	11.0
20.719	10.0
20.734	9.0
20.749	11.0
20.764	11.0
20.779	4.0
20.793	11.0
20.808	7.0
20.823	9.0
20.838	8.0
20.853	12.0
20.867	16.0
20.882	17.0
20.897	11.0
20.912	9.0
20.926	9.0
20.941	14.0
20.956	11.0
20.971	10.0
20.986	12.0
21.0	11.0
21.015	18.0
21.03	11.0
21.045	13.0
21.06	14.0
21.074	3.0
21.089	8.0
21.104	12.0
21.119	7.0
21.134	11.0
21.148	19.0
21.163	11.0
21.178	11.0
21.193	11.0
21.208	13.0
21.222	9.0
21.237	10.0
21.252	11.0
21.267	7.0
21.282	13.0
21.296	10.0
21.311	15.0
21.326	19.0
21.341	13.0
21.356	14.0
21.37	11.0
21.385	13.0
21.4	12.0
21.415	8.0
21.43	10.0
21.444	12.0
21.459	18.0
21.474	14.0
21.489	12.0
21.504	12.0
21.519	14.0
21.533	16.0
21.548	18.0
21.563	19.0
21.578	20.0
21.593	15.0
21.608	15.0
21.622	20.0
21.637	11.0
21.652	15.0
21.667	18.0
21.682	19.0
21.697	20.0
21.712	16.0
21.726	31.0
21.741	28.0
21.756	24.0
21.771	28.0
21.786	35.0
21.801	37.0
21.816	40.0
21.83	33.0
21.845	55.0
21.86	47.0
21.875	59.0
21.89	64.0
21.905	87.0
21.92	77.0
21.935	74.0
21.949	79.0
21.964	71.0
21.979	98.0
21.994	59.0
22.009	71.0
22.024	62.0
22.039	69.0
22.054	57.0
22.069	48.0
22.083	51.0
22.098	37.0
22.113	42.0
22.128	32.0
22.143	37.0
22.158	25.0
22.173	36.0
22.188	21.0
22.203	20.0
22.218	11.0
22.233	17.0
22.248	9.0
22.262	14.0
22.277	10.0
22.292	7.0
22.307	8.0
22.322	11.0
22.337	16.0
22.352	14.0
22.367	21.0
22.382	20.0
22.397	14.0
22.412	12.0
22.427	20.0
22.442	10.0
22.457	8.0
22.472	15.0
22.487	19.0
22.502	22.0
22.516	17.0
22.531	13.0
22.546	14.0
22.561	8.0
22.576	12.0
22.591	17.0
22.606	9.0
22.621	8.0
22.636	15.0
22.651	5.0
22.666	12.0
22.681	9.0
22.696	15.0
22.711	12.0
22.726	17.0
22.741	9.0
22.756	13.0
22.771	8.0
22.786	10.0
22.801	8.0
22.816	7.0
22.831	12.0
22.846	16.0
22.861	11.0
22.876	10.0
22.891	12.0
22.906	10.0
22.92	14.0
22.935	9.0
22.95	20.0
22.965	11.0
22.98	7.0
22.995	10.0
23.01	15.0
23.025	8.0
23.04	12.0
23.055	9.0
23.07	9.0
23.085	13.0
23.1	9.0
23.115	10.0
23.13	11.0
23.145	9.0
23.16	14.0
23.175	9.0
23.19	3.0
23.205	16.0
23.22	15.0
23.235	14.0
23.25	8.0
23.265	5.0
23.28	12.0
23.295	7.0
23.31	12.0
23.325	15.0
23.34	8.0
23.355	9.0
23.37	10.0
23.384	8.0
23.399	11.0
23.414	16.0
23.429	8.0
23.444	12.0
23.459	6.0
23.474	5.0
23.489	11.0
23.504	7.0
23.519	9.0
23.534	17.0
23.549	10.0
23.564	13.0
23.579	8.0
23.594	15.0
23.609	15.0
23.624	11.0
23.639	11.0
23.654	11.0
23.668	12.0
23.683	10.0
23.698	12.0
23.713	13.0
23.728	16.0
23.743	12.0
23.758	13.0
23.773	7.0
23.788	14.0
23.803	14.0
23.818	7.0
23.833	13.0
23.848	12.0
23.862	13.0
23.877	22.0
23.892	20.0
23.907	20.0
23.922	24.0
23.937	28.0
23.952	30.0
23.967	32.0
23.982	31.0
23.997	50.0
24.011	56.0
24.026	44.0
24.041	39.0
24.056	44.0
24.071	56.0
24.086	51.0
24.101	51.0
24.116	56.0
24.131	35.0
24.145	39.0
24.16	34.0
24.175	32.0
24.19	29.0
24.205	32.0
24.22	40.0
24.235	33.0
24.249	28.0
24.264	28.0
24.279	27.0
24.294	25.0
24.309	19.0
24.324	18.0
24.338	15.0
24.353	20.0
24.368	17.0
24.383	16.0
24.398	16.0
24.413	17.0
24.428	15.0
24.442	10.0
24.457	13.0
24.472	12.0
24.487	16.0
24.502	12.0
24.516	16.0
24.531	9.0
24.546	12.0
24.561	7.0
24.576	10.0
24.591	12.0
24.605	11.0
24.62	4.0
24.635	13.0
24.65	9.0
24.665	18.0
24.679	6.0
24.694	14.0
24.709	12.0
24.724	14.0
24.739	11.0
24.753	8.0
24.768	5.0
24.783	10.0
24.798	8.0
24.813	15.0
24.827	6.0
24.842	8.0
24.857	12.0
24.872	10.0
24.886	10.0
24.901	2.0
24.916	10.0
24.931	10.0
24.946	8.0
24.96	8.0
24.975	7.0
24.99	10.0
25.005	13.0
25.019	12.0
25.034	10.0
25.049	9.0
25.064	5.0
25.078	8.0
25.093	7.0
25.108	10.0
25.123	11.0
25.138	16.0
25.152	12.0
25.167	8.0
25.182	10.0
25.197	8.0
25.211	12.0
25.226	8.0
25.241	9.0
25.256	9.0
25.27	9.0
25.285	12.0
25.3	6.0
25.315	7.0
25.329	5.0
25.344	11.0
25.359	12.0
25.374	9.0
25.388	7.0
25.403	11.0
25.418	5.0
25.433	11.0
25.447	12.0
25.462	14.0
25.477	16.0
25.492	8.0
25.506	13.0
25.521	12.0
25.536	10.0
25.55	5.0
25.565	11.0
25.58	4.0
25.595	11.0
25.609	7.0
25.624	15.0
25.639	8.0
25.654	15.0
25.668	7.0
25.683	11.0
25.698	12.0
25.713	10.0
25.727	9.0
25.742	10.0
25.757	13.0
25.772	11.0
25.786	12.0
25.801	5.0
25.816	14.0
25.83	11.0
25.845	9.0
25.86	10.0
25.875	6.0
25.889	9.0
25.904	8.0
25.919	13.0
25.934	9.0
25.948	6.0
25.963	11.0
25.978	8.0
25.992	14.0
26.007	8.0
26.022	9.0
26.037	11.0
26.051	15.0
26.066	8.0
26.081	10.0
26.096	10.0
26.11	8.0
26.125	9.0
26.14	5.0
26.155	6.0
26.169	4.0
26.184	12.0
26.199	8.0
26.213	18.0
26.228	14.0
26.243	8.0
26.258	10.0
26.272	12.0
26.287	11.0
26.302	10.0
26.317	5.0
26.331	7.0
26.346	13.0
26.361	6.0
26.376	13.0
26.39	13.0
26.405	9.0
26.42	11.0
26.434	16.0
26.449	6.0
26.464	7.0
26.479	10.0
26.493	10.0
26.508	8.0
26.523	12.0
26.538	10.0
26.552	10.0
26.567	5.0
26.582	9.0
26.597	10.0
26.611	12.0
26.626	11.0
26.641	13.0
26.656	10.0
26.67	7.0
26.685	9.0
26.7	12.0
26.715	9.0
26.729	7.0
26.744	13.0
26.759	14.0
26.773	9.0
26.788	10.0
26.803	12.0
26.818	13.0
26.832	10.0
26.847	4.0
26.862	7.0
26.877	12.0
26.891	10.0
26.906	7.0
26.921	9.0
26.936	16.0
26.95	11.0
26.965	7.0
26.98	10.0
26.995	9.0
27.01	14.0
27.024	10.0
27.039	9.0
27.054	5.0
27.069	8.0
27.083	8.0
27.098	6.0
27.113	8.0
27.128	8.0
27.142	11.0
27.157	6.0
27.172	9.0
27.187	7.0
27.201	12.0
27.216	7.0
27.231	10.0
27.246	8.0
27.261	12.0
27.275	6.0
27.29	6.0
27.305	13.0
27.32	11.0
27.334	16.0
27.349	5.0
27.364	7.0
27.379	15.0
27.394	7.0
27.408	9.0
27.423	11.0
27.438	14.0
27.453	11.0
27.467	6.0
27.482	7.0
27.497	11.0
27.512	12.0
27.527	11.0
27.541	10.0
27.556	14.0
27.571	10.0
27.586	6.0
27.601	6.0
27.615	12.0
27.63	8.0
27.645	23.0
27.66	12.0
27.675	11.0
27.689	13.0
27.704	6.0
27.719	9.0
27.734	16.0
27.749	14.0
27.763	22.0
27.778	19.0
27.793	20.0
27.808	18.0
27.823	23.0
27.838	28.0
27.852	22.0
27.867	26.0
27.882	23.0
27.897	26.0
27.912	23.0
27.926	22.0
27.941	20.0
27.956	17.0
27.971	23.0
27.986	8.0
28.001	20.0
28.015	13.0
28.03	11.0
28.045	24.0
28.06	13.0
28.075	14.0
28.09	12.0
28.105	7.0
28.119	19.0
28.134	10.0
28.149	13.0
28.164	10.0
28.179	12.0
28.194	8.0
28.208	14.0
28.223	18.0
28.238	4.0
28.253	8.0
28.268	16.0
28.283	20.0
28.298	9.0
28.312	8.0
28.327	13.0
28.342	11.0
28.357	9.0
28.372	10.0
28.387	16.0
28.402	7.0
28.417	10.0
28.431	14.0
28.446	11.0
28.461	9.0
28.476	13.0
28.491	7.0
28.506	8.0
28.521	14.0
28.536	13.0
28.55	11.0
28.565	15.0
28.58	12.0
28.595	9.0
28.61	9.0
28.625	13.0
28.64	11.0
28.655	14.0
28.669	7.0
28.684	16.0
28.699	18.0
28.714	11.0
28.729	11.0
28.744	17.0
28.759	10.0
28.774	12.0
28.788	2.0
28.803	6.0
28.818	15.0
28.833	12.0
28.848	15.0
28.863	11.0
28.878	6.0
28.893	11.0
28.908	6.0
28.922	8.0
28.937	13.0
28.952	16.0
28.967	12.0
28.982	17.0
28.997	5.0
29.012	15.0
29.027	13.0
29.041	5.0
29.056	18.0
29.071	12.0
29.086	6.0
29.101	14.0
29.116	13.0
29.131	26.0
29.146	7.0
29.16	12.0
29.175	17.0
29.19	13.0
29.205	13.0
29.22	9.0
29.235	8.0
29.25	12.0
29.265	15.0
29.279	11.0
29.294	10.0
29.309	10.0
29.324	10.0
29.339	14.0
29.354	15.0
29.369	23.0
29.384	12.0
29.398	22.0
29.413	17.0
29.428	15.0
29.443	14.0
29.458	21.0
29.473	29.0
29.488	21.0
29.502	32.0
29.517	29.0
29.532	25.0
29.547	44.0
29.562	35.0
29.577	50.0
29.592	52.0
29.606	45.0
29.621	60.0
29.636	45.0
29.651	53.0
29.666	49.0
29.681	45.0
29.695	42.0
29.71	33.0
29.725	30.0
29.74	42.0
29.755	33.0
29.77	35.0
29.784	35.0
29.799	30.0
29.814	27.0
29.829	28.0
29.844	21.0
29.859	22.0
29.873	19.0
29.888	21.0
29.903	13.0
29.918	15.0
29.933	16.0
29.947	16.0
29.962	8.0
29.977	10.0
29.992	10.0
30.007	5.0
30.021	10.0
30.036	11.0
30.051	9.0
30.066	12.0
30.081	16.0
30.095	10.0
30.11	12.0
30.125	6.0
30.14	8.0
30.155	16.0
30.169	7.0
30.184	10.0
30.199	14.0
30.214	13.0
30.228	10.0
30.243	13.0
30.258	8.0
30.273	9.0
30.288	10.0
30.302	10.0
30.317	8.0
30.332	16.0
30.347	12.0
30.361	19.0
30.376	11.0
30.391	10.0
30.406	12.0
30.42	11.0
30.435	7.0
30.45	9.0
30.465	9.0
30.479	11.0
30.494	9.0
30.509	13.0
30.524	11.0
30.538	8.0
30.553	13.0
30.568	7.0
30.583	10.0
30.597	10.0
30.612	9.0
30.627	9.0
30.641	10.0
30.656	10.0
30.671	7.0
30.686	9.0
30.7	12.0
30.715	7.0
30.73	10.0
30.745	5.0
30.759	9.0
30.774	15.0
30.789	9.0
30.803	9.0
30.818	10.0
30.833	9.0
30.848	6.0
30.862	13.0
30.877	8.0
30.892	16.0
30.906	12.0
30.921	9.0
30.936	10.0
30.951	17.0
30.965	10.0
30.98	22.0
30.995	10.0
31.009	7.0
31.024	12.0
31.039	7.0
31.053	14.0
31.068	18.0
31.083	17.0
31.098	19.0
31.112	19.0
31.127	22.0
31.142	18.0
31.156	18.0
31.171	33.0
31.186	22.0
31.2	27.0
31.215	32.0
31.23	29.0
31.245	33.0
31.259	43.0
31.274	34.0
31.289	45.0
31.303	34.0
31.318	37.0
31.333	30.0
31.347	33.0
31.362	33.0
31.377	30.0
31.392	36.0
31.406	29.0
31.421	27.0
31.436	31.0
31.45	27.0
31.465	24.0
31.48	19.0
31.494	16.0
31.509	12.0
31.524	10.0
31.538	15.0
31.553	20.0
31.568	11.0
31.583	12.0
31.597	7.0
31.612	12.0
31.627	9.0
31.641	12.0
31.656	9.0
31.671	19.0
31.685	11.0
31.7	8.0
31.715	14.0
31.729	15.0
31.744	9.0
31.759	13.0
31.774	14.0
31.788	7.0
31.803	9.0
31.818	16.0
31.832	11.0
31.847	9.0
31.862	9.0
31.876	14.0
31.891	13.0
31.906	17.0
31.92	11.0
31.935	12.0
31.95	10.0
31.965	8.0
31.979	7.0
31.994	14.0
32.009	6.0
32.023	11.0
32.038	8.0
32.053	11.0
32.067	8.0
32.082	4.0
32.097	16.0
32.112	11.0
32.126	12.0
32.141	16.0
32.156	6.0
32.17	10.0
32.185	20.0
32.2	11.0
32.214	14.0
32.229	6.0
32.244	11.0
32.259	13.0
32.273	15.0
32.288	7.0
32.303	10.0
32.317	3.0
32.332	3.0
32.347	9.0
32.362	13.0
32.376	13.0
32.391	8.0
32.406	15.0
32.42	6.0
32.435	6.0
32.45	7.0
32.465	12.0
32.479	7.0
32.494	14.0
32.509	12.0
32.523	17.0
32.538	16.0
32.553	9.0
32.568	18.0
32.582	12.0
32.597	13.0
32.612	12.0
32.627	6.0
32.641	17.0
32.656	6.0
32.671	13.0
32.685	11.0
32.7	9.0
32.715	20.0
32.73	16.0
32.744	19.0
32.759	20.0
32.774	20.0
32.788	28.0
32.803	22.0
32.818	27.0
32.833	18.0
32.847	27.0
32.862	24.0
32.877	31.0
32.892	15.0
32.906	22.0
32.921	27.0
32.936	13.0
32.951	16.0
32.965	19.0
32.98	20.0
32.995	17.0
33.009	29.0
33.024	24.0
33.039	17.0
33.054	20.0
33.068	10.0
33.083	10.0
33.098	20.0
33.113	7.0
33.127	16.0
33.142	20.0
33.157	12.0
33.172	12.0
33.186	9.0
33.201	9.0
33.216	9.0
33.231	7.0
33.245	11.0
33.26	5.0
33.275	8.0
33.29	15.0
33.304	14.0
33.319	9.0
33.334	10.0
33.349	8.0
33.363	13.0
33.378	9.0
33.393	12.0
33.408	13.0
33.422	8.0
33.437	10.0
33.452	7.0
33.467	10.0
33.481	14.0
33.496	8.0
33.511	12.0
33.526	5.0
33.54	11.0
33.555	12.0
33.57	6.0
33.585	10.0
33.599	9.0
33.614	8.0
33.629	8.0
33.644	14.0
33.658	12.0
33.673	11.0
33.688	11.0
33.703	13.0
33.718	13.0
33.732	5.0
33.747	8.0
33.762	5.0
33.777	6.0
33.791	9.0
33.806	10.0
33.821	11.0
33.836	10.0
33.85	7.0
33.865	11.0
33.88	10.0
33.895	6.0
33.91	11.0
33.924	9.0
33.939	6.0
33.954	7.0
33.969	5.0
33.983	5.0
33.998	7.0
34.013	7.0
34.028	5.0
34.042	12.0
34.057	10.0
34.072	6.0
34.087	13.0
34.102	8.0
34.116	15.0
34.131	11.0
34.146	11.0
34.161	9.0
34.175	14.0
34.19	10.0
34.205	14.0
34.22	14.0
34.235	13.0
34.249	12.0
34.264	18.0
34.279	10.0
34.294	14.0
34.309	12.0
34.323	12.0
34.338	10.0
34.353	20.0
34.368	13.0
34.382	15.0
34.397	12.0
34.412	9.0
34.427	17.0
34.442	10.0
34.456	20.0
34.471	13.0
34.486	12.0
34.501	11.0
34.516	10.0
34.53	12.0
34.545	18.0
34.56	12.0
34.575	7.0
34.59	14.0
34.604	10.0
34.619	7.0
34.634	10.0
34.649	7.0
34.664	7.0
34.678	8.0
34.693	14.0
34.708	14.0
34.723	7.0
34.738	9.0
34.752	11.0
34.767	9.0
34.782	9.0
34.797	11.0
34.812	8.0
34.826	10.0
34.841	7.0
34.856	7.0
34.871	14.0
34.886	4.0
34.9	7.0
34.915	7.0
34.93	11.0
34.945	7.0
34.96	8.0
34.974	6.0
34.989	15.0
35.004	8.0
35.019	9.0
35.034	10.0
35.048	10.0
35.063	10.0
35.078	15.0
35.093	9.0
35.108	11.0
35.122	8.0
35.137	8.0
35.152	5.0
35.167	9.0
35.182	5.0
35.196	7.0
35.211	11.0
35.226	4.0
35.241	5.0
35.256	12.0
35.27	6.0
35.285	3.0
35.3	12.0
35.315	6.0
35.33	9.0
35.344	9.0
35.359	4.0
35.374	10.0
35.389	9.0
35.404	11.0
35.418	11.0
35.433	6.0
35.448	9.0
35.463	4.0
35.478	7.0
35.493	9.0
35.507	12.0
35.522	11.0
35.537	14.0
35.552	9.0
35.567	13.0
35.581	17.0
35.596	13.0
35.611	13.0
35.626	11.0
35.641	11.0
35.655	14.0
35.67	12.0
35.685	13.0
35.7	17.0
35.715	17.0
35.729	20.0
35.744	13.0
35.759	20.0
35.774	15.0
35.789	17.0
35.804	20.0
35.818	19.0
35.833	23.0
35.848	21.0
35.863	14.0
35.878	11.0
35.892	9.0
35.907	13.0
35.922	18.0
35.937	18.0
35.952	9.0
35.966	9.0
35.981	11.0
35.996	15.0
36.011	8.0
36.026	19.0
36.04	10.0
36.055	11.0
36.07	14.0
36.085	11.0
36.1	11.0
36.114	4.0
36.129	10.0
36.144	8.0
36.159	7.0
36.174	6.0
36.189	9.0
36.203	2.0
36.218	11.0
36.233	11.0
36.248	14.0
36.263	11.0
36.277	7.0
36.292	8.0
36.307	8.0
36.322	9.0
36.337	7.0
36.351	9.0
36.366	10.0
36.381	9.0
36.396	13.0
36.411	7.0
36.426	7.0
36.44	5.0
36.455	9.0
36.47	8.0
36.485	14.0
36.5	11.0
36.514	6.0
36.529	6.0
36.544	10.0
36.559	9.0
36.574	3.0
36.589	13.0
36.603	8.0
36.618	19.0
36.633	9.0
36.648	9.0
36.663	14.0
36.677	9.0
36.692	7.0
36.707	8.0
36.722	7.0
36.737	4.0
36.752	10.0
36.766	10.0
36.781	17.0
36.796	6.0
36.811	9.0
36.826	11.0
36.841	7.0
36.855	14.0
36.87	8.0
36.885	5.0
36.9	8.0
36.915	11.0
36.93	15.0
36.944	6.0
36.959	5.0
36.974	11.0
36.989	12.0
37.004	13.0
37.019	13.0
37.033	10.0
37.048	8.0
37.063	16.0
37.078	23.0
37.093	22.0
37.108	18.0
37.123	17.0
37.137	29.0
37.152	21.0
37.167	32.0
37.182	31.0
37.197	38.0
37.212	30.0
37.226	26.0
37.241	31.0
37.256	23.0
37.271	22.0
37.286	20.0
37.301	19.0
37.316	8.0
37.331	11.0
37.345	15.0
37.36	21.0
37.375	20.0
37.39	16.0
37.405	22.0
37.42	20.0
37.435	20.0
37.45	25.0
37.464	13.0
37.479	16.0
37.494	11.0
37.509	8.0
37.524	7.0
37.539	7.0
37.554	8.0
37.569	13.0
37.583	5.0
37.598	3.0
37.613	10.0
37.628	5.0
37.643	5.0
37.658	9.0
37.673	6.0
37.688	7.0
37.703	10.0
37.718	6.0
37.733	3.0
37.747	11.0
37.762	7.0
37.777	5.0
37.792	8.0
37.807	8.0
37.822	8.0
37.837	8.0
37.852	4.0
37.867	8.0
37.882	9.0
37.897	7.0
37.912	5.0
37.927	3.0
37.941	4.0
37.956	3.0
37.971	9.0
37.986	10.0
38.001	5.0
38.016	7.0
38.031	5.0
38.046	5.0
38.061	6.0
38.076	5.0
38.091	8.0
38.106	8.0
38.121	7.0
38.136	7.0
38.151	8.0
38.166	5.0
38.181	7.0
38.196	4.0
38.211	7.0
38.226	8.0
38.241	8.0
38.256	6.0
38.271	6.0
38.285	11.0
38.3	9.0
38.315	5.0
38.33	4.0
38.345	4.0
38.36	5.0
38.375	6.0
38.39	11.0
38.405	5.0
38.42	11.0
38.435	5.0
38.45	11.0
38.465	5.0
38.48	7.0
38.495	3.0
38.51	9.0
38.525	4.0
38.54	7.0
38.555	4.0
38.57	7.0
38.585	8.0
38.6	8.0
38.615	5.0
38.63	9.0
38.645	11.0
38.66	7.0
38.675	6.0
38.69	6.0
38.705	4.0
38.72	10.0
38.735	5.0
38.75	9.0
38.765	9.0
38.78	3.0
38.795	10.0
38.81	5.0
38.825	6.0
38.84	4.0
38.855	10.0
38.87	4.0
38.885	6.0
38.9	3.0
38.915	5.0
38.93	2.0
38.945	4.0
38.96	7.0
38.975	9.0
38.99	7.0
39.005	3.0
39.02	5.0
39.035	6.0
39.05	6.0
39.065	4.0
39.08	5.0
39.095	4.0
39.11	6.0
39.125	4.0
39.14	7.0
39.155	9.0
39.17	2.0
39.185	6.0
39.2	6.0
39.215	6.0
39.23	3.0
39.245	7.0
39.26	9.0
39.275	7.0
39.29	9.0
39.305	9.0
39.32	10.0
39.335	6.0
39.35	5.0
39.365	6.0
39.38	5.0
39.395	6.0
39.409	7.0
39.424	8.0
39.439	2.0
39.454	4.0
39.469	9.0
39.484	1.0
39.499	9.0
39.514	3.0
39.529	6.0
39.544	4.0
39.559	7.0
39.574	5.0
39.589	6.0
39.604	12.0
39.619	5.0
39.634	3.0
39.649	5.0
39.664	6.0
39.678	3.0
39.693	2.0
39.708	5.0
39.723	8.0
39.738	9.0
39.753	11.0
39.768	10.0
39.783	10.0
39.798	9.0
39.813	8.0
39.827	9.0
39.842	10.0
39.857	8.0
39.872	14.0
39.887	8.0
39.902	8.0
39.917	7.0
39.932	8.0
39.947	9.0
39.961	12.0
39.976	7.0
39.991	8.0
40.006	9.0
40.021	3.0
40.036	8.0
40.051	7.0
40.065	12.0
40.08	6.0
40.095	6.0
40.11	8.0
40.125	5.0
40.14	5.0
40.154	12.0
40.169	6.0
40.184	9.0
40.199	10.0
40.214	7.0
40.228	3.0
40.243	7.0
40.258	9.0
40.273	6.0
40.288	6.0
40.302	4.0
40.317	5.0
40.332	4.0
40.347	4.0
40.362	5.0
40.376	3.0
40.391	4.0
40.406	7.0
40.421	5.0
40.436	3.0
40.45	4.0
40.465	4.0
40.48	12.0
40.495	4.0
40.509	11.0
40.524	4.0
40.539	2.0
40.554	4.0
40.568	4.0
40.583	8.0
40.598	6.0
40.613	5.0
40.627	4.0
40.642	4.0
40.657	6.0
40.672	6.0
40.686	4.0
40.701	5.0
40.716	5.0
40.731	2.0
40.745	3.0
40.76	11.0
40.775	5.0
40.79	8.0
40.804	9.0
40.819	10.0
40.834	3.0
40.849	5.0
40.863	5.0
40.878	8.0
40.893	7.0
40.907	3.0
40.922	5.0
40.937	5.0
40.952	9.0
40.966	10.0
40.981	11.0
40.996	14.0
41.011	9.0
41.025	8.0
41.04	11.0
41.055	18.0
41.069	16.0
41.084	17.0
41.099	23.0
41.114	22.0
41.128	19.0
41.143	25.0
41.158	21.0
41.173	23.0
41.187	15.0
41.202	19.0
41.217	14.0
41.231	18.0
41.246	13.0
41.261	8.0
41.276	10.0
41.29	12.0
41.305	4.0
41.32	22.0
41.335	13.0
41.349	13.0
41.364	17.0
41.379	12.0
41.393	9.0
41.408	15.0
41.423	19.0
41.438	14.0
41.452	11.0
41.467	18.0
41.482	12.0
41.497	9.0
41.511	8.0
41.526	8.0
41.541	4.0
41.556	6.0
41.57	11.0
41.585	3.0
41.6	3.0
41.615	12.0
41.629	9.0
41.644	4.0
41.659	8.0
41.674	5.0
41.688	5.0
41.703	4.0
41.718	3.0
41.733	5.0
41.747	3.0
41.762	2.0
41.777	9.0
41.792	5.0
41.806	10.0
41.821	6.0
41.836	8.0
41.851	5.0
41.866	3.0
41.88	4.0
41.895	2.0
41.91	8.0
41.925	4.0
41.939	6.0
41.954	3.0
41.969	2.0
41.984	1.0
41.999	3.0
42.013	7.0
42.028	5.0
42.043	5.0
42.058	13.0
42.073	9.0
42.088	6.0
42.102	5.0
42.117	6.0
42.132	3.0
42.147	4.0
42.162	7.0
42.176	7.0
42.191	9.0
42.206	9.0
42.221	4.0
42.236	6.0
42.251	9.0
42.266	10.0
42.28	9.0
42.295	11.0
42.31	15.0
42.325	14.0
42.34	12.0
42.355	16.0
42.369	16.0
42.384	13.0
42.399	18.0
42.414	9.0
42.429	16.0
42.444	21.0
42.459	12.0
42.474	20.0
42.488	6.0
42.503	15.0
42.518	16.0
42.533	10.0
42.548	4.0
42.563	9.0
42.578	6.0
42.593	7.0
42.608	16.0
42.622	16.0
42.637	10.0
42.652	10.0
42.667	13.0
42.682	14.0
42.697	13.0
42.712	13.0
42.727	12.0
42.742	10.0
42.757	6.0
42.772	4.0
42.786	8.0
42.801	7.0
42.816	7.0
42.831	3.0
42.846	4.0
42.861	7.0
42.876	5.0
42.891	8.0
42.906	8.0
42.921	8.0
42.936	5.0
42.951	6.0
42.966	5.0
42.981	5.0
42.996	10.0
43.011	7.0
43.025	5.0
43.04	6.0
43.055	3.0
43.07	5.0
43.085	6.0
43.1	6.0
43.115	2.0
43.13	6.0
43.145	6.0
43.16	3.0
43.175	4.0
43.19	7.0
43.205	5.0
43.22	4.0
43.235	7.0
43.25	2.0
43.265	3.0
43.28	7.0
43.295	5.0
43.31	6.0
43.325	3.0
43.34	11.0
43.355	4.0
43.37	2.0
43.385	3.0
43.4	2.0
43.415	5.0
43.43	5.0
43.445	9.0
43.46	5.0
43.475	5.0
43.49	4.0
43.505	8.0
43.52	9.0
43.535	11.0
43.55	10.0
43.565	6.0
43.58	14.0
43.595	5.0
43.61	11.0
43.625	12.0
43.64	12.0
43.655	14.0
43.67	9.0
43.685	10.0
43.7	6.0
43.715	9.0
43.73	6.0
43.745	9.0
43.76	3.0
43.775	8.0
43.79	9.0
43.805	6.0
43.82	11.0
43.835	4.0
43.85	6.0
43.865	8.0
43.88	7.0
43.895	9.0
43.91	12.0
43.925	3.0
43.94	10.0
43.955	5.0
43.97	5.0
43.985	2.0
44.0	6.0
44.015	9.0
44.03	9.0
44.045	4.0
44.061	10.0
44.076	4.0
44.091	5.0
44.106	2.0
44.121	6.0
44.136	5.0
44.151	3.0
44.166	5.0
44.181	5.0
44.196	6.0
44.211	4.0
44.226	4.0
44.241	6.0
44.256	2.0
44.271	1.0
44.286	6.0
44.301	5.0
44.316	2.0
44.331	3.0
44.346	4.0
44.361	2.0
44.377	8.0
44.392	6.0
44.407	1.0
44.422	8.0
44.437	6.0
44.452	16.0
44.467	4.0
44.482	2.0
44.497	5.0
44.512	3.0
44.527	5.0
44.542	8.0
44.557	1.0
44.572	4.0
44.587	3.0
44.602	5.0
44.617	3.0
44.632	8.0
44.647	8.0
44.663	8.0
44.678	7.0
44.693	7.0
44.708	9.0
44.723	8.0
44.738	9.0
44.753	7.0
44.768	8.0
44.783	12.0
44.798	12.0
44.813	13.0
44.828	6.0
44.843	9.0
44.858	8.0
44.873	7.0
44.888	4.0
44.903	6.0
44.918	9.0
44.933	9.0
44.948	3.0
44.964	7.0
44.979	9.0
44.994	4.0
45.009	3.0
45.024	7.0
45.039	8.0
45.054	7.0
45.069	4.0
45.084	10.0
45.099	3.0
45.114	12.0
45.129	9.0
45.144	6.0
45.159	10.0
45.174	8.0
45.189	3.0
45.204	3.0
45.219	4.0
45.234	5.0
45.249	2.0
45.264	12.0
45.279	3.0
45.294	7.0
45.309	7.0
45.324	4.0
45.339	3.0
45.354	7.0
45.369	3.0
45.384	4.0
45.399	6.0
45.414	8.0
45.429	3.0
45.444	6.0
45.459	6.0
45.474	4.0
45.489	12.0
45.504	3.0
45.519	7.0
45.534	4.0
45.549	3.0
45.564	5.0
45.579	7.0
45.594	5.0
45.609	7.0
45.624	4.0
45.639	5.0
45.654	4.0
45.669	3.0
45.684	7.0
45.699	5.0
45.714	3.0
45.729	6.0
45.744	5.0
45.759	5.0
45.774	5.0
45.789	2.0
45.804	7.0
45.819	7.0
45.834	7.0
45.849	4.0
45.864	16.0
45.879	13.0
45.894	13.0
45.909	9.0
45.924	13.0
45.939	20.0
45.954	14.0
45.969	13.0
45.984	21.0
45.998	14.0
46.013	14.0
46.028	16.0
46.043	9.0
46.058	10.0
46.073	7.0
46.088	12.0
46.103	9.0
46.118	5.0
46.133	12.0
46.148	14.0
46.163	7.0
46.178	5.0
46.192	9.0
46.207	7.0
46.222	10.0
46.237	14.0
46.252	9.0
46.267	11.0
46.282	11.0
46.297	8.0
46.312	11.0
46.327	12.0
46.341	7.0
46.356	10.0
46.371	10.0
46.386	6.0
46.401	5.0
46.416	3.0
46.431	8.0
46.446	5.0
46.46	4.0
46.475	4.0
46.49	6.0
46.505	3.0
46.52	9.0
46.535	4.0
46.55	4.0
46.564	3.0
46.579	2.0
46.594	1.0
46.609	3.0
46.624	5.0
46.639	4.0
46.654	6.0
46.668	3.0
46.683	8.0
46.698	4.0
46.713	4.0
46.728	5.0
46.743	5.0
46.758	4.0
46.772	4.0
46.787	4.0
46.802	6.0
46.817	6.0
46.832	5.0
46.847	2.0
46.861	9.0
46.876	5.0
46.891	6.0
46.906	10.0
46.921	6.0
46.936	6.0
46.95	3.0
46.965	2.0
46.98	6.0
46.995	2.0
47.01	11.0
47.025	4.0
47.039	6.0
47.054	5.0
47.069	7.0
47.084	5.0
47.099	5.0
47.113	10.0
47.128	6.0
47.143	15.0
47.158	7.0
47.173	8.0
47.188	12.0
47.202	7.0
47.217	4.0
47.232	10.0
47.247	9.0
47.262	3.0
47.277	6.0
47.291	7.0
47.306	8.0
47.321	5.0
47.336	4.0
47.351	5.0
47.365	6.0
47.38	3.0
47.395	9.0
47.41	10.0
47.425	9.0
47.44	6.0
47.454	5.0
47.469	10.0
47.484	11.0
47.499	3.0
47.514	6.0
47.528	7.0
47.543	6.0
47.558	2.0
47.573	5.0
47.588	3.0
47.603	5.0
47.617	6.0
47.632	3.0
47.647	3.0
47.662	6.0
47.677	4.0
47.691	4.0
47.706	2.0
47.721	6.0
47.736	6.0
47.751	2.0
47.766	6.0
47.78	2.0
47.795	3.0
47.81	5.0
47.825	2.0
47.84	4.0
47.855	6.0
47.869	7.0
47.884	4.0
47.899	6.0
47.914	4.0
47.929	5.0
47.944	5.0
47.958	4.0
47.973	8.0
47.988	7.0
48.003	4.0
48.018	5.0
48.033	2.0
48.047	2.0
48.062	5.0
48.077	4.0
48.092	4.0
48.107	5.0
48.122	2.0
48.137	5.0
48.151	9.0
48.166	7.0
48.181	5.0
48.196	1.0
48.211	10.0
48.226	8.0
48.241	7.0
48.255	2.0
48.27	3.0
48.285	2.0
48.3	3.0
48.315	1.0
48.33	5.0
48.345	5.0
48.359	2.0
48.374	5.0
48.389	8.0
48.404	2.0
48.419	4.0
48.434	2.0
48.449	2.0
48.464	8.0
48.478	4.0
48.493	9.0
48.508	2.0
48.523	5.0
48.538	5.0
48.553	9.0
48.568	7.0
48.583	3.0
48.597	5.0
48.612	3.0
48.627	7.0
48.642	3.0
48.657	4.0
48.672	2.0
48.687	2.0
48.702	5.0
48.717	1.0
48.731	6.0
48.746	4.0
48.761	8.0
48.776	3.0
48.791	8.0
48.806	8.0
48.821	4.0
48.836	5.0
48.851	5.0
48.866	6.0
48.88	5.0
48.895	6.0
48.91	5.0
48.925	5.0
48.94	5.0
48.955	4.0
48.97	5.0
48.985	4.0
49.0	4.0
49.015	6.0
49.03	2.0
49.044	3.0
49.059	8.0
49.074	4.0
49.089	4.0
49.104	4.0
49.119	6.0
49.134	5.0
49.149	6.0
49.164	6.0
49.179	9.0
49.194	4.0
49.209	8.0
49.224	7.0
49.238	7.0
49.253	10.0
49.268	8.0
49.283	4.0
49.298	2.0
49.313	5.0
49.328	6.0
49.343	5.0
49.358	7.0
49.373	7.0
49.388	7.0
49.403	11.0
49.418	9.0
49.433	6.0
49.448	3.0
49.463	6.0
49.478	5.0
49.492	2.0
49.507	4.0
49.522	5.0
49.537	7.0
49.552	4.0
49.567	9.0
49.582	4.0
49.597	5.0
49.612	3.0
49.627	1.0
49.642	7.0
49.657	8.0
49.672	6.0
49.687	9.0
49.702	10.0
49.717	3.0
49.732	3.0
49.747	5.0
49.762	4.0
49.777	5.0
49.792	4.0
49.807	4.0
49.822	6.0
49.837	2.0
49.852	3.0
49.867	5.0
49.882	8.0
49.897	5.0
49.912	0.0
49.927	7.0
49.942	6.0
49.957	7.0
49.971	2.0
49.986	8.0
50.001	5.0
50.016	6.0
50.031	6.0
50.046	4.0
50.061	4.0
50.076	4.0
50.091	4.0
50.106	5.0
50.121	5.0
50.136	7.0
50.151	3.0
50.166	7.0
50.181	6.0
50.196	4.0
50.211	4.0
50.226	3.0
50.241	7.0
50.256	3.0
50.271	9.0
50.286	4.0
50.302	2.0
50.317	7.0
50.332	6.0
50.347	4.0
50.362	5.0
50.377	8.0
50.392	5.0
50.407	6.0
50.422	5.0
50.437	8.0
50.452	7.0
50.467	9.0
50.482	4.0
50.497	11.0
50.512	6.0
50.527	13.0
50.542	7.0
50.557	6.0
50.572	4.0
50.587	6.0
50.602	6.0
50.617	5.0
50.632	8.0
50.647	2.0
50.662	5.0
50.677	4.0
50.692	9.0
50.707	3.0
50.722	7.0
50.737	4.0
50.752	8.0
50.767	4.0
50.782	13.0
50.797	4.0
50.812	11.0
50.828	4.0
50.843	3.0
50.858	7.0
50.873	10.0
50.888	5.0
50.903	6.0
50.918	7.0
50.933	7.0
50.948	4.0
50.963	3.0
50.978	8.0
50.993	11.0
51.008	2.0
51.023	1.0
51.038	6.0
51.053	9.0
51.068	6.0
51.083	6.0
51.098	7.0
51.114	5.0
51.129	8.0
51.144	2.0
51.159	5.0
51.174	7.0
51.189	4.0
51.204	3.0
51.219	5.0
51.234	8.0
51.249	6.0
51.264	2.0
51.279	4.0
51.294	7.0
51.309	2.0
51.324	2.0
51.34	6.0
51.355	7.0
51.37	9.0
51.385	4.0
51.4	13.0
51.415	5.0
51.43	16.0
51.445	10.0
51.46	15.0
51.475	9.0
51.49	16.0
51.505	15.0
51.52	11.0
51.535	16.0
51.551	20.0
51.566	16.0
51.581	13.0
51.596	14.0
51.611	10.0
51.626	9.0
51.641	7.0
51.656	8.0
51.671	3.0
51.686	6.0
51.701	5.0
51.716	9.0
51.732	5.0
51.747	8.0
51.762	7.0
51.777	6.0
51.792	12.0
51.807	8.0
51.822	11.0
51.837	14.0
51.852	10.0
51.867	11.0
51.882	8.0
51.898	6.0
51.913	14.0
51.928	9.0
51.943	7.0
51.958	7.0
51.973	7.0
51.988	5.0
52.003	4.0
52.018	3.0
52.033	7.0
52.048	6.0
52.064	7.0
52.079	7.0
52.094	2.0
52.109	4.0
52.124	6.0
52.139	6.0
52.154	3.0
52.169	4.0
52.184	4.0
52.199	5.0
52.215	5.0
52.23	8.0
52.245	2.0
52.26	3.0
52.275	5.0
52.29	3.0
52.305	9.0
52.32	1.0
52.335	5.0
52.35	5.0
52.366	3.0
52.381	4.0
52.396	6.0
52.411	9.0
52.426	5.0
52.441	8.0
52.456	7.0
52.471	3.0
52.486	8.0
52.502	6.0
52.517	8.0
52.532	9.0
52.547	8.0
52.562	6.0
52.577	8.0
52.592	6.0
52.607	11.0
52.622	18.0
52.637	6.0
52.653	6.0
52.668	11.0
52.683	5.0
52.698	6.0
52.713	7.0
52.728	7.0
52.743	2.0
52.758	3.0
52.774	4.0
52.789	3.0
52.804	2.0
52.819	5.0
52.834	3.0
52.849	7.0
52.864	5.0
52.879	5.0
52.894	9.0
52.91	7.0
52.925	8.0
52.94	6.0
52.955	3.0
52.97	4.0
52.985	9.0
53.0	1.0
53.015	7.0
53.031	6.0
53.046	4.0
53.061	7.0
53.076	2.0
53.091	4.0
53.106	6.0
53.121	5.0
53.136	4.0
53.152	7.0
53.167	3.0
53.182	5.0
53.197	7.0
53.212	1.0
53.227	6.0
53.242	4.0
53.257	5.0
53.273	2.0
53.288	2.0
53.303	9.0
53.318	9.0
53.333	6.0
53.348	2.0
53.363	10.0
53.379	5.0
53.394	1.0
53.409	4.0
53.424	1.0
53.439	3.0
53.454	4.0
53.469	6.0
53.484	5.0
53.5	4.0
53.515	7.0
53.53	7.0
53.545	3.0
53.56	4.0
53.575	1.0
53.59	2.0
53.606	11.0
53.621	9.0
53.636	5.0
53.651	4.0
53.666	4.0
53.681	5.0
53.696	5.0
53.712	3.0
53.727	3.0
53.742	8.0
53.757	3.0
53.772	3.0
53.787	8.0
53.802	6.0
53.818	7.0
53.833	7.0
53.848	6.0
53.863	4.0
53.878	5.0
53.893	6.0
53.909	2.0
53.924	3.0
53.939	4.0
53.954	1.0
53.969	2.0
53.984	5.0
53.999	3.0
54.015	3.0
54.03	1.0
54.045	4.0
54.06	3.0
54.075	5.0
54.09	4.0
54.106	5.0
54.121	4.0
54.136	4.0
54.151	10.0
54.166	4.0
54.181	5.0
54.197	4.0
54.212	3.0
54.227	7.0
54.242	6.0
54.257	4.0
54.272	4.0
54.288	6.0
54.303	7.0
54.318	1.0
54.333	2.0
54.348	4.0
54.363	7.0
54.379	3.0
54.394	4.0
54.409	3.0
54.424	6.0
54.439	4.0
54.454	3.0
54.47	2.0
54.485	2.0
54.5	8.0
54.515	8.0
54.53	6.0
54.545	9.0
54.561	6.0
54.576	6.0
54.591	9.0
54.606	8.0
54.621	7.0
54.636	10.0
54.652	15.0
54.667	12.0
54.682	9.0
54.697	16.0
54.712	13.0
54.727	14.0
54.743	5.0
54.758	11.0
54.773	6.0
54.788	4.0
54.803	2.0
54.819	7.0
54.834	3.0
54.849	11.0
54.864	8.0
54.879	4.0
54.894	6.0
54.91	6.0
54.925	5.0
54.94	8.0
54.955	7.0
54.97	9.0
54.985	12.0
55.001	12.0
55.016	9.0
55.031	14.0
55.046	9.0
55.061	5.0
55.077	3.0
55.092	4.0
55.107	3.0
55.122	6.0
55.137	5.0
55.152	6.0
55.168	3.0
55.183	5.0
55.198	7.0
55.213	5.0
55.228	3.0
55.243	4.0
55.259	6.0
55.274	6.0
55.289	1.0
55.304	5.0
55.319	3.0
55.335	0.0
55.35	6.0
55.365	6.0
55.38	7.0
55.395	2.0
55.41	3.0
55.426	1.0
55.441	5.0
55.456	6.0
55.471	3.0
55.486	3.0
55.501	4.0
55.517	6.0
55.532	8.0
55.547	3.0
55.562	3.0
55.577	9.0
55.592	4.0
55.608	3.0
55.623	5.0
55.638	7.0
55.653	6.0
55.668	8.0
55.683	4.0
55.699	8.0
55.714	11.0
55.729	6.0
55.744	6.0
55.759	10.0
55.774	4.0
55.79	2.0
55.805	5.0
55.82	2.0
55.835	5.0
55.85	6.0
55.865	7.0
55.881	4.0
55.896	5.0
55.911	3.0
55.926	2.0
55.941	4.0
55.956	4.0
55.972	7.0
55.987	8.0
56.002	7.0
56.017	6.0
56.032	6.0
56.047	4.0
56.063	4.0
56.078	6.0
56.093	8.0
56.108	5.0
56.123	3.0
56.138	6.0
56.154	5.0
56.169	4.0
56.184	13.0
56.199	2.0
56.214	5.0
56.229	4.0
56.244	1.0
56.26	3.0
56.275	3.0
56.29	5.0
56.305	6.0
56.32	4.0
56.335	4.0
56.351	3.0
56.366	4.0
56.381	3.0
56.396	2.0
56.411	6.0
56.426	5.0
56.441	2.0
56.457	3.0
56.472	5.0
56.487	4.0
56.502	3.0
56.517	2.0
56.532	9.0
56.547	5.0
56.563	4.0
56.578	5.0
56.593	5.0
56.608	6.0
56.623	5.0
56.638	7.0
56.653	3.0
56.668	4.0
56.684	6.0
56.699	2.0
56.714	5.0
56.729	6.0
56.744	4.0
56.759	6.0
56.774	2.0
56.79	5.0
56.805	3.0
56.82	3.0
56.835	12.0
56.85	1.0
56.865	4.0
56.88	5.0
56.895	8.0
56.911	7.0
56.926	3.0
56.941	3.0
56.956	4.0
56.971	7.0
56.986	6.0
57.001	4.0
57.016	5.0
57.031	4.0
57.047	5.0
57.062	2.0
57.077	6.0
57.092	2.0
57.107	5.0
57.122	2.0
57.137	7.0
57.152	5.0
57.167	4.0
57.183	2.0
57.198	2.0
57.213	6.0
57.228	5.0
57.243	4.0
57.258	2.0
57.273	8.0
57.288	5.0
57.303	4.0
57.318	3.0
57.334	4.0
57.349	6.0
57.364	5.0
57.379	12.0
57.394	3.0
57.409	5.0
57.424	4.0
57.439	5.0
57.454	3.0
57.469	1.0
57.484	0.0
57.5	4.0
57.515	2.0
57.53	7.0
57.545	4.0
57.56	8.0
57.575	2.0
57.59	5.0
57.605	5.0
57.62	1.0
57.635	7.0
57.65	6.0
57.665	6.0
57.68	4.0
57.696	5.0
57.711	2.0
57.726	7.0
57.741	2.0
57.756	3.0
57.771	0.0
57.786	0.0
57.801	4.0
57.816	8.0
57.831	1.0
57.846	4.0
57.861	1.0
57.876	4.0
57.891	3.0
57.906	8.0
57.921	3.0
57.937	7.0
57.952	5.0
57.967	6.0
57.982	6.0
57.997	6.0
58.012	7.0
58.027	4.0
58.042	6.0
58.057	3.0
58.072	8.0
58.087	4.0
58.102	5.0
58.117	5.0
58.132	4.0
58.147	2.0
58.162	2.0
58.177	5.0
58.192	4.0
58.207	3.0
58.222	3.0
58.237	11.0
58.252	1.0
58.267	5.0
58.282	3.0
58.297	4.0
58.312	7.0
58.327	7.0
58.342	4.0
58.357	2.0
58.372	6.0
58.387	1.0
58.402	5.0
58.418	3.0
58.433	7.0
58.448	5.0
58.463	0.0
58.478	5.0
58.493	1.0
58.508	1.0
58.523	3.0
58.538	3.0
58.553	5.0
58.568	5.0
58.583	6.0
58.598	9.0
58.613	8.0
58.628	9.0
58.643	9.0
58.658	12.0
58.673	12.0
58.688	5.0
58.703	11.0
58.718	8.0
58.733	4.0
58.748	10.0
58.763	8.0
58.778	5.0
58.793	10.0
58.808	3.0
58.823	5.0
58.838	7.0
58.853	3.0
58.868	4.0
58.883	5.0
58.898	3.0
58.913	5.0
58.928	5.0
58.942	2.0
58.957	3.0
58.972	7.0
58.987	8.0
59.002	4.0
59.017	8.0
59.032	9.0
59.047	6.0
59.062	5.0
59.077	9.0
59.092	8.0
59.107	8.0
59.122	7.0
59.137	5.0
59.152	4.0
59.167	2.0
59.182	3.0
59.197	4.0
59.212	3.0
59.227	5.0
59.242	8.0
59.257	4.0
59.272	3.0
59.287	7.0
59.302	6.0
59.317	3.0
59.332	3.0
59.347	6.0
59.362	3.0
59.377	2.0
59.392	2.0
59.407	5.0
59.422	3.0
59.437	2.0
59.452	3.0
59.467	3.0
59.482	4.0
59.497	4.0
59.512	10.0
59.527	3.0
59.542	3.0
59.557	8.0
59.572	8.0
59.587	10.0
59.602	10.0
59.617	11.0
59.632	2.0
59.647	5.0
59.661	12.0
59.676	5.0
59.691	8.0
59.706	3.0
59.721	7.0
59.736	3.0
59.751	3.0
59.766	1.0
59.781	3.0
59.796	4.0
59.811	5.0
59.826	3.0
59.841	5.0
59.856	7.0
59.871	4.0
59.886	4.0
59.901	7.0
59.916	4.0
59.931	4.0
59.946	5.0
59.961	4.0
59.976	5.0
59.991	8.0
60.006	2.0
60.021	5.0
60.036	3.0
60.051	8.0
60.066	7.0
60.081	6.0
60.096	7.0
60.111	5.0
60.126	8.0
60.141	4.0
60.156	3.0
60.171	5.0
60.186	1.0
60.201	2.0
60.216	3.0
60.231	7.0
60.246	2.0
60.261	6.0
60.276	5.0
60.291	1.0
60.306	5.0
60.321	1.0
60.336	2.0
60.35	7.0
60.365	1.0
60.38	5.0
60.395	4.0
60.41	6.0
60.425	4.0
60.44	3.0
60.455	8.0
60.47	9.0
60.485	5.0
60.5	4.0
60.515	4.0
60.53	7.0
60.545	7.0
60.56	9.0
60.575	9.0
60.59	9.0
60.605	8.0
60.62	5.0
60.635	4.0
60.65	3.0
60.665	5.0
60.68	10.0
60.695	1.0
60.71	6.0
60.725	2.0
60.74	6.0
60.755	3.0
60.77	2.0
60.785	4.0
60.8	1.0
60.815	5.0
60.83	8.0
60.845	5.0
60.86	9.0
60.875	4.0
60.89	4.0
60.905	4.0
60.92	3.0
60.935	6.0
60.95	4.0
60.965	3.0
60.98	5.0
60.995	4.0
61.01	3.0
61.025	4.0
61.04	4.0
61.055	4.0
61.07	8.0
61.085	2.0
61.1	6.0
61.115	4.0
61.13	2.0
61.145	9.0
61.16	4.0
61.175	2.0
61.191	4.0
61.206	7.0
61.221	3.0
61.236	4.0
61.251	3.0
61.266	5.0
61.281	1.0
61.296	4.0
61.311	6.0
61.326	3.0
61.341	1.0
61.356	1.0
61.371	4.0
61.386	4.0
61.401	3.0
61.416	10.0
61.431	5.0
61.446	4.0
61.461	4.0
61.476	3.0
61.491	4.0
61.506	7.0
61.521	5.0
61.536	4.0
61.551	5.0
61.566	9.0
61.581	9.0
61.596	8.0
61.611	3.0
61.626	4.0
61.641	3.0
61.656	4.0
61.672	4.0
61.687	2.0
61.702	4.0
61.717	6.0
61.732	3.0
61.747	4.0
61.762	10.0
61.777	2.0
61.792	11.0
61.807	6.0
61.822	5.0
61.837	5.0
61.852	3.0
61.867	4.0
61.882	8.0
61.897	2.0
61.912	7.0
61.927	6.0
61.943	2.0
61.958	4.0
61.973	4.0
61.988	5.0
62.003	5.0
62.018	5.0
62.033	6.0
62.048	8.0
62.063	3.0
62.078	9.0
62.093	5.0
62.108	5.0
62.123	5.0
62.138	4.0
62.153	4.0
62.169	0.0
62.184	1.0
62.199	4.0
62.214	3.0
62.229	3.0
62.244	5.0
62.259	2.0
62.274	4.0
62.289	1.0
62.304	4.0
62.319	3.0
62.335	4.0
62.35	7.0
62.365	5.0
62.38	3.0
62.395	1.0
62.41	5.0
62.425	5.0
62.44	3.0
62.455	4.0
62.47	5.0
62.485	2.0
62.501	6.0
62.516	7.0
62.531	2.0
62.546	6.0
62.561	1.0
62.576	5.0
62.591	4.0
62.606	6.0
62.621	5.0
62.636	6.0
62.652	4.0
62.667	2.0
62.682	5.0
62.697	3.0
62.712	3.0
62.727	1.0
62.742	4.0
62.757	8.0
62.772	2.0
62.787	3.0
62.803	2.0
62.818	5.0
62.833	6.0
62.848	5.0
62.863	4.0
62.878	6.0
62.893	2.0
62.908	3.0
62.923	11.0
62.939	5.0
62.954	3.0
62.969	4.0
62.984	6.0
62.999	6.0
63.014	3.0
63.029	4.0
63.044	3.0
63.059	5.0
63.074	5.0
63.09	3.0
63.105	2.0
63.12	8.0
63.135	3.0
63.15	3.0
63.165	3.0
63.18	4.0
63.195	2.0
63.21	2.0
63.226	1.0
63.241	2.0
63.256	4.0
63.271	3.0
63.286	9.0
63.301	5.0
63.316	6.0
63.331	2.0
63.346	3.0
63.362	7.0
63.377	6.0
63.392	8.0
63.407	6.0
63.422	6.0
63.437	4.0
63.452	3.0
63.467	3.0
63.482	2.0
63.497	7.0
63.513	3.0
63.528	4.0
63.543	8.0
63.558	8.0
63.573	4.0
63.588	2.0
63.603	6.0
63.618	1.0
63.633	2.0
63.648	2.0
63.664	6.0
63.679	7.0
63.694	3.0
63.709	8.0
63.724	1.0
63.739	3.0
63.754	5.0
63.769	2.0
63.784	0.0
63.799	2.0
63.814	2.0
63.83	13.0
63.845	12.0
63.86	3.0
63.875	4.0
63.89	4.0
63.905	5.0
63.92	5.0
63.935	7.0
63.95	3.0
63.965	4.0
63.98	4.0
63.996	2.0
64.011	4.0
64.026	6.0
64.041	3.0
64.056	4.0
64.071	4.0
64.086	4.0
64.101	5.0
64.116	1.0
64.131	0.0
64.146	7.0
64.161	2.0
64.176	5.0
64.191	4.0
64.207	3.0
64.222	2.0
64.237	5.0
64.252	5.0
64.267	2.0
64.282	1.0
64.297	3.0
64.312	5.0
64.327	4.0
64.342	3.0
64.357	3.0
64.372	3.0
64.387	3.0
64.402	2.0
64.417	8.0
64.433	5.0
64.448	4.0
64.463	7.0
64.478	3.0
64.493	3.0
64.508	4.0
64.523	5.0
64.538	1.0
64.553	2.0
64.568	6.0
64.583	4.0
64.598	2.0
64.613	0.0
64.628	6.0
64.643	1.0
64.658	8.0
64.673	1.0
64.688	1.0
64.703	2.0
64.718	4.0
64.734	6.0
64.749	1.0
64.764	2.0
64.779	3.0
64.794	5.0
64.809	3.0
64.824	5.0
64.839	7.0
64.854	0.0
64.869	2.0
64.884	5.0
64.899	6.0
64.914	7.0
64.929	9.0
64.944	4.0
64.959	3.0
64.974	2.0
64.989	3.0
65.004	3.0
65.019	2.0
65.034	4.0
65.049	3.0
65.064	1.0
65.079	5.0
65.094	4.0
65.109	5.0
65.125	5.0
65.14	3.0
65.155	7.0
65.17	6.0
65.185	4.0
65.2	6.0
65.215	3.0
65.23	5.0
65.245	3.0
65.26	4.0
65.275	7.0
65.29	3.0
65.305	5.0
65.32	7.0
65.335	0.0
65.35	2.0
65.365	3.0
65.38	3.0
65.395	3.0
65.41	3.0
65.425	4.0
65.44	3.0
65.455	6.0
65.47	4.0
65.485	4.0
65.5	1.0
65.515	2.0
65.53	4.0
65.545	4.0
65.56	4.0
65.575	0.0
65.59	5.0
65.605	4.0
65.62	3.0
65.635	2.0
65.65	4.0
65.666	3.0
65.681	7.0
65.696	4.0
65.711	7.0
65.726	4.0
65.741	6.0
65.756	4.0
65.771	4.0
65.786	4.0
65.801	3.0
65.816	3.0
65.831	2.0
65.846	5.0
65.861	2.0
65.876	2.0
65.891	4.0
65.906	2.0
65.921	4.0
65.936	4.0
65.951	7.0
65.966	6.0
65.981	3.0
65.996	1.0
66.011	5.0
66.026	5.0
66.041	8.0
66.056	5.0
66.071	3.0
66.086	1.0
66.101	4.0
66.116	8.0
66.131	6.0
66.146	4.0
66.161	7.0
66.176	7.0
66.191	4.0
66.206	3.0
66.221	10.0
66.236	12.0
66.251	8.0
66.266	5.0
66.281	4.0
66.296	4.0
66.311	4.0
66.327	3.0
66.342	2.0
66.357	3.0
66.372	1.0
66.387	4.0
66.402	5.0
66.417	3.0
66.432	4.0
66.447	3.0
66.462	6.0
66.477	5.0
66.492	0.0
66.507	6.0
66.522	2.0
66.537	3.0
66.552	5.0
66.567	2.0
66.582	8.0
66.597	5.0
66.612	5.0
66.627	11.0
66.642	8.0
66.657	4.0
66.672	5.0
66.687	1.0
66.702	5.0
66.717	4.0
66.732	4.0
66.747	3.0
66.762	3.0
66.777	8.0
66.792	3.0
66.807	4.0
66.822	4.0
66.837	4.0
66.853	3.0
66.868	4.0
66.883	9.0
66.898	3.0
66.913	1.0
66.928	5.0
66.943	7.0
66.958	2.0
66.973	8.0
66.988	6.0
67.003	1.0
67.018	3.0
67.033	3.0
67.048	6.0
67.063	5.0
67.078	3.0
67.093	1.0
67.108	7.0
67.123	4.0
67.138	4.0
67.153	3.0
67.168	6.0
67.183	3.0
67.198	5.0
67.214	7.0
67.229	1.0
67.244	3.0
67.259	3.0
67.274	6.0
67.289	6.0
67.304	1.0
67.319	5.0
67.334	4.0
67.349	0.0
67.364	8.0
67.379	1.0
67.394	4.0
67.409	2.0
67.424	2.0
67.439	1.0
67.454	2.0
67.469	3.0
67.484	5.0
67.5	2.0
67.515	9.0
67.53	7.0
67.545	4.0
67.56	7.0
67.575	4.0
67.59	2.0
67.605	3.0
67.62	3.0
67.635	5.0
67.65	2.0
67.665	4.0
67.68	3.0
67.695	0.0
67.71	4.0
67.726	1.0
67.741	6.0
67.756	5.0
67.771	3.0
67.786	6.0
67.801	2.0
67.816	3.0
67.831	1.0
67.846	5.0
67.861	2.0
67.876	2.0
67.891	4.0
67.906	8.0
67.922	1.0
67.937	3.0
67.952	7.0
67.967	5.0
67.982	1.0
67.997	6.0
68.012	3.0
68.027	5.0
68.042	2.0
68.057	2.0
68.072	3.0
68.087	4.0
68.103	4.0
68.118	2.0
68.133	2.0
68.148	1.0
68.163	2.0
68.178	3.0
68.193	3.0
68.208	6.0
68.223	6.0
68.238	2.0
68.254	4.0
68.269	4.0
68.284	3.0
68.299	3.0
68.314	8.0
68.329	3.0
68.344	4.0
68.359	5.0
68.374	4.0
68.389	8.0
68.405	5.0
68.42	4.0
68.435	4.0
68.45	4.0
68.465	3.0
68.48	6.0
68.495	4.0
68.51	2.0
68.525	4.0
68.54	3.0
68.556	2.0
68.571	2.0
68.586	4.0
68.601	5.0
68.616	4.0
68.631	1.0
68.646	5.0
68.661	3.0
68.676	3.0
68.691	2.0
68.707	6.0
68.722	1.0
68.737	3.0
68.752	7.0
68.767	8.0
68.782	8.0
68.797	7.0
68.812	3.0
68.827	5.0
68.842	5.0
68.857	9.0
68.873	8.0
68.888	4.0
68.903	5.0
68.918	6.0
68.933	6.0
68.948	6.0
68.963	8.0
68.978	3.0
68.993	4.0
69.008	2.0
69.023	4.0
69.038	2.0
69.054	8.0
69.069	2.0
69.084	3.0
69.099	3.0
69.114	7.0
69.129	4.0
69.144	2.0
69.159	4.0
69.174	1.0
69.189	3.0
69.204	2.0
69.219	5.0
69.234	5.0
69.249	4.0
69.264	2.0
69.279	3.0
69.295	7.0
69.31	7.0
69.325	3.0
69.34	0.0
69.355	2.0
69.37	1.0
69.385	1.0
69.4	3.0
69.415	7.0
69.43	3.0
69.445	6.0
69.46	5.0
69.475	5.0
69.49	7.0
69.505	1.0
69.52	1.0
69.535	5.0
69.55	4.0
69.565	2.0
69.58	4.0
69.595	2.0
69.61	4.0
69.625	5.0
69.64	4.0
69.655	4.0
69.67	3.0
69.685	10.0
69.7	6.0
69.715	7.0
69.73	8.0
69.745	4.0
69.76	8.0
69.775	9.0
69.79	7.0
69.805	2.0
69.82	3.0
69.835	2.0
69.85	5.0
69.865	5.0
69.88	5.0
69.895	5.0
69.909	6.0
69.924	7.0
69.939	8.0
69.954	7.0
69.969	5.0
69.984	3.0
69.999	6.0
70.014	6.0
70.029	4.0
70.044	1.0
70.059	4.0
70.074	6.0
70.088	4.0
70.103	7.0
70.118	3.0
70.133	4.0
70.148	5.0
70.163	3.0
70.178	8.0
70.193	3.0
70.208	6.0
70.222	5.0
70.237	4.0
70.252	5.0
70.267	5.0
70.282	8.0
70.297	4.0
70.312	4.0
70.327	5.0
70.341	2.0
70.356	7.0
70.371	2.0
70.386	4.0
70.401	8.0
70.416	6.0
70.43	5.0
70.445	3.0
70.46	6.0
70.475	6.0
70.49	5.0
70.505	8.0
70.519	6.0
70.534	5.0
70.549	3.0
70.564	5.0
70.579	1.0
70.594	6.0
70.608	8.0
70.623	3.0
70.638	9.0
70.653	5.0
70.668	8.0
70.683	3.0
70.697	5.0
70.712	6.0
70.727	4.0
70.742	4.0
70.757	6.0
70.771	1.0
70.786	3.0
70.801	4.0
70.816	7.0
70.831	4.0
70.845	3.0
70.86	6.0
70.875	3.0
70.89	3.0
70.905	3.0
70.92	5.0
70.934	4.0
70.949	3.0
70.964	3.0
70.979	3.0
70.994	6.0
71.008	3.0
71.023	6.0
71.038	3.0
71.053	6.0
71.068	1.0
71.082	4.0
71.097	4.0
71.112	6.0
71.127	5.0
71.142	6.0
71.156	3.0
71.171	4.0
71.186	4.0
71.201	6.0
71.216	6.0
71.231	4.0
71.245	6.0
71.26	3.0
71.275	4.0
71.29	1.0
71.305	3.0
71.319	3.0
71.334	1.0
71.349	3.0
71.364	5.0
71.379	4.0
71.394	3.0
71.408	2.0
71.423	4.0
71.438	7.0
71.453	2.0
71.468	5.0
71.483	5.0
71.497	5.0
71.512	2.0
71.527	5.0
71.542	6.0
71.557	1.0
71.572	3.0
71.586	1.0
71.601	1.0
71.616	2.0
71.631	2.0
71.646	3.0
71.661	2.0
71.676	3.0
71.69	0.0
71.705	1.0
71.72	4.0
71.735	3.0
71.75	3.0
71.765	3.0
71.78	2.0
71.795	6.0
71.81	3.0
71.824	1.0
71.839	6.0
71.854	2.0
71.869	4.0
71.884	2.0
71.899	4.0
71.914	1.0
71.929	4.0
71.944	4.0
71.959	3.0
71.974	3.0
71.988	1.0
72.003	1.0
72.018	5.0
72.033	4.0
72.048	4.0
72.063	4.0
72.078	3.0
72.093	4.0
72.108	7.0
72.123	4.0
72.138	1.0
72.153	1.0
72.168	3.0
72.183	2.0
72.198	4.0
72.213	2.0
72.228	2.0
72.243	4.0
72.258	2.0
72.273	5.0
72.288	4.0
72.303	1.0
72.318	4.0
72.333	4.0
72.348	1.0
72.363	1.0
72.378	7.0
72.393	4.0
72.408	2.0
72.423	5.0
72.438	0.0
72.453	0.0
72.468	7.0
72.483	3.0
72.498	5.0
72.513	5.0
72.528	4.0
72.543	4.0
72.558	5.0
72.573	5.0
72.588	3.0
72.603	2.0
72.618	6.0
72.633	7.0
72.649	1.0
72.664	4.0
72.679	3.0
72.694	2.0
72.709	2.0
72.724	5.0
72.739	2.0
72.754	3.0
72.769	5.0
72.784	3.0
72.799	3.0
72.814	7.0
72.829	2.0
72.845	5.0
72.86	3.0
72.875	6.0
72.89	3.0
72.905	4.0
72.92	1.0
72.935	6.0
72.95	2.0
72.965	1.0
72.98	4.0
72.996	1.0
73.011	1.0
73.026	2.0
73.041	2.0
73.056	0.0
73.071	5.0
73.086	7.0
73.101	4.0
73.117	2.0
73.132	6.0
73.147	0.0
73.162	1.0
73.177	2.0
73.192	2.0
73.207	6.0
73.222	3.0
73.238	4.0
73.253	4.0
73.268	5.0
73.283	5.0
73.298	4.0
73.313	4.0
73.328	8.0
73.343	4.0
73.359	5.0
73.374	2.0
73.389	4.0
73.404	5.0
73.419	5.0
73.434	6.0
73.449	9.0
73.465	2.0
73.48	5.0
73.495	2.0
73.51	3.0
73.525	4.0
73.54	2.0
73.556	4.0
73.571	3.0
73.586	3.0
73.601	3.0
73.616	4.0
73.631	6.0
73.646	4.0
73.662	2.0
73.677	6.0
73.692	2.0
73.707	5.0
73.722	4.0
73.737	7.0
73.752	3.0
73.768	3.0
73.783	2.0
73.798	4.0
73.813	1.0
73.828	8.0
73.843	8.0
73.859	3.0
73.874	2.0
73.889	3.0
73.904	2.0
73.919	4.0
73.934	6.0
73.949	3.0
73.965	0.0
73.98	5.0
73.995	5.0
74.01	4.0
74.025	5.0
74.04	4.0
74.056	2.0
74.071	2.0
74.086	3.0
74.101	4.0
74.116	5.0
74.131	4.0
74.146	0.0
74.162	7.0
74.177	2.0
74.192	5.0
74.207	7.0
74.222	4.0
74.237	9.0
74.252	4.0
74.268	4.0
74.283	4.0
74.298	6.0
74.313	4.0
74.328	2.0
74.343	0.0
74.358	6.0
74.374	10.0
74.389	6.0
74.404	1.0
74.419	3.0
74.434	2.0
74.449	4.0
74.464	3.0
74.48	5.0
74.495	4.0
74.51	3.0
74.525	3.0
74.54	4.0
74.555	5.0
74.57	5.0
74.586	3.0
74.601	5.0
74.616	7.0
74.631	7.0
74.646	4.0
74.661	0.0
74.676	7.0
74.691	3.0
74.707	6.0
74.722	6.0
74.737	6.0
74.752	5.0
74.767	9.0
74.782	5.0
74.797	5.0
74.813	5.0
74.828	2.0
74.843	5.0
74.858	1.0
74.873	2.0
74.888	8.0
74.903	4.0
74.918	4.0
74.934	3.0
74.949	4.0
74.964	1.0
74.979	5.0
74.994	4.0
75.009	6.0
75.024	3.0
75.04	3.0
75.055	5.0
75.07	4.0
75.085	7.0
75.1	6.0
75.115	4.0
75.13	5.0
75.145	4.0
75.161	2.0
75.176	5.0
75.191	3.0
75.206	4.0
75.221	5.0
75.236	2.0
75.251	8.0
75.266	4.0
75.282	2.0
75.297	2.0
75.312	4.0
75.327	1.0
75.342	0.0
75.357	3.0
75.372	3.0
75.387	6.0
75.403	2.0
75.418	0.0
75.433	2.0
75.448	5.0
75.463	6.0
75.478	3.0
75.493	2.0
75.509	4.0
75.524	6.0
75.539	3.0
75.554	3.0
75.569	5.0
75.584	1.0
75.599	6.0
75.614	3.0
75.63	4.0
75.645	3.0
75.66	5.0
75.675	3.0
75.69	5.0
75.705	3.0
75.72	4.0
75.735	4.0
75.751	3.0
75.766	4.0
75.781	1.0
75.796	3.0
75.811	3.0
75.826	6.0
75.841	0.0
75.856	0.0
75.872	3.0
75.887	1.0
75.902	2.0
75.917	1.0
75.932	3.0
75.947	2.0
75.962	5.0
75.977	2.0
75.993	1.0
76.008	2.0
76.023	3.0
76.038	3.0
76.053	4.0
76.068	5.0
76.083	2.0
76.098	5.0
76.114	4.0
76.129	2.0
76.144	2.0
76.159	1.0
76.174	4.0
76.189	2.0
76.204	3.0
76.22	3.0
76.235	9.0
76.25	4.0
76.265	2.0
76.28	4.0
76.295	9.0
76.31	4.0
76.325	4.0
76.341	2.0
76.356	3.0
76.371	4.0
76.386	9.0
76.401	4.0
76.416	6.0
76.431	5.0
76.446	2.0
76.462	8.0
76.477	6.0
76.492	0.0
76.507	3.0
76.522	1.0
76.537	3.0
76.552	3.0
76.567	2.0
76.583	5.0
76.598	1.0
76.613	4.0
76.628	4.0
76.643	4.0
76.658	5.0
76.673	5.0
76.688	5.0
76.704	4.0
76.719	5.0
76.734	4.0
76.749	1.0
76.764	3.0
76.779	2.0
76.794	8.0
76.809	3.0
76.824	5.0
76.84	5.0
76.855	5.0
76.87	1.0
76.885	3.0
76.9	2.0
76.915	2.0
76.93	4.0
76.945	2.0
76.96	4.0
76.976	3.0
76.991	6.0
77.006	1.0
77.021	2.0
77.036	4.0
77.051	2.0
77.066	2.0
77.081	4.0
77.096	2.0
77.112	2.0
77.127	3.0
77.142	2.0
77.157	5.0
77.172	5.0
77.187	2.0
77.202	1.0
77.217	5.0
77.232	4.0
77.247	4.0
77.263	6.0
77.278	2.0
77.293	4.0
77.308	5.0
77.323	5.0
77.338	6.0
77.353	2.0
77.368	5.0
77.383	3.0
77.398	5.0
77.413	2.0
77.428	1.0
77.444	6.0
77.459	2.0
77.474	5.0
77.489	3.0
77.504	1.0
77.519	6.0
77.534	2.0
77.549	6.0
77.564	4.0
77.579	7.0
77.594	4.0
77.609	10.0
77.624	6.0
77.64	2.0
77.655	5.0
77.67	4.0
77.685	3.0
77.7	3.0
77.715	3.0
77.73	4.0
77.745	7.0
77.76	1.0
77.775	5.0
77.79	4.0
77.805	6.0
77.82	7.0
77.835	5.0
77.85	3.0
77.865	1.0
77.88	2.0
77.895	2.0
77.91	3.0
77.926	3.0
77.941	4.0
77.956	3.0
77.971	2.0
77.986	2.0
78.001	5.0
78.016	3.0
78.031	1.0
78.046	2.0
78.061	3.0
78.076	2.0
78.091	2.0
78.106	5.0
78.121	3.0
78.136	4.0
78.151	4.0
78.166	4.0
78.181	1.0
78.196	3.0
78.211	7.0
78.226	1.0
78.241	4.0
78.256	1.0
78.271	5.0
78.286	6.0
78.301	5.0
78.316	2.0
78.331	1.0
78.346	3.0
78.361	0.0
78.376	4.0
78.391	1.0
78.406	2.0
78.421	3.0
78.436	3.0
78.451	7.0
78.466	4.0
78.481	1.0
78.496	5.0
78.511	3.0
78.526	2.0
78.541	4.0
78.556	3.0
78.571	1.0
78.586	1.0
78.601	6.0
78.616	2.0
78.631	4.0
78.646	5.0
78.661	3.0
78.676	4.0
78.691	5.0
78.706	2.0
78.721	2.0
78.736	1.0
78.751	3.0
78.766	3.0
78.781	4.0
78.796	3.0
78.811	4.0
78.826	2.0
78.841	5.0
78.856	8.0
78.871	1.0
78.885	5.0
78.9	2.0
78.915	4.0
78.93	3.0
78.945	4.0
78.96	2.0
78.975	3.0
78.99	4.0
79.005	2.0
79.02	4.0
79.035	1.0
79.05	6.0
79.065	2.0
79.08	6.0
79.095	6.0
79.11	5.0
79.125	2.0
79.14	2.0
79.155	3.0
79.17	4.0
79.185	2.0
79.2	3.0
79.215	2.0
79.23	5.0
79.245	3.0
79.26	2.0
79.275	4.0
79.29	7.0
79.304	5.0
79.319	4.0
79.334	0.0
79.349	4.0
79.364	6.0
79.379	3.0
79.394	2.0
79.409	4.0
79.424	5.0
79.439	2.0
79.454	5.0
79.469	5.0
79.484	3.0
79.499	3.0
79.514	4.0
79.529	3.0
79.544	7.0
79.559	3.0
79.574	4.0
79.589	1.0
79.604	1.0
79.619	1.0
79.634	2.0
79.649	5.0
79.664	2.0
79.679	3.0
79.693	3.0
79.708	4.0
79.723	7.0
79.738	4.0
79.753	2.0
79.768	6.0
79.783	4.0
79.798	2.0
79.813	7.0
79.828	3.0
79.843	5.0
79.858	2.0
79.873	2.0
79.888	5.0
79.903	2.0
79.918	2.0
79.933	2.0
79.948	3.0
79.963	5.0
79.978	4.0
79.993	5.0
80.008	5.0
80.023	4.0
80.038	2.0
80.053	2.0
80.068	2.0
80.083	3.0
80.098	3.0
80.113	4.0
80.128	4.0
80.143	4.0
80.158	5.0
80.173	3.0
80.188	7.0
80.202	8.0
80.217	5.0
80.232	3.0
80.247	3.0
80.262	2.0
80.277	5.0
80.292	2.0
80.307	7.0
80.322	3.0
80.337	2.0
80.352	3.0
80.367	3.0
80.382	3.0
80.397	3.0
80.412	3.0
80.427	5.0
80.442	7.0
80.457	1.0
80.472	1.0
80.487	6.0
80.502	1.0
80.517	3.0
80.532	3.0
80.547	5.0
80.562	6.0
80.577	4.0
80.592	2.0
80.607	7.0
80.622	2.0
80.637	2.0
80.652	5.0
80.667	1.0
80.682	4.0
80.697	2.0
80.712	4.0
80.727	4.0
80.742	2.0
80.757	2.0
80.772	4.0
80.787	1.0
80.802	2.0
80.817	4.0
80.832	5.0
80.847	3.0
80.862	4.0
80.877	1.0
80.892	3.0
80.907	5.0
80.922	1.0
80.937	5.0
80.952	2.0
80.967	5.0
80.982	4.0
80.997	4.0
81.012	1.0
81.027	5.0
81.042	4.0
81.057	8.0
81.072	3.0
81.087	6.0
81.101	2.0
81.116	0.0
81.131	2.0
81.146	4.0
81.161	2.0
81.176	7.0
81.191	2.0
81.206	4.0
81.221	2.0
81.236	3.0
81.251	2.0
81.266	3.0
81.281	3.0
81.296	3.0
81.311	3.0
81.326	3.0
81.341	5.0
81.356	2.0
81.371	3.0
81.386	5.0
81.401	2.0
81.416	1.0
81.431	1.0
81.446	4.0
81.461	0.0
81.476	3.0
81.491	2.0
81.506	3.0
81.521	2.0
81.536	4.0
81.55	6.0
81.565	5.0
81.58	8.0
81.595	5.0
81.61	4.0
81.625	3.0
81.64	2.0
81.655	4.0
81.67	3.0
81.685	4.0
81.7	3.0
81.715	4.0
81.73	0.0
81.745	3.0
81.76	2.0
81.775	2.0
81.79	3.0
81.805	1.0
81.819	1.0
81.834	6.0
81.849	3.0
81.864	9.0
81.879	5.0
81.894	2.0
81.909	3.0
81.924	4.0
81.939	3.0
81.954	6.0
81.969	3.0
81.984	0.0
81.999	1.0
82.013	4.0
82.028	2.0
82.043	3.0
82.058	3.0
82.073	2.0
82.088	1.0
82.103	3.0
82.118	3.0
82.133	2.0
82.148	3.0
82.163	3.0
82.177	3.0
82.192	2.0
82.207	1.0
82.222	2.0
82.237	0.0
82.252	0.0
82.267	5.0
82.282	2.0
82.297	5.0
82.312	2.0
82.326	5.0
82.341	1.0
82.356	3.0
82.371	4.0
82.386	1.0
82.401	3.0
82.416	3.0
82.431	5.0
82.445	4.0
82.46	3.0
82.475	4.0
82.49	2.0
82.505	7.0
82.52	3.0
82.535	4.0
82.55	3.0
82.565	4.0
82.579	2.0
82.594	1.0
82.609	2.0
82.624	3.0
82.639	1.0
82.654	3.0
82.669	2.0
82.684	3.0
82.698	3.0
82.713	2.0
82.728	2.0
82.743	1.0
82.758	6.0
82.773	3.0
82.788	8.0
82.803	1.0
82.817	4.0
82.832	2.0
82.847	7.0
82.862	3.0
82.877	2.0
82.892	4.0
82.907	5.0
82.922	5.0
82.937	2.0
82.951	2.0
82.966	3.0
82.981	5.0
82.996	2.0
83.011	3.0
83.026	4.0
83.041	4.0
83.056	2.0
83.07	2.0
83.085	2.0
83.1	4.0
83.115	2.0
83.13	2.0
83.145	2.0
83.16	5.0
83.175	0.0
83.19	3.0
83.204	2.0
83.219	5.0
83.234	2.0
83.249	2.0
83.264	4.0
83.279	1.0
83.294	3.0
83.309	3.0
83.324	4.0
83.339	2.0
83.353	5.0
83.368	4.0
83.383	7.0
83.398	5.0
83.413	0.0
83.428	3.0
83.443	6.0
83.458	4.0
83.473	3.0
83.488	4.0
83.503	4.0
83.517	3.0
83.532	5.0
83.547	3.0
83.562	2.0
83.577	3.0
83.592	1.0
83.607	3.0
83.622	6.0
83.637	5.0
83.652	2.0
83.667	1.0
83.682	2.0
83.697	3.0
83.712	2.0
83.727	3.0
83.741	4.0
83.756	2.0
83.771	8.0
83.786	4.0
83.801	4.0
83.816	0.0
83.831	1.0
83.846	1.0
83.861	1.0
83.876	1.0
83.891	3.0
83.906	2.0
83.921	3.0
83.936	3.0
83.951	2.0
83.966	5.0
83.981	2.0
83.996	2.0
84.011	3.0
84.026	7.0
84.041	6.0
84.056	0.0
84.071	0.0
84.086	2.0
84.101	1.0
84.116	4.0
84.131	3.0
84.146	5.0
84.161	5.0
84.176	1.0
84.191	5.0
84.206	3.0
84.221	5.0
84.236	3.0
84.251	5.0
84.266	3.0
84.281	4.0
84.296	2.0
84.311	1.0
84.326	4.0
84.341	5.0
84.356	5.0
84.371	4.0
84.386	2.0
84.401	6.0
84.416	7.0
84.431	12.0
84.446	4.0
84.461	5.0
84.476	2.0
84.492	6.0
84.507	6.0
84.522	3.0
84.537	1.0
84.552	3.0
84.567	2.0
84.582	4.0
84.597	2.0
84.612	1.0
84.627	2.0
84.642	5.0
84.657	2.0
84.672	1.0
84.687	4.0
84.702	0.0
84.717	1.0
84.733	4.0
84.748	3.0
84.763	2.0
84.778	4.0
84.793	3.0
84.808	1.0
84.823	2.0
84.838	5.0
84.853	1.0
84.868	3.0
84.883	1.0
84.898	2.0
84.913	3.0
84.929	5.0
84.944	1.0
84.959	4.0
84.974	2.0
84.989	2.0
85.004	5.0
85.019	4.0
85.034	1.0
85.049	1.0
85.064	1.0
85.079	2.0
85.094	3.0
85.11	3.0
85.125	0.0
85.14	1.0
85.155	2.0
85.17	2.0
85.185	5.0
85.2	3.0
85.215	2.0
85.23	6.0
85.245	4.0
85.26	5.0
85.276	5.0
85.291	0.0
85.306	8.0
85.321	1.0
85.336	3.0
85.351	1.0
85.366	1.0
85.381	1.0
85.396	2.0
85.411	2.0
85.426	1.0
85.441	3.0
85.457	5.0
85.472	3.0
85.487	3.0
85.502	0.0
85.517	5.0
85.532	5.0
85.547	2.0
85.562	4.0
85.577	1.0
85.592	1.0
85.607	5.0
85.622	2.0
85.637	3.0
85.653	1.0
85.668	5.0
85.683	5.0
85.698	2.0
85.713	3.0
85.728	2.0
85.743	7.0
85.758	2.0
85.773	3.0
85.788	3.0
85.803	3.0
85.818	2.0
85.833	2.0
85.848	0.0
85.863	3.0
85.879	2.0
85.894	2.0
85.909	1.0
85.924	2.0
85.939	4.0
85.954	1.0
85.969	5.0
85.984	3.0
85.999	2.0
86.014	4.0
86.029	3.0
86.044	8.0
86.059	6.0
86.074	5.0
86.089	0.0
86.104	5.0
86.119	9.0
86.134	4.0
86.149	1.0
86.164	0.0
86.179	1.0
86.194	6.0
86.209	5.0
86.224	2.0
86.239	3.0
86.254	1.0
86.269	0.0
86.284	3.0
86.299	3.0
86.314	7.0
86.33	3.0
86.345	3.0
86.36	3.0
86.375	1.0
86.39	3.0
86.405	3.0
86.42	3.0
86.435	2.0
86.45	8.0
86.465	5.0
86.48	3.0
86.495	2.0
86.51	1.0
86.525	4.0
86.54	4.0
86.555	3.0
86.57	2.0
86.585	4.0
86.6	3.0
86.615	5.0
86.63	2.0
86.645	1.0
86.659	7.0
86.674	4.0
86.689	3.0
86.704	5.0
86.719	0.0
86.734	2.0
86.749	2.0
86.764	0.0
86.779	5.0
86.794	4.0
86.809	4.0
86.824	2.0
86.839	4.0
86.854	2.0
86.869	4.0
86.884	5.0
86.899	2.0
86.914	6.0
86.929	7.0
86.944	3.0
86.959	5.0
86.974	5.0
86.989	5.0
87.004	0.0
87.019	2.0
87.034	2.0
87.049	5.0
87.064	3.0
87.079	3.0
87.094	5.0
87.109	3.0
87.124	0.0
87.139	2.0
87.154	3.0
87.169	3.0
87.184	2.0
87.199	1.0
87.214	3.0
87.229	0.0
87.244	4.0
87.259	1.0
87.274	4.0
87.289	2.0
87.304	6.0
87.319	1.0
87.334	3.0
87.349	3.0
87.364	2.0
87.379	0.0
87.394	6.0
87.409	4.0
87.424	6.0
87.438	1.0
87.453	0.0
87.468	0.0
87.483	3.0
87.498	5.0
87.513	0.0
87.528	5.0
87.543	3.0
87.558	2.0
87.573	6.0
87.588	3.0
87.603	5.0
87.618	3.0
87.633	3.0
87.648	4.0
87.663	4.0
87.678	2.0
87.693	7.0
87.708	4.0
87.723	2.0
87.738	5.0
87.753	1.0
87.768	2.0
87.783	4.0
87.798	1.0
87.813	4.0
87.828	3.0
87.843	0.0
87.858	2.0
87.873	5.0
87.888	1.0
87.903	2.0
87.918	1.0
87.933	1.0
87.948	1.0
87.963	0.0
87.978	1.0
87.993	3.0
88.008	4.0
88.023	5.0
88.038	4.0
88.053	2.0
88.068	2.0
88.083	3.0
88.098	6.0
88.113	3.0
88.128	0.0
88.143	5.0
88.158	4.0
88.174	3.0
88.189	1.0
88.204	4.0
88.219	7.0
88.234	4.0
88.249	5.0
88.264	2.0
88.279	3.0
88.294	4.0
88.309	4.0
88.324	0.0
88.339	5.0
88.354	3.0
88.369	2.0
88.384	9.0
88.399	6.0
88.414	4.0
88.429	4.0
88.444	10.0
88.459	2.0
88.474	2.0
88.489	2.0
88.504	3.0
88.519	3.0
88.534	4.0
88.549	4.0
88.564	5.0
88.58	1.0
88.595	5.0
88.61	2.0
88.625	1.0
88.64	5.0
88.655	3.0
88.67	1.0
88.685	2.0
88.7	2.0
88.715	0.0
88.73	3.0
88.745	2.0
88.76	5.0
88.775	2.0
88.79	4.0
88.805	2.0
88.82	4.0
88.835	1.0
88.85	1.0
88.865	2.0
88.88	3.0
88.895	4.0
88.911	0.0
88.926	1.0
88.941	1.0
88.956	2.0
88.971	3.0
88.986	0.0
89.001	2.0
89.016	1.0
89.031	1.0
89.046	1.0
89.061	1.0
89.076	2.0
89.091	2.0
89.106	4.0
89.121	4.0
89.136	3.0
89.151	4.0
89.166	2.0
89.181	8.0
89.196	4.0
89.211	6.0
89.227	4.0
89.242	4.0
89.257	4.0
89.272	0.0
89.287	4.0
89.302	2.0
89.317	2.0
89.332	2.0
89.347	6.0
89.362	2.0
89.377	5.0
89.392	2.0
89.407	4.0
89.422	1.0
89.437	3.0
89.452	1.0
89.467	2.0
89.482	2.0
89.497	2.0
89.512	2.0
89.527	2.0
89.542	4.0
89.557	3.0
89.572	3.0
89.587	3.0
89.602	0.0
89.617	6.0
89.632	4.0
89.647	3.0
89.662	4.0
89.677	1.0
89.693	2.0
89.708	2.0
89.723	8.0
89.738	2.0
89.753	2.0
89.768	3.0
89.783	3.0
89.798	0.0
89.813	2.0
89.828	2.0
89.843	1.0
89.858	5.0
89.873	2.0
89.888	0.0
89.903	3.0
89.918	4.0
89.933	2.0
89.948	5.0
89.963	2.0
89.978	2.0
89.993	3.0
90.008	3.0
90.023	1.0
90.038	3.0
90.053	2.0
90.068	4.0
90.083	9.0
90.097	5.0
90.112	7.0
90.127	5.0
90.142	6.0
90.157	5.0
90.172	6.0
90.187	2.0
90.202	6.0
90.217	4.0
90.232	3.0
90.247	2.0
90.262	4.0
90.277	5.0
90.292	7.0
90.307	7.0
90.322	0.0
90.337	7.0
90.352	4.0
90.367	2.0
90.382	1.0
90.397	4.0
90.412	2.0
90.427	3.0
90.442	3.0
90.457	10.0
90.472	6.0
90.487	2.0
90.501	1.0
90.516	3.0
90.531	4.0
90.546	3.0
90.561	6.0
90.576	3.0
90.591	3.0
90.606	3.0
90.621	2.0
90.636	5.0
90.651	1.0
90.666	2.0
90.681	2.0
90.696	2.0
90.711	3.0
90.726	2.0
90.741	2.0
90.755	2.0
90.77	3.0
90.785	3.0
90.8	3.0
90.815	2.0
90.83	1.0
90.845	4.0
90.86	4.0
90.875	2.0
90.89	3.0
90.905	2.0
90.92	4.0
90.935	4.0
90.95	6.0
90.965	4.0
90.979	0.0
90.994	3.0
91.009	2.0
91.024	1.0
91.039	4.0
91.054	3.0
91.069	3.0
91.084	1.0
91.099	7.0
91.114	3.0
91.129	3.0
91.144	3.0
91.159	7.0
91.174	2.0
91.188	2.0
91.203	4.0
91.218	7.0
91.233	4.0
91.248	2.0
91.263	5.0
91.278	4.0
91.293	4.0
91.308	1.0
91.323	5.0
91.338	1.0
91.353	1.0
91.368	3.0
91.383	5.0
91.398	2.0
91.412	3.0
91.427	3.0
91.442	4.0
91.457	2.0
91.472	3.0
91.487	1.0
91.502	2.0
91.517	2.0
91.532	2.0
91.547	4.0
91.562	3.0
91.577	5.0
91.592	2.0
91.607	0.0
91.622	1.0
91.637	3.0
91.652	1.0
91.666	5.0
91.681	6.0
91.696	4.0
91.711	5.0
91.726	6.0
91.741	1.0
91.756	5.0
91.771	3.0
91.786	3.0
91.801	4.0
91.816	3.0
91.831	1.0
91.846	3.0
91.861	0.0
91.876	5.0
91.891	6.0
91.906	2.0
91.921	1.0
91.936	1.0
91.951	2.0
91.966	3.0
91.981	4.0
91.995	2.0
92.01	2.0
92.025	0.0
92.04	4.0
92.055	3.0
92.07	3.0
92.085	1.0
92.1	1.0
92.115	3.0
92.13	6.0
92.145	4.0
92.16	4.0
92.175	4.0
92.19	5.0
92.205	2.0
92.22	3.0
92.235	2.0
92.25	4.0
92.265	3.0
92.28	2.0
92.295	3.0
92.31	1.0
92.325	4.0
92.34	0.0
92.355	4.0
92.37	3.0
92.385	1.0
92.4	3.0
92.415	4.0
92.43	2.0
92.445	3.0
92.46	2.0
92.475	1.0
92.49	0.0
92.505	2.0
92.52	1.0
92.535	3.0
92.55	2.0
92.565	2.0
92.58	1.0
92.595	3.0
92.61	3.0
92.625	3.0
92.64	3.0
92.655	3.0
92.67	2.0
92.685	4.0
92.7	3.0
92.715	2.0
92.73	2.0
92.745	4.0
92.76	1.0
92.775	3.0
92.79	7.0
92.805	3.0
92.82	5.0
92.835	2.0
92.85	5.0
92.865	4.0
92.88	3.0
92.895	5.0
92.91	3.0
92.925	3.0
92.94	1.0
92.955	4.0
92.97	2.0
92.985	7.0
93.0	3.0
93.015	1.0
93.03	5.0
93.045	9.0
93.06	3.0
93.075	4.0
93.09	1.0
93.105	3.0
93.12	1.0
93.135	2.0
93.15	2.0
93.165	3.0
93.18	2.0
93.195	2.0
93.21	4.0
93.225	3.0
93.24	7.0
93.255	3.0
93.27	1.0
93.285	2.0
93.3	1.0
93.315	3.0
93.33	1.0
93.345	4.0
93.36	2.0
93.375	5.0
93.39	2.0
93.405	2.0
93.42	2.0
93.435	4.0
93.45	2.0
93.465	1.0
93.48	1.0
93.495	1.0
93.51	3.0
93.525	3.0
93.54	3.0
93.555	8.0
93.57	5.0
93.585	2.0
93.6	3.0
93.615	3.0
93.63	1.0
93.645	4.0
93.66	5.0
93.675	3.0
93.69	4.0
93.705	3.0
93.72	3.0
93.735	5.0
93.75	1.0
93.765	5.0
93.78	4.0
93.795	5.0
93.81	7.0
93.824	3.0
93.839	5.0
93.854	2.0
93.869	0.0
93.884	4.0
93.899	3.0
93.914	2.0
93.929	2.0
93.944	4.0
93.959	4.0
93.974	3.0
93.989	4.0
94.004	2.0
94.019	7.0
94.034	4.0
94.049	5.0
94.064	2.0
94.079	2.0
94.094	3.0
94.108	5.0
94.123	3.0
94.138	4.0
94.153	6.0
94.168	2.0
94.183	2.0
94.198	5.0
94.213	3.0
94.228	6.0
94.243	4.0
94.258	4.0
94.273	3.0
94.288	5.0
94.302	2.0
94.317	4.0
94.332	4.0
94.347	4.0
94.362	3.0
94.377	1.0
94.392	5.0
94.407	4.0
94.422	2.0
94.437	3.0
94.452	5.0
94.466	3.0
94.481	4.0
94.496	4.0
94.511	2.0
94.526	2.0
94.541	6.0
94.556	2.0
94.571	4.0
94.586	3.0
94.601	4.0
94.615	2.0
94.63	2.0
94.645	2.0
94.66	3.0
94.675	3.0
94.69	5.0
94.705	3.0
94.72	0.0
94.735	2.0
94.749	4.0
94.764	4.0
94.779	3.0
94.794	5.0
94.809	3.0
94.824	3.0
94.839	3.0
94.854	2.0
94.868	1.0
94.883	4.0
94.898	1.0
94.913	0.0
94.928	0.0
94.943	4.0
94.958	3.0
94.973	4.0
94.987	3.0
95.002	8.0
95.017	3.0
95.032	2.0
95.047	3.0
95.062	4.0
95.077	5.0
95.092	8.0
95.106	4.0
95.121	3.0
95.136	4.0
95.151	6.0
95.166	3.0
95.181	3.0
95.196	8.0
95.211	6.0
95.226	8.0
95.24	9.0
95.255	6.0
95.27	4.0
95.285	4.0
95.3	4.0
95.315	2.0
95.33	5.0
95.345	5.0
95.359	8.0
95.374	8.0
95.389	5.0
95.404	7.0
95.419	7.0
95.434	3.0
95.449	4.0
95.464	4.0
95.478	2.0
95.493	4.0
95.508	3.0
95.523	4.0
95.538	3.0
95.553	4.0
95.568	7.0
95.583	8.0
95.597	4.0
95.612	2.0
95.627	4.0
95.642	5.0
95.657	3.0
95.672	5.0
95.687	3.0
95.702	2.0
95.717	4.0
95.731	4.0
95.746	2.0
95.761	4.0
95.776	4.0
95.791	2.0
95.806	0.0
95.821	4.0
95.836	3.0
95.851	3.0
95.866	4.0
95.88	2.0
95.895	4.0
95.91	4.0
95.925	4.0
95.94	3.0
95.955	6.0
95.97	2.0
95.985	4.0
96.0	5.0
96.015	5.0
96.029	2.0
96.044	1.0
96.059	10.0
96.074	3.0
96.089	3.0
96.104	2.0
96.119	2.0
96.134	4.0
96.149	4.0
96.164	3.0
96.179	2.0
96.194	4.0
96.208	7.0
96.223	4.0
96.238	5.0
96.253	2.0
96.268	0.0
96.283	2.0
96.298	4.0
96.313	2.0
96.328	5.0
96.343	6.0
96.358	1.0
96.373	2.0
96.388	4.0
96.403	3.0
96.417	2.0
96.432	2.0
96.447	4.0
96.462	4.0
96.477	1.0
96.492	3.0
96.507	3.0
96.522	4.0
96.537	1.0
96.552	0.0
96.567	3.0
96.582	3.0
96.597	2.0
96.612	1.0
96.627	1.0
96.642	1.0
96.656	3.0
96.671	0.0
96.686	2.0
96.701	4.0
96.716	1.0
96.731	4.0
96.746	3.0
96.761	4.0
96.776	2.0
96.791	2.0
96.806	4.0
96.821	1.0
96.836	5.0
96.851	3.0
96.866	4.0
96.881	6.0
96.896	0.0
96.911	3.0
96.926	3.0
96.94	4.0
96.955	6.0
96.97	5.0
96.985	4.0
97.0	5.0
97.015	5.0
97.03	3.0
97.045	0.0
97.06	1.0
97.075	2.0
97.09	5.0
97.105	1.0
97.12	3.0
97.135	1.0
97.15	2.0
97.165	2.0
97.18	7.0
97.195	3.0
97.21	4.0
97.225	3.0
97.239	2.0
97.254	2.0
97.269	5.0
97.284	3.0
97.299	1.0
97.314	0.0
97.329	1.0
97.344	3.0
97.359	4.0
97.374	2.0
97.389	4.0
97.404	1.0
97.419	2.0
97.434	5.0
97.449	4.0
97.464	4.0
97.479	2.0
97.494	5.0
97.509	5.0
97.524	2.0
97.538	4.0
97.553	1.0
97.568	3.0
97.583	5.0
97.598	2.0
97.613	5.0
97.628	1.0
97.643	3.0
97.658	3.0
97.673	5.0
97.688	2.0
97.703	5.0
97.718	3.0
97.733	4.0
97.748	3.0
97.763	4.0
97.778	5.0
97.792	2.0
97.807	5.0
97.822	4.0
97.837	4.0
97.852	2.0
97.867	5.0
97.882	1.0
97.897	3.0
97.912	7.0
97.927	0.0
97.942	2.0
97.957	5.0
97.972	2.0
97.987	1.0
98.001	1.0
98.016	4.0
98.031	2.0
98.046	2.0
98.061	0.0
98.076	2.0
98.091	6.0
98.106	7.0
98.121	3.0
98.136	2.0
98.151	2.0
98.166	4.0
98.181	2.0
98.195	3.0
98.21	1.0
98.225	2.0
98.24	3.0
98.255	1.0
98.27	2.0
98.285	3.0
98.3	6.0
98.315	4.0
98.33	2.0
98.345	3.0
98.359	4.0
98.374	4.0
98.389	4.0
98.404	2.0
98.419	3.0
98.434	4.0
98.449	2.0
98.464	2.0
98.479	1.0
98.494	4.0
98.508	5.0
98.523	6.0
98.538	2.0
98.553	6.0
98.568	3.0
98.583	5.0
98.598	2.0
98.613	3.0
98.628	4.0
98.642	3.0
98.657	3.0
98.672	1.0
98.687	3.0
98.702	1.0
98.717	5.0
98.732	2.0
98.747	1.0
98.762	4.0
98.776	1.0
98.791	5.0
98.806	2.0
98.821	3.0
98.836	2.0
98.851	3.0
98.866	3.0
98.881	2.0
98.896	6.0
98.91	3.0
98.925	4.0
98.94	2.0
98.955	0.0
98.97	3.0
98.985	3.0
99.0	2.0
99.015	3.0
99.029	5.0
99.044	3.0
99.059	3.0
99.074	1.0
99.089	4.0
99.104	2.0
99.119	4.0
99.133	3.0
99.148	3.0
99.163	3.0
99.178	4.0
99.193	2.0
99.208	7.0
99.223	5.0
99.238	5.0
99.252	3.0
99.267	6.0
99.282	3.0
99.297	5.0
99.312	2.0
99.327	2.0
99.342	5.0
99.356	6.0
99.371	5.0
99.386	3.0
99.401	2.0
99.416	2.0
99.431	3.0
99.446	5.0
99.461	7.0
99.475	3.0
99.49	4.0
99.505	2.0
99.52	2.0
99.535	7.0
99.55	7.0
99.565	1.0
99.579	1.0
99.594	5.0
99.609	2.0
99.624	5.0
99.639	1.0
99.654	5.0
99.669	4.0
99.683	1.0
99.698	1.0
99.713	1.0
99.728	2.0
99.743	4.0
99.758	3.0
99.772	6.0
99.787	4.0
99.802	2.0
99.817	3.0
99.832	4.0
99.847	3.0
99.862	2.0
99.876	7.0
99.891	6.0
99.906	5.0
99.921	1.0
99.936	2.0
99.951	2.0
99.966	3.0
99.98	4.0
99.995	2.0
100.01	6.0
100.025	4.0
100.04	2.0
100.055	2.0
100.069	4.0
100.084	4.0
100.099	2.0
100.114	4.0
100.129	4.0
100.144	1.0
100.159	3.0
100.173	0.0
100.188	6.0
100.203	4.0
100.218	3.0
100.233	6.0
100.248	3.0
100.262	1.0
100.277	3.0
100.292	4.0
100.307	4.0
100.322	4.0
100.337	1.0
100.351	1.0
100.366	2.0
100.381	3.0
100.396	2.0
100.411	3.0
100.426	1.0
100.441	3.0
100.455	5.0
100.47	1.0
100.485	1.0
100.5	5.0
100.515	1.0
100.53	4.0
100.544	2.0
100.559	5.0
100.574	5.0
100.589	4.0
100.604	4.0
100.619	4.0
100.633	4.0
100.648	4.0
100.663	5.0
100.678	5.0
100.693	4.0
100.708	0.0
100.722	4.0
100.737	6.0
100.752	2.0
100.767	1.0
100.782	4.0
100.796	4.0
100.811	2.0
100.826	4.0
100.841	1.0
100.856	3.0
100.871	1.0
100.885	1.0
100.9	1.0
100.915	1.0
100.93	3.0
100.945	2.0
100.96	3.0
100.974	2.0
100.989	5.0
101.004	1.0
101.019	8.0
101.034	4.0
101.048	3.0
101.063	3.0
101.078	4.0
101.093	4.0
101.108	2.0
101.123	6.0
101.137	4.0
101.152	4.0
101.167	5.0
101.182	3.0
101.197	4.0
101.211	9.0
101.226	6.0
101.241	2.0
101.256	8.0
101.271	2.0
101.285	4.0
101.3	2.0
101.315	2.0
101.33	3.0
101.345	5.0
101.359	1.0
101.374	3.0
101.389	5.0
101.404	1.0
101.419	4.0
101.433	3.0
101.448	3.0
101.463	3.0
101.478	5.0
101.493	2.0
101.507	4.0
101.522	3.0
101.537	2.0
101.552	2.0
101.567	6.0
101.581	2.0
101.596	5.0
101.611	3.0
101.626	1.0
101.64	2.0
101.655	1.0
101.67	2.0
101.685	3.0
101.7	2.0
101.714	4.0
101.729	5.0
101.744	2.0
101.759	1.0
101.773	3.0
101.788	2.0
101.803	5.0
101.818	6.0
101.833	3.0
101.847	2.0
101.862	0.0
101.877	5.0
101.892	2.0
101.906	3.0
101.921	3.0
101.936	4.0
101.951	4.0
101.965	2.0
101.98	4.0
101.995	3.0
102.01	3.0
102.025	5.0
102.039	4.0
102.054	3.0
102.069	3.0
102.084	1.0
102.098	2.0
102.113	4.0
102.128	1.0
102.143	2.0
102.157	5.0
102.172	5.0
102.187	5.0
102.202	3.0
102.216	4.0
102.231	3.0
102.246	6.0
102.261	4.0
102.275	2.0
102.29	5.0
102.305	1.0
102.32	1.0
102.334	4.0
102.349	4.0
102.364	3.0
102.378	4.0
102.393	2.0
102.408	2.0
102.423	1.0
102.437	2.0
102.452	1.0
102.467	4.0
102.482	3.0
102.496	4.0
102.511	2.0
102.526	1.0
102.541	1.0
102.555	2.0
102.57	4.0
102.585	2.0
102.6	6.0
102.614	2.0
102.629	1.0
102.644	2.0
102.659	1.0
102.673	3.0
102.688	3.0
102.703	1.0
102.717	2.0
102.732	1.0
102.747	2.0
102.762	6.0
102.776	3.0
102.791	0.0
102.806	4.0
102.821	4.0
102.835	4.0
102.85	4.0
102.865	7.0
102.88	4.0
102.894	4.0
102.909	4.0
102.924	2.0
102.938	1.0
102.953	2.0
102.968	3.0
102.983	2.0
102.997	1.0
103.012	6.0
103.027	3.0
103.042	6.0
103.056	6.0
103.071	5.0
103.086	2.0
103.101	3.0
103.115	2.0
103.13	2.0
103.145	4.0
103.16	1.0
103.174	7.0
103.189	7.0
103.204	1.0
103.219	4.0
103.233	4.0
103.248	4.0
103.263	4.0
103.278	3.0
103.292	4.0
103.307	1.0
103.322	2.0
103.337	1.0
103.351	0.0
103.366	4.0
103.381	5.0
103.396	4.0
103.41	0.0
103.425	5.0
103.44	2.0
103.455	2.0
103.469	3.0
103.484	1.0
103.499	3.0
103.514	4.0
103.529	5.0
103.543	3.0
103.558	3.0
103.573	6.0
103.588	5.0
103.602	2.0
103.617	1.0
103.632	5.0
103.647	1.0
103.661	4.0
103.676	2.0
103.691	3.0
103.706	2.0
103.721	1.0
103.735	8.0
103.75	8.0
103.765	4.0
103.78	1.0
103.795	1.0
103.809	0.0
103.824	1.0
103.839	2.0
103.854	2.0
103.869	4.0
103.883	3.0
103.898	2.0
103.913	2.0
103.928	8.0
103.943	1.0
103.957	2.0
103.972	3.0
103.987	2.0
104.002	1.0
104.017	2.0
104.031	2.0
104.046	2.0
104.061	2.0
104.076	2.0
104.091	5.0
104.106	1.0
104.12	4.0
104.135	3.0
104.15	1.0
104.165	1.0
104.18	3.0
104.195	2.0
104.209	2.0
104.224	2.0
104.239	3.0
104.254	3.0
104.269	5.0
104.284	1.0
104.299	4.0
104.313	3.0
104.328	4.0
104.343	4.0
104.358	1.0
104.373	2.0
104.388	2.0
104.403	3.0
104.417	5.0
104.432	7.0
104.447	3.0
104.462	4.0
104.477	5.0
104.492	4.0
104.507	3.0
104.522	3.0
104.536	6.0
104.551	6.0
104.566	2.0
104.581	3.0
104.596	4.0
104.611	3.0
104.626	5.0
104.641	5.0
104.656	4.0
104.67	5.0
104.685	5.0
104.7	3.0
104.715	3.0
104.73	3.0
104.745	10.0
104.76	4.0
104.775	5.0
104.79	4.0
104.804	3.0
104.819	4.0
104.834	2.0
104.849	2.0
104.864	6.0
104.879	3.0
104.894	4.0
104.909	4.0
104.924	2.0
104.939	3.0
104.954	1.0
104.968	4.0
104.983	4.0
104.998	4.0
105.013	2.0
105.028	0.0
105.043	2.0
105.058	2.0
105.073	3.0
105.088	0.0
105.103	1.0
105.118	3.0
105.133	6.0
105.147	5.0
105.162	2.0
105.177	3.0
105.192	3.0
105.207	1.0
105.222	7.0
105.237	6.0
105.252	3.0
105.267	3.0
105.282	2.0
105.297	3.0
105.312	2.0
105.327	5.0
105.342	2.0
105.356	3.0
105.371	3.0
105.386	4.0
105.401	5.0
105.416	0.0
105.431	2.0
105.446	4.0
105.461	3.0
105.476	4.0
105.491	4.0
105.506	3.0
105.521	1.0
105.536	2.0
105.551	4.0
105.566	8.0
105.581	2.0
105.595	3.0
105.61	1.0
105.625	4.0
105.64	4.0
105.655	1.0
105.67	1.0
105.685	5.0
105.7	7.0
105.715	3.0
105.73	0.0
105.745	3.0
105.76	3.0
105.775	2.0
105.79	1.0
105.805	4.0
105.82	5.0
105.835	1.0
105.85	5.0
105.864	5.0
105.879	4.0
105.894	3.0
105.909	2.0
105.924	7.0
105.939	0.0
105.954	4.0
105.969	4.0
105.984	4.0
105.999	5.0
106.014	4.0
106.029	3.0
106.044	5.0
106.059	1.0
106.074	5.0
106.089	3.0
106.104	8.0
106.119	4.0
106.134	2.0
106.148	3.0
106.163	0.0
106.178	3.0
106.193	4.0
106.208	0.0
106.223	5.0
106.238	4.0
106.253	3.0
106.268	3.0
106.283	2.0
106.298	7.0
106.313	4.0
106.328	2.0
106.343	2.0
106.358	4.0
106.373	4.0
106.388	4.0
106.403	3.0
106.418	4.0
106.432	2.0
106.447	2.0
106.462	3.0
106.477	3.0
106.492	4.0
106.507	4.0
106.522	0.0
106.537	3.0
106.552	1.0
106.567	4.0
106.582	2.0
106.597	2.0
106.612	3.0
106.627	4.0
106.642	7.0
106.657	1.0
106.672	3.0
106.687	1.0
106.701	4.0
106.716	3.0
106.731	2.0
106.746	3.0
106.761	2.0
106.776	3.0
106.791	5.0
106.806	4.0
106.821	2.0
106.836	3.0
106.851	3.0
106.866	2.0
106.881	1.0
106.896	3.0
106.911	1.0
106.926	3.0
106.941	7.0
106.955	4.0
106.97	2.0
106.985	4.0
107.0	3.0
107.015	4.0
107.03	3.0
107.045	4.0
107.06	3.0
107.075	2.0
107.09	5.0
107.105	1.0
107.12	1.0
107.135	4.0
107.15	2.0
107.165	2.0
107.18	2.0
107.194	4.0
107.209	6.0
107.224	6.0
107.239	7.0
107.254	2.0
107.269	4.0
107.284	4.0
107.299	4.0
107.314	3.0
107.329	1.0
107.344	4.0
107.359	0.0
107.374	5.0
107.389	6.0
107.404	4.0
107.418	5.0
107.433	5.0
107.448	7.0
107.463	2.0
107.478	2.0
107.493	1.0
107.508	3.0
107.523	2.0
107.538	3.0
107.553	4.0
107.568	0.0
107.583	4.0
107.598	3.0
107.613	4.0
107.627	5.0
107.642	3.0
107.657	2.0
107.672	1.0
107.687	2.0
107.702	3.0
107.717	2.0
107.732	3.0
107.747	4.0
107.762	3.0
107.777	4.0
107.792	3.0
107.807	2.0
107.821	2.0
107.836	1.0
107.851	3.0
107.866	2.0
107.881	2.0
107.896	4.0
107.911	2.0
107.926	3.0
107.941	5.0
107.956	6.0
107.971	2.0
107.986	4.0
108.0	4.0
108.015	3.0
108.03	3.0
108.045	1.0
108.06	6.0
108.075	5.0
108.09	5.0
108.105	5.0
108.12	4.0
108.135	3.0
108.15	5.0
108.164	3.0
108.179	2.0
108.194	4.0
108.209	1.0
108.224	1.0
108.239	1.0
108.254	3.0
108.269	1.0
108.284	2.0
108.299	6.0
108.313	7.0
108.328	4.0
108.343	7.0
108.358	1.0
108.373	4.0
108.388	2.0
108.403	3.0
108.418	6.0
108.433	6.0
108.448	5.0
108.462	3.0
108.477	1.0
108.492	3.0
108.507	9.0
108.522	3.0
108.537	5.0
108.552	0.0
108.567	3.0
108.582	2.0
108.597	1.0
108.611	4.0
108.626	6.0
108.641	0.0
108.656	4.0
108.671	2.0
108.686	2.0
108.701	2.0
108.716	4.0
108.731	1.0
108.745	2.0
108.76	1.0
108.775	1.0
108.79	3.0
108.805	2.0
108.82	2.0
108.835	0.0
108.85	4.0
108.865	1.0
108.879	4.0
108.894	3.0
108.909	2.0
108.924	4.0
108.939	4.0
108.954	5.0
108.969	3.0
108.984	2.0
108.999	7.0
109.013	4.0
109.028	4.0
109.043	2.0
109.058	3.0
109.073	10.0
109.088	3.0
109.103	3.0
109.118	3.0
109.133	3.0
109.147	2.0
109.162	1.0
109.177	4.0
109.192	2.0
109.207	3.0
109.222	4.0
109.237	0.0
109.252	5.0
109.267	4.0
109.281	5.0
109.296	1.0
109.311	8.0
109.326	2.0
109.341	7.0
109.356	4.0
109.371	2.0
109.386	5.0
109.4	2.0
109.415	2.0
109.43	5.0
109.445	1.0
109.46	2.0
109.475	3.0
109.49	3.0
109.505	4.0
109.52	2.0
109.534	5.0
109.549	2.0
109.564	3.0
109.579	3.0
109.594	2.0
109.609	6.0
109.624	2.0
109.639	5.0
109.653	2.0
109.668	6.0
109.683	4.0
109.698	3.0
109.713	5.0
109.728	0.0
109.743	2.0
109.758	4.0
109.773	3.0
109.787	1.0
109.802	10.0
109.817	5.0
109.832	3.0
109.847	2.0
109.862	2.0
109.877	1.0
109.892	3.0
109.907	5.0
109.921	3.0
109.936	1.0
109.951	5.0
109.966	2.0
109.981	3.0
109.996	3.0
110.011	9.0
110.026	5.0
110.04	2.0
110.055	5.0
110.07	3.0
110.085	4.0
110.1	2.0
110.115	6.0
110.13	1.0
110.145	5.0
110.16	2.0
110.174	5.0
110.189	4.0
110.204	4.0
110.219	2.0
110.234	4.0
110.249	5.0
110.264	4.0
110.279	4.0
110.294	3.0
110.308	2.0
110.323	5.0
110.338	4.0
110.353	4.0
110.368	2.0
110.383	2.0
110.398	3.0
110.413	1.0
110.428	2.0
110.442	2.0
110.457	4.0
110.472	4.0
110.487	1.0
110.502	4.0
110.517	3.0
110.532	1.0
110.547	5.0
110.561	2.0
110.576	3.0
110.591	3.0
110.606	6.0
110.621	9.0
110.636	0.0
110.651	1.0
110.666	2.0
110.681	6.0
110.695	4.0
110.71	2.0
110.725	2.0
110.74	8.0
110.755	4.0
110.77	4.0
110.785	2.0
110.8	2.0
110.815	5.0
110.829	4.0
110.844	6.0
110.859	2.0
110.874	9.0
110.889	0.0
110.904	4.0
110.919	8.0
110.934	0.0
110.948	4.0
110.963	3.0
110.978	4.0
110.993	2.0
111.008	3.0
111.023	8.0
111.038	3.0
111.053	1.0
111.067	4.0
111.082	1.0
111.097	2.0
111.112	3.0
111.127	3.0
111.142	3.0
111.157	1.0
111.172	3.0
111.186	2.0
111.201	3.0
111.216	2.0
111.231	3.0
111.246	2.0
111.261	4.0
111.276	5.0
111.291	4.0
111.305	3.0
111.32	6.0
111.335	3.0
111.35	3.0
111.365	3.0
111.38	2.0
111.395	3.0
111.41	4.0
111.424	7.0
111.439	5.0
111.454	6.0
111.469	3.0
111.484	2.0
111.499	4.0
111.514	3.0
111.528	4.0
111.543	2.0
111.558	2.0
111.573	2.0
111.588	0.0
111.603	5.0
111.618	3.0
111.633	2.0
111.647	6.0
111.662	4.0
111.677	3.0
111.692	5.0
111.707	5.0
111.722	3.0
111.737	1.0
111.751	3.0
111.766	5.0
111.781	5.0
111.796	12.0
111.811	1.0
111.826	2.0
111.84	4.0
111.855	6.0
111.87	3.0
111.885	2.0
111.9	1.0
111.915	9.0
111.93	2.0
111.944	3.0
111.959	0.0
111.974	2.0
111.989	1.0
112.004	5.0
112.019	3.0
112.033	2.0
112.048	5.0
112.063	3.0
112.078	6.0
112.093	3.0
112.108	0.0
112.123	1.0
112.137	4.0
112.152	3.0
112.167	4.0
112.182	3.0
112.197	3.0
112.212	4.0
112.226	1.0
112.241	5.0
112.256	2.0
112.271	3.0
112.286	4.0
112.301	6.0
112.315	2.0
112.33	4.0
112.345	3.0
112.36	0.0
112.375	4.0
112.389	2.0
112.404	5.0
112.419	6.0
112.434	1.0
112.449	2.0
112.464	2.0
112.478	4.0
112.493	2.0
112.508	3.0
112.523	4.0
112.538	0.0
112.553	1.0
112.567	0.0
112.582	1.0
112.597	6.0
112.612	4.0
112.627	3.0
112.642	7.0
112.656	2.0
112.671	2.0
112.686	3.0
112.701	4.0
112.716	3.0
112.73	4.0
112.745	3.0
112.76	4.0
112.775	5.0
112.79	1.0
112.805	6.0
112.819	2.0
112.834	7.0
112.849	2.0
112.864	2.0
112.879	3.0
112.894	3.0
112.908	4.0
112.923	2.0
112.938	3.0
112.953	7.0
112.968	4.0
112.983	5.0
112.997	4.0
113.012	2.0
113.027	2.0
113.042	4.0
113.057	0.0
113.072	2.0
113.086	2.0
113.101	9.0
113.116	2.0
113.131	6.0
113.146	2.0
113.161	5.0
113.175	3.0
113.19	2.0
113.205	4.0
113.22	6.0
113.235	2.0
113.25	3.0
113.265	2.0
113.279	7.0
113.294	3.0
113.309	2.0
113.324	6.0
113.339	2.0
113.354	2.0
113.368	3.0
113.383	5.0
113.398	1.0
113.413	4.0
113.428	1.0
113.443	2.0
113.458	4.0
113.472	4.0
113.487	5.0
113.502	5.0
113.517	3.0
113.532	3.0
113.547	1.0
113.562	2.0
113.576	2.0
113.591	3.0
113.606	1.0
113.621	5.0
113.636	4.0
113.651	1.0
113.666	5.0
113.681	0.0
113.695	2.0
113.71	6.0
113.725	3.0
113.74	3.0
113.755	1.0
113.77	3.0
113.785	8.0
113.8	0.0
113.814	3.0
113.829	4.0
113.844	2.0
113.859	1.0
113.874	4.0
113.889	9.0
113.904	3.0
113.919	3.0
113.934	4.0
113.949	1.0
113.963	1.0
113.978	5.0
113.993	4.0
114.008	1.0
114.023	3.0
114.038	8.0
114.053	5.0
114.068	5.0
114.083	1.0
114.098	3.0
114.113	5.0
114.127	1.0
114.142	1.0
114.157	4.0
114.172	1.0
114.187	3.0
114.202	1.0
114.217	4.0
114.232	2.0
114.247	8.0
114.262	2.0
114.277	2.0
114.292	5.0
114.307	1.0
114.322	2.0
114.337	3.0
114.351	6.0
114.366	6.0
114.381	3.0
114.396	3.0
114.411	4.0
114.426	5.0
114.441	2.0
114.456	3.0
114.471	1.0
114.486	2.0
114.501	6.0
114.516	4.0
114.531	4.0
114.546	3.0
114.561	4.0
114.576	2.0
114.591	2.0
114.606	0.0
114.621	6.0
114.636	2.0
114.65	4.0
114.665	2.0
114.68	2.0
114.695	4.0
114.71	2.0
114.725	6.0
114.74	8.0
114.755	3.0
114.77	2.0
114.785	6.0
114.8	1.0
114.815	1.0
114.83	3.0
114.845	2.0
114.86	4.0
114.875	0.0
114.89	7.0
114.905	0.0
114.92	4.0
114.935	2.0
114.95	3.0
114.965	1.0
114.98	4.0
114.995	5.0
115.009	5.0
115.024	1.0
115.039	6.0
115.054	3.0
115.069	3.0
115.084	6.0
115.099	3.0
115.114	6.0
115.129	3.0
115.144	3.0
115.159	3.0
115.174	4.0
115.189	3.0
115.204	4.0
115.219	5.0
115.234	7.0
115.249	2.0
115.264	7.0
115.279	5.0
115.294	0.0
115.309	2.0
115.323	3.0
115.338	1.0
115.353	5.0
115.368	3.0
115.383	6.0
115.398	3.0
115.413	8.0
115.428	5.0
115.443	1.0
115.458	3.0
115.473	1.0
115.488	2.0
115.503	1.0
115.518	3.0
115.533	5.0
115.548	2.0
115.562	4.0
115.577	1.0
115.592	5.0
115.607	6.0
115.622	4.0
115.637	2.0
115.652	3.0
115.667	5.0
115.682	2.0
115.697	1.0
115.712	4.0
115.727	7.0
115.741	1.0
115.756	1.0
115.771	3.0
115.786	2.0
115.801	8.0
115.816	3.0
115.831	4.0
115.846	4.0
115.861	6.0
115.875	4.0
115.89	1.0
115.905	2.0
115.92	6.0
115.935	1.0
115.95	2.0
115.965	5.0
115.98	5.0
115.995	8.0
116.009	4.0
116.024	4.0
116.039	7.0
116.054	4.0
116.069	5.0
116.084	2.0
116.099	2.0
116.113	0.0
116.128	5.0
116.143	7.0
116.158	4.0
116.173	4.0
116.188	3.0
116.202	2.0
116.217	1.0
116.232	7.0
116.247	7.0
116.262	3.0
116.277	4.0
116.291	1.0
116.306	2.0
116.321	7.0
116.336	7.0
116.351	5.0
116.366	4.0
116.38	3.0
116.395	2.0
116.41	6.0
116.425	3.0
116.44	3.0
116.454	4.0
116.469	4.0
116.484	1.0
116.499	6.0
116.514	4.0
116.528	4.0
116.543	5.0
116.558	3.0
116.573	5.0
116.588	6.0
116.602	2.0
116.617	7.0
116.632	2.0
116.647	3.0
116.662	1.0
116.676	6.0
116.691	7.0
116.706	3.0
116.721	10.0
116.735	5.0
116.75	4.0
116.765	9.0
116.78	3.0
116.795	4.0
116.809	3.0
116.824	3.0
116.839	7.0
116.854	3.0
116.868	1.0
116.883	4.0
116.898	3.0
116.913	1.0
116.927	4.0
116.942	1.0
116.957	2.0
116.972	1.0
116.986	2.0
117.001	9.0
117.016	3.0
117.031	3.0
117.045	7.0
117.06	4.0
117.075	6.0
117.09	3.0
117.104	3.0
117.119	3.0
117.134	5.0
117.149	0.0
117.163	2.0
117.178	5.0
117.193	4.0
117.208	5.0
117.222	6.0
117.237	0.0
117.252	3.0
117.267	4.0
117.281	6.0
117.296	3.0
117.311	7.0
117.325	4.0
117.34	4.0
117.355	6.0
117.37	3.0
117.384	3.0
117.399	7.0
117.414	5.0
117.429	6.0
117.443	3.0
117.458	0.0
117.473	2.0
117.487	3.0
117.502	1.0
117.517	5.0
117.532	7.0
117.546	4.0
117.561	4.0
117.576	3.0
117.59	2.0
117.605	1.0
117.62	2.0
117.635	5.0
117.649	3.0
117.664	4.0
117.679	2.0
117.693	2.0
117.708	4.0
117.723	6.0
117.738	1.0
117.752	5.0
117.767	3.0
117.782	5.0
117.796	8.0
117.811	1.0
117.826	3.0
117.841	1.0
117.855	2.0
117.87	2.0
117.885	2.0
117.899	2.0
117.914	2.0
117.929	2.0
117.944	3.0
117.958	3.0
117.973	2.0
117.988	2.0
118.002	3.0
118.017	1.0
118.032	3.0
118.047	2.0
118.062	1.0
118.077	2.0
118.092	6.0
118.107	1.0
118.121	5.0
118.136	6.0
118.151	3.0
118.166	3.0
118.181	3.0
118.196	4.0
118.211	5.0
118.225	1.0
118.24	4.0
118.255	6.0
118.27	5.0
118.285	3.0
118.3	5.0
118.315	5.0
118.33	9.0
118.344	5.0
118.359	0.0
118.374	4.0
118.389	4.0
118.404	1.0
118.419	1.0
118.434	4.0
118.449	6.0
118.463	2.0
118.478	2.0
118.493	5.0
118.508	3.0
118.523	5.0
118.538	2.0
118.553	3.0
118.567	2.0
118.582	2.0
118.597	3.0
118.612	5.0
118.627	5.0
118.642	2.0
118.657	4.0
118.672	5.0
118.686	3.0
118.701	2.0
118.716	0.0
118.731	6.0
118.746	5.0
118.761	2.0
118.776	2.0
118.791	3.0
118.805	6.0
118.82	2.0
118.835	3.0
118.85	3.0
118.865	2.0
118.88	3.0
118.895	3.0
118.909	3.0
118.924	2.0
118.939	4.0
118.954	5.0
118.969	6.0
118.984	1.0
118.999	2.0
119.014	2.0
119.028	3.0
119.043	5.0
119.058	0.0
119.073	0.0
119.088	1.0
119.103	4.0
119.118	6.0
119.133	5.0
119.147	2.0
119.162	1.0
119.177	1.0
119.192	2.0
119.207	3.0
119.222	2.0
119.237	4.0
119.251	1.0
119.266	8.0
119.281	6.0
119.296	3.0
119.311	6.0
119.326	4.0
119.341	4.0
119.356	4.0
119.37	4.0
119.385	1.0
119.4	7.0
119.415	6.0
119.43	5.0
119.445	4.0
119.46	3.0
119.475	8.0
119.489	8.0
119.504	7.0
119.519	2.0
119.534	3.0
119.549	3.0
119.564	0.0
119.579	5.0
119.593	8.0
119.608	6.0
119.623	3.0
119.638	4.0
119.653	2.0
119.668	1.0
119.683	1.0
119.698	3.0
119.712	3.0
119.727	5.0
119.742	7.0
119.757	1.0
119.772	1.0
119.787	5.0
119.802	7.0
119.817	3.0
119.831	10.0
119.846	2.0
119.861	3.0
119.876	3.0
119.891	1.0
119.906	6.0
119.921	3.0
119.935	2.0
119.95	3.0
119.965	6.0
119.98	3.0
119.995	2.0
120.01	2.0
120.025	2.0
120.04	0.0
120.054	0.0
120.069	1.0
120.084	2.0
120.099	1.0
120.114	1.0
120.129	0.0
120.144	4.0
120.159	0.0
120.173	5.0
120.188	2.0
120.203	0.0
120.218	2.0
120.233	3.0
120.248	3.0
120.263	0.0
120.277	0.0
120.292	1.0
120.307	0.0
120.322	0.0
120.337	0.0
120.352	1.0
120.367	1.0
120.382	0.0
120.396	0.0
120.411	0.0
120.426	1.0
120.441	0.0
120.456	0.0
120.471	0.0
120.486	0.0
120.501	0.0
120.515	1.0
120.53	0.0
120.545	0.0
120.56	0.0
120.575	0.0
120.59	0.0
120.605	0.0
120.619	2.0
120.634	1.0
120.649	0.0
120.664	0.0
120.679	0.0
120.694	0.0
120.709	0.0
120.724	0.0
120.738	0.0
120.753	0.0
120.768	0.0
120.783	0.0
120.798	0.0
120.813	0.0
120.828	0.0
120.843	0.0
120.857	0.0
120.872	0.0
120.887	0.0
120.902	0.0
120.917	0.0
120.932	0.0
120.947	0.0
120.961	1.0
120.976	0.0
