-1.217	0.0
-1.202	0.0
-1.187	0.0
-1.172	0.0
-1.157	1.0
-1.142	0.0
-1.128	1.0
-1.113	0.0
-1.098	0.0
-1.083	0.0
-1.068	0.0
-1.054	1.0
-1.039	0.0
-1.024	0.0
-1.009	0.0
-0.994	0.0
-0.979	0.0
-0.965	0.0
-0.95	0.0
-0.935	0.0
-0.92	0.0
-0.905	0.0
-0.891	0.0
-0.876	0.0
-0.861	0.0
-0.846	0.0
-0.831	0.0
-0.816	0.0
-0.802	0.0
-0.787	0.0
-0.772	0.0
-0.757	0.0
-0.742	0.0
-0.728	0.0
-0.713	0.0
-0.698	0.0
-0.683	0.0
-0.668	0.0
-0.653	0.0
-0.639	0.0
-0.624	0.0
-0.609	0.0
-0.594	0.0
-0.579	0.0
-0.565	0.0
-0.55	0.0
-0.535	0.0
-0.52	0.0
-0.505	0.0
-0.49	0.0
-0.476	0.0
-0.461	0.0
-0.446	0.0
-0.431	0.0
-0.416	0.0
-0.401	0.0
-0.387	0.0
-0.372	0.0
-0.357	0.0
-0.342	0.0
-0.327	1.0
-0.313	0.0
-0.298	0.0
-0.283	0.0
-0.268	0.0
-0.253	0.0
-0.238	0.0
-0.224	0.0
-0.209	0.0
-0.194	0.0
-0.179	0.0
-0.164	0.0
-0.15	0.0
-0.135	0.0
-0.12	0.0
-0.105	0.0
-0.09	0.0
-0.075	0.0
-0.061	0.0
-0.046	0.0
-0.031	0.0
-0.016	0.0
-0.001	0.0
0.013	0.0
0.028	0.0
0.043	0.0
0.058	0.0
0.073	0.0
0.088	0.0
0.102	0.0
0.117	0.0
0.132	0.0
0.147	0.0
0.162	0.0
0.176	0.0
0.191	0.0
0.206	0.0
0.221	0.0
0.236	0.0
0.251	0.0
0.265	0.0
0.28	0.0
0.295	0.0
0.31	0.0
0.325	1.0
0.339	0.0
0.354	0.0
0.369	0.0
0.384	0.0
0.399	0.0
0.414	0.0
0.428	0.0
0.443	0.0
0.458	0.0
0.473	0.0
0.488	0.0
0.502	0.0
0.517	0.0
0.532	0.0
0.547	0.0
0.562	1.0
0.577	0.0
0.591	0.0
0.606	0.0
0.621	0.0
0.636	0.0
0.651	0.0
0.665	0.0
0.68	0.0
0.695	0.0
0.71	0.0
0.725	0.0
0.74	0.0
0.754	0.0
0.769	0.0
0.784	0.0
0.799	0.0
0.814	0.0
0.828	0.0
0.843	0.0
0.858	0.0
0.873	0.0
0.888	0.0
0.903	0.0
0.917	0.0
0.932	0.0
0.947	1.0
0.962	0.0
0.977	0.0
0.991	0.0
1.006	0.0
1.021	0.0
1.036	0.0
1.051	0.0
1.065	0.0
1.08	0.0
1.095	0.0
1.11	0.0
1.125	0.0
1.14	0.0
1.154	0.0
1.169	0.0
1.184	0.0
1.199	0.0
1.214	0.0
1.228	0.0
1.243	0.0
1.258	0.0
1.273	0.0
1.288	0.0
1.302	0.0
1.317	0.0
1.332	0.0
1.347	0.0
1.362	0.0
1.376	0.0
1.391	0.0
1.406	0.0
1.421	0.0
1.436	0.0
1.45	0.0
1.465	0.0
1.48	0.0
1.495	0.0
1.51	0.0
1.524	0.0
1.539	0.0
1.554	0.0
1.569	0.0
1.584	0.0
1.598	0.0
1.613	0.0
1.628	0.0
1.643	0.0
1.658	0.0
1.672	0.0
1.687	0.0
1.702	0.0
1.717	0.0
1.732	0.0
1.746	0.0
1.761	0.0
1.776	0.0
1.791	0.0
1.806	0.0
1.82	0.0
1.835	0.0
1.85	0.0
1.865	0.0
1.88	0.0
1.894	1.0
1.909	0.0
1.924	0.0
1.939	0.0
1.954	0.0
1.968	0.0
1.983	0.0
1.998	1.0
2.013	0.0
2.028	0.0
2.042	0.0
2.057	1.0
2.072	0.0
2.087	0.0
2.101	0.0
2.116	0.0
2.131	0.0
2.146	0.0
2.161	1.0
2.175	0.0
2.19	0.0
2.205	0.0
2.22	0.0
2.235	0.0
2.249	0.0
2.264	0.0
2.279	0.0
2.294	3.0
2.308	3.0
2.323	1.0
2.338	0.0
2.353	1.0
2.368	2.0
2.382	0.0
2.397	0.0
2.412	0.0
2.427	2.0
2.442	0.0
2.456	1.0
2.471	2.0
2.486	1.0
2.501	2.0
2.515	4.0
2.53	0.0
2.545	6.0
2.56	2.0
2.575	2.0
2.589	1.0
2.604	1.0
2.619	2.0
2.634	6.0
2.649	1.0
2.663	3.0
2.678	3.0
2.693	1.0
2.708	2.0
2.722	1.0
2.737	2.0
2.752	2.0
2.767	3.0
2.782	4.0
2.796	3.0
2.811	1.0
2.826	1.0
2.841	4.0
2.856	5.0
2.87	3.0
2.885	5.0
2.9	5.0
2.915	2.0
2.93	9.0
2.944	2.0
2.959	7.0
2.974	3.0
2.989	2.0
3.004	5.0
3.018	4.0
3.033	5.0
3.048	7.0
3.063	3.0
3.078	5.0
3.092	1.0
3.107	6.0
3.122	2.0
3.137	4.0
3.152	6.0
3.166	3.0
3.181	7.0
3.196	1.0
3.211	5.0
3.226	1.0
3.24	4.0
3.255	4.0
3.27	5.0
3.285	7.0
3.3	3.0
3.315	5.0
3.329	3.0
3.344	6.0
3.359	4.0
3.374	5.0
3.389	5.0
3.403	2.0
3.418	4.0
3.433	2.0
3.448	5.0
3.463	6.0
3.478	6.0
3.492	7.0
3.507	3.0
3.522	4.0
3.537	5.0
3.552	2.0
3.567	7.0
3.581	10.0
3.596	2.0
3.611	6.0
3.626	3.0
3.641	7.0
3.656	9.0
3.671	7.0
3.685	10.0
3.7	5.0
3.715	5.0
3.73	10.0
3.745	3.0
3.76	6.0
3.775	0.0
3.789	10.0
3.804	8.0
3.819	7.0
3.834	6.0
3.849	4.0
3.864	6.0
3.879	5.0
3.894	2.0
3.908	6.0
3.923	8.0
3.938	8.0
3.953	3.0
3.968	6.0
3.983	7.0
3.998	6.0
4.013	5.0
4.027	8.0
4.042	9.0
4.057	2.0
4.072	5.0
4.087	7.0
4.102	9.0
4.117	6.0
4.132	6.0
4.147	11.0
4.162	5.0
4.176	9.0
4.191	2.0
4.206	4.0
4.221	11.0
4.236	8.0
4.251	5.0
4.266	8.0
4.281	8.0
4.296	7.0
4.311	6.0
4.326	8.0
4.341	3.0
4.356	4.0
4.37	8.0
4.385	10.0
4.4	5.0
4.415	6.0
4.43	5.0
4.445	3.0
4.46	8.0
4.475	7.0
4.49	6.0
4.505	4.0
4.52	5.0
4.535	8.0
4.55	8.0
4.565	9.0
4.58	7.0
4.595	8.0
4.61	5.0
4.625	8.0
4.639	7.0
4.654	7.0
4.669	4.0
4.684	6.0
4.699	5.0
4.714	7.0
4.729	7.0
4.744	5.0
4.759	6.0
4.774	7.0
4.789	7.0
4.804	7.0
4.819	8.0
4.834	11.0
4.849	9.0
4.864	5.0
4.879	5.0
4.894	5.0
4.909	13.0
4.924	11.0
4.939	6.0
4.954	8.0
4.969	6.0
4.984	8.0
4.999	5.0
5.014	9.0
5.029	5.0
5.044	6.0
5.059	9.0
5.074	4.0
5.089	4.0
5.104	6.0
5.119	9.0
5.134	7.0
5.149	8.0
5.164	4.0
5.179	8.0
5.194	2.0
5.209	8.0
5.224	6.0
5.239	7.0
5.254	8.0
5.269	2.0
5.284	8.0
5.299	6.0
5.314	6.0
5.329	4.0
5.344	8.0
5.359	6.0
5.374	14.0
5.389	5.0
5.404	13.0
5.419	13.0
5.434	8.0
5.449	6.0
5.464	13.0
5.479	8.0
5.494	6.0
5.509	6.0
5.524	6.0
5.539	16.0
5.554	5.0
5.569	9.0
5.584	9.0
5.599	6.0
5.614	7.0
5.629	8.0
5.644	9.0
5.659	6.0
5.674	9.0
5.689	6.0
5.704	7.0
5.719	4.0
5.734	6.0
5.749	9.0
5.764	8.0
5.779	7.0
5.794	11.0
5.809	4.0
5.824	9.0
5.839	5.0
5.854	9.0
5.869	9.0
5.884	12.0
5.899	6.0
5.914	4.0
5.929	10.0
5.944	12.0
5.959	4.0
5.974	9.0
5.989	5.0
6.004	5.0
6.019	8.0
6.034	6.0
6.049	5.0
6.064	8.0
6.079	11.0
6.094	6.0
6.109	9.0
6.124	11.0
6.139	8.0
6.154	9.0
6.169	10.0
6.184	12.0
6.199	8.0
6.214	8.0
6.229	9.0
6.244	8.0
6.259	5.0
6.274	12.0
6.289	10.0
6.304	7.0
6.319	12.0
6.334	11.0
6.349	10.0
6.364	8.0
6.379	12.0
6.394	7.0
6.409	9.0
6.424	10.0
6.439	6.0
6.454	7.0
6.469	8.0
6.484	9.0
6.499	8.0
6.514	5.0
6.529	9.0
6.544	5.0
6.559	1.0
6.574	8.0
6.589	5.0
6.604	12.0
6.619	10.0
6.634	10.0
6.649	9.0
6.664	13.0
6.679	8.0
6.694	16.0
6.709	13.0
6.724	13.0
6.739	10.0
6.754	10.0
6.769	12.0
6.784	11.0
6.799	12.0
6.814	6.0
6.829	12.0
6.844	5.0
6.859	8.0
6.873	10.0
6.888	9.0
6.903	7.0
6.918	7.0
6.933	7.0
6.948	4.0
6.963	10.0
6.978	4.0
6.993	10.0
7.008	8.0
7.023	7.0
7.038	6.0
7.053	8.0
7.068	7.0
7.083	10.0
7.098	6.0
7.113	5.0
7.128	8.0
7.143	9.0
7.157	7.0
7.172	11.0
7.187	9.0
7.202	12.0
7.217	13.0
7.232	8.0
7.247	6.0
7.262	4.0
7.277	4.0
7.292	7.0
7.307	8.0
7.322	9.0
7.336	18.0
7.351	9.0
7.366	10.0
7.381	10.0
7.396	8.0
7.411	10.0
7.426	12.0
7.441	11.0
7.456	7.0
7.471	10.0
7.485	10.0
7.5	9.0
7.515	13.0
7.53	16.0
7.545	9.0
7.56	8.0
7.575	13.0
7.59	9.0
7.604	7.0
7.619	9.0
7.634	8.0
7.649	9.0
7.664	8.0
7.679	7.0
7.693	7.0
7.708	5.0
7.723	6.0
7.738	7.0
7.753	6.0
7.768	9.0
7.783	6.0
7.797	10.0
7.812	7.0
7.827	6.0
7.842	5.0
7.857	5.0
7.871	9.0
7.886	12.0
7.901	4.0
7.916	7.0
7.931	12.0
7.945	8.0
7.96	10.0
7.975	7.0
7.99	8.0
8.005	12.0
8.019	8.0
8.034	11.0
8.049	6.0
8.064	10.0
8.078	5.0
8.093	6.0
8.108	11.0
8.123	12.0
8.137	9.0
8.152	7.0
8.167	12.0
8.182	10.0
8.196	11.0
8.211	7.0
8.226	16.0
8.241	11.0
8.255	8.0
8.27	10.0
8.285	7.0
8.3	8.0
8.314	13.0
8.329	4.0
8.344	7.0
8.358	11.0
8.373	8.0
8.388	12.0
8.403	8.0
8.417	10.0
8.432	6.0
8.447	9.0
8.461	8.0
8.476	8.0
8.491	9.0
8.505	11.0
8.52	7.0
8.535	7.0
8.55	11.0
8.564	9.0
8.579	4.0
8.594	3.0
8.608	5.0
8.623	8.0
8.638	9.0
8.652	9.0
8.667	9.0
8.682	10.0
8.696	14.0
8.711	9.0
8.726	8.0
8.74	6.0
8.755	8.0
8.77	8.0
8.784	4.0
8.799	10.0
8.814	11.0
8.828	6.0
8.843	12.0
8.858	15.0
8.872	11.0
8.887	8.0
8.902	11.0
8.916	3.0
8.931	8.0
8.946	10.0
8.96	6.0
8.975	13.0
8.99	8.0
9.004	13.0
9.019	8.0
9.034	12.0
9.048	5.0
9.063	5.0
9.077	5.0
9.092	8.0
9.107	11.0
9.121	7.0
9.136	10.0
9.151	7.0
9.165	14.0
9.18	6.0
9.195	11.0
9.209	13.0
9.224	9.0
9.239	11.0
9.253	11.0
9.268	9.0
9.283	12.0
9.297	9.0
9.312	13.0
9.327	10.0
9.341	15.0
9.356	9.0
9.371	14.0
9.385	8.0
9.4	7.0
9.415	9.0
9.429	11.0
9.444	7.0
9.458	7.0
9.473	7.0
9.488	8.0
9.502	11.0
9.517	6.0
9.532	4.0
9.546	8.0
9.561	13.0
9.576	10.0
9.59	6.0
9.605	6.0
9.62	8.0
9.635	7.0
9.649	7.0
9.664	5.0
9.679	8.0
9.693	6.0
9.708	8.0
9.723	10.0
9.737	5.0
9.752	7.0
9.767	10.0
9.781	10.0
9.796	11.0
9.811	14.0
9.825	5.0
9.84	8.0
9.855	10.0
9.87	5.0
9.884	7.0
9.899	13.0
9.914	9.0
9.928	5.0
9.943	13.0
9.958	5.0
9.973	9.0
9.987	3.0
10.002	12.0
10.017	9.0
10.031	7.0
10.046	4.0
10.061	10.0
10.076	6.0
10.09	12.0
10.105	3.0
10.12	7.0
10.135	8.0
10.149	6.0
10.164	9.0
10.179	9.0
10.194	10.0
10.208	7.0
10.223	8.0
10.238	13.0
10.253	5.0
10.267	7.0
10.282	6.0
10.297	10.0
10.312	14.0
10.326	7.0
10.341	3.0
10.356	12.0
10.371	6.0
10.386	10.0
10.4	7.0
10.415	5.0
10.43	4.0
10.445	8.0
10.46	3.0
10.474	7.0
10.489	9.0
10.504	8.0
10.519	8.0
10.533	5.0
10.548	10.0
10.563	10.0
10.578	6.0
10.593	7.0
10.608	5.0
10.622	11.0
10.637	7.0
10.652	7.0
10.667	5.0
10.682	13.0
10.696	8.0
10.711	5.0
10.726	8.0
10.741	8.0
10.756	6.0
10.771	11.0
10.785	7.0
10.8	7.0
10.815	5.0
10.83	6.0
10.845	14.0
10.86	3.0
10.874	3.0
10.889	11.0
10.904	6.0
10.919	7.0
10.934	10.0
10.949	9.0
10.963	8.0
10.978	5.0
10.993	13.0
11.008	5.0
11.023	10.0
11.038	10.0
11.053	7.0
11.067	6.0
11.082	8.0
11.097	8.0
11.112	8.0
11.127	8.0
11.142	9.0
11.157	10.0
11.172	13.0
11.186	3.0
11.201	7.0
11.216	7.0
11.231	5.0
11.246	10.0
11.261	10.0
11.276	5.0
11.291	6.0
11.305	7.0
11.32	6.0
11.335	8.0
11.35	7.0
11.365	4.0
11.38	10.0
11.395	11.0
11.41	6.0
11.424	16.0
11.439	5.0
11.454	8.0
11.469	7.0
11.484	9.0
11.499	9.0
11.514	7.0
11.529	8.0
11.544	11.0
11.558	5.0
11.573	10.0
11.588	6.0
11.603	4.0
11.618	7.0
11.633	9.0
11.648	9.0
11.663	6.0
11.678	8.0
11.693	10.0
11.707	8.0
11.722	10.0
11.737	12.0
11.752	8.0
11.767	5.0
11.782	11.0
11.797	7.0
11.812	10.0
11.827	13.0
11.842	9.0
11.856	6.0
11.871	3.0
11.886	8.0
11.901	11.0
11.916	9.0
11.931	13.0
11.946	12.0
11.961	7.0
11.976	9.0
11.991	7.0
12.006	5.0
12.02	12.0
12.035	7.0
12.05	7.0
12.065	6.0
12.08	1.0
12.095	7.0
12.11	11.0
12.125	11.0
12.14	9.0
12.155	12.0
12.17	10.0
12.184	8.0
12.199	18.0
12.214	12.0
12.229	4.0
12.244	8.0
12.259	12.0
12.274	11.0
12.289	14.0
12.304	8.0
12.319	11.0
12.334	18.0
12.348	14.0
12.363	7.0
12.378	9.0
12.393	4.0
12.408	15.0
12.423	17.0
12.438	11.0
12.453	12.0
12.468	13.0
12.483	8.0
12.498	13.0
12.513	6.0
12.527	17.0
12.542	22.0
12.557	11.0
12.572	10.0
12.587	24.0
12.602	12.0
12.617	11.0
12.632	12.0
12.647	15.0
12.662	7.0
12.677	16.0
12.692	12.0
12.707	16.0
12.721	13.0
12.736	18.0
12.751	14.0
12.766	20.0
12.781	17.0
12.796	21.0
12.811	11.0
12.826	16.0
12.841	18.0
12.856	17.0
12.871	16.0
12.886	17.0
12.9	11.0
12.915	13.0
12.93	19.0
12.945	17.0
12.96	16.0
12.975	20.0
12.99	17.0
13.005	24.0
13.02	21.0
13.035	20.0
13.05	15.0
13.065	16.0
13.08	15.0
13.094	15.0
13.109	14.0
13.124	17.0
13.139	20.0
13.154	15.0
13.169	15.0
13.184	22.0
13.199	25.0
13.214	18.0
13.229	22.0
13.244	12.0
13.259	21.0
13.274	22.0
13.288	21.0
13.303	18.0
13.318	19.0
13.333	35.0
13.348	16.0
13.363	24.0
13.378	11.0
13.393	27.0
13.408	33.0
13.423	27.0
13.438	28.0
13.453	34.0
13.468	36.0
13.482	34.0
13.497	31.0
13.512	43.0
13.527	39.0
13.542	50.0
13.557	38.0
13.572	41.0
13.587	49.0
13.602	52.0
13.617	49.0
13.632	71.0
13.647	85.0
13.662	75.0
13.677	82.0
13.691	74.0
13.706	94.0
13.721	79.0
13.736	109.0
13.751	105.0
13.766	100.0
13.781	123.0
13.796	120.0
13.811	132.0
13.826	117.0
13.841	129.0
13.856	102.0
13.871	106.0
13.885	115.0
13.9	84.0
13.915	64.0
13.93	57.0
13.945	52.0
13.96	53.0
13.975	30.0
13.99	36.0
14.005	40.0
14.02	32.0
14.035	32.0
14.05	30.0
14.065	21.0
14.08	22.0
14.094	30.0
14.109	22.0
14.124	18.0
14.139	19.0
14.154	23.0
14.169	21.0
14.184	26.0
14.199	29.0
14.214	24.0
14.229	21.0
14.244	20.0
14.259	21.0
14.274	19.0
14.288	12.0
14.303	18.0
14.318	18.0
14.333	19.0
14.348	21.0
14.363	24.0
14.378	16.0
14.393	17.0
14.408	14.0
14.423	14.0
14.438	14.0
14.453	17.0
14.468	16.0
14.482	15.0
14.497	17.0
14.512	14.0
14.527	14.0
14.542	16.0
14.557	17.0
14.572	17.0
14.587	13.0
14.602	11.0
14.617	16.0
14.632	12.0
14.647	24.0
14.661	13.0
14.676	14.0
14.691	15.0
14.706	14.0
14.721	16.0
14.736	23.0
14.751	18.0
14.766	21.0
14.781	14.0
14.796	18.0
14.811	15.0
14.826	11.0
14.84	18.0
14.855	14.0
14.87	22.0
14.885	22.0
14.9	19.0
14.915	19.0
14.93	22.0
14.945	11.0
14.96	16.0
14.975	8.0
14.989	16.0
15.004	15.0
15.019	15.0
15.034	12.0
15.049	19.0
15.064	19.0
15.079	12.0
15.094	4.0
15.109	15.0
15.124	17.0
15.138	10.0
15.153	17.0
15.168	10.0
15.183	14.0
15.198	14.0
15.213	20.0
15.228	20.0
15.243	16.0
15.258	17.0
15.272	14.0
15.287	13.0
15.302	12.0
15.317	14.0
15.332	11.0
15.347	11.0
15.362	15.0
15.377	8.0
15.391	14.0
15.406	14.0
15.421	23.0
15.436	14.0
15.451	18.0
15.466	15.0
15.481	13.0
15.496	12.0
15.51	15.0
15.525	11.0
15.54	13.0
15.555	18.0
15.57	20.0
15.585	8.0
15.6	13.0
15.614	13.0
15.629	20.0
15.644	8.0
15.659	13.0
15.674	10.0
15.689	10.0
15.704	13.0
15.718	10.0
15.733	13.0
15.748	17.0
15.763	19.0
15.778	9.0
15.793	15.0
15.808	19.0
15.822	9.0
15.837	29.0
15.852	15.0
15.867	8.0
15.882	13.0
15.897	17.0
15.911	12.0
15.926	10.0
15.941	16.0
15.956	13.0
15.971	19.0
15.986	8.0
16.0	14.0
16.015	12.0
16.03	6.0
16.045	12.0
16.06	10.0
16.074	14.0
16.089	12.0
16.104	14.0
16.119	7.0
16.134	15.0
16.149	10.0
16.163	16.0
16.178	16.0
16.193	17.0
16.208	12.0
16.223	16.0
16.237	11.0
16.252	11.0
16.267	12.0
16.282	15.0
16.297	14.0
16.311	11.0
16.326	11.0
16.341	11.0
16.356	20.0
16.37	13.0
16.385	18.0
16.4	18.0
16.415	13.0
16.43	22.0
16.444	13.0
16.459	14.0
16.474	13.0
16.489	13.0
16.504	16.0
16.518	12.0
16.533	13.0
16.548	14.0
16.563	16.0
16.577	14.0
16.592	16.0
16.607	11.0
16.622	18.0
16.637	14.0
16.651	23.0
16.666	27.0
16.681	22.0
16.696	17.0
16.71	41.0
16.725	22.0
16.74	32.0
16.755	25.0
16.77	35.0
16.784	39.0
16.799	30.0
16.814	53.0
16.829	46.0
16.843	45.0
16.858	42.0
16.873	46.0
16.888	51.0
16.902	66.0
16.917	66.0
16.932	84.0
16.947	78.0
16.961	71.0
16.976	54.0
16.991	74.0
17.006	68.0
17.021	42.0
17.035	51.0
17.05	47.0
17.065	38.0
17.08	39.0
17.094	36.0
17.109	31.0
17.124	23.0
17.139	28.0
17.153	18.0
17.168	22.0
17.183	18.0
17.198	16.0
17.212	14.0
17.227	19.0
17.242	15.0
17.257	13.0
17.271	19.0
17.286	17.0
17.301	9.0
17.316	15.0
17.33	18.0
17.345	12.0
17.36	17.0
17.375	21.0
17.39	12.0
17.404	16.0
17.419	9.0
17.434	9.0
17.449	15.0
17.463	7.0
17.478	7.0
17.493	12.0
17.508	18.0
17.522	15.0
17.537	6.0
17.552	15.0
17.567	9.0
17.581	7.0
17.596	16.0
17.611	10.0
17.626	13.0
17.641	11.0
17.655	15.0
17.67	9.0
17.685	13.0
17.7	13.0
17.714	8.0
17.729	10.0
17.744	13.0
17.759	11.0
17.773	9.0
17.788	13.0
17.803	12.0
17.818	15.0
17.833	17.0
17.847	12.0
17.862	10.0
17.877	15.0
17.892	13.0
17.906	10.0
17.921	17.0
17.936	11.0
17.951	13.0
17.966	10.0
17.98	10.0
17.995	11.0
18.01	9.0
18.025	12.0
18.04	10.0
18.054	10.0
18.069	12.0
18.084	12.0
18.099	15.0
18.114	8.0
18.128	12.0
18.143	17.0
18.158	4.0
18.173	12.0
18.188	11.0
18.202	11.0
18.217	5.0
18.232	7.0
18.247	10.0
18.262	14.0
18.276	8.0
18.291	11.0
18.306	9.0
18.321	9.0
18.336	14.0
18.35	13.0
18.365	6.0
18.38	11.0
18.395	10.0
18.41	7.0
18.424	14.0
18.439	9.0
18.454	7.0
18.469	15.0
18.484	11.0
18.498	5.0
18.513	18.0
18.528	8.0
18.543	9.0
18.558	15.0
18.573	11.0
18.587	12.0
18.602	12.0
18.617	12.0
18.632	14.0
18.647	9.0
18.661	8.0
18.676	7.0
18.691	11.0
18.706	8.0
18.721	10.0
18.736	15.0
18.75	15.0
18.765	15.0
18.78	7.0
18.795	16.0
18.81	8.0
18.825	9.0
18.839	10.0
18.854	7.0
18.869	14.0
18.884	11.0
18.899	17.0
18.913	4.0
18.928	16.0
18.943	7.0
18.958	8.0
18.973	7.0
18.988	15.0
19.002	9.0
19.017	13.0
19.032	12.0
19.047	12.0
19.062	11.0
19.077	9.0
19.091	12.0
19.106	11.0
19.121	12.0
19.136	12.0
19.151	16.0
19.165	11.0
19.18	10.0
19.195	15.0
19.21	11.0
19.225	14.0
19.24	13.0
19.254	9.0
19.269	11.0
19.284	7.0
19.299	20.0
19.314	9.0
19.329	13.0
19.343	18.0
19.358	15.0
19.373	17.0
19.388	14.0
19.403	17.0
19.417	22.0
19.432	20.0
19.447	21.0
19.462	23.0
19.477	19.0
19.492	23.0
19.506	22.0
19.521	33.0
19.536	43.0
19.551	33.0
19.566	41.0
19.58	33.0
19.595	38.0
19.61	48.0
19.625	31.0
19.64	38.0
19.655	51.0
19.669	30.0
19.684	32.0
19.699	29.0
19.714	28.0
19.729	27.0
19.743	16.0
19.758	23.0
19.773	19.0
19.788	25.0
19.803	13.0
19.817	15.0
19.832	17.0
19.847	12.0
19.862	13.0
19.877	14.0
19.891	16.0
19.906	14.0
19.921	15.0
19.936	5.0
19.951	13.0
19.965	11.0
19.98	9.0
19.995	9.0
20.01	13.0
20.025	12.0
20.039	9.0
20.054	17.0
20.069	18.0
20.084	7.0
20.099	9.0
20.113	13.0
20.128	13.0
20.143	19.0
20.158	7.0
20.173	12.0
20.187	7.0
20.202	14.0
20.217	15.0
20.232	8.0
20.246	11.0
20.261	5.0
20.276	12.0
20.291	7.0
20.306	19.0
20.32	18.0
20.335	6.0
20.35	10.0
20.365	10.0
20.38	8.0
20.394	10.0
20.409	11.0
20.424	7.0
20.439	12.0
20.453	4.0
20.468	15.0
20.483	14.0
20.498	11.0
20.513	11.0
20.527	6.0
20.542	5.0
20.557	12.0
20.572	9.0
20.586	18.0
20.601	12.0
20.616	11.0
20.631	10.0
20.646	9.0
20.66	10.0
20.675	16.0
20.69	15.0
20.705	14.0
20.719	5.0
20.734	10.0
20.749	7.0
20.764	13.0
20.779	11.0
20.793	13.0
20.808	16.0
20.823	15.0
20.838	18.0
20.853	8.0
20.867	5.0
20.882	10.0
20.897	9.0
20.912	8.0
20.926	12.0
20.941	9.0
20.956	6.0
20.971	11.0
20.986	12.0
21.0	17.0
21.015	14.0
21.03	7.0
21.045	15.0
21.06	13.0
21.074	8.0
21.089	8.0
21.104	10.0
21.119	15.0
21.134	14.0
21.148	10.0
21.163	13.0
21.178	14.0
21.193	14.0
21.208	9.0
21.222	14.0
21.237	10.0
21.252	7.0
21.267	15.0
21.282	9.0
21.296	8.0
21.311	5.0
21.326	10.0
21.341	13.0
21.356	10.0
21.37	17.0
21.385	7.0
21.4	11.0
21.415	14.0
21.43	12.0
21.444	13.0
21.459	20.0
21.474	17.0
21.489	11.0
21.504	11.0
21.519	9.0
21.533	8.0
21.548	16.0
21.563	14.0
21.578	16.0
21.593	14.0
21.608	12.0
21.622	12.0
21.637	13.0
21.652	18.0
21.667	18.0
21.682	18.0
21.697	15.0
21.712	17.0
21.726	24.0
21.741	20.0
21.756	31.0
21.771	23.0
21.786	30.0
21.801	39.0
21.816	43.0
21.83	58.0
21.845	58.0
21.86	61.0
21.875	70.0
21.89	69.0
21.905	58.0
21.92	51.0
21.935	69.0
21.949	70.0
21.964	77.0
21.979	93.0
21.994	83.0
22.009	67.0
22.024	68.0
22.039	56.0
22.054	57.0
22.069	47.0
22.083	50.0
22.098	40.0
22.113	30.0
22.128	32.0
22.143	29.0
22.158	22.0
22.173	20.0
22.188	26.0
22.203	22.0
22.218	14.0
22.233	7.0
22.248	19.0
22.262	9.0
22.277	13.0
22.292	16.0
22.307	11.0
22.322	10.0
22.337	7.0
22.352	12.0
22.367	19.0
22.382	16.0
22.397	7.0
22.412	13.0
22.427	13.0
22.442	16.0
22.457	12.0
22.472	11.0
22.487	13.0
22.502	15.0
22.516	12.0
22.531	14.0
22.546	13.0
22.561	12.0
22.576	4.0
22.591	14.0
22.606	9.0
22.621	10.0
22.636	13.0
22.651	10.0
22.666	13.0
22.681	10.0
22.696	12.0
22.711	9.0
22.726	3.0
22.741	15.0
22.756	9.0
22.771	9.0
22.786	8.0
22.801	5.0
22.816	11.0
22.831	9.0
22.846	7.0
22.861	9.0
22.876	12.0
22.891	12.0
22.906	8.0
22.92	12.0
22.935	16.0
22.95	14.0
22.965	13.0
22.98	6.0
22.995	7.0
23.01	8.0
23.025	11.0
23.04	8.0
23.055	7.0
23.07	12.0
23.085	8.0
23.1	5.0
23.115	11.0
23.13	6.0
23.145	11.0
23.16	9.0
23.175	12.0
23.19	7.0
23.205	7.0
23.22	12.0
23.235	10.0
23.25	11.0
23.265	10.0
23.28	15.0
23.295	7.0
23.31	10.0
23.325	6.0
23.34	12.0
23.355	7.0
23.37	10.0
23.384	9.0
23.399	8.0
23.414	8.0
23.429	11.0
23.444	15.0
23.459	7.0
23.474	6.0
23.489	6.0
23.504	8.0
23.519	7.0
23.534	9.0
23.549	11.0
23.564	13.0
23.579	15.0
23.594	6.0
23.609	7.0
23.624	10.0
23.639	8.0
23.654	7.0
23.668	13.0
23.683	12.0
23.698	10.0
23.713	10.0
23.728	14.0
23.743	13.0
23.758	12.0
23.773	9.0
23.788	18.0
23.803	14.0
23.818	7.0
23.833	9.0
23.848	17.0
23.862	13.0
23.877	13.0
23.892	24.0
23.907	18.0
23.922	32.0
23.937	26.0
23.952	29.0
23.967	33.0
23.982	35.0
23.997	32.0
24.011	30.0
24.026	55.0
24.041	47.0
24.056	59.0
24.071	63.0
24.086	58.0
24.101	56.0
24.116	44.0
24.131	34.0
24.145	56.0
24.16	45.0
24.175	34.0
24.19	46.0
24.205	30.0
24.22	27.0
24.235	23.0
24.249	24.0
24.264	23.0
24.279	31.0
24.294	20.0
24.309	23.0
24.324	27.0
24.338	15.0
24.353	12.0
24.368	15.0
24.383	14.0
24.398	8.0
24.413	11.0
24.428	13.0
24.442	10.0
24.457	14.0
24.472	18.0
24.487	12.0
24.502	11.0
24.516	15.0
24.531	16.0
24.546	15.0
24.561	9.0
24.576	10.0
24.591	15.0
24.605	15.0
24.62	8.0
24.635	12.0
24.65	10.0
24.665	10.0
24.679	10.0
24.694	10.0
24.709	8.0
24.724	6.0
24.739	13.0
24.753	17.0
24.768	9.0
24.783	12.0
24.798	6.0
24.813	9.0
24.827	7.0
24.842	13.0
24.857	5.0
24.872	4.0
24.886	17.0
24.901	13.0
24.916	11.0
24.931	9.0
24.946	9.0
24.96	10.0
24.975	11.0
24.99	7.0
25.005	6.0
25.019	9.0
25.034	8.0
25.049	13.0
25.064	12.0
25.078	8.0
25.093	9.0
25.108	8.0
25.123	10.0
25.138	15.0
25.152	2.0
25.167	9.0
25.182	12.0
25.197	8.0
25.211	8.0
25.226	10.0
25.241	8.0
25.256	14.0
25.27	3.0
25.285	12.0
25.3	7.0
25.315	13.0
25.329	11.0
25.344	8.0
25.359	8.0
25.374	7.0
25.388	7.0
25.403	13.0
25.418	7.0
25.433	11.0
25.447	6.0
25.462	14.0
25.477	9.0
25.492	15.0
25.506	9.0
25.521	9.0
25.536	10.0
25.55	12.0
25.565	9.0
25.58	6.0
25.595	10.0
25.609	6.0
25.624	13.0
25.639	8.0
25.654	8.0
25.668	7.0
25.683	10.0
25.698	7.0
25.713	7.0
25.727	12.0
25.742	15.0
25.757	6.0
25.772	6.0
25.786	6.0
25.801	11.0
25.816	12.0
25.83	7.0
25.845	6.0
25.86	13.0
25.875	14.0
25.889	7.0
25.904	9.0
25.919	10.0
25.934	12.0
25.948	6.0
25.963	9.0
25.978	9.0
25.992	10.0
26.007	11.0
26.022	9.0
26.037	12.0
26.051	4.0
26.066	6.0
26.081	13.0
26.096	13.0
26.11	13.0
26.125	8.0
26.14	13.0
26.155	6.0
26.169	8.0
26.184	4.0
26.199	10.0
26.213	8.0
26.228	3.0
26.243	15.0
26.258	6.0
26.272	10.0
26.287	11.0
26.302	12.0
26.317	13.0
26.331	7.0
26.346	7.0
26.361	11.0
26.376	15.0
26.39	7.0
26.405	11.0
26.42	11.0
26.434	10.0
26.449	9.0
26.464	4.0
26.479	12.0
26.493	5.0
26.508	12.0
26.523	9.0
26.538	10.0
26.552	5.0
26.567	10.0
26.582	13.0
26.597	10.0
26.611	11.0
26.626	11.0
26.641	11.0
26.656	7.0
26.67	13.0
26.685	8.0
26.7	10.0
26.715	10.0
26.729	5.0
26.744	7.0
26.759	13.0
26.773	15.0
26.788	13.0
26.803	7.0
26.818	10.0
26.832	11.0
26.847	7.0
26.862	17.0
26.877	8.0
26.891	10.0
26.906	9.0
26.921	8.0
26.936	15.0
26.95	12.0
26.965	12.0
26.98	8.0
26.995	5.0
27.01	8.0
27.024	14.0
27.039	12.0
27.054	8.0
27.069	10.0
27.083	11.0
27.098	10.0
27.113	10.0
27.128	10.0
27.142	7.0
27.157	8.0
27.172	6.0
27.187	14.0
27.201	13.0
27.216	8.0
27.231	8.0
27.246	9.0
27.261	11.0
27.275	6.0
27.29	9.0
27.305	5.0
27.32	10.0
27.334	7.0
27.349	16.0
27.364	13.0
27.379	10.0
27.394	18.0
27.408	9.0
27.423	6.0
27.438	11.0
27.453	6.0
27.467	10.0
27.482	7.0
27.497	17.0
27.512	8.0
27.527	12.0
27.541	12.0
27.556	7.0
27.571	15.0
27.586	11.0
27.601	15.0
27.615	8.0
27.63	18.0
27.645	12.0
27.66	10.0
27.675	16.0
27.689	12.0
27.704	13.0
27.719	10.0
27.734	14.0
27.749	21.0
27.763	16.0
27.778	16.0
27.793	20.0
27.808	19.0
27.823	23.0
27.838	22.0
27.852	24.0
27.867	29.0
27.882	24.0
27.897	26.0
27.912	29.0
27.926	23.0
27.941	15.0
27.956	27.0
27.971	14.0
27.986	21.0
28.001	14.0
28.015	18.0
28.03	19.0
28.045	16.0
28.06	18.0
28.075	22.0
28.09	10.0
28.105	15.0
28.119	18.0
28.134	17.0
28.149	18.0
28.164	17.0
28.179	13.0
28.194	11.0
28.208	4.0
28.223	9.0
28.238	12.0
28.253	9.0
28.268	7.0
28.283	12.0
28.298	8.0
28.312	8.0
28.327	15.0
28.342	11.0
28.357	5.0
28.372	7.0
28.387	12.0
28.402	13.0
28.417	20.0
28.431	12.0
28.446	17.0
28.461	10.0
28.476	10.0
28.491	13.0
28.506	7.0
28.521	10.0
28.536	9.0
28.55	11.0
28.565	6.0
28.58	17.0
28.595	8.0
28.61	12.0
28.625	8.0
28.64	6.0
28.655	13.0
28.669	8.0
28.684	13.0
28.699	9.0
28.714	10.0
28.729	10.0
28.744	4.0
28.759	16.0
28.774	9.0
28.788	9.0
28.803	13.0
28.818	9.0
28.833	9.0
28.848	10.0
28.863	15.0
28.878	10.0
28.893	8.0
28.908	9.0
28.922	5.0
28.937	10.0
28.952	14.0
28.967	10.0
28.982	11.0
28.997	11.0
29.012	6.0
29.027	14.0
29.041	10.0
29.056	14.0
29.071	7.0
29.086	9.0
29.101	10.0
29.116	13.0
29.131	11.0
29.146	13.0
29.16	7.0
29.175	10.0
29.19	9.0
29.205	10.0
29.22	17.0
29.235	8.0
29.25	11.0
29.265	8.0
29.279	10.0
29.294	11.0
29.309	10.0
29.324	12.0
29.339	7.0
29.354	7.0
29.369	11.0
29.384	13.0
29.398	12.0
29.413	14.0
29.428	20.0
29.443	18.0
29.458	19.0
29.473	23.0
29.488	27.0
29.502	25.0
29.517	35.0
29.532	31.0
29.547	39.0
29.562	48.0
29.577	45.0
29.592	42.0
29.606	46.0
29.621	52.0
29.636	42.0
29.651	44.0
29.666	49.0
29.681	38.0
29.695	34.0
29.71	42.0
29.725	38.0
29.74	34.0
29.755	24.0
29.77	32.0
29.784	40.0
29.799	26.0
29.814	35.0
29.829	22.0
29.844	20.0
29.859	16.0
29.873	13.0
29.888	13.0
29.903	11.0
29.918	16.0
29.933	20.0
29.947	16.0
29.962	11.0
29.977	9.0
29.992	12.0
30.007	9.0
30.021	16.0
30.036	17.0
30.051	16.0
30.066	8.0
30.081	7.0
30.095	12.0
30.11	9.0
30.125	11.0
30.14	12.0
30.155	10.0
30.169	14.0
30.184	10.0
30.199	11.0
30.214	12.0
30.228	7.0
30.243	9.0
30.258	11.0
30.273	8.0
30.288	10.0
30.302	17.0
30.317	5.0
30.332	11.0
30.347	8.0
30.361	13.0
30.376	12.0
30.391	8.0
30.406	14.0
30.42	9.0
30.435	9.0
30.45	9.0
30.465	9.0
30.479	12.0
30.494	5.0
30.509	13.0
30.524	6.0
30.538	10.0
30.553	6.0
30.568	8.0
30.583	11.0
30.597	10.0
30.612	11.0
30.627	14.0
30.641	9.0
30.656	11.0
30.671	11.0
30.686	14.0
30.7	12.0
30.715	9.0
30.73	10.0
30.745	6.0
30.759	17.0
30.774	2.0
30.789	13.0
30.803	15.0
30.818	14.0
30.833	16.0
30.848	15.0
30.862	11.0
30.877	9.0
30.892	9.0
30.906	7.0
30.921	4.0
30.936	14.0
30.951	14.0
30.965	10.0
30.98	8.0
30.995	15.0
31.009	9.0
31.024	12.0
31.039	14.0
31.053	14.0
31.068	18.0
31.083	10.0
31.098	12.0
31.112	14.0
31.127	17.0
31.142	22.0
31.156	25.0
31.171	23.0
31.186	31.0
31.2	28.0
31.215	30.0
31.23	43.0
31.245	43.0
31.259	47.0
31.274	46.0
31.289	36.0
31.303	38.0
31.318	27.0
31.333	22.0
31.347	35.0
31.362	24.0
31.377	26.0
31.392	19.0
31.406	25.0
31.421	27.0
31.436	22.0
31.45	20.0
31.465	17.0
31.48	30.0
31.494	16.0
31.509	28.0
31.524	18.0
31.538	19.0
31.553	12.0
31.568	16.0
31.583	6.0
31.597	9.0
31.612	17.0
31.627	11.0
31.641	9.0
31.656	13.0
31.671	16.0
31.685	16.0
31.7	16.0
31.715	13.0
31.729	11.0
31.744	8.0
31.759	15.0
31.774	8.0
31.788	13.0
31.803	5.0
31.818	9.0
31.832	12.0
31.847	15.0
31.862	18.0
31.876	23.0
31.891	8.0
31.906	11.0
31.92	11.0
31.935	13.0
31.95	14.0
31.965	7.0
31.979	12.0
31.994	8.0
32.009	8.0
32.023	14.0
32.038	16.0
32.053	10.0
32.067	16.0
32.082	14.0
32.097	8.0
32.112	11.0
32.126	4.0
32.141	8.0
32.156	5.0
32.17	8.0
32.185	7.0
32.2	12.0
32.214	10.0
32.229	9.0
32.244	11.0
32.259	13.0
32.273	4.0
32.288	9.0
32.303	8.0
32.317	6.0
32.332	9.0
32.347	12.0
32.362	7.0
32.376	8.0
32.391	5.0
32.406	4.0
32.42	13.0
32.435	10.0
32.45	11.0
32.465	9.0
32.479	9.0
32.494	12.0
32.509	10.0
32.523	10.0
32.538	12.0
32.553	11.0
32.568	11.0
32.582	9.0
32.597	4.0
32.612	12.0
32.627	11.0
32.641	9.0
32.656	12.0
32.671	6.0
32.685	15.0
32.7	9.0
32.715	14.0
32.73	16.0
32.744	21.0
32.759	16.0
32.774	21.0
32.788	26.0
32.803	23.0
32.818	29.0
32.833	18.0
32.847	23.0
32.862	28.0
32.877	20.0
32.892	17.0
32.906	31.0
32.921	20.0
32.936	17.0
32.951	23.0
32.965	14.0
32.98	22.0
32.995	19.0
33.009	22.0
33.024	26.0
33.039	21.0
33.054	18.0
33.068	15.0
33.083	21.0
33.098	14.0
33.113	12.0
33.127	11.0
33.142	9.0
33.157	10.0
33.172	11.0
33.186	14.0
33.201	6.0
33.216	13.0
33.231	12.0
33.245	15.0
33.26	10.0
33.275	10.0
33.29	8.0
33.304	9.0
33.319	10.0
33.334	12.0
33.349	7.0
33.363	15.0
33.378	12.0
33.393	11.0
33.408	7.0
33.422	16.0
33.437	6.0
33.452	12.0
33.467	12.0
33.481	12.0
33.496	10.0
33.511	13.0
33.526	13.0
33.54	6.0
33.555	10.0
33.57	7.0
33.585	10.0
33.599	7.0
33.614	9.0
33.629	8.0
33.644	10.0
33.658	11.0
33.673	10.0
33.688	12.0
33.703	10.0
33.718	7.0
33.732	7.0
33.747	6.0
33.762	10.0
33.777	17.0
33.791	6.0
33.806	15.0
33.821	7.0
33.836	9.0
33.85	9.0
33.865	9.0
33.88	9.0
33.895	9.0
33.91	9.0
33.924	10.0
33.939	10.0
33.954	10.0
33.969	6.0
33.983	11.0
33.998	10.0
34.013	8.0
34.028	7.0
34.042	8.0
34.057	13.0
34.072	5.0
34.087	13.0
34.102	9.0
34.116	8.0
34.131	10.0
34.146	11.0
34.161	11.0
34.175	10.0
34.19	11.0
34.205	9.0
34.22	13.0
34.235	13.0
34.249	9.0
34.264	9.0
34.279	12.0
34.294	5.0
34.309	12.0
34.323	13.0
34.338	16.0
34.353	11.0
34.368	16.0
34.382	7.0
34.397	13.0
34.412	12.0
34.427	6.0
34.442	15.0
34.456	7.0
34.471	10.0
34.486	17.0
34.501	8.0
34.516	5.0
34.53	10.0
34.545	17.0
34.56	12.0
34.575	15.0
34.59	7.0
34.604	15.0
34.619	11.0
34.634	8.0
34.649	10.0
34.664	12.0
34.678	9.0
34.693	12.0
34.708	8.0
34.723	5.0
34.738	12.0
34.752	10.0
34.767	11.0
34.782	12.0
34.797	6.0
34.812	8.0
34.826	11.0
34.841	7.0
34.856	10.0
34.871	5.0
34.886	11.0
34.9	7.0
34.915	9.0
34.93	5.0
34.945	11.0
34.96	7.0
34.974	12.0
34.989	8.0
35.004	7.0
35.019	8.0
35.034	10.0
35.048	10.0
35.063	9.0
35.078	9.0
35.093	7.0
35.108	8.0
35.122	4.0
35.137	12.0
35.152	10.0
35.167	12.0
35.182	6.0
35.196	9.0
35.211	10.0
35.226	4.0
35.241	3.0
35.256	20.0
35.27	9.0
35.285	10.0
35.3	11.0
35.315	9.0
35.33	7.0
35.344	7.0
35.359	4.0
35.374	6.0
35.389	10.0
35.404	6.0
35.418	5.0
35.433	6.0
35.448	8.0
35.463	8.0
35.478	8.0
35.493	8.0
35.507	8.0
35.522	11.0
35.537	12.0
35.552	5.0
35.567	10.0
35.581	11.0
35.596	13.0
35.611	9.0
35.626	7.0
35.641	15.0
35.655	7.0
35.67	10.0
35.685	13.0
35.7	22.0
35.715	10.0
35.729	16.0
35.744	17.0
35.759	19.0
35.774	17.0
35.789	19.0
35.804	21.0
35.818	13.0
35.833	20.0
35.848	8.0
35.863	18.0
35.878	9.0
35.892	15.0
35.907	14.0
35.922	12.0
35.937	17.0
35.952	17.0
35.966	11.0
35.981	12.0
35.996	13.0
36.011	14.0
36.026	13.0
36.04	16.0
36.055	7.0
36.07	9.0
36.085	18.0
36.1	6.0
36.114	11.0
36.129	10.0
36.144	9.0
36.159	9.0
36.174	3.0
36.189	8.0
36.203	10.0
36.218	12.0
36.233	10.0
36.248	12.0
36.263	10.0
36.277	8.0
36.292	7.0
36.307	8.0
36.322	13.0
36.337	12.0
36.351	5.0
36.366	12.0
36.381	8.0
36.396	6.0
36.411	3.0
36.426	20.0
36.44	8.0
36.455	6.0
36.47	7.0
36.485	12.0
36.5	8.0
36.514	6.0
36.529	10.0
36.544	12.0
36.559	8.0
36.574	4.0
36.589	15.0
36.603	10.0
36.618	5.0
36.633	10.0
36.648	8.0
36.663	5.0
36.677	5.0
36.692	8.0
36.707	8.0
36.722	6.0
36.737	12.0
36.752	6.0
36.766	6.0
36.781	6.0
36.796	7.0
36.811	8.0
36.826	10.0
36.841	4.0
36.855	3.0
36.87	8.0
36.885	9.0
36.9	9.0
36.915	2.0
36.93	7.0
36.944	12.0
36.959	8.0
36.974	7.0
36.989	19.0
37.004	8.0
37.019	9.0
37.033	13.0
37.048	13.0
37.063	15.0
37.078	22.0
37.093	19.0
37.108	19.0
37.123	19.0
37.137	30.0
37.152	32.0
37.167	25.0
37.182	26.0
37.197	22.0
37.212	34.0
37.226	36.0
37.241	28.0
37.256	18.0
37.271	24.0
37.286	18.0
37.301	16.0
37.316	20.0
37.331	13.0
37.345	15.0
37.36	17.0
37.375	20.0
37.39	11.0
37.405	16.0
37.42	19.0
37.435	22.0
37.45	13.0
37.464	17.0
37.479	10.0
37.494	10.0
37.509	11.0
37.524	10.0
37.539	12.0
37.554	9.0
37.569	15.0
37.583	10.0
37.598	7.0
37.613	9.0
37.628	5.0
37.643	8.0
37.658	6.0
37.673	6.0
37.688	2.0
37.703	6.0
37.718	8.0
37.733	6.0
37.747	5.0
37.762	12.0
37.777	3.0
37.792	9.0
37.807	12.0
37.822	7.0
37.837	5.0
37.852	3.0
37.867	2.0
37.882	4.0
37.897	8.0
37.912	5.0
37.927	9.0
37.941	5.0
37.956	4.0
37.971	5.0
37.986	2.0
38.001	3.0
38.016	5.0
38.031	4.0
38.046	3.0
38.061	8.0
38.076	12.0
38.091	9.0
38.106	8.0
38.121	5.0
38.136	4.0
38.151	6.0
38.166	3.0
38.181	9.0
38.196	5.0
38.211	7.0
38.226	5.0
38.241	2.0
38.256	5.0
38.271	6.0
38.285	11.0
38.3	5.0
38.315	10.0
38.33	6.0
38.345	4.0
38.36	9.0
38.375	9.0
38.39	7.0
38.405	5.0
38.42	4.0
38.435	5.0
38.45	4.0
38.465	7.0
38.48	8.0
38.495	5.0
38.51	4.0
38.525	8.0
38.54	3.0
38.555	4.0
38.57	5.0
38.585	2.0
38.6	3.0
38.615	12.0
38.63	3.0
38.645	7.0
38.66	8.0
38.675	10.0
38.69	6.0
38.705	1.0
38.72	4.0
38.735	6.0
38.75	5.0
38.765	10.0
38.78	4.0
38.795	4.0
38.81	3.0
38.825	6.0
38.84	4.0
38.855	8.0
38.87	5.0
38.885	6.0
38.9	7.0
38.915	6.0
38.93	5.0
38.945	4.0
38.96	3.0
38.975	9.0
38.99	4.0
39.005	3.0
39.02	7.0
39.035	9.0
39.05	8.0
39.065	4.0
39.08	3.0
39.095	4.0
39.11	2.0
39.125	8.0
39.14	9.0
39.155	5.0
39.17	6.0
39.185	6.0
39.2	8.0
39.215	7.0
39.23	1.0
39.245	6.0
39.26	1.0
39.275	6.0
39.29	7.0
39.305	3.0
39.32	7.0
39.335	4.0
39.35	4.0
39.365	4.0
39.38	5.0
39.395	4.0
39.409	8.0
39.424	3.0
39.439	6.0
39.454	5.0
39.469	1.0
39.484	8.0
39.499	4.0
39.514	4.0
39.529	5.0
39.544	11.0
39.559	9.0
39.574	4.0
39.589	5.0
39.604	6.0
39.619	4.0
39.634	7.0
39.649	4.0
39.664	5.0
39.678	6.0
39.693	2.0
39.708	6.0
39.723	6.0
39.738	5.0
39.753	9.0
39.768	9.0
39.783	11.0
39.798	10.0
39.813	8.0
39.827	13.0
39.842	8.0
39.857	8.0
39.872	13.0
39.887	13.0
39.902	10.0
39.917	5.0
39.932	8.0
39.947	7.0
39.961	9.0
39.976	7.0
39.991	4.0
40.006	12.0
40.021	4.0
40.036	6.0
40.051	7.0
40.065	7.0
40.08	5.0
40.095	10.0
40.11	14.0
40.125	7.0
40.14	6.0
40.154	11.0
40.169	4.0
40.184	14.0
40.199	7.0
40.214	4.0
40.228	6.0
40.243	7.0
40.258	4.0
40.273	5.0
40.288	8.0
40.302	14.0
40.317	6.0
40.332	4.0
40.347	10.0
40.362	4.0
40.376	7.0
40.391	9.0
40.406	3.0
40.421	6.0
40.436	3.0
40.45	6.0
40.465	6.0
40.48	4.0
40.495	7.0
40.509	4.0
40.524	4.0
40.539	3.0
40.554	6.0
40.568	4.0
40.583	6.0
40.598	3.0
40.613	5.0
40.627	10.0
40.642	9.0
40.657	8.0
40.672	10.0
40.686	1.0
40.701	2.0
40.716	10.0
40.731	3.0
40.745	4.0
40.76	0.0
40.775	6.0
40.79	5.0
40.804	7.0
40.819	2.0
40.834	12.0
40.849	6.0
40.863	8.0
40.878	6.0
40.893	10.0
40.907	4.0
40.922	7.0
40.937	7.0
40.952	7.0
40.966	6.0
40.981	7.0
40.996	5.0
41.011	5.0
41.025	10.0
41.04	9.0
41.055	12.0
41.069	12.0
41.084	17.0
41.099	18.0
41.114	19.0
41.128	15.0
41.143	22.0
41.158	29.0
41.173	12.0
41.187	10.0
41.202	12.0
41.217	16.0
41.231	14.0
41.246	8.0
41.261	13.0
41.276	13.0
41.29	22.0
41.305	12.0
41.32	13.0
41.335	11.0
41.349	12.0
41.364	9.0
41.379	11.0
41.393	8.0
41.408	17.0
41.423	14.0
41.438	12.0
41.452	12.0
41.467	9.0
41.482	9.0
41.497	11.0
41.511	8.0
41.526	6.0
41.541	7.0
41.556	7.0
41.57	7.0
41.585	7.0
41.6	1.0
41.615	6.0
41.629	4.0
41.644	5.0
41.659	6.0
41.674	3.0
41.688	3.0
41.703	8.0
41.718	7.0
41.733	5.0
41.747	4.0
41.762	4.0
41.777	3.0
41.792	5.0
41.806	6.0
41.821	3.0
41.836	4.0
41.851	6.0
41.866	5.0
41.88	7.0
41.895	8.0
41.91	6.0
41.925	5.0
41.939	4.0
41.954	7.0
41.969	7.0
41.984	7.0
41.999	7.0
42.013	5.0
42.028	2.0
42.043	8.0
42.058	3.0
42.073	9.0
42.088	7.0
42.102	10.0
42.117	8.0
42.132	3.0
42.147	3.0
42.162	5.0
42.176	5.0
42.191	8.0
42.206	5.0
42.221	7.0
42.236	10.0
42.251	9.0
42.266	3.0
42.28	8.0
42.295	8.0
42.31	9.0
42.325	10.0
42.34	16.0
42.355	12.0
42.369	20.0
42.384	14.0
42.399	16.0
42.414	15.0
42.429	21.0
42.444	13.0
42.459	16.0
42.474	13.0
42.488	6.0
42.503	8.0
42.518	8.0
42.533	8.0
42.548	5.0
42.563	7.0
42.578	13.0
42.593	14.0
42.608	7.0
42.622	7.0
42.637	3.0
42.652	12.0
42.667	11.0
42.682	15.0
42.697	8.0
42.712	10.0
42.727	14.0
42.742	4.0
42.757	8.0
42.772	8.0
42.786	5.0
42.801	5.0
42.816	5.0
42.831	4.0
42.846	5.0
42.861	3.0
42.876	9.0
42.891	1.0
42.906	4.0
42.921	6.0
42.936	8.0
42.951	5.0
42.966	5.0
42.981	9.0
42.996	5.0
43.011	8.0
43.025	10.0
43.04	4.0
43.055	6.0
43.07	5.0
43.085	7.0
43.1	8.0
43.115	2.0
43.13	2.0
43.145	13.0
43.16	8.0
43.175	4.0
43.19	7.0
43.205	2.0
43.22	9.0
43.235	4.0
43.25	6.0
43.265	3.0
43.28	5.0
43.295	6.0
43.31	5.0
43.325	2.0
43.34	6.0
43.355	6.0
43.37	3.0
43.385	8.0
43.4	7.0
43.415	5.0
43.43	7.0
43.445	4.0
43.46	9.0
43.475	9.0
43.49	8.0
43.505	1.0
43.52	8.0
43.535	7.0
43.55	3.0
43.565	10.0
43.58	5.0
43.595	13.0
43.61	6.0
43.625	6.0
43.64	7.0
43.655	13.0
43.67	11.0
43.685	9.0
43.7	7.0
43.715	5.0
43.73	3.0
43.745	7.0
43.76	6.0
43.775	9.0
43.79	5.0
43.805	4.0
43.82	3.0
43.835	3.0
43.85	8.0
43.865	5.0
43.88	7.0
43.895	9.0
43.91	4.0
43.925	4.0
43.94	6.0
43.955	9.0
43.97	3.0
43.985	8.0
44.0	9.0
44.015	4.0
44.03	4.0
44.045	2.0
44.061	7.0
44.076	1.0
44.091	3.0
44.106	7.0
44.121	3.0
44.136	7.0
44.151	4.0
44.166	3.0
44.181	6.0
44.196	9.0
44.211	6.0
44.226	1.0
44.241	5.0
44.256	8.0
44.271	1.0
44.286	6.0
44.301	5.0
44.316	3.0
44.331	4.0
44.346	4.0
44.361	3.0
44.377	7.0
44.392	8.0
44.407	5.0
44.422	4.0
44.437	4.0
44.452	4.0
44.467	8.0
44.482	2.0
44.497	4.0
44.512	5.0
44.527	1.0
44.542	7.0
44.557	7.0
44.572	5.0
44.587	4.0
44.602	7.0
44.617	6.0
44.632	5.0
44.647	13.0
44.663	3.0
44.678	9.0
44.693	3.0
44.708	9.0
44.723	9.0
44.738	9.0
44.753	11.0
44.768	15.0
44.783	7.0
44.798	14.0
44.813	11.0
44.828	8.0
44.843	15.0
44.858	13.0
44.873	10.0
44.888	5.0
44.903	10.0
44.918	10.0
44.933	2.0
44.948	13.0
44.964	7.0
44.979	5.0
44.994	3.0
45.009	4.0
45.024	5.0
45.039	14.0
45.054	7.0
45.069	5.0
45.084	5.0
45.099	7.0
45.114	9.0
45.129	10.0
45.144	6.0
45.159	7.0
45.174	10.0
45.189	6.0
45.204	7.0
45.219	12.0
45.234	6.0
45.249	4.0
45.264	7.0
45.279	8.0
45.294	7.0
45.309	4.0
45.324	5.0
45.339	6.0
45.354	3.0
45.369	5.0
45.384	7.0
45.399	4.0
45.414	4.0
45.429	2.0
45.444	6.0
45.459	5.0
45.474	2.0
45.489	3.0
45.504	6.0
45.519	4.0
45.534	2.0
45.549	7.0
45.564	6.0
45.579	8.0
45.594	3.0
45.609	4.0
45.624	6.0
45.639	3.0
45.654	4.0
45.669	6.0
45.684	5.0
45.699	7.0
45.714	3.0
45.729	2.0
45.744	5.0
45.759	5.0
45.774	5.0
45.789	5.0
45.804	7.0
45.819	3.0
45.834	5.0
45.849	7.0
45.864	13.0
45.879	11.0
45.894	9.0
45.909	11.0
45.924	13.0
45.939	15.0
45.954	18.0
45.969	10.0
45.984	14.0
45.998	11.0
46.013	18.0
46.028	21.0
46.043	12.0
46.058	14.0
46.073	11.0
46.088	6.0
46.103	7.0
46.118	10.0
46.133	8.0
46.148	6.0
46.163	12.0
46.178	11.0
46.192	11.0
46.207	8.0
46.222	6.0
46.237	20.0
46.252	10.0
46.267	12.0
46.282	16.0
46.297	9.0
46.312	9.0
46.327	4.0
46.341	14.0
46.356	7.0
46.371	5.0
46.386	5.0
46.401	2.0
46.416	7.0
46.431	4.0
46.446	3.0
46.46	2.0
46.475	5.0
46.49	6.0
46.505	4.0
46.52	2.0
46.535	6.0
46.55	6.0
46.564	3.0
46.579	8.0
46.594	9.0
46.609	5.0
46.624	3.0
46.639	1.0
46.654	4.0
46.668	8.0
46.683	3.0
46.698	7.0
46.713	2.0
46.728	6.0
46.743	5.0
46.758	2.0
46.772	4.0
46.787	4.0
46.802	6.0
46.817	4.0
46.832	2.0
46.847	6.0
46.861	5.0
46.876	3.0
46.891	6.0
46.906	8.0
46.921	4.0
46.936	5.0
46.95	4.0
46.965	4.0
46.98	2.0
46.995	6.0
47.01	5.0
47.025	7.0
47.039	7.0
47.054	5.0
47.069	3.0
47.084	14.0
47.099	11.0
47.113	7.0
47.128	6.0
47.143	9.0
47.158	10.0
47.173	9.0
47.188	9.0
47.202	5.0
47.217	9.0
47.232	6.0
47.247	9.0
47.262	3.0
47.277	6.0
47.291	10.0
47.306	11.0
47.321	8.0
47.336	4.0
47.351	7.0
47.365	8.0
47.38	7.0
47.395	8.0
47.41	9.0
47.425	3.0
47.44	17.0
47.454	5.0
47.469	5.0
47.484	6.0
47.499	4.0
47.514	5.0
47.528	4.0
47.543	2.0
47.558	6.0
47.573	0.0
47.588	5.0
47.603	4.0
47.617	4.0
47.632	4.0
47.647	1.0
47.662	6.0
47.677	4.0
47.691	1.0
47.706	5.0
47.721	8.0
47.736	5.0
47.751	3.0
47.766	3.0
47.78	5.0
47.795	10.0
47.81	4.0
47.825	2.0
47.84	3.0
47.855	5.0
47.869	2.0
47.884	1.0
47.899	4.0
47.914	6.0
47.929	4.0
47.944	5.0
47.958	3.0
47.973	2.0
47.988	3.0
48.003	5.0
48.018	2.0
48.033	4.0
48.047	3.0
48.062	5.0
48.077	4.0
48.092	1.0
48.107	1.0
48.122	6.0
48.137	5.0
48.151	7.0
48.166	1.0
48.181	5.0
48.196	8.0
48.211	3.0
48.226	1.0
48.241	8.0
48.255	7.0
48.27	2.0
48.285	2.0
48.3	1.0
48.315	7.0
48.33	4.0
48.345	2.0
48.359	1.0
48.374	8.0
48.389	1.0
48.404	4.0
48.419	5.0
48.434	2.0
48.449	4.0
48.464	8.0
48.478	5.0
48.493	8.0
48.508	4.0
48.523	6.0
48.538	5.0
48.553	3.0
48.568	3.0
48.583	3.0
48.597	4.0
48.612	6.0
48.627	3.0
48.642	4.0
48.657	9.0
48.672	5.0
48.687	2.0
48.702	0.0
48.717	3.0
48.731	4.0
48.746	8.0
48.761	4.0
48.776	4.0
48.791	4.0
48.806	4.0
48.821	8.0
48.836	3.0
48.851	2.0
48.866	5.0
48.88	1.0
48.895	5.0
48.91	6.0
48.925	4.0
48.94	9.0
48.955	3.0
48.97	4.0
48.985	4.0
49.0	3.0
49.015	9.0
49.03	2.0
49.044	5.0
49.059	5.0
49.074	5.0
49.089	4.0
49.104	3.0
49.119	5.0
49.134	2.0
49.149	3.0
49.164	3.0
49.179	4.0
49.194	4.0
49.209	7.0
49.224	4.0
49.238	6.0
49.253	1.0
49.268	6.0
49.283	8.0
49.298	5.0
49.313	7.0
49.328	5.0
49.343	8.0
49.358	3.0
49.373	12.0
49.388	11.0
49.403	3.0
49.418	12.0
49.433	7.0
49.448	7.0
49.463	5.0
49.478	0.0
49.492	5.0
49.507	3.0
49.522	4.0
49.537	4.0
49.552	8.0
49.567	3.0
49.582	1.0
49.597	10.0
49.612	2.0
49.627	3.0
49.642	7.0
49.657	3.0
49.672	3.0
49.687	3.0
49.702	6.0
49.717	14.0
49.732	9.0
49.747	6.0
49.762	2.0
49.777	3.0
49.792	3.0
49.807	5.0
49.822	7.0
49.837	7.0
49.852	2.0
49.867	4.0
49.882	6.0
49.897	2.0
49.912	6.0
49.927	4.0
49.942	4.0
49.957	5.0
49.971	4.0
49.986	6.0
50.001	2.0
50.016	7.0
50.031	4.0
50.046	4.0
50.061	3.0
50.076	3.0
50.091	4.0
50.106	7.0
50.121	5.0
50.136	4.0
50.151	4.0
50.166	4.0
50.181	3.0
50.196	7.0
50.211	5.0
50.226	4.0
50.241	7.0
50.256	7.0
50.271	3.0
50.286	6.0
50.302	4.0
50.317	4.0
50.332	4.0
50.347	5.0
50.362	3.0
50.377	3.0
50.392	6.0
50.407	3.0
50.422	5.0
50.437	11.0
50.452	4.0
50.467	6.0
50.482	7.0
50.497	5.0
50.512	9.0
50.527	7.0
50.542	11.0
50.557	6.0
50.572	5.0
50.587	7.0
50.602	5.0
50.617	5.0
50.632	5.0
50.647	7.0
50.662	6.0
50.677	7.0
50.692	5.0
50.707	8.0
50.722	11.0
50.737	6.0
50.752	9.0
50.767	6.0
50.782	7.0
50.797	10.0
50.812	9.0
50.828	5.0
50.843	5.0
50.858	6.0
50.873	5.0
50.888	7.0
50.903	5.0
50.918	2.0
50.933	2.0
50.948	11.0
50.963	5.0
50.978	4.0
50.993	6.0
51.008	6.0
51.023	4.0
51.038	6.0
51.053	4.0
51.068	6.0
51.083	4.0
51.098	3.0
51.114	10.0
51.129	3.0
51.144	7.0
51.159	6.0
51.174	7.0
51.189	8.0
51.204	5.0
51.219	9.0
51.234	4.0
51.249	5.0
51.264	4.0
51.279	5.0
51.294	4.0
51.309	4.0
51.324	6.0
51.34	3.0
51.355	7.0
51.37	6.0
51.385	5.0
51.4	11.0
51.415	8.0
51.43	10.0
51.445	8.0
51.46	13.0
51.475	13.0
51.49	15.0
51.505	13.0
51.52	16.0
51.535	18.0
51.551	16.0
51.566	17.0
51.581	12.0
51.596	7.0
51.611	16.0
51.626	9.0
51.641	6.0
51.656	9.0
51.671	7.0
51.686	7.0
51.701	3.0
51.716	4.0
51.732	8.0
51.747	7.0
51.762	10.0
51.777	7.0
51.792	5.0
51.807	4.0
51.822	7.0
51.837	9.0
51.852	7.0
51.867	9.0
51.882	7.0
51.898	11.0
51.913	12.0
51.928	5.0
51.943	12.0
51.958	3.0
51.973	5.0
51.988	6.0
52.003	2.0
52.018	8.0
52.033	2.0
52.048	8.0
52.064	7.0
52.079	8.0
52.094	1.0
52.109	1.0
52.124	4.0
52.139	5.0
52.154	6.0
52.169	7.0
52.184	4.0
52.199	4.0
52.215	3.0
52.23	6.0
52.245	9.0
52.26	4.0
52.275	1.0
52.29	2.0
52.305	5.0
52.32	5.0
52.335	3.0
52.35	6.0
52.366	3.0
52.381	3.0
52.396	4.0
52.411	3.0
52.426	8.0
52.441	2.0
52.456	4.0
52.471	5.0
52.486	7.0
52.502	6.0
52.517	8.0
52.532	6.0
52.547	12.0
52.562	8.0
52.577	7.0
52.592	11.0
52.607	6.0
52.622	9.0
52.637	9.0
52.653	10.0
52.668	11.0
52.683	4.0
52.698	4.0
52.713	2.0
52.728	3.0
52.743	2.0
52.758	11.0
52.774	7.0
52.789	8.0
52.804	5.0
52.819	13.0
52.834	4.0
52.849	2.0
52.864	8.0
52.879	8.0
52.894	8.0
52.91	7.0
52.925	3.0
52.94	2.0
52.955	7.0
52.97	4.0
52.985	4.0
53.0	4.0
53.015	3.0
53.031	2.0
53.046	3.0
53.061	4.0
53.076	0.0
53.091	7.0
53.106	4.0
53.121	6.0
53.136	6.0
53.152	5.0
53.167	1.0
53.182	3.0
53.197	4.0
53.212	4.0
53.227	4.0
53.242	3.0
53.257	5.0
53.273	8.0
53.288	2.0
53.303	4.0
53.318	2.0
53.333	6.0
53.348	6.0
53.363	3.0
53.379	4.0
53.394	4.0
53.409	5.0
53.424	9.0
53.439	4.0
53.454	5.0
53.469	4.0
53.484	7.0
53.5	5.0
53.515	1.0
53.53	5.0
53.545	6.0
53.56	7.0
53.575	4.0
53.59	4.0
53.606	4.0
53.621	4.0
53.636	8.0
53.651	5.0
53.666	3.0
53.681	3.0
53.696	4.0
53.712	3.0
53.727	2.0
53.742	5.0
53.757	2.0
53.772	2.0
53.787	7.0
53.802	5.0
53.818	4.0
53.833	6.0
53.848	4.0
53.863	4.0
53.878	7.0
53.893	3.0
53.909	4.0
53.924	5.0
53.939	6.0
53.954	4.0
53.969	4.0
53.984	4.0
53.999	4.0
54.015	7.0
54.03	10.0
54.045	4.0
54.06	3.0
54.075	6.0
54.09	1.0
54.106	7.0
54.121	4.0
54.136	4.0
54.151	3.0
54.166	5.0
54.181	8.0
54.197	6.0
54.212	2.0
54.227	7.0
54.242	7.0
54.257	6.0
54.272	4.0
54.288	7.0
54.303	7.0
54.318	3.0
54.333	5.0
54.348	5.0
54.363	5.0
54.379	8.0
54.394	3.0
54.409	7.0
54.424	3.0
54.439	4.0
54.454	3.0
54.47	2.0
54.485	8.0
54.5	11.0
54.515	6.0
54.53	5.0
54.545	5.0
54.561	7.0
54.576	7.0
54.591	10.0
54.606	10.0
54.621	15.0
54.636	9.0
54.652	14.0
54.667	9.0
54.682	15.0
54.697	12.0
54.712	7.0
54.727	3.0
54.743	6.0
54.758	6.0
54.773	5.0
54.788	11.0
54.803	6.0
54.819	5.0
54.834	2.0
54.849	3.0
54.864	2.0
54.879	7.0
54.894	6.0
54.91	4.0
54.925	5.0
54.94	8.0
54.955	14.0
54.97	12.0
54.985	13.0
55.001	5.0
55.016	10.0
55.031	17.0
55.046	6.0
55.061	9.0
55.077	11.0
55.092	3.0
55.107	5.0
55.122	3.0
55.137	9.0
55.152	6.0
55.168	5.0
55.183	3.0
55.198	7.0
55.213	1.0
55.228	9.0
55.243	4.0
55.259	3.0
55.274	7.0
55.289	6.0
55.304	6.0
55.319	3.0
55.335	5.0
55.35	3.0
55.365	2.0
55.38	3.0
55.395	3.0
55.41	4.0
55.426	5.0
55.441	2.0
55.456	4.0
55.471	2.0
55.486	3.0
55.501	8.0
55.517	3.0
55.532	2.0
55.547	5.0
55.562	10.0
55.577	2.0
55.592	9.0
55.608	8.0
55.623	3.0
55.638	10.0
55.653	6.0
55.668	8.0
55.683	5.0
55.699	9.0
55.714	6.0
55.729	4.0
55.744	9.0
55.759	9.0
55.774	3.0
55.79	4.0
55.805	7.0
55.82	3.0
55.835	2.0
55.85	6.0
55.865	3.0
55.881	2.0
55.896	5.0
55.911	4.0
55.926	4.0
55.941	7.0
55.956	11.0
55.972	3.0
55.987	2.0
56.002	5.0
56.017	5.0
56.032	12.0
56.047	9.0
56.063	5.0
56.078	2.0
56.093	3.0
56.108	5.0
56.123	4.0
56.138	6.0
56.154	2.0
56.169	3.0
56.184	3.0
56.199	5.0
56.214	6.0
56.229	6.0
56.244	6.0
56.26	8.0
56.275	4.0
56.29	5.0
56.305	9.0
56.32	6.0
56.335	3.0
56.351	5.0
56.366	5.0
56.381	6.0
56.396	6.0
56.411	4.0
56.426	6.0
56.441	4.0
56.457	4.0
56.472	5.0
56.487	6.0
56.502	6.0
56.517	5.0
56.532	4.0
56.547	2.0
56.563	4.0
56.578	2.0
56.593	3.0
56.608	3.0
56.623	3.0
56.638	3.0
56.653	5.0
56.668	5.0
56.684	4.0
56.699	1.0
56.714	2.0
56.729	4.0
56.744	2.0
56.759	3.0
56.774	1.0
56.79	2.0
56.805	7.0
56.82	8.0
56.835	2.0
56.85	2.0
56.865	5.0
56.88	5.0
56.895	2.0
56.911	5.0
56.926	6.0
56.941	4.0
56.956	5.0
56.971	6.0
56.986	3.0
57.001	3.0
57.016	1.0
57.031	4.0
57.047	2.0
57.062	4.0
57.077	2.0
57.092	4.0
57.107	5.0
57.122	4.0
57.137	6.0
57.152	8.0
57.167	3.0
57.183	10.0
57.198	4.0
57.213	5.0
57.228	4.0
57.243	8.0
57.258	7.0
57.273	3.0
57.288	2.0
57.303	7.0
57.318	7.0
57.334	6.0
57.349	5.0
57.364	3.0
57.379	5.0
57.394	3.0
57.409	4.0
57.424	2.0
57.439	3.0
57.454	4.0
57.469	5.0
57.484	1.0
57.5	2.0
57.515	5.0
57.53	4.0
57.545	1.0
57.56	7.0
57.575	6.0
57.59	5.0
57.605	1.0
57.62	3.0
57.635	5.0
57.65	10.0
57.665	7.0
57.68	6.0
57.696	9.0
57.711	7.0
57.726	5.0
57.741	6.0
57.756	6.0
57.771	8.0
57.786	4.0
57.801	2.0
57.816	8.0
57.831	4.0
57.846	4.0
57.861	10.0
57.876	2.0
57.891	0.0
57.906	3.0
57.921	2.0
57.937	6.0
57.952	4.0
57.967	9.0
57.982	3.0
57.997	6.0
58.012	1.0
58.027	6.0
58.042	9.0
58.057	8.0
58.072	5.0
58.087	2.0
58.102	6.0
58.117	6.0
58.132	2.0
58.147	5.0
58.162	3.0
58.177	7.0
58.192	3.0
58.207	2.0
58.222	4.0
58.237	2.0
58.252	2.0
58.267	3.0
58.282	3.0
58.297	4.0
58.312	6.0
58.327	1.0
58.342	5.0
58.357	6.0
58.372	1.0
58.387	4.0
58.402	6.0
58.418	4.0
58.433	3.0
58.448	6.0
58.463	6.0
58.478	5.0
58.493	4.0
58.508	7.0
58.523	3.0
58.538	6.0
58.553	6.0
58.568	3.0
58.583	6.0
58.598	4.0
58.613	6.0
58.628	5.0
58.643	9.0
58.658	6.0
58.673	7.0
58.688	3.0
58.703	8.0
58.718	9.0
58.733	3.0
58.748	6.0
58.763	8.0
58.778	5.0
58.793	2.0
58.808	6.0
58.823	3.0
58.838	3.0
58.853	3.0
58.868	2.0
58.883	2.0
58.898	4.0
58.913	1.0
58.928	5.0
58.942	4.0
58.957	4.0
58.972	4.0
58.987	5.0
59.002	7.0
59.017	6.0
59.032	8.0
59.047	6.0
59.062	8.0
59.077	8.0
59.092	6.0
59.107	6.0
59.122	2.0
59.137	10.0
59.152	1.0
59.167	4.0
59.182	4.0
59.197	11.0
59.212	3.0
59.227	5.0
59.242	3.0
59.257	6.0
59.272	5.0
59.287	1.0
59.302	3.0
59.317	3.0
59.332	5.0
59.347	4.0
59.362	4.0
59.377	3.0
59.392	5.0
59.407	5.0
59.422	8.0
59.437	1.0
59.452	6.0
59.467	4.0
59.482	3.0
59.497	10.0
59.512	6.0
59.527	3.0
59.542	6.0
59.557	15.0
59.572	9.0
59.587	6.0
59.602	7.0
59.617	7.0
59.632	8.0
59.647	9.0
59.661	8.0
59.676	12.0
59.691	5.0
59.706	4.0
59.721	7.0
59.736	3.0
59.751	4.0
59.766	3.0
59.781	10.0
59.796	4.0
59.811	6.0
59.826	5.0
59.841	2.0
59.856	3.0
59.871	2.0
59.886	2.0
59.901	7.0
59.916	6.0
59.931	4.0
59.946	3.0
59.961	4.0
59.976	12.0
59.991	10.0
60.006	3.0
60.021	9.0
60.036	7.0
60.051	7.0
60.066	6.0
60.081	2.0
60.096	5.0
60.111	4.0
60.126	5.0
60.141	4.0
60.156	6.0
60.171	3.0
60.186	2.0
60.201	3.0
60.216	7.0
60.231	5.0
60.246	4.0
60.261	0.0
60.276	1.0
60.291	2.0
60.306	4.0
60.321	4.0
60.336	3.0
60.35	4.0
60.365	4.0
60.38	6.0
60.395	5.0
60.41	6.0
60.425	4.0
60.44	3.0
60.455	8.0
60.47	4.0
60.485	6.0
60.5	4.0
60.515	8.0
60.53	8.0
60.545	7.0
60.56	4.0
60.575	9.0
60.59	7.0
60.605	10.0
60.62	4.0
60.635	7.0
60.65	6.0
60.665	5.0
60.68	6.0
60.695	3.0
60.71	7.0
60.725	2.0
60.74	2.0
60.755	4.0
60.77	5.0
60.785	3.0
60.8	3.0
60.815	2.0
60.83	4.0
60.845	2.0
60.86	5.0
60.875	4.0
60.89	7.0
60.905	4.0
60.92	3.0
60.935	2.0
60.95	8.0
60.965	8.0
60.98	6.0
60.995	4.0
61.01	5.0
61.025	3.0
61.04	5.0
61.055	4.0
61.07	5.0
61.085	2.0
61.1	2.0
61.115	5.0
61.13	5.0
61.145	3.0
61.16	5.0
61.175	2.0
61.191	3.0
61.206	3.0
61.221	8.0
61.236	4.0
61.251	3.0
61.266	6.0
61.281	2.0
61.296	5.0
61.311	2.0
61.326	7.0
61.341	4.0
61.356	1.0
61.371	4.0
61.386	5.0
61.401	3.0
61.416	2.0
61.431	4.0
61.446	5.0
61.461	9.0
61.476	0.0
61.491	2.0
61.506	9.0
61.521	5.0
61.536	4.0
61.551	8.0
61.566	2.0
61.581	6.0
61.596	9.0
61.611	5.0
61.626	4.0
61.641	5.0
61.656	1.0
61.672	3.0
61.687	5.0
61.702	4.0
61.717	6.0
61.732	2.0
61.747	4.0
61.762	7.0
61.777	2.0
61.792	3.0
61.807	3.0
61.822	4.0
61.837	3.0
61.852	3.0
61.867	1.0
61.882	4.0
61.897	1.0
61.912	5.0
61.927	3.0
61.943	8.0
61.958	2.0
61.973	4.0
61.988	3.0
62.003	9.0
62.018	8.0
62.033	4.0
62.048	5.0
62.063	3.0
62.078	6.0
62.093	1.0
62.108	4.0
62.123	7.0
62.138	4.0
62.153	2.0
62.169	8.0
62.184	1.0
62.199	4.0
62.214	5.0
62.229	5.0
62.244	1.0
62.259	4.0
62.274	7.0
62.289	2.0
62.304	1.0
62.319	3.0
62.335	2.0
62.35	1.0
62.365	8.0
62.38	5.0
62.395	2.0
62.41	6.0
62.425	1.0
62.44	7.0
62.455	5.0
62.47	5.0
62.485	3.0
62.501	5.0
62.516	4.0
62.531	4.0
62.546	5.0
62.561	6.0
62.576	6.0
62.591	1.0
62.606	1.0
62.621	5.0
62.636	3.0
62.652	1.0
62.667	3.0
62.682	6.0
62.697	2.0
62.712	5.0
62.727	4.0
62.742	3.0
62.757	2.0
62.772	3.0
62.787	7.0
62.803	6.0
62.818	5.0
62.833	8.0
62.848	4.0
62.863	1.0
62.878	4.0
62.893	6.0
62.908	2.0
62.923	8.0
62.939	8.0
62.954	3.0
62.969	4.0
62.984	2.0
62.999	2.0
63.014	5.0
63.029	5.0
63.044	1.0
63.059	2.0
63.074	0.0
63.09	2.0
63.105	6.0
63.12	8.0
63.135	2.0
63.15	5.0
63.165	3.0
63.18	5.0
63.195	5.0
63.21	6.0
63.226	1.0
63.241	3.0
63.256	3.0
63.271	10.0
63.286	1.0
63.301	3.0
63.316	4.0
63.331	6.0
63.346	2.0
63.362	4.0
63.377	4.0
63.392	14.0
63.407	2.0
63.422	6.0
63.437	8.0
63.452	5.0
63.467	6.0
63.482	6.0
63.497	5.0
63.513	3.0
63.528	7.0
63.543	1.0
63.558	4.0
63.573	5.0
63.588	1.0
63.603	3.0
63.618	2.0
63.633	2.0
63.648	5.0
63.664	6.0
63.679	6.0
63.694	5.0
63.709	4.0
63.724	9.0
63.739	7.0
63.754	8.0
63.769	3.0
63.784	6.0
63.799	5.0
63.814	6.0
63.83	5.0
63.845	4.0
63.86	5.0
63.875	6.0
63.89	5.0
63.905	3.0
63.92	5.0
63.935	3.0
63.95	4.0
63.965	4.0
63.98	4.0
63.996	0.0
64.011	3.0
64.026	6.0
64.041	3.0
64.056	4.0
64.071	4.0
64.086	8.0
64.101	6.0
64.116	3.0
64.131	4.0
64.146	6.0
64.161	2.0
64.176	7.0
64.191	4.0
64.207	1.0
64.222	5.0
64.237	1.0
64.252	1.0
64.267	4.0
64.282	3.0
64.297	7.0
64.312	5.0
64.327	4.0
64.342	5.0
64.357	5.0
64.372	3.0
64.387	5.0
64.402	5.0
64.417	5.0
64.433	4.0
64.448	7.0
64.463	6.0
64.478	3.0
64.493	6.0
64.508	5.0
64.523	2.0
64.538	3.0
64.553	5.0
64.568	3.0
64.583	4.0
64.598	1.0
64.613	4.0
64.628	6.0
64.643	4.0
64.658	1.0
64.673	4.0
64.688	5.0
64.703	5.0
64.718	2.0
64.734	6.0
64.749	5.0
64.764	6.0
64.779	3.0
64.794	3.0
64.809	4.0
64.824	4.0
64.839	3.0
64.854	3.0
64.869	7.0
64.884	2.0
64.899	3.0
64.914	2.0
64.929	6.0
64.944	3.0
64.959	2.0
64.974	3.0
64.989	7.0
65.004	1.0
65.019	4.0
65.034	4.0
65.049	1.0
65.064	1.0
65.079	7.0
65.094	2.0
65.109	1.0
65.125	1.0
65.14	2.0
65.155	5.0
65.17	5.0
65.185	6.0
65.2	3.0
65.215	6.0
65.23	3.0
65.245	2.0
65.26	4.0
65.275	8.0
65.29	3.0
65.305	11.0
65.32	4.0
65.335	3.0
65.35	3.0
65.365	5.0
65.38	0.0
65.395	4.0
65.41	6.0
65.425	3.0
65.44	9.0
65.455	0.0
65.47	3.0
65.485	5.0
65.5	4.0
65.515	3.0
65.53	2.0
65.545	4.0
65.56	8.0
65.575	2.0
65.59	4.0
65.605	4.0
65.62	2.0
65.635	1.0
65.65	2.0
65.666	4.0
65.681	5.0
65.696	3.0
65.711	4.0
65.726	4.0
65.741	4.0
65.756	3.0
65.771	5.0
65.786	4.0
65.801	5.0
65.816	4.0
65.831	3.0
65.846	4.0
65.861	1.0
65.876	5.0
65.891	4.0
65.906	3.0
65.921	3.0
65.936	4.0
65.951	6.0
65.966	4.0
65.981	7.0
65.996	4.0
66.011	3.0
66.026	3.0
66.041	1.0
66.056	2.0
66.071	1.0
66.086	3.0
66.101	5.0
66.116	2.0
66.131	11.0
66.146	6.0
66.161	5.0
66.176	6.0
66.191	15.0
66.206	9.0
66.221	10.0
66.236	9.0
66.251	6.0
66.266	11.0
66.281	3.0
66.296	7.0
66.311	0.0
66.327	7.0
66.342	3.0
66.357	8.0
66.372	3.0
66.387	3.0
66.402	3.0
66.417	3.0
66.432	3.0
66.447	4.0
66.462	5.0
66.477	5.0
66.492	2.0
66.507	4.0
66.522	3.0
66.537	5.0
66.552	6.0
66.567	6.0
66.582	4.0
66.597	4.0
66.612	6.0
66.627	3.0
66.642	8.0
66.657	6.0
66.672	7.0
66.687	5.0
66.702	5.0
66.717	5.0
66.732	3.0
66.747	0.0
66.762	4.0
66.777	3.0
66.792	3.0
66.807	1.0
66.822	2.0
66.837	1.0
66.853	5.0
66.868	1.0
66.883	3.0
66.898	5.0
66.913	5.0
66.928	3.0
66.943	4.0
66.958	3.0
66.973	4.0
66.988	1.0
67.003	4.0
67.018	4.0
67.033	8.0
67.048	2.0
67.063	4.0
67.078	3.0
67.093	1.0
67.108	4.0
67.123	6.0
67.138	4.0
67.153	7.0
67.168	5.0
67.183	7.0
67.198	3.0
67.214	4.0
67.229	1.0
67.244	5.0
67.259	3.0
67.274	4.0
67.289	2.0
67.304	8.0
67.319	1.0
67.334	3.0
67.349	3.0
67.364	7.0
67.379	2.0
67.394	7.0
67.409	1.0
67.424	1.0
67.439	0.0
67.454	1.0
67.469	6.0
67.484	2.0
67.5	3.0
67.515	2.0
67.53	7.0
67.545	2.0
67.56	6.0
67.575	3.0
67.59	5.0
67.605	1.0
67.62	4.0
67.635	4.0
67.65	6.0
67.665	3.0
67.68	0.0
67.695	0.0
67.71	7.0
67.726	4.0
67.741	1.0
67.756	1.0
67.771	3.0
67.786	5.0
67.801	2.0
67.816	2.0
67.831	0.0
67.846	2.0
67.861	0.0
67.876	1.0
67.891	5.0
67.906	1.0
67.922	6.0
67.937	4.0
67.952	9.0
67.967	6.0
67.982	3.0
67.997	5.0
68.012	5.0
68.027	4.0
68.042	5.0
68.057	1.0
68.072	3.0
68.087	1.0
68.103	4.0
68.118	7.0
68.133	2.0
68.148	2.0
68.163	3.0
68.178	4.0
68.193	2.0
68.208	1.0
68.223	5.0
68.238	1.0
68.254	3.0
68.269	2.0
68.284	2.0
68.299	6.0
68.314	3.0
68.329	3.0
68.344	4.0
68.359	4.0
68.374	0.0
68.389	5.0
68.405	2.0
68.42	1.0
68.435	4.0
68.45	1.0
68.465	7.0
68.48	6.0
68.495	1.0
68.51	6.0
68.525	9.0
68.54	2.0
68.556	1.0
68.571	4.0
68.586	3.0
68.601	3.0
68.616	1.0
68.631	4.0
68.646	3.0
68.661	3.0
68.676	2.0
68.691	2.0
68.707	2.0
68.722	2.0
68.737	8.0
68.752	0.0
68.767	4.0
68.782	5.0
68.797	5.0
68.812	4.0
68.827	6.0
68.842	4.0
68.857	4.0
68.873	5.0
68.888	2.0
68.903	11.0
68.918	5.0
68.933	5.0
68.948	7.0
68.963	2.0
68.978	6.0
68.993	8.0
69.008	3.0
69.023	1.0
69.038	4.0
69.054	5.0
69.069	3.0
69.084	2.0
69.099	5.0
69.114	5.0
69.129	2.0
69.144	1.0
69.159	4.0
69.174	5.0
69.189	2.0
69.204	4.0
69.219	3.0
69.234	5.0
69.249	5.0
69.264	2.0
69.279	1.0
69.295	2.0
69.31	1.0
69.325	1.0
69.34	5.0
69.355	2.0
69.37	5.0
69.385	1.0
69.4	2.0
69.415	7.0
69.43	2.0
69.445	1.0
69.46	4.0
69.475	5.0
69.49	6.0
69.505	1.0
69.52	5.0
69.535	4.0
69.55	1.0
69.565	1.0
69.58	2.0
69.595	1.0
69.61	4.0
69.625	1.0
69.64	4.0
69.655	11.0
69.67	1.0
69.685	2.0
69.7	7.0
69.715	3.0
69.73	6.0
69.745	9.0
69.76	6.0
69.775	7.0
69.79	5.0
69.805	7.0
69.82	10.0
69.835	2.0
69.85	6.0
69.865	7.0
69.88	2.0
69.895	5.0
69.909	4.0
69.924	4.0
69.939	3.0
69.954	7.0
69.969	2.0
69.984	0.0
69.999	7.0
70.014	4.0
70.029	3.0
70.044	2.0
70.059	5.0
70.074	8.0
70.088	7.0
70.103	3.0
70.118	2.0
70.133	3.0
70.148	3.0
70.163	2.0
70.178	4.0
70.193	7.0
70.208	7.0
70.222	5.0
70.237	5.0
70.252	4.0
70.267	9.0
70.282	2.0
70.297	3.0
70.312	4.0
70.327	8.0
70.341	3.0
70.356	5.0
70.371	6.0
70.386	3.0
70.401	2.0
70.416	5.0
70.43	6.0
70.445	2.0
70.46	5.0
70.475	1.0
70.49	6.0
70.505	1.0
70.519	4.0
70.534	2.0
70.549	4.0
70.564	2.0
70.579	6.0
70.594	2.0
70.608	2.0
70.623	1.0
70.638	3.0
70.653	4.0
70.668	15.0
70.683	4.0
70.697	4.0
70.712	3.0
70.727	6.0
70.742	5.0
70.757	8.0
70.771	4.0
70.786	5.0
70.801	3.0
70.816	0.0
70.831	1.0
70.845	3.0
70.86	1.0
70.875	1.0
70.89	7.0
70.905	1.0
70.92	4.0
70.934	3.0
70.949	4.0
70.964	4.0
70.979	3.0
70.994	2.0
71.008	1.0
71.023	1.0
71.038	1.0
71.053	4.0
71.068	8.0
71.082	1.0
71.097	0.0
71.112	4.0
71.127	3.0
71.142	4.0
71.156	4.0
71.171	5.0
71.186	4.0
71.201	5.0
71.216	5.0
71.231	4.0
71.245	3.0
71.26	3.0
71.275	7.0
71.29	2.0
71.305	3.0
71.319	6.0
71.334	5.0
71.349	2.0
71.364	1.0
71.379	11.0
71.394	7.0
71.408	5.0
71.423	1.0
71.438	5.0
71.453	6.0
71.468	3.0
71.483	0.0
71.497	3.0
71.512	2.0
71.527	5.0
71.542	1.0
71.557	2.0
71.572	4.0
71.586	5.0
71.601	4.0
71.616	2.0
71.631	4.0
71.646	4.0
71.661	5.0
71.676	4.0
71.69	4.0
71.705	5.0
71.72	3.0
71.735	2.0
71.75	2.0
71.765	2.0
71.78	3.0
71.795	2.0
71.81	1.0
71.824	3.0
71.839	2.0
71.854	3.0
71.869	3.0
71.884	5.0
71.899	2.0
71.914	6.0
71.929	2.0
71.944	5.0
71.959	3.0
71.974	2.0
71.988	5.0
72.003	2.0
72.018	5.0
72.033	6.0
72.048	5.0
72.063	4.0
72.078	2.0
72.093	5.0
72.108	2.0
72.123	7.0
72.138	4.0
72.153	3.0
72.168	8.0
72.183	5.0
72.198	2.0
72.213	5.0
72.228	4.0
72.243	2.0
72.258	5.0
72.273	4.0
72.288	3.0
72.303	7.0
72.318	1.0
72.333	4.0
72.348	3.0
72.363	2.0
72.378	3.0
72.393	5.0
72.408	5.0
72.423	4.0
72.438	6.0
72.453	3.0
72.468	1.0
72.483	5.0
72.498	6.0
72.513	5.0
72.528	6.0
72.543	3.0
72.558	2.0
72.573	4.0
72.588	1.0
72.603	2.0
72.618	1.0
72.633	1.0
72.649	5.0
72.664	5.0
72.679	5.0
72.694	1.0
72.709	2.0
72.724	3.0
72.739	5.0
72.754	0.0
72.769	1.0
72.784	3.0
72.799	4.0
72.814	6.0
72.829	3.0
72.845	4.0
72.86	2.0
72.875	2.0
72.89	3.0
72.905	2.0
72.92	4.0
72.935	3.0
72.95	4.0
72.965	5.0
72.98	1.0
72.996	1.0
73.011	5.0
73.026	5.0
73.041	6.0
73.056	5.0
73.071	1.0
73.086	6.0
73.101	4.0
73.117	4.0
73.132	1.0
73.147	1.0
73.162	7.0
73.177	4.0
73.192	2.0
73.207	2.0
73.222	4.0
73.238	5.0
73.253	3.0
73.268	4.0
73.283	6.0
73.298	1.0
73.313	6.0
73.328	8.0
73.343	6.0
73.359	5.0
73.374	4.0
73.389	6.0
73.404	4.0
73.419	3.0
73.434	2.0
73.449	0.0
73.465	0.0
73.48	3.0
73.495	2.0
73.51	3.0
73.525	2.0
73.54	4.0
73.556	3.0
73.571	3.0
73.586	4.0
73.601	4.0
73.616	5.0
73.631	2.0
73.646	2.0
73.662	4.0
73.677	2.0
73.692	2.0
73.707	5.0
73.722	1.0
73.737	4.0
73.752	4.0
73.768	3.0
73.783	5.0
73.798	5.0
73.813	3.0
73.828	7.0
73.843	3.0
73.859	3.0
73.874	4.0
73.889	5.0
73.904	1.0
73.919	2.0
73.934	1.0
73.949	4.0
73.965	1.0
73.98	2.0
73.995	1.0
74.01	1.0
74.025	3.0
74.04	9.0
74.056	5.0
74.071	2.0
74.086	7.0
74.101	4.0
74.116	2.0
74.131	2.0
74.146	3.0
74.162	8.0
74.177	3.0
74.192	8.0
74.207	3.0
74.222	3.0
74.237	3.0
74.252	5.0
74.268	7.0
74.283	5.0
74.298	5.0
74.313	2.0
74.328	3.0
74.343	6.0
74.358	0.0
74.374	1.0
74.389	3.0
74.404	3.0
74.419	1.0
74.434	2.0
74.449	3.0
74.464	2.0
74.48	3.0
74.495	5.0
74.51	3.0
74.525	1.0
74.54	3.0
74.555	1.0
74.57	3.0
74.586	6.0
74.601	3.0
74.616	4.0
74.631	3.0
74.646	3.0
74.661	4.0
74.676	3.0
74.691	6.0
74.707	5.0
74.722	3.0
74.737	6.0
74.752	6.0
74.767	6.0
74.782	4.0
74.797	4.0
74.813	6.0
74.828	2.0
74.843	9.0
74.858	2.0
74.873	1.0
74.888	2.0
74.903	5.0
74.918	4.0
74.934	3.0
74.949	3.0
74.964	4.0
74.979	3.0
74.994	1.0
75.009	7.0
75.024	2.0
75.04	3.0
75.055	6.0
75.07	3.0
75.085	2.0
75.1	7.0
75.115	7.0
75.13	5.0
75.145	9.0
75.161	1.0
75.176	1.0
75.191	4.0
75.206	1.0
75.221	6.0
75.236	3.0
75.251	4.0
75.266	4.0
75.282	9.0
75.297	2.0
75.312	5.0
75.327	1.0
75.342	5.0
75.357	4.0
75.372	4.0
75.387	4.0
75.403	5.0
75.418	1.0
75.433	1.0
75.448	6.0
75.463	2.0
75.478	3.0
75.493	3.0
75.509	6.0
75.524	3.0
75.539	5.0
75.554	6.0
75.569	8.0
75.584	3.0
75.599	3.0
75.614	6.0
75.63	4.0
75.645	3.0
75.66	6.0
75.675	1.0
75.69	3.0
75.705	3.0
75.72	2.0
75.735	2.0
75.751	3.0
75.766	2.0
75.781	4.0
75.796	4.0
75.811	4.0
75.826	6.0
75.841	4.0
75.856	3.0
75.872	5.0
75.887	5.0
75.902	6.0
75.917	3.0
75.932	3.0
75.947	4.0
75.962	3.0
75.977	2.0
75.993	4.0
76.008	6.0
76.023	3.0
76.038	4.0
76.053	4.0
76.068	3.0
76.083	3.0
76.098	5.0
76.114	6.0
76.129	2.0
76.144	2.0
76.159	5.0
76.174	6.0
76.189	1.0
76.204	2.0
76.22	1.0
76.235	3.0
76.25	4.0
76.265	2.0
76.28	2.0
76.295	3.0
76.31	3.0
76.325	5.0
76.341	2.0
76.356	2.0
76.371	5.0
76.386	2.0
76.401	4.0
76.416	5.0
76.431	4.0
76.446	1.0
76.462	3.0
76.477	3.0
76.492	6.0
76.507	3.0
76.522	4.0
76.537	3.0
76.552	2.0
76.567	4.0
76.583	2.0
76.598	2.0
76.613	2.0
76.628	2.0
76.643	2.0
76.658	5.0
76.673	4.0
76.688	4.0
76.704	4.0
76.719	2.0
76.734	3.0
76.749	6.0
76.764	4.0
76.779	2.0
76.794	4.0
76.809	5.0
76.824	5.0
76.84	4.0
76.855	3.0
76.87	3.0
76.885	0.0
76.9	3.0
76.915	4.0
76.93	3.0
76.945	2.0
76.96	4.0
76.976	4.0
76.991	3.0
77.006	2.0
77.021	4.0
77.036	3.0
77.051	6.0
77.066	4.0
77.081	5.0
77.096	0.0
77.112	2.0
77.127	2.0
77.142	7.0
77.157	2.0
77.172	1.0
77.187	5.0
77.202	1.0
77.217	5.0
77.232	5.0
77.247	6.0
77.263	2.0
77.278	4.0
77.293	3.0
77.308	1.0
77.323	4.0
77.338	5.0
77.353	7.0
77.368	4.0
77.383	2.0
77.398	4.0
77.413	2.0
77.428	5.0
77.444	4.0
77.459	4.0
77.474	2.0
77.489	3.0
77.504	4.0
77.519	2.0
77.534	4.0
77.549	5.0
77.564	1.0
77.579	4.0
77.594	4.0
77.609	4.0
77.624	8.0
77.64	6.0
77.655	3.0
77.67	8.0
77.685	9.0
77.7	9.0
77.715	6.0
77.73	2.0
77.745	1.0
77.76	2.0
77.775	2.0
77.79	3.0
77.805	2.0
77.82	2.0
77.835	1.0
77.85	3.0
77.865	4.0
77.88	3.0
77.895	2.0
77.91	6.0
77.926	2.0
77.941	3.0
77.956	2.0
77.971	0.0
77.986	4.0
78.001	4.0
78.016	2.0
78.031	2.0
78.046	5.0
78.061	3.0
78.076	4.0
78.091	3.0
78.106	2.0
78.121	4.0
78.136	1.0
78.151	4.0
78.166	5.0
78.181	3.0
78.196	4.0
78.211	9.0
78.226	1.0
78.241	2.0
78.256	5.0
78.271	3.0
78.286	2.0
78.301	1.0
78.316	2.0
78.331	1.0
78.346	3.0
78.361	3.0
78.376	1.0
78.391	4.0
78.406	3.0
78.421	4.0
78.436	2.0
78.451	1.0
78.466	4.0
78.481	3.0
78.496	7.0
78.511	3.0
78.526	2.0
78.541	0.0
78.556	4.0
78.571	4.0
78.586	3.0
78.601	6.0
78.616	4.0
78.631	2.0
78.646	4.0
78.661	4.0
78.676	5.0
78.691	5.0
78.706	4.0
78.721	1.0
78.736	3.0
78.751	2.0
78.766	5.0
78.781	3.0
78.796	1.0
78.811	1.0
78.826	4.0
78.841	3.0
78.856	7.0
78.871	5.0
78.885	3.0
78.9	2.0
78.915	1.0
78.93	6.0
78.945	11.0
78.96	2.0
78.975	3.0
78.99	4.0
79.005	4.0
79.02	4.0
79.035	6.0
79.05	3.0
79.065	3.0
79.08	2.0
79.095	8.0
79.11	2.0
79.125	3.0
79.14	5.0
79.155	5.0
79.17	1.0
79.185	4.0
79.2	4.0
79.215	3.0
79.23	5.0
79.245	1.0
79.26	3.0
79.275	4.0
79.29	3.0
79.304	4.0
79.319	6.0
79.334	4.0
79.349	2.0
79.364	1.0
79.379	3.0
79.394	1.0
79.409	1.0
79.424	0.0
79.439	5.0
79.454	2.0
79.469	3.0
79.484	2.0
79.499	0.0
79.514	3.0
79.529	2.0
79.544	4.0
79.559	2.0
79.574	4.0
79.589	0.0
79.604	5.0
79.619	5.0
79.634	4.0
79.649	2.0
79.664	3.0
79.679	3.0
79.693	1.0
79.708	7.0
79.723	2.0
79.738	2.0
79.753	2.0
79.768	3.0
79.783	1.0
79.798	2.0
79.813	4.0
79.828	5.0
79.843	11.0
79.858	4.0
79.873	2.0
79.888	0.0
79.903	2.0
79.918	2.0
79.933	2.0
79.948	2.0
79.963	5.0
79.978	2.0
79.993	0.0
80.008	5.0
80.023	3.0
80.038	0.0
80.053	3.0
80.068	2.0
80.083	2.0
80.098	3.0
80.113	0.0
80.128	8.0
80.143	3.0
80.158	2.0
80.173	2.0
80.188	6.0
80.202	3.0
80.217	4.0
80.232	2.0
80.247	2.0
80.262	1.0
80.277	2.0
80.292	4.0
80.307	5.0
80.322	3.0
80.337	4.0
80.352	1.0
80.367	3.0
80.382	0.0
80.397	3.0
80.412	2.0
80.427	3.0
80.442	1.0
80.457	6.0
80.472	4.0
80.487	3.0
80.502	1.0
80.517	1.0
80.532	1.0
80.547	0.0
80.562	1.0
80.577	5.0
80.592	3.0
80.607	2.0
80.622	5.0
80.637	6.0
80.652	2.0
80.667	0.0
80.682	4.0
80.697	8.0
80.712	0.0
80.727	7.0
80.742	5.0
80.757	3.0
80.772	2.0
80.787	4.0
80.802	2.0
80.817	5.0
80.832	6.0
80.847	3.0
80.862	5.0
80.877	1.0
80.892	5.0
80.907	2.0
80.922	3.0
80.937	3.0
80.952	3.0
80.967	2.0
80.982	2.0
80.997	2.0
81.012	4.0
81.027	7.0
81.042	1.0
81.057	1.0
81.072	4.0
81.087	5.0
81.101	3.0
81.116	2.0
81.131	5.0
81.146	2.0
81.161	0.0
81.176	3.0
81.191	3.0
81.206	5.0
81.221	3.0
81.236	0.0
81.251	3.0
81.266	4.0
81.281	4.0
81.296	4.0
81.311	0.0
81.326	2.0
81.341	4.0
81.356	6.0
81.371	5.0
81.386	2.0
81.401	2.0
81.416	4.0
81.431	2.0
81.446	4.0
81.461	4.0
81.476	4.0
81.491	2.0
81.506	5.0
81.521	4.0
81.536	3.0
81.55	1.0
81.565	2.0
81.58	2.0
81.595	4.0
81.61	5.0
81.625	2.0
81.64	2.0
81.655	2.0
81.67	5.0
81.685	1.0
81.7	2.0
81.715	5.0
81.73	3.0
81.745	1.0
81.76	2.0
81.775	0.0
81.79	5.0
81.805	5.0
81.819	1.0
81.834	1.0
81.849	3.0
81.864	1.0
81.879	2.0
81.894	5.0
81.909	1.0
81.924	7.0
81.939	1.0
81.954	5.0
81.969	5.0
81.984	2.0
81.999	1.0
82.013	2.0
82.028	0.0
82.043	3.0
82.058	4.0
82.073	3.0
82.088	5.0
82.103	4.0
82.118	0.0
82.133	3.0
82.148	2.0
82.163	2.0
82.177	3.0
82.192	2.0
82.207	2.0
82.222	2.0
82.237	1.0
82.252	3.0
82.267	3.0
82.282	7.0
82.297	4.0
82.312	3.0
82.326	3.0
82.341	2.0
82.356	2.0
82.371	1.0
82.386	1.0
82.401	2.0
82.416	3.0
82.431	4.0
82.445	3.0
82.46	4.0
82.475	4.0
82.49	4.0
82.505	2.0
82.52	2.0
82.535	1.0
82.55	2.0
82.565	4.0
82.579	4.0
82.594	3.0
82.609	0.0
82.624	3.0
82.639	4.0
82.654	1.0
82.669	3.0
82.684	3.0
82.698	2.0
82.713	5.0
82.728	3.0
82.743	0.0
82.758	4.0
82.773	1.0
82.788	2.0
82.803	2.0
82.817	3.0
82.832	1.0
82.847	4.0
82.862	3.0
82.877	1.0
82.892	4.0
82.907	0.0
82.922	3.0
82.937	1.0
82.951	0.0
82.966	2.0
82.981	3.0
82.996	4.0
83.011	3.0
83.026	2.0
83.041	2.0
83.056	3.0
83.07	6.0
83.085	1.0
83.1	1.0
83.115	3.0
83.13	3.0
83.145	3.0
83.16	3.0
83.175	1.0
83.19	3.0
83.204	3.0
83.219	1.0
83.234	0.0
83.249	1.0
83.264	1.0
83.279	1.0
83.294	4.0
83.309	6.0
83.324	6.0
83.339	3.0
83.353	1.0
83.368	4.0
83.383	2.0
83.398	4.0
83.413	2.0
83.428	2.0
83.443	1.0
83.458	2.0
83.473	3.0
83.488	0.0
83.503	3.0
83.517	5.0
83.532	3.0
83.547	2.0
83.562	6.0
83.577	4.0
83.592	3.0
83.607	1.0
83.622	6.0
83.637	1.0
83.652	3.0
83.667	6.0
83.682	1.0
83.697	5.0
83.712	5.0
83.727	6.0
83.741	1.0
83.756	3.0
83.771	5.0
83.786	4.0
83.801	3.0
83.816	5.0
83.831	2.0
83.846	3.0
83.861	4.0
83.876	2.0
83.891	2.0
83.906	1.0
83.921	3.0
83.936	3.0
83.951	3.0
83.966	2.0
83.981	2.0
83.996	3.0
84.011	3.0
84.026	3.0
84.041	3.0
84.056	3.0
84.071	3.0
84.086	1.0
84.101	4.0
84.116	3.0
84.131	0.0
84.146	3.0
84.161	0.0
84.176	1.0
84.191	6.0
84.206	2.0
84.221	4.0
84.236	3.0
84.251	3.0
84.266	4.0
84.281	2.0
84.296	5.0
84.311	6.0
84.326	7.0
84.341	2.0
84.356	5.0
84.371	4.0
84.386	3.0
84.401	1.0
84.416	9.0
84.431	5.0
84.446	5.0
84.461	5.0
84.476	4.0
84.492	0.0
84.507	0.0
84.522	6.0
84.537	3.0
84.552	3.0
84.567	2.0
84.582	5.0
84.597	4.0
84.612	4.0
84.627	3.0
84.642	2.0
84.657	0.0
84.672	2.0
84.687	1.0
84.702	4.0
84.717	4.0
84.733	4.0
84.748	5.0
84.763	2.0
84.778	3.0
84.793	2.0
84.808	1.0
84.823	3.0
84.838	4.0
84.853	2.0
84.868	7.0
84.883	5.0
84.898	2.0
84.913	6.0
84.929	4.0
84.944	5.0
84.959	2.0
84.974	3.0
84.989	4.0
85.004	4.0
85.019	0.0
85.034	7.0
85.049	2.0
85.064	8.0
85.079	3.0
85.094	3.0
85.11	4.0
85.125	1.0
85.14	1.0
85.155	3.0
85.17	4.0
85.185	4.0
85.2	7.0
85.215	5.0
85.23	2.0
85.245	7.0
85.26	5.0
85.276	3.0
85.291	1.0
85.306	3.0
85.321	3.0
85.336	3.0
85.351	2.0
85.366	6.0
85.381	0.0
85.396	5.0
85.411	2.0
85.426	2.0
85.441	5.0
85.457	4.0
85.472	2.0
85.487	1.0
85.502	2.0
85.517	5.0
85.532	0.0
85.547	3.0
85.562	2.0
85.577	1.0
85.592	5.0
85.607	3.0
85.622	2.0
85.637	1.0
85.653	2.0
85.668	1.0
85.683	3.0
85.698	2.0
85.713	2.0
85.728	4.0
85.743	2.0
85.758	1.0
85.773	2.0
85.788	5.0
85.803	5.0
85.818	2.0
85.833	2.0
85.848	5.0
85.863	4.0
85.879	3.0
85.894	0.0
85.909	3.0
85.924	2.0
85.939	4.0
85.954	6.0
85.969	6.0
85.984	4.0
85.999	1.0
86.014	4.0
86.029	5.0
86.044	5.0
86.059	4.0
86.074	2.0
86.089	3.0
86.104	3.0
86.119	4.0
86.134	2.0
86.149	3.0
86.164	4.0
86.179	3.0
86.194	6.0
86.209	4.0
86.224	2.0
86.239	0.0
86.254	5.0
86.269	4.0
86.284	2.0
86.299	2.0
86.314	3.0
86.33	3.0
86.345	4.0
86.36	4.0
86.375	3.0
86.39	1.0
86.405	6.0
86.42	2.0
86.435	4.0
86.45	3.0
86.465	2.0
86.48	1.0
86.495	3.0
86.51	2.0
86.525	4.0
86.54	7.0
86.555	0.0
86.57	1.0
86.585	4.0
86.6	2.0
86.615	0.0
86.63	2.0
86.645	2.0
86.659	5.0
86.674	4.0
86.689	3.0
86.704	1.0
86.719	6.0
86.734	6.0
86.749	3.0
86.764	3.0
86.779	6.0
86.794	7.0
86.809	4.0
86.824	4.0
86.839	1.0
86.854	2.0
86.869	5.0
86.884	2.0
86.899	8.0
86.914	4.0
86.929	2.0
86.944	5.0
86.959	2.0
86.974	5.0
86.989	2.0
87.004	1.0
87.019	4.0
87.034	3.0
87.049	3.0
87.064	2.0
87.079	2.0
87.094	4.0
87.109	1.0
87.124	0.0
87.139	3.0
87.154	7.0
87.169	2.0
87.184	4.0
87.199	6.0
87.214	0.0
87.229	3.0
87.244	4.0
87.259	1.0
87.274	2.0
87.289	1.0
87.304	4.0
87.319	1.0
87.334	2.0
87.349	5.0
87.364	1.0
87.379	0.0
87.394	1.0
87.409	4.0
87.424	2.0
87.438	4.0
87.453	6.0
87.468	0.0
87.483	2.0
87.498	3.0
87.513	4.0
87.528	6.0
87.543	6.0
87.558	4.0
87.573	4.0
87.588	3.0
87.603	1.0
87.618	5.0
87.633	4.0
87.648	4.0
87.663	5.0
87.678	6.0
87.693	5.0
87.708	0.0
87.723	6.0
87.738	6.0
87.753	8.0
87.768	3.0
87.783	2.0
87.798	4.0
87.813	5.0
87.828	4.0
87.843	7.0
87.858	2.0
87.873	7.0
87.888	4.0
87.903	2.0
87.918	4.0
87.933	3.0
87.948	1.0
87.963	5.0
87.978	2.0
87.993	3.0
88.008	3.0
88.023	4.0
88.038	2.0
88.053	1.0
88.068	0.0
88.083	3.0
88.098	1.0
88.113	2.0
88.128	1.0
88.143	3.0
88.158	7.0
88.174	3.0
88.189	6.0
88.204	3.0
88.219	1.0
88.234	7.0
88.249	4.0
88.264	0.0
88.279	4.0
88.294	1.0
88.309	2.0
88.324	1.0
88.339	3.0
88.354	4.0
88.369	3.0
88.384	4.0
88.399	3.0
88.414	3.0
88.429	4.0
88.444	1.0
88.459	4.0
88.474	2.0
88.489	1.0
88.504	5.0
88.519	0.0
88.534	2.0
88.549	6.0
88.564	2.0
88.58	7.0
88.595	3.0
88.61	3.0
88.625	5.0
88.64	4.0
88.655	0.0
88.67	2.0
88.685	4.0
88.7	4.0
88.715	5.0
88.73	5.0
88.745	3.0
88.76	2.0
88.775	3.0
88.79	3.0
88.805	2.0
88.82	1.0
88.835	3.0
88.85	7.0
88.865	2.0
88.88	4.0
88.895	4.0
88.911	1.0
88.926	3.0
88.941	3.0
88.956	3.0
88.971	4.0
88.986	1.0
89.001	1.0
89.016	4.0
89.031	4.0
89.046	3.0
89.061	4.0
89.076	3.0
89.091	1.0
89.106	3.0
89.121	3.0
89.136	1.0
89.151	3.0
89.166	3.0
89.181	5.0
89.196	5.0
89.211	3.0
89.227	5.0
89.242	4.0
89.257	5.0
89.272	4.0
89.287	6.0
89.302	2.0
89.317	2.0
89.332	0.0
89.347	5.0
89.362	1.0
89.377	5.0
89.392	2.0
89.407	5.0
89.422	6.0
89.437	2.0
89.452	4.0
89.467	6.0
89.482	1.0
89.497	5.0
89.512	5.0
89.527	4.0
89.542	4.0
89.557	3.0
89.572	4.0
89.587	1.0
89.602	3.0
89.617	2.0
89.632	2.0
89.647	4.0
89.662	4.0
89.677	2.0
89.693	1.0
89.708	4.0
89.723	3.0
89.738	4.0
89.753	4.0
89.768	1.0
89.783	1.0
89.798	2.0
89.813	6.0
89.828	0.0
89.843	5.0
89.858	6.0
89.873	7.0
89.888	4.0
89.903	3.0
89.918	2.0
89.933	2.0
89.948	2.0
89.963	4.0
89.978	1.0
89.993	2.0
90.008	4.0
90.023	1.0
90.038	2.0
90.053	4.0
90.068	3.0
90.083	1.0
90.097	5.0
90.112	3.0
90.127	3.0
90.142	1.0
90.157	4.0
90.172	4.0
90.187	1.0
90.202	2.0
90.217	4.0
90.232	5.0
90.247	2.0
90.262	5.0
90.277	1.0
90.292	2.0
90.307	4.0
90.322	3.0
90.337	1.0
90.352	0.0
90.367	3.0
90.382	3.0
90.397	6.0
90.412	3.0
90.427	3.0
90.442	5.0
90.457	2.0
90.472	3.0
90.487	1.0
90.501	4.0
90.516	6.0
90.531	4.0
90.546	5.0
90.561	5.0
90.576	1.0
90.591	2.0
90.606	1.0
90.621	1.0
90.636	1.0
90.651	5.0
90.666	7.0
90.681	2.0
90.696	2.0
90.711	1.0
90.726	6.0
90.741	3.0
90.755	4.0
90.77	4.0
90.785	2.0
90.8	2.0
90.815	1.0
90.83	5.0
90.845	3.0
90.86	4.0
90.875	3.0
90.89	2.0
90.905	7.0
90.92	2.0
90.935	2.0
90.95	2.0
90.965	3.0
90.979	4.0
90.994	4.0
91.009	5.0
91.024	2.0
91.039	1.0
91.054	3.0
91.069	4.0
91.084	3.0
91.099	7.0
91.114	2.0
91.129	3.0
91.144	6.0
91.159	3.0
91.174	6.0
91.188	1.0
91.203	4.0
91.218	1.0
91.233	3.0
91.248	2.0
91.263	2.0
91.278	5.0
91.293	2.0
91.308	3.0
91.323	6.0
91.338	3.0
91.353	3.0
91.368	3.0
91.383	3.0
91.398	4.0
91.412	1.0
91.427	2.0
91.442	7.0
91.457	2.0
91.472	3.0
91.487	2.0
91.502	3.0
91.517	5.0
91.532	2.0
91.547	3.0
91.562	4.0
91.577	1.0
91.592	6.0
91.607	5.0
91.622	5.0
91.637	3.0
91.652	3.0
91.666	0.0
91.681	0.0
91.696	4.0
91.711	7.0
91.726	2.0
91.741	3.0
91.756	3.0
91.771	1.0
91.786	5.0
91.801	2.0
91.816	3.0
91.831	1.0
91.846	3.0
91.861	1.0
91.876	2.0
91.891	1.0
91.906	6.0
91.921	3.0
91.936	1.0
91.951	0.0
91.966	1.0
91.981	2.0
91.995	1.0
92.01	2.0
92.025	3.0
92.04	3.0
92.055	0.0
92.07	1.0
92.085	1.0
92.1	5.0
92.115	4.0
92.13	6.0
92.145	3.0
92.16	4.0
92.175	4.0
92.19	1.0
92.205	2.0
92.22	3.0
92.235	4.0
92.25	4.0
92.265	4.0
92.28	6.0
92.295	5.0
92.31	2.0
92.325	2.0
92.34	2.0
92.355	1.0
92.37	1.0
92.385	3.0
92.4	4.0
92.415	2.0
92.43	1.0
92.445	4.0
92.46	3.0
92.475	2.0
92.49	2.0
92.505	3.0
92.52	3.0
92.535	3.0
92.55	6.0
92.565	1.0
92.58	3.0
92.595	4.0
92.61	4.0
92.625	5.0
92.64	3.0
92.655	6.0
92.67	2.0
92.685	7.0
92.7	1.0
92.715	3.0
92.73	4.0
92.745	5.0
92.76	4.0
92.775	3.0
92.79	4.0
92.805	2.0
92.82	6.0
92.835	4.0
92.85	4.0
92.865	5.0
92.88	3.0
92.895	3.0
92.91	4.0
92.925	3.0
92.94	3.0
92.955	0.0
92.97	3.0
92.985	6.0
93.0	5.0
93.015	5.0
93.03	2.0
93.045	3.0
93.06	0.0
93.075	6.0
93.09	1.0
93.105	3.0
93.12	2.0
93.135	2.0
93.15	2.0
93.165	3.0
93.18	2.0
93.195	2.0
93.21	1.0
93.225	2.0
93.24	1.0
93.255	2.0
93.27	2.0
93.285	4.0
93.3	2.0
93.315	4.0
93.33	0.0
93.345	3.0
93.36	6.0
93.375	0.0
93.39	3.0
93.405	4.0
93.42	2.0
93.435	2.0
93.45	3.0
93.465	4.0
93.48	11.0
93.495	4.0
93.51	7.0
93.525	2.0
93.54	5.0
93.555	2.0
93.57	1.0
93.585	2.0
93.6	1.0
93.615	2.0
93.63	4.0
93.645	2.0
93.66	2.0
93.675	3.0
93.69	2.0
93.705	4.0
93.72	1.0
93.735	2.0
93.75	1.0
93.765	4.0
93.78	4.0
93.795	4.0
93.81	4.0
93.824	3.0
93.839	2.0
93.854	1.0
93.869	2.0
93.884	5.0
93.899	5.0
93.914	1.0
93.929	1.0
93.944	5.0
93.959	1.0
93.974	3.0
93.989	5.0
94.004	2.0
94.019	4.0
94.034	7.0
94.049	3.0
94.064	1.0
94.079	1.0
94.094	1.0
94.108	1.0
94.123	3.0
94.138	3.0
94.153	5.0
94.168	0.0
94.183	5.0
94.198	3.0
94.213	4.0
94.228	3.0
94.243	5.0
94.258	2.0
94.273	5.0
94.288	4.0
94.302	4.0
94.317	6.0
94.332	5.0
94.347	3.0
94.362	2.0
94.377	5.0
94.392	5.0
94.407	3.0
94.422	6.0
94.437	3.0
94.452	7.0
94.466	5.0
94.481	1.0
94.496	8.0
94.511	5.0
94.526	1.0
94.541	5.0
94.556	5.0
94.571	5.0
94.586	1.0
94.601	3.0
94.615	2.0
94.63	1.0
94.645	5.0
94.66	4.0
94.675	0.0
94.69	4.0
94.705	4.0
94.72	1.0
94.735	1.0
94.749	1.0
94.764	0.0
94.779	1.0
94.794	5.0
94.809	5.0
94.824	1.0
94.839	2.0
94.854	3.0
94.868	5.0
94.883	1.0
94.898	2.0
94.913	2.0
94.928	3.0
94.943	3.0
94.958	3.0
94.973	2.0
94.987	4.0
95.002	6.0
95.017	5.0
95.032	6.0
95.047	3.0
95.062	5.0
95.077	3.0
95.092	6.0
95.106	5.0
95.121	6.0
95.136	4.0
95.151	4.0
95.166	7.0
95.181	2.0
95.196	2.0
95.211	6.0
95.226	3.0
95.24	4.0
95.255	4.0
95.27	8.0
95.285	3.0
95.3	5.0
95.315	4.0
95.33	3.0
95.345	2.0
95.359	6.0
95.374	6.0
95.389	5.0
95.404	3.0
95.419	2.0
95.434	5.0
95.449	1.0
95.464	2.0
95.478	3.0
95.493	3.0
95.508	2.0
95.523	2.0
95.538	4.0
95.553	2.0
95.568	2.0
95.583	5.0
95.597	2.0
95.612	4.0
95.627	6.0
95.642	1.0
95.657	3.0
95.672	6.0
95.687	1.0
95.702	2.0
95.717	2.0
95.731	1.0
95.746	1.0
95.761	3.0
95.776	3.0
95.791	3.0
95.806	3.0
95.821	4.0
95.836	3.0
95.851	6.0
95.866	3.0
95.88	3.0
95.895	2.0
95.91	1.0
95.925	3.0
95.94	2.0
95.955	4.0
95.97	3.0
95.985	4.0
96.0	6.0
96.015	1.0
96.029	3.0
96.044	2.0
96.059	6.0
96.074	2.0
96.089	3.0
96.104	4.0
96.119	4.0
96.134	7.0
96.149	1.0
96.164	3.0
96.179	5.0
96.194	3.0
96.208	4.0
96.223	1.0
96.238	6.0
96.253	2.0
96.268	4.0
96.283	3.0
96.298	2.0
96.313	5.0
96.328	4.0
96.343	3.0
96.358	3.0
96.373	5.0
96.388	5.0
96.403	2.0
96.417	3.0
96.432	3.0
96.447	4.0
96.462	5.0
96.477	3.0
96.492	3.0
96.507	2.0
96.522	2.0
96.537	5.0
96.552	1.0
96.567	0.0
96.582	1.0
96.597	5.0
96.612	4.0
96.627	0.0
96.642	3.0
96.656	1.0
96.671	1.0
96.686	7.0
96.701	4.0
96.716	5.0
96.731	5.0
96.746	1.0
96.761	4.0
96.776	2.0
96.791	5.0
96.806	7.0
96.821	1.0
96.836	2.0
96.851	2.0
96.866	3.0
96.881	6.0
96.896	1.0
96.911	3.0
96.926	0.0
96.94	3.0
96.955	3.0
96.97	3.0
96.985	5.0
97.0	3.0
97.015	4.0
97.03	5.0
97.045	3.0
97.06	1.0
97.075	3.0
97.09	5.0
97.105	3.0
97.12	3.0
97.135	2.0
97.15	5.0
97.165	1.0
97.18	1.0
97.195	2.0
97.21	4.0
97.225	1.0
97.239	1.0
97.254	2.0
97.269	2.0
97.284	0.0
97.299	1.0
97.314	5.0
97.329	1.0
97.344	2.0
97.359	1.0
97.374	1.0
97.389	4.0
97.404	1.0
97.419	2.0
97.434	5.0
97.449	3.0
97.464	7.0
97.479	2.0
97.494	3.0
97.509	4.0
97.524	2.0
97.538	2.0
97.553	2.0
97.568	3.0
97.583	0.0
97.598	2.0
97.613	4.0
97.628	2.0
97.643	2.0
97.658	5.0
97.673	5.0
97.688	3.0
97.703	1.0
97.718	3.0
97.733	5.0
97.748	3.0
97.763	5.0
97.778	6.0
97.792	5.0
97.807	5.0
97.822	3.0
97.837	3.0
97.852	6.0
97.867	6.0
97.882	4.0
97.897	2.0
97.912	3.0
97.927	3.0
97.942	5.0
97.957	4.0
97.972	4.0
97.987	3.0
98.001	4.0
98.016	2.0
98.031	3.0
98.046	1.0
98.061	2.0
98.076	3.0
98.091	3.0
98.106	2.0
98.121	3.0
98.136	1.0
98.151	3.0
98.166	3.0
98.181	1.0
98.195	6.0
98.21	4.0
98.225	5.0
98.24	4.0
98.255	1.0
98.27	1.0
98.285	3.0
98.3	2.0
98.315	1.0
98.33	3.0
98.345	0.0
98.359	0.0
98.374	3.0
98.389	1.0
98.404	2.0
98.419	4.0
98.434	6.0
98.449	2.0
98.464	1.0
98.479	5.0
98.494	4.0
98.508	3.0
98.523	4.0
98.538	4.0
98.553	6.0
98.568	1.0
98.583	5.0
98.598	3.0
98.613	4.0
98.628	3.0
98.642	3.0
98.657	2.0
98.672	2.0
98.687	1.0
98.702	2.0
98.717	2.0
98.732	3.0
98.747	3.0
98.762	2.0
98.776	5.0
98.791	5.0
98.806	1.0
98.821	1.0
98.836	3.0
98.851	2.0
98.866	1.0
98.881	2.0
98.896	0.0
98.91	3.0
98.925	1.0
98.94	3.0
98.955	2.0
98.97	3.0
98.985	2.0
99.0	4.0
99.015	1.0
99.029	3.0
99.044	2.0
99.059	3.0
99.074	1.0
99.089	4.0
99.104	3.0
99.119	3.0
99.133	3.0
99.148	1.0
99.163	1.0
99.178	3.0
99.193	1.0
99.208	3.0
99.223	0.0
99.238	4.0
99.252	3.0
99.267	4.0
99.282	2.0
99.297	2.0
99.312	3.0
99.327	0.0
99.342	7.0
99.356	7.0
99.371	1.0
99.386	3.0
99.401	1.0
99.416	6.0
99.431	3.0
99.446	7.0
99.461	1.0
99.475	2.0
99.49	6.0
99.505	1.0
99.52	4.0
99.535	1.0
99.55	3.0
99.565	5.0
99.579	4.0
99.594	3.0
99.609	0.0
99.624	4.0
99.639	5.0
99.654	4.0
99.669	5.0
99.683	2.0
99.698	2.0
99.713	2.0
99.728	3.0
99.743	1.0
99.758	5.0
99.772	6.0
99.787	3.0
99.802	5.0
99.817	3.0
99.832	2.0
99.847	5.0
99.862	4.0
99.876	0.0
99.891	3.0
99.906	6.0
99.921	1.0
99.936	1.0
99.951	3.0
99.966	7.0
99.98	4.0
99.995	3.0
100.01	2.0
100.025	3.0
100.04	4.0
100.055	2.0
100.069	3.0
100.084	2.0
100.099	2.0
100.114	1.0
100.129	4.0
100.144	5.0
100.159	6.0
100.173	5.0
100.188	1.0
100.203	7.0
100.218	4.0
100.233	1.0
100.248	2.0
100.262	3.0
100.277	6.0
100.292	5.0
100.307	3.0
100.322	6.0
100.337	5.0
100.351	2.0
100.366	5.0
100.381	1.0
100.396	4.0
100.411	4.0
100.426	3.0
100.441	3.0
100.455	4.0
100.47	1.0
100.485	3.0
100.5	3.0
100.515	1.0
100.53	3.0
100.544	3.0
100.559	3.0
100.574	2.0
100.589	2.0
100.604	1.0
100.619	0.0
100.633	0.0
100.648	0.0
100.663	3.0
100.678	2.0
100.693	3.0
100.708	2.0
100.722	2.0
100.737	0.0
100.752	4.0
100.767	5.0
100.782	3.0
100.796	2.0
100.811	4.0
100.826	2.0
100.841	1.0
100.856	0.0
100.871	4.0
100.885	6.0
100.9	5.0
100.915	2.0
100.93	6.0
100.945	3.0
100.96	0.0
100.974	4.0
100.989	1.0
101.004	0.0
101.019	4.0
101.034	5.0
101.048	3.0
101.063	4.0
101.078	2.0
101.093	4.0
101.108	4.0
101.123	7.0
101.137	3.0
101.152	4.0
101.167	6.0
101.182	2.0
101.197	4.0
101.211	3.0
101.226	4.0
101.241	4.0
101.256	1.0
101.271	4.0
101.285	3.0
101.3	3.0
101.315	4.0
101.33	7.0
101.345	3.0
101.359	2.0
101.374	4.0
101.389	3.0
101.404	4.0
101.419	5.0
101.433	2.0
101.448	3.0
101.463	1.0
101.478	3.0
101.493	2.0
101.507	3.0
101.522	4.0
101.537	0.0
101.552	5.0
101.567	3.0
101.581	2.0
101.596	5.0
101.611	3.0
101.626	2.0
101.64	6.0
101.655	4.0
101.67	4.0
101.685	7.0
101.7	1.0
101.714	2.0
101.729	3.0
101.744	1.0
101.759	2.0
101.773	1.0
101.788	3.0
101.803	6.0
101.818	1.0
101.833	1.0
101.847	3.0
101.862	7.0
101.877	2.0
101.892	0.0
101.906	1.0
101.921	2.0
101.936	3.0
101.951	2.0
101.965	1.0
101.98	2.0
101.995	3.0
102.01	2.0
102.025	4.0
102.039	6.0
102.054	1.0
102.069	3.0
102.084	4.0
102.098	1.0
102.113	4.0
102.128	2.0
102.143	5.0
102.157	7.0
102.172	4.0
102.187	3.0
102.202	6.0
102.216	2.0
102.231	3.0
102.246	4.0
102.261	2.0
102.275	5.0
102.29	2.0
102.305	5.0
102.32	2.0
102.334	5.0
102.349	4.0
102.364	6.0
102.378	2.0
102.393	6.0
102.408	5.0
102.423	2.0
102.437	3.0
102.452	4.0
102.467	1.0
102.482	2.0
102.496	6.0
102.511	2.0
102.526	1.0
102.541	1.0
102.555	2.0
102.57	1.0
102.585	0.0
102.6	3.0
102.614	3.0
102.629	6.0
102.644	3.0
102.659	3.0
102.673	2.0
102.688	2.0
102.703	3.0
102.717	4.0
102.732	3.0
102.747	1.0
102.762	2.0
102.776	3.0
102.791	4.0
102.806	3.0
102.821	1.0
102.835	2.0
102.85	2.0
102.865	4.0
102.88	8.0
102.894	6.0
102.909	4.0
102.924	6.0
102.938	5.0
102.953	0.0
102.968	2.0
102.983	3.0
102.997	2.0
103.012	3.0
103.027	2.0
103.042	1.0
103.056	6.0
103.071	3.0
103.086	0.0
103.101	5.0
103.115	2.0
103.13	4.0
103.145	5.0
103.16	2.0
103.174	2.0
103.189	6.0
103.204	3.0
103.219	5.0
103.233	4.0
103.248	3.0
103.263	2.0
103.278	5.0
103.292	6.0
103.307	2.0
103.322	2.0
103.337	2.0
103.351	1.0
103.366	0.0
103.381	7.0
103.396	3.0
103.41	5.0
103.425	4.0
103.44	4.0
103.455	2.0
103.469	6.0
103.484	4.0
103.499	1.0
103.514	4.0
103.529	0.0
103.543	0.0
103.558	4.0
103.573	1.0
103.588	1.0
103.602	0.0
103.617	2.0
103.632	1.0
103.647	6.0
103.661	4.0
103.676	5.0
103.691	3.0
103.706	4.0
103.721	3.0
103.735	2.0
103.75	4.0
103.765	3.0
103.78	2.0
103.795	3.0
103.809	4.0
103.824	4.0
103.839	0.0
103.854	3.0
103.869	5.0
103.883	1.0
103.898	5.0
103.913	3.0
103.928	3.0
103.943	4.0
103.957	5.0
103.972	2.0
103.987	4.0
104.002	1.0
104.017	2.0
104.031	2.0
104.046	5.0
104.061	2.0
104.076	4.0
104.091	3.0
104.106	7.0
104.12	2.0
104.135	5.0
104.15	2.0
104.165	2.0
104.18	3.0
104.195	3.0
104.209	5.0
104.224	3.0
104.239	5.0
104.254	5.0
104.269	2.0
104.284	2.0
104.299	10.0
104.313	1.0
104.328	4.0
104.343	4.0
104.358	0.0
104.373	2.0
104.388	2.0
104.403	5.0
104.417	7.0
104.432	0.0
104.447	2.0
104.462	5.0
104.477	3.0
104.492	1.0
104.507	1.0
104.522	1.0
104.536	1.0
104.551	8.0
104.566	5.0
104.581	6.0
104.596	4.0
104.611	6.0
104.626	4.0
104.641	4.0
104.656	2.0
104.67	3.0
104.685	1.0
104.7	5.0
104.715	2.0
104.73	7.0
104.745	3.0
104.76	2.0
104.775	3.0
104.79	3.0
104.804	2.0
104.819	4.0
104.834	1.0
104.849	3.0
104.864	2.0
104.879	6.0
104.894	4.0
104.909	3.0
104.924	5.0
104.939	7.0
104.954	3.0
104.968	1.0
104.983	5.0
104.998	4.0
105.013	2.0
105.028	3.0
105.043	4.0
105.058	1.0
105.073	9.0
105.088	2.0
105.103	3.0
105.118	4.0
105.133	7.0
105.147	2.0
105.162	4.0
105.177	3.0
105.192	1.0
105.207	4.0
105.222	3.0
105.237	2.0
105.252	5.0
105.267	7.0
105.282	1.0
105.297	3.0
105.312	3.0
105.327	2.0
105.342	3.0
105.356	6.0
105.371	4.0
105.386	2.0
105.401	0.0
105.416	3.0
105.431	6.0
105.446	5.0
105.461	4.0
105.476	5.0
105.491	5.0
105.506	6.0
105.521	3.0
105.536	4.0
105.551	0.0
105.566	2.0
105.581	4.0
105.595	1.0
105.61	3.0
105.625	5.0
105.64	1.0
105.655	4.0
105.67	3.0
105.685	0.0
105.7	4.0
105.715	1.0
105.73	2.0
105.745	5.0
105.76	2.0
105.775	3.0
105.79	3.0
105.805	3.0
105.82	4.0
105.835	1.0
105.85	2.0
105.864	2.0
105.879	2.0
105.894	4.0
105.909	4.0
105.924	7.0
105.939	3.0
105.954	3.0
105.969	2.0
105.984	2.0
105.999	3.0
106.014	1.0
106.029	5.0
106.044	2.0
106.059	2.0
106.074	5.0
106.089	5.0
106.104	2.0
106.119	5.0
106.134	3.0
106.148	3.0
106.163	3.0
106.178	5.0
106.193	5.0
106.208	6.0
106.223	3.0
106.238	2.0
106.253	2.0
106.268	2.0
106.283	4.0
106.298	2.0
106.313	5.0
106.328	2.0
106.343	3.0
106.358	6.0
106.373	3.0
106.388	1.0
106.403	4.0
106.418	3.0
106.432	3.0
106.447	3.0
106.462	6.0
106.477	7.0
106.492	3.0
106.507	3.0
106.522	3.0
106.537	4.0
106.552	2.0
106.567	3.0
106.582	4.0
106.597	3.0
106.612	1.0
106.627	5.0
106.642	2.0
106.657	2.0
106.672	3.0
106.687	7.0
106.701	4.0
106.716	2.0
106.731	7.0
106.746	5.0
106.761	2.0
106.776	3.0
106.791	1.0
106.806	3.0
106.821	3.0
106.836	2.0
106.851	7.0
106.866	5.0
106.881	2.0
106.896	4.0
106.911	5.0
106.926	1.0
106.941	4.0
106.955	3.0
106.97	0.0
106.985	5.0
107.0	4.0
107.015	2.0
107.03	4.0
107.045	3.0
107.06	3.0
107.075	0.0
107.09	6.0
107.105	2.0
107.12	8.0
107.135	1.0
107.15	6.0
107.165	4.0
107.18	7.0
107.194	6.0
107.209	9.0
107.224	1.0
107.239	3.0
107.254	3.0
107.269	7.0
107.284	3.0
107.299	4.0
107.314	3.0
107.329	3.0
107.344	2.0
107.359	3.0
107.374	4.0
107.389	2.0
107.404	2.0
107.418	5.0
107.433	2.0
107.448	1.0
107.463	2.0
107.478	4.0
107.493	4.0
107.508	3.0
107.523	2.0
107.538	3.0
107.553	0.0
107.568	5.0
107.583	4.0
107.598	3.0
107.613	5.0
107.627	2.0
107.642	2.0
107.657	2.0
107.672	3.0
107.687	7.0
107.702	4.0
107.717	1.0
107.732	3.0
107.747	3.0
107.762	3.0
107.777	5.0
107.792	1.0
107.807	3.0
107.821	1.0
107.836	2.0
107.851	1.0
107.866	3.0
107.881	4.0
107.896	0.0
107.911	2.0
107.926	5.0
107.941	4.0
107.956	5.0
107.971	3.0
107.986	2.0
108.0	8.0
108.015	5.0
108.03	4.0
108.045	5.0
108.06	1.0
108.075	3.0
108.09	7.0
108.105	4.0
108.12	1.0
108.135	7.0
108.15	2.0
108.164	3.0
108.179	2.0
108.194	2.0
108.209	2.0
108.224	3.0
108.239	1.0
108.254	5.0
108.269	3.0
108.284	3.0
108.299	1.0
108.313	4.0
108.328	2.0
108.343	2.0
108.358	2.0
108.373	1.0
108.388	1.0
108.403	2.0
108.418	2.0
108.433	5.0
108.448	1.0
108.462	6.0
108.477	2.0
108.492	1.0
108.507	3.0
108.522	6.0
108.537	2.0
108.552	3.0
108.567	2.0
108.582	6.0
108.597	4.0
108.611	4.0
108.626	4.0
108.641	6.0
108.656	4.0
108.671	2.0
108.686	0.0
108.701	2.0
108.716	3.0
108.731	3.0
108.745	3.0
108.76	6.0
108.775	4.0
108.79	1.0
108.805	4.0
108.82	4.0
108.835	3.0
108.85	7.0
108.865	0.0
108.879	3.0
108.894	3.0
108.909	4.0
108.924	2.0
108.939	3.0
108.954	7.0
108.969	3.0
108.984	4.0
108.999	4.0
109.013	2.0
109.028	3.0
109.043	5.0
109.058	5.0
109.073	1.0
109.088	10.0
109.103	5.0
109.118	4.0
109.133	5.0
109.147	4.0
109.162	3.0
109.177	4.0
109.192	3.0
109.207	1.0
109.222	3.0
109.237	4.0
109.252	1.0
109.267	5.0
109.281	5.0
109.296	3.0
109.311	0.0
109.326	3.0
109.341	1.0
109.356	3.0
109.371	4.0
109.386	0.0
109.4	2.0
109.415	1.0
109.43	2.0
109.445	4.0
109.46	3.0
109.475	1.0
109.49	1.0
109.505	2.0
109.52	1.0
109.534	4.0
109.549	1.0
109.564	3.0
109.579	3.0
109.594	2.0
109.609	2.0
109.624	6.0
109.639	3.0
109.653	3.0
109.668	5.0
109.683	2.0
109.698	3.0
109.713	1.0
109.728	1.0
109.743	2.0
109.758	5.0
109.773	6.0
109.787	1.0
109.802	2.0
109.817	4.0
109.832	3.0
109.847	1.0
109.862	4.0
109.877	1.0
109.892	3.0
109.907	0.0
109.921	5.0
109.936	4.0
109.951	4.0
109.966	1.0
109.981	3.0
109.996	3.0
110.011	4.0
110.026	7.0
110.04	5.0
110.055	3.0
110.07	6.0
110.085	2.0
110.1	5.0
110.115	5.0
110.13	5.0
110.145	3.0
110.16	0.0
110.174	4.0
110.189	1.0
110.204	4.0
110.219	5.0
110.234	3.0
110.249	0.0
110.264	2.0
110.279	0.0
110.294	4.0
110.308	3.0
110.323	2.0
110.338	0.0
110.353	3.0
110.368	4.0
110.383	5.0
110.398	4.0
110.413	3.0
110.428	1.0
110.442	3.0
110.457	3.0
110.472	7.0
110.487	2.0
110.502	2.0
110.517	1.0
110.532	4.0
110.547	2.0
110.561	4.0
110.576	4.0
110.591	2.0
110.606	2.0
110.621	4.0
110.636	4.0
110.651	5.0
110.666	3.0
110.681	3.0
110.695	1.0
110.71	2.0
110.725	1.0
110.74	1.0
110.755	4.0
110.77	8.0
110.785	3.0
110.8	4.0
110.815	2.0
110.829	4.0
110.844	6.0
110.859	3.0
110.874	1.0
110.889	2.0
110.904	3.0
110.919	4.0
110.934	6.0
110.948	1.0
110.963	1.0
110.978	2.0
110.993	0.0
111.008	6.0
111.023	3.0
111.038	1.0
111.053	2.0
111.067	2.0
111.082	3.0
111.097	2.0
111.112	1.0
111.127	3.0
111.142	8.0
111.157	0.0
111.172	6.0
111.186	2.0
111.201	2.0
111.216	5.0
111.231	2.0
111.246	4.0
111.261	1.0
111.276	3.0
111.291	6.0
111.305	2.0
111.32	4.0
111.335	2.0
111.35	5.0
111.365	5.0
111.38	3.0
111.395	4.0
111.41	5.0
111.424	3.0
111.439	4.0
111.454	4.0
111.469	3.0
111.484	5.0
111.499	2.0
111.514	3.0
111.528	7.0
111.543	3.0
111.558	3.0
111.573	5.0
111.588	5.0
111.603	4.0
111.618	3.0
111.633	4.0
111.647	5.0
111.662	7.0
111.677	2.0
111.692	3.0
111.707	9.0
111.722	4.0
111.737	4.0
111.751	0.0
111.766	5.0
111.781	2.0
111.796	4.0
111.811	4.0
111.826	3.0
111.84	5.0
111.855	7.0
111.87	2.0
111.885	1.0
111.9	4.0
111.915	1.0
111.93	3.0
111.944	3.0
111.959	4.0
111.974	7.0
111.989	5.0
112.004	2.0
112.019	3.0
112.033	1.0
112.048	4.0
112.063	2.0
112.078	8.0
112.093	3.0
112.108	3.0
112.123	6.0
112.137	1.0
112.152	3.0
112.167	3.0
112.182	6.0
112.197	2.0
112.212	3.0
112.226	1.0
112.241	1.0
112.256	1.0
112.271	2.0
112.286	4.0
112.301	3.0
112.315	0.0
112.33	6.0
112.345	4.0
112.36	4.0
112.375	3.0
112.389	1.0
112.404	3.0
112.419	3.0
112.434	4.0
112.449	3.0
112.464	2.0
112.478	3.0
112.493	4.0
112.508	4.0
112.523	2.0
112.538	1.0
112.553	3.0
112.567	6.0
112.582	3.0
112.597	4.0
112.612	4.0
112.627	2.0
112.642	4.0
112.656	3.0
112.671	4.0
112.686	6.0
112.701	10.0
112.716	2.0
112.73	1.0
112.745	3.0
112.76	5.0
112.775	3.0
112.79	3.0
112.805	0.0
112.819	2.0
112.834	4.0
112.849	1.0
112.864	2.0
112.879	6.0
112.894	3.0
112.908	1.0
112.923	0.0
112.938	6.0
112.953	2.0
112.968	6.0
112.983	5.0
112.997	2.0
113.012	9.0
113.027	2.0
113.042	3.0
113.057	3.0
113.072	4.0
113.086	4.0
113.101	1.0
113.116	3.0
113.131	6.0
113.146	2.0
113.161	4.0
113.175	4.0
113.19	1.0
113.205	3.0
113.22	5.0
113.235	1.0
113.25	2.0
113.265	8.0
113.279	4.0
113.294	1.0
113.309	5.0
113.324	4.0
113.339	3.0
113.354	3.0
113.368	2.0
113.383	3.0
113.398	2.0
113.413	4.0
113.428	10.0
113.443	6.0
113.458	1.0
113.472	5.0
113.487	3.0
113.502	2.0
113.517	3.0
113.532	1.0
113.547	3.0
113.562	4.0
113.576	2.0
113.591	2.0
113.606	5.0
113.621	3.0
113.636	9.0
113.651	4.0
113.666	2.0
113.681	6.0
113.695	2.0
113.71	2.0
113.725	3.0
113.74	0.0
113.755	3.0
113.77	1.0
113.785	5.0
113.8	4.0
113.814	6.0
113.829	5.0
113.844	6.0
113.859	4.0
113.874	3.0
113.889	5.0
113.904	2.0
113.919	5.0
113.934	3.0
113.949	5.0
113.963	6.0
113.978	5.0
113.993	3.0
114.008	4.0
114.023	0.0
114.038	3.0
114.053	2.0
114.068	2.0
114.083	1.0
114.098	2.0
114.113	7.0
114.127	3.0
114.142	1.0
114.157	2.0
114.172	4.0
114.187	5.0
114.202	1.0
114.217	4.0
114.232	1.0
114.247	4.0
114.262	5.0
114.277	3.0
114.292	2.0
114.307	1.0
114.322	3.0
114.337	2.0
114.351	4.0
114.366	3.0
114.381	3.0
114.396	4.0
114.411	2.0
114.426	2.0
114.441	3.0
114.456	2.0
114.471	5.0
114.486	6.0
114.501	6.0
114.516	8.0
114.531	4.0
114.546	5.0
114.561	3.0
114.576	5.0
114.591	3.0
114.606	4.0
114.621	0.0
114.636	1.0
114.65	0.0
114.665	3.0
114.68	1.0
114.695	0.0
114.71	3.0
114.725	8.0
114.74	4.0
114.755	2.0
114.77	2.0
114.785	2.0
114.8	4.0
114.815	4.0
114.83	4.0
114.845	7.0
114.86	1.0
114.875	1.0
114.89	0.0
114.905	5.0
114.92	7.0
114.935	5.0
114.95	6.0
114.965	3.0
114.98	3.0
114.995	3.0
115.009	1.0
115.024	2.0
115.039	7.0
115.054	0.0
115.069	6.0
115.084	4.0
115.099	0.0
115.114	3.0
115.129	5.0
115.144	6.0
115.159	9.0
115.174	8.0
115.189	3.0
115.204	7.0
115.219	4.0
115.234	3.0
115.249	4.0
115.264	4.0
115.279	7.0
115.294	8.0
115.309	3.0
115.323	3.0
115.338	5.0
115.353	4.0
115.368	3.0
115.383	5.0
115.398	3.0
115.413	3.0
115.428	1.0
115.443	4.0
115.458	3.0
115.473	5.0
115.488	3.0
115.503	3.0
115.518	4.0
115.533	2.0
115.548	5.0
115.562	2.0
115.577	5.0
115.592	3.0
115.607	0.0
115.622	4.0
115.637	3.0
115.652	3.0
115.667	2.0
115.682	0.0
115.697	3.0
115.712	4.0
115.727	4.0
115.741	3.0
115.756	7.0
115.771	3.0
115.786	5.0
115.801	5.0
115.816	4.0
115.831	2.0
115.846	0.0
115.861	2.0
115.875	3.0
115.89	3.0
115.905	4.0
115.92	1.0
115.935	3.0
115.95	3.0
115.965	3.0
115.98	4.0
115.995	4.0
116.009	3.0
116.024	5.0
116.039	3.0
116.054	3.0
116.069	7.0
116.084	3.0
116.099	2.0
116.113	2.0
116.128	6.0
116.143	2.0
116.158	3.0
116.173	3.0
116.188	5.0
116.202	4.0
116.217	2.0
116.232	4.0
116.247	6.0
116.262	2.0
116.277	2.0
116.291	5.0
116.306	2.0
116.321	7.0
116.336	2.0
116.351	3.0
116.366	1.0
116.38	5.0
116.395	3.0
116.41	4.0
116.425	3.0
116.44	7.0
116.454	2.0
116.469	3.0
116.484	3.0
116.499	5.0
116.514	3.0
116.528	6.0
116.543	6.0
116.558	4.0
116.573	3.0
116.588	5.0
116.602	5.0
116.617	5.0
116.632	2.0
116.647	3.0
116.662	2.0
116.676	3.0
116.691	1.0
116.706	7.0
116.721	2.0
116.735	5.0
116.75	3.0
116.765	4.0
116.78	5.0
116.795	3.0
116.809	4.0
116.824	5.0
116.839	1.0
116.854	3.0
116.868	2.0
116.883	1.0
116.898	3.0
116.913	4.0
116.927	4.0
116.942	6.0
116.957	4.0
116.972	4.0
116.986	7.0
117.001	2.0
117.016	5.0
117.031	1.0
117.045	3.0
117.06	2.0
117.075	4.0
117.09	2.0
117.104	2.0
117.119	3.0
117.134	3.0
117.149	2.0
117.163	6.0
117.178	4.0
117.193	5.0
117.208	5.0
117.222	3.0
117.237	7.0
117.252	9.0
117.267	3.0
117.281	6.0
117.296	0.0
117.311	7.0
117.325	2.0
117.34	5.0
117.355	2.0
117.37	7.0
117.384	1.0
117.399	2.0
117.414	3.0
117.429	4.0
117.443	5.0
117.458	4.0
117.473	2.0
117.487	2.0
117.502	5.0
117.517	2.0
117.532	0.0
117.546	4.0
117.561	3.0
117.576	2.0
117.59	5.0
117.605	6.0
117.62	1.0
117.635	3.0
117.649	5.0
117.664	0.0
117.679	1.0
117.693	4.0
117.708	2.0
117.723	4.0
117.738	2.0
117.752	3.0
117.767	7.0
117.782	7.0
117.796	5.0
117.811	1.0
117.826	2.0
117.841	3.0
117.855	2.0
117.87	5.0
117.885	4.0
117.899	1.0
117.914	3.0
117.929	4.0
117.944	3.0
117.958	5.0
117.973	11.0
117.988	2.0
118.002	4.0
118.017	3.0
118.032	2.0
118.047	4.0
118.062	7.0
118.077	6.0
118.092	5.0
118.107	4.0
118.121	7.0
118.136	5.0
118.151	3.0
118.166	7.0
118.181	9.0
118.196	6.0
118.211	4.0
118.225	4.0
118.24	2.0
118.255	1.0
118.27	3.0
118.285	6.0
118.3	3.0
118.315	2.0
118.33	2.0
118.344	1.0
118.359	2.0
118.374	0.0
118.389	3.0
118.404	0.0
118.419	2.0
118.434	2.0
118.449	0.0
118.463	3.0
118.478	4.0
118.493	4.0
118.508	4.0
118.523	2.0
118.538	5.0
118.553	3.0
118.567	2.0
118.582	3.0
118.597	1.0
118.612	5.0
118.627	4.0
118.642	5.0
118.657	3.0
118.672	1.0
118.686	6.0
118.701	4.0
118.716	4.0
118.731	4.0
118.746	0.0
118.761	1.0
118.776	2.0
118.791	3.0
118.805	4.0
118.82	0.0
118.835	4.0
118.85	4.0
118.865	6.0
118.88	3.0
118.895	2.0
118.909	2.0
118.924	0.0
118.939	1.0
118.954	6.0
118.969	2.0
118.984	3.0
118.999	5.0
119.014	6.0
119.028	3.0
119.043	3.0
119.058	1.0
119.073	5.0
119.088	2.0
119.103	2.0
119.118	2.0
119.133	3.0
119.147	3.0
119.162	2.0
119.177	3.0
119.192	3.0
119.207	3.0
119.222	5.0
119.237	5.0
119.251	10.0
119.266	2.0
119.281	4.0
119.296	5.0
119.311	2.0
119.326	4.0
119.341	2.0
119.356	3.0
119.37	3.0
119.385	2.0
119.4	3.0
119.415	1.0
119.43	3.0
119.445	6.0
119.46	1.0
119.475	5.0
119.489	2.0
119.504	2.0
119.519	1.0
119.534	6.0
119.549	2.0
119.564	5.0
119.579	4.0
119.593	2.0
119.608	5.0
119.623	5.0
119.638	5.0
119.653	4.0
119.668	3.0
119.683	4.0
119.698	1.0
119.712	1.0
119.727	5.0
119.742	1.0
119.757	5.0
119.772	5.0
119.787	3.0
119.802	4.0
119.817	4.0
119.831	2.0
119.846	3.0
119.861	1.0
119.876	2.0
119.891	4.0
119.906	2.0
119.921	2.0
119.935	2.0
119.95	5.0
119.965	3.0
119.98	3.0
119.995	1.0
120.01	4.0
120.025	3.0
120.04	2.0
120.054	2.0
120.069	1.0
120.084	1.0
120.099	2.0
120.114	1.0
120.129	1.0
120.144	1.0
120.159	2.0
120.173	3.0
120.188	0.0
120.203	3.0
120.218	1.0
120.233	0.0
120.248	0.0
120.263	1.0
120.277	1.0
120.292	1.0
120.307	0.0
120.322	1.0
120.337	0.0
120.352	0.0
120.367	0.0
120.382	0.0
120.396	0.0
120.411	0.0
120.426	0.0
120.441	0.0
120.456	0.0
120.471	1.0
120.486	0.0
120.501	0.0
120.515	0.0
120.53	0.0
120.545	0.0
120.56	0.0
120.575	0.0
120.59	0.0
120.605	0.0
120.619	1.0
120.634	0.0
120.649	0.0
120.664	0.0
120.679	0.0
120.694	0.0
120.709	0.0
120.724	0.0
120.738	0.0
120.753	0.0
120.768	0.0
120.783	0.0
120.798	0.0
120.813	0.0
120.828	0.0
120.843	0.0
120.857	0.0
120.872	1.0
120.887	0.0
120.902	0.0
120.917	0.0
120.932	0.0
120.947	0.0
120.961	0.0
120.976	0.0
