-1.217	0.0
-1.202	0.0
-1.187	0.0
-1.172	0.0
-1.157	0.0
-1.142	0.0
-1.128	0.0
-1.113	0.0
-1.098	0.0
-1.083	1.0
-1.068	0.0
-1.054	0.0
-1.039	0.0
-1.024	0.0
-1.009	0.0
-0.994	0.0
-0.979	0.0
-0.965	0.0
-0.95	0.0
-0.935	0.0
-0.92	0.0
-0.905	0.0
-0.891	0.0
-0.876	0.0
-0.861	0.0
-0.846	0.0
-0.831	0.0
-0.816	0.0
-0.802	0.0
-0.787	0.0
-0.772	0.0
-0.757	0.0
-0.742	0.0
-0.728	0.0
-0.713	0.0
-0.698	0.0
-0.683	0.0
-0.668	0.0
-0.653	0.0
-0.639	0.0
-0.624	0.0
-0.609	0.0
-0.594	0.0
-0.579	0.0
-0.565	0.0
-0.55	0.0
-0.535	0.0
-0.52	0.0
-0.505	0.0
-0.49	0.0
-0.476	0.0
-0.461	0.0
-0.446	0.0
-0.431	0.0
-0.416	0.0
-0.401	0.0
-0.387	0.0
-0.372	0.0
-0.357	0.0
-0.342	0.0
-0.327	0.0
-0.313	0.0
-0.298	0.0
-0.283	0.0
-0.268	0.0
-0.253	0.0
-0.238	0.0
-0.224	0.0
-0.209	0.0
-0.194	0.0
-0.179	0.0
-0.164	0.0
-0.15	0.0
-0.135	0.0
-0.12	0.0
-0.105	0.0
-0.09	0.0
-0.075	0.0
-0.061	0.0
-0.046	0.0
-0.031	0.0
-0.016	0.0
-0.001	0.0
0.013	0.0
0.028	0.0
0.043	0.0
0.058	0.0
0.073	0.0
0.088	0.0
0.102	0.0
0.117	0.0
0.132	0.0
0.147	0.0
0.162	0.0
0.176	0.0
0.191	0.0
0.206	0.0
0.221	0.0
0.236	0.0
0.251	0.0
0.265	0.0
0.28	0.0
0.295	0.0
0.31	0.0
0.325	0.0
0.339	0.0
0.354	0.0
0.369	0.0
0.384	0.0
0.399	0.0
0.414	0.0
0.428	0.0
0.443	0.0
0.458	0.0
0.473	0.0
0.488	0.0
0.502	0.0
0.517	0.0
0.532	0.0
0.547	0.0
0.562	0.0
0.577	0.0
0.591	0.0
0.606	0.0
0.621	0.0
0.636	0.0
0.651	0.0
0.665	0.0
0.68	0.0
0.695	0.0
0.71	0.0
0.725	0.0
0.74	0.0
0.754	0.0
0.769	0.0
0.784	0.0
0.799	0.0
0.814	0.0
0.828	0.0
0.843	0.0
0.858	0.0
0.873	0.0
0.888	0.0
0.903	0.0
0.917	0.0
0.932	0.0
0.947	0.0
0.962	0.0
0.977	0.0
0.991	0.0
1.006	0.0
1.021	0.0
1.036	0.0
1.051	0.0
1.065	0.0
1.08	0.0
1.095	0.0
1.11	0.0
1.125	0.0
1.14	0.0
1.154	1.0
1.169	0.0
1.184	0.0
1.199	0.0
1.214	0.0
1.228	0.0
1.243	0.0
1.258	0.0
1.273	0.0
1.288	0.0
1.302	0.0
1.317	0.0
1.332	0.0
1.347	0.0
1.362	1.0
1.376	0.0
1.391	0.0
1.406	0.0
1.421	0.0
1.436	0.0
1.45	0.0
1.465	1.0
1.48	0.0
1.495	0.0
1.51	0.0
1.524	0.0
1.539	0.0
1.554	0.0
1.569	0.0
1.584	0.0
1.598	0.0
1.613	0.0
1.628	0.0
1.643	0.0
1.658	0.0
1.672	1.0
1.687	0.0
1.702	0.0
1.717	0.0
1.732	0.0
1.746	0.0
1.761	1.0
1.776	0.0
1.791	0.0
1.806	0.0
1.82	0.0
1.835	0.0
1.85	0.0
1.865	0.0
1.88	0.0
1.894	1.0
1.909	0.0
1.924	0.0
1.939	0.0
1.954	0.0
1.968	0.0
1.983	0.0
1.998	0.0
2.013	0.0
2.028	0.0
2.042	0.0
2.057	0.0
2.072	0.0
2.087	0.0
2.101	0.0
2.116	0.0
2.131	0.0
2.146	0.0
2.161	0.0
2.175	1.0
2.19	0.0
2.205	1.0
2.22	1.0
2.235	0.0
2.249	0.0
2.264	0.0
2.279	2.0
2.294	1.0
2.308	0.0
2.323	0.0
2.338	0.0
2.353	0.0
2.368	1.0
2.382	1.0
2.397	1.0
2.412	3.0
2.427	0.0
2.442	2.0
2.456	1.0
2.471	0.0
2.486	2.0
2.501	1.0
2.515	2.0
2.53	0.0
2.545	1.0
2.56	0.0
2.575	2.0
2.589	0.0
2.604	1.0
2.619	0.0
2.634	5.0
2.649	4.0
2.663	1.0
2.678	3.0
2.693	3.0
2.708	0.0
2.722	3.0
2.737	3.0
2.752	2.0
2.767	2.0
2.782	5.0
2.796	1.0
2.811	4.0
2.826	0.0
2.841	3.0
2.856	4.0
2.87	5.0
2.885	1.0
2.9	4.0
2.915	3.0
2.93	5.0
2.944	5.0
2.959	2.0
2.974	4.0
2.989	5.0
3.004	5.0
3.018	2.0
3.033	5.0
3.048	8.0
3.063	3.0
3.078	4.0
3.092	3.0
3.107	8.0
3.122	6.0
3.137	3.0
3.152	6.0
3.166	5.0
3.181	7.0
3.196	6.0
3.211	3.0
3.226	2.0
3.24	3.0
3.255	3.0
3.27	3.0
3.285	4.0
3.3	5.0
3.315	2.0
3.329	4.0
3.344	5.0
3.359	2.0
3.374	4.0
3.389	4.0
3.403	5.0
3.418	2.0
3.433	3.0
3.448	7.0
3.463	4.0
3.478	1.0
3.492	7.0
3.507	3.0
3.522	6.0
3.537	4.0
3.552	4.0
3.567	4.0
3.581	0.0
3.596	5.0
3.611	3.0
3.626	5.0
3.641	5.0
3.656	6.0
3.671	13.0
3.685	6.0
3.7	8.0
3.715	3.0
3.73	6.0
3.745	4.0
3.76	3.0
3.775	8.0
3.789	8.0
3.804	7.0
3.819	6.0
3.834	8.0
3.849	6.0
3.864	5.0
3.879	5.0
3.894	1.0
3.908	9.0
3.923	7.0
3.938	5.0
3.953	5.0
3.968	5.0
3.983	8.0
3.998	6.0
4.013	4.0
4.027	7.0
4.042	15.0
4.057	4.0
4.072	5.0
4.087	8.0
4.102	5.0
4.117	4.0
4.132	4.0
4.147	5.0
4.162	13.0
4.176	10.0
4.191	8.0
4.206	3.0
4.221	0.0
4.236	7.0
4.251	9.0
4.266	2.0
4.281	9.0
4.296	9.0
4.311	3.0
4.326	9.0
4.341	7.0
4.356	14.0
4.37	5.0
4.385	12.0
4.4	7.0
4.415	7.0
4.43	10.0
4.445	1.0
4.46	2.0
4.475	6.0
4.49	8.0
4.505	6.0
4.52	10.0
4.535	1.0
4.55	9.0
4.565	9.0
4.58	8.0
4.595	6.0
4.61	13.0
4.625	6.0
4.639	6.0
4.654	5.0
4.669	2.0
4.684	7.0
4.699	8.0
4.714	6.0
4.729	6.0
4.744	3.0
4.759	8.0
4.774	4.0
4.789	12.0
4.804	9.0
4.819	7.0
4.834	3.0
4.849	8.0
4.864	10.0
4.879	4.0
4.894	5.0
4.909	5.0
4.924	11.0
4.939	3.0
4.954	9.0
4.969	7.0
4.984	12.0
4.999	9.0
5.014	4.0
5.029	7.0
5.044	7.0
5.059	8.0
5.074	6.0
5.089	5.0
5.104	10.0
5.119	4.0
5.134	8.0
5.149	11.0
5.164	9.0
5.179	13.0
5.194	11.0
5.209	11.0
5.224	11.0
5.239	9.0
5.254	7.0
5.269	3.0
5.284	10.0
5.299	13.0
5.314	10.0
5.329	9.0
5.344	6.0
5.359	7.0
5.374	4.0
5.389	9.0
5.404	5.0
5.419	5.0
5.434	6.0
5.449	11.0
5.464	10.0
5.479	4.0
5.494	6.0
5.509	10.0
5.524	5.0
5.539	12.0
5.554	6.0
5.569	4.0
5.584	8.0
5.599	6.0
5.614	6.0
5.629	11.0
5.644	5.0
5.659	14.0
5.674	9.0
5.689	8.0
5.704	7.0
5.719	9.0
5.734	9.0
5.749	4.0
5.764	6.0
5.779	7.0
5.794	10.0
5.809	7.0
5.824	12.0
5.839	9.0
5.854	12.0
5.869	5.0
5.884	7.0
5.899	7.0
5.914	4.0
5.929	7.0
5.944	7.0
5.959	9.0
5.974	13.0
5.989	11.0
6.004	4.0
6.019	6.0
6.034	9.0
6.049	10.0
6.064	9.0
6.079	7.0
6.094	9.0
6.109	4.0
6.124	7.0
6.139	5.0
6.154	2.0
6.169	10.0
6.184	5.0
6.199	10.0
6.214	12.0
6.229	9.0
6.244	4.0
6.259	11.0
6.274	11.0
6.289	13.0
6.304	11.0
6.319	6.0
6.334	11.0
6.349	4.0
6.364	3.0
6.379	10.0
6.394	8.0
6.409	9.0
6.424	3.0
6.439	8.0
6.454	8.0
6.469	12.0
6.484	4.0
6.499	11.0
6.514	4.0
6.529	12.0
6.544	9.0
6.559	9.0
6.574	7.0
6.589	8.0
6.604	8.0
6.619	11.0
6.634	4.0
6.649	7.0
6.664	6.0
6.679	7.0
6.694	13.0
6.709	6.0
6.724	7.0
6.739	9.0
6.754	10.0
6.769	12.0
6.784	10.0
6.799	8.0
6.814	5.0
6.829	7.0
6.844	9.0
6.859	4.0
6.873	10.0
6.888	11.0
6.903	10.0
6.918	12.0
6.933	6.0
6.948	8.0
6.963	7.0
6.978	8.0
6.993	10.0
7.008	10.0
7.023	8.0
7.038	8.0
7.053	3.0
7.068	8.0
7.083	6.0
7.098	7.0
7.113	9.0
7.128	11.0
7.143	8.0
7.157	8.0
7.172	10.0
7.187	6.0
7.202	11.0
7.217	4.0
7.232	10.0
7.247	8.0
7.262	10.0
7.277	7.0
7.292	5.0
7.307	13.0
7.322	8.0
7.336	10.0
7.351	11.0
7.366	8.0
7.381	10.0
7.396	7.0
7.411	5.0
7.426	4.0
7.441	13.0
7.456	15.0
7.471	12.0
7.485	8.0
7.5	7.0
7.515	16.0
7.53	13.0
7.545	5.0
7.56	14.0
7.575	10.0
7.59	6.0
7.604	7.0
7.619	9.0
7.634	13.0
7.649	5.0
7.664	6.0
7.679	6.0
7.693	9.0
7.708	10.0
7.723	5.0
7.738	4.0
7.753	5.0
7.768	4.0
7.783	9.0
7.797	6.0
7.812	3.0
7.827	9.0
7.842	12.0
7.857	6.0
7.871	10.0
7.886	8.0
7.901	10.0
7.916	10.0
7.931	6.0
7.945	2.0
7.96	8.0
7.975	7.0
7.99	10.0
8.005	11.0
8.019	12.0
8.034	13.0
8.049	9.0
8.064	11.0
8.078	5.0
8.093	12.0
8.108	11.0
8.123	5.0
8.137	5.0
8.152	11.0
8.167	13.0
8.182	9.0
8.196	7.0
8.211	10.0
8.226	11.0
8.241	11.0
8.255	11.0
8.27	11.0
8.285	9.0
8.3	5.0
8.314	8.0
8.329	5.0
8.344	7.0
8.358	7.0
8.373	8.0
8.388	8.0
8.403	7.0
8.417	14.0
8.432	13.0
8.447	15.0
8.461	6.0
8.476	4.0
8.491	8.0
8.505	12.0
8.52	9.0
8.535	5.0
8.55	11.0
8.564	11.0
8.579	9.0
8.594	8.0
8.608	9.0
8.623	8.0
8.638	6.0
8.652	8.0
8.667	9.0
8.682	5.0
8.696	11.0
8.711	7.0
8.726	7.0
8.74	8.0
8.755	7.0
8.77	11.0
8.784	10.0
8.799	7.0
8.814	4.0
8.828	7.0
8.843	8.0
8.858	11.0
8.872	7.0
8.887	14.0
8.902	9.0
8.916	8.0
8.931	8.0
8.946	7.0
8.96	7.0
8.975	6.0
8.99	5.0
9.004	8.0
9.019	5.0
9.034	9.0
9.048	11.0
9.063	7.0
9.077	12.0
9.092	7.0
9.107	10.0
9.121	10.0
9.136	9.0
9.151	14.0
9.165	5.0
9.18	12.0
9.195	8.0
9.209	4.0
9.224	6.0
9.239	8.0
9.253	5.0
9.268	5.0
9.283	7.0
9.297	8.0
9.312	12.0
9.327	9.0
9.341	4.0
9.356	5.0
9.371	10.0
9.385	9.0
9.4	7.0
9.415	10.0
9.429	8.0
9.444	6.0
9.458	9.0
9.473	6.0
9.488	11.0
9.502	6.0
9.517	5.0
9.532	7.0
9.546	8.0
9.561	6.0
9.576	8.0
9.59	12.0
9.605	9.0
9.62	10.0
9.635	10.0
9.649	8.0
9.664	4.0
9.679	13.0
9.693	5.0
9.708	9.0
9.723	9.0
9.737	9.0
9.752	6.0
9.767	7.0
9.781	6.0
9.796	5.0
9.811	12.0
9.825	11.0
9.84	5.0
9.855	5.0
9.87	7.0
9.884	14.0
9.899	4.0
9.914	8.0
9.928	11.0
9.943	10.0
9.958	8.0
9.973	11.0
9.987	4.0
10.002	11.0
10.017	9.0
10.031	4.0
10.046	7.0
10.061	8.0
10.076	4.0
10.09	10.0
10.105	9.0
10.12	11.0
10.135	11.0
10.149	7.0
10.164	7.0
10.179	9.0
10.194	9.0
10.208	14.0
10.223	4.0
10.238	7.0
10.253	5.0
10.267	10.0
10.282	12.0
10.297	12.0
10.312	7.0
10.326	5.0
10.341	8.0
10.356	12.0
10.371	6.0
10.386	7.0
10.4	3.0
10.415	13.0
10.43	7.0
10.445	11.0
10.46	9.0
10.474	8.0
10.489	14.0
10.504	6.0
10.519	4.0
10.533	6.0
10.548	10.0
10.563	9.0
10.578	9.0
10.593	12.0
10.608	10.0
10.622	4.0
10.637	7.0
10.652	4.0
10.667	6.0
10.682	10.0
10.696	13.0
10.711	7.0
10.726	9.0
10.741	9.0
10.756	6.0
10.771	8.0
10.785	2.0
10.8	12.0
10.815	8.0
10.83	11.0
10.845	3.0
10.86	8.0
10.874	8.0
10.889	14.0
10.904	14.0
10.919	7.0
10.934	7.0
10.949	5.0
10.963	4.0
10.978	7.0
10.993	5.0
11.008	5.0
11.023	11.0
11.038	9.0
11.053	9.0
11.067	7.0
11.082	8.0
11.097	6.0
11.112	10.0
11.127	11.0
11.142	4.0
11.157	3.0
11.172	3.0
11.186	5.0
11.201	10.0
11.216	6.0
11.231	6.0
11.246	9.0
11.261	9.0
11.276	14.0
11.291	8.0
11.305	12.0
11.32	6.0
11.335	8.0
11.35	7.0
11.365	12.0
11.38	6.0
11.395	5.0
11.41	5.0
11.424	8.0
11.439	6.0
11.454	11.0
11.469	5.0
11.484	6.0
11.499	9.0
11.514	3.0
11.529	9.0
11.544	9.0
11.558	12.0
11.573	8.0
11.588	8.0
11.603	12.0
11.618	11.0
11.633	11.0
11.648	6.0
11.663	13.0
11.678	8.0
11.693	11.0
11.707	11.0
11.722	6.0
11.737	6.0
11.752	9.0
11.767	9.0
11.782	12.0
11.797	5.0
11.812	10.0
11.827	11.0
11.842	6.0
11.856	6.0
11.871	11.0
11.886	8.0
11.901	6.0
11.916	5.0
11.931	13.0
11.946	7.0
11.961	4.0
11.976	8.0
11.991	10.0
12.006	7.0
12.02	13.0
12.035	6.0
12.05	10.0
12.065	7.0
12.08	10.0
12.095	5.0
12.11	11.0
12.125	5.0
12.14	15.0
12.155	9.0
12.17	9.0
12.184	9.0
12.199	13.0
12.214	7.0
12.229	6.0
12.244	16.0
12.259	12.0
12.274	10.0
12.289	8.0
12.304	8.0
12.319	6.0
12.334	10.0
12.348	8.0
12.363	9.0
12.378	17.0
12.393	9.0
12.408	14.0
12.423	6.0
12.438	10.0
12.453	9.0
12.468	5.0
12.483	14.0
12.498	9.0
12.513	9.0
12.527	11.0
12.542	9.0
12.557	6.0
12.572	20.0
12.587	11.0
12.602	12.0
12.617	13.0
12.632	13.0
12.647	7.0
12.662	17.0
12.677	15.0
12.692	7.0
12.707	14.0
12.721	7.0
12.736	11.0
12.751	14.0
12.766	11.0
12.781	17.0
12.796	11.0
12.811	14.0
12.826	17.0
12.841	12.0
12.856	17.0
12.871	15.0
12.886	16.0
12.9	7.0
12.915	14.0
12.93	10.0
12.945	12.0
12.96	11.0
12.975	15.0
12.99	13.0
13.005	9.0
13.02	19.0
13.035	14.0
13.05	13.0
13.065	16.0
13.08	11.0
13.094	15.0
13.109	19.0
13.124	9.0
13.139	20.0
13.154	19.0
13.169	16.0
13.184	9.0
13.199	17.0
13.214	21.0
13.229	19.0
13.244	19.0
13.259	15.0
13.274	20.0
13.288	22.0
13.303	30.0
13.318	21.0
13.333	24.0
13.348	21.0
13.363	24.0
13.378	27.0
13.393	23.0
13.408	17.0
13.423	28.0
13.438	33.0
13.453	22.0
13.468	40.0
13.482	33.0
13.497	39.0
13.512	44.0
13.527	39.0
13.542	39.0
13.557	56.0
13.572	55.0
13.587	50.0
13.602	56.0
13.617	49.0
13.632	68.0
13.647	85.0
13.662	79.0
13.677	65.0
13.691	85.0
13.706	86.0
13.721	85.0
13.736	93.0
13.751	98.0
13.766	110.0
13.781	107.0
13.796	114.0
13.811	111.0
13.826	123.0
13.841	112.0
13.856	125.0
13.871	104.0
13.885	86.0
13.9	78.0
13.915	76.0
13.93	59.0
13.945	55.0
13.96	45.0
13.975	39.0
13.99	46.0
14.005	30.0
14.02	27.0
14.035	25.0
14.05	28.0
14.065	25.0
14.08	21.0
14.094	25.0
14.109	26.0
14.124	17.0
14.139	19.0
14.154	28.0
14.169	22.0
14.184	23.0
14.199	28.0
14.214	18.0
14.229	22.0
14.244	23.0
14.259	20.0
14.274	13.0
14.288	19.0
14.303	13.0
14.318	17.0
14.333	10.0
14.348	27.0
14.363	25.0
14.378	18.0
14.393	17.0
14.408	17.0
14.423	12.0
14.438	14.0
14.453	19.0
14.468	19.0
14.482	19.0
14.497	17.0
14.512	15.0
14.527	25.0
14.542	11.0
14.557	20.0
14.572	22.0
14.587	18.0
14.602	14.0
14.617	21.0
14.632	14.0
14.647	17.0
14.661	17.0
14.676	16.0
14.691	14.0
14.706	11.0
14.721	17.0
14.736	12.0
14.751	16.0
14.766	12.0
14.781	12.0
14.796	9.0
14.811	17.0
14.826	12.0
14.84	15.0
14.855	15.0
14.87	11.0
14.885	10.0
14.9	15.0
14.915	22.0
14.93	13.0
14.945	14.0
14.96	22.0
14.975	22.0
14.989	17.0
15.004	19.0
15.019	14.0
15.034	11.0
15.049	11.0
15.064	15.0
15.079	17.0
15.094	8.0
15.109	15.0
15.124	20.0
15.138	14.0
15.153	22.0
15.168	23.0
15.183	13.0
15.198	15.0
15.213	11.0
15.228	17.0
15.243	11.0
15.258	10.0
15.272	18.0
15.287	9.0
15.302	18.0
15.317	19.0
15.332	9.0
15.347	9.0
15.362	6.0
15.377	21.0
15.391	12.0
15.406	11.0
15.421	16.0
15.436	17.0
15.451	12.0
15.466	8.0
15.481	11.0
15.496	11.0
15.51	10.0
15.525	13.0
15.54	12.0
15.555	13.0
15.57	11.0
15.585	19.0
15.6	18.0
15.614	9.0
15.629	9.0
15.644	12.0
15.659	15.0
15.674	10.0
15.689	11.0
15.704	13.0
15.718	15.0
15.733	16.0
15.748	12.0
15.763	13.0
15.778	15.0
15.793	15.0
15.808	10.0
15.822	15.0
15.837	13.0
15.852	17.0
15.867	8.0
15.882	15.0
15.897	10.0
15.911	15.0
15.926	17.0
15.941	11.0
15.956	16.0
15.971	13.0
15.986	14.0
16.0	14.0
16.015	9.0
16.03	11.0
16.045	9.0
16.06	16.0
16.074	14.0
16.089	15.0
16.104	17.0
16.119	8.0
16.134	15.0
16.149	12.0
16.163	17.0
16.178	9.0
16.193	16.0
16.208	19.0
16.223	12.0
16.237	14.0
16.252	9.0
16.267	13.0
16.282	15.0
16.297	14.0
16.311	14.0
16.326	12.0
16.341	18.0
16.356	13.0
16.37	24.0
16.385	5.0
16.4	14.0
16.415	12.0
16.43	17.0
16.444	17.0
16.459	22.0
16.474	10.0
16.489	17.0
16.504	13.0
16.518	12.0
16.533	18.0
16.548	18.0
16.563	21.0
16.577	19.0
16.592	18.0
16.607	20.0
16.622	19.0
16.637	19.0
16.651	19.0
16.666	17.0
16.681	25.0
16.696	19.0
16.71	23.0
16.725	37.0
16.74	27.0
16.755	29.0
16.77	27.0
16.784	39.0
16.799	46.0
16.814	39.0
16.829	39.0
16.843	47.0
16.858	57.0
16.873	44.0
16.888	65.0
16.902	59.0
16.917	61.0
16.932	77.0
16.947	58.0
16.961	79.0
16.976	84.0
16.991	80.0
17.006	71.0
17.021	60.0
17.035	46.0
17.05	34.0
17.065	51.0
17.08	31.0
17.094	35.0
17.109	23.0
17.124	40.0
17.139	16.0
17.153	12.0
17.168	18.0
17.183	23.0
17.198	17.0
17.212	15.0
17.227	15.0
17.242	14.0
17.257	11.0
17.271	20.0
17.286	16.0
17.301	9.0
17.316	12.0
17.33	17.0
17.345	14.0
17.36	7.0
17.375	16.0
17.39	22.0
17.404	20.0
17.419	13.0
17.434	14.0
17.449	14.0
17.463	16.0
17.478	11.0
17.493	15.0
17.508	17.0
17.522	11.0
17.537	12.0
17.552	20.0
17.567	16.0
17.581	15.0
17.596	12.0
17.611	17.0
17.626	17.0
17.641	16.0
17.655	8.0
17.67	13.0
17.685	11.0
17.7	14.0
17.714	10.0
17.729	8.0
17.744	13.0
17.759	8.0
17.773	17.0
17.788	7.0
17.803	10.0
17.818	12.0
17.833	10.0
17.847	6.0
17.862	5.0
17.877	10.0
17.892	10.0
17.906	6.0
17.921	14.0
17.936	8.0
17.951	10.0
17.966	11.0
17.98	12.0
17.995	14.0
18.01	9.0
18.025	11.0
18.04	10.0
18.054	9.0
18.069	7.0
18.084	17.0
18.099	5.0
18.114	6.0
18.128	9.0
18.143	7.0
18.158	7.0
18.173	15.0
18.188	14.0
18.202	8.0
18.217	15.0
18.232	13.0
18.247	12.0
18.262	9.0
18.276	12.0
18.291	11.0
18.306	19.0
18.321	9.0
18.336	8.0
18.35	16.0
18.365	10.0
18.38	10.0
18.395	12.0
18.41	10.0
18.424	10.0
18.439	12.0
18.454	13.0
18.469	10.0
18.484	6.0
18.498	9.0
18.513	8.0
18.528	4.0
18.543	15.0
18.558	11.0
18.573	11.0
18.587	9.0
18.602	14.0
18.617	14.0
18.632	12.0
18.647	10.0
18.661	17.0
18.676	16.0
18.691	6.0
18.706	17.0
18.721	11.0
18.736	7.0
18.75	12.0
18.765	10.0
18.78	13.0
18.795	11.0
18.81	7.0
18.825	8.0
18.839	10.0
18.854	11.0
18.869	14.0
18.884	15.0
18.899	12.0
18.913	12.0
18.928	10.0
18.943	10.0
18.958	9.0
18.973	18.0
18.988	15.0
19.002	15.0
19.017	14.0
19.032	10.0
19.047	18.0
19.062	8.0
19.077	11.0
19.091	16.0
19.106	10.0
19.121	7.0
19.136	12.0
19.151	14.0
19.165	11.0
19.18	12.0
19.195	14.0
19.21	9.0
19.225	15.0
19.24	12.0
19.254	12.0
19.269	12.0
19.284	9.0
19.299	14.0
19.314	15.0
19.329	19.0
19.343	6.0
19.358	16.0
19.373	17.0
19.388	14.0
19.403	19.0
19.417	23.0
19.432	25.0
19.447	21.0
19.462	17.0
19.477	30.0
19.492	22.0
19.506	29.0
19.521	25.0
19.536	39.0
19.551	33.0
19.566	28.0
19.58	42.0
19.595	35.0
19.61	53.0
19.625	41.0
19.64	47.0
19.655	26.0
19.669	29.0
19.684	37.0
19.699	21.0
19.714	28.0
19.729	21.0
19.743	32.0
19.758	17.0
19.773	18.0
19.788	19.0
19.803	17.0
19.817	14.0
19.832	21.0
19.847	20.0
19.862	12.0
19.877	10.0
19.891	5.0
19.906	9.0
19.921	20.0
19.936	21.0
19.951	16.0
19.965	11.0
19.98	11.0
19.995	15.0
20.01	8.0
20.025	3.0
20.039	11.0
20.054	11.0
20.069	10.0
20.084	11.0
20.099	15.0
20.113	16.0
20.128	16.0
20.143	15.0
20.158	9.0
20.173	8.0
20.187	5.0
20.202	6.0
20.217	8.0
20.232	7.0
20.246	11.0
20.261	11.0
20.276	7.0
20.291	20.0
20.306	12.0
20.32	8.0
20.335	8.0
20.35	15.0
20.365	9.0
20.38	12.0
20.394	9.0
20.409	15.0
20.424	11.0
20.439	19.0
20.453	13.0
20.468	10.0
20.483	15.0
20.498	8.0
20.513	9.0
20.527	12.0
20.542	7.0
20.557	10.0
20.572	12.0
20.586	14.0
20.601	13.0
20.616	2.0
20.631	10.0
20.646	12.0
20.66	9.0
20.675	3.0
20.69	12.0
20.705	11.0
20.719	11.0
20.734	9.0
20.749	9.0
20.764	13.0
20.779	10.0
20.793	7.0
20.808	14.0
20.823	13.0
20.838	8.0
20.853	14.0
20.867	10.0
20.882	10.0
20.897	14.0
20.912	10.0
20.926	13.0
20.941	10.0
20.956	6.0
20.971	12.0
20.986	14.0
21.0	10.0
21.015	8.0
21.03	13.0
21.045	8.0
21.06	9.0
21.074	9.0
21.089	9.0
21.104	9.0
21.119	11.0
21.134	14.0
21.148	12.0
21.163	8.0
21.178	16.0
21.193	15.0
21.208	7.0
21.222	7.0
21.237	13.0
21.252	19.0
21.267	12.0
21.282	11.0
21.296	10.0
21.311	12.0
21.326	8.0
21.341	14.0
21.356	9.0
21.37	9.0
21.385	8.0
21.4	14.0
21.415	9.0
21.43	12.0
21.444	13.0
21.459	13.0
21.474	12.0
21.489	11.0
21.504	9.0
21.519	12.0
21.533	8.0
21.548	11.0
21.563	13.0
21.578	18.0
21.593	5.0
21.608	6.0
21.622	17.0
21.637	16.0
21.652	14.0
21.667	6.0
21.682	14.0
21.697	14.0
21.712	20.0
21.726	18.0
21.741	15.0
21.756	23.0
21.771	43.0
21.786	35.0
21.801	31.0
21.816	32.0
21.83	42.0
21.845	37.0
21.86	59.0
21.875	63.0
21.89	59.0
21.905	75.0
21.92	73.0
21.935	75.0
21.949	78.0
21.964	66.0
21.979	82.0
21.994	73.0
22.009	59.0
22.024	45.0
22.039	64.0
22.054	54.0
22.069	40.0
22.083	40.0
22.098	42.0
22.113	35.0
22.128	36.0
22.143	28.0
22.158	32.0
22.173	29.0
22.188	20.0
22.203	18.0
22.218	15.0
22.233	10.0
22.248	15.0
22.262	14.0
22.277	9.0
22.292	16.0
22.307	13.0
22.322	18.0
22.337	16.0
22.352	9.0
22.367	22.0
22.382	8.0
22.397	5.0
22.412	8.0
22.427	14.0
22.442	6.0
22.457	11.0
22.472	8.0
22.487	12.0
22.502	15.0
22.516	12.0
22.531	15.0
22.546	16.0
22.561	14.0
22.576	6.0
22.591	13.0
22.606	5.0
22.621	5.0
22.636	9.0
22.651	15.0
22.666	8.0
22.681	12.0
22.696	8.0
22.711	10.0
22.726	14.0
22.741	7.0
22.756	13.0
22.771	8.0
22.786	8.0
22.801	10.0
22.816	11.0
22.831	11.0
22.846	12.0
22.861	15.0
22.876	11.0
22.891	10.0
22.906	10.0
22.92	12.0
22.935	10.0
22.95	6.0
22.965	8.0
22.98	8.0
22.995	10.0
23.01	7.0
23.025	7.0
23.04	9.0
23.055	13.0
23.07	12.0
23.085	11.0
23.1	9.0
23.115	7.0
23.13	11.0
23.145	7.0
23.16	9.0
23.175	6.0
23.19	7.0
23.205	15.0
23.22	8.0
23.235	10.0
23.25	6.0
23.265	11.0
23.28	10.0
23.295	9.0
23.31	8.0
23.325	13.0
23.34	10.0
23.355	8.0
23.37	2.0
23.384	12.0
23.399	11.0
23.414	18.0
23.429	18.0
23.444	10.0
23.459	8.0
23.474	9.0
23.489	6.0
23.504	6.0
23.519	12.0
23.534	8.0
23.549	8.0
23.564	7.0
23.579	10.0
23.594	6.0
23.609	8.0
23.624	12.0
23.639	14.0
23.654	18.0
23.668	13.0
23.683	3.0
23.698	13.0
23.713	8.0
23.728	15.0
23.743	19.0
23.758	13.0
23.773	15.0
23.788	14.0
23.803	8.0
23.818	9.0
23.833	18.0
23.848	16.0
23.862	19.0
23.877	17.0
23.892	15.0
23.907	22.0
23.922	22.0
23.937	24.0
23.952	28.0
23.967	30.0
23.982	25.0
23.997	36.0
24.011	43.0
24.026	38.0
24.041	57.0
24.056	46.0
24.071	56.0
24.086	48.0
24.101	50.0
24.116	61.0
24.131	46.0
24.145	47.0
24.16	46.0
24.175	32.0
24.19	32.0
24.205	34.0
24.22	27.0
24.235	32.0
24.249	30.0
24.264	27.0
24.279	28.0
24.294	23.0
24.309	20.0
24.324	20.0
24.338	10.0
24.353	10.0
24.368	17.0
24.383	15.0
24.398	14.0
24.413	7.0
24.428	9.0
24.442	8.0
24.457	9.0
24.472	14.0
24.487	11.0
24.502	11.0
24.516	2.0
24.531	10.0
24.546	10.0
24.561	16.0
24.576	17.0
24.591	12.0
24.605	14.0
24.62	7.0
24.635	16.0
24.65	12.0
24.665	8.0
24.679	14.0
24.694	13.0
24.709	14.0
24.724	11.0
24.739	14.0
24.753	9.0
24.768	16.0
24.783	6.0
24.798	10.0
24.813	15.0
24.827	11.0
24.842	13.0
24.857	15.0
24.872	11.0
24.886	13.0
24.901	13.0
24.916	12.0
24.931	6.0
24.946	5.0
24.96	18.0
24.975	16.0
24.99	10.0
25.005	10.0
25.019	7.0
25.034	14.0
25.049	14.0
25.064	8.0
25.078	12.0
25.093	12.0
25.108	8.0
25.123	7.0
25.138	10.0
25.152	13.0
25.167	8.0
25.182	11.0
25.197	10.0
25.211	6.0
25.226	10.0
25.241	7.0
25.256	7.0
25.27	9.0
25.285	9.0
25.3	11.0
25.315	7.0
25.329	13.0
25.344	16.0
25.359	10.0
25.374	5.0
25.388	8.0
25.403	12.0
25.418	7.0
25.433	8.0
25.447	9.0
25.462	13.0
25.477	13.0
25.492	14.0
25.506	7.0
25.521	4.0
25.536	15.0
25.55	10.0
25.565	10.0
25.58	12.0
25.595	9.0
25.609	14.0
25.624	7.0
25.639	14.0
25.654	7.0
25.668	9.0
25.683	7.0
25.698	13.0
25.713	11.0
25.727	10.0
25.742	7.0
25.757	13.0
25.772	9.0
25.786	7.0
25.801	4.0
25.816	4.0
25.83	14.0
25.845	9.0
25.86	8.0
25.875	6.0
25.889	8.0
25.904	7.0
25.919	8.0
25.934	10.0
25.948	13.0
25.963	8.0
25.978	7.0
25.992	14.0
26.007	12.0
26.022	10.0
26.037	11.0
26.051	13.0
26.066	6.0
26.081	12.0
26.096	11.0
26.11	10.0
26.125	13.0
26.14	15.0
26.155	10.0
26.169	10.0
26.184	7.0
26.199	13.0
26.213	14.0
26.228	10.0
26.243	5.0
26.258	8.0
26.272	7.0
26.287	10.0
26.302	9.0
26.317	9.0
26.331	8.0
26.346	9.0
26.361	11.0
26.376	8.0
26.39	6.0
26.405	11.0
26.42	13.0
26.434	10.0
26.449	9.0
26.464	5.0
26.479	12.0
26.493	5.0
26.508	9.0
26.523	11.0
26.538	4.0
26.552	4.0
26.567	11.0
26.582	10.0
26.597	8.0
26.611	5.0
26.626	5.0
26.641	11.0
26.656	7.0
26.67	5.0
26.685	15.0
26.7	8.0
26.715	10.0
26.729	11.0
26.744	15.0
26.759	6.0
26.773	7.0
26.788	15.0
26.803	5.0
26.818	12.0
26.832	6.0
26.847	8.0
26.862	11.0
26.877	5.0
26.891	7.0
26.906	8.0
26.921	9.0
26.936	13.0
26.95	13.0
26.965	6.0
26.98	9.0
26.995	7.0
27.01	18.0
27.024	14.0
27.039	4.0
27.054	9.0
27.069	8.0
27.083	15.0
27.098	7.0
27.113	12.0
27.128	11.0
27.142	9.0
27.157	11.0
27.172	7.0
27.187	12.0
27.201	11.0
27.216	3.0
27.231	9.0
27.246	8.0
27.261	10.0
27.275	10.0
27.29	11.0
27.305	9.0
27.32	13.0
27.334	10.0
27.349	15.0
27.364	6.0
27.379	10.0
27.394	13.0
27.408	15.0
27.423	15.0
27.438	12.0
27.453	8.0
27.467	6.0
27.482	12.0
27.497	15.0
27.512	5.0
27.527	7.0
27.541	15.0
27.556	8.0
27.571	8.0
27.586	15.0
27.601	11.0
27.615	10.0
27.63	16.0
27.645	10.0
27.66	8.0
27.675	10.0
27.689	9.0
27.704	18.0
27.719	13.0
27.734	20.0
27.749	10.0
27.763	24.0
27.778	25.0
27.793	19.0
27.808	16.0
27.823	24.0
27.838	19.0
27.852	19.0
27.867	34.0
27.882	23.0
27.897	20.0
27.912	30.0
27.926	22.0
27.941	26.0
27.956	18.0
27.971	24.0
27.986	18.0
28.001	29.0
28.015	17.0
28.03	18.0
28.045	8.0
28.06	14.0
28.075	11.0
28.09	19.0
28.105	7.0
28.119	14.0
28.134	10.0
28.149	13.0
28.164	11.0
28.179	7.0
28.194	7.0
28.208	10.0
28.223	8.0
28.238	6.0
28.253	9.0
28.268	9.0
28.283	14.0
28.298	11.0
28.312	6.0
28.327	8.0
28.342	8.0
28.357	9.0
28.372	8.0
28.387	9.0
28.402	7.0
28.417	11.0
28.431	14.0
28.446	12.0
28.461	9.0
28.476	8.0
28.491	10.0
28.506	11.0
28.521	12.0
28.536	10.0
28.55	14.0
28.565	15.0
28.58	10.0
28.595	13.0
28.61	9.0
28.625	15.0
28.64	19.0
28.655	10.0
28.669	14.0
28.684	14.0
28.699	6.0
28.714	8.0
28.729	8.0
28.744	12.0
28.759	6.0
28.774	9.0
28.788	9.0
28.803	13.0
28.818	9.0
28.833	3.0
28.848	9.0
28.863	11.0
28.878	7.0
28.893	14.0
28.908	6.0
28.922	10.0
28.937	12.0
28.952	8.0
28.967	8.0
28.982	8.0
28.997	17.0
29.012	6.0
29.027	8.0
29.041	12.0
29.056	12.0
29.071	11.0
29.086	7.0
29.101	10.0
29.116	12.0
29.131	13.0
29.146	12.0
29.16	9.0
29.175	8.0
29.19	8.0
29.205	6.0
29.22	7.0
29.235	15.0
29.25	7.0
29.265	19.0
29.279	12.0
29.294	14.0
29.309	10.0
29.324	9.0
29.339	20.0
29.354	12.0
29.369	13.0
29.384	13.0
29.398	13.0
29.413	10.0
29.428	14.0
29.443	11.0
29.458	10.0
29.473	21.0
29.488	18.0
29.502	24.0
29.517	31.0
29.532	35.0
29.547	34.0
29.562	44.0
29.577	48.0
29.592	44.0
29.606	44.0
29.621	50.0
29.636	47.0
29.651	50.0
29.666	43.0
29.681	35.0
29.695	50.0
29.71	28.0
29.725	25.0
29.74	30.0
29.755	31.0
29.77	29.0
29.784	27.0
29.799	33.0
29.814	25.0
29.829	23.0
29.844	18.0
29.859	19.0
29.873	24.0
29.888	13.0
29.903	12.0
29.918	15.0
29.933	17.0
29.947	16.0
29.962	15.0
29.977	12.0
29.992	17.0
30.007	12.0
30.021	9.0
30.036	21.0
30.051	8.0
30.066	11.0
30.081	9.0
30.095	11.0
30.11	9.0
30.125	11.0
30.14	8.0
30.155	17.0
30.169	7.0
30.184	5.0
30.199	6.0
30.214	8.0
30.228	8.0
30.243	13.0
30.258	9.0
30.273	12.0
30.288	14.0
30.302	8.0
30.317	8.0
30.332	14.0
30.347	12.0
30.361	10.0
30.376	17.0
30.391	15.0
30.406	4.0
30.42	9.0
30.435	9.0
30.45	14.0
30.465	7.0
30.479	12.0
30.494	9.0
30.509	13.0
30.524	5.0
30.538	10.0
30.553	9.0
30.568	7.0
30.583	4.0
30.597	8.0
30.612	8.0
30.627	9.0
30.641	12.0
30.656	7.0
30.671	12.0
30.686	11.0
30.7	14.0
30.715	8.0
30.73	9.0
30.745	8.0
30.759	17.0
30.774	10.0
30.789	10.0
30.803	13.0
30.818	18.0
30.833	7.0
30.848	12.0
30.862	6.0
30.877	9.0
30.892	11.0
30.906	11.0
30.921	9.0
30.936	5.0
30.951	12.0
30.965	19.0
30.98	10.0
30.995	10.0
31.009	12.0
31.024	9.0
31.039	10.0
31.053	18.0
31.068	13.0
31.083	17.0
31.098	20.0
31.112	15.0
31.127	18.0
31.142	24.0
31.156	17.0
31.171	26.0
31.186	33.0
31.2	36.0
31.215	34.0
31.23	31.0
31.245	43.0
31.259	19.0
31.274	35.0
31.289	37.0
31.303	34.0
31.318	39.0
31.333	26.0
31.347	24.0
31.362	27.0
31.377	27.0
31.392	25.0
31.406	28.0
31.421	27.0
31.436	24.0
31.45	26.0
31.465	22.0
31.48	22.0
31.494	20.0
31.509	15.0
31.524	26.0
31.538	20.0
31.553	19.0
31.568	11.0
31.583	17.0
31.597	11.0
31.612	8.0
31.627	13.0
31.641	11.0
31.656	8.0
31.671	8.0
31.685	5.0
31.7	7.0
31.715	13.0
31.729	6.0
31.744	8.0
31.759	12.0
31.774	8.0
31.788	16.0
31.803	5.0
31.818	8.0
31.832	10.0
31.847	17.0
31.862	20.0
31.876	9.0
31.891	12.0
31.906	13.0
31.92	10.0
31.935	8.0
31.95	9.0
31.965	13.0
31.979	9.0
31.994	15.0
32.009	13.0
32.023	5.0
32.038	10.0
32.053	4.0
32.067	13.0
32.082	12.0
32.097	10.0
32.112	12.0
32.126	8.0
32.141	8.0
32.156	11.0
32.17	5.0
32.185	8.0
32.2	11.0
32.214	8.0
32.229	10.0
32.244	5.0
32.259	9.0
32.273	8.0
32.288	8.0
32.303	7.0
32.317	5.0
32.332	9.0
32.347	10.0
32.362	7.0
32.376	15.0
32.391	7.0
32.406	8.0
32.42	10.0
32.435	5.0
32.45	12.0
32.465	12.0
32.479	9.0
32.494	12.0
32.509	10.0
32.523	10.0
32.538	9.0
32.553	12.0
32.568	8.0
32.582	11.0
32.597	14.0
32.612	8.0
32.627	12.0
32.641	9.0
32.656	13.0
32.671	9.0
32.685	14.0
32.7	12.0
32.715	21.0
32.73	20.0
32.744	21.0
32.759	15.0
32.774	21.0
32.788	28.0
32.803	27.0
32.818	26.0
32.833	21.0
32.847	28.0
32.862	24.0
32.877	19.0
32.892	30.0
32.906	25.0
32.921	21.0
32.936	14.0
32.951	14.0
32.965	15.0
32.98	19.0
32.995	18.0
33.009	18.0
33.024	17.0
33.039	18.0
33.054	15.0
33.068	14.0
33.083	12.0
33.098	20.0
33.113	11.0
33.127	11.0
33.142	14.0
33.157	9.0
33.172	8.0
33.186	18.0
33.201	10.0
33.216	6.0
33.231	16.0
33.245	10.0
33.26	8.0
33.275	7.0
33.29	9.0
33.304	11.0
33.319	7.0
33.334	8.0
33.349	4.0
33.363	8.0
33.378	8.0
33.393	8.0
33.408	11.0
33.422	10.0
33.437	6.0
33.452	4.0
33.467	2.0
33.481	12.0
33.496	4.0
33.511	10.0
33.526	10.0
33.54	9.0
33.555	8.0
33.57	15.0
33.585	9.0
33.599	8.0
33.614	11.0
33.629	5.0
33.644	11.0
33.658	6.0
33.673	8.0
33.688	11.0
33.703	6.0
33.718	7.0
33.732	5.0
33.747	11.0
33.762	8.0
33.777	8.0
33.791	10.0
33.806	13.0
33.821	11.0
33.836	9.0
33.85	10.0
33.865	9.0
33.88	6.0
33.895	8.0
33.91	7.0
33.924	12.0
33.939	11.0
33.954	14.0
33.969	12.0
33.983	13.0
33.998	11.0
34.013	17.0
34.028	10.0
34.042	11.0
34.057	4.0
34.072	7.0
34.087	15.0
34.102	12.0
34.116	9.0
34.131	9.0
34.146	14.0
34.161	17.0
34.175	8.0
34.19	7.0
34.205	13.0
34.22	12.0
34.235	16.0
34.249	7.0
34.264	13.0
34.279	11.0
34.294	11.0
34.309	10.0
34.323	12.0
34.338	17.0
34.353	16.0
34.368	7.0
34.382	15.0
34.397	8.0
34.412	11.0
34.427	13.0
34.442	13.0
34.456	16.0
34.471	5.0
34.486	8.0
34.501	8.0
34.516	13.0
34.53	14.0
34.545	14.0
34.56	8.0
34.575	12.0
34.59	6.0
34.604	5.0
34.619	12.0
34.634	12.0
34.649	9.0
34.664	13.0
34.678	12.0
34.693	6.0
34.708	8.0
34.723	8.0
34.738	9.0
34.752	10.0
34.767	10.0
34.782	5.0
34.797	7.0
34.812	10.0
34.826	14.0
34.841	10.0
34.856	7.0
34.871	11.0
34.886	9.0
34.9	13.0
34.915	7.0
34.93	4.0
34.945	18.0
34.96	13.0
34.974	9.0
34.989	4.0
35.004	16.0
35.019	15.0
35.034	11.0
35.048	10.0
35.063	8.0
35.078	7.0
35.093	7.0
35.108	14.0
35.122	15.0
35.137	12.0
35.152	7.0
35.167	8.0
35.182	7.0
35.196	9.0
35.211	14.0
35.226	6.0
35.241	6.0
35.256	11.0
35.27	9.0
35.285	12.0
35.3	6.0
35.315	5.0
35.33	9.0
35.344	8.0
35.359	8.0
35.374	5.0
35.389	9.0
35.404	11.0
35.418	6.0
35.433	5.0
35.448	12.0
35.463	18.0
35.478	8.0
35.493	7.0
35.507	9.0
35.522	9.0
35.537	2.0
35.552	7.0
35.567	12.0
35.581	9.0
35.596	10.0
35.611	12.0
35.626	13.0
35.641	13.0
35.655	12.0
35.67	15.0
35.685	14.0
35.7	21.0
35.715	23.0
35.729	13.0
35.744	26.0
35.759	27.0
35.774	17.0
35.789	22.0
35.804	14.0
35.818	7.0
35.833	10.0
35.848	16.0
35.863	8.0
35.878	12.0
35.892	14.0
35.907	18.0
35.922	17.0
35.937	12.0
35.952	15.0
35.966	9.0
35.981	11.0
35.996	11.0
36.011	16.0
36.026	11.0
36.04	16.0
36.055	17.0
36.07	9.0
36.085	7.0
36.1	9.0
36.114	6.0
36.129	6.0
36.144	4.0
36.159	8.0
36.174	7.0
36.189	6.0
36.203	12.0
36.218	11.0
36.233	7.0
36.248	5.0
36.263	7.0
36.277	9.0
36.292	5.0
36.307	5.0
36.322	10.0
36.337	7.0
36.351	13.0
36.366	7.0
36.381	4.0
36.396	6.0
36.411	7.0
36.426	7.0
36.44	7.0
36.455	9.0
36.47	5.0
36.485	9.0
36.5	4.0
36.514	6.0
36.529	8.0
36.544	10.0
36.559	11.0
36.574	8.0
36.589	10.0
36.603	7.0
36.618	7.0
36.633	11.0
36.648	4.0
36.663	4.0
36.677	8.0
36.692	3.0
36.707	5.0
36.722	5.0
36.737	10.0
36.752	7.0
36.766	7.0
36.781	7.0
36.796	9.0
36.811	6.0
36.826	3.0
36.841	8.0
36.855	13.0
36.87	7.0
36.885	7.0
36.9	3.0
36.915	15.0
36.93	6.0
36.944	10.0
36.959	8.0
36.974	6.0
36.989	8.0
37.004	11.0
37.019	12.0
37.033	9.0
37.048	8.0
37.063	13.0
37.078	17.0
37.093	12.0
37.108	17.0
37.123	21.0
37.137	22.0
37.152	33.0
37.167	24.0
37.182	30.0
37.197	23.0
37.212	27.0
37.226	17.0
37.241	19.0
37.256	20.0
37.271	20.0
37.286	20.0
37.301	9.0
37.316	13.0
37.331	14.0
37.345	15.0
37.36	17.0
37.375	15.0
37.39	17.0
37.405	24.0
37.42	14.0
37.435	15.0
37.45	13.0
37.464	17.0
37.479	12.0
37.494	10.0
37.509	19.0
37.524	9.0
37.539	5.0
37.554	4.0
37.569	11.0
37.583	5.0
37.598	8.0
37.613	8.0
37.628	10.0
37.643	3.0
37.658	5.0
37.673	2.0
37.688	7.0
37.703	3.0
37.718	4.0
37.733	8.0
37.747	7.0
37.762	9.0
37.777	3.0
37.792	11.0
37.807	10.0
37.822	7.0
37.837	5.0
37.852	8.0
37.867	6.0
37.882	6.0
37.897	1.0
37.912	8.0
37.927	10.0
37.941	5.0
37.956	8.0
37.971	4.0
37.986	7.0
38.001	6.0
38.016	5.0
38.031	3.0
38.046	6.0
38.061	8.0
38.076	8.0
38.091	5.0
38.106	4.0
38.121	4.0
38.136	6.0
38.151	4.0
38.166	6.0
38.181	12.0
38.196	6.0
38.211	11.0
38.226	10.0
38.241	1.0
38.256	5.0
38.271	7.0
38.285	2.0
38.3	4.0
38.315	7.0
38.33	7.0
38.345	7.0
38.36	12.0
38.375	10.0
38.39	3.0
38.405	3.0
38.42	7.0
38.435	5.0
38.45	7.0
38.465	15.0
38.48	4.0
38.495	7.0
38.51	6.0
38.525	8.0
38.54	4.0
38.555	4.0
38.57	5.0
38.585	9.0
38.6	3.0
38.615	2.0
38.63	1.0
38.645	2.0
38.66	4.0
38.675	5.0
38.69	7.0
38.705	4.0
38.72	5.0
38.735	5.0
38.75	6.0
38.765	6.0
38.78	5.0
38.795	3.0
38.81	6.0
38.825	8.0
38.84	8.0
38.855	4.0
38.87	6.0
38.885	4.0
38.9	3.0
38.915	8.0
38.93	6.0
38.945	6.0
38.96	7.0
38.975	4.0
38.99	3.0
39.005	4.0
39.02	3.0
39.035	6.0
39.05	7.0
39.065	5.0
39.08	5.0
39.095	6.0
39.11	10.0
39.125	3.0
39.14	8.0
39.155	4.0
39.17	5.0
39.185	5.0
39.2	3.0
39.215	9.0
39.23	7.0
39.245	10.0
39.26	4.0
39.275	3.0
39.29	4.0
39.305	7.0
39.32	3.0
39.335	7.0
39.35	4.0
39.365	7.0
39.38	3.0
39.395	4.0
39.409	1.0
39.424	7.0
39.439	6.0
39.454	2.0
39.469	5.0
39.484	4.0
39.499	3.0
39.514	9.0
39.529	9.0
39.544	9.0
39.559	7.0
39.574	7.0
39.589	6.0
39.604	6.0
39.619	7.0
39.634	6.0
39.649	3.0
39.664	5.0
39.678	4.0
39.693	4.0
39.708	6.0
39.723	6.0
39.738	5.0
39.753	7.0
39.768	9.0
39.783	7.0
39.798	9.0
39.813	9.0
39.827	9.0
39.842	8.0
39.857	9.0
39.872	7.0
39.887	7.0
39.902	11.0
39.917	12.0
39.932	9.0
39.947	10.0
39.961	8.0
39.976	11.0
39.991	8.0
40.006	9.0
40.021	8.0
40.036	6.0
40.051	2.0
40.065	14.0
40.08	9.0
40.095	2.0
40.11	11.0
40.125	9.0
40.14	7.0
40.154	6.0
40.169	5.0
40.184	7.0
40.199	6.0
40.214	9.0
40.228	5.0
40.243	7.0
40.258	6.0
40.273	4.0
40.288	1.0
40.302	6.0
40.317	3.0
40.332	6.0
40.347	6.0
40.362	6.0
40.376	5.0
40.391	1.0
40.406	2.0
40.421	8.0
40.436	2.0
40.45	8.0
40.465	4.0
40.48	5.0
40.495	4.0
40.509	5.0
40.524	2.0
40.539	7.0
40.554	8.0
40.568	6.0
40.583	5.0
40.598	2.0
40.613	6.0
40.627	2.0
40.642	8.0
40.657	5.0
40.672	5.0
40.686	5.0
40.701	5.0
40.716	3.0
40.731	9.0
40.745	10.0
40.76	6.0
40.775	11.0
40.79	5.0
40.804	5.0
40.819	7.0
40.834	5.0
40.849	5.0
40.863	6.0
40.878	12.0
40.893	4.0
40.907	5.0
40.922	5.0
40.937	9.0
40.952	6.0
40.966	7.0
40.981	6.0
40.996	17.0
41.011	10.0
41.025	14.0
41.04	13.0
41.055	12.0
41.069	11.0
41.084	14.0
41.099	17.0
41.114	24.0
41.128	15.0
41.143	16.0
41.158	13.0
41.173	20.0
41.187	16.0
41.202	19.0
41.217	13.0
41.231	10.0
41.246	10.0
41.261	3.0
41.276	8.0
41.29	13.0
41.305	9.0
41.32	13.0
41.335	13.0
41.349	11.0
41.364	18.0
41.379	11.0
41.393	11.0
41.408	11.0
41.423	20.0
41.438	8.0
41.452	18.0
41.467	7.0
41.482	15.0
41.497	7.0
41.511	6.0
41.526	9.0
41.541	7.0
41.556	9.0
41.57	4.0
41.585	8.0
41.6	7.0
41.615	7.0
41.629	8.0
41.644	7.0
41.659	10.0
41.674	9.0
41.688	5.0
41.703	5.0
41.718	5.0
41.733	7.0
41.747	3.0
41.762	3.0
41.777	4.0
41.792	4.0
41.806	4.0
41.821	7.0
41.836	6.0
41.851	7.0
41.866	4.0
41.88	4.0
41.895	9.0
41.91	2.0
41.925	5.0
41.939	7.0
41.954	4.0
41.969	5.0
41.984	3.0
41.999	8.0
42.013	9.0
42.028	6.0
42.043	3.0
42.058	8.0
42.073	6.0
42.088	9.0
42.102	7.0
42.117	5.0
42.132	9.0
42.147	8.0
42.162	3.0
42.176	7.0
42.191	2.0
42.206	5.0
42.221	6.0
42.236	12.0
42.251	7.0
42.266	9.0
42.28	8.0
42.295	13.0
42.31	11.0
42.325	6.0
42.34	14.0
42.355	10.0
42.369	17.0
42.384	12.0
42.399	11.0
42.414	17.0
42.429	16.0
42.444	10.0
42.459	12.0
42.474	14.0
42.488	6.0
42.503	11.0
42.518	14.0
42.533	5.0
42.548	7.0
42.563	7.0
42.578	11.0
42.593	17.0
42.608	5.0
42.622	8.0
42.637	11.0
42.652	10.0
42.667	9.0
42.682	19.0
42.697	9.0
42.712	17.0
42.727	8.0
42.742	3.0
42.757	10.0
42.772	6.0
42.786	5.0
42.801	3.0
42.816	5.0
42.831	4.0
42.846	9.0
42.861	6.0
42.876	5.0
42.891	4.0
42.906	7.0
42.921	6.0
42.936	7.0
42.951	5.0
42.966	4.0
42.981	6.0
42.996	5.0
43.011	11.0
43.025	8.0
43.04	5.0
43.055	4.0
43.07	4.0
43.085	2.0
43.1	7.0
43.115	5.0
43.13	6.0
43.145	6.0
43.16	10.0
43.175	5.0
43.19	3.0
43.205	8.0
43.22	5.0
43.235	3.0
43.25	5.0
43.265	1.0
43.28	6.0
43.295	8.0
43.31	6.0
43.325	3.0
43.34	4.0
43.355	2.0
43.37	7.0
43.385	9.0
43.4	3.0
43.415	6.0
43.43	5.0
43.445	6.0
43.46	7.0
43.475	4.0
43.49	5.0
43.505	3.0
43.52	7.0
43.535	6.0
43.55	8.0
43.565	10.0
43.58	10.0
43.595	5.0
43.61	8.0
43.625	10.0
43.64	7.0
43.655	9.0
43.67	12.0
43.685	5.0
43.7	9.0
43.715	9.0
43.73	4.0
43.745	11.0
43.76	1.0
43.775	8.0
43.79	5.0
43.805	6.0
43.82	7.0
43.835	8.0
43.85	8.0
43.865	8.0
43.88	6.0
43.895	10.0
43.91	5.0
43.925	10.0
43.94	6.0
43.955	3.0
43.97	7.0
43.985	4.0
44.0	4.0
44.015	5.0
44.03	6.0
44.045	5.0
44.061	1.0
44.076	4.0
44.091	4.0
44.106	4.0
44.121	6.0
44.136	5.0
44.151	3.0
44.166	5.0
44.181	6.0
44.196	3.0
44.211	4.0
44.226	7.0
44.241	0.0
44.256	0.0
44.271	4.0
44.286	4.0
44.301	5.0
44.316	3.0
44.331	5.0
44.346	5.0
44.361	3.0
44.377	4.0
44.392	6.0
44.407	6.0
44.422	5.0
44.437	4.0
44.452	7.0
44.467	0.0
44.482	5.0
44.497	10.0
44.512	8.0
44.527	2.0
44.542	6.0
44.557	3.0
44.572	3.0
44.587	6.0
44.602	2.0
44.617	9.0
44.632	7.0
44.647	2.0
44.663	6.0
44.678	5.0
44.693	6.0
44.708	8.0
44.723	6.0
44.738	7.0
44.753	11.0
44.768	5.0
44.783	8.0
44.798	11.0
44.813	15.0
44.828	20.0
44.843	10.0
44.858	18.0
44.873	14.0
44.888	5.0
44.903	5.0
44.918	4.0
44.933	13.0
44.948	8.0
44.964	12.0
44.979	2.0
44.994	12.0
45.009	8.0
45.024	8.0
45.039	3.0
45.054	4.0
45.069	7.0
45.084	10.0
45.099	6.0
45.114	10.0
45.129	10.0
45.144	8.0
45.159	7.0
45.174	7.0
45.189	3.0
45.204	7.0
45.219	6.0
45.234	5.0
45.249	8.0
45.264	2.0
45.279	8.0
45.294	4.0
45.309	6.0
45.324	5.0
45.339	3.0
45.354	3.0
45.369	5.0
45.384	2.0
45.399	5.0
45.414	5.0
45.429	1.0
45.444	2.0
45.459	1.0
45.474	5.0
45.489	8.0
45.504	3.0
45.519	7.0
45.534	5.0
45.549	4.0
45.564	1.0
45.579	7.0
45.594	5.0
45.609	3.0
45.624	4.0
45.639	6.0
45.654	2.0
45.669	3.0
45.684	3.0
45.699	1.0
45.714	6.0
45.729	4.0
45.744	3.0
45.759	9.0
45.774	3.0
45.789	7.0
45.804	4.0
45.819	7.0
45.834	4.0
45.849	6.0
45.864	7.0
45.879	12.0
45.894	8.0
45.909	16.0
45.924	12.0
45.939	9.0
45.954	11.0
45.969	9.0
45.984	20.0
45.998	14.0
46.013	15.0
46.028	20.0
46.043	15.0
46.058	14.0
46.073	9.0
46.088	10.0
46.103	5.0
46.118	8.0
46.133	6.0
46.148	10.0
46.163	8.0
46.178	7.0
46.192	10.0
46.207	11.0
46.222	11.0
46.237	7.0
46.252	7.0
46.267	7.0
46.282	9.0
46.297	6.0
46.312	7.0
46.327	8.0
46.341	7.0
46.356	4.0
46.371	5.0
46.386	6.0
46.401	4.0
46.416	5.0
46.431	9.0
46.446	7.0
46.46	5.0
46.475	8.0
46.49	4.0
46.505	9.0
46.52	5.0
46.535	5.0
46.55	4.0
46.564	3.0
46.579	6.0
46.594	6.0
46.609	1.0
46.624	6.0
46.639	6.0
46.654	9.0
46.668	7.0
46.683	4.0
46.698	7.0
46.713	9.0
46.728	3.0
46.743	4.0
46.758	5.0
46.772	7.0
46.787	7.0
46.802	1.0
46.817	5.0
46.832	3.0
46.847	2.0
46.861	5.0
46.876	3.0
46.891	2.0
46.906	7.0
46.921	5.0
46.936	6.0
46.95	6.0
46.965	6.0
46.98	3.0
46.995	4.0
47.01	6.0
47.025	9.0
47.039	7.0
47.054	10.0
47.069	10.0
47.084	12.0
47.099	12.0
47.113	10.0
47.128	10.0
47.143	8.0
47.158	13.0
47.173	11.0
47.188	9.0
47.202	6.0
47.217	6.0
47.232	3.0
47.247	7.0
47.262	8.0
47.277	7.0
47.291	2.0
47.306	5.0
47.321	4.0
47.336	6.0
47.351	4.0
47.365	7.0
47.38	4.0
47.395	10.0
47.41	6.0
47.425	5.0
47.44	6.0
47.454	15.0
47.469	8.0
47.484	6.0
47.499	8.0
47.514	7.0
47.528	3.0
47.543	7.0
47.558	6.0
47.573	7.0
47.588	5.0
47.603	3.0
47.617	8.0
47.632	9.0
47.647	5.0
47.662	6.0
47.677	4.0
47.691	5.0
47.706	9.0
47.721	5.0
47.736	5.0
47.751	2.0
47.766	6.0
47.78	5.0
47.795	2.0
47.81	8.0
47.825	7.0
47.84	6.0
47.855	3.0
47.869	5.0
47.884	5.0
47.899	5.0
47.914	8.0
47.929	6.0
47.944	2.0
47.958	1.0
47.973	4.0
47.988	5.0
48.003	4.0
48.018	4.0
48.033	7.0
48.047	9.0
48.062	6.0
48.077	3.0
48.092	2.0
48.107	8.0
48.122	6.0
48.137	2.0
48.151	3.0
48.166	6.0
48.181	7.0
48.196	3.0
48.211	2.0
48.226	3.0
48.241	6.0
48.255	5.0
48.27	1.0
48.285	6.0
48.3	3.0
48.315	6.0
48.33	5.0
48.345	5.0
48.359	6.0
48.374	5.0
48.389	5.0
48.404	5.0
48.419	4.0
48.434	6.0
48.449	5.0
48.464	4.0
48.478	6.0
48.493	3.0
48.508	4.0
48.523	3.0
48.538	7.0
48.553	7.0
48.568	3.0
48.583	6.0
48.597	5.0
48.612	6.0
48.627	7.0
48.642	4.0
48.657	6.0
48.672	6.0
48.687	5.0
48.702	4.0
48.717	5.0
48.731	5.0
48.746	5.0
48.761	6.0
48.776	0.0
48.791	8.0
48.806	4.0
48.821	6.0
48.836	6.0
48.851	4.0
48.866	6.0
48.88	3.0
48.895	6.0
48.91	4.0
48.925	6.0
48.94	8.0
48.955	4.0
48.97	1.0
48.985	5.0
49.0	4.0
49.015	8.0
49.03	6.0
49.044	5.0
49.059	5.0
49.074	7.0
49.089	1.0
49.104	9.0
49.119	3.0
49.134	4.0
49.149	6.0
49.164	5.0
49.179	6.0
49.194	0.0
49.209	5.0
49.224	4.0
49.238	5.0
49.253	9.0
49.268	6.0
49.283	4.0
49.298	5.0
49.313	6.0
49.328	8.0
49.343	9.0
49.358	12.0
49.373	4.0
49.388	5.0
49.403	17.0
49.418	1.0
49.433	8.0
49.448	10.0
49.463	2.0
49.478	11.0
49.492	6.0
49.507	8.0
49.522	8.0
49.537	6.0
49.552	7.0
49.567	6.0
49.582	11.0
49.597	4.0
49.612	5.0
49.627	4.0
49.642	5.0
49.657	8.0
49.672	7.0
49.687	2.0
49.702	5.0
49.717	8.0
49.732	3.0
49.747	7.0
49.762	4.0
49.777	5.0
49.792	2.0
49.807	4.0
49.822	2.0
49.837	4.0
49.852	2.0
49.867	6.0
49.882	6.0
49.897	6.0
49.912	7.0
49.927	6.0
49.942	4.0
49.957	8.0
49.971	8.0
49.986	9.0
50.001	5.0
50.016	6.0
50.031	9.0
50.046	4.0
50.061	10.0
50.076	2.0
50.091	5.0
50.106	9.0
50.121	4.0
50.136	2.0
50.151	5.0
50.166	2.0
50.181	0.0
50.196	7.0
50.211	5.0
50.226	5.0
50.241	4.0
50.256	4.0
50.271	6.0
50.286	9.0
50.302	5.0
50.317	7.0
50.332	7.0
50.347	4.0
50.362	7.0
50.377	1.0
50.392	5.0
50.407	8.0
50.422	9.0
50.437	10.0
50.452	9.0
50.467	5.0
50.482	6.0
50.497	7.0
50.512	6.0
50.527	6.0
50.542	9.0
50.557	4.0
50.572	6.0
50.587	8.0
50.602	2.0
50.617	4.0
50.632	3.0
50.647	6.0
50.662	6.0
50.677	5.0
50.692	1.0
50.707	6.0
50.722	6.0
50.737	8.0
50.752	7.0
50.767	6.0
50.782	4.0
50.797	8.0
50.812	5.0
50.828	7.0
50.843	10.0
50.858	5.0
50.873	2.0
50.888	5.0
50.903	8.0
50.918	4.0
50.933	6.0
50.948	9.0
50.963	4.0
50.978	7.0
50.993	8.0
51.008	8.0
51.023	6.0
51.038	5.0
51.053	3.0
51.068	3.0
51.083	3.0
51.098	9.0
51.114	9.0
51.129	3.0
51.144	5.0
51.159	2.0
51.174	6.0
51.189	5.0
51.204	6.0
51.219	1.0
51.234	2.0
51.249	2.0
51.264	6.0
51.279	2.0
51.294	5.0
51.309	5.0
51.324	5.0
51.34	6.0
51.355	10.0
51.37	3.0
51.385	3.0
51.4	8.0
51.415	10.0
51.43	8.0
51.445	12.0
51.46	12.0
51.475	9.0
51.49	12.0
51.505	15.0
51.52	17.0
51.535	19.0
51.551	18.0
51.566	15.0
51.581	12.0
51.596	13.0
51.611	15.0
51.626	9.0
51.641	14.0
51.656	6.0
51.671	9.0
51.686	4.0
51.701	4.0
51.716	4.0
51.732	6.0
51.747	11.0
51.762	8.0
51.777	6.0
51.792	7.0
51.807	13.0
51.822	13.0
51.837	11.0
51.852	13.0
51.867	10.0
51.882	9.0
51.898	9.0
51.913	9.0
51.928	5.0
51.943	7.0
51.958	8.0
51.973	2.0
51.988	6.0
52.003	6.0
52.018	4.0
52.033	5.0
52.048	7.0
52.064	4.0
52.079	3.0
52.094	9.0
52.109	4.0
52.124	6.0
52.139	5.0
52.154	11.0
52.169	4.0
52.184	3.0
52.199	4.0
52.215	4.0
52.23	5.0
52.245	2.0
52.26	7.0
52.275	6.0
52.29	5.0
52.305	5.0
52.32	7.0
52.335	6.0
52.35	4.0
52.366	9.0
52.381	5.0
52.396	5.0
52.411	3.0
52.426	4.0
52.441	4.0
52.456	6.0
52.471	7.0
52.486	8.0
52.502	6.0
52.517	5.0
52.532	8.0
52.547	8.0
52.562	14.0
52.577	12.0
52.592	13.0
52.607	9.0
52.622	7.0
52.637	9.0
52.653	10.0
52.668	8.0
52.683	7.0
52.698	7.0
52.713	2.0
52.728	3.0
52.743	6.0
52.758	5.0
52.774	5.0
52.789	5.0
52.804	5.0
52.819	5.0
52.834	9.0
52.849	9.0
52.864	18.0
52.879	1.0
52.894	6.0
52.91	6.0
52.925	5.0
52.94	3.0
52.955	4.0
52.97	6.0
52.985	6.0
53.0	5.0
53.015	2.0
53.031	6.0
53.046	2.0
53.061	4.0
53.076	7.0
53.091	5.0
53.106	3.0
53.121	4.0
53.136	6.0
53.152	6.0
53.167	2.0
53.182	3.0
53.197	2.0
53.212	3.0
53.227	4.0
53.242	4.0
53.257	4.0
53.273	5.0
53.288	4.0
53.303	4.0
53.318	6.0
53.333	7.0
53.348	6.0
53.363	3.0
53.379	6.0
53.394	2.0
53.409	5.0
53.424	5.0
53.439	8.0
53.454	7.0
53.469	4.0
53.484	7.0
53.5	4.0
53.515	12.0
53.53	3.0
53.545	6.0
53.56	5.0
53.575	5.0
53.59	9.0
53.606	5.0
53.621	8.0
53.636	2.0
53.651	5.0
53.666	4.0
53.681	5.0
53.696	7.0
53.712	7.0
53.727	2.0
53.742	5.0
53.757	7.0
53.772	6.0
53.787	7.0
53.802	2.0
53.818	6.0
53.833	7.0
53.848	3.0
53.863	11.0
53.878	1.0
53.893	5.0
53.909	4.0
53.924	1.0
53.939	6.0
53.954	2.0
53.969	5.0
53.984	9.0
53.999	3.0
54.015	1.0
54.03	1.0
54.045	6.0
54.06	5.0
54.075	6.0
54.09	6.0
54.106	6.0
54.121	4.0
54.136	3.0
54.151	4.0
54.166	4.0
54.181	3.0
54.197	3.0
54.212	6.0
54.227	6.0
54.242	6.0
54.257	2.0
54.272	5.0
54.288	5.0
54.303	7.0
54.318	6.0
54.333	4.0
54.348	5.0
54.363	7.0
54.379	6.0
54.394	2.0
54.409	3.0
54.424	4.0
54.439	5.0
54.454	6.0
54.47	3.0
54.485	5.0
54.5	3.0
54.515	8.0
54.53	5.0
54.545	6.0
54.561	10.0
54.576	13.0
54.591	9.0
54.606	9.0
54.621	14.0
54.636	17.0
54.652	11.0
54.667	12.0
54.682	10.0
54.697	13.0
54.712	9.0
54.727	9.0
54.743	9.0
54.758	6.0
54.773	7.0
54.788	6.0
54.803	3.0
54.819	8.0
54.834	6.0
54.849	7.0
54.864	5.0
54.879	4.0
54.894	3.0
54.91	3.0
54.925	1.0
54.94	7.0
54.955	5.0
54.97	6.0
54.985	7.0
55.001	8.0
55.016	6.0
55.031	7.0
55.046	14.0
55.061	6.0
55.077	8.0
55.092	5.0
55.107	2.0
55.122	8.0
55.137	6.0
55.152	4.0
55.168	8.0
55.183	6.0
55.198	4.0
55.213	6.0
55.228	5.0
55.243	6.0
55.259	2.0
55.274	5.0
55.289	8.0
55.304	7.0
55.319	6.0
55.335	3.0
55.35	5.0
55.365	3.0
55.38	5.0
55.395	5.0
55.41	7.0
55.426	4.0
55.441	4.0
55.456	4.0
55.471	2.0
55.486	3.0
55.501	4.0
55.517	4.0
55.532	5.0
55.547	7.0
55.562	5.0
55.577	5.0
55.592	6.0
55.608	7.0
55.623	3.0
55.638	7.0
55.653	6.0
55.668	4.0
55.683	7.0
55.699	8.0
55.714	8.0
55.729	7.0
55.744	6.0
55.759	3.0
55.774	1.0
55.79	2.0
55.805	3.0
55.82	4.0
55.835	4.0
55.85	2.0
55.865	4.0
55.881	6.0
55.896	3.0
55.911	4.0
55.926	6.0
55.941	8.0
55.956	6.0
55.972	1.0
55.987	4.0
56.002	2.0
56.017	3.0
56.032	9.0
56.047	3.0
56.063	4.0
56.078	8.0
56.093	5.0
56.108	7.0
56.123	2.0
56.138	2.0
56.154	6.0
56.169	4.0
56.184	4.0
56.199	4.0
56.214	4.0
56.229	1.0
56.244	2.0
56.26	4.0
56.275	3.0
56.29	5.0
56.305	2.0
56.32	4.0
56.335	2.0
56.351	5.0
56.366	3.0
56.381	6.0
56.396	0.0
56.411	1.0
56.426	2.0
56.441	5.0
56.457	3.0
56.472	2.0
56.487	10.0
56.502	4.0
56.517	5.0
56.532	3.0
56.547	3.0
56.563	4.0
56.578	3.0
56.593	2.0
56.608	1.0
56.623	6.0
56.638	6.0
56.653	9.0
56.668	2.0
56.684	5.0
56.699	4.0
56.714	2.0
56.729	6.0
56.744	2.0
56.759	2.0
56.774	2.0
56.79	9.0
56.805	1.0
56.82	5.0
56.835	2.0
56.85	3.0
56.865	6.0
56.88	6.0
56.895	3.0
56.911	4.0
56.926	3.0
56.941	4.0
56.956	6.0
56.971	4.0
56.986	7.0
57.001	4.0
57.016	3.0
57.031	9.0
57.047	5.0
57.062	7.0
57.077	1.0
57.092	2.0
57.107	1.0
57.122	4.0
57.137	5.0
57.152	6.0
57.167	2.0
57.183	2.0
57.198	2.0
57.213	2.0
57.228	12.0
57.243	3.0
57.258	2.0
57.273	0.0
57.288	4.0
57.303	3.0
57.318	6.0
57.334	6.0
57.349	8.0
57.364	6.0
57.379	5.0
57.394	3.0
57.409	4.0
57.424	3.0
57.439	3.0
57.454	7.0
57.469	1.0
57.484	7.0
57.5	3.0
57.515	5.0
57.53	2.0
57.545	4.0
57.56	8.0
57.575	7.0
57.59	5.0
57.605	5.0
57.62	4.0
57.635	3.0
57.65	10.0
57.665	5.0
57.68	8.0
57.696	3.0
57.711	2.0
57.726	9.0
57.741	7.0
57.756	3.0
57.771	6.0
57.786	5.0
57.801	6.0
57.816	4.0
57.831	4.0
57.846	2.0
57.861	7.0
57.876	9.0
57.891	0.0
57.906	3.0
57.921	6.0
57.937	6.0
57.952	5.0
57.967	1.0
57.982	5.0
57.997	5.0
58.012	1.0
58.027	4.0
58.042	7.0
58.057	4.0
58.072	4.0
58.087	4.0
58.102	3.0
58.117	6.0
58.132	6.0
58.147	4.0
58.162	5.0
58.177	6.0
58.192	6.0
58.207	2.0
58.222	2.0
58.237	6.0
58.252	2.0
58.267	3.0
58.282	5.0
58.297	5.0
58.312	9.0
58.327	2.0
58.342	5.0
58.357	6.0
58.372	5.0
58.387	6.0
58.402	5.0
58.418	5.0
58.433	1.0
58.448	4.0
58.463	2.0
58.478	5.0
58.493	6.0
58.508	4.0
58.523	4.0
58.538	6.0
58.553	4.0
58.568	3.0
58.583	4.0
58.598	2.0
58.613	9.0
58.628	6.0
58.643	10.0
58.658	11.0
58.673	7.0
58.688	7.0
58.703	5.0
58.718	9.0
58.733	9.0
58.748	5.0
58.763	3.0
58.778	3.0
58.793	6.0
58.808	3.0
58.823	6.0
58.838	3.0
58.853	2.0
58.868	3.0
58.883	3.0
58.898	3.0
58.913	7.0
58.928	3.0
58.942	2.0
58.957	5.0
58.972	4.0
58.987	2.0
59.002	6.0
59.017	7.0
59.032	7.0
59.047	5.0
59.062	3.0
59.077	4.0
59.092	7.0
59.107	10.0
59.122	6.0
59.137	3.0
59.152	8.0
59.167	4.0
59.182	2.0
59.197	0.0
59.212	4.0
59.227	4.0
59.242	2.0
59.257	8.0
59.272	2.0
59.287	6.0
59.302	2.0
59.317	2.0
59.332	4.0
59.347	2.0
59.362	5.0
59.377	4.0
59.392	4.0
59.407	6.0
59.422	3.0
59.437	0.0
59.452	4.0
59.467	8.0
59.482	4.0
59.497	6.0
59.512	3.0
59.527	8.0
59.542	8.0
59.557	8.0
59.572	5.0
59.587	9.0
59.602	3.0
59.617	9.0
59.632	9.0
59.647	6.0
59.661	5.0
59.676	5.0
59.691	8.0
59.706	7.0
59.721	10.0
59.736	4.0
59.751	7.0
59.766	8.0
59.781	2.0
59.796	5.0
59.811	3.0
59.826	4.0
59.841	5.0
59.856	3.0
59.871	5.0
59.886	6.0
59.901	3.0
59.916	3.0
59.931	15.0
59.946	6.0
59.961	6.0
59.976	12.0
59.991	9.0
60.006	9.0
60.021	9.0
60.036	4.0
60.051	5.0
60.066	7.0
60.081	5.0
60.096	5.0
60.111	5.0
60.126	4.0
60.141	4.0
60.156	3.0
60.171	4.0
60.186	6.0
60.201	4.0
60.216	3.0
60.231	3.0
60.246	6.0
60.261	1.0
60.276	5.0
60.291	4.0
60.306	5.0
60.321	4.0
60.336	5.0
60.35	6.0
60.365	6.0
60.38	6.0
60.395	2.0
60.41	4.0
60.425	7.0
60.44	5.0
60.455	3.0
60.47	6.0
60.485	2.0
60.5	4.0
60.515	8.0
60.53	11.0
60.545	6.0
60.56	7.0
60.575	12.0
60.59	10.0
60.605	6.0
60.62	1.0
60.635	6.0
60.65	3.0
60.665	10.0
60.68	9.0
60.695	4.0
60.71	2.0
60.725	3.0
60.74	3.0
60.755	6.0
60.77	1.0
60.785	4.0
60.8	3.0
60.815	5.0
60.83	3.0
60.845	3.0
60.86	5.0
60.875	2.0
60.89	7.0
60.905	5.0
60.92	7.0
60.935	4.0
60.95	5.0
60.965	8.0
60.98	4.0
60.995	5.0
61.01	7.0
61.025	13.0
61.04	6.0
61.055	1.0
61.07	8.0
61.085	4.0
61.1	3.0
61.115	2.0
61.13	1.0
61.145	3.0
61.16	6.0
61.175	5.0
61.191	1.0
61.206	1.0
61.221	2.0
61.236	3.0
61.251	5.0
61.266	5.0
61.281	4.0
61.296	2.0
61.311	8.0
61.326	3.0
61.341	3.0
61.356	6.0
61.371	5.0
61.386	6.0
61.401	3.0
61.416	3.0
61.431	3.0
61.446	6.0
61.461	5.0
61.476	4.0
61.491	5.0
61.506	3.0
61.521	1.0
61.536	3.0
61.551	6.0
61.566	8.0
61.581	6.0
61.596	12.0
61.611	2.0
61.626	4.0
61.641	6.0
61.656	7.0
61.672	5.0
61.687	5.0
61.702	4.0
61.717	3.0
61.732	3.0
61.747	5.0
61.762	7.0
61.777	3.0
61.792	2.0
61.807	7.0
61.822	5.0
61.837	4.0
61.852	8.0
61.867	4.0
61.882	5.0
61.897	2.0
61.912	1.0
61.927	3.0
61.943	3.0
61.958	6.0
61.973	3.0
61.988	2.0
62.003	3.0
62.018	5.0
62.033	2.0
62.048	6.0
62.063	2.0
62.078	4.0
62.093	4.0
62.108	5.0
62.123	4.0
62.138	4.0
62.153	5.0
62.169	4.0
62.184	1.0
62.199	1.0
62.214	2.0
62.229	2.0
62.244	3.0
62.259	1.0
62.274	4.0
62.289	2.0
62.304	3.0
62.319	1.0
62.335	3.0
62.35	5.0
62.365	3.0
62.38	5.0
62.395	4.0
62.41	6.0
62.425	2.0
62.44	3.0
62.455	5.0
62.47	5.0
62.485	12.0
62.501	4.0
62.516	7.0
62.531	4.0
62.546	4.0
62.561	5.0
62.576	4.0
62.591	4.0
62.606	2.0
62.621	2.0
62.636	2.0
62.652	4.0
62.667	5.0
62.682	2.0
62.697	7.0
62.712	5.0
62.727	3.0
62.742	2.0
62.757	3.0
62.772	2.0
62.787	1.0
62.803	5.0
62.818	3.0
62.833	8.0
62.848	3.0
62.863	5.0
62.878	9.0
62.893	3.0
62.908	3.0
62.923	2.0
62.939	6.0
62.954	3.0
62.969	5.0
62.984	2.0
62.999	1.0
63.014	2.0
63.029	3.0
63.044	4.0
63.059	5.0
63.074	1.0
63.09	4.0
63.105	4.0
63.12	4.0
63.135	2.0
63.15	7.0
63.165	6.0
63.18	4.0
63.195	4.0
63.21	3.0
63.226	7.0
63.241	5.0
63.256	0.0
63.271	6.0
63.286	3.0
63.301	4.0
63.316	2.0
63.331	8.0
63.346	4.0
63.362	1.0
63.377	4.0
63.392	5.0
63.407	8.0
63.422	10.0
63.437	4.0
63.452	4.0
63.467	7.0
63.482	3.0
63.497	7.0
63.513	9.0
63.528	5.0
63.543	2.0
63.558	6.0
63.573	7.0
63.588	1.0
63.603	4.0
63.618	2.0
63.633	4.0
63.648	5.0
63.664	3.0
63.679	7.0
63.694	3.0
63.709	3.0
63.724	4.0
63.739	0.0
63.754	2.0
63.769	6.0
63.784	5.0
63.799	5.0
63.814	3.0
63.83	5.0
63.845	1.0
63.86	5.0
63.875	3.0
63.89	4.0
63.905	4.0
63.92	4.0
63.935	8.0
63.95	3.0
63.965	5.0
63.98	1.0
63.996	2.0
64.011	4.0
64.026	4.0
64.041	5.0
64.056	6.0
64.071	2.0
64.086	5.0
64.101	1.0
64.116	3.0
64.131	1.0
64.146	5.0
64.161	1.0
64.176	3.0
64.191	1.0
64.207	2.0
64.222	5.0
64.237	3.0
64.252	5.0
64.267	3.0
64.282	2.0
64.297	2.0
64.312	6.0
64.327	2.0
64.342	2.0
64.357	3.0
64.372	3.0
64.387	5.0
64.402	5.0
64.417	9.0
64.433	4.0
64.448	3.0
64.463	3.0
64.478	5.0
64.493	4.0
64.508	7.0
64.523	2.0
64.538	2.0
64.553	4.0
64.568	4.0
64.583	2.0
64.598	5.0
64.613	7.0
64.628	8.0
64.643	4.0
64.658	6.0
64.673	3.0
64.688	1.0
64.703	3.0
64.718	3.0
64.734	4.0
64.749	1.0
64.764	3.0
64.779	1.0
64.794	3.0
64.809	3.0
64.824	1.0
64.839	2.0
64.854	3.0
64.869	6.0
64.884	1.0
64.899	2.0
64.914	2.0
64.929	5.0
64.944	2.0
64.959	4.0
64.974	4.0
64.989	5.0
65.004	3.0
65.019	3.0
65.034	1.0
65.049	4.0
65.064	3.0
65.079	3.0
65.094	6.0
65.109	3.0
65.125	7.0
65.14	2.0
65.155	2.0
65.17	2.0
65.185	6.0
65.2	2.0
65.215	4.0
65.23	5.0
65.245	6.0
65.26	3.0
65.275	4.0
65.29	4.0
65.305	7.0
65.32	5.0
65.335	4.0
65.35	6.0
65.365	2.0
65.38	7.0
65.395	2.0
65.41	4.0
65.425	0.0
65.44	4.0
65.455	3.0
65.47	3.0
65.485	3.0
65.5	2.0
65.515	5.0
65.53	3.0
65.545	4.0
65.56	8.0
65.575	5.0
65.59	4.0
65.605	4.0
65.62	3.0
65.635	1.0
65.65	4.0
65.666	4.0
65.681	6.0
65.696	2.0
65.711	1.0
65.726	4.0
65.741	3.0
65.756	6.0
65.771	4.0
65.786	5.0
65.801	2.0
65.816	4.0
65.831	3.0
65.846	2.0
65.861	1.0
65.876	4.0
65.891	1.0
65.906	2.0
65.921	3.0
65.936	4.0
65.951	2.0
65.966	3.0
65.981	1.0
65.996	4.0
66.011	1.0
66.026	3.0
66.041	5.0
66.056	1.0
66.071	2.0
66.086	7.0
66.101	8.0
66.116	3.0
66.131	7.0
66.146	9.0
66.161	6.0
66.176	5.0
66.191	10.0
66.206	10.0
66.221	7.0
66.236	8.0
66.251	12.0
66.266	2.0
66.281	3.0
66.296	1.0
66.311	3.0
66.327	4.0
66.342	6.0
66.357	6.0
66.372	3.0
66.387	7.0
66.402	2.0
66.417	3.0
66.432	2.0
66.447	0.0
66.462	3.0
66.477	3.0
66.492	2.0
66.507	6.0
66.522	3.0
66.537	4.0
66.552	2.0
66.567	2.0
66.582	6.0
66.597	5.0
66.612	9.0
66.627	1.0
66.642	6.0
66.657	7.0
66.672	7.0
66.687	3.0
66.702	4.0
66.717	7.0
66.732	7.0
66.747	3.0
66.762	3.0
66.777	3.0
66.792	4.0
66.807	5.0
66.822	4.0
66.837	3.0
66.853	2.0
66.868	2.0
66.883	1.0
66.898	4.0
66.913	2.0
66.928	5.0
66.943	3.0
66.958	6.0
66.973	2.0
66.988	4.0
67.003	9.0
67.018	3.0
67.033	6.0
67.048	2.0
67.063	5.0
67.078	4.0
67.093	5.0
67.108	6.0
67.123	5.0
67.138	2.0
67.153	4.0
67.168	3.0
67.183	2.0
67.198	2.0
67.214	3.0
67.229	4.0
67.244	3.0
67.259	2.0
67.274	4.0
67.289	1.0
67.304	2.0
67.319	7.0
67.334	5.0
67.349	1.0
67.364	3.0
67.379	2.0
67.394	5.0
67.409	3.0
67.424	2.0
67.439	5.0
67.454	6.0
67.469	4.0
67.484	4.0
67.5	4.0
67.515	8.0
67.53	3.0
67.545	6.0
67.56	7.0
67.575	4.0
67.59	5.0
67.605	4.0
67.62	5.0
67.635	6.0
67.65	3.0
67.665	4.0
67.68	3.0
67.695	0.0
67.71	5.0
67.726	8.0
67.741	8.0
67.756	4.0
67.771	1.0
67.786	2.0
67.801	1.0
67.816	4.0
67.831	2.0
67.846	2.0
67.861	5.0
67.876	1.0
67.891	5.0
67.906	4.0
67.922	4.0
67.937	6.0
67.952	2.0
67.967	2.0
67.982	10.0
67.997	3.0
68.012	5.0
68.027	7.0
68.042	6.0
68.057	8.0
68.072	4.0
68.087	4.0
68.103	6.0
68.118	4.0
68.133	2.0
68.148	5.0
68.163	6.0
68.178	11.0
68.193	6.0
68.208	5.0
68.223	6.0
68.238	1.0
68.254	2.0
68.269	2.0
68.284	3.0
68.299	3.0
68.314	1.0
68.329	1.0
68.344	1.0
68.359	5.0
68.374	5.0
68.389	3.0
68.405	3.0
68.42	5.0
68.435	4.0
68.45	3.0
68.465	0.0
68.48	4.0
68.495	2.0
68.51	8.0
68.525	1.0
68.54	1.0
68.556	2.0
68.571	6.0
68.586	2.0
68.601	4.0
68.616	6.0
68.631	2.0
68.646	2.0
68.661	3.0
68.676	3.0
68.691	2.0
68.707	3.0
68.722	3.0
68.737	3.0
68.752	4.0
68.767	7.0
68.782	5.0
68.797	6.0
68.812	4.0
68.827	7.0
68.842	5.0
68.857	6.0
68.873	8.0
68.888	4.0
68.903	7.0
68.918	5.0
68.933	2.0
68.948	2.0
68.963	7.0
68.978	4.0
68.993	3.0
69.008	5.0
69.023	3.0
69.038	7.0
69.054	6.0
69.069	3.0
69.084	6.0
69.099	4.0
69.114	1.0
69.129	4.0
69.144	2.0
69.159	0.0
69.174	2.0
69.189	1.0
69.204	3.0
69.219	2.0
69.234	5.0
69.249	2.0
69.264	3.0
69.279	2.0
69.295	6.0
69.31	4.0
69.325	4.0
69.34	4.0
69.355	5.0
69.37	6.0
69.385	4.0
69.4	4.0
69.415	3.0
69.43	1.0
69.445	4.0
69.46	4.0
69.475	3.0
69.49	6.0
69.505	2.0
69.52	4.0
69.535	3.0
69.55	1.0
69.565	6.0
69.58	10.0
69.595	2.0
69.61	5.0
69.625	2.0
69.64	3.0
69.655	3.0
69.67	7.0
69.685	2.0
69.7	2.0
69.715	6.0
69.73	7.0
69.745	7.0
69.76	11.0
69.775	5.0
69.79	5.0
69.805	5.0
69.82	8.0
69.835	8.0
69.85	4.0
69.865	11.0
69.88	6.0
69.895	5.0
69.909	3.0
69.924	4.0
69.939	3.0
69.954	9.0
69.969	5.0
69.984	4.0
69.999	6.0
70.014	4.0
70.029	2.0
70.044	2.0
70.059	3.0
70.074	4.0
70.088	8.0
70.103	2.0
70.118	5.0
70.133	3.0
70.148	4.0
70.163	3.0
70.178	3.0
70.193	1.0
70.208	2.0
70.222	3.0
70.237	4.0
70.252	1.0
70.267	4.0
70.282	10.0
70.297	3.0
70.312	5.0
70.327	6.0
70.341	4.0
70.356	2.0
70.371	4.0
70.386	9.0
70.401	2.0
70.416	6.0
70.43	1.0
70.445	1.0
70.46	3.0
70.475	4.0
70.49	5.0
70.505	5.0
70.519	4.0
70.534	8.0
70.549	5.0
70.564	5.0
70.579	3.0
70.594	6.0
70.608	9.0
70.623	6.0
70.638	7.0
70.653	2.0
70.668	3.0
70.683	6.0
70.697	7.0
70.712	7.0
70.727	6.0
70.742	1.0
70.757	4.0
70.771	2.0
70.786	4.0
70.801	4.0
70.816	4.0
70.831	2.0
70.845	1.0
70.86	4.0
70.875	6.0
70.89	4.0
70.905	3.0
70.92	1.0
70.934	3.0
70.949	3.0
70.964	3.0
70.979	3.0
70.994	7.0
71.008	3.0
71.023	3.0
71.038	1.0
71.053	0.0
71.068	5.0
71.082	6.0
71.097	4.0
71.112	5.0
71.127	3.0
71.142	5.0
71.156	6.0
71.171	4.0
71.186	3.0
71.201	2.0
71.216	3.0
71.231	1.0
71.245	5.0
71.26	4.0
71.275	7.0
71.29	2.0
71.305	4.0
71.319	2.0
71.334	2.0
71.349	1.0
71.364	2.0
71.379	2.0
71.394	3.0
71.408	5.0
71.423	3.0
71.438	5.0
71.453	5.0
71.468	8.0
71.483	2.0
71.497	3.0
71.512	3.0
71.527	3.0
71.542	5.0
71.557	5.0
71.572	2.0
71.586	7.0
71.601	4.0
71.616	4.0
71.631	0.0
71.646	5.0
71.661	5.0
71.676	4.0
71.69	4.0
71.705	5.0
71.72	1.0
71.735	3.0
71.75	4.0
71.765	2.0
71.78	5.0
71.795	1.0
71.81	2.0
71.824	2.0
71.839	2.0
71.854	2.0
71.869	4.0
71.884	4.0
71.899	4.0
71.914	1.0
71.929	6.0
71.944	5.0
71.959	0.0
71.974	2.0
71.988	2.0
72.003	5.0
72.018	1.0
72.033	2.0
72.048	2.0
72.063	6.0
72.078	3.0
72.093	2.0
72.108	5.0
72.123	3.0
72.138	3.0
72.153	3.0
72.168	4.0
72.183	3.0
72.198	4.0
72.213	7.0
72.228	1.0
72.243	4.0
72.258	3.0
72.273	6.0
72.288	2.0
72.303	3.0
72.318	3.0
72.333	9.0
72.348	2.0
72.363	0.0
72.378	4.0
72.393	3.0
72.408	4.0
72.423	3.0
72.438	5.0
72.453	8.0
72.468	2.0
72.483	3.0
72.498	3.0
72.513	1.0
72.528	2.0
72.543	1.0
72.558	5.0
72.573	1.0
72.588	1.0
72.603	1.0
72.618	4.0
72.633	0.0
72.649	2.0
72.664	3.0
72.679	2.0
72.694	0.0
72.709	1.0
72.724	4.0
72.739	3.0
72.754	5.0
72.769	2.0
72.784	5.0
72.799	6.0
72.814	2.0
72.829	2.0
72.845	3.0
72.86	0.0
72.875	1.0
72.89	2.0
72.905	1.0
72.92	7.0
72.935	4.0
72.95	5.0
72.965	2.0
72.98	5.0
72.996	8.0
73.011	0.0
73.026	2.0
73.041	0.0
73.056	3.0
73.071	0.0
73.086	2.0
73.101	2.0
73.117	1.0
73.132	3.0
73.147	1.0
73.162	1.0
73.177	3.0
73.192	2.0
73.207	2.0
73.222	2.0
73.238	1.0
73.253	3.0
73.268	3.0
73.283	3.0
73.298	1.0
73.313	6.0
73.328	8.0
73.343	9.0
73.359	2.0
73.374	5.0
73.389	2.0
73.404	1.0
73.419	2.0
73.434	2.0
73.449	2.0
73.465	0.0
73.48	2.0
73.495	2.0
73.51	3.0
73.525	5.0
73.54	7.0
73.556	2.0
73.571	2.0
73.586	6.0
73.601	3.0
73.616	6.0
73.631	3.0
73.646	6.0
73.662	3.0
73.677	2.0
73.692	3.0
73.707	5.0
73.722	2.0
73.737	2.0
73.752	7.0
73.768	5.0
73.783	5.0
73.798	3.0
73.813	3.0
73.828	2.0
73.843	10.0
73.859	4.0
73.874	4.0
73.889	2.0
73.904	4.0
73.919	2.0
73.934	4.0
73.949	1.0
73.965	4.0
73.98	2.0
73.995	2.0
74.01	3.0
74.025	5.0
74.04	3.0
74.056	6.0
74.071	1.0
74.086	5.0
74.101	3.0
74.116	2.0
74.131	8.0
74.146	6.0
74.162	2.0
74.177	6.0
74.192	3.0
74.207	7.0
74.222	9.0
74.237	6.0
74.252	5.0
74.268	5.0
74.283	4.0
74.298	3.0
74.313	3.0
74.328	4.0
74.343	3.0
74.358	6.0
74.374	5.0
74.389	3.0
74.404	4.0
74.419	5.0
74.434	3.0
74.449	1.0
74.464	3.0
74.48	5.0
74.495	1.0
74.51	2.0
74.525	4.0
74.54	2.0
74.555	2.0
74.57	1.0
74.586	2.0
74.601	4.0
74.616	6.0
74.631	1.0
74.646	5.0
74.661	6.0
74.676	4.0
74.691	5.0
74.707	1.0
74.722	2.0
74.737	3.0
74.752	3.0
74.767	4.0
74.782	5.0
74.797	4.0
74.813	4.0
74.828	3.0
74.843	5.0
74.858	3.0
74.873	2.0
74.888	5.0
74.903	3.0
74.918	7.0
74.934	3.0
74.949	4.0
74.964	7.0
74.979	2.0
74.994	1.0
75.009	5.0
75.024	3.0
75.04	5.0
75.055	3.0
75.07	1.0
75.085	5.0
75.1	2.0
75.115	3.0
75.13	10.0
75.145	6.0
75.161	3.0
75.176	2.0
75.191	1.0
75.206	3.0
75.221	2.0
75.236	4.0
75.251	4.0
75.266	3.0
75.282	3.0
75.297	2.0
75.312	4.0
75.327	4.0
75.342	1.0
75.357	3.0
75.372	5.0
75.387	1.0
75.403	2.0
75.418	1.0
75.433	2.0
75.448	3.0
75.463	2.0
75.478	3.0
75.493	3.0
75.509	2.0
75.524	1.0
75.539	3.0
75.554	4.0
75.569	6.0
75.584	3.0
75.599	1.0
75.614	2.0
75.63	3.0
75.645	3.0
75.66	1.0
75.675	7.0
75.69	3.0
75.705	2.0
75.72	1.0
75.735	4.0
75.751	4.0
75.766	1.0
75.781	2.0
75.796	4.0
75.811	2.0
75.826	6.0
75.841	3.0
75.856	1.0
75.872	6.0
75.887	3.0
75.902	4.0
75.917	2.0
75.932	2.0
75.947	6.0
75.962	3.0
75.977	4.0
75.993	2.0
76.008	2.0
76.023	2.0
76.038	2.0
76.053	3.0
76.068	3.0
76.083	2.0
76.098	3.0
76.114	6.0
76.129	2.0
76.144	3.0
76.159	4.0
76.174	1.0
76.189	1.0
76.204	2.0
76.22	2.0
76.235	4.0
76.25	4.0
76.265	4.0
76.28	3.0
76.295	3.0
76.31	1.0
76.325	5.0
76.341	6.0
76.356	3.0
76.371	3.0
76.386	2.0
76.401	2.0
76.416	4.0
76.431	1.0
76.446	2.0
76.462	5.0
76.477	2.0
76.492	1.0
76.507	4.0
76.522	3.0
76.537	4.0
76.552	3.0
76.567	1.0
76.583	3.0
76.598	1.0
76.613	3.0
76.628	1.0
76.643	2.0
76.658	3.0
76.673	2.0
76.688	0.0
76.704	4.0
76.719	2.0
76.734	7.0
76.749	2.0
76.764	5.0
76.779	2.0
76.794	4.0
76.809	1.0
76.824	5.0
76.84	3.0
76.855	1.0
76.87	4.0
76.885	3.0
76.9	2.0
76.915	2.0
76.93	3.0
76.945	1.0
76.96	3.0
76.976	6.0
76.991	7.0
77.006	1.0
77.021	4.0
77.036	1.0
77.051	2.0
77.066	4.0
77.081	3.0
77.096	2.0
77.112	4.0
77.127	3.0
77.142	6.0
77.157	2.0
77.172	2.0
77.187	0.0
77.202	2.0
77.217	1.0
77.232	4.0
77.247	1.0
77.263	2.0
77.278	2.0
77.293	2.0
77.308	2.0
77.323	5.0
77.338	0.0
77.353	6.0
77.368	5.0
77.383	1.0
77.398	3.0
77.413	3.0
77.428	4.0
77.444	4.0
77.459	5.0
77.474	5.0
77.489	1.0
77.504	4.0
77.519	7.0
77.534	3.0
77.549	3.0
77.564	5.0
77.579	5.0
77.594	5.0
77.609	6.0
77.624	2.0
77.64	4.0
77.655	3.0
77.67	7.0
77.685	3.0
77.7	2.0
77.715	2.0
77.73	4.0
77.745	1.0
77.76	4.0
77.775	3.0
77.79	4.0
77.805	3.0
77.82	3.0
77.835	4.0
77.85	6.0
77.865	2.0
77.88	2.0
77.895	2.0
77.91	2.0
77.926	3.0
77.941	3.0
77.956	2.0
77.971	1.0
77.986	1.0
78.001	3.0
78.016	6.0
78.031	4.0
78.046	4.0
78.061	4.0
78.076	3.0
78.091	3.0
78.106	2.0
78.121	7.0
78.136	5.0
78.151	3.0
78.166	1.0
78.181	3.0
78.196	5.0
78.211	5.0
78.226	3.0
78.241	3.0
78.256	3.0
78.271	9.0
78.286	5.0
78.301	6.0
78.316	2.0
78.331	3.0
78.346	2.0
78.361	0.0
78.376	3.0
78.391	4.0
78.406	3.0
78.421	6.0
78.436	1.0
78.451	6.0
78.466	6.0
78.481	6.0
78.496	1.0
78.511	0.0
78.526	2.0
78.541	1.0
78.556	3.0
78.571	2.0
78.586	2.0
78.601	3.0
78.616	1.0
78.631	1.0
78.646	4.0
78.661	5.0
78.676	2.0
78.691	3.0
78.706	4.0
78.721	2.0
78.736	2.0
78.751	2.0
78.766	4.0
78.781	1.0
78.796	2.0
78.811	0.0
78.826	8.0
78.841	4.0
78.856	4.0
78.871	5.0
78.885	1.0
78.9	3.0
78.915	4.0
78.93	5.0
78.945	2.0
78.96	2.0
78.975	1.0
78.99	1.0
79.005	2.0
79.02	1.0
79.035	1.0
79.05	2.0
79.065	0.0
79.08	4.0
79.095	2.0
79.11	5.0
79.125	5.0
79.14	0.0
79.155	3.0
79.17	0.0
79.185	2.0
79.2	2.0
79.215	0.0
79.23	2.0
79.245	4.0
79.26	2.0
79.275	2.0
79.29	1.0
79.304	2.0
79.319	3.0
79.334	3.0
79.349	3.0
79.364	1.0
79.379	4.0
79.394	3.0
79.409	1.0
79.424	2.0
79.439	2.0
79.454	3.0
79.469	1.0
79.484	5.0
79.499	2.0
79.514	4.0
79.529	5.0
79.544	0.0
79.559	2.0
79.574	6.0
79.589	1.0
79.604	2.0
79.619	2.0
79.634	1.0
79.649	7.0
79.664	2.0
79.679	4.0
79.693	0.0
79.708	4.0
79.723	6.0
79.738	4.0
79.753	1.0
79.768	3.0
79.783	1.0
79.798	3.0
79.813	6.0
79.828	4.0
79.843	2.0
79.858	3.0
79.873	3.0
79.888	0.0
79.903	2.0
79.918	5.0
79.933	5.0
79.948	1.0
79.963	3.0
79.978	8.0
79.993	2.0
80.008	2.0
80.023	3.0
80.038	7.0
80.053	5.0
80.068	3.0
80.083	10.0
80.098	1.0
80.113	2.0
80.128	4.0
80.143	3.0
80.158	7.0
80.173	3.0
80.188	2.0
80.202	2.0
80.217	6.0
80.232	2.0
80.247	3.0
80.262	4.0
80.277	2.0
80.292	7.0
80.307	2.0
80.322	2.0
80.337	4.0
80.352	2.0
80.367	2.0
80.382	3.0
80.397	6.0
80.412	5.0
80.427	3.0
80.442	4.0
80.457	5.0
80.472	6.0
80.487	1.0
80.502	5.0
80.517	4.0
80.532	3.0
80.547	4.0
80.562	3.0
80.577	3.0
80.592	3.0
80.607	5.0
80.622	2.0
80.637	2.0
80.652	4.0
80.667	3.0
80.682	4.0
80.697	3.0
80.712	0.0
80.727	5.0
80.742	2.0
80.757	2.0
80.772	0.0
80.787	3.0
80.802	1.0
80.817	4.0
80.832	4.0
80.847	3.0
80.862	1.0
80.877	5.0
80.892	2.0
80.907	3.0
80.922	9.0
80.937	2.0
80.952	4.0
80.967	0.0
80.982	5.0
80.997	4.0
81.012	3.0
81.027	3.0
81.042	6.0
81.057	3.0
81.072	4.0
81.087	2.0
81.101	4.0
81.116	3.0
81.131	5.0
81.146	2.0
81.161	0.0
81.176	4.0
81.191	2.0
81.206	3.0
81.221	3.0
81.236	2.0
81.251	2.0
81.266	5.0
81.281	1.0
81.296	3.0
81.311	2.0
81.326	2.0
81.341	4.0
81.356	5.0
81.371	2.0
81.386	1.0
81.401	4.0
81.416	3.0
81.431	6.0
81.446	1.0
81.461	1.0
81.476	3.0
81.491	6.0
81.506	3.0
81.521	3.0
81.536	3.0
81.55	1.0
81.565	3.0
81.58	2.0
81.595	3.0
81.61	3.0
81.625	11.0
81.64	1.0
81.655	3.0
81.67	3.0
81.685	7.0
81.7	2.0
81.715	1.0
81.73	5.0
81.745	2.0
81.76	2.0
81.775	1.0
81.79	4.0
81.805	3.0
81.819	3.0
81.834	4.0
81.849	3.0
81.864	3.0
81.879	4.0
81.894	3.0
81.909	2.0
81.924	5.0
81.939	3.0
81.954	2.0
81.969	2.0
81.984	7.0
81.999	3.0
82.013	4.0
82.028	6.0
82.043	3.0
82.058	2.0
82.073	2.0
82.088	3.0
82.103	2.0
82.118	5.0
82.133	3.0
82.148	2.0
82.163	1.0
82.177	2.0
82.192	1.0
82.207	2.0
82.222	5.0
82.237	1.0
82.252	4.0
82.267	2.0
82.282	6.0
82.297	1.0
82.312	1.0
82.326	1.0
82.341	0.0
82.356	1.0
82.371	3.0
82.386	7.0
82.401	3.0
82.416	5.0
82.431	2.0
82.445	0.0
82.46	2.0
82.475	1.0
82.49	4.0
82.505	0.0
82.52	2.0
82.535	4.0
82.55	6.0
82.565	4.0
82.579	3.0
82.594	3.0
82.609	2.0
82.624	3.0
82.639	1.0
82.654	2.0
82.669	1.0
82.684	2.0
82.698	3.0
82.713	5.0
82.728	0.0
82.743	5.0
82.758	1.0
82.773	3.0
82.788	1.0
82.803	3.0
82.817	5.0
82.832	2.0
82.847	1.0
82.862	2.0
82.877	2.0
82.892	4.0
82.907	1.0
82.922	4.0
82.937	1.0
82.951	4.0
82.966	1.0
82.981	4.0
82.996	2.0
83.011	3.0
83.026	1.0
83.041	5.0
83.056	1.0
83.07	3.0
83.085	3.0
83.1	1.0
83.115	2.0
83.13	2.0
83.145	2.0
83.16	4.0
83.175	5.0
83.19	2.0
83.204	8.0
83.219	4.0
83.234	4.0
83.249	6.0
83.264	4.0
83.279	3.0
83.294	2.0
83.309	1.0
83.324	0.0
83.339	2.0
83.353	1.0
83.368	3.0
83.383	3.0
83.398	1.0
83.413	3.0
83.428	1.0
83.443	2.0
83.458	2.0
83.473	5.0
83.488	7.0
83.503	5.0
83.517	1.0
83.532	1.0
83.547	3.0
83.562	1.0
83.577	6.0
83.592	4.0
83.607	4.0
83.622	1.0
83.637	2.0
83.652	3.0
83.667	1.0
83.682	4.0
83.697	4.0
83.712	3.0
83.727	3.0
83.741	2.0
83.756	3.0
83.771	4.0
83.786	7.0
83.801	2.0
83.816	4.0
83.831	2.0
83.846	3.0
83.861	4.0
83.876	4.0
83.891	4.0
83.906	2.0
83.921	3.0
83.936	4.0
83.951	4.0
83.966	3.0
83.981	2.0
83.996	1.0
84.011	5.0
84.026	1.0
84.041	5.0
84.056	5.0
84.071	6.0
84.086	5.0
84.101	1.0
84.116	1.0
84.131	6.0
84.146	5.0
84.161	0.0
84.176	2.0
84.191	2.0
84.206	3.0
84.221	1.0
84.236	1.0
84.251	1.0
84.266	4.0
84.281	5.0
84.296	6.0
84.311	2.0
84.326	4.0
84.341	5.0
84.356	4.0
84.371	2.0
84.386	3.0
84.401	6.0
84.416	4.0
84.431	3.0
84.446	4.0
84.461	7.0
84.476	5.0
84.492	3.0
84.507	1.0
84.522	0.0
84.537	1.0
84.552	1.0
84.567	1.0
84.582	7.0
84.597	1.0
84.612	1.0
84.627	0.0
84.642	3.0
84.657	4.0
84.672	3.0
84.687	3.0
84.702	4.0
84.717	3.0
84.733	2.0
84.748	2.0
84.763	4.0
84.778	3.0
84.793	4.0
84.808	2.0
84.823	3.0
84.838	4.0
84.853	1.0
84.868	3.0
84.883	2.0
84.898	3.0
84.913	5.0
84.929	1.0
84.944	4.0
84.959	5.0
84.974	3.0
84.989	3.0
85.004	6.0
85.019	7.0
85.034	3.0
85.049	4.0
85.064	6.0
85.079	1.0
85.094	2.0
85.11	3.0
85.125	2.0
85.14	4.0
85.155	1.0
85.17	2.0
85.185	3.0
85.2	4.0
85.215	3.0
85.23	3.0
85.245	2.0
85.26	3.0
85.276	2.0
85.291	1.0
85.306	3.0
85.321	5.0
85.336	5.0
85.351	4.0
85.366	2.0
85.381	1.0
85.396	6.0
85.411	1.0
85.426	3.0
85.441	2.0
85.457	3.0
85.472	1.0
85.487	9.0
85.502	1.0
85.517	2.0
85.532	0.0
85.547	1.0
85.562	5.0
85.577	3.0
85.592	1.0
85.607	2.0
85.622	5.0
85.637	3.0
85.653	6.0
85.668	3.0
85.683	1.0
85.698	0.0
85.713	4.0
85.728	3.0
85.743	2.0
85.758	3.0
85.773	2.0
85.788	3.0
85.803	0.0
85.818	5.0
85.833	4.0
85.848	3.0
85.863	8.0
85.879	2.0
85.894	2.0
85.909	4.0
85.924	2.0
85.939	4.0
85.954	6.0
85.969	2.0
85.984	1.0
85.999	4.0
86.014	5.0
86.029	4.0
86.044	2.0
86.059	0.0
86.074	3.0
86.089	2.0
86.104	3.0
86.119	4.0
86.134	2.0
86.149	6.0
86.164	5.0
86.179	1.0
86.194	3.0
86.209	5.0
86.224	3.0
86.239	0.0
86.254	0.0
86.269	3.0
86.284	7.0
86.299	0.0
86.314	1.0
86.33	0.0
86.345	4.0
86.36	4.0
86.375	5.0
86.39	3.0
86.405	3.0
86.42	4.0
86.435	4.0
86.45	1.0
86.465	1.0
86.48	1.0
86.495	1.0
86.51	3.0
86.525	4.0
86.54	2.0
86.555	6.0
86.57	0.0
86.585	5.0
86.6	4.0
86.615	2.0
86.63	3.0
86.645	3.0
86.659	4.0
86.674	1.0
86.689	1.0
86.704	2.0
86.719	0.0
86.734	4.0
86.749	4.0
86.764	3.0
86.779	3.0
86.794	1.0
86.809	3.0
86.824	6.0
86.839	2.0
86.854	5.0
86.869	5.0
86.884	8.0
86.899	5.0
86.914	4.0
86.929	3.0
86.944	4.0
86.959	1.0
86.974	3.0
86.989	3.0
87.004	6.0
87.019	1.0
87.034	4.0
87.049	2.0
87.064	3.0
87.079	4.0
87.094	4.0
87.109	4.0
87.124	1.0
87.139	1.0
87.154	2.0
87.169	2.0
87.184	4.0
87.199	1.0
87.214	2.0
87.229	5.0
87.244	5.0
87.259	8.0
87.274	3.0
87.289	3.0
87.304	4.0
87.319	5.0
87.334	0.0
87.349	3.0
87.364	3.0
87.379	3.0
87.394	2.0
87.409	4.0
87.424	4.0
87.438	5.0
87.453	1.0
87.468	3.0
87.483	5.0
87.498	2.0
87.513	6.0
87.528	2.0
87.543	5.0
87.558	5.0
87.573	4.0
87.588	1.0
87.603	0.0
87.618	6.0
87.633	4.0
87.648	5.0
87.663	2.0
87.678	5.0
87.693	8.0
87.708	4.0
87.723	8.0
87.738	7.0
87.753	1.0
87.768	2.0
87.783	4.0
87.798	1.0
87.813	7.0
87.828	5.0
87.843	4.0
87.858	1.0
87.873	4.0
87.888	3.0
87.903	3.0
87.918	2.0
87.933	6.0
87.948	6.0
87.963	2.0
87.978	7.0
87.993	3.0
88.008	5.0
88.023	2.0
88.038	5.0
88.053	0.0
88.068	2.0
88.083	6.0
88.098	2.0
88.113	1.0
88.128	2.0
88.143	0.0
88.158	4.0
88.174	3.0
88.189	1.0
88.204	2.0
88.219	1.0
88.234	5.0
88.249	4.0
88.264	5.0
88.279	1.0
88.294	3.0
88.309	1.0
88.324	1.0
88.339	4.0
88.354	1.0
88.369	2.0
88.384	3.0
88.399	6.0
88.414	1.0
88.429	1.0
88.444	3.0
88.459	3.0
88.474	4.0
88.489	2.0
88.504	3.0
88.519	3.0
88.534	3.0
88.549	0.0
88.564	1.0
88.58	4.0
88.595	1.0
88.61	6.0
88.625	7.0
88.64	4.0
88.655	3.0
88.67	4.0
88.685	1.0
88.7	3.0
88.715	7.0
88.73	1.0
88.745	4.0
88.76	0.0
88.775	4.0
88.79	6.0
88.805	1.0
88.82	4.0
88.835	5.0
88.85	4.0
88.865	4.0
88.88	5.0
88.895	2.0
88.911	2.0
88.926	5.0
88.941	2.0
88.956	2.0
88.971	3.0
88.986	4.0
89.001	3.0
89.016	3.0
89.031	1.0
89.046	3.0
89.061	3.0
89.076	0.0
89.091	2.0
89.106	5.0
89.121	3.0
89.136	3.0
89.151	1.0
89.166	1.0
89.181	2.0
89.196	2.0
89.211	3.0
89.227	2.0
89.242	3.0
89.257	2.0
89.272	1.0
89.287	5.0
89.302	3.0
89.317	2.0
89.332	6.0
89.347	2.0
89.362	4.0
89.377	2.0
89.392	1.0
89.407	2.0
89.422	2.0
89.437	2.0
89.452	6.0
89.467	3.0
89.482	5.0
89.497	4.0
89.512	4.0
89.527	3.0
89.542	3.0
89.557	5.0
89.572	4.0
89.587	1.0
89.602	1.0
89.617	1.0
89.632	1.0
89.647	2.0
89.662	2.0
89.677	7.0
89.693	4.0
89.708	4.0
89.723	1.0
89.738	1.0
89.753	3.0
89.768	1.0
89.783	2.0
89.798	2.0
89.813	4.0
89.828	1.0
89.843	6.0
89.858	4.0
89.873	3.0
89.888	1.0
89.903	5.0
89.918	6.0
89.933	4.0
89.948	4.0
89.963	5.0
89.978	4.0
89.993	6.0
90.008	7.0
90.023	3.0
90.038	3.0
90.053	6.0
90.068	2.0
90.083	6.0
90.097	4.0
90.112	2.0
90.127	4.0
90.142	3.0
90.157	7.0
90.172	4.0
90.187	4.0
90.202	2.0
90.217	1.0
90.232	3.0
90.247	5.0
90.262	5.0
90.277	1.0
90.292	3.0
90.307	4.0
90.322	5.0
90.337	2.0
90.352	2.0
90.367	1.0
90.382	1.0
90.397	2.0
90.412	5.0
90.427	1.0
90.442	4.0
90.457	1.0
90.472	4.0
90.487	2.0
90.501	4.0
90.516	2.0
90.531	2.0
90.546	10.0
90.561	3.0
90.576	3.0
90.591	3.0
90.606	3.0
90.621	1.0
90.636	3.0
90.651	0.0
90.666	5.0
90.681	4.0
90.696	4.0
90.711	3.0
90.726	4.0
90.741	4.0
90.755	3.0
90.77	2.0
90.785	2.0
90.8	3.0
90.815	1.0
90.83	5.0
90.845	6.0
90.86	5.0
90.875	1.0
90.89	3.0
90.905	3.0
90.92	4.0
90.935	10.0
90.95	3.0
90.965	7.0
90.979	6.0
90.994	5.0
91.009	6.0
91.024	4.0
91.039	1.0
91.054	1.0
91.069	4.0
91.084	5.0
91.099	3.0
91.114	4.0
91.129	4.0
91.144	4.0
91.159	2.0
91.174	2.0
91.188	5.0
91.203	5.0
91.218	3.0
91.233	3.0
91.248	1.0
91.263	1.0
91.278	0.0
91.293	5.0
91.308	4.0
91.323	2.0
91.338	2.0
91.353	3.0
91.368	1.0
91.383	0.0
91.398	4.0
91.412	2.0
91.427	2.0
91.442	3.0
91.457	5.0
91.472	7.0
91.487	2.0
91.502	2.0
91.517	1.0
91.532	1.0
91.547	1.0
91.562	7.0
91.577	1.0
91.592	5.0
91.607	5.0
91.622	2.0
91.637	2.0
91.652	1.0
91.666	3.0
91.681	5.0
91.696	4.0
91.711	5.0
91.726	3.0
91.741	3.0
91.756	4.0
91.771	1.0
91.786	4.0
91.801	5.0
91.816	3.0
91.831	4.0
91.846	5.0
91.861	2.0
91.876	0.0
91.891	2.0
91.906	1.0
91.921	2.0
91.936	3.0
91.951	5.0
91.966	1.0
91.981	5.0
91.995	6.0
92.01	0.0
92.025	3.0
92.04	4.0
92.055	2.0
92.07	1.0
92.085	5.0
92.1	1.0
92.115	0.0
92.13	1.0
92.145	2.0
92.16	4.0
92.175	2.0
92.19	3.0
92.205	3.0
92.22	5.0
92.235	2.0
92.25	3.0
92.265	3.0
92.28	3.0
92.295	4.0
92.31	3.0
92.325	2.0
92.34	3.0
92.355	2.0
92.37	4.0
92.385	3.0
92.4	2.0
92.415	2.0
92.43	3.0
92.445	4.0
92.46	3.0
92.475	2.0
92.49	3.0
92.505	3.0
92.52	2.0
92.535	3.0
92.55	2.0
92.565	3.0
92.58	2.0
92.595	0.0
92.61	2.0
92.625	2.0
92.64	6.0
92.655	3.0
92.67	3.0
92.685	3.0
92.7	4.0
92.715	3.0
92.73	2.0
92.745	7.0
92.76	2.0
92.775	3.0
92.79	2.0
92.805	5.0
92.82	1.0
92.835	1.0
92.85	3.0
92.865	3.0
92.88	3.0
92.895	5.0
92.91	3.0
92.925	8.0
92.94	1.0
92.955	4.0
92.97	1.0
92.985	1.0
93.0	3.0
93.015	9.0
93.03	3.0
93.045	2.0
93.06	3.0
93.075	2.0
93.09	1.0
93.105	5.0
93.12	3.0
93.135	0.0
93.15	4.0
93.165	2.0
93.18	4.0
93.195	1.0
93.21	5.0
93.225	2.0
93.24	1.0
93.255	2.0
93.27	2.0
93.285	2.0
93.3	2.0
93.315	5.0
93.33	2.0
93.345	0.0
93.36	2.0
93.375	5.0
93.39	2.0
93.405	0.0
93.42	1.0
93.435	2.0
93.45	3.0
93.465	2.0
93.48	6.0
93.495	3.0
93.51	5.0
93.525	4.0
93.54	1.0
93.555	3.0
93.57	3.0
93.585	2.0
93.6	4.0
93.615	6.0
93.63	3.0
93.645	6.0
93.66	0.0
93.675	2.0
93.69	2.0
93.705	2.0
93.72	0.0
93.735	4.0
93.75	4.0
93.765	6.0
93.78	2.0
93.795	3.0
93.81	2.0
93.824	1.0
93.839	3.0
93.854	2.0
93.869	5.0
93.884	1.0
93.899	2.0
93.914	4.0
93.929	2.0
93.944	3.0
93.959	4.0
93.974	3.0
93.989	2.0
94.004	9.0
94.019	2.0
94.034	2.0
94.049	3.0
94.064	6.0
94.079	1.0
94.094	0.0
94.108	1.0
94.123	6.0
94.138	4.0
94.153	2.0
94.168	4.0
94.183	3.0
94.198	6.0
94.213	2.0
94.228	4.0
94.243	1.0
94.258	3.0
94.273	2.0
94.288	3.0
94.302	3.0
94.317	5.0
94.332	5.0
94.347	2.0
94.362	4.0
94.377	5.0
94.392	0.0
94.407	3.0
94.422	3.0
94.437	3.0
94.452	3.0
94.466	9.0
94.481	4.0
94.496	7.0
94.511	6.0
94.526	7.0
94.541	7.0
94.556	1.0
94.571	2.0
94.586	2.0
94.601	2.0
94.615	1.0
94.63	3.0
94.645	5.0
94.66	3.0
94.675	3.0
94.69	3.0
94.705	7.0
94.72	3.0
94.735	2.0
94.749	5.0
94.764	3.0
94.779	1.0
94.794	5.0
94.809	2.0
94.824	6.0
94.839	3.0
94.854	2.0
94.868	1.0
94.883	1.0
94.898	1.0
94.913	2.0
94.928	2.0
94.943	2.0
94.958	1.0
94.973	1.0
94.987	4.0
95.002	1.0
95.017	2.0
95.032	5.0
95.047	4.0
95.062	1.0
95.077	4.0
95.092	5.0
95.106	1.0
95.121	6.0
95.136	2.0
95.151	3.0
95.166	5.0
95.181	2.0
95.196	5.0
95.211	1.0
95.226	4.0
95.24	2.0
95.255	4.0
95.27	2.0
95.285	4.0
95.3	3.0
95.315	3.0
95.33	1.0
95.345	1.0
95.359	6.0
95.374	4.0
95.389	0.0
95.404	5.0
95.419	3.0
95.434	3.0
95.449	2.0
95.464	5.0
95.478	3.0
95.493	1.0
95.508	4.0
95.523	4.0
95.538	1.0
95.553	5.0
95.568	3.0
95.583	6.0
95.597	3.0
95.612	1.0
95.627	1.0
95.642	2.0
95.657	2.0
95.672	4.0
95.687	5.0
95.702	3.0
95.717	0.0
95.731	2.0
95.746	1.0
95.761	1.0
95.776	4.0
95.791	3.0
95.806	1.0
95.821	2.0
95.836	4.0
95.851	1.0
95.866	3.0
95.88	5.0
95.895	2.0
95.91	5.0
95.925	2.0
95.94	3.0
95.955	3.0
95.97	1.0
95.985	1.0
96.0	3.0
96.015	4.0
96.029	3.0
96.044	2.0
96.059	5.0
96.074	4.0
96.089	3.0
96.104	3.0
96.119	0.0
96.134	1.0
96.149	3.0
96.164	4.0
96.179	1.0
96.194	4.0
96.208	3.0
96.223	2.0
96.238	4.0
96.253	8.0
96.268	4.0
96.283	2.0
96.298	2.0
96.313	2.0
96.328	1.0
96.343	3.0
96.358	1.0
96.373	0.0
96.388	6.0
96.403	5.0
96.417	5.0
96.432	2.0
96.447	3.0
96.462	4.0
96.477	4.0
96.492	5.0
96.507	4.0
96.522	6.0
96.537	2.0
96.552	6.0
96.567	4.0
96.582	3.0
96.597	5.0
96.612	1.0
96.627	2.0
96.642	1.0
96.656	2.0
96.671	2.0
96.686	4.0
96.701	6.0
96.716	1.0
96.731	5.0
96.746	1.0
96.761	3.0
96.776	2.0
96.791	7.0
96.806	2.0
96.821	3.0
96.836	6.0
96.851	1.0
96.866	5.0
96.881	4.0
96.896	3.0
96.911	10.0
96.926	6.0
96.94	1.0
96.955	4.0
96.97	5.0
96.985	1.0
97.0	4.0
97.015	4.0
97.03	0.0
97.045	5.0
97.06	6.0
97.075	4.0
97.09	2.0
97.105	4.0
97.12	0.0
97.135	3.0
97.15	8.0
97.165	3.0
97.18	4.0
97.195	4.0
97.21	1.0
97.225	4.0
97.239	4.0
97.254	4.0
97.269	1.0
97.284	4.0
97.299	9.0
97.314	4.0
97.329	2.0
97.344	1.0
97.359	2.0
97.374	5.0
97.389	3.0
97.404	1.0
97.419	2.0
97.434	1.0
97.449	3.0
97.464	2.0
97.479	9.0
97.494	5.0
97.509	2.0
97.524	2.0
97.538	3.0
97.553	1.0
97.568	3.0
97.583	4.0
97.598	4.0
97.613	5.0
97.628	6.0
97.643	3.0
97.658	5.0
97.673	6.0
97.688	5.0
97.703	1.0
97.718	1.0
97.733	3.0
97.748	6.0
97.763	3.0
97.778	6.0
97.792	4.0
97.807	5.0
97.822	4.0
97.837	8.0
97.852	6.0
97.867	10.0
97.882	3.0
97.897	2.0
97.912	3.0
97.927	3.0
97.942	3.0
97.957	1.0
97.972	5.0
97.987	2.0
98.001	3.0
98.016	1.0
98.031	1.0
98.046	2.0
98.061	4.0
98.076	3.0
98.091	6.0
98.106	3.0
98.121	2.0
98.136	4.0
98.151	1.0
98.166	1.0
98.181	3.0
98.195	3.0
98.21	5.0
98.225	3.0
98.24	4.0
98.255	2.0
98.27	2.0
98.285	3.0
98.3	4.0
98.315	1.0
98.33	0.0
98.345	1.0
98.359	1.0
98.374	2.0
98.389	6.0
98.404	2.0
98.419	2.0
98.434	3.0
98.449	8.0
98.464	2.0
98.479	3.0
98.494	3.0
98.508	5.0
98.523	4.0
98.538	4.0
98.553	3.0
98.568	7.0
98.583	3.0
98.598	1.0
98.613	3.0
98.628	5.0
98.642	5.0
98.657	5.0
98.672	1.0
98.687	0.0
98.702	0.0
98.717	1.0
98.732	2.0
98.747	2.0
98.762	1.0
98.776	3.0
98.791	2.0
98.806	1.0
98.821	1.0
98.836	3.0
98.851	4.0
98.866	5.0
98.881	2.0
98.896	4.0
98.91	2.0
98.925	3.0
98.94	3.0
98.955	3.0
98.97	5.0
98.985	3.0
99.0	6.0
99.015	4.0
99.029	1.0
99.044	3.0
99.059	2.0
99.074	4.0
99.089	2.0
99.104	3.0
99.119	3.0
99.133	3.0
99.148	4.0
99.163	2.0
99.178	1.0
99.193	3.0
99.208	5.0
99.223	6.0
99.238	2.0
99.252	4.0
99.267	2.0
99.282	3.0
99.297	3.0
99.312	4.0
99.327	2.0
99.342	3.0
99.356	2.0
99.371	4.0
99.386	2.0
99.401	2.0
99.416	3.0
99.431	2.0
99.446	2.0
99.461	5.0
99.475	5.0
99.49	3.0
99.505	2.0
99.52	4.0
99.535	0.0
99.55	2.0
99.565	3.0
99.579	4.0
99.594	5.0
99.609	2.0
99.624	5.0
99.639	4.0
99.654	3.0
99.669	3.0
99.683	1.0
99.698	2.0
99.713	4.0
99.728	4.0
99.743	3.0
99.758	2.0
99.772	0.0
99.787	5.0
99.802	2.0
99.817	3.0
99.832	5.0
99.847	3.0
99.862	3.0
99.876	4.0
99.891	3.0
99.906	3.0
99.921	7.0
99.936	4.0
99.951	2.0
99.966	1.0
99.98	3.0
99.995	2.0
100.01	1.0
100.025	3.0
100.04	1.0
100.055	1.0
100.069	2.0
100.084	3.0
100.099	5.0
100.114	1.0
100.129	2.0
100.144	2.0
100.159	7.0
100.173	2.0
100.188	5.0
100.203	3.0
100.218	2.0
100.233	2.0
100.248	1.0
100.262	4.0
100.277	4.0
100.292	7.0
100.307	3.0
100.322	3.0
100.337	5.0
100.351	2.0
100.366	0.0
100.381	7.0
100.396	1.0
100.411	1.0
100.426	4.0
100.441	2.0
100.455	2.0
100.47	0.0
100.485	2.0
100.5	2.0
100.515	2.0
100.53	2.0
100.544	8.0
100.559	2.0
100.574	4.0
100.589	3.0
100.604	0.0
100.619	2.0
100.633	2.0
100.648	2.0
100.663	3.0
100.678	2.0
100.693	3.0
100.708	2.0
100.722	2.0
100.737	1.0
100.752	3.0
100.767	3.0
100.782	2.0
100.796	7.0
100.811	2.0
100.826	2.0
100.841	4.0
100.856	4.0
100.871	0.0
100.885	1.0
100.9	3.0
100.915	3.0
100.93	4.0
100.945	3.0
100.96	5.0
100.974	5.0
100.989	5.0
101.004	5.0
101.019	1.0
101.034	4.0
101.048	1.0
101.063	4.0
101.078	1.0
101.093	0.0
101.108	2.0
101.123	4.0
101.137	0.0
101.152	3.0
101.167	6.0
101.182	8.0
101.197	5.0
101.211	7.0
101.226	2.0
101.241	4.0
101.256	5.0
101.271	3.0
101.285	5.0
101.3	3.0
101.315	4.0
101.33	6.0
101.345	2.0
101.359	5.0
101.374	3.0
101.389	5.0
101.404	1.0
101.419	4.0
101.433	0.0
101.448	5.0
101.463	3.0
101.478	3.0
101.493	4.0
101.507	2.0
101.522	1.0
101.537	4.0
101.552	2.0
101.567	3.0
101.581	4.0
101.596	1.0
101.611	2.0
101.626	4.0
101.64	3.0
101.655	4.0
101.67	9.0
101.685	5.0
101.7	2.0
101.714	3.0
101.729	2.0
101.744	1.0
101.759	3.0
101.773	4.0
101.788	6.0
101.803	5.0
101.818	2.0
101.833	0.0
101.847	2.0
101.862	2.0
101.877	1.0
101.892	4.0
101.906	3.0
101.921	3.0
101.936	3.0
101.951	6.0
101.965	6.0
101.98	6.0
101.995	2.0
102.01	4.0
102.025	8.0
102.039	0.0
102.054	3.0
102.069	3.0
102.084	0.0
102.098	6.0
102.113	3.0
102.128	2.0
102.143	2.0
102.157	4.0
102.172	2.0
102.187	1.0
102.202	5.0
102.216	3.0
102.231	0.0
102.246	3.0
102.261	0.0
102.275	4.0
102.29	2.0
102.305	2.0
102.32	2.0
102.334	1.0
102.349	4.0
102.364	1.0
102.378	6.0
102.393	2.0
102.408	2.0
102.423	1.0
102.437	2.0
102.452	2.0
102.467	2.0
102.482	2.0
102.496	4.0
102.511	2.0
102.526	3.0
102.541	3.0
102.555	3.0
102.57	5.0
102.585	2.0
102.6	2.0
102.614	3.0
102.629	1.0
102.644	2.0
102.659	2.0
102.673	1.0
102.688	3.0
102.703	3.0
102.717	1.0
102.732	3.0
102.747	1.0
102.762	7.0
102.776	4.0
102.791	5.0
102.806	1.0
102.821	4.0
102.835	4.0
102.85	2.0
102.865	1.0
102.88	2.0
102.894	5.0
102.909	3.0
102.924	1.0
102.938	3.0
102.953	4.0
102.968	1.0
102.983	1.0
102.997	1.0
103.012	2.0
103.027	4.0
103.042	4.0
103.056	7.0
103.071	6.0
103.086	3.0
103.101	3.0
103.115	7.0
103.13	1.0
103.145	1.0
103.16	2.0
103.174	2.0
103.189	2.0
103.204	3.0
103.219	4.0
103.233	3.0
103.248	4.0
103.263	2.0
103.278	0.0
103.292	4.0
103.307	3.0
103.322	4.0
103.337	0.0
103.351	2.0
103.366	5.0
103.381	5.0
103.396	0.0
103.41	5.0
103.425	2.0
103.44	2.0
103.455	3.0
103.469	4.0
103.484	2.0
103.499	3.0
103.514	3.0
103.529	5.0
103.543	5.0
103.558	3.0
103.573	3.0
103.588	3.0
103.602	1.0
103.617	4.0
103.632	6.0
103.647	4.0
103.661	9.0
103.676	4.0
103.691	3.0
103.706	0.0
103.721	4.0
103.735	5.0
103.75	3.0
103.765	3.0
103.78	2.0
103.795	4.0
103.809	3.0
103.824	2.0
103.839	3.0
103.854	4.0
103.869	5.0
103.883	0.0
103.898	1.0
103.913	3.0
103.928	6.0
103.943	5.0
103.957	4.0
103.972	5.0
103.987	1.0
104.002	4.0
104.017	3.0
104.031	2.0
104.046	4.0
104.061	1.0
104.076	2.0
104.091	7.0
104.106	2.0
104.12	6.0
104.135	6.0
104.15	2.0
104.165	1.0
104.18	2.0
104.195	3.0
104.209	5.0
104.224	3.0
104.239	3.0
104.254	2.0
104.269	0.0
104.284	5.0
104.299	1.0
104.313	3.0
104.328	3.0
104.343	3.0
104.358	1.0
104.373	6.0
104.388	3.0
104.403	4.0
104.417	3.0
104.432	5.0
104.447	2.0
104.462	6.0
104.477	1.0
104.492	4.0
104.507	5.0
104.522	2.0
104.536	2.0
104.551	3.0
104.566	3.0
104.581	1.0
104.596	5.0
104.611	6.0
104.626	7.0
104.641	5.0
104.656	3.0
104.67	4.0
104.685	3.0
104.7	3.0
104.715	3.0
104.73	3.0
104.745	3.0
104.76	5.0
104.775	4.0
104.79	3.0
104.804	2.0
104.819	2.0
104.834	2.0
104.849	4.0
104.864	3.0
104.879	1.0
104.894	0.0
104.909	1.0
104.924	2.0
104.939	1.0
104.954	2.0
104.968	7.0
104.983	6.0
104.998	1.0
105.013	3.0
105.028	3.0
105.043	1.0
105.058	3.0
105.073	3.0
105.088	4.0
105.103	3.0
105.118	1.0
105.133	3.0
105.147	4.0
105.162	4.0
105.177	2.0
105.192	6.0
105.207	1.0
105.222	4.0
105.237	3.0
105.252	4.0
105.267	3.0
105.282	3.0
105.297	6.0
105.312	5.0
105.327	3.0
105.342	1.0
105.356	0.0
105.371	7.0
105.386	4.0
105.401	5.0
105.416	4.0
105.431	2.0
105.446	5.0
105.461	5.0
105.476	5.0
105.491	7.0
105.506	6.0
105.521	4.0
105.536	1.0
105.551	4.0
105.566	3.0
105.581	2.0
105.595	2.0
105.61	2.0
105.625	1.0
105.64	2.0
105.655	6.0
105.67	3.0
105.685	2.0
105.7	2.0
105.715	4.0
105.73	3.0
105.745	3.0
105.76	4.0
105.775	1.0
105.79	1.0
105.805	3.0
105.82	3.0
105.835	0.0
105.85	2.0
105.864	3.0
105.879	3.0
105.894	2.0
105.909	3.0
105.924	3.0
105.939	2.0
105.954	3.0
105.969	1.0
105.984	1.0
105.999	4.0
106.014	3.0
106.029	2.0
106.044	3.0
106.059	1.0
106.074	3.0
106.089	4.0
106.104	4.0
106.119	2.0
106.134	5.0
106.148	5.0
106.163	4.0
106.178	4.0
106.193	3.0
106.208	3.0
106.223	1.0
106.238	2.0
106.253	3.0
106.268	1.0
106.283	1.0
106.298	3.0
106.313	3.0
106.328	3.0
106.343	3.0
106.358	2.0
106.373	1.0
106.388	5.0
106.403	5.0
106.418	4.0
106.432	6.0
106.447	2.0
106.462	2.0
106.477	4.0
106.492	5.0
106.507	2.0
106.522	2.0
106.537	3.0
106.552	2.0
106.567	2.0
106.582	5.0
106.597	2.0
106.612	2.0
106.627	6.0
106.642	2.0
106.657	10.0
106.672	2.0
106.687	1.0
106.701	4.0
106.716	2.0
106.731	2.0
106.746	1.0
106.761	2.0
106.776	1.0
106.791	3.0
106.806	4.0
106.821	3.0
106.836	4.0
106.851	3.0
106.866	2.0
106.881	1.0
106.896	7.0
106.911	3.0
106.926	4.0
106.941	2.0
106.955	6.0
106.97	4.0
106.985	2.0
107.0	4.0
107.015	2.0
107.03	5.0
107.045	4.0
107.06	2.0
107.075	4.0
107.09	4.0
107.105	2.0
107.12	4.0
107.135	5.0
107.15	6.0
107.165	4.0
107.18	2.0
107.194	4.0
107.209	3.0
107.224	6.0
107.239	4.0
107.254	4.0
107.269	1.0
107.284	0.0
107.299	3.0
107.314	3.0
107.329	4.0
107.344	9.0
107.359	4.0
107.374	3.0
107.389	4.0
107.404	1.0
107.418	0.0
107.433	3.0
107.448	5.0
107.463	3.0
107.478	2.0
107.493	0.0
107.508	3.0
107.523	3.0
107.538	4.0
107.553	5.0
107.568	3.0
107.583	3.0
107.598	3.0
107.613	0.0
107.627	4.0
107.642	5.0
107.657	1.0
107.672	7.0
107.687	0.0
107.702	4.0
107.717	6.0
107.732	3.0
107.747	4.0
107.762	4.0
107.777	1.0
107.792	4.0
107.807	4.0
107.821	3.0
107.836	4.0
107.851	6.0
107.866	4.0
107.881	0.0
107.896	2.0
107.911	4.0
107.926	7.0
107.941	4.0
107.956	2.0
107.971	7.0
107.986	7.0
108.0	4.0
108.015	4.0
108.03	8.0
108.045	7.0
108.06	3.0
108.075	5.0
108.09	4.0
108.105	3.0
108.12	3.0
108.135	2.0
108.15	9.0
108.164	4.0
108.179	5.0
108.194	7.0
108.209	0.0
108.224	2.0
108.239	2.0
108.254	6.0
108.269	2.0
108.284	1.0
108.299	3.0
108.313	2.0
108.328	3.0
108.343	3.0
108.358	2.0
108.373	3.0
108.388	1.0
108.403	3.0
108.418	2.0
108.433	6.0
108.448	1.0
108.462	1.0
108.477	2.0
108.492	1.0
108.507	4.0
108.522	4.0
108.537	5.0
108.552	2.0
108.567	7.0
108.582	4.0
108.597	3.0
108.611	2.0
108.626	2.0
108.641	1.0
108.656	8.0
108.671	6.0
108.686	5.0
108.701	3.0
108.716	1.0
108.731	3.0
108.745	6.0
108.76	1.0
108.775	2.0
108.79	4.0
108.805	5.0
108.82	4.0
108.835	4.0
108.85	1.0
108.865	2.0
108.879	3.0
108.894	3.0
108.909	4.0
108.924	4.0
108.939	3.0
108.954	4.0
108.969	3.0
108.984	5.0
108.999	4.0
109.013	3.0
109.028	6.0
109.043	6.0
109.058	3.0
109.073	4.0
109.088	5.0
109.103	5.0
109.118	5.0
109.133	5.0
109.147	2.0
109.162	3.0
109.177	5.0
109.192	2.0
109.207	5.0
109.222	1.0
109.237	4.0
109.252	1.0
109.267	1.0
109.281	2.0
109.296	2.0
109.311	1.0
109.326	0.0
109.341	2.0
109.356	2.0
109.371	3.0
109.386	4.0
109.4	3.0
109.415	2.0
109.43	1.0
109.445	0.0
109.46	3.0
109.475	2.0
109.49	2.0
109.505	1.0
109.52	4.0
109.534	2.0
109.549	1.0
109.564	3.0
109.579	3.0
109.594	2.0
109.609	3.0
109.624	3.0
109.639	3.0
109.653	3.0
109.668	5.0
109.683	5.0
109.698	3.0
109.713	7.0
109.728	3.0
109.743	4.0
109.758	4.0
109.773	1.0
109.787	2.0
109.802	4.0
109.817	2.0
109.832	5.0
109.847	2.0
109.862	2.0
109.877	3.0
109.892	4.0
109.907	3.0
109.921	2.0
109.936	4.0
109.951	1.0
109.966	4.0
109.981	0.0
109.996	3.0
110.011	0.0
110.026	0.0
110.04	2.0
110.055	4.0
110.07	2.0
110.085	3.0
110.1	0.0
110.115	1.0
110.13	2.0
110.145	1.0
110.16	4.0
110.174	3.0
110.189	3.0
110.204	3.0
110.219	3.0
110.234	1.0
110.249	3.0
110.264	2.0
110.279	1.0
110.294	0.0
110.308	2.0
110.323	1.0
110.338	4.0
110.353	3.0
110.368	2.0
110.383	5.0
110.398	4.0
110.413	4.0
110.428	1.0
110.442	5.0
110.457	2.0
110.472	2.0
110.487	2.0
110.502	0.0
110.517	2.0
110.532	2.0
110.547	3.0
110.561	2.0
110.576	2.0
110.591	4.0
110.606	2.0
110.621	7.0
110.636	1.0
110.651	5.0
110.666	2.0
110.681	5.0
110.695	2.0
110.71	5.0
110.725	6.0
110.74	1.0
110.755	3.0
110.77	2.0
110.785	1.0
110.8	5.0
110.815	4.0
110.829	2.0
110.844	1.0
110.859	2.0
110.874	6.0
110.889	0.0
110.904	4.0
110.919	4.0
110.934	2.0
110.948	2.0
110.963	5.0
110.978	2.0
110.993	1.0
111.008	2.0
111.023	1.0
111.038	3.0
111.053	3.0
111.067	4.0
111.082	1.0
111.097	6.0
111.112	2.0
111.127	1.0
111.142	2.0
111.157	3.0
111.172	2.0
111.186	4.0
111.201	3.0
111.216	3.0
111.231	5.0
111.246	2.0
111.261	3.0
111.276	4.0
111.291	3.0
111.305	2.0
111.32	4.0
111.335	6.0
111.35	2.0
111.365	3.0
111.38	3.0
111.395	3.0
111.41	7.0
111.424	4.0
111.439	5.0
111.454	3.0
111.469	4.0
111.484	6.0
111.499	3.0
111.514	3.0
111.528	1.0
111.543	3.0
111.558	5.0
111.573	4.0
111.588	3.0
111.603	5.0
111.618	4.0
111.633	4.0
111.647	5.0
111.662	2.0
111.677	0.0
111.692	5.0
111.707	4.0
111.722	3.0
111.737	4.0
111.751	1.0
111.766	6.0
111.781	5.0
111.796	3.0
111.811	4.0
111.826	2.0
111.84	1.0
111.855	2.0
111.87	3.0
111.885	6.0
111.9	2.0
111.915	5.0
111.93	4.0
111.944	4.0
111.959	4.0
111.974	4.0
111.989	6.0
112.004	1.0
112.019	4.0
112.033	4.0
112.048	4.0
112.063	2.0
112.078	5.0
112.093	3.0
112.108	1.0
112.123	1.0
112.137	4.0
112.152	4.0
112.167	4.0
112.182	3.0
112.197	5.0
112.212	3.0
112.226	2.0
112.241	3.0
112.256	1.0
112.271	1.0
112.286	6.0
112.301	0.0
112.315	4.0
112.33	3.0
112.345	2.0
112.36	1.0
112.375	5.0
112.389	3.0
112.404	3.0
112.419	5.0
112.434	7.0
112.449	0.0
112.464	2.0
112.478	1.0
112.493	3.0
112.508	6.0
112.523	2.0
112.538	2.0
112.553	4.0
112.567	8.0
112.582	6.0
112.597	3.0
112.612	4.0
112.627	4.0
112.642	4.0
112.656	0.0
112.671	3.0
112.686	1.0
112.701	6.0
112.716	1.0
112.73	5.0
112.745	2.0
112.76	3.0
112.775	4.0
112.79	5.0
112.805	4.0
112.819	5.0
112.834	4.0
112.849	4.0
112.864	2.0
112.879	5.0
112.894	3.0
112.908	2.0
112.923	1.0
112.938	3.0
112.953	4.0
112.968	2.0
112.983	1.0
112.997	2.0
113.012	4.0
113.027	1.0
113.042	5.0
113.057	2.0
113.072	1.0
113.086	2.0
113.101	3.0
113.116	3.0
113.131	3.0
113.146	7.0
113.161	2.0
113.175	7.0
113.19	2.0
113.205	2.0
113.22	5.0
113.235	6.0
113.25	6.0
113.265	1.0
113.279	4.0
113.294	1.0
113.309	1.0
113.324	1.0
113.339	0.0
113.354	1.0
113.368	1.0
113.383	2.0
113.398	2.0
113.413	3.0
113.428	1.0
113.443	5.0
113.458	0.0
113.472	1.0
113.487	5.0
113.502	5.0
113.517	2.0
113.532	1.0
113.547	2.0
113.562	3.0
113.576	4.0
113.591	4.0
113.606	6.0
113.621	4.0
113.636	10.0
113.651	2.0
113.666	1.0
113.681	1.0
113.695	4.0
113.71	4.0
113.725	1.0
113.74	1.0
113.755	7.0
113.77	4.0
113.785	4.0
113.8	3.0
113.814	4.0
113.829	2.0
113.844	5.0
113.859	3.0
113.874	4.0
113.889	3.0
113.904	9.0
113.919	4.0
113.934	2.0
113.949	2.0
113.963	2.0
113.978	6.0
113.993	3.0
114.008	3.0
114.023	0.0
114.038	0.0
114.053	3.0
114.068	3.0
114.083	2.0
114.098	1.0
114.113	5.0
114.127	1.0
114.142	1.0
114.157	3.0
114.172	5.0
114.187	6.0
114.202	2.0
114.217	1.0
114.232	3.0
114.247	4.0
114.262	3.0
114.277	1.0
114.292	2.0
114.307	3.0
114.322	1.0
114.337	3.0
114.351	2.0
114.366	5.0
114.381	4.0
114.396	3.0
114.411	2.0
114.426	1.0
114.441	7.0
114.456	4.0
114.471	3.0
114.486	4.0
114.501	4.0
114.516	9.0
114.531	3.0
114.546	6.0
114.561	2.0
114.576	5.0
114.591	2.0
114.606	4.0
114.621	3.0
114.636	6.0
114.65	11.0
114.665	3.0
114.68	2.0
114.695	2.0
114.71	2.0
114.725	5.0
114.74	6.0
114.755	5.0
114.77	0.0
114.785	8.0
114.8	8.0
114.815	3.0
114.83	1.0
114.845	2.0
114.86	3.0
114.875	4.0
114.89	1.0
114.905	5.0
114.92	2.0
114.935	7.0
114.95	6.0
114.965	3.0
114.98	5.0
114.995	3.0
115.009	4.0
115.024	5.0
115.039	5.0
115.054	2.0
115.069	2.0
115.084	0.0
115.099	3.0
115.114	1.0
115.129	3.0
115.144	3.0
115.159	4.0
115.174	3.0
115.189	7.0
115.204	3.0
115.219	1.0
115.234	4.0
115.249	6.0
115.264	2.0
115.279	5.0
115.294	2.0
115.309	3.0
115.323	4.0
115.338	5.0
115.353	3.0
115.368	4.0
115.383	4.0
115.398	3.0
115.413	5.0
115.428	5.0
115.443	3.0
115.458	1.0
115.473	3.0
115.488	3.0
115.503	4.0
115.518	4.0
115.533	7.0
115.548	1.0
115.562	2.0
115.577	5.0
115.592	5.0
115.607	4.0
115.622	5.0
115.637	4.0
115.652	1.0
115.667	2.0
115.682	4.0
115.697	3.0
115.712	2.0
115.727	3.0
115.741	2.0
115.756	4.0
115.771	2.0
115.786	3.0
115.801	1.0
115.816	5.0
115.831	2.0
115.846	2.0
115.861	1.0
115.875	3.0
115.89	4.0
115.905	2.0
115.92	2.0
115.935	4.0
115.95	5.0
115.965	1.0
115.98	2.0
115.995	2.0
116.009	2.0
116.024	3.0
116.039	8.0
116.054	3.0
116.069	3.0
116.084	3.0
116.099	3.0
116.113	4.0
116.128	3.0
116.143	5.0
116.158	5.0
116.173	5.0
116.188	5.0
116.202	4.0
116.217	6.0
116.232	4.0
116.247	7.0
116.262	1.0
116.277	6.0
116.291	7.0
116.306	4.0
116.321	2.0
116.336	6.0
116.351	3.0
116.366	3.0
116.38	6.0
116.395	5.0
116.41	3.0
116.425	5.0
116.44	2.0
116.454	4.0
116.469	2.0
116.484	1.0
116.499	5.0
116.514	1.0
116.528	3.0
116.543	2.0
116.558	3.0
116.573	1.0
116.588	2.0
116.602	1.0
116.617	6.0
116.632	1.0
116.647	6.0
116.662	3.0
116.676	2.0
116.691	3.0
116.706	3.0
116.721	4.0
116.735	1.0
116.75	2.0
116.765	2.0
116.78	2.0
116.795	1.0
116.809	5.0
116.824	1.0
116.839	2.0
116.854	0.0
116.868	4.0
116.883	2.0
116.898	3.0
116.913	3.0
116.927	2.0
116.942	2.0
116.957	0.0
116.972	2.0
116.986	4.0
117.001	6.0
117.016	3.0
117.031	5.0
117.045	6.0
117.06	4.0
117.075	3.0
117.09	2.0
117.104	8.0
117.119	4.0
117.134	0.0
117.149	3.0
117.163	2.0
117.178	5.0
117.193	5.0
117.208	3.0
117.222	6.0
117.237	2.0
117.252	0.0
117.267	1.0
117.281	3.0
117.296	3.0
117.311	6.0
117.325	4.0
117.34	6.0
117.355	5.0
117.37	3.0
117.384	2.0
117.399	5.0
117.414	3.0
117.429	7.0
117.443	2.0
117.458	2.0
117.473	5.0
117.487	1.0
117.502	6.0
117.517	3.0
117.532	4.0
117.546	5.0
117.561	2.0
117.576	5.0
117.59	3.0
117.605	3.0
117.62	2.0
117.635	6.0
117.649	6.0
117.664	3.0
117.679	4.0
117.693	4.0
117.708	2.0
117.723	3.0
117.738	3.0
117.752	2.0
117.767	4.0
117.782	3.0
117.796	3.0
117.811	1.0
117.826	2.0
117.841	3.0
117.855	6.0
117.87	4.0
117.885	8.0
117.899	1.0
117.914	2.0
117.929	2.0
117.944	4.0
117.958	3.0
117.973	4.0
117.988	2.0
118.002	1.0
118.017	6.0
118.032	6.0
118.047	3.0
118.062	7.0
118.077	4.0
118.092	1.0
118.107	2.0
118.121	4.0
118.136	3.0
118.151	7.0
118.166	4.0
118.181	3.0
118.196	5.0
118.211	2.0
118.225	2.0
118.24	3.0
118.255	6.0
118.27	4.0
118.285	1.0
118.3	2.0
118.315	5.0
118.33	5.0
118.344	3.0
118.359	4.0
118.374	3.0
118.389	4.0
118.404	4.0
118.419	0.0
118.434	5.0
118.449	0.0
118.463	5.0
118.478	2.0
118.493	3.0
118.508	2.0
118.523	6.0
118.538	3.0
118.553	7.0
118.567	3.0
118.582	3.0
118.597	1.0
118.612	8.0
118.627	1.0
118.642	3.0
118.657	6.0
118.672	4.0
118.686	1.0
118.701	3.0
118.716	3.0
118.731	6.0
118.746	2.0
118.761	1.0
118.776	4.0
118.791	5.0
118.805	8.0
118.82	5.0
118.835	3.0
118.85	3.0
118.865	1.0
118.88	7.0
118.895	3.0
118.909	1.0
118.924	4.0
118.939	4.0
118.954	8.0
118.969	5.0
118.984	5.0
118.999	2.0
119.014	1.0
119.028	7.0
119.043	3.0
119.058	6.0
119.073	2.0
119.088	2.0
119.103	3.0
119.118	1.0
119.133	2.0
119.147	4.0
119.162	4.0
119.177	1.0
119.192	2.0
119.207	4.0
119.222	2.0
119.237	5.0
119.251	7.0
119.266	3.0
119.281	1.0
119.296	4.0
119.311	2.0
119.326	4.0
119.341	6.0
119.356	3.0
119.37	4.0
119.385	2.0
119.4	6.0
119.415	3.0
119.43	3.0
119.445	2.0
119.46	4.0
119.475	2.0
119.489	1.0
119.504	4.0
119.519	3.0
119.534	1.0
119.549	0.0
119.564	2.0
119.579	5.0
119.593	3.0
119.608	4.0
119.623	3.0
119.638	1.0
119.653	1.0
119.668	3.0
119.683	1.0
119.698	6.0
119.712	6.0
119.727	1.0
119.742	2.0
119.757	2.0
119.772	5.0
119.787	4.0
119.802	1.0
119.817	1.0
119.831	5.0
119.846	3.0
119.861	1.0
119.876	1.0
119.891	4.0
119.906	6.0
119.921	6.0
119.935	3.0
119.95	3.0
119.965	6.0
119.98	5.0
119.995	2.0
120.01	1.0
120.025	2.0
120.04	1.0
120.054	1.0
120.069	2.0
120.084	5.0
120.099	2.0
120.114	2.0
120.129	0.0
120.144	0.0
120.159	2.0
120.173	3.0
120.188	1.0
120.203	0.0
120.218	1.0
120.233	1.0
120.248	0.0
120.263	0.0
120.277	1.0
120.292	3.0
120.307	2.0
120.322	0.0
120.337	1.0
120.352	0.0
120.367	1.0
120.382	1.0
120.396	0.0
120.411	0.0
120.426	1.0
120.441	0.0
120.456	0.0
120.471	0.0
120.486	0.0
120.501	0.0
120.515	0.0
120.53	0.0
120.545	0.0
120.56	0.0
120.575	0.0
120.59	1.0
120.605	0.0
120.619	0.0
120.634	0.0
120.649	0.0
120.664	0.0
120.679	0.0
120.694	0.0
120.709	0.0
120.724	0.0
120.738	0.0
120.753	0.0
120.768	0.0
120.783	0.0
120.798	0.0
120.813	0.0
120.828	0.0
120.843	0.0
120.857	0.0
120.872	0.0
120.887	0.0
120.902	0.0
120.917	0.0
120.932	0.0
120.947	0.0
120.961	0.0
120.976	0.0
