-1.217	0.0
-1.202	0.0
-1.187	0.0
-1.172	0.0
-1.157	0.0
-1.142	1.0
-1.128	0.0
-1.113	0.0
-1.098	0.0
-1.083	0.0
-1.068	0.0
-1.054	0.0
-1.039	0.0
-1.024	0.0
-1.009	0.0
-0.994	0.0
-0.979	0.0
-0.965	1.0
-0.95	0.0
-0.935	0.0
-0.92	1.0
-0.905	0.0
-0.891	0.0
-0.876	0.0
-0.861	0.0
-0.846	0.0
-0.831	0.0
-0.816	0.0
-0.802	0.0
-0.787	0.0
-0.772	0.0
-0.757	0.0
-0.742	0.0
-0.728	0.0
-0.713	0.0
-0.698	0.0
-0.683	0.0
-0.668	0.0
-0.653	0.0
-0.639	0.0
-0.624	0.0
-0.609	0.0
-0.594	0.0
-0.579	0.0
-0.565	0.0
-0.55	0.0
-0.535	0.0
-0.52	0.0
-0.505	0.0
-0.49	0.0
-0.476	0.0
-0.461	1.0
-0.446	0.0
-0.431	0.0
-0.416	0.0
-0.401	0.0
-0.387	0.0
-0.372	0.0
-0.357	0.0
-0.342	0.0
-0.327	0.0
-0.313	0.0
-0.298	0.0
-0.283	0.0
-0.268	0.0
-0.253	0.0
-0.238	0.0
-0.224	0.0
-0.209	0.0
-0.194	0.0
-0.179	0.0
-0.164	0.0
-0.15	0.0
-0.135	0.0
-0.12	0.0
-0.105	0.0
-0.09	0.0
-0.075	0.0
-0.061	0.0
-0.046	0.0
-0.031	0.0
-0.016	0.0
-0.001	0.0
0.013	0.0
0.028	0.0
0.043	0.0
0.058	0.0
0.073	0.0
0.088	0.0
0.102	0.0
0.117	0.0
0.132	0.0
0.147	0.0
0.162	0.0
0.176	0.0
0.191	0.0
0.206	0.0
0.221	0.0
0.236	0.0
0.251	0.0
0.265	0.0
0.28	0.0
0.295	0.0
0.31	0.0
0.325	0.0
0.339	0.0
0.354	0.0
0.369	0.0
0.384	0.0
0.399	0.0
0.414	0.0
0.428	0.0
0.443	0.0
0.458	0.0
0.473	0.0
0.488	0.0
0.502	0.0
0.517	0.0
0.532	0.0
0.547	0.0
0.562	0.0
0.577	0.0
0.591	0.0
0.606	0.0
0.621	0.0
0.636	0.0
0.651	0.0
0.665	0.0
0.68	0.0
0.695	0.0
0.71	0.0
0.725	0.0
0.74	0.0
0.754	0.0
0.769	0.0
0.784	0.0
0.799	0.0
0.814	0.0
0.828	0.0
0.843	0.0
0.858	0.0
0.873	0.0
0.888	0.0
0.903	0.0
0.917	0.0
0.932	0.0
0.947	0.0
0.962	0.0
0.977	0.0
0.991	0.0
1.006	0.0
1.021	0.0
1.036	0.0
1.051	0.0
1.065	0.0
1.08	0.0
1.095	0.0
1.11	1.0
1.125	0.0
1.14	0.0
1.154	0.0
1.169	0.0
1.184	0.0
1.199	0.0
1.214	0.0
1.228	0.0
1.243	0.0
1.258	0.0
1.273	0.0
1.288	0.0
1.302	0.0
1.317	0.0
1.332	0.0
1.347	0.0
1.362	0.0
1.376	0.0
1.391	0.0
1.406	0.0
1.421	0.0
1.436	0.0
1.45	1.0
1.465	0.0
1.48	0.0
1.495	1.0
1.51	0.0
1.524	0.0
1.539	0.0
1.554	0.0
1.569	0.0
1.584	0.0
1.598	0.0
1.613	1.0
1.628	0.0
1.643	0.0
1.658	1.0
1.672	0.0
1.687	0.0
1.702	0.0
1.717	0.0
1.732	0.0
1.746	0.0
1.761	0.0
1.776	0.0
1.791	0.0
1.806	0.0
1.82	0.0
1.835	0.0
1.85	0.0
1.865	0.0
1.88	1.0
1.894	0.0
1.909	0.0
1.924	0.0
1.939	0.0
1.954	0.0
1.968	1.0
1.983	0.0
1.998	0.0
2.013	0.0
2.028	0.0
2.042	1.0
2.057	0.0
2.072	0.0
2.087	0.0
2.101	0.0
2.116	1.0
2.131	0.0
2.146	0.0
2.161	0.0
2.175	0.0
2.19	1.0
2.205	0.0
2.22	0.0
2.235	0.0
2.249	0.0
2.264	0.0
2.279	0.0
2.294	0.0
2.308	0.0
2.323	0.0
2.338	0.0
2.353	0.0
2.368	0.0
2.382	0.0
2.397	0.0
2.412	3.0
2.427	1.0
2.442	1.0
2.456	2.0
2.471	3.0
2.486	0.0
2.501	1.0
2.515	2.0
2.53	1.0
2.545	1.0
2.56	0.0
2.575	3.0
2.589	2.0
2.604	3.0
2.619	0.0
2.634	4.0
2.649	4.0
2.663	2.0
2.678	0.0
2.693	1.0
2.708	3.0
2.722	3.0
2.737	2.0
2.752	2.0
2.767	3.0
2.782	2.0
2.796	2.0
2.811	4.0
2.826	1.0
2.841	2.0
2.856	5.0
2.87	1.0
2.885	3.0
2.9	4.0
2.915	4.0
2.93	4.0
2.944	5.0
2.959	0.0
2.974	2.0
2.989	2.0
3.004	3.0
3.018	4.0
3.033	2.0
3.048	5.0
3.063	3.0
3.078	4.0
3.092	1.0
3.107	4.0
3.122	2.0
3.137	5.0
3.152	4.0
3.166	1.0
3.181	5.0
3.196	3.0
3.211	3.0
3.226	4.0
3.24	6.0
3.255	6.0
3.27	7.0
3.285	6.0
3.3	6.0
3.315	6.0
3.329	8.0
3.344	5.0
3.359	5.0
3.374	6.0
3.389	4.0
3.403	6.0
3.418	4.0
3.433	3.0
3.448	1.0
3.463	3.0
3.478	6.0
3.492	5.0
3.507	6.0
3.522	6.0
3.537	6.0
3.552	7.0
3.567	4.0
3.581	5.0
3.596	7.0
3.611	4.0
3.626	10.0
3.641	4.0
3.656	2.0
3.671	9.0
3.685	6.0
3.7	4.0
3.715	3.0
3.73	7.0
3.745	10.0
3.76	8.0
3.775	4.0
3.789	5.0
3.804	7.0
3.819	7.0
3.834	2.0
3.849	5.0
3.864	7.0
3.879	1.0
3.894	7.0
3.908	9.0
3.923	5.0
3.938	8.0
3.953	6.0
3.968	8.0
3.983	9.0
3.998	3.0
4.013	4.0
4.027	7.0
4.042	2.0
4.057	7.0
4.072	6.0
4.087	9.0
4.102	5.0
4.117	4.0
4.132	8.0
4.147	6.0
4.162	6.0
4.176	4.0
4.191	10.0
4.206	9.0
4.221	3.0
4.236	4.0
4.251	6.0
4.266	8.0
4.281	4.0
4.296	2.0
4.311	7.0
4.326	3.0
4.341	8.0
4.356	8.0
4.37	6.0
4.385	2.0
4.4	4.0
4.415	8.0
4.43	2.0
4.445	12.0
4.46	6.0
4.475	4.0
4.49	2.0
4.505	11.0
4.52	5.0
4.535	6.0
4.55	9.0
4.565	7.0
4.58	3.0
4.595	6.0
4.61	9.0
4.625	10.0
4.639	3.0
4.654	6.0
4.669	3.0
4.684	3.0
4.699	6.0
4.714	8.0
4.729	9.0
4.744	0.0
4.759	7.0
4.774	5.0
4.789	8.0
4.804	9.0
4.819	6.0
4.834	10.0
4.849	11.0
4.864	2.0
4.879	6.0
4.894	7.0
4.909	6.0
4.924	4.0
4.939	4.0
4.954	6.0
4.969	5.0
4.984	8.0
4.999	5.0
5.014	6.0
5.029	8.0
5.044	9.0
5.059	9.0
5.074	9.0
5.089	7.0
5.104	10.0
5.119	7.0
5.134	5.0
5.149	5.0
5.164	7.0
5.179	8.0
5.194	7.0
5.209	9.0
5.224	12.0
5.239	3.0
5.254	3.0
5.269	9.0
5.284	6.0
5.299	12.0
5.314	8.0
5.329	4.0
5.344	8.0
5.359	5.0
5.374	8.0
5.389	8.0
5.404	7.0
5.419	4.0
5.434	9.0
5.449	7.0
5.464	7.0
5.479	7.0
5.494	7.0
5.509	9.0
5.524	8.0
5.539	8.0
5.554	8.0
5.569	6.0
5.584	3.0
5.599	9.0
5.614	6.0
5.629	7.0
5.644	8.0
5.659	7.0
5.674	8.0
5.689	9.0
5.704	8.0
5.719	8.0
5.734	6.0
5.749	8.0
5.764	9.0
5.779	9.0
5.794	12.0
5.809	10.0
5.824	7.0
5.839	8.0
5.854	5.0
5.869	4.0
5.884	4.0
5.899	14.0
5.914	6.0
5.929	9.0
5.944	6.0
5.959	5.0
5.974	12.0
5.989	6.0
6.004	10.0
6.019	8.0
6.034	7.0
6.049	8.0
6.064	10.0
6.079	20.0
6.094	12.0
6.109	6.0
6.124	11.0
6.139	10.0
6.154	7.0
6.169	13.0
6.184	8.0
6.199	7.0
6.214	2.0
6.229	14.0
6.244	8.0
6.259	10.0
6.274	9.0
6.289	7.0
6.304	6.0
6.319	10.0
6.334	8.0
6.349	8.0
6.364	6.0
6.379	2.0
6.394	8.0
6.409	5.0
6.424	6.0
6.439	10.0
6.454	4.0
6.469	4.0
6.484	7.0
6.499	5.0
6.514	11.0
6.529	7.0
6.544	8.0
6.559	4.0
6.574	5.0
6.589	8.0
6.604	13.0
6.619	8.0
6.634	8.0
6.649	5.0
6.664	4.0
6.679	7.0
6.694	5.0
6.709	3.0
6.724	5.0
6.739	10.0
6.754	11.0
6.769	9.0
6.784	12.0
6.799	5.0
6.814	9.0
6.829	7.0
6.844	3.0
6.859	9.0
6.873	7.0
6.888	6.0
6.903	4.0
6.918	6.0
6.933	6.0
6.948	7.0
6.963	7.0
6.978	11.0
6.993	6.0
7.008	7.0
7.023	8.0
7.038	7.0
7.053	6.0
7.068	10.0
7.083	15.0
7.098	8.0
7.113	6.0
7.128	15.0
7.143	7.0
7.157	4.0
7.172	9.0
7.187	13.0
7.202	6.0
7.217	10.0
7.232	6.0
7.247	6.0
7.262	6.0
7.277	4.0
7.292	10.0
7.307	12.0
7.322	6.0
7.336	6.0
7.351	10.0
7.366	8.0
7.381	11.0
7.396	8.0
7.411	17.0
7.426	9.0
7.441	6.0
7.456	9.0
7.471	10.0
7.485	6.0
7.5	5.0
7.515	9.0
7.53	4.0
7.545	6.0
7.56	7.0
7.575	7.0
7.59	17.0
7.604	13.0
7.619	7.0
7.634	9.0
7.649	9.0
7.664	6.0
7.679	13.0
7.693	11.0
7.708	9.0
7.723	8.0
7.738	6.0
7.753	10.0
7.768	8.0
7.783	10.0
7.797	12.0
7.812	5.0
7.827	9.0
7.842	8.0
7.857	11.0
7.871	5.0
7.886	4.0
7.901	11.0
7.916	12.0
7.931	9.0
7.945	6.0
7.96	5.0
7.975	6.0
7.99	6.0
8.005	10.0
8.019	12.0
8.034	7.0
8.049	7.0
8.064	11.0
8.078	5.0
8.093	6.0
8.108	12.0
8.123	5.0
8.137	7.0
8.152	12.0
8.167	14.0
8.182	14.0
8.196	8.0
8.211	10.0
8.226	7.0
8.241	12.0
8.255	8.0
8.27	14.0
8.285	13.0
8.3	7.0
8.314	9.0
8.329	7.0
8.344	14.0
8.358	14.0
8.373	9.0
8.388	9.0
8.403	7.0
8.417	5.0
8.432	15.0
8.447	6.0
8.461	16.0
8.476	9.0
8.491	13.0
8.505	10.0
8.52	6.0
8.535	5.0
8.55	8.0
8.564	7.0
8.579	10.0
8.594	11.0
8.608	10.0
8.623	12.0
8.638	10.0
8.652	7.0
8.667	8.0
8.682	3.0
8.696	9.0
8.711	8.0
8.726	6.0
8.74	7.0
8.755	5.0
8.77	8.0
8.784	9.0
8.799	8.0
8.814	10.0
8.828	7.0
8.843	9.0
8.858	7.0
8.872	11.0
8.887	9.0
8.902	7.0
8.916	7.0
8.931	6.0
8.946	7.0
8.96	10.0
8.975	6.0
8.99	10.0
9.004	7.0
9.019	8.0
9.034	4.0
9.048	8.0
9.063	5.0
9.077	8.0
9.092	14.0
9.107	7.0
9.121	8.0
9.136	5.0
9.151	10.0
9.165	10.0
9.18	11.0
9.195	8.0
9.209	9.0
9.224	7.0
9.239	7.0
9.253	12.0
9.268	11.0
9.283	5.0
9.297	7.0
9.312	14.0
9.327	4.0
9.341	5.0
9.356	9.0
9.371	12.0
9.385	6.0
9.4	8.0
9.415	8.0
9.429	9.0
9.444	14.0
9.458	6.0
9.473	12.0
9.488	8.0
9.502	9.0
9.517	10.0
9.532	8.0
9.546	6.0
9.561	4.0
9.576	11.0
9.59	11.0
9.605	9.0
9.62	9.0
9.635	7.0
9.649	7.0
9.664	10.0
9.679	7.0
9.693	11.0
9.708	10.0
9.723	7.0
9.737	11.0
9.752	10.0
9.767	8.0
9.781	8.0
9.796	10.0
9.811	9.0
9.825	13.0
9.84	9.0
9.855	7.0
9.87	3.0
9.884	8.0
9.899	8.0
9.914	7.0
9.928	11.0
9.943	3.0
9.958	5.0
9.973	5.0
9.987	7.0
10.002	15.0
10.017	9.0
10.031	15.0
10.046	9.0
10.061	9.0
10.076	10.0
10.09	6.0
10.105	10.0
10.12	3.0
10.135	7.0
10.149	8.0
10.164	5.0
10.179	7.0
10.194	4.0
10.208	10.0
10.223	6.0
10.238	7.0
10.253	3.0
10.267	8.0
10.282	5.0
10.297	7.0
10.312	2.0
10.326	7.0
10.341	8.0
10.356	10.0
10.371	6.0
10.386	9.0
10.4	11.0
10.415	6.0
10.43	6.0
10.445	5.0
10.46	8.0
10.474	11.0
10.489	9.0
10.504	7.0
10.519	7.0
10.533	3.0
10.548	9.0
10.563	15.0
10.578	9.0
10.593	8.0
10.608	1.0
10.622	10.0
10.637	10.0
10.652	8.0
10.667	6.0
10.682	4.0
10.696	7.0
10.711	5.0
10.726	9.0
10.741	10.0
10.756	10.0
10.771	10.0
10.785	9.0
10.8	3.0
10.815	11.0
10.83	8.0
10.845	5.0
10.86	7.0
10.874	4.0
10.889	4.0
10.904	14.0
10.919	8.0
10.934	5.0
10.949	3.0
10.963	6.0
10.978	7.0
10.993	9.0
11.008	7.0
11.023	11.0
11.038	12.0
11.053	9.0
11.067	8.0
11.082	11.0
11.097	4.0
11.112	12.0
11.127	11.0
11.142	6.0
11.157	8.0
11.172	14.0
11.186	5.0
11.201	4.0
11.216	3.0
11.231	7.0
11.246	4.0
11.261	9.0
11.276	6.0
11.291	11.0
11.305	5.0
11.32	6.0
11.335	5.0
11.35	6.0
11.365	5.0
11.38	6.0
11.395	8.0
11.41	6.0
11.424	12.0
11.439	2.0
11.454	5.0
11.469	6.0
11.484	7.0
11.499	7.0
11.514	2.0
11.529	14.0
11.544	7.0
11.558	8.0
11.573	7.0
11.588	9.0
11.603	5.0
11.618	8.0
11.633	12.0
11.648	10.0
11.663	12.0
11.678	9.0
11.693	9.0
11.707	9.0
11.722	10.0
11.737	8.0
11.752	11.0
11.767	7.0
11.782	7.0
11.797	9.0
11.812	8.0
11.827	6.0
11.842	4.0
11.856	13.0
11.871	9.0
11.886	6.0
11.901	7.0
11.916	11.0
11.931	11.0
11.946	11.0
11.961	5.0
11.976	13.0
11.991	7.0
12.006	11.0
12.02	14.0
12.035	6.0
12.05	9.0
12.065	5.0
12.08	13.0
12.095	8.0
12.11	8.0
12.125	5.0
12.14	5.0
12.155	8.0
12.17	9.0
12.184	13.0
12.199	17.0
12.214	8.0
12.229	10.0
12.244	8.0
12.259	17.0
12.274	10.0
12.289	9.0
12.304	7.0
12.319	14.0
12.334	11.0
12.348	15.0
12.363	12.0
12.378	8.0
12.393	12.0
12.408	7.0
12.423	10.0
12.438	12.0
12.453	13.0
12.468	10.0
12.483	17.0
12.498	10.0
12.513	11.0
12.527	13.0
12.542	9.0
12.557	7.0
12.572	10.0
12.587	8.0
12.602	11.0
12.617	11.0
12.632	11.0
12.647	18.0
12.662	10.0
12.677	10.0
12.692	5.0
12.707	16.0
12.721	15.0
12.736	11.0
12.751	11.0
12.766	10.0
12.781	12.0
12.796	9.0
12.811	9.0
12.826	12.0
12.841	14.0
12.856	15.0
12.871	16.0
12.886	16.0
12.9	10.0
12.915	14.0
12.93	13.0
12.945	15.0
12.96	21.0
12.975	16.0
12.99	9.0
13.005	14.0
13.02	17.0
13.035	19.0
13.05	13.0
13.065	13.0
13.08	15.0
13.094	22.0
13.109	16.0
13.124	23.0
13.139	15.0
13.154	14.0
13.169	16.0
13.184	19.0
13.199	20.0
13.214	14.0
13.229	21.0
13.244	14.0
13.259	10.0
13.274	20.0
13.288	6.0
13.303	25.0
13.318	21.0
13.333	26.0
13.348	22.0
13.363	15.0
13.378	25.0
13.393	30.0
13.408	22.0
13.423	31.0
13.438	27.0
13.453	32.0
13.468	31.0
13.482	28.0
13.497	27.0
13.512	32.0
13.527	37.0
13.542	41.0
13.557	45.0
13.572	50.0
13.587	54.0
13.602	57.0
13.617	64.0
13.632	58.0
13.647	71.0
13.662	69.0
13.677	61.0
13.691	84.0
13.706	84.0
13.721	86.0
13.736	103.0
13.751	85.0
13.766	96.0
13.781	119.0
13.796	142.0
13.811	107.0
13.826	138.0
13.841	130.0
13.856	109.0
13.871	114.0
13.885	84.0
13.9	75.0
13.915	95.0
13.93	70.0
13.945	55.0
13.96	50.0
13.975	34.0
13.99	52.0
14.005	22.0
14.02	27.0
14.035	39.0
14.05	18.0
14.065	24.0
14.08	19.0
14.094	26.0
14.109	23.0
14.124	23.0
14.139	20.0
14.154	16.0
14.169	17.0
14.184	15.0
14.199	15.0
14.214	11.0
14.229	22.0
14.244	25.0
14.259	15.0
14.274	25.0
14.288	24.0
14.303	18.0
14.318	16.0
14.333	15.0
14.348	12.0
14.363	13.0
14.378	23.0
14.393	13.0
14.408	21.0
14.423	10.0
14.438	15.0
14.453	22.0
14.468	19.0
14.482	24.0
14.497	15.0
14.512	21.0
14.527	16.0
14.542	13.0
14.557	14.0
14.572	20.0
14.587	18.0
14.602	15.0
14.617	15.0
14.632	17.0
14.647	15.0
14.661	22.0
14.676	13.0
14.691	18.0
14.706	23.0
14.721	14.0
14.736	14.0
14.751	14.0
14.766	13.0
14.781	17.0
14.796	12.0
14.811	12.0
14.826	13.0
14.84	19.0
14.855	11.0
14.87	15.0
14.885	13.0
14.9	12.0
14.915	10.0
14.93	10.0
14.945	12.0
14.96	19.0
14.975	20.0
14.989	15.0
15.004	9.0
15.019	15.0
15.034	15.0
15.049	12.0
15.064	18.0
15.079	13.0
15.094	11.0
15.109	8.0
15.124	20.0
15.138	24.0
15.153	14.0
15.168	14.0
15.183	16.0
15.198	12.0
15.213	14.0
15.228	17.0
15.243	12.0
15.258	19.0
15.272	15.0
15.287	14.0
15.302	13.0
15.317	13.0
15.332	13.0
15.347	18.0
15.362	14.0
15.377	8.0
15.391	6.0
15.406	13.0
15.421	18.0
15.436	16.0
15.451	20.0
15.466	21.0
15.481	11.0
15.496	15.0
15.51	11.0
15.525	12.0
15.54	17.0
15.555	12.0
15.57	9.0
15.585	12.0
15.6	8.0
15.614	13.0
15.629	16.0
15.644	15.0
15.659	9.0
15.674	8.0
15.689	12.0
15.704	12.0
15.718	16.0
15.733	17.0
15.748	13.0
15.763	12.0
15.778	15.0
15.793	17.0
15.808	8.0
15.822	17.0
15.837	12.0
15.852	12.0
15.867	20.0
15.882	7.0
15.897	15.0
15.911	11.0
15.926	16.0
15.941	13.0
15.956	16.0
15.971	16.0
15.986	7.0
16.0	11.0
16.015	11.0
16.03	19.0
16.045	19.0
16.06	13.0
16.074	13.0
16.089	17.0
16.104	15.0
16.119	15.0
16.134	14.0
16.149	21.0
16.163	18.0
16.178	16.0
16.193	19.0
16.208	12.0
16.223	9.0
16.237	20.0
16.252	13.0
16.267	12.0
16.282	11.0
16.297	20.0
16.311	12.0
16.326	13.0
16.341	13.0
16.356	15.0
16.37	18.0
16.385	7.0
16.4	12.0
16.415	11.0
16.43	7.0
16.444	13.0
16.459	10.0
16.474	13.0
16.489	23.0
16.504	13.0
16.518	11.0
16.533	13.0
16.548	12.0
16.563	15.0
16.577	17.0
16.592	9.0
16.607	10.0
16.622	12.0
16.637	21.0
16.651	17.0
16.666	16.0
16.681	24.0
16.696	18.0
16.71	22.0
16.725	28.0
16.74	32.0
16.755	36.0
16.77	43.0
16.784	37.0
16.799	42.0
16.814	39.0
16.829	37.0
16.843	50.0
16.858	55.0
16.873	49.0
16.888	64.0
16.902	62.0
16.917	55.0
16.932	63.0
16.947	70.0
16.961	74.0
16.976	67.0
16.991	69.0
17.006	56.0
17.021	62.0
17.035	49.0
17.05	50.0
17.065	42.0
17.08	34.0
17.094	37.0
17.109	28.0
17.124	22.0
17.139	23.0
17.153	28.0
17.168	21.0
17.183	19.0
17.198	13.0
17.212	14.0
17.227	17.0
17.242	13.0
17.257	17.0
17.271	15.0
17.286	21.0
17.301	13.0
17.316	9.0
17.33	12.0
17.345	15.0
17.36	11.0
17.375	15.0
17.39	13.0
17.404	9.0
17.419	13.0
17.434	9.0
17.449	19.0
17.463	7.0
17.478	10.0
17.493	8.0
17.508	14.0
17.522	11.0
17.537	20.0
17.552	9.0
17.567	13.0
17.581	16.0
17.596	22.0
17.611	13.0
17.626	7.0
17.641	11.0
17.655	8.0
17.67	11.0
17.685	15.0
17.7	12.0
17.714	12.0
17.729	13.0
17.744	10.0
17.759	15.0
17.773	6.0
17.788	9.0
17.803	9.0
17.818	7.0
17.833	10.0
17.847	12.0
17.862	10.0
17.877	3.0
17.892	23.0
17.906	11.0
17.921	10.0
17.936	12.0
17.951	13.0
17.966	7.0
17.98	8.0
17.995	10.0
18.01	13.0
18.025	9.0
18.04	18.0
18.054	13.0
18.069	13.0
18.084	10.0
18.099	13.0
18.114	10.0
18.128	18.0
18.143	17.0
18.158	17.0
18.173	15.0
18.188	12.0
18.202	7.0
18.217	8.0
18.232	8.0
18.247	14.0
18.262	14.0
18.276	8.0
18.291	12.0
18.306	10.0
18.321	12.0
18.336	12.0
18.35	15.0
18.365	8.0
18.38	12.0
18.395	11.0
18.41	15.0
18.424	17.0
18.439	8.0
18.454	11.0
18.469	12.0
18.484	14.0
18.498	16.0
18.513	10.0
18.528	9.0
18.543	8.0
18.558	8.0
18.573	17.0
18.587	9.0
18.602	13.0
18.617	12.0
18.632	4.0
18.647	7.0
18.661	7.0
18.676	9.0
18.691	13.0
18.706	8.0
18.721	9.0
18.736	5.0
18.75	12.0
18.765	11.0
18.78	11.0
18.795	16.0
18.81	19.0
18.825	9.0
18.839	12.0
18.854	14.0
18.869	7.0
18.884	8.0
18.899	16.0
18.913	15.0
18.928	8.0
18.943	8.0
18.958	7.0
18.973	10.0
18.988	13.0
19.002	10.0
19.017	9.0
19.032	10.0
19.047	10.0
19.062	9.0
19.077	11.0
19.091	8.0
19.106	9.0
19.121	10.0
19.136	17.0
19.151	17.0
19.165	7.0
19.18	12.0
19.195	13.0
19.21	11.0
19.225	6.0
19.24	10.0
19.254	12.0
19.269	15.0
19.284	16.0
19.299	14.0
19.314	16.0
19.329	13.0
19.343	14.0
19.358	10.0
19.373	15.0
19.388	23.0
19.403	18.0
19.417	16.0
19.432	21.0
19.447	18.0
19.462	22.0
19.477	30.0
19.492	29.0
19.506	26.0
19.521	25.0
19.536	29.0
19.551	36.0
19.566	40.0
19.58	40.0
19.595	53.0
19.61	42.0
19.625	33.0
19.64	39.0
19.655	42.0
19.669	41.0
19.684	28.0
19.699	19.0
19.714	24.0
19.729	28.0
19.743	23.0
19.758	20.0
19.773	20.0
19.788	21.0
19.803	13.0
19.817	12.0
19.832	16.0
19.847	23.0
19.862	17.0
19.877	10.0
19.891	10.0
19.906	13.0
19.921	10.0
19.936	10.0
19.951	12.0
19.965	6.0
19.98	12.0
19.995	15.0
20.01	10.0
20.025	9.0
20.039	15.0
20.054	4.0
20.069	10.0
20.084	14.0
20.099	7.0
20.113	12.0
20.128	13.0
20.143	14.0
20.158	11.0
20.173	5.0
20.187	12.0
20.202	15.0
20.217	13.0
20.232	17.0
20.246	17.0
20.261	9.0
20.276	18.0
20.291	9.0
20.306	10.0
20.32	10.0
20.335	6.0
20.35	9.0
20.365	8.0
20.38	10.0
20.394	16.0
20.409	7.0
20.424	12.0
20.439	4.0
20.453	7.0
20.468	11.0
20.483	10.0
20.498	10.0
20.513	9.0
20.527	15.0
20.542	7.0
20.557	9.0
20.572	8.0
20.586	17.0
20.601	5.0
20.616	14.0
20.631	10.0
20.646	8.0
20.66	9.0
20.675	11.0
20.69	5.0
20.705	6.0
20.719	10.0
20.734	11.0
20.749	20.0
20.764	6.0
20.779	11.0
20.793	9.0
20.808	6.0
20.823	10.0
20.838	12.0
20.853	3.0
20.867	9.0
20.882	11.0
20.897	3.0
20.912	13.0
20.926	14.0
20.941	14.0
20.956	9.0
20.971	14.0
20.986	7.0
21.0	13.0
21.015	14.0
21.03	11.0
21.045	5.0
21.06	11.0
21.074	11.0
21.089	5.0
21.104	9.0
21.119	8.0
21.134	19.0
21.148	17.0
21.163	5.0
21.178	13.0
21.193	12.0
21.208	13.0
21.222	14.0
21.237	10.0
21.252	5.0
21.267	14.0
21.282	17.0
21.296	11.0
21.311	9.0
21.326	13.0
21.341	16.0
21.356	11.0
21.37	14.0
21.385	10.0
21.4	8.0
21.415	10.0
21.43	10.0
21.444	14.0
21.459	13.0
21.474	14.0
21.489	15.0
21.504	13.0
21.519	8.0
21.533	12.0
21.548	10.0
21.563	17.0
21.578	17.0
21.593	18.0
21.608	18.0
21.622	11.0
21.637	7.0
21.652	13.0
21.667	11.0
21.682	15.0
21.697	20.0
21.712	16.0
21.726	19.0
21.741	31.0
21.756	23.0
21.771	26.0
21.786	26.0
21.801	47.0
21.816	49.0
21.83	48.0
21.845	45.0
21.86	45.0
21.875	59.0
21.89	66.0
21.905	74.0
21.92	95.0
21.935	74.0
21.949	79.0
21.964	75.0
21.979	53.0
21.994	77.0
22.009	80.0
22.024	55.0
22.039	50.0
22.054	63.0
22.069	44.0
22.083	47.0
22.098	41.0
22.113	34.0
22.128	38.0
22.143	34.0
22.158	13.0
22.173	21.0
22.188	13.0
22.203	14.0
22.218	11.0
22.233	12.0
22.248	8.0
22.262	10.0
22.277	22.0
22.292	12.0
22.307	9.0
22.322	19.0
22.337	15.0
22.352	8.0
22.367	15.0
22.382	12.0
22.397	20.0
22.412	6.0
22.427	14.0
22.442	14.0
22.457	21.0
22.472	14.0
22.487	15.0
22.502	12.0
22.516	12.0
22.531	11.0
22.546	6.0
22.561	10.0
22.576	10.0
22.591	12.0
22.606	11.0
22.621	12.0
22.636	18.0
22.651	14.0
22.666	15.0
22.681	9.0
22.696	7.0
22.711	15.0
22.726	9.0
22.741	9.0
22.756	7.0
22.771	8.0
22.786	7.0
22.801	9.0
22.816	8.0
22.831	10.0
22.846	5.0
22.861	11.0
22.876	9.0
22.891	14.0
22.906	3.0
22.92	10.0
22.935	14.0
22.95	12.0
22.965	11.0
22.98	8.0
22.995	9.0
23.01	9.0
23.025	13.0
23.04	15.0
23.055	7.0
23.07	10.0
23.085	8.0
23.1	14.0
23.115	10.0
23.13	5.0
23.145	6.0
23.16	11.0
23.175	14.0
23.19	11.0
23.205	8.0
23.22	7.0
23.235	12.0
23.25	13.0
23.265	9.0
23.28	5.0
23.295	8.0
23.31	8.0
23.325	11.0
23.34	9.0
23.355	11.0
23.37	9.0
23.384	14.0
23.399	8.0
23.414	7.0
23.429	8.0
23.444	13.0
23.459	4.0
23.474	6.0
23.489	8.0
23.504	6.0
23.519	12.0
23.534	9.0
23.549	11.0
23.564	5.0
23.579	12.0
23.594	10.0
23.609	13.0
23.624	10.0
23.639	6.0
23.654	9.0
23.668	19.0
23.683	6.0
23.698	14.0
23.713	9.0
23.728	9.0
23.743	10.0
23.758	6.0
23.773	8.0
23.788	12.0
23.803	14.0
23.818	13.0
23.833	11.0
23.848	19.0
23.862	12.0
23.877	11.0
23.892	16.0
23.907	17.0
23.922	15.0
23.937	20.0
23.952	27.0
23.967	23.0
23.982	28.0
23.997	32.0
24.011	30.0
24.026	40.0
24.041	40.0
24.056	46.0
24.071	52.0
24.086	47.0
24.101	53.0
24.116	51.0
24.131	45.0
24.145	42.0
24.16	39.0
24.175	47.0
24.19	28.0
24.205	27.0
24.22	28.0
24.235	27.0
24.249	26.0
24.264	22.0
24.279	17.0
24.294	19.0
24.309	24.0
24.324	22.0
24.338	17.0
24.353	19.0
24.368	13.0
24.383	11.0
24.398	12.0
24.413	16.0
24.428	9.0
24.442	11.0
24.457	18.0
24.472	9.0
24.487	10.0
24.502	14.0
24.516	10.0
24.531	10.0
24.546	6.0
24.561	7.0
24.576	12.0
24.591	14.0
24.605	16.0
24.62	10.0
24.635	14.0
24.65	14.0
24.665	15.0
24.679	9.0
24.694	11.0
24.709	14.0
24.724	9.0
24.739	10.0
24.753	10.0
24.768	7.0
24.783	13.0
24.798	9.0
24.813	10.0
24.827	15.0
24.842	9.0
24.857	11.0
24.872	10.0
24.886	6.0
24.901	10.0
24.916	8.0
24.931	11.0
24.946	12.0
24.96	13.0
24.975	11.0
24.99	13.0
25.005	7.0
25.019	10.0
25.034	14.0
25.049	6.0
25.064	12.0
25.078	11.0
25.093	13.0
25.108	11.0
25.123	14.0
25.138	11.0
25.152	13.0
25.167	7.0
25.182	8.0
25.197	8.0
25.211	14.0
25.226	10.0
25.241	11.0
25.256	6.0
25.27	10.0
25.285	15.0
25.3	10.0
25.315	6.0
25.329	9.0
25.344	11.0
25.359	9.0
25.374	7.0
25.388	10.0
25.403	9.0
25.418	10.0
25.433	7.0
25.447	10.0
25.462	7.0
25.477	11.0
25.492	10.0
25.506	4.0
25.521	9.0
25.536	7.0
25.55	5.0
25.565	10.0
25.58	6.0
25.595	9.0
25.609	10.0
25.624	8.0
25.639	9.0
25.654	9.0
25.668	8.0
25.683	10.0
25.698	8.0
25.713	6.0
25.727	9.0
25.742	9.0
25.757	10.0
25.772	12.0
25.786	9.0
25.801	9.0
25.816	14.0
25.83	14.0
25.845	8.0
25.86	14.0
25.875	7.0
25.889	11.0
25.904	6.0
25.919	15.0
25.934	14.0
25.948	8.0
25.963	6.0
25.978	8.0
25.992	11.0
26.007	8.0
26.022	13.0
26.037	3.0
26.051	9.0
26.066	8.0
26.081	10.0
26.096	13.0
26.11	15.0
26.125	7.0
26.14	12.0
26.155	14.0
26.169	9.0
26.184	8.0
26.199	10.0
26.213	18.0
26.228	9.0
26.243	8.0
26.258	9.0
26.272	8.0
26.287	16.0
26.302	9.0
26.317	5.0
26.331	12.0
26.346	7.0
26.361	9.0
26.376	19.0
26.39	11.0
26.405	12.0
26.42	15.0
26.434	11.0
26.449	16.0
26.464	7.0
26.479	13.0
26.493	16.0
26.508	5.0
26.523	14.0
26.538	10.0
26.552	11.0
26.567	8.0
26.582	13.0
26.597	13.0
26.611	14.0
26.626	9.0
26.641	6.0
26.656	7.0
26.67	7.0
26.685	9.0
26.7	7.0
26.715	10.0
26.729	6.0
26.744	10.0
26.759	14.0
26.773	7.0
26.788	12.0
26.803	13.0
26.818	10.0
26.832	13.0
26.847	10.0
26.862	2.0
26.877	9.0
26.891	9.0
26.906	13.0
26.921	10.0
26.936	6.0
26.95	8.0
26.965	7.0
26.98	10.0
26.995	12.0
27.01	8.0
27.024	13.0
27.039	8.0
27.054	15.0
27.069	6.0
27.083	10.0
27.098	6.0
27.113	9.0
27.128	8.0
27.142	8.0
27.157	6.0
27.172	8.0
27.187	8.0
27.201	8.0
27.216	7.0
27.231	13.0
27.246	10.0
27.261	6.0
27.275	11.0
27.29	6.0
27.305	8.0
27.32	11.0
27.334	11.0
27.349	12.0
27.364	5.0
27.379	12.0
27.394	6.0
27.408	10.0
27.423	17.0
27.438	12.0
27.453	10.0
27.467	7.0
27.482	10.0
27.497	4.0
27.512	6.0
27.527	7.0
27.541	12.0
27.556	11.0
27.571	6.0
27.586	13.0
27.601	11.0
27.615	6.0
27.63	12.0
27.645	9.0
27.66	13.0
27.675	14.0
27.689	20.0
27.704	16.0
27.719	16.0
27.734	15.0
27.749	15.0
27.763	25.0
27.778	14.0
27.793	12.0
27.808	26.0
27.823	23.0
27.838	19.0
27.852	28.0
27.867	20.0
27.882	23.0
27.897	21.0
27.912	31.0
27.926	15.0
27.941	20.0
27.956	16.0
27.971	15.0
27.986	11.0
28.001	17.0
28.015	13.0
28.03	16.0
28.045	15.0
28.06	19.0
28.075	16.0
28.09	12.0
28.105	20.0
28.119	13.0
28.134	10.0
28.149	9.0
28.164	5.0
28.179	11.0
28.194	11.0
28.208	8.0
28.223	12.0
28.238	5.0
28.253	7.0
28.268	14.0
28.283	11.0
28.298	12.0
28.312	14.0
28.327	12.0
28.342	11.0
28.357	14.0
28.372	13.0
28.387	9.0
28.402	10.0
28.417	12.0
28.431	5.0
28.446	12.0
28.461	12.0
28.476	6.0
28.491	11.0
28.506	10.0
28.521	6.0
28.536	14.0
28.55	16.0
28.565	6.0
28.58	12.0
28.595	8.0
28.61	15.0
28.625	10.0
28.64	10.0
28.655	13.0
28.669	11.0
28.684	11.0
28.699	4.0
28.714	11.0
28.729	11.0
28.744	9.0
28.759	15.0
28.774	16.0
28.788	8.0
28.803	7.0
28.818	11.0
28.833	5.0
28.848	6.0
28.863	11.0
28.878	9.0
28.893	15.0
28.908	10.0
28.922	14.0
28.937	9.0
28.952	7.0
28.967	14.0
28.982	10.0
28.997	6.0
29.012	9.0
29.027	8.0
29.041	4.0
29.056	11.0
29.071	10.0
29.086	11.0
29.101	8.0
29.116	12.0
29.131	12.0
29.146	12.0
29.16	8.0
29.175	9.0
29.19	12.0
29.205	14.0
29.22	11.0
29.235	15.0
29.25	10.0
29.265	6.0
29.279	8.0
29.294	18.0
29.309	18.0
29.324	13.0
29.339	12.0
29.354	16.0
29.369	15.0
29.384	17.0
29.398	16.0
29.413	16.0
29.428	10.0
29.443	19.0
29.458	24.0
29.473	27.0
29.488	20.0
29.502	23.0
29.517	30.0
29.532	36.0
29.547	45.0
29.562	52.0
29.577	55.0
29.592	33.0
29.606	48.0
29.621	52.0
29.636	47.0
29.651	51.0
29.666	30.0
29.681	36.0
29.695	36.0
29.71	28.0
29.725	35.0
29.74	30.0
29.755	29.0
29.77	42.0
29.784	30.0
29.799	24.0
29.814	26.0
29.829	27.0
29.844	19.0
29.859	20.0
29.873	15.0
29.888	17.0
29.903	9.0
29.918	18.0
29.933	9.0
29.947	12.0
29.962	13.0
29.977	10.0
29.992	14.0
30.007	11.0
30.021	12.0
30.036	5.0
30.051	8.0
30.066	17.0
30.081	13.0
30.095	10.0
30.11	11.0
30.125	5.0
30.14	13.0
30.155	8.0
30.169	7.0
30.184	10.0
30.199	12.0
30.214	11.0
30.228	14.0
30.243	10.0
30.258	12.0
30.273	9.0
30.288	5.0
30.302	20.0
30.317	6.0
30.332	13.0
30.347	9.0
30.361	11.0
30.376	12.0
30.391	12.0
30.406	9.0
30.42	9.0
30.435	15.0
30.45	11.0
30.465	9.0
30.479	7.0
30.494	10.0
30.509	8.0
30.524	13.0
30.538	17.0
30.553	6.0
30.568	11.0
30.583	13.0
30.597	13.0
30.612	6.0
30.627	11.0
30.641	11.0
30.656	7.0
30.671	14.0
30.686	9.0
30.7	8.0
30.715	9.0
30.73	8.0
30.745	13.0
30.759	7.0
30.774	7.0
30.789	14.0
30.803	10.0
30.818	6.0
30.833	11.0
30.848	12.0
30.862	12.0
30.877	8.0
30.892	14.0
30.906	11.0
30.921	10.0
30.936	9.0
30.951	12.0
30.965	10.0
30.98	13.0
30.995	9.0
31.009	19.0
31.024	11.0
31.039	10.0
31.053	13.0
31.068	13.0
31.083	18.0
31.098	12.0
31.112	14.0
31.127	25.0
31.142	18.0
31.156	18.0
31.171	27.0
31.186	34.0
31.2	32.0
31.215	28.0
31.23	34.0
31.245	43.0
31.259	36.0
31.274	48.0
31.289	35.0
31.303	23.0
31.318	30.0
31.333	33.0
31.347	36.0
31.362	28.0
31.377	20.0
31.392	32.0
31.406	27.0
31.421	15.0
31.436	25.0
31.45	27.0
31.465	30.0
31.48	16.0
31.494	23.0
31.509	14.0
31.524	11.0
31.538	16.0
31.553	10.0
31.568	12.0
31.583	7.0
31.597	5.0
31.612	7.0
31.627	9.0
31.641	11.0
31.656	8.0
31.671	6.0
31.685	8.0
31.7	7.0
31.715	9.0
31.729	14.0
31.744	5.0
31.759	8.0
31.774	10.0
31.788	18.0
31.803	16.0
31.818	11.0
31.832	11.0
31.847	6.0
31.862	18.0
31.876	11.0
31.891	10.0
31.906	9.0
31.92	11.0
31.935	9.0
31.95	14.0
31.965	7.0
31.979	13.0
31.994	7.0
32.009	10.0
32.023	14.0
32.038	8.0
32.053	6.0
32.067	10.0
32.082	6.0
32.097	10.0
32.112	13.0
32.126	6.0
32.141	7.0
32.156	5.0
32.17	9.0
32.185	5.0
32.2	12.0
32.214	10.0
32.229	6.0
32.244	9.0
32.259	8.0
32.273	9.0
32.288	9.0
32.303	6.0
32.317	6.0
32.332	12.0
32.347	8.0
32.362	14.0
32.376	9.0
32.391	13.0
32.406	7.0
32.42	11.0
32.435	8.0
32.45	9.0
32.465	11.0
32.479	10.0
32.494	13.0
32.509	10.0
32.523	7.0
32.538	16.0
32.553	16.0
32.568	8.0
32.582	7.0
32.597	14.0
32.612	11.0
32.627	8.0
32.641	14.0
32.656	12.0
32.671	11.0
32.685	8.0
32.7	13.0
32.715	24.0
32.73	17.0
32.744	19.0
32.759	20.0
32.774	22.0
32.788	22.0
32.803	18.0
32.818	27.0
32.833	23.0
32.847	22.0
32.862	18.0
32.877	22.0
32.892	19.0
32.906	18.0
32.921	17.0
32.936	22.0
32.951	16.0
32.965	18.0
32.98	19.0
32.995	15.0
33.009	22.0
33.024	16.0
33.039	15.0
33.054	11.0
33.068	13.0
33.083	11.0
33.098	14.0
33.113	11.0
33.127	11.0
33.142	7.0
33.157	8.0
33.172	13.0
33.186	14.0
33.201	10.0
33.216	10.0
33.231	13.0
33.245	8.0
33.26	9.0
33.275	4.0
33.29	5.0
33.304	6.0
33.319	7.0
33.334	13.0
33.349	8.0
33.363	10.0
33.378	9.0
33.393	13.0
33.408	14.0
33.422	9.0
33.437	9.0
33.452	9.0
33.467	11.0
33.481	9.0
33.496	9.0
33.511	6.0
33.526	13.0
33.54	9.0
33.555	5.0
33.57	10.0
33.585	7.0
33.599	6.0
33.614	20.0
33.629	7.0
33.644	6.0
33.658	17.0
33.673	7.0
33.688	10.0
33.703	8.0
33.718	12.0
33.732	7.0
33.747	2.0
33.762	10.0
33.777	10.0
33.791	7.0
33.806	10.0
33.821	12.0
33.836	11.0
33.85	10.0
33.865	9.0
33.88	7.0
33.895	11.0
33.91	7.0
33.924	9.0
33.939	7.0
33.954	7.0
33.969	7.0
33.983	13.0
33.998	7.0
34.013	9.0
34.028	9.0
34.042	6.0
34.057	13.0
34.072	9.0
34.087	7.0
34.102	5.0
34.116	9.0
34.131	20.0
34.146	11.0
34.161	11.0
34.175	16.0
34.19	10.0
34.205	15.0
34.22	9.0
34.235	8.0
34.249	11.0
34.264	11.0
34.279	13.0
34.294	8.0
34.309	17.0
34.323	15.0
34.338	14.0
34.353	14.0
34.368	14.0
34.382	13.0
34.397	10.0
34.412	10.0
34.427	6.0
34.442	8.0
34.456	13.0
34.471	10.0
34.486	15.0
34.501	13.0
34.516	8.0
34.53	11.0
34.545	11.0
34.56	15.0
34.575	6.0
34.59	12.0
34.604	8.0
34.619	7.0
34.634	12.0
34.649	14.0
34.664	11.0
34.678	8.0
34.693	5.0
34.708	10.0
34.723	2.0
34.738	7.0
34.752	8.0
34.767	4.0
34.782	9.0
34.797	9.0
34.812	11.0
34.826	5.0
34.841	8.0
34.856	10.0
34.871	6.0
34.886	14.0
34.9	8.0
34.915	8.0
34.93	14.0
34.945	4.0
34.96	5.0
34.974	11.0
34.989	13.0
35.004	4.0
35.019	7.0
35.034	9.0
35.048	16.0
35.063	12.0
35.078	8.0
35.093	8.0
35.108	7.0
35.122	10.0
35.137	11.0
35.152	10.0
35.167	16.0
35.182	6.0
35.196	12.0
35.211	5.0
35.226	11.0
35.241	11.0
35.256	18.0
35.27	5.0
35.285	12.0
35.3	7.0
35.315	7.0
35.33	5.0
35.344	9.0
35.359	10.0
35.374	7.0
35.389	10.0
35.404	9.0
35.418	2.0
35.433	8.0
35.448	11.0
35.463	11.0
35.478	6.0
35.493	10.0
35.507	10.0
35.522	12.0
35.537	8.0
35.552	8.0
35.567	12.0
35.581	14.0
35.596	10.0
35.611	5.0
35.626	11.0
35.641	8.0
35.655	14.0
35.67	9.0
35.685	20.0
35.7	12.0
35.715	18.0
35.729	13.0
35.744	17.0
35.759	13.0
35.774	17.0
35.789	17.0
35.804	17.0
35.818	11.0
35.833	17.0
35.848	12.0
35.863	11.0
35.878	14.0
35.892	16.0
35.907	13.0
35.922	20.0
35.937	13.0
35.952	12.0
35.966	9.0
35.981	12.0
35.996	11.0
36.011	8.0
36.026	12.0
36.04	16.0
36.055	16.0
36.07	7.0
36.085	12.0
36.1	7.0
36.114	11.0
36.129	4.0
36.144	9.0
36.159	7.0
36.174	9.0
36.189	9.0
36.203	4.0
36.218	12.0
36.233	13.0
36.248	6.0
36.263	10.0
36.277	11.0
36.292	4.0
36.307	13.0
36.322	6.0
36.337	9.0
36.351	7.0
36.366	4.0
36.381	5.0
36.396	8.0
36.411	4.0
36.426	8.0
36.44	9.0
36.455	10.0
36.47	7.0
36.485	9.0
36.5	7.0
36.514	7.0
36.529	6.0
36.544	7.0
36.559	6.0
36.574	9.0
36.589	4.0
36.603	6.0
36.618	11.0
36.633	12.0
36.648	12.0
36.663	10.0
36.677	9.0
36.692	7.0
36.707	10.0
36.722	5.0
36.737	8.0
36.752	10.0
36.766	6.0
36.781	6.0
36.796	8.0
36.811	13.0
36.826	6.0
36.841	5.0
36.855	7.0
36.87	10.0
36.885	4.0
36.9	4.0
36.915	8.0
36.93	11.0
36.944	3.0
36.959	10.0
36.974	11.0
36.989	11.0
37.004	9.0
37.019	14.0
37.033	11.0
37.048	18.0
37.063	16.0
37.078	14.0
37.093	24.0
37.108	19.0
37.123	25.0
37.137	28.0
37.152	33.0
37.167	28.0
37.182	19.0
37.197	35.0
37.212	21.0
37.226	28.0
37.241	22.0
37.256	24.0
37.271	24.0
37.286	20.0
37.301	15.0
37.316	19.0
37.331	11.0
37.345	14.0
37.36	12.0
37.375	22.0
37.39	16.0
37.405	17.0
37.42	19.0
37.435	24.0
37.45	24.0
37.464	17.0
37.479	13.0
37.494	14.0
37.509	10.0
37.524	6.0
37.539	8.0
37.554	8.0
37.569	7.0
37.583	11.0
37.598	14.0
37.613	9.0
37.628	6.0
37.643	6.0
37.658	6.0
37.673	6.0
37.688	4.0
37.703	8.0
37.718	12.0
37.733	11.0
37.747	5.0
37.762	9.0
37.777	4.0
37.792	6.0
37.807	7.0
37.822	10.0
37.837	4.0
37.852	4.0
37.867	5.0
37.882	9.0
37.897	8.0
37.912	10.0
37.927	11.0
37.941	3.0
37.956	5.0
37.971	5.0
37.986	9.0
38.001	8.0
38.016	6.0
38.031	8.0
38.046	9.0
38.061	4.0
38.076	0.0
38.091	6.0
38.106	13.0
38.121	3.0
38.136	8.0
38.151	4.0
38.166	5.0
38.181	10.0
38.196	8.0
38.211	7.0
38.226	9.0
38.241	5.0
38.256	6.0
38.271	8.0
38.285	7.0
38.3	7.0
38.315	11.0
38.33	4.0
38.345	9.0
38.36	4.0
38.375	5.0
38.39	8.0
38.405	9.0
38.42	6.0
38.435	10.0
38.45	5.0
38.465	3.0
38.48	9.0
38.495	9.0
38.51	2.0
38.525	6.0
38.54	3.0
38.555	5.0
38.57	5.0
38.585	8.0
38.6	3.0
38.615	5.0
38.63	5.0
38.645	3.0
38.66	3.0
38.675	4.0
38.69	4.0
38.705	3.0
38.72	9.0
38.735	3.0
38.75	6.0
38.765	5.0
38.78	5.0
38.795	9.0
38.81	8.0
38.825	4.0
38.84	4.0
38.855	5.0
38.87	5.0
38.885	10.0
38.9	6.0
38.915	2.0
38.93	5.0
38.945	4.0
38.96	2.0
38.975	3.0
38.99	2.0
39.005	6.0
39.02	6.0
39.035	5.0
39.05	4.0
39.065	9.0
39.08	4.0
39.095	8.0
39.11	9.0
39.125	6.0
39.14	6.0
39.155	5.0
39.17	6.0
39.185	8.0
39.2	6.0
39.215	7.0
39.23	6.0
39.245	5.0
39.26	7.0
39.275	4.0
39.29	5.0
39.305	4.0
39.32	11.0
39.335	3.0
39.35	7.0
39.365	5.0
39.38	6.0
39.395	7.0
39.409	3.0
39.424	3.0
39.439	6.0
39.454	10.0
39.469	3.0
39.484	2.0
39.499	4.0
39.514	1.0
39.529	4.0
39.544	7.0
39.559	4.0
39.574	6.0
39.589	2.0
39.604	4.0
39.619	7.0
39.634	5.0
39.649	2.0
39.664	7.0
39.678	5.0
39.693	6.0
39.708	7.0
39.723	5.0
39.738	2.0
39.753	9.0
39.768	6.0
39.783	14.0
39.798	16.0
39.813	3.0
39.827	9.0
39.842	2.0
39.857	7.0
39.872	9.0
39.887	6.0
39.902	7.0
39.917	10.0
39.932	4.0
39.947	5.0
39.961	3.0
39.976	2.0
39.991	3.0
40.006	11.0
40.021	6.0
40.036	8.0
40.051	6.0
40.065	8.0
40.08	4.0
40.095	6.0
40.11	6.0
40.125	7.0
40.14	6.0
40.154	9.0
40.169	9.0
40.184	9.0
40.199	5.0
40.214	5.0
40.228	7.0
40.243	6.0
40.258	8.0
40.273	8.0
40.288	3.0
40.302	6.0
40.317	4.0
40.332	6.0
40.347	4.0
40.362	4.0
40.376	5.0
40.391	3.0
40.406	9.0
40.421	6.0
40.436	5.0
40.45	5.0
40.465	5.0
40.48	7.0
40.495	7.0
40.509	6.0
40.524	8.0
40.539	4.0
40.554	5.0
40.568	5.0
40.583	7.0
40.598	5.0
40.613	7.0
40.627	5.0
40.642	8.0
40.657	4.0
40.672	7.0
40.686	5.0
40.701	7.0
40.716	9.0
40.731	6.0
40.745	8.0
40.76	5.0
40.775	2.0
40.79	3.0
40.804	6.0
40.819	7.0
40.834	8.0
40.849	2.0
40.863	7.0
40.878	6.0
40.893	5.0
40.907	6.0
40.922	10.0
40.937	4.0
40.952	8.0
40.966	10.0
40.981	9.0
40.996	15.0
41.011	10.0
41.025	8.0
41.04	10.0
41.055	13.0
41.069	13.0
41.084	17.0
41.099	29.0
41.114	13.0
41.128	25.0
41.143	22.0
41.158	21.0
41.173	12.0
41.187	17.0
41.202	15.0
41.217	21.0
41.231	12.0
41.246	8.0
41.261	12.0
41.276	15.0
41.29	11.0
41.305	10.0
41.32	11.0
41.335	8.0
41.349	9.0
41.364	18.0
41.379	9.0
41.393	17.0
41.408	13.0
41.423	19.0
41.438	17.0
41.452	11.0
41.467	11.0
41.482	6.0
41.497	8.0
41.511	8.0
41.526	6.0
41.541	5.0
41.556	7.0
41.57	4.0
41.585	6.0
41.6	10.0
41.615	4.0
41.629	7.0
41.644	4.0
41.659	8.0
41.674	2.0
41.688	2.0
41.703	6.0
41.718	2.0
41.733	4.0
41.747	8.0
41.762	9.0
41.777	6.0
41.792	3.0
41.806	10.0
41.821	8.0
41.836	8.0
41.851	6.0
41.866	7.0
41.88	7.0
41.895	5.0
41.91	3.0
41.925	5.0
41.939	5.0
41.954	8.0
41.969	7.0
41.984	4.0
41.999	9.0
42.013	3.0
42.028	6.0
42.043	9.0
42.058	13.0
42.073	5.0
42.088	3.0
42.102	6.0
42.117	3.0
42.132	2.0
42.147	12.0
42.162	2.0
42.176	3.0
42.191	6.0
42.206	6.0
42.221	5.0
42.236	4.0
42.251	7.0
42.266	3.0
42.28	8.0
42.295	14.0
42.31	12.0
42.325	10.0
42.34	10.0
42.355	11.0
42.369	17.0
42.384	16.0
42.399	17.0
42.414	13.0
42.429	21.0
42.444	11.0
42.459	10.0
42.474	12.0
42.488	9.0
42.503	15.0
42.518	5.0
42.533	5.0
42.548	9.0
42.563	5.0
42.578	7.0
42.593	5.0
42.608	12.0
42.622	8.0
42.637	10.0
42.652	9.0
42.667	9.0
42.682	9.0
42.697	10.0
42.712	7.0
42.727	11.0
42.742	7.0
42.757	3.0
42.772	8.0
42.786	7.0
42.801	11.0
42.816	13.0
42.831	9.0
42.846	5.0
42.861	7.0
42.876	8.0
42.891	4.0
42.906	11.0
42.921	7.0
42.936	4.0
42.951	4.0
42.966	4.0
42.981	7.0
42.996	4.0
43.011	4.0
43.025	5.0
43.04	5.0
43.055	6.0
43.07	4.0
43.085	5.0
43.1	1.0
43.115	3.0
43.13	6.0
43.145	8.0
43.16	2.0
43.175	11.0
43.19	5.0
43.205	9.0
43.22	2.0
43.235	3.0
43.25	7.0
43.265	3.0
43.28	2.0
43.295	4.0
43.31	2.0
43.325	3.0
43.34	5.0
43.355	7.0
43.37	9.0
43.385	3.0
43.4	5.0
43.415	8.0
43.43	3.0
43.445	7.0
43.46	5.0
43.475	7.0
43.49	6.0
43.505	7.0
43.52	3.0
43.535	9.0
43.55	5.0
43.565	10.0
43.58	7.0
43.595	4.0
43.61	11.0
43.625	3.0
43.64	6.0
43.655	9.0
43.67	8.0
43.685	8.0
43.7	6.0
43.715	13.0
43.73	9.0
43.745	11.0
43.76	4.0
43.775	6.0
43.79	8.0
43.805	3.0
43.82	6.0
43.835	13.0
43.85	5.0
43.865	10.0
43.88	9.0
43.895	10.0
43.91	5.0
43.925	4.0
43.94	6.0
43.955	6.0
43.97	6.0
43.985	7.0
44.0	8.0
44.015	7.0
44.03	4.0
44.045	5.0
44.061	4.0
44.076	3.0
44.091	5.0
44.106	3.0
44.121	7.0
44.136	2.0
44.151	3.0
44.166	3.0
44.181	3.0
44.196	4.0
44.211	7.0
44.226	6.0
44.241	4.0
44.256	5.0
44.271	7.0
44.286	9.0
44.301	7.0
44.316	8.0
44.331	5.0
44.346	2.0
44.361	9.0
44.377	6.0
44.392	5.0
44.407	6.0
44.422	3.0
44.437	3.0
44.452	6.0
44.467	3.0
44.482	8.0
44.497	8.0
44.512	3.0
44.527	10.0
44.542	6.0
44.557	6.0
44.572	7.0
44.587	6.0
44.602	3.0
44.617	5.0
44.632	3.0
44.647	11.0
44.663	10.0
44.678	7.0
44.693	2.0
44.708	6.0
44.723	7.0
44.738	6.0
44.753	6.0
44.768	10.0
44.783	13.0
44.798	3.0
44.813	6.0
44.828	16.0
44.843	11.0
44.858	6.0
44.873	13.0
44.888	4.0
44.903	9.0
44.918	13.0
44.933	7.0
44.948	6.0
44.964	4.0
44.979	6.0
44.994	6.0
45.009	10.0
45.024	6.0
45.039	6.0
45.054	13.0
45.069	7.0
45.084	7.0
45.099	10.0
45.114	5.0
45.129	3.0
45.144	7.0
45.159	6.0
45.174	6.0
45.189	11.0
45.204	5.0
45.219	5.0
45.234	3.0
45.249	7.0
45.264	6.0
45.279	8.0
45.294	9.0
45.309	8.0
45.324	4.0
45.339	2.0
45.354	7.0
45.369	8.0
45.384	5.0
45.399	5.0
45.414	5.0
45.429	5.0
45.444	1.0
45.459	12.0
45.474	5.0
45.489	6.0
45.504	3.0
45.519	2.0
45.534	4.0
45.549	3.0
45.564	10.0
45.579	5.0
45.594	4.0
45.609	8.0
45.624	5.0
45.639	7.0
45.654	5.0
45.669	7.0
45.684	4.0
45.699	2.0
45.714	1.0
45.729	5.0
45.744	7.0
45.759	2.0
45.774	3.0
45.789	4.0
45.804	6.0
45.819	5.0
45.834	4.0
45.849	4.0
45.864	10.0
45.879	7.0
45.894	9.0
45.909	11.0
45.924	16.0
45.939	14.0
45.954	21.0
45.969	20.0
45.984	15.0
45.998	16.0
46.013	9.0
46.028	13.0
46.043	19.0
46.058	14.0
46.073	19.0
46.088	15.0
46.103	8.0
46.118	7.0
46.133	10.0
46.148	3.0
46.163	10.0
46.178	10.0
46.192	7.0
46.207	12.0
46.222	7.0
46.237	9.0
46.252	8.0
46.267	17.0
46.282	11.0
46.297	9.0
46.312	11.0
46.327	8.0
46.341	3.0
46.356	12.0
46.371	8.0
46.386	7.0
46.401	5.0
46.416	2.0
46.431	10.0
46.446	2.0
46.46	6.0
46.475	6.0
46.49	5.0
46.505	6.0
46.52	5.0
46.535	4.0
46.55	2.0
46.564	7.0
46.579	8.0
46.594	6.0
46.609	4.0
46.624	3.0
46.639	4.0
46.654	4.0
46.668	4.0
46.683	10.0
46.698	4.0
46.713	6.0
46.728	4.0
46.743	9.0
46.758	8.0
46.772	4.0
46.787	2.0
46.802	1.0
46.817	10.0
46.832	2.0
46.847	4.0
46.861	1.0
46.876	4.0
46.891	3.0
46.906	4.0
46.921	6.0
46.936	6.0
46.95	5.0
46.965	3.0
46.98	2.0
46.995	3.0
47.01	3.0
47.025	4.0
47.039	8.0
47.054	7.0
47.069	7.0
47.084	8.0
47.099	9.0
47.113	7.0
47.128	14.0
47.143	15.0
47.158	7.0
47.173	6.0
47.188	5.0
47.202	7.0
47.217	9.0
47.232	7.0
47.247	5.0
47.262	3.0
47.277	5.0
47.291	4.0
47.306	5.0
47.321	7.0
47.336	8.0
47.351	9.0
47.365	9.0
47.38	5.0
47.395	6.0
47.41	4.0
47.425	7.0
47.44	9.0
47.454	8.0
47.469	4.0
47.484	7.0
47.499	5.0
47.514	5.0
47.528	3.0
47.543	6.0
47.558	7.0
47.573	3.0
47.588	6.0
47.603	7.0
47.617	4.0
47.632	4.0
47.647	4.0
47.662	3.0
47.677	2.0
47.691	5.0
47.706	6.0
47.721	7.0
47.736	5.0
47.751	6.0
47.766	4.0
47.78	5.0
47.795	6.0
47.81	6.0
47.825	8.0
47.84	1.0
47.855	3.0
47.869	7.0
47.884	0.0
47.899	4.0
47.914	5.0
47.929	8.0
47.944	5.0
47.958	3.0
47.973	5.0
47.988	1.0
48.003	7.0
48.018	4.0
48.033	4.0
48.047	3.0
48.062	3.0
48.077	2.0
48.092	7.0
48.107	3.0
48.122	3.0
48.137	4.0
48.151	4.0
48.166	4.0
48.181	4.0
48.196	5.0
48.211	3.0
48.226	2.0
48.241	4.0
48.255	4.0
48.27	1.0
48.285	2.0
48.3	5.0
48.315	5.0
48.33	4.0
48.345	7.0
48.359	2.0
48.374	5.0
48.389	4.0
48.404	2.0
48.419	7.0
48.434	5.0
48.449	0.0
48.464	6.0
48.478	4.0
48.493	6.0
48.508	0.0
48.523	4.0
48.538	6.0
48.553	5.0
48.568	3.0
48.583	1.0
48.597	5.0
48.612	2.0
48.627	7.0
48.642	2.0
48.657	3.0
48.672	2.0
48.687	0.0
48.702	2.0
48.717	8.0
48.731	2.0
48.746	4.0
48.761	5.0
48.776	4.0
48.791	3.0
48.806	6.0
48.821	2.0
48.836	4.0
48.851	5.0
48.866	7.0
48.88	3.0
48.895	5.0
48.91	6.0
48.925	3.0
48.94	5.0
48.955	5.0
48.97	1.0
48.985	3.0
49.0	6.0
49.015	5.0
49.03	6.0
49.044	2.0
49.059	7.0
49.074	5.0
49.089	5.0
49.104	7.0
49.119	8.0
49.134	5.0
49.149	7.0
49.164	2.0
49.179	8.0
49.194	4.0
49.209	3.0
49.224	7.0
49.238	2.0
49.253	6.0
49.268	10.0
49.283	8.0
49.298	6.0
49.313	11.0
49.328	11.0
49.343	4.0
49.358	7.0
49.373	6.0
49.388	10.0
49.403	9.0
49.418	3.0
49.433	6.0
49.448	4.0
49.463	7.0
49.478	7.0
49.492	5.0
49.507	4.0
49.522	4.0
49.537	8.0
49.552	4.0
49.567	2.0
49.582	9.0
49.597	5.0
49.612	10.0
49.627	9.0
49.642	3.0
49.657	2.0
49.672	8.0
49.687	5.0
49.702	6.0
49.717	2.0
49.732	5.0
49.747	4.0
49.762	2.0
49.777	7.0
49.792	4.0
49.807	1.0
49.822	4.0
49.837	11.0
49.852	10.0
49.867	4.0
49.882	3.0
49.897	4.0
49.912	7.0
49.927	3.0
49.942	3.0
49.957	4.0
49.971	10.0
49.986	4.0
50.001	5.0
50.016	5.0
50.031	1.0
50.046	5.0
50.061	4.0
50.076	9.0
50.091	3.0
50.106	4.0
50.121	9.0
50.136	5.0
50.151	1.0
50.166	5.0
50.181	7.0
50.196	4.0
50.211	8.0
50.226	7.0
50.241	5.0
50.256	0.0
50.271	1.0
50.286	7.0
50.302	6.0
50.317	5.0
50.332	9.0
50.347	5.0
50.362	8.0
50.377	4.0
50.392	6.0
50.407	11.0
50.422	8.0
50.437	10.0
50.452	12.0
50.467	9.0
50.482	1.0
50.497	7.0
50.512	8.0
50.527	7.0
50.542	5.0
50.557	3.0
50.572	4.0
50.587	1.0
50.602	12.0
50.617	1.0
50.632	4.0
50.647	7.0
50.662	8.0
50.677	3.0
50.692	8.0
50.707	5.0
50.722	7.0
50.737	7.0
50.752	2.0
50.767	7.0
50.782	7.0
50.797	6.0
50.812	10.0
50.828	7.0
50.843	8.0
50.858	5.0
50.873	6.0
50.888	4.0
50.903	11.0
50.918	5.0
50.933	3.0
50.948	6.0
50.963	3.0
50.978	7.0
50.993	7.0
51.008	8.0
51.023	0.0
51.038	1.0
51.053	5.0
51.068	5.0
51.083	6.0
51.098	7.0
51.114	4.0
51.129	3.0
51.144	3.0
51.159	2.0
51.174	5.0
51.189	4.0
51.204	7.0
51.219	7.0
51.234	2.0
51.249	8.0
51.264	2.0
51.279	3.0
51.294	6.0
51.309	5.0
51.324	10.0
51.34	8.0
51.355	5.0
51.37	7.0
51.385	6.0
51.4	9.0
51.415	8.0
51.43	12.0
51.445	11.0
51.46	9.0
51.475	13.0
51.49	13.0
51.505	11.0
51.52	17.0
51.535	14.0
51.551	15.0
51.566	11.0
51.581	12.0
51.596	16.0
51.611	9.0
51.626	12.0
51.641	7.0
51.656	6.0
51.671	4.0
51.686	7.0
51.701	5.0
51.716	8.0
51.732	8.0
51.747	3.0
51.762	3.0
51.777	7.0
51.792	4.0
51.807	7.0
51.822	7.0
51.837	12.0
51.852	14.0
51.867	8.0
51.882	10.0
51.898	10.0
51.913	10.0
51.928	6.0
51.943	7.0
51.958	4.0
51.973	2.0
51.988	6.0
52.003	6.0
52.018	5.0
52.033	8.0
52.048	4.0
52.064	6.0
52.079	11.0
52.094	1.0
52.109	2.0
52.124	5.0
52.139	7.0
52.154	4.0
52.169	5.0
52.184	3.0
52.199	3.0
52.215	5.0
52.23	3.0
52.245	2.0
52.26	8.0
52.275	2.0
52.29	2.0
52.305	4.0
52.32	2.0
52.335	2.0
52.35	4.0
52.366	3.0
52.381	1.0
52.396	4.0
52.411	7.0
52.426	7.0
52.441	8.0
52.456	11.0
52.471	5.0
52.486	4.0
52.502	5.0
52.517	7.0
52.532	2.0
52.547	8.0
52.562	8.0
52.577	10.0
52.592	6.0
52.607	6.0
52.622	8.0
52.637	4.0
52.653	6.0
52.668	3.0
52.683	6.0
52.698	3.0
52.713	8.0
52.728	6.0
52.743	9.0
52.758	8.0
52.774	7.0
52.789	2.0
52.804	6.0
52.819	2.0
52.834	7.0
52.849	7.0
52.864	6.0
52.879	4.0
52.894	6.0
52.91	11.0
52.925	3.0
52.94	7.0
52.955	3.0
52.97	4.0
52.985	6.0
53.0	5.0
53.015	7.0
53.031	6.0
53.046	2.0
53.061	7.0
53.076	3.0
53.091	3.0
53.106	2.0
53.121	5.0
53.136	5.0
53.152	1.0
53.167	4.0
53.182	1.0
53.197	5.0
53.212	3.0
53.227	3.0
53.242	0.0
53.257	6.0
53.273	3.0
53.288	8.0
53.303	5.0
53.318	7.0
53.333	0.0
53.348	5.0
53.363	2.0
53.379	5.0
53.394	4.0
53.409	4.0
53.424	5.0
53.439	1.0
53.454	3.0
53.469	3.0
53.484	4.0
53.5	2.0
53.515	4.0
53.53	4.0
53.545	2.0
53.56	5.0
53.575	3.0
53.59	7.0
53.606	2.0
53.621	4.0
53.636	1.0
53.651	0.0
53.666	4.0
53.681	10.0
53.696	2.0
53.712	3.0
53.727	2.0
53.742	5.0
53.757	2.0
53.772	5.0
53.787	5.0
53.802	1.0
53.818	6.0
53.833	3.0
53.848	5.0
53.863	5.0
53.878	5.0
53.893	4.0
53.909	4.0
53.924	3.0
53.939	3.0
53.954	2.0
53.969	4.0
53.984	5.0
53.999	6.0
54.015	4.0
54.03	2.0
54.045	1.0
54.06	6.0
54.075	4.0
54.09	0.0
54.106	6.0
54.121	2.0
54.136	4.0
54.151	3.0
54.166	4.0
54.181	7.0
54.197	4.0
54.212	2.0
54.227	5.0
54.242	3.0
54.257	8.0
54.272	8.0
54.288	6.0
54.303	2.0
54.318	2.0
54.333	3.0
54.348	6.0
54.363	4.0
54.379	2.0
54.394	8.0
54.409	2.0
54.424	5.0
54.439	7.0
54.454	2.0
54.47	6.0
54.485	6.0
54.5	3.0
54.515	4.0
54.53	7.0
54.545	9.0
54.561	5.0
54.576	9.0
54.591	10.0
54.606	12.0
54.621	7.0
54.636	14.0
54.652	11.0
54.667	13.0
54.682	4.0
54.697	13.0
54.712	7.0
54.727	9.0
54.743	6.0
54.758	6.0
54.773	7.0
54.788	8.0
54.803	10.0
54.819	2.0
54.834	4.0
54.849	5.0
54.864	6.0
54.879	1.0
54.894	6.0
54.91	8.0
54.925	7.0
54.94	5.0
54.955	5.0
54.97	7.0
54.985	14.0
55.001	9.0
55.016	6.0
55.031	6.0
55.046	8.0
55.061	10.0
55.077	8.0
55.092	7.0
55.107	5.0
55.122	6.0
55.137	5.0
55.152	4.0
55.168	5.0
55.183	4.0
55.198	7.0
55.213	5.0
55.228	7.0
55.243	2.0
55.259	2.0
55.274	3.0
55.289	2.0
55.304	4.0
55.319	4.0
55.335	2.0
55.35	6.0
55.365	3.0
55.38	7.0
55.395	1.0
55.41	4.0
55.426	6.0
55.441	3.0
55.456	7.0
55.471	6.0
55.486	5.0
55.501	12.0
55.517	3.0
55.532	10.0
55.547	3.0
55.562	2.0
55.577	4.0
55.592	4.0
55.608	7.0
55.623	3.0
55.638	5.0
55.653	4.0
55.668	6.0
55.683	10.0
55.699	6.0
55.714	8.0
55.729	6.0
55.744	5.0
55.759	6.0
55.774	1.0
55.79	4.0
55.805	5.0
55.82	5.0
55.835	2.0
55.85	9.0
55.865	2.0
55.881	7.0
55.896	3.0
55.911	7.0
55.926	5.0
55.941	3.0
55.956	6.0
55.972	4.0
55.987	5.0
56.002	14.0
56.017	2.0
56.032	7.0
56.047	4.0
56.063	2.0
56.078	3.0
56.093	8.0
56.108	4.0
56.123	5.0
56.138	7.0
56.154	4.0
56.169	3.0
56.184	4.0
56.199	4.0
56.214	2.0
56.229	3.0
56.244	3.0
56.26	3.0
56.275	3.0
56.29	8.0
56.305	4.0
56.32	1.0
56.335	0.0
56.351	4.0
56.366	7.0
56.381	6.0
56.396	10.0
56.411	10.0
56.426	4.0
56.441	6.0
56.457	5.0
56.472	4.0
56.487	4.0
56.502	3.0
56.517	4.0
56.532	4.0
56.547	4.0
56.563	2.0
56.578	3.0
56.593	2.0
56.608	4.0
56.623	3.0
56.638	3.0
56.653	5.0
56.668	1.0
56.684	3.0
56.699	1.0
56.714	1.0
56.729	1.0
56.744	4.0
56.759	6.0
56.774	2.0
56.79	5.0
56.805	5.0
56.82	5.0
56.835	5.0
56.85	6.0
56.865	2.0
56.88	5.0
56.895	9.0
56.911	3.0
56.926	1.0
56.941	5.0
56.956	3.0
56.971	2.0
56.986	4.0
57.001	5.0
57.016	8.0
57.031	2.0
57.047	4.0
57.062	2.0
57.077	7.0
57.092	1.0
57.107	4.0
57.122	5.0
57.137	7.0
57.152	7.0
57.167	6.0
57.183	2.0
57.198	5.0
57.213	4.0
57.228	2.0
57.243	5.0
57.258	6.0
57.273	1.0
57.288	3.0
57.303	3.0
57.318	7.0
57.334	5.0
57.349	1.0
57.364	4.0
57.379	0.0
57.394	3.0
57.409	4.0
57.424	6.0
57.439	7.0
57.454	3.0
57.469	9.0
57.484	5.0
57.5	4.0
57.515	12.0
57.53	4.0
57.545	5.0
57.56	3.0
57.575	3.0
57.59	4.0
57.605	4.0
57.62	6.0
57.635	5.0
57.65	9.0
57.665	7.0
57.68	8.0
57.696	7.0
57.711	7.0
57.726	8.0
57.741	6.0
57.756	4.0
57.771	4.0
57.786	2.0
57.801	3.0
57.816	0.0
57.831	10.0
57.846	7.0
57.861	5.0
57.876	6.0
57.891	8.0
57.906	4.0
57.921	2.0
57.937	6.0
57.952	5.0
57.967	4.0
57.982	0.0
57.997	1.0
58.012	6.0
58.027	3.0
58.042	3.0
58.057	5.0
58.072	6.0
58.087	1.0
58.102	9.0
58.117	7.0
58.132	2.0
58.147	6.0
58.162	5.0
58.177	5.0
58.192	4.0
58.207	5.0
58.222	3.0
58.237	2.0
58.252	5.0
58.267	3.0
58.282	5.0
58.297	2.0
58.312	3.0
58.327	4.0
58.342	3.0
58.357	3.0
58.372	4.0
58.387	2.0
58.402	5.0
58.418	7.0
58.433	3.0
58.448	3.0
58.463	6.0
58.478	7.0
58.493	2.0
58.508	4.0
58.523	6.0
58.538	4.0
58.553	4.0
58.568	2.0
58.583	6.0
58.598	7.0
58.613	7.0
58.628	4.0
58.643	10.0
58.658	9.0
58.673	12.0
58.688	7.0
58.703	9.0
58.718	5.0
58.733	9.0
58.748	3.0
58.763	4.0
58.778	7.0
58.793	6.0
58.808	4.0
58.823	4.0
58.838	3.0
58.853	2.0
58.868	5.0
58.883	2.0
58.898	3.0
58.913	4.0
58.928	3.0
58.942	6.0
58.957	6.0
58.972	12.0
58.987	6.0
59.002	5.0
59.017	5.0
59.032	10.0
59.047	7.0
59.062	4.0
59.077	7.0
59.092	8.0
59.107	6.0
59.122	4.0
59.137	1.0
59.152	1.0
59.167	1.0
59.182	4.0
59.197	8.0
59.212	7.0
59.227	1.0
59.242	2.0
59.257	1.0
59.272	4.0
59.287	6.0
59.302	2.0
59.317	3.0
59.332	0.0
59.347	8.0
59.362	3.0
59.377	3.0
59.392	6.0
59.407	5.0
59.422	2.0
59.437	1.0
59.452	0.0
59.467	3.0
59.482	0.0
59.497	4.0
59.512	6.0
59.527	4.0
59.542	3.0
59.557	4.0
59.572	6.0
59.587	11.0
59.602	10.0
59.617	7.0
59.632	12.0
59.647	11.0
59.661	6.0
59.676	5.0
59.691	6.0
59.706	10.0
59.721	3.0
59.736	5.0
59.751	3.0
59.766	4.0
59.781	2.0
59.796	3.0
59.811	4.0
59.826	2.0
59.841	4.0
59.856	3.0
59.871	4.0
59.886	3.0
59.901	3.0
59.916	4.0
59.931	2.0
59.946	5.0
59.961	5.0
59.976	6.0
59.991	7.0
60.006	6.0
60.021	6.0
60.036	6.0
60.051	9.0
60.066	10.0
60.081	3.0
60.096	8.0
60.111	2.0
60.126	6.0
60.141	4.0
60.156	3.0
60.171	3.0
60.186	5.0
60.201	2.0
60.216	2.0
60.231	3.0
60.246	4.0
60.261	1.0
60.276	3.0
60.291	1.0
60.306	5.0
60.321	3.0
60.336	3.0
60.35	7.0
60.365	4.0
60.38	4.0
60.395	2.0
60.41	4.0
60.425	6.0
60.44	2.0
60.455	6.0
60.47	5.0
60.485	7.0
60.5	7.0
60.515	5.0
60.53	3.0
60.545	6.0
60.56	6.0
60.575	8.0
60.59	5.0
60.605	11.0
60.62	13.0
60.635	7.0
60.65	5.0
60.665	6.0
60.68	7.0
60.695	6.0
60.71	5.0
60.725	4.0
60.74	6.0
60.755	2.0
60.77	5.0
60.785	3.0
60.8	7.0
60.815	2.0
60.83	4.0
60.845	4.0
60.86	2.0
60.875	5.0
60.89	2.0
60.905	9.0
60.92	3.0
60.935	7.0
60.95	7.0
60.965	4.0
60.98	6.0
60.995	3.0
61.01	9.0
61.025	6.0
61.04	3.0
61.055	5.0
61.07	4.0
61.085	3.0
61.1	5.0
61.115	4.0
61.13	6.0
61.145	2.0
61.16	2.0
61.175	3.0
61.191	4.0
61.206	4.0
61.221	2.0
61.236	8.0
61.251	7.0
61.266	4.0
61.281	4.0
61.296	3.0
61.311	1.0
61.326	1.0
61.341	3.0
61.356	2.0
61.371	1.0
61.386	2.0
61.401	5.0
61.416	3.0
61.431	3.0
61.446	4.0
61.461	9.0
61.476	7.0
61.491	2.0
61.506	6.0
61.521	8.0
61.536	7.0
61.551	4.0
61.566	9.0
61.581	5.0
61.596	9.0
61.611	5.0
61.626	2.0
61.641	8.0
61.656	6.0
61.672	4.0
61.687	6.0
61.702	7.0
61.717	4.0
61.732	8.0
61.747	4.0
61.762	5.0
61.777	2.0
61.792	4.0
61.807	4.0
61.822	5.0
61.837	4.0
61.852	4.0
61.867	7.0
61.882	3.0
61.897	3.0
61.912	4.0
61.927	4.0
61.943	5.0
61.958	2.0
61.973	5.0
61.988	4.0
62.003	5.0
62.018	1.0
62.033	5.0
62.048	1.0
62.063	3.0
62.078	2.0
62.093	4.0
62.108	4.0
62.123	3.0
62.138	5.0
62.153	4.0
62.169	2.0
62.184	2.0
62.199	0.0
62.214	3.0
62.229	6.0
62.244	1.0
62.259	2.0
62.274	4.0
62.289	3.0
62.304	5.0
62.319	4.0
62.335	3.0
62.35	1.0
62.365	9.0
62.38	4.0
62.395	10.0
62.41	4.0
62.425	4.0
62.44	6.0
62.455	3.0
62.47	7.0
62.485	0.0
62.501	5.0
62.516	7.0
62.531	5.0
62.546	1.0
62.561	4.0
62.576	3.0
62.591	4.0
62.606	3.0
62.621	6.0
62.636	3.0
62.652	0.0
62.667	6.0
62.682	4.0
62.697	3.0
62.712	4.0
62.727	1.0
62.742	5.0
62.757	5.0
62.772	1.0
62.787	7.0
62.803	2.0
62.818	2.0
62.833	5.0
62.848	3.0
62.863	3.0
62.878	5.0
62.893	2.0
62.908	1.0
62.923	2.0
62.939	2.0
62.954	1.0
62.969	4.0
62.984	2.0
62.999	3.0
63.014	6.0
63.029	4.0
63.044	4.0
63.059	2.0
63.074	5.0
63.09	3.0
63.105	5.0
63.12	1.0
63.135	0.0
63.15	8.0
63.165	4.0
63.18	5.0
63.195	4.0
63.21	6.0
63.226	4.0
63.241	6.0
63.256	4.0
63.271	2.0
63.286	9.0
63.301	6.0
63.316	3.0
63.331	1.0
63.346	4.0
63.362	7.0
63.377	5.0
63.392	13.0
63.407	13.0
63.422	11.0
63.437	11.0
63.452	5.0
63.467	2.0
63.482	8.0
63.497	5.0
63.513	4.0
63.528	6.0
63.543	4.0
63.558	4.0
63.573	5.0
63.588	7.0
63.603	2.0
63.618	4.0
63.633	1.0
63.648	5.0
63.664	5.0
63.679	4.0
63.694	8.0
63.709	4.0
63.724	6.0
63.739	4.0
63.754	5.0
63.769	6.0
63.784	7.0
63.799	4.0
63.814	4.0
63.83	10.0
63.845	6.0
63.86	3.0
63.875	5.0
63.89	2.0
63.905	7.0
63.92	9.0
63.935	5.0
63.95	3.0
63.965	3.0
63.98	4.0
63.996	5.0
64.011	5.0
64.026	9.0
64.041	4.0
64.056	6.0
64.071	5.0
64.086	2.0
64.101	4.0
64.116	4.0
64.131	2.0
64.146	1.0
64.161	3.0
64.176	4.0
64.191	7.0
64.207	4.0
64.222	3.0
64.237	5.0
64.252	3.0
64.267	2.0
64.282	1.0
64.297	5.0
64.312	2.0
64.327	4.0
64.342	5.0
64.357	2.0
64.372	3.0
64.387	3.0
64.402	3.0
64.417	5.0
64.433	2.0
64.448	2.0
64.463	3.0
64.478	6.0
64.493	6.0
64.508	2.0
64.523	3.0
64.538	3.0
64.553	3.0
64.568	1.0
64.583	5.0
64.598	3.0
64.613	5.0
64.628	4.0
64.643	2.0
64.658	3.0
64.673	7.0
64.688	4.0
64.703	1.0
64.718	6.0
64.734	2.0
64.749	1.0
64.764	4.0
64.779	2.0
64.794	2.0
64.809	6.0
64.824	3.0
64.839	2.0
64.854	2.0
64.869	2.0
64.884	3.0
64.899	3.0
64.914	3.0
64.929	3.0
64.944	5.0
64.959	7.0
64.974	3.0
64.989	1.0
65.004	6.0
65.019	3.0
65.034	2.0
65.049	1.0
65.064	3.0
65.079	2.0
65.094	0.0
65.109	7.0
65.125	5.0
65.14	3.0
65.155	2.0
65.17	5.0
65.185	5.0
65.2	5.0
65.215	3.0
65.23	3.0
65.245	5.0
65.26	3.0
65.275	7.0
65.29	4.0
65.305	5.0
65.32	7.0
65.335	2.0
65.35	4.0
65.365	7.0
65.38	0.0
65.395	2.0
65.41	5.0
65.425	6.0
65.44	4.0
65.455	3.0
65.47	2.0
65.485	4.0
65.5	5.0
65.515	2.0
65.53	3.0
65.545	1.0
65.56	2.0
65.575	2.0
65.59	4.0
65.605	2.0
65.62	2.0
65.635	4.0
65.65	5.0
65.666	4.0
65.681	4.0
65.696	3.0
65.711	8.0
65.726	4.0
65.741	4.0
65.756	1.0
65.771	3.0
65.786	4.0
65.801	5.0
65.816	5.0
65.831	2.0
65.846	1.0
65.861	2.0
65.876	1.0
65.891	2.0
65.906	6.0
65.921	5.0
65.936	4.0
65.951	2.0
65.966	2.0
65.981	3.0
65.996	1.0
66.011	3.0
66.026	6.0
66.041	1.0
66.056	4.0
66.071	3.0
66.086	2.0
66.101	3.0
66.116	7.0
66.131	9.0
66.146	5.0
66.161	6.0
66.176	11.0
66.191	6.0
66.206	5.0
66.221	7.0
66.236	8.0
66.251	6.0
66.266	8.0
66.281	8.0
66.296	2.0
66.311	2.0
66.327	9.0
66.342	4.0
66.357	4.0
66.372	7.0
66.387	4.0
66.402	2.0
66.417	3.0
66.432	7.0
66.447	4.0
66.462	2.0
66.477	3.0
66.492	0.0
66.507	1.0
66.522	6.0
66.537	5.0
66.552	6.0
66.567	6.0
66.582	5.0
66.597	8.0
66.612	7.0
66.627	7.0
66.642	10.0
66.657	6.0
66.672	5.0
66.687	6.0
66.702	3.0
66.717	3.0
66.732	2.0
66.747	6.0
66.762	6.0
66.777	4.0
66.792	4.0
66.807	7.0
66.822	4.0
66.837	4.0
66.853	3.0
66.868	3.0
66.883	4.0
66.898	2.0
66.913	2.0
66.928	2.0
66.943	3.0
66.958	3.0
66.973	4.0
66.988	4.0
67.003	3.0
67.018	5.0
67.033	8.0
67.048	4.0
67.063	4.0
67.078	6.0
67.093	5.0
67.108	8.0
67.123	2.0
67.138	6.0
67.153	6.0
67.168	4.0
67.183	4.0
67.198	4.0
67.214	1.0
67.229	3.0
67.244	4.0
67.259	1.0
67.274	2.0
67.289	3.0
67.304	1.0
67.319	1.0
67.334	1.0
67.349	4.0
67.364	2.0
67.379	4.0
67.394	6.0
67.409	1.0
67.424	6.0
67.439	2.0
67.454	5.0
67.469	2.0
67.484	5.0
67.5	6.0
67.515	6.0
67.53	1.0
67.545	6.0
67.56	7.0
67.575	4.0
67.59	3.0
67.605	3.0
67.62	2.0
67.635	4.0
67.65	2.0
67.665	3.0
67.68	5.0
67.695	3.0
67.71	5.0
67.726	5.0
67.741	3.0
67.756	3.0
67.771	6.0
67.786	2.0
67.801	2.0
67.816	1.0
67.831	2.0
67.846	7.0
67.861	3.0
67.876	2.0
67.891	3.0
67.906	4.0
67.922	0.0
67.937	4.0
67.952	5.0
67.967	6.0
67.982	3.0
67.997	3.0
68.012	5.0
68.027	3.0
68.042	6.0
68.057	4.0
68.072	2.0
68.087	3.0
68.103	5.0
68.118	5.0
68.133	3.0
68.148	3.0
68.163	8.0
68.178	3.0
68.193	1.0
68.208	3.0
68.223	3.0
68.238	1.0
68.254	2.0
68.269	3.0
68.284	0.0
68.299	1.0
68.314	1.0
68.329	4.0
68.344	2.0
68.359	0.0
68.374	2.0
68.389	4.0
68.405	3.0
68.42	3.0
68.435	8.0
68.45	4.0
68.465	4.0
68.48	4.0
68.495	3.0
68.51	3.0
68.525	2.0
68.54	3.0
68.556	3.0
68.571	1.0
68.586	3.0
68.601	4.0
68.616	1.0
68.631	3.0
68.646	2.0
68.661	2.0
68.676	4.0
68.691	5.0
68.707	1.0
68.722	4.0
68.737	3.0
68.752	5.0
68.767	2.0
68.782	8.0
68.797	3.0
68.812	3.0
68.827	2.0
68.842	2.0
68.857	4.0
68.873	7.0
68.888	1.0
68.903	5.0
68.918	7.0
68.933	8.0
68.948	5.0
68.963	4.0
68.978	6.0
68.993	1.0
69.008	2.0
69.023	6.0
69.038	7.0
69.054	3.0
69.069	4.0
69.084	4.0
69.099	1.0
69.114	2.0
69.129	2.0
69.144	1.0
69.159	2.0
69.174	5.0
69.189	2.0
69.204	2.0
69.219	4.0
69.234	4.0
69.249	3.0
69.264	4.0
69.279	0.0
69.295	6.0
69.31	4.0
69.325	2.0
69.34	3.0
69.355	5.0
69.37	5.0
69.385	5.0
69.4	5.0
69.415	5.0
69.43	2.0
69.445	4.0
69.46	5.0
69.475	7.0
69.49	3.0
69.505	4.0
69.52	5.0
69.535	3.0
69.55	5.0
69.565	2.0
69.58	5.0
69.595	2.0
69.61	6.0
69.625	4.0
69.64	1.0
69.655	2.0
69.67	1.0
69.685	2.0
69.7	9.0
69.715	4.0
69.73	6.0
69.745	2.0
69.76	3.0
69.775	10.0
69.79	6.0
69.805	5.0
69.82	7.0
69.835	7.0
69.85	3.0
69.865	7.0
69.88	2.0
69.895	7.0
69.909	3.0
69.924	4.0
69.939	4.0
69.954	4.0
69.969	3.0
69.984	1.0
69.999	2.0
70.014	0.0
70.029	6.0
70.044	4.0
70.059	3.0
70.074	3.0
70.088	2.0
70.103	4.0
70.118	6.0
70.133	6.0
70.148	4.0
70.163	4.0
70.178	2.0
70.193	2.0
70.208	5.0
70.222	7.0
70.237	9.0
70.252	5.0
70.267	2.0
70.282	4.0
70.297	5.0
70.312	4.0
70.327	3.0
70.341	6.0
70.356	3.0
70.371	5.0
70.386	5.0
70.401	3.0
70.416	1.0
70.43	3.0
70.445	3.0
70.46	1.0
70.475	2.0
70.49	3.0
70.505	5.0
70.519	4.0
70.534	3.0
70.549	9.0
70.564	1.0
70.579	2.0
70.594	4.0
70.608	4.0
70.623	0.0
70.638	7.0
70.653	2.0
70.668	2.0
70.683	5.0
70.697	2.0
70.712	7.0
70.727	7.0
70.742	2.0
70.757	3.0
70.771	9.0
70.786	3.0
70.801	1.0
70.816	4.0
70.831	2.0
70.845	1.0
70.86	5.0
70.875	1.0
70.89	2.0
70.905	4.0
70.92	3.0
70.934	1.0
70.949	2.0
70.964	0.0
70.979	3.0
70.994	4.0
71.008	1.0
71.023	5.0
71.038	5.0
71.053	3.0
71.068	4.0
71.082	4.0
71.097	2.0
71.112	5.0
71.127	3.0
71.142	4.0
71.156	1.0
71.171	4.0
71.186	7.0
71.201	5.0
71.216	5.0
71.231	7.0
71.245	3.0
71.26	3.0
71.275	3.0
71.29	3.0
71.305	3.0
71.319	3.0
71.334	1.0
71.349	8.0
71.364	3.0
71.379	4.0
71.394	3.0
71.408	6.0
71.423	2.0
71.438	9.0
71.453	1.0
71.468	2.0
71.483	2.0
71.497	4.0
71.512	3.0
71.527	2.0
71.542	4.0
71.557	4.0
71.572	2.0
71.586	4.0
71.601	4.0
71.616	2.0
71.631	1.0
71.646	4.0
71.661	4.0
71.676	5.0
71.69	4.0
71.705	3.0
71.72	4.0
71.735	3.0
71.75	0.0
71.765	6.0
71.78	2.0
71.795	6.0
71.81	4.0
71.824	3.0
71.839	4.0
71.854	6.0
71.869	4.0
71.884	4.0
71.899	5.0
71.914	3.0
71.929	3.0
71.944	4.0
71.959	7.0
71.974	2.0
71.988	0.0
72.003	3.0
72.018	2.0
72.033	3.0
72.048	2.0
72.063	6.0
72.078	4.0
72.093	2.0
72.108	5.0
72.123	2.0
72.138	3.0
72.153	5.0
72.168	5.0
72.183	5.0
72.198	3.0
72.213	4.0
72.228	4.0
72.243	3.0
72.258	2.0
72.273	4.0
72.288	4.0
72.303	4.0
72.318	0.0
72.333	1.0
72.348	4.0
72.363	2.0
72.378	6.0
72.393	4.0
72.408	2.0
72.423	4.0
72.438	4.0
72.453	5.0
72.468	3.0
72.483	1.0
72.498	2.0
72.513	4.0
72.528	5.0
72.543	1.0
72.558	3.0
72.573	0.0
72.588	2.0
72.603	5.0
72.618	1.0
72.633	3.0
72.649	0.0
72.664	5.0
72.679	4.0
72.694	3.0
72.709	6.0
72.724	3.0
72.739	2.0
72.754	5.0
72.769	3.0
72.784	2.0
72.799	3.0
72.814	4.0
72.829	2.0
72.845	2.0
72.86	2.0
72.875	6.0
72.89	3.0
72.905	5.0
72.92	7.0
72.935	2.0
72.95	7.0
72.965	2.0
72.98	3.0
72.996	3.0
73.011	6.0
73.026	3.0
73.041	2.0
73.056	5.0
73.071	6.0
73.086	3.0
73.101	2.0
73.117	5.0
73.132	2.0
73.147	1.0
73.162	2.0
73.177	7.0
73.192	4.0
73.207	2.0
73.222	3.0
73.238	3.0
73.253	2.0
73.268	4.0
73.283	4.0
73.298	3.0
73.313	8.0
73.328	6.0
73.343	3.0
73.359	1.0
73.374	7.0
73.389	1.0
73.404	7.0
73.419	1.0
73.434	2.0
73.449	8.0
73.465	4.0
73.48	1.0
73.495	1.0
73.51	4.0
73.525	3.0
73.54	1.0
73.556	0.0
73.571	2.0
73.586	2.0
73.601	3.0
73.616	2.0
73.631	6.0
73.646	2.0
73.662	2.0
73.677	4.0
73.692	2.0
73.707	1.0
73.722	1.0
73.737	3.0
73.752	4.0
73.768	3.0
73.783	2.0
73.798	1.0
73.813	3.0
73.828	5.0
73.843	3.0
73.859	3.0
73.874	4.0
73.889	3.0
73.904	2.0
73.919	4.0
73.934	7.0
73.949	4.0
73.965	5.0
73.98	2.0
73.995	2.0
74.01	4.0
74.025	1.0
74.04	2.0
74.056	2.0
74.071	4.0
74.086	2.0
74.101	3.0
74.116	3.0
74.131	3.0
74.146	5.0
74.162	2.0
74.177	1.0
74.192	5.0
74.207	4.0
74.222	5.0
74.237	4.0
74.252	4.0
74.268	5.0
74.283	3.0
74.298	1.0
74.313	3.0
74.328	1.0
74.343	2.0
74.358	2.0
74.374	5.0
74.389	3.0
74.404	2.0
74.419	0.0
74.434	6.0
74.449	5.0
74.464	1.0
74.48	3.0
74.495	5.0
74.51	4.0
74.525	5.0
74.54	5.0
74.555	4.0
74.57	2.0
74.586	4.0
74.601	4.0
74.616	5.0
74.631	2.0
74.646	2.0
74.661	2.0
74.676	1.0
74.691	4.0
74.707	4.0
74.722	5.0
74.737	0.0
74.752	3.0
74.767	5.0
74.782	5.0
74.797	7.0
74.813	1.0
74.828	2.0
74.843	1.0
74.858	4.0
74.873	4.0
74.888	2.0
74.903	1.0
74.918	2.0
74.934	5.0
74.949	2.0
74.964	2.0
74.979	2.0
74.994	6.0
75.009	4.0
75.024	5.0
75.04	3.0
75.055	2.0
75.07	3.0
75.085	7.0
75.1	3.0
75.115	5.0
75.13	6.0
75.145	3.0
75.161	4.0
75.176	5.0
75.191	3.0
75.206	0.0
75.221	3.0
75.236	2.0
75.251	3.0
75.266	2.0
75.282	1.0
75.297	1.0
75.312	0.0
75.327	4.0
75.342	4.0
75.357	2.0
75.372	2.0
75.387	3.0
75.403	1.0
75.418	3.0
75.433	4.0
75.448	4.0
75.463	1.0
75.478	4.0
75.493	2.0
75.509	1.0
75.524	0.0
75.539	2.0
75.554	1.0
75.569	4.0
75.584	2.0
75.599	5.0
75.614	11.0
75.63	0.0
75.645	3.0
75.66	1.0
75.675	1.0
75.69	4.0
75.705	2.0
75.72	2.0
75.735	5.0
75.751	3.0
75.766	9.0
75.781	0.0
75.796	7.0
75.811	4.0
75.826	1.0
75.841	2.0
75.856	6.0
75.872	1.0
75.887	3.0
75.902	1.0
75.917	1.0
75.932	3.0
75.947	3.0
75.962	3.0
75.977	2.0
75.993	7.0
76.008	4.0
76.023	4.0
76.038	5.0
76.053	2.0
76.068	2.0
76.083	6.0
76.098	4.0
76.114	3.0
76.129	2.0
76.144	3.0
76.159	6.0
76.174	4.0
76.189	3.0
76.204	6.0
76.22	2.0
76.235	3.0
76.25	3.0
76.265	5.0
76.28	3.0
76.295	3.0
76.31	1.0
76.325	5.0
76.341	4.0
76.356	0.0
76.371	4.0
76.386	3.0
76.401	4.0
76.416	1.0
76.431	5.0
76.446	3.0
76.462	6.0
76.477	3.0
76.492	1.0
76.507	4.0
76.522	4.0
76.537	5.0
76.552	2.0
76.567	1.0
76.583	4.0
76.598	5.0
76.613	5.0
76.628	6.0
76.643	2.0
76.658	5.0
76.673	2.0
76.688	2.0
76.704	0.0
76.719	3.0
76.734	5.0
76.749	6.0
76.764	7.0
76.779	5.0
76.794	8.0
76.809	2.0
76.824	3.0
76.84	9.0
76.855	5.0
76.87	5.0
76.885	1.0
76.9	3.0
76.915	4.0
76.93	2.0
76.945	6.0
76.96	2.0
76.976	2.0
76.991	3.0
77.006	2.0
77.021	2.0
77.036	6.0
77.051	3.0
77.066	1.0
77.081	6.0
77.096	4.0
77.112	0.0
77.127	4.0
77.142	6.0
77.157	5.0
77.172	1.0
77.187	2.0
77.202	1.0
77.217	3.0
77.232	0.0
77.247	5.0
77.263	6.0
77.278	5.0
77.293	4.0
77.308	1.0
77.323	3.0
77.338	5.0
77.353	5.0
77.368	8.0
77.383	3.0
77.398	5.0
77.413	6.0
77.428	5.0
77.444	3.0
77.459	3.0
77.474	6.0
77.489	6.0
77.504	4.0
77.519	1.0
77.534	2.0
77.549	4.0
77.564	3.0
77.579	2.0
77.594	4.0
77.609	6.0
77.624	1.0
77.64	6.0
77.655	6.0
77.67	3.0
77.685	4.0
77.7	7.0
77.715	3.0
77.73	8.0
77.745	2.0
77.76	2.0
77.775	5.0
77.79	2.0
77.805	3.0
77.82	3.0
77.835	3.0
77.85	2.0
77.865	5.0
77.88	3.0
77.895	1.0
77.91	4.0
77.926	3.0
77.941	3.0
77.956	3.0
77.971	4.0
77.986	5.0
78.001	2.0
78.016	1.0
78.031	1.0
78.046	2.0
78.061	3.0
78.076	2.0
78.091	3.0
78.106	7.0
78.121	5.0
78.136	5.0
78.151	7.0
78.166	4.0
78.181	2.0
78.196	9.0
78.211	5.0
78.226	0.0
78.241	4.0
78.256	6.0
78.271	5.0
78.286	2.0
78.301	1.0
78.316	2.0
78.331	3.0
78.346	2.0
78.361	1.0
78.376	1.0
78.391	3.0
78.406	2.0
78.421	3.0
78.436	4.0
78.451	4.0
78.466	4.0
78.481	0.0
78.496	2.0
78.511	2.0
78.526	6.0
78.541	5.0
78.556	3.0
78.571	2.0
78.586	2.0
78.601	2.0
78.616	0.0
78.631	3.0
78.646	2.0
78.661	5.0
78.676	1.0
78.691	2.0
78.706	2.0
78.721	0.0
78.736	3.0
78.751	4.0
78.766	2.0
78.781	2.0
78.796	0.0
78.811	1.0
78.826	3.0
78.841	5.0
78.856	1.0
78.871	2.0
78.885	3.0
78.9	3.0
78.915	2.0
78.93	2.0
78.945	2.0
78.96	2.0
78.975	3.0
78.99	2.0
79.005	1.0
79.02	2.0
79.035	1.0
79.05	1.0
79.065	1.0
79.08	2.0
79.095	1.0
79.11	0.0
79.125	3.0
79.14	2.0
79.155	0.0
79.17	1.0
79.185	5.0
79.2	6.0
79.215	4.0
79.23	3.0
79.245	2.0
79.26	5.0
79.275	4.0
79.29	2.0
79.304	3.0
79.319	3.0
79.334	4.0
79.349	2.0
79.364	0.0
79.379	2.0
79.394	1.0
79.409	5.0
79.424	1.0
79.439	4.0
79.454	2.0
79.469	5.0
79.484	5.0
79.499	2.0
79.514	5.0
79.529	2.0
79.544	2.0
79.559	1.0
79.574	2.0
79.589	4.0
79.604	5.0
79.619	4.0
79.634	2.0
79.649	3.0
79.664	6.0
79.679	3.0
79.693	2.0
79.708	5.0
79.723	3.0
79.738	5.0
79.753	1.0
79.768	1.0
79.783	2.0
79.798	2.0
79.813	2.0
79.828	2.0
79.843	1.0
79.858	4.0
79.873	3.0
79.888	1.0
79.903	5.0
79.918	6.0
79.933	3.0
79.948	2.0
79.963	3.0
79.978	4.0
79.993	1.0
80.008	5.0
80.023	2.0
80.038	2.0
80.053	4.0
80.068	2.0
80.083	3.0
80.098	3.0
80.113	6.0
80.128	7.0
80.143	4.0
80.158	8.0
80.173	2.0
80.188	3.0
80.202	3.0
80.217	6.0
80.232	0.0
80.247	4.0
80.262	5.0
80.277	3.0
80.292	3.0
80.307	3.0
80.322	1.0
80.337	5.0
80.352	5.0
80.367	1.0
80.382	4.0
80.397	4.0
80.412	6.0
80.427	3.0
80.442	1.0
80.457	2.0
80.472	1.0
80.487	2.0
80.502	3.0
80.517	2.0
80.532	5.0
80.547	3.0
80.562	2.0
80.577	1.0
80.592	2.0
80.607	1.0
80.622	3.0
80.637	0.0
80.652	4.0
80.667	2.0
80.682	6.0
80.697	5.0
80.712	1.0
80.727	4.0
80.742	5.0
80.757	6.0
80.772	4.0
80.787	3.0
80.802	3.0
80.817	3.0
80.832	5.0
80.847	6.0
80.862	3.0
80.877	2.0
80.892	6.0
80.907	3.0
80.922	4.0
80.937	5.0
80.952	4.0
80.967	6.0
80.982	3.0
80.997	2.0
81.012	1.0
81.027	4.0
81.042	5.0
81.057	7.0
81.072	0.0
81.087	1.0
81.101	4.0
81.116	4.0
81.131	2.0
81.146	4.0
81.161	1.0
81.176	1.0
81.191	5.0
81.206	2.0
81.221	4.0
81.236	5.0
81.251	1.0
81.266	6.0
81.281	1.0
81.296	3.0
81.311	2.0
81.326	4.0
81.341	4.0
81.356	2.0
81.371	3.0
81.386	1.0
81.401	6.0
81.416	3.0
81.431	3.0
81.446	3.0
81.461	3.0
81.476	1.0
81.491	4.0
81.506	1.0
81.521	0.0
81.536	2.0
81.55	3.0
81.565	1.0
81.58	1.0
81.595	3.0
81.61	1.0
81.625	3.0
81.64	3.0
81.655	3.0
81.67	5.0
81.685	2.0
81.7	1.0
81.715	3.0
81.73	2.0
81.745	5.0
81.76	1.0
81.775	3.0
81.79	5.0
81.805	1.0
81.819	3.0
81.834	4.0
81.849	0.0
81.864	4.0
81.879	4.0
81.894	5.0
81.909	5.0
81.924	3.0
81.939	6.0
81.954	3.0
81.969	7.0
81.984	1.0
81.999	3.0
82.013	2.0
82.028	3.0
82.043	6.0
82.058	4.0
82.073	6.0
82.088	2.0
82.103	1.0
82.118	3.0
82.133	6.0
82.148	5.0
82.163	2.0
82.177	2.0
82.192	3.0
82.207	1.0
82.222	1.0
82.237	3.0
82.252	1.0
82.267	3.0
82.282	7.0
82.297	3.0
82.312	2.0
82.326	2.0
82.341	3.0
82.356	7.0
82.371	2.0
82.386	2.0
82.401	5.0
82.416	5.0
82.431	2.0
82.445	2.0
82.46	5.0
82.475	2.0
82.49	2.0
82.505	3.0
82.52	4.0
82.535	4.0
82.55	1.0
82.565	0.0
82.579	4.0
82.594	5.0
82.609	3.0
82.624	4.0
82.639	1.0
82.654	4.0
82.669	2.0
82.684	2.0
82.698	3.0
82.713	1.0
82.728	5.0
82.743	2.0
82.758	1.0
82.773	1.0
82.788	2.0
82.803	6.0
82.817	5.0
82.832	0.0
82.847	3.0
82.862	1.0
82.877	3.0
82.892	0.0
82.907	2.0
82.922	3.0
82.937	3.0
82.951	4.0
82.966	2.0
82.981	2.0
82.996	2.0
83.011	2.0
83.026	5.0
83.041	3.0
83.056	4.0
83.07	4.0
83.085	5.0
83.1	2.0
83.115	1.0
83.13	1.0
83.145	6.0
83.16	1.0
83.175	1.0
83.19	2.0
83.204	4.0
83.219	3.0
83.234	1.0
83.249	1.0
83.264	2.0
83.279	4.0
83.294	2.0
83.309	1.0
83.324	3.0
83.339	2.0
83.353	1.0
83.368	4.0
83.383	2.0
83.398	6.0
83.413	3.0
83.428	5.0
83.443	1.0
83.458	4.0
83.473	5.0
83.488	3.0
83.503	2.0
83.517	2.0
83.532	6.0
83.547	1.0
83.562	1.0
83.577	7.0
83.592	4.0
83.607	2.0
83.622	2.0
83.637	4.0
83.652	2.0
83.667	2.0
83.682	4.0
83.697	4.0
83.712	4.0
83.727	6.0
83.741	2.0
83.756	3.0
83.771	2.0
83.786	3.0
83.801	0.0
83.816	0.0
83.831	1.0
83.846	3.0
83.861	2.0
83.876	2.0
83.891	0.0
83.906	4.0
83.921	5.0
83.936	5.0
83.951	2.0
83.966	1.0
83.981	5.0
83.996	2.0
84.011	1.0
84.026	2.0
84.041	3.0
84.056	2.0
84.071	3.0
84.086	2.0
84.101	2.0
84.116	1.0
84.131	3.0
84.146	5.0
84.161	5.0
84.176	4.0
84.191	2.0
84.206	4.0
84.221	2.0
84.236	3.0
84.251	4.0
84.266	4.0
84.281	2.0
84.296	2.0
84.311	2.0
84.326	1.0
84.341	3.0
84.356	3.0
84.371	3.0
84.386	1.0
84.401	3.0
84.416	5.0
84.431	5.0
84.446	3.0
84.461	3.0
84.476	7.0
84.492	2.0
84.507	1.0
84.522	8.0
84.537	2.0
84.552	3.0
84.567	3.0
84.582	3.0
84.597	4.0
84.612	7.0
84.627	5.0
84.642	2.0
84.657	4.0
84.672	3.0
84.687	3.0
84.702	3.0
84.717	4.0
84.733	3.0
84.748	3.0
84.763	2.0
84.778	3.0
84.793	3.0
84.808	4.0
84.823	2.0
84.838	6.0
84.853	2.0
84.868	4.0
84.883	4.0
84.898	4.0
84.913	4.0
84.929	2.0
84.944	4.0
84.959	2.0
84.974	4.0
84.989	1.0
85.004	6.0
85.019	3.0
85.034	3.0
85.049	3.0
85.064	4.0
85.079	2.0
85.094	3.0
85.11	5.0
85.125	3.0
85.14	0.0
85.155	4.0
85.17	2.0
85.185	3.0
85.2	3.0
85.215	5.0
85.23	3.0
85.245	0.0
85.26	3.0
85.276	3.0
85.291	3.0
85.306	4.0
85.321	0.0
85.336	1.0
85.351	1.0
85.366	6.0
85.381	0.0
85.396	1.0
85.411	4.0
85.426	3.0
85.441	3.0
85.457	3.0
85.472	5.0
85.487	6.0
85.502	0.0
85.517	3.0
85.532	2.0
85.547	1.0
85.562	2.0
85.577	3.0
85.592	3.0
85.607	3.0
85.622	7.0
85.637	3.0
85.653	4.0
85.668	0.0
85.683	4.0
85.698	2.0
85.713	3.0
85.728	5.0
85.743	5.0
85.758	5.0
85.773	1.0
85.788	0.0
85.803	5.0
85.818	4.0
85.833	2.0
85.848	2.0
85.863	1.0
85.879	5.0
85.894	2.0
85.909	3.0
85.924	3.0
85.939	2.0
85.954	1.0
85.969	2.0
85.984	1.0
85.999	3.0
86.014	1.0
86.029	2.0
86.044	1.0
86.059	4.0
86.074	3.0
86.089	1.0
86.104	3.0
86.119	2.0
86.134	1.0
86.149	2.0
86.164	1.0
86.179	2.0
86.194	3.0
86.209	1.0
86.224	3.0
86.239	2.0
86.254	3.0
86.269	4.0
86.284	5.0
86.299	2.0
86.314	0.0
86.33	1.0
86.345	2.0
86.36	4.0
86.375	5.0
86.39	3.0
86.405	3.0
86.42	1.0
86.435	5.0
86.45	3.0
86.465	0.0
86.48	8.0
86.495	5.0
86.51	4.0
86.525	3.0
86.54	1.0
86.555	5.0
86.57	5.0
86.585	5.0
86.6	6.0
86.615	3.0
86.63	2.0
86.645	1.0
86.659	2.0
86.674	3.0
86.689	4.0
86.704	2.0
86.719	2.0
86.734	0.0
86.749	4.0
86.764	1.0
86.779	1.0
86.794	3.0
86.809	2.0
86.824	6.0
86.839	5.0
86.854	3.0
86.869	4.0
86.884	6.0
86.899	7.0
86.914	4.0
86.929	3.0
86.944	4.0
86.959	1.0
86.974	2.0
86.989	1.0
87.004	3.0
87.019	5.0
87.034	4.0
87.049	4.0
87.064	5.0
87.079	3.0
87.094	3.0
87.109	1.0
87.124	2.0
87.139	4.0
87.154	3.0
87.169	3.0
87.184	2.0
87.199	2.0
87.214	3.0
87.229	2.0
87.244	3.0
87.259	3.0
87.274	1.0
87.289	0.0
87.304	1.0
87.319	1.0
87.334	4.0
87.349	1.0
87.364	1.0
87.379	3.0
87.394	0.0
87.409	1.0
87.424	6.0
87.438	6.0
87.453	2.0
87.468	1.0
87.483	7.0
87.498	0.0
87.513	1.0
87.528	1.0
87.543	5.0
87.558	8.0
87.573	3.0
87.588	3.0
87.603	5.0
87.618	1.0
87.633	7.0
87.648	4.0
87.663	2.0
87.678	2.0
87.693	4.0
87.708	7.0
87.723	1.0
87.738	4.0
87.753	4.0
87.768	4.0
87.783	4.0
87.798	2.0
87.813	3.0
87.828	3.0
87.843	6.0
87.858	3.0
87.873	5.0
87.888	2.0
87.903	1.0
87.918	2.0
87.933	5.0
87.948	3.0
87.963	4.0
87.978	1.0
87.993	0.0
88.008	2.0
88.023	0.0
88.038	1.0
88.053	3.0
88.068	1.0
88.083	1.0
88.098	3.0
88.113	4.0
88.128	5.0
88.143	2.0
88.158	0.0
88.174	4.0
88.189	2.0
88.204	4.0
88.219	2.0
88.234	4.0
88.249	2.0
88.264	0.0
88.279	3.0
88.294	2.0
88.309	2.0
88.324	2.0
88.339	0.0
88.354	3.0
88.369	0.0
88.384	0.0
88.399	2.0
88.414	2.0
88.429	3.0
88.444	3.0
88.459	4.0
88.474	0.0
88.489	5.0
88.504	3.0
88.519	6.0
88.534	3.0
88.549	2.0
88.564	6.0
88.58	4.0
88.595	6.0
88.61	1.0
88.625	3.0
88.64	1.0
88.655	4.0
88.67	3.0
88.685	1.0
88.7	1.0
88.715	1.0
88.73	3.0
88.745	2.0
88.76	2.0
88.775	0.0
88.79	3.0
88.805	2.0
88.82	4.0
88.835	5.0
88.85	2.0
88.865	1.0
88.88	2.0
88.895	2.0
88.911	3.0
88.926	3.0
88.941	2.0
88.956	0.0
88.971	1.0
88.986	0.0
89.001	5.0
89.016	1.0
89.031	5.0
89.046	3.0
89.061	2.0
89.076	3.0
89.091	1.0
89.106	2.0
89.121	7.0
89.136	0.0
89.151	0.0
89.166	7.0
89.181	3.0
89.196	5.0
89.211	3.0
89.227	2.0
89.242	3.0
89.257	2.0
89.272	3.0
89.287	2.0
89.302	3.0
89.317	2.0
89.332	6.0
89.347	5.0
89.362	5.0
89.377	3.0
89.392	2.0
89.407	6.0
89.422	6.0
89.437	5.0
89.452	4.0
89.467	1.0
89.482	3.0
89.497	2.0
89.512	2.0
89.527	3.0
89.542	3.0
89.557	3.0
89.572	1.0
89.587	2.0
89.602	1.0
89.617	1.0
89.632	5.0
89.647	3.0
89.662	0.0
89.677	4.0
89.693	2.0
89.708	2.0
89.723	3.0
89.738	3.0
89.753	4.0
89.768	1.0
89.783	0.0
89.798	2.0
89.813	5.0
89.828	3.0
89.843	4.0
89.858	0.0
89.873	0.0
89.888	0.0
89.903	5.0
89.918	4.0
89.933	4.0
89.948	2.0
89.963	7.0
89.978	3.0
89.993	3.0
90.008	1.0
90.023	1.0
90.038	4.0
90.053	1.0
90.068	6.0
90.083	5.0
90.097	1.0
90.112	6.0
90.127	6.0
90.142	2.0
90.157	2.0
90.172	5.0
90.187	2.0
90.202	5.0
90.217	2.0
90.232	5.0
90.247	5.0
90.262	4.0
90.277	5.0
90.292	4.0
90.307	6.0
90.322	1.0
90.337	5.0
90.352	4.0
90.367	7.0
90.382	1.0
90.397	4.0
90.412	9.0
90.427	4.0
90.442	4.0
90.457	2.0
90.472	1.0
90.487	0.0
90.501	5.0
90.516	3.0
90.531	5.0
90.546	3.0
90.561	1.0
90.576	3.0
90.591	3.0
90.606	3.0
90.621	4.0
90.636	1.0
90.651	4.0
90.666	2.0
90.681	3.0
90.696	8.0
90.711	2.0
90.726	2.0
90.741	0.0
90.755	1.0
90.77	1.0
90.785	2.0
90.8	4.0
90.815	3.0
90.83	5.0
90.845	2.0
90.86	2.0
90.875	1.0
90.89	9.0
90.905	4.0
90.92	2.0
90.935	4.0
90.95	4.0
90.965	4.0
90.979	1.0
90.994	3.0
91.009	6.0
91.024	2.0
91.039	3.0
91.054	2.0
91.069	4.0
91.084	1.0
91.099	3.0
91.114	3.0
91.129	6.0
91.144	4.0
91.159	3.0
91.174	4.0
91.188	1.0
91.203	0.0
91.218	3.0
91.233	1.0
91.248	0.0
91.263	3.0
91.278	4.0
91.293	6.0
91.308	7.0
91.323	2.0
91.338	3.0
91.353	6.0
91.368	4.0
91.383	0.0
91.398	3.0
91.412	2.0
91.427	2.0
91.442	4.0
91.457	5.0
91.472	2.0
91.487	1.0
91.502	3.0
91.517	5.0
91.532	3.0
91.547	5.0
91.562	7.0
91.577	1.0
91.592	2.0
91.607	2.0
91.622	2.0
91.637	3.0
91.652	1.0
91.666	2.0
91.681	5.0
91.696	5.0
91.711	1.0
91.726	4.0
91.741	2.0
91.756	2.0
91.771	1.0
91.786	3.0
91.801	0.0
91.816	1.0
91.831	3.0
91.846	2.0
91.861	2.0
91.876	2.0
91.891	1.0
91.906	3.0
91.921	1.0
91.936	0.0
91.951	2.0
91.966	2.0
91.981	0.0
91.995	2.0
92.01	6.0
92.025	2.0
92.04	4.0
92.055	4.0
92.07	3.0
92.085	4.0
92.1	8.0
92.115	3.0
92.13	4.0
92.145	3.0
92.16	3.0
92.175	3.0
92.19	4.0
92.205	1.0
92.22	5.0
92.235	5.0
92.25	2.0
92.265	2.0
92.28	3.0
92.295	4.0
92.31	2.0
92.325	3.0
92.34	2.0
92.355	3.0
92.37	2.0
92.385	2.0
92.4	4.0
92.415	1.0
92.43	2.0
92.445	2.0
92.46	3.0
92.475	6.0
92.49	2.0
92.505	2.0
92.52	2.0
92.535	1.0
92.55	4.0
92.565	2.0
92.58	3.0
92.595	1.0
92.61	7.0
92.625	5.0
92.64	1.0
92.655	2.0
92.67	6.0
92.685	5.0
92.7	2.0
92.715	3.0
92.73	2.0
92.745	4.0
92.76	4.0
92.775	5.0
92.79	6.0
92.805	2.0
92.82	4.0
92.835	6.0
92.85	4.0
92.865	1.0
92.88	1.0
92.895	3.0
92.91	3.0
92.925	1.0
92.94	4.0
92.955	3.0
92.97	1.0
92.985	2.0
93.0	2.0
93.015	4.0
93.03	1.0
93.045	1.0
93.06	4.0
93.075	2.0
93.09	2.0
93.105	3.0
93.12	3.0
93.135	4.0
93.15	3.0
93.165	5.0
93.18	2.0
93.195	2.0
93.21	2.0
93.225	0.0
93.24	3.0
93.255	3.0
93.27	5.0
93.285	1.0
93.3	2.0
93.315	3.0
93.33	3.0
93.345	3.0
93.36	1.0
93.375	3.0
93.39	0.0
93.405	4.0
93.42	2.0
93.435	3.0
93.45	1.0
93.465	3.0
93.48	5.0
93.495	3.0
93.51	2.0
93.525	2.0
93.54	4.0
93.555	2.0
93.57	2.0
93.585	5.0
93.6	4.0
93.615	2.0
93.63	1.0
93.645	2.0
93.66	4.0
93.675	2.0
93.69	4.0
93.705	1.0
93.72	7.0
93.735	2.0
93.75	1.0
93.765	2.0
93.78	7.0
93.795	5.0
93.81	4.0
93.824	3.0
93.839	5.0
93.854	1.0
93.869	2.0
93.884	1.0
93.899	4.0
93.914	0.0
93.929	2.0
93.944	1.0
93.959	2.0
93.974	5.0
93.989	0.0
94.004	3.0
94.019	1.0
94.034	2.0
94.049	3.0
94.064	1.0
94.079	3.0
94.094	1.0
94.108	4.0
94.123	3.0
94.138	1.0
94.153	2.0
94.168	3.0
94.183	2.0
94.198	2.0
94.213	4.0
94.228	5.0
94.243	5.0
94.258	3.0
94.273	0.0
94.288	3.0
94.302	5.0
94.317	3.0
94.332	5.0
94.347	6.0
94.362	3.0
94.377	5.0
94.392	6.0
94.407	3.0
94.422	7.0
94.437	5.0
94.452	3.0
94.466	6.0
94.481	3.0
94.496	3.0
94.511	2.0
94.526	1.0
94.541	5.0
94.556	1.0
94.571	4.0
94.586	2.0
94.601	2.0
94.615	7.0
94.63	5.0
94.645	6.0
94.66	4.0
94.675	6.0
94.69	1.0
94.705	3.0
94.72	5.0
94.735	2.0
94.749	2.0
94.764	0.0
94.779	1.0
94.794	3.0
94.809	3.0
94.824	3.0
94.839	2.0
94.854	2.0
94.868	3.0
94.883	4.0
94.898	2.0
94.913	4.0
94.928	5.0
94.943	4.0
94.958	2.0
94.973	2.0
94.987	3.0
95.002	2.0
95.017	4.0
95.032	6.0
95.047	3.0
95.062	3.0
95.077	4.0
95.092	1.0
95.106	3.0
95.121	2.0
95.136	2.0
95.151	2.0
95.166	2.0
95.181	5.0
95.196	6.0
95.211	4.0
95.226	3.0
95.24	2.0
95.255	6.0
95.27	1.0
95.285	3.0
95.3	2.0
95.315	5.0
95.33	0.0
95.345	2.0
95.359	4.0
95.374	5.0
95.389	2.0
95.404	0.0
95.419	3.0
95.434	4.0
95.449	2.0
95.464	1.0
95.478	4.0
95.493	3.0
95.508	5.0
95.523	3.0
95.538	5.0
95.553	4.0
95.568	4.0
95.583	1.0
95.597	5.0
95.612	2.0
95.627	2.0
95.642	3.0
95.657	2.0
95.672	4.0
95.687	1.0
95.702	6.0
95.717	3.0
95.731	4.0
95.746	0.0
95.761	2.0
95.776	2.0
95.791	3.0
95.806	1.0
95.821	2.0
95.836	0.0
95.851	6.0
95.866	1.0
95.88	2.0
95.895	2.0
95.91	3.0
95.925	3.0
95.94	2.0
95.955	3.0
95.97	3.0
95.985	6.0
96.0	5.0
96.015	6.0
96.029	5.0
96.044	4.0
96.059	3.0
96.074	7.0
96.089	1.0
96.104	3.0
96.119	5.0
96.134	3.0
96.149	4.0
96.164	4.0
96.179	2.0
96.194	7.0
96.208	1.0
96.223	4.0
96.238	1.0
96.253	0.0
96.268	3.0
96.283	2.0
96.298	4.0
96.313	1.0
96.328	1.0
96.343	1.0
96.358	1.0
96.373	2.0
96.388	0.0
96.403	4.0
96.417	4.0
96.432	3.0
96.447	6.0
96.462	2.0
96.477	1.0
96.492	5.0
96.507	1.0
96.522	2.0
96.537	4.0
96.552	4.0
96.567	3.0
96.582	1.0
96.597	10.0
96.612	3.0
96.627	2.0
96.642	5.0
96.656	1.0
96.671	3.0
96.686	1.0
96.701	0.0
96.716	4.0
96.731	4.0
96.746	4.0
96.761	3.0
96.776	4.0
96.791	2.0
96.806	3.0
96.821	7.0
96.836	2.0
96.851	4.0
96.866	4.0
96.881	3.0
96.896	2.0
96.911	6.0
96.926	2.0
96.94	3.0
96.955	3.0
96.97	7.0
96.985	4.0
97.0	3.0
97.015	3.0
97.03	3.0
97.045	6.0
97.06	4.0
97.075	3.0
97.09	3.0
97.105	3.0
97.12	7.0
97.135	2.0
97.15	2.0
97.165	3.0
97.18	2.0
97.195	2.0
97.21	1.0
97.225	2.0
97.239	3.0
97.254	2.0
97.269	4.0
97.284	2.0
97.299	4.0
97.314	2.0
97.329	4.0
97.344	2.0
97.359	3.0
97.374	2.0
97.389	5.0
97.404	1.0
97.419	5.0
97.434	11.0
97.449	1.0
97.464	1.0
97.479	2.0
97.494	3.0
97.509	2.0
97.524	2.0
97.538	5.0
97.553	8.0
97.568	1.0
97.583	6.0
97.598	2.0
97.613	2.0
97.628	6.0
97.643	1.0
97.658	3.0
97.673	4.0
97.688	5.0
97.703	2.0
97.718	2.0
97.733	7.0
97.748	4.0
97.763	2.0
97.778	1.0
97.792	6.0
97.807	3.0
97.822	1.0
97.837	4.0
97.852	4.0
97.867	3.0
97.882	3.0
97.897	4.0
97.912	0.0
97.927	3.0
97.942	4.0
97.957	3.0
97.972	5.0
97.987	1.0
98.001	1.0
98.016	2.0
98.031	4.0
98.046	1.0
98.061	2.0
98.076	4.0
98.091	4.0
98.106	6.0
98.121	4.0
98.136	4.0
98.151	0.0
98.166	4.0
98.181	6.0
98.195	0.0
98.21	2.0
98.225	2.0
98.24	1.0
98.255	2.0
98.27	3.0
98.285	1.0
98.3	1.0
98.315	1.0
98.33	6.0
98.345	2.0
98.359	6.0
98.374	3.0
98.389	3.0
98.404	3.0
98.419	8.0
98.434	4.0
98.449	4.0
98.464	3.0
98.479	3.0
98.494	2.0
98.508	2.0
98.523	4.0
98.538	3.0
98.553	2.0
98.568	7.0
98.583	1.0
98.598	3.0
98.613	0.0
98.628	4.0
98.642	2.0
98.657	5.0
98.672	2.0
98.687	0.0
98.702	2.0
98.717	1.0
98.732	5.0
98.747	4.0
98.762	3.0
98.776	3.0
98.791	2.0
98.806	1.0
98.821	1.0
98.836	0.0
98.851	1.0
98.866	3.0
98.881	1.0
98.896	3.0
98.91	3.0
98.925	1.0
98.94	5.0
98.955	2.0
98.97	1.0
98.985	2.0
99.0	3.0
99.015	5.0
99.029	1.0
99.044	2.0
99.059	1.0
99.074	2.0
99.089	4.0
99.104	3.0
99.119	2.0
99.133	1.0
99.148	5.0
99.163	0.0
99.178	1.0
99.193	1.0
99.208	4.0
99.223	4.0
99.238	3.0
99.252	3.0
99.267	1.0
99.282	4.0
99.297	4.0
99.312	2.0
99.327	6.0
99.342	1.0
99.356	4.0
99.371	5.0
99.386	2.0
99.401	3.0
99.416	3.0
99.431	2.0
99.446	1.0
99.461	7.0
99.475	2.0
99.49	4.0
99.505	4.0
99.52	5.0
99.535	5.0
99.55	4.0
99.565	7.0
99.579	4.0
99.594	4.0
99.609	1.0
99.624	1.0
99.639	4.0
99.654	5.0
99.669	1.0
99.683	2.0
99.698	4.0
99.713	1.0
99.728	5.0
99.743	6.0
99.758	0.0
99.772	4.0
99.787	1.0
99.802	2.0
99.817	0.0
99.832	7.0
99.847	4.0
99.862	5.0
99.876	1.0
99.891	0.0
99.906	4.0
99.921	1.0
99.936	3.0
99.951	3.0
99.966	2.0
99.98	3.0
99.995	5.0
100.01	8.0
100.025	4.0
100.04	2.0
100.055	3.0
100.069	2.0
100.084	2.0
100.099	1.0
100.114	5.0
100.129	3.0
100.144	1.0
100.159	2.0
100.173	2.0
100.188	2.0
100.203	3.0
100.218	3.0
100.233	2.0
100.248	2.0
100.262	5.0
100.277	6.0
100.292	5.0
100.307	4.0
100.322	5.0
100.337	7.0
100.351	2.0
100.366	3.0
100.381	4.0
100.396	4.0
100.411	6.0
100.426	3.0
100.441	3.0
100.455	2.0
100.47	1.0
100.485	1.0
100.5	5.0
100.515	0.0
100.53	5.0
100.544	2.0
100.559	4.0
100.574	2.0
100.589	3.0
100.604	1.0
100.619	2.0
100.633	3.0
100.648	2.0
100.663	4.0
100.678	2.0
100.693	4.0
100.708	4.0
100.722	1.0
100.737	2.0
100.752	4.0
100.767	2.0
100.782	1.0
100.796	3.0
100.811	3.0
100.826	2.0
100.841	3.0
100.856	3.0
100.871	1.0
100.885	1.0
100.9	4.0
100.915	5.0
100.93	2.0
100.945	7.0
100.96	3.0
100.974	1.0
100.989	2.0
101.004	2.0
101.019	5.0
101.034	3.0
101.048	2.0
101.063	5.0
101.078	5.0
101.093	5.0
101.108	1.0
101.123	2.0
101.137	3.0
101.152	5.0
101.167	3.0
101.182	2.0
101.197	4.0
101.211	5.0
101.226	7.0
101.241	2.0
101.256	0.0
101.271	3.0
101.285	7.0
101.3	2.0
101.315	4.0
101.33	2.0
101.345	5.0
101.359	2.0
101.374	2.0
101.389	6.0
101.404	4.0
101.419	4.0
101.433	0.0
101.448	6.0
101.463	2.0
101.478	3.0
101.493	8.0
101.507	3.0
101.522	2.0
101.537	2.0
101.552	2.0
101.567	4.0
101.581	2.0
101.596	3.0
101.611	3.0
101.626	2.0
101.64	3.0
101.655	6.0
101.67	3.0
101.685	6.0
101.7	0.0
101.714	4.0
101.729	1.0
101.744	8.0
101.759	2.0
101.773	2.0
101.788	2.0
101.803	5.0
101.818	2.0
101.833	3.0
101.847	5.0
101.862	4.0
101.877	4.0
101.892	3.0
101.906	3.0
101.921	4.0
101.936	1.0
101.951	4.0
101.965	2.0
101.98	3.0
101.995	7.0
102.01	4.0
102.025	4.0
102.039	4.0
102.054	2.0
102.069	4.0
102.084	2.0
102.098	3.0
102.113	2.0
102.128	4.0
102.143	1.0
102.157	2.0
102.172	1.0
102.187	1.0
102.202	1.0
102.216	2.0
102.231	4.0
102.246	1.0
102.261	1.0
102.275	3.0
102.29	4.0
102.305	4.0
102.32	3.0
102.334	3.0
102.349	4.0
102.364	4.0
102.378	3.0
102.393	4.0
102.408	4.0
102.423	5.0
102.437	1.0
102.452	3.0
102.467	3.0
102.482	3.0
102.496	8.0
102.511	3.0
102.526	2.0
102.541	5.0
102.555	3.0
102.57	3.0
102.585	2.0
102.6	2.0
102.614	1.0
102.629	1.0
102.644	2.0
102.659	7.0
102.673	2.0
102.688	7.0
102.703	5.0
102.717	1.0
102.732	2.0
102.747	5.0
102.762	3.0
102.776	1.0
102.791	2.0
102.806	1.0
102.821	4.0
102.835	5.0
102.85	1.0
102.865	7.0
102.88	2.0
102.894	6.0
102.909	3.0
102.924	3.0
102.938	5.0
102.953	0.0
102.968	4.0
102.983	1.0
102.997	5.0
103.012	2.0
103.027	2.0
103.042	2.0
103.056	2.0
103.071	4.0
103.086	1.0
103.101	5.0
103.115	3.0
103.13	3.0
103.145	3.0
103.16	4.0
103.174	3.0
103.189	3.0
103.204	0.0
103.219	4.0
103.233	0.0
103.248	3.0
103.263	2.0
103.278	5.0
103.292	3.0
103.307	4.0
103.322	6.0
103.337	7.0
103.351	5.0
103.366	1.0
103.381	3.0
103.396	5.0
103.41	4.0
103.425	5.0
103.44	2.0
103.455	5.0
103.469	2.0
103.484	5.0
103.499	3.0
103.514	8.0
103.529	2.0
103.543	1.0
103.558	5.0
103.573	3.0
103.588	4.0
103.602	3.0
103.617	3.0
103.632	4.0
103.647	1.0
103.661	0.0
103.676	1.0
103.691	3.0
103.706	2.0
103.721	2.0
103.735	0.0
103.75	2.0
103.765	7.0
103.78	1.0
103.795	2.0
103.809	3.0
103.824	1.0
103.839	3.0
103.854	4.0
103.869	4.0
103.883	4.0
103.898	5.0
103.913	1.0
103.928	3.0
103.943	1.0
103.957	0.0
103.972	5.0
103.987	3.0
104.002	1.0
104.017	3.0
104.031	3.0
104.046	1.0
104.061	2.0
104.076	3.0
104.091	3.0
104.106	3.0
104.12	1.0
104.135	2.0
104.15	2.0
104.165	3.0
104.18	5.0
104.195	3.0
104.209	2.0
104.224	3.0
104.239	1.0
104.254	2.0
104.269	1.0
104.284	5.0
104.299	0.0
104.313	1.0
104.328	6.0
104.343	1.0
104.358	2.0
104.373	4.0
104.388	6.0
104.403	5.0
104.417	1.0
104.432	4.0
104.447	3.0
104.462	5.0
104.477	4.0
104.492	4.0
104.507	5.0
104.522	3.0
104.536	2.0
104.551	1.0
104.566	4.0
104.581	5.0
104.596	3.0
104.611	3.0
104.626	5.0
104.641	3.0
104.656	4.0
104.67	4.0
104.685	6.0
104.7	4.0
104.715	3.0
104.73	3.0
104.745	2.0
104.76	6.0
104.775	9.0
104.79	4.0
104.804	2.0
104.819	1.0
104.834	5.0
104.849	5.0
104.864	2.0
104.879	1.0
104.894	2.0
104.909	1.0
104.924	3.0
104.939	3.0
104.954	5.0
104.968	4.0
104.983	2.0
104.998	2.0
105.013	1.0
105.028	2.0
105.043	8.0
105.058	3.0
105.073	3.0
105.088	7.0
105.103	3.0
105.118	1.0
105.133	2.0
105.147	3.0
105.162	3.0
105.177	1.0
105.192	5.0
105.207	1.0
105.222	6.0
105.237	2.0
105.252	3.0
105.267	3.0
105.282	1.0
105.297	6.0
105.312	5.0
105.327	3.0
105.342	3.0
105.356	0.0
105.371	4.0
105.386	3.0
105.401	1.0
105.416	3.0
105.431	4.0
105.446	0.0
105.461	1.0
105.476	1.0
105.491	0.0
105.506	4.0
105.521	0.0
105.536	7.0
105.551	5.0
105.566	2.0
105.581	3.0
105.595	1.0
105.61	6.0
105.625	2.0
105.64	1.0
105.655	3.0
105.67	1.0
105.685	5.0
105.7	3.0
105.715	8.0
105.73	5.0
105.745	0.0
105.76	2.0
105.775	3.0
105.79	6.0
105.805	3.0
105.82	6.0
105.835	3.0
105.85	5.0
105.864	4.0
105.879	1.0
105.894	2.0
105.909	3.0
105.924	1.0
105.939	2.0
105.954	1.0
105.969	4.0
105.984	4.0
105.999	5.0
106.014	3.0
106.029	5.0
106.044	2.0
106.059	2.0
106.074	3.0
106.089	2.0
106.104	1.0
106.119	3.0
106.134	3.0
106.148	4.0
106.163	3.0
106.178	0.0
106.193	4.0
106.208	3.0
106.223	1.0
106.238	2.0
106.253	3.0
106.268	5.0
106.283	0.0
106.298	2.0
106.313	3.0
106.328	3.0
106.343	3.0
106.358	5.0
106.373	2.0
106.388	5.0
106.403	0.0
106.418	0.0
106.432	3.0
106.447	2.0
106.462	4.0
106.477	2.0
106.492	5.0
106.507	3.0
106.522	4.0
106.537	2.0
106.552	0.0
106.567	2.0
106.582	2.0
106.597	2.0
106.612	8.0
106.627	1.0
106.642	2.0
106.657	3.0
106.672	4.0
106.687	3.0
106.701	3.0
106.716	0.0
106.731	3.0
106.746	0.0
106.761	4.0
106.776	2.0
106.791	3.0
106.806	2.0
106.821	1.0
106.836	4.0
106.851	3.0
106.866	2.0
106.881	2.0
106.896	3.0
106.911	1.0
106.926	2.0
106.941	3.0
106.955	4.0
106.97	5.0
106.985	1.0
107.0	3.0
107.015	2.0
107.03	5.0
107.045	4.0
107.06	3.0
107.075	6.0
107.09	3.0
107.105	3.0
107.12	2.0
107.135	5.0
107.15	5.0
107.165	3.0
107.18	4.0
107.194	1.0
107.209	4.0
107.224	5.0
107.239	5.0
107.254	4.0
107.269	4.0
107.284	5.0
107.299	2.0
107.314	7.0
107.329	2.0
107.344	4.0
107.359	0.0
107.374	2.0
107.389	1.0
107.404	3.0
107.418	2.0
107.433	4.0
107.448	3.0
107.463	6.0
107.478	2.0
107.493	6.0
107.508	1.0
107.523	2.0
107.538	6.0
107.553	2.0
107.568	2.0
107.583	3.0
107.598	7.0
107.613	2.0
107.627	4.0
107.642	6.0
107.657	1.0
107.672	4.0
107.687	3.0
107.702	2.0
107.717	4.0
107.732	3.0
107.747	0.0
107.762	2.0
107.777	3.0
107.792	1.0
107.807	5.0
107.821	0.0
107.836	2.0
107.851	4.0
107.866	2.0
107.881	1.0
107.896	2.0
107.911	4.0
107.926	3.0
107.941	4.0
107.956	6.0
107.971	2.0
107.986	2.0
108.0	3.0
108.015	1.0
108.03	5.0
108.045	6.0
108.06	5.0
108.075	2.0
108.09	4.0
108.105	9.0
108.12	1.0
108.135	6.0
108.15	5.0
108.164	3.0
108.179	7.0
108.194	3.0
108.209	0.0
108.224	2.0
108.239	2.0
108.254	11.0
108.269	4.0
108.284	2.0
108.299	4.0
108.313	4.0
108.328	2.0
108.343	1.0
108.358	2.0
108.373	3.0
108.388	2.0
108.403	5.0
108.418	4.0
108.433	4.0
108.448	3.0
108.462	3.0
108.477	0.0
108.492	4.0
108.507	4.0
108.522	3.0
108.537	2.0
108.552	3.0
108.567	3.0
108.582	2.0
108.597	2.0
108.611	1.0
108.626	3.0
108.641	0.0
108.656	5.0
108.671	2.0
108.686	7.0
108.701	2.0
108.716	1.0
108.731	6.0
108.745	1.0
108.76	3.0
108.775	3.0
108.79	5.0
108.805	6.0
108.82	3.0
108.835	2.0
108.85	6.0
108.865	3.0
108.879	7.0
108.894	5.0
108.909	3.0
108.924	4.0
108.939	2.0
108.954	2.0
108.969	2.0
108.984	6.0
108.999	4.0
109.013	2.0
109.028	9.0
109.043	6.0
109.058	5.0
109.073	4.0
109.088	2.0
109.103	4.0
109.118	1.0
109.133	4.0
109.147	5.0
109.162	3.0
109.177	4.0
109.192	5.0
109.207	2.0
109.222	4.0
109.237	4.0
109.252	4.0
109.267	5.0
109.281	1.0
109.296	0.0
109.311	2.0
109.326	2.0
109.341	1.0
109.356	1.0
109.371	2.0
109.386	3.0
109.4	1.0
109.415	2.0
109.43	2.0
109.445	3.0
109.46	2.0
109.475	3.0
109.49	3.0
109.505	2.0
109.52	7.0
109.534	3.0
109.549	2.0
109.564	3.0
109.579	3.0
109.594	2.0
109.609	2.0
109.624	4.0
109.639	3.0
109.653	3.0
109.668	2.0
109.683	0.0
109.698	4.0
109.713	0.0
109.728	3.0
109.743	2.0
109.758	2.0
109.773	2.0
109.787	3.0
109.802	3.0
109.817	3.0
109.832	3.0
109.847	8.0
109.862	6.0
109.877	3.0
109.892	3.0
109.907	5.0
109.921	2.0
109.936	5.0
109.951	4.0
109.966	4.0
109.981	2.0
109.996	4.0
110.011	3.0
110.026	3.0
110.04	1.0
110.055	1.0
110.07	0.0
110.085	6.0
110.1	3.0
110.115	5.0
110.13	3.0
110.145	4.0
110.16	4.0
110.174	3.0
110.189	2.0
110.204	7.0
110.219	2.0
110.234	5.0
110.249	2.0
110.264	1.0
110.279	1.0
110.294	4.0
110.308	0.0
110.323	5.0
110.338	4.0
110.353	1.0
110.368	1.0
110.383	4.0
110.398	7.0
110.413	0.0
110.428	6.0
110.442	2.0
110.457	1.0
110.472	4.0
110.487	8.0
110.502	2.0
110.517	3.0
110.532	0.0
110.547	4.0
110.561	5.0
110.576	3.0
110.591	5.0
110.606	3.0
110.621	3.0
110.636	0.0
110.651	3.0
110.666	4.0
110.681	5.0
110.695	2.0
110.71	4.0
110.725	7.0
110.74	1.0
110.755	6.0
110.77	3.0
110.785	2.0
110.8	3.0
110.815	4.0
110.829	2.0
110.844	2.0
110.859	3.0
110.874	4.0
110.889	2.0
110.904	2.0
110.919	3.0
110.934	4.0
110.948	1.0
110.963	2.0
110.978	5.0
110.993	4.0
111.008	3.0
111.023	3.0
111.038	1.0
111.053	1.0
111.067	6.0
111.082	3.0
111.097	4.0
111.112	1.0
111.127	5.0
111.142	2.0
111.157	3.0
111.172	1.0
111.186	3.0
111.201	5.0
111.216	5.0
111.231	5.0
111.246	3.0
111.261	1.0
111.276	5.0
111.291	2.0
111.305	3.0
111.32	3.0
111.335	2.0
111.35	6.0
111.365	3.0
111.38	1.0
111.395	5.0
111.41	1.0
111.424	2.0
111.439	3.0
111.454	3.0
111.469	4.0
111.484	1.0
111.499	3.0
111.514	1.0
111.528	1.0
111.543	5.0
111.558	4.0
111.573	3.0
111.588	5.0
111.603	6.0
111.618	2.0
111.633	4.0
111.647	5.0
111.662	5.0
111.677	4.0
111.692	2.0
111.707	4.0
111.722	7.0
111.737	2.0
111.751	4.0
111.766	2.0
111.781	4.0
111.796	1.0
111.811	7.0
111.826	3.0
111.84	3.0
111.855	1.0
111.87	2.0
111.885	1.0
111.9	4.0
111.915	3.0
111.93	2.0
111.944	3.0
111.959	2.0
111.974	5.0
111.989	2.0
112.004	4.0
112.019	5.0
112.033	5.0
112.048	2.0
112.063	3.0
112.078	2.0
112.093	3.0
112.108	2.0
112.123	7.0
112.137	3.0
112.152	3.0
112.167	1.0
112.182	6.0
112.197	2.0
112.212	5.0
112.226	0.0
112.241	3.0
112.256	3.0
112.271	2.0
112.286	4.0
112.301	4.0
112.315	2.0
112.33	0.0
112.345	4.0
112.36	2.0
112.375	3.0
112.389	7.0
112.404	3.0
112.419	3.0
112.434	5.0
112.449	0.0
112.464	5.0
112.478	1.0
112.493	2.0
112.508	3.0
112.523	2.0
112.538	5.0
112.553	4.0
112.567	4.0
112.582	2.0
112.597	5.0
112.612	1.0
112.627	2.0
112.642	6.0
112.656	2.0
112.671	2.0
112.686	3.0
112.701	4.0
112.716	4.0
112.73	4.0
112.745	6.0
112.76	3.0
112.775	3.0
112.79	2.0
112.805	1.0
112.819	3.0
112.834	2.0
112.849	3.0
112.864	4.0
112.879	5.0
112.894	3.0
112.908	4.0
112.923	0.0
112.938	3.0
112.953	3.0
112.968	3.0
112.983	3.0
112.997	5.0
113.012	4.0
113.027	1.0
113.042	6.0
113.057	3.0
113.072	4.0
113.086	5.0
113.101	3.0
113.116	4.0
113.131	2.0
113.146	4.0
113.161	2.0
113.175	7.0
113.19	5.0
113.205	6.0
113.22	3.0
113.235	5.0
113.25	4.0
113.265	6.0
113.279	2.0
113.294	0.0
113.309	4.0
113.324	2.0
113.339	3.0
113.354	3.0
113.368	6.0
113.383	0.0
113.398	3.0
113.413	2.0
113.428	4.0
113.443	3.0
113.458	4.0
113.472	2.0
113.487	4.0
113.502	3.0
113.517	6.0
113.532	4.0
113.547	6.0
113.562	2.0
113.576	3.0
113.591	2.0
113.606	2.0
113.621	1.0
113.636	7.0
113.651	2.0
113.666	2.0
113.681	4.0
113.695	1.0
113.71	1.0
113.725	2.0
113.74	2.0
113.755	2.0
113.77	5.0
113.785	3.0
113.8	2.0
113.814	3.0
113.829	5.0
113.844	2.0
113.859	6.0
113.874	4.0
113.889	5.0
113.904	2.0
113.919	3.0
113.934	6.0
113.949	3.0
113.963	3.0
113.978	3.0
113.993	5.0
114.008	5.0
114.023	2.0
114.038	3.0
114.053	2.0
114.068	6.0
114.083	7.0
114.098	4.0
114.113	3.0
114.127	1.0
114.142	3.0
114.157	2.0
114.172	0.0
114.187	2.0
114.202	4.0
114.217	3.0
114.232	7.0
114.247	2.0
114.262	3.0
114.277	6.0
114.292	4.0
114.307	4.0
114.322	4.0
114.337	4.0
114.351	2.0
114.366	7.0
114.381	5.0
114.396	3.0
114.411	3.0
114.426	4.0
114.441	5.0
114.456	5.0
114.471	3.0
114.486	4.0
114.501	4.0
114.516	4.0
114.531	5.0
114.546	2.0
114.561	3.0
114.576	5.0
114.591	2.0
114.606	5.0
114.621	1.0
114.636	4.0
114.65	4.0
114.665	4.0
114.68	3.0
114.695	0.0
114.71	8.0
114.725	3.0
114.74	1.0
114.755	2.0
114.77	1.0
114.785	3.0
114.8	3.0
114.815	1.0
114.83	3.0
114.845	4.0
114.86	3.0
114.875	3.0
114.89	2.0
114.905	3.0
114.92	1.0
114.935	3.0
114.95	3.0
114.965	8.0
114.98	4.0
114.995	4.0
115.009	1.0
115.024	3.0
115.039	3.0
115.054	12.0
115.069	6.0
115.084	3.0
115.099	1.0
115.114	0.0
115.129	1.0
115.144	3.0
115.159	6.0
115.174	3.0
115.189	6.0
115.204	6.0
115.219	4.0
115.234	5.0
115.249	5.0
115.264	1.0
115.279	5.0
115.294	6.0
115.309	5.0
115.323	4.0
115.338	2.0
115.353	7.0
115.368	2.0
115.383	3.0
115.398	2.0
115.413	2.0
115.428	5.0
115.443	4.0
115.458	6.0
115.473	3.0
115.488	3.0
115.503	2.0
115.518	4.0
115.533	3.0
115.548	6.0
115.562	6.0
115.577	3.0
115.592	3.0
115.607	3.0
115.622	6.0
115.637	5.0
115.652	0.0
115.667	0.0
115.682	3.0
115.697	2.0
115.712	1.0
115.727	2.0
115.741	1.0
115.756	6.0
115.771	2.0
115.786	2.0
115.801	4.0
115.816	5.0
115.831	2.0
115.846	2.0
115.861	4.0
115.875	6.0
115.89	6.0
115.905	3.0
115.92	4.0
115.935	1.0
115.95	0.0
115.965	2.0
115.98	1.0
115.995	1.0
116.009	2.0
116.024	4.0
116.039	2.0
116.054	5.0
116.069	3.0
116.084	6.0
116.099	2.0
116.113	6.0
116.128	5.0
116.143	3.0
116.158	4.0
116.173	4.0
116.188	6.0
116.202	1.0
116.217	4.0
116.232	3.0
116.247	3.0
116.262	6.0
116.277	5.0
116.291	5.0
116.306	4.0
116.321	3.0
116.336	4.0
116.351	9.0
116.366	5.0
116.38	5.0
116.395	2.0
116.41	1.0
116.425	3.0
116.44	3.0
116.454	6.0
116.469	4.0
116.484	2.0
116.499	3.0
116.514	4.0
116.528	5.0
116.543	3.0
116.558	5.0
116.573	2.0
116.588	2.0
116.602	5.0
116.617	2.0
116.632	7.0
116.647	0.0
116.662	4.0
116.676	3.0
116.691	4.0
116.706	1.0
116.721	4.0
116.735	5.0
116.75	0.0
116.765	5.0
116.78	2.0
116.795	1.0
116.809	3.0
116.824	2.0
116.839	6.0
116.854	4.0
116.868	2.0
116.883	6.0
116.898	4.0
116.913	5.0
116.927	4.0
116.942	3.0
116.957	4.0
116.972	5.0
116.986	3.0
117.001	4.0
117.016	2.0
117.031	3.0
117.045	3.0
117.06	3.0
117.075	3.0
117.09	4.0
117.104	8.0
117.119	4.0
117.134	3.0
117.149	2.0
117.163	3.0
117.178	4.0
117.193	7.0
117.208	4.0
117.222	5.0
117.237	1.0
117.252	3.0
117.267	2.0
117.281	3.0
117.296	4.0
117.311	5.0
117.325	4.0
117.34	2.0
117.355	4.0
117.37	5.0
117.384	6.0
117.399	4.0
117.414	0.0
117.429	3.0
117.443	2.0
117.458	4.0
117.473	5.0
117.487	1.0
117.502	3.0
117.517	6.0
117.532	0.0
117.546	1.0
117.561	2.0
117.576	7.0
117.59	3.0
117.605	2.0
117.62	4.0
117.635	4.0
117.649	6.0
117.664	1.0
117.679	1.0
117.693	3.0
117.708	2.0
117.723	4.0
117.738	3.0
117.752	2.0
117.767	2.0
117.782	5.0
117.796	2.0
117.811	2.0
117.826	0.0
117.841	3.0
117.855	2.0
117.87	7.0
117.885	5.0
117.899	3.0
117.914	3.0
117.929	1.0
117.944	5.0
117.958	4.0
117.973	1.0
117.988	4.0
118.002	1.0
118.017	0.0
118.032	2.0
118.047	2.0
118.062	4.0
118.077	4.0
118.092	3.0
118.107	5.0
118.121	4.0
118.136	5.0
118.151	4.0
118.166	3.0
118.181	5.0
118.196	3.0
118.211	6.0
118.225	5.0
118.24	5.0
118.255	1.0
118.27	6.0
118.285	4.0
118.3	2.0
118.315	2.0
118.33	3.0
118.344	5.0
118.359	7.0
118.374	2.0
118.389	1.0
118.404	4.0
118.419	4.0
118.434	3.0
118.449	3.0
118.463	1.0
118.478	5.0
118.493	3.0
118.508	0.0
118.523	3.0
118.538	3.0
118.553	3.0
118.567	6.0
118.582	2.0
118.597	2.0
118.612	2.0
118.627	2.0
118.642	4.0
118.657	2.0
118.672	7.0
118.686	2.0
118.701	2.0
118.716	5.0
118.731	4.0
118.746	5.0
118.761	0.0
118.776	3.0
118.791	3.0
118.805	5.0
118.82	3.0
118.835	3.0
118.85	2.0
118.865	3.0
118.88	5.0
118.895	1.0
118.909	2.0
118.924	1.0
118.939	5.0
118.954	2.0
118.969	2.0
118.984	5.0
118.999	7.0
119.014	3.0
119.028	6.0
119.043	3.0
119.058	3.0
119.073	3.0
119.088	7.0
119.103	4.0
119.118	7.0
119.133	3.0
119.147	5.0
119.162	5.0
119.177	2.0
119.192	7.0
119.207	3.0
119.222	3.0
119.237	0.0
119.251	7.0
119.266	6.0
119.281	3.0
119.296	6.0
119.311	8.0
119.326	6.0
119.341	4.0
119.356	6.0
119.37	2.0
119.385	1.0
119.4	5.0
119.415	2.0
119.43	3.0
119.445	2.0
119.46	4.0
119.475	2.0
119.489	2.0
119.504	7.0
119.519	5.0
119.534	1.0
119.549	3.0
119.564	1.0
119.579	4.0
119.593	3.0
119.608	3.0
119.623	1.0
119.638	5.0
119.653	2.0
119.668	2.0
119.683	1.0
119.698	0.0
119.712	1.0
119.727	1.0
119.742	4.0
119.757	2.0
119.772	0.0
119.787	5.0
119.802	1.0
119.817	3.0
119.831	0.0
119.846	2.0
119.861	2.0
119.876	2.0
119.891	4.0
119.906	3.0
119.921	5.0
119.935	3.0
119.95	2.0
119.965	3.0
119.98	1.0
119.995	3.0
120.01	1.0
120.025	2.0
120.04	3.0
120.054	1.0
120.069	1.0
120.084	1.0
120.099	0.0
120.114	2.0
120.129	1.0
120.144	6.0
120.159	1.0
120.173	1.0
120.188	1.0
120.203	0.0
120.218	1.0
120.233	0.0
120.248	1.0
120.263	1.0
120.277	0.0
120.292	0.0
120.307	0.0
120.322	0.0
120.337	0.0
120.352	0.0
120.367	0.0
120.382	0.0
120.396	0.0
120.411	0.0
120.426	0.0
120.441	0.0
120.456	1.0
120.471	0.0
120.486	0.0
120.501	0.0
120.515	0.0
120.53	0.0
120.545	0.0
120.56	1.0
120.575	0.0
120.59	0.0
120.605	0.0
120.619	0.0
120.634	0.0
120.649	0.0
120.664	1.0
120.679	0.0
120.694	0.0
120.709	0.0
120.724	0.0
120.738	0.0
120.753	0.0
120.768	0.0
120.783	0.0
120.798	0.0
120.813	0.0
120.828	0.0
120.843	0.0
120.857	0.0
120.872	0.0
120.887	0.0
120.902	0.0
120.917	0.0
120.932	0.0
120.947	0.0
120.961	2.0
120.976	0.0
