-1.217	0.0
-1.202	0.0
-1.187	0.0
-1.172	0.0
-1.157	0.0
-1.142	0.0
-1.128	0.0
-1.113	0.0
-1.098	0.0
-1.083	0.0
-1.068	0.0
-1.054	0.0
-1.039	0.0
-1.024	0.0
-1.009	0.0
-0.994	0.0
-0.979	0.0
-0.965	0.0
-0.95	0.0
-0.935	0.0
-0.92	0.0
-0.905	0.0
-0.891	0.0
-0.876	0.0
-0.861	0.0
-0.846	0.0
-0.831	0.0
-0.816	0.0
-0.802	0.0
-0.787	0.0
-0.772	0.0
-0.757	0.0
-0.742	0.0
-0.728	0.0
-0.713	0.0
-0.698	0.0
-0.683	0.0
-0.668	0.0
-0.653	0.0
-0.639	0.0
-0.624	0.0
-0.609	0.0
-0.594	0.0
-0.579	0.0
-0.565	0.0
-0.55	0.0
-0.535	1.0
-0.52	0.0
-0.505	0.0
-0.49	0.0
-0.476	0.0
-0.461	0.0
-0.446	0.0
-0.431	0.0
-0.416	0.0
-0.401	0.0
-0.387	0.0
-0.372	0.0
-0.357	0.0
-0.342	0.0
-0.327	0.0
-0.313	0.0
-0.298	0.0
-0.283	1.0
-0.268	0.0
-0.253	0.0
-0.238	0.0
-0.224	0.0
-0.209	0.0
-0.194	0.0
-0.179	0.0
-0.164	0.0
-0.15	0.0
-0.135	1.0
-0.12	0.0
-0.105	0.0
-0.09	0.0
-0.075	0.0
-0.061	0.0
-0.046	0.0
-0.031	0.0
-0.016	0.0
-0.001	0.0
0.013	0.0
0.028	0.0
0.043	0.0
0.058	0.0
0.073	0.0
0.088	0.0
0.102	0.0
0.117	0.0
0.132	0.0
0.147	0.0
0.162	0.0
0.176	0.0
0.191	0.0
0.206	0.0
0.221	0.0
0.236	0.0
0.251	0.0
0.265	0.0
0.28	0.0
0.295	0.0
0.31	0.0
0.325	0.0
0.339	0.0
0.354	0.0
0.369	0.0
0.384	0.0
0.399	0.0
0.414	0.0
0.428	0.0
0.443	0.0
0.458	0.0
0.473	0.0
0.488	0.0
0.502	0.0
0.517	0.0
0.532	0.0
0.547	0.0
0.562	0.0
0.577	0.0
0.591	0.0
0.606	0.0
0.621	0.0
0.636	1.0
0.651	0.0
0.665	0.0
0.68	0.0
0.695	1.0
0.71	0.0
0.725	0.0
0.74	0.0
0.754	0.0
0.769	0.0
0.784	0.0
0.799	1.0
0.814	0.0
0.828	0.0
0.843	0.0
0.858	0.0
0.873	0.0
0.888	0.0
0.903	0.0
0.917	0.0
0.932	0.0
0.947	0.0
0.962	0.0
0.977	0.0
0.991	0.0
1.006	0.0
1.021	0.0
1.036	0.0
1.051	0.0
1.065	0.0
1.08	0.0
1.095	0.0
1.11	0.0
1.125	0.0
1.14	0.0
1.154	0.0
1.169	0.0
1.184	0.0
1.199	0.0
1.214	0.0
1.228	0.0
1.243	0.0
1.258	0.0
1.273	0.0
1.288	0.0
1.302	2.0
1.317	0.0
1.332	0.0
1.347	0.0
1.362	1.0
1.376	0.0
1.391	0.0
1.406	0.0
1.421	0.0
1.436	0.0
1.45	0.0
1.465	0.0
1.48	0.0
1.495	0.0
1.51	0.0
1.524	0.0
1.539	0.0
1.554	0.0
1.569	0.0
1.584	0.0
1.598	0.0
1.613	0.0
1.628	0.0
1.643	0.0
1.658	0.0
1.672	0.0
1.687	0.0
1.702	0.0
1.717	0.0
1.732	1.0
1.746	0.0
1.761	0.0
1.776	0.0
1.791	0.0
1.806	0.0
1.82	0.0
1.835	0.0
1.85	0.0
1.865	0.0
1.88	2.0
1.894	0.0
1.909	0.0
1.924	0.0
1.939	0.0
1.954	0.0
1.968	0.0
1.983	0.0
1.998	0.0
2.013	2.0
2.028	0.0
2.042	0.0
2.057	1.0
2.072	0.0
2.087	1.0
2.101	2.0
2.116	0.0
2.131	0.0
2.146	0.0
2.161	1.0
2.175	0.0
2.19	0.0
2.205	0.0
2.22	1.0
2.235	1.0
2.249	1.0
2.264	0.0
2.279	0.0
2.294	0.0
2.308	1.0
2.323	1.0
2.338	2.0
2.353	2.0
2.368	1.0
2.382	0.0
2.397	2.0
2.412	1.0
2.427	0.0
2.442	1.0
2.456	2.0
2.471	2.0
2.486	1.0
2.501	3.0
2.515	2.0
2.53	1.0
2.545	1.0
2.56	3.0
2.575	2.0
2.589	1.0
2.604	1.0
2.619	3.0
2.634	0.0
2.649	4.0
2.663	3.0
2.678	7.0
2.693	4.0
2.708	1.0
2.722	4.0
2.737	4.0
2.752	3.0
2.767	2.0
2.782	4.0
2.796	4.0
2.811	3.0
2.826	2.0
2.841	3.0
2.856	4.0
2.87	4.0
2.885	4.0
2.9	2.0
2.915	1.0
2.93	2.0
2.944	3.0
2.959	5.0
2.974	4.0
2.989	6.0
3.004	3.0
3.018	7.0
3.033	2.0
3.048	5.0
3.063	3.0
3.078	7.0
3.092	8.0
3.107	3.0
3.122	4.0
3.137	9.0
3.152	4.0
3.166	6.0
3.181	1.0
3.196	7.0
3.211	5.0
3.226	3.0
3.24	5.0
3.255	5.0
3.27	4.0
3.285	3.0
3.3	3.0
3.315	4.0
3.329	6.0
3.344	3.0
3.359	5.0
3.374	7.0
3.389	6.0
3.403	5.0
3.418	4.0
3.433	4.0
3.448	7.0
3.463	4.0
3.478	7.0
3.492	5.0
3.507	4.0
3.522	8.0
3.537	4.0
3.552	2.0
3.567	7.0
3.581	3.0
3.596	6.0
3.611	4.0
3.626	6.0
3.641	5.0
3.656	0.0
3.671	1.0
3.685	6.0
3.7	6.0
3.715	9.0
3.73	6.0
3.745	6.0
3.76	6.0
3.775	7.0
3.789	7.0
3.804	2.0
3.819	3.0
3.834	7.0
3.849	2.0
3.864	8.0
3.879	3.0
3.894	4.0
3.908	7.0
3.923	6.0
3.938	3.0
3.953	4.0
3.968	3.0
3.983	3.0
3.998	6.0
4.013	5.0
4.027	9.0
4.042	7.0
4.057	7.0
4.072	8.0
4.087	10.0
4.102	5.0
4.117	9.0
4.132	5.0
4.147	5.0
4.162	5.0
4.176	4.0
4.191	8.0
4.206	9.0
4.221	7.0
4.236	5.0
4.251	8.0
4.266	6.0
4.281	6.0
4.296	2.0
4.311	6.0
4.326	5.0
4.341	5.0
4.356	5.0
4.37	7.0
4.385	9.0
4.4	7.0
4.415	7.0
4.43	5.0
4.445	4.0
4.46	4.0
4.475	8.0
4.49	12.0
4.505	10.0
4.52	6.0
4.535	4.0
4.55	12.0
4.565	13.0
4.58	9.0
4.595	1.0
4.61	4.0
4.625	12.0
4.639	10.0
4.654	13.0
4.669	8.0
4.684	10.0
4.699	6.0
4.714	12.0
4.729	6.0
4.744	6.0
4.759	9.0
4.774	7.0
4.789	5.0
4.804	6.0
4.819	13.0
4.834	7.0
4.849	6.0
4.864	6.0
4.879	9.0
4.894	10.0
4.909	8.0
4.924	8.0
4.939	11.0
4.954	6.0
4.969	6.0
4.984	10.0
4.999	9.0
5.014	9.0
5.029	8.0
5.044	1.0
5.059	10.0
5.074	4.0
5.089	11.0
5.104	8.0
5.119	8.0
5.134	7.0
5.149	6.0
5.164	8.0
5.179	7.0
5.194	8.0
5.209	5.0
5.224	6.0
5.239	11.0
5.254	9.0
5.269	8.0
5.284	8.0
5.299	7.0
5.314	6.0
5.329	6.0
5.344	7.0
5.359	6.0
5.374	14.0
5.389	13.0
5.404	10.0
5.419	9.0
5.434	10.0
5.449	7.0
5.464	8.0
5.479	6.0
5.494	10.0
5.509	6.0
5.524	8.0
5.539	6.0
5.554	8.0
5.569	11.0
5.584	13.0
5.599	13.0
5.614	19.0
5.629	9.0
5.644	5.0
5.659	8.0
5.674	8.0
5.689	13.0
5.704	9.0
5.719	7.0
5.734	10.0
5.749	5.0
5.764	5.0
5.779	7.0
5.794	6.0
5.809	4.0
5.824	14.0
5.839	9.0
5.854	14.0
5.869	11.0
5.884	3.0
5.899	10.0
5.914	12.0
5.929	4.0
5.944	8.0
5.959	5.0
5.974	7.0
5.989	7.0
6.004	9.0
6.019	13.0
6.034	9.0
6.049	6.0
6.064	9.0
6.079	5.0
6.094	3.0
6.109	8.0
6.124	7.0
6.139	7.0
6.154	8.0
6.169	14.0
6.184	6.0
6.199	10.0
6.214	4.0
6.229	14.0
6.244	11.0
6.259	3.0
6.274	11.0
6.289	6.0
6.304	8.0
6.319	6.0
6.334	13.0
6.349	8.0
6.364	3.0
6.379	7.0
6.394	13.0
6.409	7.0
6.424	7.0
6.439	6.0
6.454	12.0
6.469	8.0
6.484	8.0
6.499	7.0
6.514	6.0
6.529	9.0
6.544	12.0
6.559	12.0
6.574	9.0
6.589	8.0
6.604	7.0
6.619	13.0
6.634	9.0
6.649	11.0
6.664	12.0
6.679	7.0
6.694	13.0
6.709	7.0
6.724	15.0
6.739	13.0
6.754	7.0
6.769	9.0
6.784	10.0
6.799	10.0
6.814	11.0
6.829	6.0
6.844	14.0
6.859	7.0
6.873	6.0
6.888	9.0
6.903	8.0
6.918	14.0
6.933	10.0
6.948	7.0
6.963	11.0
6.978	5.0
6.993	16.0
7.008	7.0
7.023	7.0
7.038	6.0
7.053	5.0
7.068	8.0
7.083	5.0
7.098	7.0
7.113	9.0
7.128	10.0
7.143	5.0
7.157	16.0
7.172	13.0
7.187	8.0
7.202	12.0
7.217	12.0
7.232	8.0
7.247	6.0
7.262	7.0
7.277	13.0
7.292	9.0
7.307	14.0
7.322	11.0
7.336	7.0
7.351	9.0
7.366	8.0
7.381	6.0
7.396	5.0
7.411	6.0
7.426	14.0
7.441	7.0
7.456	11.0
7.471	11.0
7.485	1.0
7.5	12.0
7.515	8.0
7.53	4.0
7.545	9.0
7.56	10.0
7.575	3.0
7.59	9.0
7.604	10.0
7.619	7.0
7.634	11.0
7.649	14.0
7.664	7.0
7.679	8.0
7.693	4.0
7.708	14.0
7.723	13.0
7.738	8.0
7.753	6.0
7.768	18.0
7.783	10.0
7.797	6.0
7.812	3.0
7.827	3.0
7.842	5.0
7.857	13.0
7.871	9.0
7.886	9.0
7.901	12.0
7.916	14.0
7.931	10.0
7.945	13.0
7.96	8.0
7.975	10.0
7.99	15.0
8.005	10.0
8.019	14.0
8.034	10.0
8.049	7.0
8.064	12.0
8.078	8.0
8.093	8.0
8.108	9.0
8.123	14.0
8.137	8.0
8.152	11.0
8.167	10.0
8.182	7.0
8.196	4.0
8.211	9.0
8.226	9.0
8.241	7.0
8.255	7.0
8.27	11.0
8.285	9.0
8.3	7.0
8.314	13.0
8.329	9.0
8.344	9.0
8.358	11.0
8.373	7.0
8.388	8.0
8.403	9.0
8.417	14.0
8.432	9.0
8.447	12.0
8.461	8.0
8.476	12.0
8.491	9.0
8.505	13.0
8.52	3.0
8.535	9.0
8.55	7.0
8.564	10.0
8.579	12.0
8.594	6.0
8.608	10.0
8.623	14.0
8.638	5.0
8.652	7.0
8.667	6.0
8.682	5.0
8.696	10.0
8.711	10.0
8.726	10.0
8.74	9.0
8.755	8.0
8.77	14.0
8.784	17.0
8.799	6.0
8.814	7.0
8.828	8.0
8.843	9.0
8.858	10.0
8.872	9.0
8.887	8.0
8.902	13.0
8.916	9.0
8.931	11.0
8.946	7.0
8.96	8.0
8.975	4.0
8.99	6.0
9.004	9.0
9.019	12.0
9.034	6.0
9.048	9.0
9.063	11.0
9.077	8.0
9.092	8.0
9.107	12.0
9.121	7.0
9.136	6.0
9.151	11.0
9.165	10.0
9.18	4.0
9.195	6.0
9.209	4.0
9.224	13.0
9.239	12.0
9.253	6.0
9.268	18.0
9.283	8.0
9.297	8.0
9.312	9.0
9.327	10.0
9.341	9.0
9.356	14.0
9.371	11.0
9.385	8.0
9.4	7.0
9.415	2.0
9.429	10.0
9.444	11.0
9.458	7.0
9.473	9.0
9.488	2.0
9.502	9.0
9.517	8.0
9.532	10.0
9.546	5.0
9.561	10.0
9.576	7.0
9.59	9.0
9.605	4.0
9.62	10.0
9.635	11.0
9.649	10.0
9.664	8.0
9.679	7.0
9.693	5.0
9.708	9.0
9.723	8.0
9.737	13.0
9.752	8.0
9.767	7.0
9.781	4.0
9.796	6.0
9.811	11.0
9.825	11.0
9.84	10.0
9.855	11.0
9.87	11.0
9.884	9.0
9.899	7.0
9.914	9.0
9.928	10.0
9.943	8.0
9.958	9.0
9.973	3.0
9.987	10.0
10.002	10.0
10.017	9.0
10.031	9.0
10.046	6.0
10.061	8.0
10.076	14.0
10.09	9.0
10.105	10.0
10.12	4.0
10.135	10.0
10.149	9.0
10.164	6.0
10.179	5.0
10.194	4.0
10.208	5.0
10.223	6.0
10.238	6.0
10.253	7.0
10.267	4.0
10.282	3.0
10.297	9.0
10.312	5.0
10.326	12.0
10.341	11.0
10.356	12.0
10.371	11.0
10.386	13.0
10.4	7.0
10.415	11.0
10.43	11.0
10.445	6.0
10.46	9.0
10.474	8.0
10.489	7.0
10.504	8.0
10.519	7.0
10.533	9.0
10.548	10.0
10.563	8.0
10.578	7.0
10.593	10.0
10.608	9.0
10.622	9.0
10.637	5.0
10.652	8.0
10.667	7.0
10.682	7.0
10.696	14.0
10.711	13.0
10.726	3.0
10.741	5.0
10.756	7.0
10.771	5.0
10.785	12.0
10.8	9.0
10.815	9.0
10.83	9.0
10.845	5.0
10.86	7.0
10.874	10.0
10.889	8.0
10.904	7.0
10.919	8.0
10.934	9.0
10.949	9.0
10.963	6.0
10.978	3.0
10.993	11.0
11.008	11.0
11.023	4.0
11.038	3.0
11.053	8.0
11.067	5.0
11.082	6.0
11.097	6.0
11.112	7.0
11.127	7.0
11.142	8.0
11.157	12.0
11.172	6.0
11.186	9.0
11.201	7.0
11.216	5.0
11.231	10.0
11.246	11.0
11.261	6.0
11.276	6.0
11.291	10.0
11.305	3.0
11.32	10.0
11.335	6.0
11.35	11.0
11.365	7.0
11.38	7.0
11.395	10.0
11.41	5.0
11.424	7.0
11.439	3.0
11.454	16.0
11.469	9.0
11.484	9.0
11.499	9.0
11.514	12.0
11.529	10.0
11.544	6.0
11.558	9.0
11.573	11.0
11.588	3.0
11.603	8.0
11.618	4.0
11.633	11.0
11.648	13.0
11.663	6.0
11.678	7.0
11.693	10.0
11.707	11.0
11.722	7.0
11.737	5.0
11.752	8.0
11.767	6.0
11.782	10.0
11.797	9.0
11.812	7.0
11.827	16.0
11.842	9.0
11.856	5.0
11.871	8.0
11.886	6.0
11.901	9.0
11.916	5.0
11.931	8.0
11.946	11.0
11.961	8.0
11.976	7.0
11.991	11.0
12.006	13.0
12.02	7.0
12.035	13.0
12.05	6.0
12.065	7.0
12.08	9.0
12.095	10.0
12.11	13.0
12.125	14.0
12.14	9.0
12.155	9.0
12.17	11.0
12.184	10.0
12.199	13.0
12.214	10.0
12.229	5.0
12.244	6.0
12.259	9.0
12.274	8.0
12.289	11.0
12.304	12.0
12.319	17.0
12.334	10.0
12.348	7.0
12.363	11.0
12.378	13.0
12.393	10.0
12.408	10.0
12.423	7.0
12.438	19.0
12.453	18.0
12.468	13.0
12.483	19.0
12.498	11.0
12.513	6.0
12.527	20.0
12.542	11.0
12.557	17.0
12.572	12.0
12.587	18.0
12.602	16.0
12.617	10.0
12.632	17.0
12.647	13.0
12.662	10.0
12.677	12.0
12.692	12.0
12.707	13.0
12.721	19.0
12.736	14.0
12.751	14.0
12.766	17.0
12.781	11.0
12.796	12.0
12.811	7.0
12.826	12.0
12.841	7.0
12.856	13.0
12.871	14.0
12.886	10.0
12.9	13.0
12.915	13.0
12.93	16.0
12.945	14.0
12.96	18.0
12.975	19.0
12.99	14.0
13.005	18.0
13.02	15.0
13.035	20.0
13.05	20.0
13.065	18.0
13.08	15.0
13.094	21.0
13.109	15.0
13.124	15.0
13.139	13.0
13.154	17.0
13.169	16.0
13.184	21.0
13.199	30.0
13.214	21.0
13.229	17.0
13.244	12.0
13.259	25.0
13.274	12.0
13.288	22.0
13.303	18.0
13.318	25.0
13.333	18.0
13.348	20.0
13.363	19.0
13.378	23.0
13.393	31.0
13.408	25.0
13.423	23.0
13.438	39.0
13.453	30.0
13.468	27.0
13.482	46.0
13.497	33.0
13.512	36.0
13.527	49.0
13.542	41.0
13.557	58.0
13.572	58.0
13.587	54.0
13.602	56.0
13.617	51.0
13.632	62.0
13.647	75.0
13.662	95.0
13.677	85.0
13.691	89.0
13.706	95.0
13.721	82.0
13.736	102.0
13.751	108.0
13.766	108.0
13.781	116.0
13.796	146.0
13.811	114.0
13.826	119.0
13.841	138.0
13.856	144.0
13.871	125.0
13.885	75.0
13.9	111.0
13.915	89.0
13.93	59.0
13.945	61.0
13.96	50.0
13.975	50.0
13.99	44.0
14.005	36.0
14.02	33.0
14.035	33.0
14.05	22.0
14.065	38.0
14.08	21.0
14.094	21.0
14.109	26.0
14.124	27.0
14.139	19.0
14.154	31.0
14.169	25.0
14.184	14.0
14.199	14.0
14.214	26.0
14.229	32.0
14.244	23.0
14.259	16.0
14.274	12.0
14.288	29.0
14.303	26.0
14.318	26.0
14.333	20.0
14.348	19.0
14.363	20.0
14.378	14.0
14.393	22.0
14.408	17.0
14.423	17.0
14.438	12.0
14.453	17.0
14.468	13.0
14.482	19.0
14.497	15.0
14.512	20.0
14.527	19.0
14.542	17.0
14.557	13.0
14.572	15.0
14.587	14.0
14.602	17.0
14.617	12.0
14.632	12.0
14.647	23.0
14.661	14.0
14.676	17.0
14.691	23.0
14.706	16.0
14.721	18.0
14.736	8.0
14.751	14.0
14.766	11.0
14.781	17.0
14.796	20.0
14.811	21.0
14.826	24.0
14.84	9.0
14.855	19.0
14.87	10.0
14.885	17.0
14.9	13.0
14.915	22.0
14.93	12.0
14.945	12.0
14.96	26.0
14.975	12.0
14.989	17.0
15.004	16.0
15.019	15.0
15.034	11.0
15.049	13.0
15.064	15.0
15.079	25.0
15.094	14.0
15.109	12.0
15.124	12.0
15.138	11.0
15.153	12.0
15.168	10.0
15.183	13.0
15.198	12.0
15.213	13.0
15.228	18.0
15.243	16.0
15.258	16.0
15.272	14.0
15.287	11.0
15.302	15.0
15.317	12.0
15.332	8.0
15.347	16.0
15.362	22.0
15.377	12.0
15.391	15.0
15.406	9.0
15.421	14.0
15.436	13.0
15.451	9.0
15.466	14.0
15.481	14.0
15.496	13.0
15.51	13.0
15.525	12.0
15.54	12.0
15.555	14.0
15.57	14.0
15.585	9.0
15.6	20.0
15.614	12.0
15.629	11.0
15.644	17.0
15.659	18.0
15.674	17.0
15.689	15.0
15.704	20.0
15.718	13.0
15.733	16.0
15.748	9.0
15.763	15.0
15.778	16.0
15.793	17.0
15.808	24.0
15.822	8.0
15.837	21.0
15.852	13.0
15.867	16.0
15.882	14.0
15.897	14.0
15.911	14.0
15.926	17.0
15.941	16.0
15.956	14.0
15.971	14.0
15.986	17.0
16.0	14.0
16.015	17.0
16.03	14.0
16.045	23.0
16.06	17.0
16.074	19.0
16.089	13.0
16.104	8.0
16.119	7.0
16.134	16.0
16.149	14.0
16.163	17.0
16.178	8.0
16.193	22.0
16.208	11.0
16.223	7.0
16.237	12.0
16.252	13.0
16.267	10.0
16.282	17.0
16.297	14.0
16.311	11.0
16.326	11.0
16.341	15.0
16.356	16.0
16.37	12.0
16.385	7.0
16.4	17.0
16.415	10.0
16.43	11.0
16.444	13.0
16.459	20.0
16.474	9.0
16.489	17.0
16.504	19.0
16.518	14.0
16.533	14.0
16.548	22.0
16.563	9.0
16.577	13.0
16.592	20.0
16.607	19.0
16.622	19.0
16.637	32.0
16.651	21.0
16.666	21.0
16.681	24.0
16.696	26.0
16.71	27.0
16.725	45.0
16.74	24.0
16.755	24.0
16.77	31.0
16.784	41.0
16.799	34.0
16.814	43.0
16.829	53.0
16.843	54.0
16.858	57.0
16.873	50.0
16.888	71.0
16.902	71.0
16.917	74.0
16.932	68.0
16.947	71.0
16.961	60.0
16.976	73.0
16.991	74.0
17.006	62.0
17.021	62.0
17.035	52.0
17.05	54.0
17.065	39.0
17.08	29.0
17.094	20.0
17.109	27.0
17.124	24.0
17.139	16.0
17.153	15.0
17.168	21.0
17.183	9.0
17.198	14.0
17.212	19.0
17.227	14.0
17.242	14.0
17.257	11.0
17.271	23.0
17.286	20.0
17.301	23.0
17.316	19.0
17.33	17.0
17.345	20.0
17.36	18.0
17.375	16.0
17.39	11.0
17.404	13.0
17.419	8.0
17.434	12.0
17.449	17.0
17.463	19.0
17.478	17.0
17.493	13.0
17.508	14.0
17.522	16.0
17.537	15.0
17.552	10.0
17.567	14.0
17.581	15.0
17.596	15.0
17.611	12.0
17.626	12.0
17.641	17.0
17.655	17.0
17.67	10.0
17.685	11.0
17.7	17.0
17.714	12.0
17.729	12.0
17.744	9.0
17.759	13.0
17.773	9.0
17.788	10.0
17.803	18.0
17.818	17.0
17.833	10.0
17.847	11.0
17.862	11.0
17.877	9.0
17.892	9.0
17.906	7.0
17.921	10.0
17.936	13.0
17.951	12.0
17.966	19.0
17.98	14.0
17.995	10.0
18.01	13.0
18.025	13.0
18.04	16.0
18.054	12.0
18.069	13.0
18.084	10.0
18.099	11.0
18.114	18.0
18.128	15.0
18.143	15.0
18.158	9.0
18.173	10.0
18.188	16.0
18.202	9.0
18.217	13.0
18.232	11.0
18.247	13.0
18.262	11.0
18.276	10.0
18.291	9.0
18.306	20.0
18.321	9.0
18.336	13.0
18.35	12.0
18.365	13.0
18.38	10.0
18.395	11.0
18.41	12.0
18.424	9.0
18.439	9.0
18.454	11.0
18.469	21.0
18.484	8.0
18.498	12.0
18.513	10.0
18.528	8.0
18.543	11.0
18.558	17.0
18.573	11.0
18.587	18.0
18.602	19.0
18.617	11.0
18.632	7.0
18.647	9.0
18.661	16.0
18.676	11.0
18.691	15.0
18.706	12.0
18.721	10.0
18.736	10.0
18.75	7.0
18.765	9.0
18.78	15.0
18.795	10.0
18.81	14.0
18.825	12.0
18.839	7.0
18.854	13.0
18.869	14.0
18.884	11.0
18.899	15.0
18.913	12.0
18.928	14.0
18.943	11.0
18.958	15.0
18.973	10.0
18.988	14.0
19.002	10.0
19.017	19.0
19.032	10.0
19.047	10.0
19.062	14.0
19.077	20.0
19.091	18.0
19.106	10.0
19.121	14.0
19.136	13.0
19.151	6.0
19.165	10.0
19.18	12.0
19.195	14.0
19.21	15.0
19.225	15.0
19.24	15.0
19.254	7.0
19.269	16.0
19.284	23.0
19.299	13.0
19.314	23.0
19.329	8.0
19.343	12.0
19.358	22.0
19.373	22.0
19.388	18.0
19.403	18.0
19.417	25.0
19.432	22.0
19.447	12.0
19.462	31.0
19.477	32.0
19.492	36.0
19.506	30.0
19.521	34.0
19.536	43.0
19.551	28.0
19.566	34.0
19.58	54.0
19.595	56.0
19.61	40.0
19.625	29.0
19.64	38.0
19.655	39.0
19.669	33.0
19.684	35.0
19.699	45.0
19.714	28.0
19.729	26.0
19.743	17.0
19.758	27.0
19.773	22.0
19.788	16.0
19.803	21.0
19.817	13.0
19.832	12.0
19.847	10.0
19.862	15.0
19.877	15.0
19.891	8.0
19.906	11.0
19.921	19.0
19.936	11.0
19.951	15.0
19.965	13.0
19.98	4.0
19.995	13.0
20.01	10.0
20.025	9.0
20.039	10.0
20.054	15.0
20.069	8.0
20.084	11.0
20.099	14.0
20.113	8.0
20.128	12.0
20.143	18.0
20.158	12.0
20.173	16.0
20.187	7.0
20.202	11.0
20.217	10.0
20.232	12.0
20.246	15.0
20.261	8.0
20.276	14.0
20.291	14.0
20.306	12.0
20.32	6.0
20.335	8.0
20.35	14.0
20.365	10.0
20.38	6.0
20.394	16.0
20.409	12.0
20.424	11.0
20.439	15.0
20.453	7.0
20.468	14.0
20.483	8.0
20.498	13.0
20.513	10.0
20.527	15.0
20.542	12.0
20.557	14.0
20.572	13.0
20.586	9.0
20.601	20.0
20.616	13.0
20.631	8.0
20.646	8.0
20.66	11.0
20.675	12.0
20.69	13.0
20.705	16.0
20.719	13.0
20.734	13.0
20.749	9.0
20.764	13.0
20.779	14.0
20.793	9.0
20.808	10.0
20.823	17.0
20.838	7.0
20.853	11.0
20.867	8.0
20.882	12.0
20.897	12.0
20.912	12.0
20.926	17.0
20.941	8.0
20.956	18.0
20.971	10.0
20.986	7.0
21.0	11.0
21.015	11.0
21.03	10.0
21.045	15.0
21.06	13.0
21.074	7.0
21.089	14.0
21.104	14.0
21.119	7.0
21.134	10.0
21.148	11.0
21.163	19.0
21.178	8.0
21.193	15.0
21.208	8.0
21.222	9.0
21.237	8.0
21.252	5.0
21.267	17.0
21.282	14.0
21.296	21.0
21.311	13.0
21.326	12.0
21.341	11.0
21.356	8.0
21.37	12.0
21.385	6.0
21.4	13.0
21.415	12.0
21.43	18.0
21.444	14.0
21.459	13.0
21.474	10.0
21.489	19.0
21.504	13.0
21.519	17.0
21.533	9.0
21.548	16.0
21.563	10.0
21.578	8.0
21.593	19.0
21.608	11.0
21.622	13.0
21.637	13.0
21.652	19.0
21.667	18.0
21.682	22.0
21.697	16.0
21.712	18.0
21.726	19.0
21.741	17.0
21.756	25.0
21.771	23.0
21.786	24.0
21.801	38.0
21.816	38.0
21.83	37.0
21.845	47.0
21.86	58.0
21.875	60.0
21.89	79.0
21.905	76.0
21.92	80.0
21.935	83.0
21.949	90.0
21.964	91.0
21.979	84.0
21.994	65.0
22.009	78.0
22.024	70.0
22.039	45.0
22.054	52.0
22.069	44.0
22.083	46.0
22.098	50.0
22.113	38.0
22.128	40.0
22.143	31.0
22.158	38.0
22.173	26.0
22.188	23.0
22.203	11.0
22.218	17.0
22.233	14.0
22.248	10.0
22.262	16.0
22.277	12.0
22.292	11.0
22.307	9.0
22.322	14.0
22.337	11.0
22.352	9.0
22.367	12.0
22.382	17.0
22.397	17.0
22.412	9.0
22.427	18.0
22.442	16.0
22.457	14.0
22.472	9.0
22.487	15.0
22.502	15.0
22.516	9.0
22.531	16.0
22.546	12.0
22.561	5.0
22.576	9.0
22.591	15.0
22.606	9.0
22.621	16.0
22.636	11.0
22.651	17.0
22.666	17.0
22.681	11.0
22.696	13.0
22.711	9.0
22.726	7.0
22.741	7.0
22.756	7.0
22.771	13.0
22.786	20.0
22.801	14.0
22.816	13.0
22.831	6.0
22.846	15.0
22.861	12.0
22.876	10.0
22.891	11.0
22.906	14.0
22.92	8.0
22.935	6.0
22.95	9.0
22.965	16.0
22.98	8.0
22.995	11.0
23.01	14.0
23.025	8.0
23.04	6.0
23.055	16.0
23.07	14.0
23.085	9.0
23.1	8.0
23.115	5.0
23.13	4.0
23.145	11.0
23.16	11.0
23.175	14.0
23.19	6.0
23.205	7.0
23.22	15.0
23.235	13.0
23.25	8.0
23.265	10.0
23.28	11.0
23.295	13.0
23.31	11.0
23.325	6.0
23.34	11.0
23.355	13.0
23.37	6.0
23.384	9.0
23.399	7.0
23.414	12.0
23.429	3.0
23.444	13.0
23.459	7.0
23.474	9.0
23.489	10.0
23.504	13.0
23.519	9.0
23.534	16.0
23.549	16.0
23.564	8.0
23.579	5.0
23.594	14.0
23.609	11.0
23.624	10.0
23.639	11.0
23.654	15.0
23.668	10.0
23.683	8.0
23.698	16.0
23.713	5.0
23.728	10.0
23.743	12.0
23.758	10.0
23.773	17.0
23.788	19.0
23.803	16.0
23.818	16.0
23.833	9.0
23.848	19.0
23.862	21.0
23.877	10.0
23.892	18.0
23.907	19.0
23.922	25.0
23.937	15.0
23.952	25.0
23.967	33.0
23.982	38.0
23.997	26.0
24.011	37.0
24.026	37.0
24.041	50.0
24.056	58.0
24.071	46.0
24.086	67.0
24.101	48.0
24.116	48.0
24.131	43.0
24.145	47.0
24.16	41.0
24.175	29.0
24.19	33.0
24.205	32.0
24.22	39.0
24.235	35.0
24.249	41.0
24.264	25.0
24.279	26.0
24.294	16.0
24.309	18.0
24.324	9.0
24.338	16.0
24.353	19.0
24.368	12.0
24.383	14.0
24.398	14.0
24.413	13.0
24.428	9.0
24.442	11.0
24.457	21.0
24.472	7.0
24.487	12.0
24.502	8.0
24.516	4.0
24.531	14.0
24.546	13.0
24.561	18.0
24.576	6.0
24.591	15.0
24.605	15.0
24.62	9.0
24.635	18.0
24.65	7.0
24.665	12.0
24.679	11.0
24.694	13.0
24.709	13.0
24.724	9.0
24.739	9.0
24.753	14.0
24.768	11.0
24.783	14.0
24.798	12.0
24.813	12.0
24.827	11.0
24.842	9.0
24.857	17.0
24.872	11.0
24.886	12.0
24.901	9.0
24.916	18.0
24.931	7.0
24.946	8.0
24.96	9.0
24.975	8.0
24.99	12.0
25.005	3.0
25.019	9.0
25.034	4.0
25.049	10.0
25.064	5.0
25.078	16.0
25.093	11.0
25.108	6.0
25.123	11.0
25.138	10.0
25.152	6.0
25.167	7.0
25.182	8.0
25.197	10.0
25.211	8.0
25.226	11.0
25.241	12.0
25.256	7.0
25.27	9.0
25.285	14.0
25.3	10.0
25.315	12.0
25.329	8.0
25.344	12.0
25.359	16.0
25.374	10.0
25.388	8.0
25.403	9.0
25.418	8.0
25.433	9.0
25.447	9.0
25.462	12.0
25.477	7.0
25.492	16.0
25.506	7.0
25.521	6.0
25.536	12.0
25.55	9.0
25.565	4.0
25.58	13.0
25.595	7.0
25.609	11.0
25.624	10.0
25.639	11.0
25.654	7.0
25.668	11.0
25.683	13.0
25.698	10.0
25.713	9.0
25.727	6.0
25.742	8.0
25.757	12.0
25.772	16.0
25.786	10.0
25.801	15.0
25.816	7.0
25.83	6.0
25.845	13.0
25.86	10.0
25.875	9.0
25.889	11.0
25.904	9.0
25.919	10.0
25.934	12.0
25.948	17.0
25.963	9.0
25.978	11.0
25.992	12.0
26.007	10.0
26.022	10.0
26.037	9.0
26.051	8.0
26.066	14.0
26.081	9.0
26.096	6.0
26.11	3.0
26.125	9.0
26.14	8.0
26.155	16.0
26.169	15.0
26.184	10.0
26.199	13.0
26.213	6.0
26.228	11.0
26.243	14.0
26.258	12.0
26.272	9.0
26.287	12.0
26.302	13.0
26.317	13.0
26.331	18.0
26.346	11.0
26.361	9.0
26.376	12.0
26.39	10.0
26.405	10.0
26.42	10.0
26.434	14.0
26.449	6.0
26.464	10.0
26.479	16.0
26.493	10.0
26.508	10.0
26.523	9.0
26.538	8.0
26.552	14.0
26.567	12.0
26.582	15.0
26.597	7.0
26.611	4.0
26.626	8.0
26.641	9.0
26.656	15.0
26.67	12.0
26.685	11.0
26.7	15.0
26.715	10.0
26.729	5.0
26.744	15.0
26.759	7.0
26.773	15.0
26.788	7.0
26.803	9.0
26.818	10.0
26.832	12.0
26.847	10.0
26.862	2.0
26.877	11.0
26.891	3.0
26.906	9.0
26.921	8.0
26.936	9.0
26.95	11.0
26.965	6.0
26.98	16.0
26.995	10.0
27.01	13.0
27.024	17.0
27.039	8.0
27.054	7.0
27.069	15.0
27.083	10.0
27.098	6.0
27.113	13.0
27.128	11.0
27.142	10.0
27.157	7.0
27.172	7.0
27.187	9.0
27.201	11.0
27.216	14.0
27.231	7.0
27.246	10.0
27.261	9.0
27.275	10.0
27.29	6.0
27.305	12.0
27.32	11.0
27.334	7.0
27.349	13.0
27.364	8.0
27.379	11.0
27.394	9.0
27.408	7.0
27.423	5.0
27.438	10.0
27.453	10.0
27.467	10.0
27.482	11.0
27.497	15.0
27.512	12.0
27.527	3.0
27.541	6.0
27.556	6.0
27.571	11.0
27.586	9.0
27.601	12.0
27.615	12.0
27.63	12.0
27.645	6.0
27.66	20.0
27.675	9.0
27.689	15.0
27.704	11.0
27.719	17.0
27.734	13.0
27.749	17.0
27.763	25.0
27.778	21.0
27.793	17.0
27.808	26.0
27.823	15.0
27.838	17.0
27.852	27.0
27.867	28.0
27.882	24.0
27.897	26.0
27.912	25.0
27.926	24.0
27.941	18.0
27.956	18.0
27.971	23.0
27.986	24.0
28.001	17.0
28.015	19.0
28.03	14.0
28.045	12.0
28.06	16.0
28.075	18.0
28.09	14.0
28.105	20.0
28.119	17.0
28.134	14.0
28.149	13.0
28.164	13.0
28.179	11.0
28.194	10.0
28.208	14.0
28.223	12.0
28.238	14.0
28.253	11.0
28.268	12.0
28.283	14.0
28.298	8.0
28.312	9.0
28.327	8.0
28.342	5.0
28.357	9.0
28.372	9.0
28.387	12.0
28.402	16.0
28.417	13.0
28.431	8.0
28.446	14.0
28.461	13.0
28.476	10.0
28.491	8.0
28.506	5.0
28.521	9.0
28.536	15.0
28.55	15.0
28.565	9.0
28.58	7.0
28.595	11.0
28.61	15.0
28.625	11.0
28.64	14.0
28.655	13.0
28.669	4.0
28.684	8.0
28.699	12.0
28.714	12.0
28.729	11.0
28.744	12.0
28.759	13.0
28.774	12.0
28.788	10.0
28.803	8.0
28.818	8.0
28.833	3.0
28.848	3.0
28.863	8.0
28.878	10.0
28.893	15.0
28.908	7.0
28.922	10.0
28.937	13.0
28.952	13.0
28.967	8.0
28.982	13.0
28.997	8.0
29.012	2.0
29.027	13.0
29.041	10.0
29.056	11.0
29.071	5.0
29.086	18.0
29.101	20.0
29.116	12.0
29.131	16.0
29.146	6.0
29.16	8.0
29.175	7.0
29.19	11.0
29.205	14.0
29.22	10.0
29.235	12.0
29.25	14.0
29.265	9.0
29.279	9.0
29.294	14.0
29.309	13.0
29.324	13.0
29.339	10.0
29.354	8.0
29.369	11.0
29.384	13.0
29.398	10.0
29.413	16.0
29.428	18.0
29.443	21.0
29.458	20.0
29.473	25.0
29.488	30.0
29.502	33.0
29.517	41.0
29.532	25.0
29.547	35.0
29.562	40.0
29.577	52.0
29.592	37.0
29.606	41.0
29.621	46.0
29.636	62.0
29.651	49.0
29.666	51.0
29.681	41.0
29.695	38.0
29.71	41.0
29.725	37.0
29.74	40.0
29.755	30.0
29.77	36.0
29.784	31.0
29.799	34.0
29.814	27.0
29.829	20.0
29.844	23.0
29.859	35.0
29.873	20.0
29.888	21.0
29.903	13.0
29.918	11.0
29.933	10.0
29.947	14.0
29.962	16.0
29.977	13.0
29.992	13.0
30.007	12.0
30.021	18.0
30.036	11.0
30.051	10.0
30.066	9.0
30.081	11.0
30.095	11.0
30.11	16.0
30.125	14.0
30.14	15.0
30.155	9.0
30.169	13.0
30.184	14.0
30.199	12.0
30.214	16.0
30.228	17.0
30.243	12.0
30.258	18.0
30.273	7.0
30.288	15.0
30.302	8.0
30.317	9.0
30.332	16.0
30.347	13.0
30.361	14.0
30.376	11.0
30.391	11.0
30.406	13.0
30.42	15.0
30.435	12.0
30.45	14.0
30.465	13.0
30.479	12.0
30.494	14.0
30.509	12.0
30.524	13.0
30.538	3.0
30.553	15.0
30.568	7.0
30.583	10.0
30.597	10.0
30.612	11.0
30.627	17.0
30.641	9.0
30.656	11.0
30.671	15.0
30.686	10.0
30.7	7.0
30.715	16.0
30.73	14.0
30.745	11.0
30.759	5.0
30.774	10.0
30.789	12.0
30.803	13.0
30.818	16.0
30.833	8.0
30.848	12.0
30.862	7.0
30.877	14.0
30.892	17.0
30.906	14.0
30.921	14.0
30.936	8.0
30.951	16.0
30.965	12.0
30.98	13.0
30.995	9.0
31.009	11.0
31.024	9.0
31.039	17.0
31.053	7.0
31.068	16.0
31.083	20.0
31.098	9.0
31.112	16.0
31.127	19.0
31.142	15.0
31.156	20.0
31.171	31.0
31.186	33.0
31.2	40.0
31.215	37.0
31.23	31.0
31.245	37.0
31.259	41.0
31.274	43.0
31.289	44.0
31.303	43.0
31.318	36.0
31.333	35.0
31.347	26.0
31.362	27.0
31.377	24.0
31.392	28.0
31.406	27.0
31.421	31.0
31.436	11.0
31.45	32.0
31.465	22.0
31.48	24.0
31.494	24.0
31.509	17.0
31.524	17.0
31.538	16.0
31.553	11.0
31.568	15.0
31.583	15.0
31.597	7.0
31.612	11.0
31.627	13.0
31.641	11.0
31.656	5.0
31.671	13.0
31.685	11.0
31.7	7.0
31.715	7.0
31.729	12.0
31.744	12.0
31.759	9.0
31.774	14.0
31.788	20.0
31.803	11.0
31.818	14.0
31.832	8.0
31.847	6.0
31.862	9.0
31.876	10.0
31.891	11.0
31.906	12.0
31.92	13.0
31.935	11.0
31.95	10.0
31.965	7.0
31.979	10.0
31.994	10.0
32.009	5.0
32.023	13.0
32.038	5.0
32.053	9.0
32.067	16.0
32.082	6.0
32.097	11.0
32.112	7.0
32.126	11.0
32.141	18.0
32.156	14.0
32.17	15.0
32.185	10.0
32.2	9.0
32.214	13.0
32.229	6.0
32.244	13.0
32.259	19.0
32.273	6.0
32.288	6.0
32.303	11.0
32.317	10.0
32.332	12.0
32.347	10.0
32.362	6.0
32.376	16.0
32.391	14.0
32.406	13.0
32.42	11.0
32.435	7.0
32.45	12.0
32.465	7.0
32.479	9.0
32.494	10.0
32.509	8.0
32.523	9.0
32.538	8.0
32.553	10.0
32.568	9.0
32.582	12.0
32.597	9.0
32.612	17.0
32.627	15.0
32.641	13.0
32.656	18.0
32.671	13.0
32.685	14.0
32.7	14.0
32.715	19.0
32.73	17.0
32.744	21.0
32.759	31.0
32.774	23.0
32.788	23.0
32.803	29.0
32.818	27.0
32.833	28.0
32.847	27.0
32.862	32.0
32.877	17.0
32.892	23.0
32.906	22.0
32.921	22.0
32.936	19.0
32.951	17.0
32.965	11.0
32.98	25.0
32.995	14.0
33.009	21.0
33.024	22.0
33.039	25.0
33.054	19.0
33.068	17.0
33.083	18.0
33.098	12.0
33.113	15.0
33.127	9.0
33.142	11.0
33.157	8.0
33.172	9.0
33.186	17.0
33.201	16.0
33.216	16.0
33.231	9.0
33.245	11.0
33.26	2.0
33.275	12.0
33.29	6.0
33.304	12.0
33.319	7.0
33.334	10.0
33.349	6.0
33.363	8.0
33.378	10.0
33.393	7.0
33.408	8.0
33.422	11.0
33.437	9.0
33.452	10.0
33.467	10.0
33.481	10.0
33.496	13.0
33.511	8.0
33.526	8.0
33.54	12.0
33.555	11.0
33.57	12.0
33.585	11.0
33.599	13.0
33.614	4.0
33.629	8.0
33.644	8.0
33.658	13.0
33.673	7.0
33.688	8.0
33.703	13.0
33.718	10.0
33.732	10.0
33.747	8.0
33.762	11.0
33.777	7.0
33.791	11.0
33.806	11.0
33.821	9.0
33.836	5.0
33.85	10.0
33.865	12.0
33.88	6.0
33.895	12.0
33.91	6.0
33.924	12.0
33.939	7.0
33.954	13.0
33.969	9.0
33.983	8.0
33.998	10.0
34.013	14.0
34.028	10.0
34.042	10.0
34.057	8.0
34.072	13.0
34.087	17.0
34.102	11.0
34.116	5.0
34.131	9.0
34.146	9.0
34.161	11.0
34.175	12.0
34.19	19.0
34.205	13.0
34.22	12.0
34.235	14.0
34.249	11.0
34.264	11.0
34.279	14.0
34.294	11.0
34.309	16.0
34.323	14.0
34.338	12.0
34.353	17.0
34.368	16.0
34.382	12.0
34.397	14.0
34.412	18.0
34.427	14.0
34.442	7.0
34.456	10.0
34.471	12.0
34.486	17.0
34.501	17.0
34.516	11.0
34.53	15.0
34.545	18.0
34.56	8.0
34.575	7.0
34.59	6.0
34.604	10.0
34.619	10.0
34.634	11.0
34.649	5.0
34.664	8.0
34.678	9.0
34.693	12.0
34.708	9.0
34.723	8.0
34.738	8.0
34.752	6.0
34.767	8.0
34.782	12.0
34.797	7.0
34.812	10.0
34.826	7.0
34.841	8.0
34.856	9.0
34.871	8.0
34.886	8.0
34.9	4.0
34.915	9.0
34.93	6.0
34.945	7.0
34.96	10.0
34.974	6.0
34.989	9.0
35.004	7.0
35.019	6.0
35.034	8.0
35.048	6.0
35.063	9.0
35.078	8.0
35.093	12.0
35.108	13.0
35.122	10.0
35.137	5.0
35.152	11.0
35.167	10.0
35.182	11.0
35.196	3.0
35.211	10.0
35.226	9.0
35.241	10.0
35.256	5.0
35.27	8.0
35.285	6.0
35.3	11.0
35.315	3.0
35.33	9.0
35.344	9.0
35.359	10.0
35.374	7.0
35.389	14.0
35.404	3.0
35.418	9.0
35.433	4.0
35.448	9.0
35.463	14.0
35.478	8.0
35.493	8.0
35.507	9.0
35.522	5.0
35.537	10.0
35.552	6.0
35.567	9.0
35.581	6.0
35.596	11.0
35.611	10.0
35.626	6.0
35.641	11.0
35.655	11.0
35.67	13.0
35.685	13.0
35.7	10.0
35.715	18.0
35.729	10.0
35.744	15.0
35.759	18.0
35.774	18.0
35.789	24.0
35.804	17.0
35.818	24.0
35.833	15.0
35.848	17.0
35.863	7.0
35.878	21.0
35.892	8.0
35.907	16.0
35.922	12.0
35.937	12.0
35.952	12.0
35.966	15.0
35.981	17.0
35.996	10.0
36.011	20.0
36.026	15.0
36.04	11.0
36.055	10.0
36.07	9.0
36.085	10.0
36.1	16.0
36.114	4.0
36.129	13.0
36.144	9.0
36.159	11.0
36.174	7.0
36.189	6.0
36.203	8.0
36.218	9.0
36.233	12.0
36.248	6.0
36.263	13.0
36.277	7.0
36.292	10.0
36.307	6.0
36.322	11.0
36.337	9.0
36.351	8.0
36.366	10.0
36.381	8.0
36.396	4.0
36.411	10.0
36.426	14.0
36.44	4.0
36.455	6.0
36.47	10.0
36.485	8.0
36.5	10.0
36.514	3.0
36.529	10.0
36.544	9.0
36.559	5.0
36.574	13.0
36.589	10.0
36.603	8.0
36.618	9.0
36.633	7.0
36.648	7.0
36.663	8.0
36.677	12.0
36.692	5.0
36.707	9.0
36.722	9.0
36.737	9.0
36.752	12.0
36.766	6.0
36.781	4.0
36.796	10.0
36.811	6.0
36.826	5.0
36.841	4.0
36.855	10.0
36.87	6.0
36.885	9.0
36.9	12.0
36.915	9.0
36.93	12.0
36.944	4.0
36.959	14.0
36.974	10.0
36.989	7.0
37.004	14.0
37.019	8.0
37.033	21.0
37.048	19.0
37.063	12.0
37.078	13.0
37.093	14.0
37.108	18.0
37.123	22.0
37.137	20.0
37.152	25.0
37.167	31.0
37.182	23.0
37.197	26.0
37.212	34.0
37.226	35.0
37.241	30.0
37.256	15.0
37.271	13.0
37.286	19.0
37.301	12.0
37.316	18.0
37.331	31.0
37.345	25.0
37.36	19.0
37.375	22.0
37.39	24.0
37.405	17.0
37.42	15.0
37.435	17.0
37.45	16.0
37.464	13.0
37.479	11.0
37.494	14.0
37.509	9.0
37.524	14.0
37.539	3.0
37.554	11.0
37.569	11.0
37.583	3.0
37.598	2.0
37.613	5.0
37.628	7.0
37.643	9.0
37.658	10.0
37.673	4.0
37.688	7.0
37.703	15.0
37.718	8.0
37.733	8.0
37.747	7.0
37.762	12.0
37.777	8.0
37.792	15.0
37.807	6.0
37.822	6.0
37.837	6.0
37.852	5.0
37.867	13.0
37.882	7.0
37.897	6.0
37.912	6.0
37.927	9.0
37.941	5.0
37.956	6.0
37.971	2.0
37.986	11.0
38.001	12.0
38.016	9.0
38.031	12.0
38.046	4.0
38.061	10.0
38.076	12.0
38.091	6.0
38.106	3.0
38.121	9.0
38.136	5.0
38.151	7.0
38.166	3.0
38.181	6.0
38.196	7.0
38.211	8.0
38.226	9.0
38.241	4.0
38.256	5.0
38.271	8.0
38.285	6.0
38.3	3.0
38.315	7.0
38.33	14.0
38.345	6.0
38.36	15.0
38.375	4.0
38.39	7.0
38.405	8.0
38.42	3.0
38.435	10.0
38.45	5.0
38.465	2.0
38.48	10.0
38.495	6.0
38.51	5.0
38.525	7.0
38.54	15.0
38.555	6.0
38.57	4.0
38.585	10.0
38.6	6.0
38.615	8.0
38.63	7.0
38.645	2.0
38.66	6.0
38.675	9.0
38.69	3.0
38.705	8.0
38.72	2.0
38.735	5.0
38.75	5.0
38.765	9.0
38.78	2.0
38.795	5.0
38.81	5.0
38.825	2.0
38.84	10.0
38.855	7.0
38.87	6.0
38.885	6.0
38.9	7.0
38.915	12.0
38.93	4.0
38.945	6.0
38.96	10.0
38.975	3.0
38.99	3.0
39.005	7.0
39.02	4.0
39.035	9.0
39.05	5.0
39.065	5.0
39.08	8.0
39.095	7.0
39.11	5.0
39.125	5.0
39.14	7.0
39.155	5.0
39.17	5.0
39.185	6.0
39.2	8.0
39.215	6.0
39.23	7.0
39.245	3.0
39.26	2.0
39.275	1.0
39.29	8.0
39.305	8.0
39.32	6.0
39.335	5.0
39.35	5.0
39.365	2.0
39.38	2.0
39.395	6.0
39.409	7.0
39.424	3.0
39.439	3.0
39.454	7.0
39.469	2.0
39.484	4.0
39.499	8.0
39.514	2.0
39.529	6.0
39.544	7.0
39.559	11.0
39.574	9.0
39.589	4.0
39.604	6.0
39.619	5.0
39.634	6.0
39.649	5.0
39.664	10.0
39.678	11.0
39.693	4.0
39.708	7.0
39.723	8.0
39.738	10.0
39.753	8.0
39.768	8.0
39.783	7.0
39.798	10.0
39.813	11.0
39.827	11.0
39.842	8.0
39.857	13.0
39.872	11.0
39.887	8.0
39.902	8.0
39.917	4.0
39.932	8.0
39.947	5.0
39.961	5.0
39.976	9.0
39.991	10.0
40.006	4.0
40.021	8.0
40.036	4.0
40.051	8.0
40.065	6.0
40.08	6.0
40.095	8.0
40.11	9.0
40.125	8.0
40.14	10.0
40.154	9.0
40.169	5.0
40.184	4.0
40.199	3.0
40.214	12.0
40.228	4.0
40.243	7.0
40.258	4.0
40.273	1.0
40.288	4.0
40.302	6.0
40.317	8.0
40.332	7.0
40.347	9.0
40.362	9.0
40.376	2.0
40.391	9.0
40.406	5.0
40.421	11.0
40.436	6.0
40.45	4.0
40.465	6.0
40.48	5.0
40.495	8.0
40.509	10.0
40.524	6.0
40.539	3.0
40.554	11.0
40.568	6.0
40.583	8.0
40.598	4.0
40.613	4.0
40.627	4.0
40.642	3.0
40.657	4.0
40.672	7.0
40.686	7.0
40.701	9.0
40.716	5.0
40.731	2.0
40.745	8.0
40.76	5.0
40.775	7.0
40.79	5.0
40.804	2.0
40.819	8.0
40.834	6.0
40.849	1.0
40.863	5.0
40.878	10.0
40.893	7.0
40.907	10.0
40.922	6.0
40.937	6.0
40.952	7.0
40.966	6.0
40.981	5.0
40.996	10.0
41.011	10.0
41.025	9.0
41.04	11.0
41.055	9.0
41.069	18.0
41.084	12.0
41.099	13.0
41.114	21.0
41.128	15.0
41.143	16.0
41.158	12.0
41.173	22.0
41.187	19.0
41.202	16.0
41.217	20.0
41.231	14.0
41.246	9.0
41.261	9.0
41.276	9.0
41.29	6.0
41.305	11.0
41.32	16.0
41.335	10.0
41.349	18.0
41.364	14.0
41.379	9.0
41.393	11.0
41.408	14.0
41.423	9.0
41.438	14.0
41.452	18.0
41.467	12.0
41.482	12.0
41.497	8.0
41.511	11.0
41.526	6.0
41.541	8.0
41.556	5.0
41.57	4.0
41.585	8.0
41.6	8.0
41.615	12.0
41.629	7.0
41.644	5.0
41.659	2.0
41.674	6.0
41.688	9.0
41.703	7.0
41.718	3.0
41.733	11.0
41.747	5.0
41.762	5.0
41.777	2.0
41.792	8.0
41.806	6.0
41.821	5.0
41.836	7.0
41.851	6.0
41.866	8.0
41.88	4.0
41.895	8.0
41.91	8.0
41.925	7.0
41.939	8.0
41.954	10.0
41.969	7.0
41.984	6.0
41.999	5.0
42.013	8.0
42.028	10.0
42.043	6.0
42.058	6.0
42.073	2.0
42.088	5.0
42.102	5.0
42.117	7.0
42.132	9.0
42.147	4.0
42.162	4.0
42.176	8.0
42.191	8.0
42.206	4.0
42.221	5.0
42.236	6.0
42.251	6.0
42.266	12.0
42.28	12.0
42.295	10.0
42.31	9.0
42.325	14.0
42.34	16.0
42.355	11.0
42.369	11.0
42.384	10.0
42.399	15.0
42.414	25.0
42.429	13.0
42.444	12.0
42.459	12.0
42.474	11.0
42.488	15.0
42.503	18.0
42.518	3.0
42.533	7.0
42.548	16.0
42.563	7.0
42.578	9.0
42.593	9.0
42.608	9.0
42.622	15.0
42.637	12.0
42.652	15.0
42.667	10.0
42.682	8.0
42.697	12.0
42.712	13.0
42.727	8.0
42.742	9.0
42.757	4.0
42.772	7.0
42.786	8.0
42.801	3.0
42.816	4.0
42.831	3.0
42.846	9.0
42.861	4.0
42.876	6.0
42.891	6.0
42.906	2.0
42.921	6.0
42.936	4.0
42.951	4.0
42.966	8.0
42.981	4.0
42.996	5.0
43.011	11.0
43.025	6.0
43.04	3.0
43.055	5.0
43.07	4.0
43.085	4.0
43.1	4.0
43.115	5.0
43.13	6.0
43.145	4.0
43.16	9.0
43.175	5.0
43.19	7.0
43.205	4.0
43.22	12.0
43.235	2.0
43.25	5.0
43.265	8.0
43.28	5.0
43.295	5.0
43.31	11.0
43.325	4.0
43.34	6.0
43.355	6.0
43.37	5.0
43.385	4.0
43.4	5.0
43.415	4.0
43.43	9.0
43.445	5.0
43.46	7.0
43.475	10.0
43.49	3.0
43.505	7.0
43.52	9.0
43.535	7.0
43.55	9.0
43.565	5.0
43.58	3.0
43.595	7.0
43.61	13.0
43.625	8.0
43.64	5.0
43.655	14.0
43.67	5.0
43.685	8.0
43.7	8.0
43.715	8.0
43.73	6.0
43.745	3.0
43.76	1.0
43.775	9.0
43.79	4.0
43.805	8.0
43.82	4.0
43.835	5.0
43.85	8.0
43.865	4.0
43.88	6.0
43.895	14.0
43.91	11.0
43.925	9.0
43.94	6.0
43.955	11.0
43.97	9.0
43.985	5.0
44.0	2.0
44.015	2.0
44.03	3.0
44.045	5.0
44.061	5.0
44.076	7.0
44.091	6.0
44.106	3.0
44.121	2.0
44.136	5.0
44.151	2.0
44.166	4.0
44.181	1.0
44.196	2.0
44.211	7.0
44.226	4.0
44.241	4.0
44.256	3.0
44.271	2.0
44.286	6.0
44.301	8.0
44.316	7.0
44.331	6.0
44.346	7.0
44.361	1.0
44.377	6.0
44.392	6.0
44.407	3.0
44.422	7.0
44.437	3.0
44.452	2.0
44.467	8.0
44.482	4.0
44.497	2.0
44.512	2.0
44.527	3.0
44.542	3.0
44.557	4.0
44.572	2.0
44.587	6.0
44.602	3.0
44.617	0.0
44.632	4.0
44.647	7.0
44.663	10.0
44.678	9.0
44.693	8.0
44.708	9.0
44.723	9.0
44.738	9.0
44.753	12.0
44.768	13.0
44.783	7.0
44.798	15.0
44.813	8.0
44.828	5.0
44.843	10.0
44.858	8.0
44.873	6.0
44.888	8.0
44.903	12.0
44.918	9.0
44.933	11.0
44.948	3.0
44.964	10.0
44.979	5.0
44.994	8.0
45.009	5.0
45.024	7.0
45.039	6.0
45.054	7.0
45.069	7.0
45.084	13.0
45.099	5.0
45.114	9.0
45.129	12.0
45.144	11.0
45.159	8.0
45.174	5.0
45.189	6.0
45.204	3.0
45.219	6.0
45.234	3.0
45.249	4.0
45.264	2.0
45.279	3.0
45.294	4.0
45.309	8.0
45.324	5.0
45.339	10.0
45.354	8.0
45.369	1.0
45.384	4.0
45.399	3.0
45.414	4.0
45.429	6.0
45.444	5.0
45.459	3.0
45.474	2.0
45.489	7.0
45.504	4.0
45.519	3.0
45.534	6.0
45.549	4.0
45.564	3.0
45.579	7.0
45.594	5.0
45.609	2.0
45.624	7.0
45.639	3.0
45.654	2.0
45.669	7.0
45.684	6.0
45.699	7.0
45.714	7.0
45.729	6.0
45.744	3.0
45.759	4.0
45.774	2.0
45.789	7.0
45.804	7.0
45.819	10.0
45.834	4.0
45.849	5.0
45.864	11.0
45.879	10.0
45.894	13.0
45.909	12.0
45.924	9.0
45.939	18.0
45.954	15.0
45.969	17.0
45.984	13.0
45.998	11.0
46.013	21.0
46.028	12.0
46.043	18.0
46.058	11.0
46.073	12.0
46.088	3.0
46.103	6.0
46.118	6.0
46.133	8.0
46.148	9.0
46.163	4.0
46.178	13.0
46.192	8.0
46.207	5.0
46.222	14.0
46.237	8.0
46.252	13.0
46.267	14.0
46.282	18.0
46.297	10.0
46.312	13.0
46.327	10.0
46.341	10.0
46.356	5.0
46.371	10.0
46.386	7.0
46.401	15.0
46.416	9.0
46.431	8.0
46.446	2.0
46.46	8.0
46.475	5.0
46.49	5.0
46.505	4.0
46.52	8.0
46.535	3.0
46.55	4.0
46.564	10.0
46.579	2.0
46.594	4.0
46.609	5.0
46.624	4.0
46.639	5.0
46.654	8.0
46.668	4.0
46.683	4.0
46.698	3.0
46.713	6.0
46.728	7.0
46.743	5.0
46.758	8.0
46.772	4.0
46.787	3.0
46.802	5.0
46.817	4.0
46.832	3.0
46.847	3.0
46.861	9.0
46.876	6.0
46.891	3.0
46.906	6.0
46.921	7.0
46.936	9.0
46.95	6.0
46.965	5.0
46.98	8.0
46.995	1.0
47.01	11.0
47.025	2.0
47.039	3.0
47.054	7.0
47.069	5.0
47.084	13.0
47.099	15.0
47.113	7.0
47.128	7.0
47.143	12.0
47.158	5.0
47.173	7.0
47.188	12.0
47.202	4.0
47.217	4.0
47.232	6.0
47.247	6.0
47.262	9.0
47.277	6.0
47.291	6.0
47.306	8.0
47.321	4.0
47.336	5.0
47.351	4.0
47.365	5.0
47.38	6.0
47.395	8.0
47.41	6.0
47.425	9.0
47.44	3.0
47.454	7.0
47.469	9.0
47.484	9.0
47.499	6.0
47.514	7.0
47.528	6.0
47.543	7.0
47.558	7.0
47.573	5.0
47.588	2.0
47.603	7.0
47.617	8.0
47.632	6.0
47.647	3.0
47.662	5.0
47.677	4.0
47.691	7.0
47.706	7.0
47.721	4.0
47.736	5.0
47.751	6.0
47.766	4.0
47.78	8.0
47.795	5.0
47.81	2.0
47.825	3.0
47.84	4.0
47.855	3.0
47.869	3.0
47.884	4.0
47.899	6.0
47.914	6.0
47.929	3.0
47.944	8.0
47.958	6.0
47.973	3.0
47.988	2.0
48.003	3.0
48.018	4.0
48.033	2.0
48.047	4.0
48.062	7.0
48.077	3.0
48.092	4.0
48.107	4.0
48.122	2.0
48.137	4.0
48.151	1.0
48.166	4.0
48.181	5.0
48.196	5.0
48.211	3.0
48.226	3.0
48.241	0.0
48.255	6.0
48.27	6.0
48.285	4.0
48.3	4.0
48.315	8.0
48.33	4.0
48.345	4.0
48.359	8.0
48.374	4.0
48.389	9.0
48.404	2.0
48.419	3.0
48.434	7.0
48.449	4.0
48.464	4.0
48.478	7.0
48.493	5.0
48.508	2.0
48.523	7.0
48.538	6.0
48.553	1.0
48.568	4.0
48.583	3.0
48.597	5.0
48.612	4.0
48.627	7.0
48.642	2.0
48.657	4.0
48.672	2.0
48.687	6.0
48.702	6.0
48.717	6.0
48.731	3.0
48.746	5.0
48.761	4.0
48.776	3.0
48.791	6.0
48.806	7.0
48.821	9.0
48.836	6.0
48.851	4.0
48.866	6.0
48.88	3.0
48.895	3.0
48.91	4.0
48.925	4.0
48.94	5.0
48.955	4.0
48.97	8.0
48.985	1.0
49.0	3.0
49.015	2.0
49.03	4.0
49.044	8.0
49.059	5.0
49.074	6.0
49.089	2.0
49.104	4.0
49.119	3.0
49.134	5.0
49.149	5.0
49.164	9.0
49.179	5.0
49.194	5.0
49.209	4.0
49.224	2.0
49.238	10.0
49.253	9.0
49.268	7.0
49.283	6.0
49.298	9.0
49.313	10.0
49.328	5.0
49.343	4.0
49.358	13.0
49.373	3.0
49.388	7.0
49.403	5.0
49.418	6.0
49.433	2.0
49.448	3.0
49.463	8.0
49.478	6.0
49.492	6.0
49.507	2.0
49.522	9.0
49.537	6.0
49.552	3.0
49.567	6.0
49.582	3.0
49.597	2.0
49.612	3.0
49.627	4.0
49.642	10.0
49.657	6.0
49.672	6.0
49.687	8.0
49.702	4.0
49.717	7.0
49.732	7.0
49.747	3.0
49.762	8.0
49.777	6.0
49.792	6.0
49.807	4.0
49.822	1.0
49.837	5.0
49.852	8.0
49.867	7.0
49.882	5.0
49.897	3.0
49.912	2.0
49.927	7.0
49.942	3.0
49.957	10.0
49.971	6.0
49.986	6.0
50.001	6.0
50.016	5.0
50.031	2.0
50.046	7.0
50.061	3.0
50.076	5.0
50.091	3.0
50.106	4.0
50.121	9.0
50.136	5.0
50.151	5.0
50.166	7.0
50.181	3.0
50.196	7.0
50.211	4.0
50.226	6.0
50.241	5.0
50.256	2.0
50.271	9.0
50.286	4.0
50.302	5.0
50.317	5.0
50.332	5.0
50.347	3.0
50.362	1.0
50.377	10.0
50.392	9.0
50.407	8.0
50.422	9.0
50.437	6.0
50.452	4.0
50.467	7.0
50.482	7.0
50.497	9.0
50.512	5.0
50.527	10.0
50.542	6.0
50.557	3.0
50.572	9.0
50.587	3.0
50.602	4.0
50.617	6.0
50.632	5.0
50.647	7.0
50.662	2.0
50.677	6.0
50.692	11.0
50.707	6.0
50.722	11.0
50.737	4.0
50.752	8.0
50.767	4.0
50.782	11.0
50.797	9.0
50.812	6.0
50.828	6.0
50.843	7.0
50.858	3.0
50.873	3.0
50.888	4.0
50.903	6.0
50.918	3.0
50.933	10.0
50.948	4.0
50.963	5.0
50.978	5.0
50.993	5.0
51.008	5.0
51.023	8.0
51.038	4.0
51.053	4.0
51.068	3.0
51.083	3.0
51.098	5.0
51.114	9.0
51.129	9.0
51.144	3.0
51.159	5.0
51.174	4.0
51.189	6.0
51.204	10.0
51.219	6.0
51.234	3.0
51.249	4.0
51.264	11.0
51.279	6.0
51.294	3.0
51.309	6.0
51.324	6.0
51.34	12.0
51.355	7.0
51.37	8.0
51.385	4.0
51.4	9.0
51.415	13.0
51.43	13.0
51.445	9.0
51.46	12.0
51.475	12.0
51.49	17.0
51.505	13.0
51.52	16.0
51.535	15.0
51.551	12.0
51.566	15.0
51.581	11.0
51.596	11.0
51.611	12.0
51.626	8.0
51.641	5.0
51.656	10.0
51.671	5.0
51.686	7.0
51.701	5.0
51.716	7.0
51.732	4.0
51.747	8.0
51.762	8.0
51.777	10.0
51.792	12.0
51.807	7.0
51.822	15.0
51.837	11.0
51.852	11.0
51.867	10.0
51.882	6.0
51.898	12.0
51.913	7.0
51.928	14.0
51.943	4.0
51.958	6.0
51.973	7.0
51.988	9.0
52.003	6.0
52.018	8.0
52.033	7.0
52.048	3.0
52.064	7.0
52.079	7.0
52.094	3.0
52.109	5.0
52.124	7.0
52.139	3.0
52.154	3.0
52.169	5.0
52.184	3.0
52.199	3.0
52.215	6.0
52.23	4.0
52.245	3.0
52.26	7.0
52.275	3.0
52.29	2.0
52.305	5.0
52.32	3.0
52.335	5.0
52.35	6.0
52.366	2.0
52.381	8.0
52.396	4.0
52.411	5.0
52.426	3.0
52.441	11.0
52.456	8.0
52.471	7.0
52.486	6.0
52.502	6.0
52.517	5.0
52.532	9.0
52.547	9.0
52.562	8.0
52.577	10.0
52.592	7.0
52.607	7.0
52.622	8.0
52.637	7.0
52.653	7.0
52.668	8.0
52.683	6.0
52.698	9.0
52.713	7.0
52.728	6.0
52.743	3.0
52.758	7.0
52.774	7.0
52.789	6.0
52.804	4.0
52.819	7.0
52.834	1.0
52.849	8.0
52.864	8.0
52.879	4.0
52.894	2.0
52.91	4.0
52.925	7.0
52.94	8.0
52.955	8.0
52.97	7.0
52.985	7.0
53.0	5.0
53.015	5.0
53.031	4.0
53.046	4.0
53.061	5.0
53.076	3.0
53.091	9.0
53.106	7.0
53.121	2.0
53.136	2.0
53.152	7.0
53.167	6.0
53.182	6.0
53.197	7.0
53.212	5.0
53.227	6.0
53.242	4.0
53.257	5.0
53.273	4.0
53.288	6.0
53.303	10.0
53.318	9.0
53.333	2.0
53.348	3.0
53.363	5.0
53.379	5.0
53.394	4.0
53.409	8.0
53.424	1.0
53.439	6.0
53.454	6.0
53.469	6.0
53.484	0.0
53.5	5.0
53.515	3.0
53.53	2.0
53.545	5.0
53.56	6.0
53.575	6.0
53.59	6.0
53.606	7.0
53.621	6.0
53.636	6.0
53.651	4.0
53.666	2.0
53.681	5.0
53.696	9.0
53.712	2.0
53.727	2.0
53.742	5.0
53.757	2.0
53.772	8.0
53.787	3.0
53.802	4.0
53.818	3.0
53.833	10.0
53.848	4.0
53.863	4.0
53.878	2.0
53.893	3.0
53.909	1.0
53.924	7.0
53.939	0.0
53.954	6.0
53.969	8.0
53.984	5.0
53.999	4.0
54.015	6.0
54.03	3.0
54.045	5.0
54.06	3.0
54.075	6.0
54.09	5.0
54.106	7.0
54.121	2.0
54.136	5.0
54.151	10.0
54.166	3.0
54.181	4.0
54.197	4.0
54.212	3.0
54.227	7.0
54.242	3.0
54.257	3.0
54.272	2.0
54.288	3.0
54.303	4.0
54.318	2.0
54.333	6.0
54.348	5.0
54.363	5.0
54.379	3.0
54.394	5.0
54.409	4.0
54.424	4.0
54.439	5.0
54.454	3.0
54.47	5.0
54.485	3.0
54.5	5.0
54.515	3.0
54.53	2.0
54.545	7.0
54.561	7.0
54.576	4.0
54.591	11.0
54.606	8.0
54.621	10.0
54.636	8.0
54.652	10.0
54.667	11.0
54.682	13.0
54.697	14.0
54.712	10.0
54.727	8.0
54.743	8.0
54.758	7.0
54.773	11.0
54.788	4.0
54.803	4.0
54.819	7.0
54.834	7.0
54.849	6.0
54.864	10.0
54.879	10.0
54.894	7.0
54.91	8.0
54.925	8.0
54.94	5.0
54.955	11.0
54.97	8.0
54.985	7.0
55.001	12.0
55.016	10.0
55.031	11.0
55.046	8.0
55.061	9.0
55.077	6.0
55.092	7.0
55.107	3.0
55.122	5.0
55.137	6.0
55.152	5.0
55.168	6.0
55.183	7.0
55.198	5.0
55.213	11.0
55.228	9.0
55.243	2.0
55.259	2.0
55.274	4.0
55.289	6.0
55.304	6.0
55.319	5.0
55.335	5.0
55.35	5.0
55.365	3.0
55.38	5.0
55.395	7.0
55.41	8.0
55.426	6.0
55.441	7.0
55.456	3.0
55.471	2.0
55.486	7.0
55.501	5.0
55.517	7.0
55.532	7.0
55.547	5.0
55.562	7.0
55.577	7.0
55.592	10.0
55.608	6.0
55.623	4.0
55.638	5.0
55.653	2.0
55.668	6.0
55.683	9.0
55.699	4.0
55.714	9.0
55.729	5.0
55.744	6.0
55.759	6.0
55.774	7.0
55.79	5.0
55.805	8.0
55.82	3.0
55.835	4.0
55.85	6.0
55.865	6.0
55.881	4.0
55.896	5.0
55.911	5.0
55.926	4.0
55.941	5.0
55.956	5.0
55.972	9.0
55.987	11.0
56.002	8.0
56.017	4.0
56.032	7.0
56.047	15.0
56.063	3.0
56.078	3.0
56.093	4.0
56.108	3.0
56.123	3.0
56.138	8.0
56.154	2.0
56.169	1.0
56.184	5.0
56.199	3.0
56.214	4.0
56.229	6.0
56.244	2.0
56.26	4.0
56.275	3.0
56.29	4.0
56.305	6.0
56.32	2.0
56.335	4.0
56.351	7.0
56.366	4.0
56.381	7.0
56.396	4.0
56.411	5.0
56.426	4.0
56.441	3.0
56.457	5.0
56.472	2.0
56.487	8.0
56.502	4.0
56.517	3.0
56.532	6.0
56.547	7.0
56.563	4.0
56.578	4.0
56.593	2.0
56.608	7.0
56.623	2.0
56.638	2.0
56.653	4.0
56.668	4.0
56.684	6.0
56.699	8.0
56.714	5.0
56.729	9.0
56.744	3.0
56.759	5.0
56.774	5.0
56.79	4.0
56.805	2.0
56.82	1.0
56.835	5.0
56.85	7.0
56.865	3.0
56.88	7.0
56.895	4.0
56.911	6.0
56.926	3.0
56.941	6.0
56.956	1.0
56.971	3.0
56.986	3.0
57.001	5.0
57.016	6.0
57.031	7.0
57.047	10.0
57.062	3.0
57.077	4.0
57.092	2.0
57.107	8.0
57.122	2.0
57.137	5.0
57.152	6.0
57.167	9.0
57.183	5.0
57.198	1.0
57.213	4.0
57.228	2.0
57.243	3.0
57.258	4.0
57.273	6.0
57.288	4.0
57.303	3.0
57.318	6.0
57.334	5.0
57.349	3.0
57.364	4.0
57.379	1.0
57.394	6.0
57.409	6.0
57.424	3.0
57.439	7.0
57.454	2.0
57.469	1.0
57.484	5.0
57.5	2.0
57.515	6.0
57.53	7.0
57.545	6.0
57.56	5.0
57.575	5.0
57.59	6.0
57.605	4.0
57.62	5.0
57.635	4.0
57.65	4.0
57.665	2.0
57.68	5.0
57.696	6.0
57.711	4.0
57.726	5.0
57.741	6.0
57.756	4.0
57.771	4.0
57.786	4.0
57.801	2.0
57.816	3.0
57.831	1.0
57.846	7.0
57.861	5.0
57.876	7.0
57.891	5.0
57.906	4.0
57.921	1.0
57.937	4.0
57.952	5.0
57.967	7.0
57.982	4.0
57.997	5.0
58.012	1.0
58.027	3.0
58.042	4.0
58.057	7.0
58.072	9.0
58.087	4.0
58.102	3.0
58.117	1.0
58.132	3.0
58.147	4.0
58.162	2.0
58.177	3.0
58.192	3.0
58.207	4.0
58.222	3.0
58.237	4.0
58.252	0.0
58.267	4.0
58.282	6.0
58.297	4.0
58.312	4.0
58.327	6.0
58.342	6.0
58.357	2.0
58.372	4.0
58.387	3.0
58.402	4.0
58.418	7.0
58.433	5.0
58.448	2.0
58.463	7.0
58.478	5.0
58.493	6.0
58.508	4.0
58.523	4.0
58.538	5.0
58.553	8.0
58.568	9.0
58.583	9.0
58.598	9.0
58.613	7.0
58.628	10.0
58.643	13.0
58.658	7.0
58.673	14.0
58.688	9.0
58.703	10.0
58.718	8.0
58.733	5.0
58.748	3.0
58.763	6.0
58.778	3.0
58.793	4.0
58.808	3.0
58.823	6.0
58.838	6.0
58.853	5.0
58.868	5.0
58.883	7.0
58.898	4.0
58.913	1.0
58.928	8.0
58.942	4.0
58.957	8.0
58.972	7.0
58.987	8.0
59.002	10.0
59.017	4.0
59.032	2.0
59.047	6.0
59.062	9.0
59.077	14.0
59.092	9.0
59.107	10.0
59.122	5.0
59.137	2.0
59.152	5.0
59.167	2.0
59.182	5.0
59.197	6.0
59.212	6.0
59.227	2.0
59.242	3.0
59.257	4.0
59.272	2.0
59.287	5.0
59.302	4.0
59.317	0.0
59.332	0.0
59.347	2.0
59.362	2.0
59.377	4.0
59.392	4.0
59.407	4.0
59.422	7.0
59.437	3.0
59.452	5.0
59.467	8.0
59.482	5.0
59.497	1.0
59.512	4.0
59.527	5.0
59.542	7.0
59.557	5.0
59.572	8.0
59.587	11.0
59.602	9.0
59.617	10.0
59.632	14.0
59.647	7.0
59.661	7.0
59.676	6.0
59.691	12.0
59.706	6.0
59.721	7.0
59.736	3.0
59.751	8.0
59.766	4.0
59.781	2.0
59.796	3.0
59.811	4.0
59.826	6.0
59.841	4.0
59.856	2.0
59.871	8.0
59.886	3.0
59.901	5.0
59.916	3.0
59.931	6.0
59.946	8.0
59.961	8.0
59.976	7.0
59.991	10.0
60.006	8.0
60.021	4.0
60.036	3.0
60.051	10.0
60.066	4.0
60.081	5.0
60.096	5.0
60.111	11.0
60.126	7.0
60.141	3.0
60.156	5.0
60.171	1.0
60.186	4.0
60.201	5.0
60.216	6.0
60.231	2.0
60.246	7.0
60.261	2.0
60.276	6.0
60.291	4.0
60.306	1.0
60.321	6.0
60.336	6.0
60.35	5.0
60.365	5.0
60.38	6.0
60.395	5.0
60.41	5.0
60.425	3.0
60.44	1.0
60.455	3.0
60.47	6.0
60.485	3.0
60.5	5.0
60.515	4.0
60.53	6.0
60.545	8.0
60.56	8.0
60.575	15.0
60.59	11.0
60.605	12.0
60.62	6.0
60.635	9.0
60.65	7.0
60.665	5.0
60.68	8.0
60.695	2.0
60.71	9.0
60.725	5.0
60.74	6.0
60.755	2.0
60.77	0.0
60.785	4.0
60.8	3.0
60.815	3.0
60.83	2.0
60.845	6.0
60.86	2.0
60.875	4.0
60.89	6.0
60.905	3.0
60.92	4.0
60.935	3.0
60.95	3.0
60.965	3.0
60.98	8.0
60.995	9.0
61.01	8.0
61.025	6.0
61.04	5.0
61.055	4.0
61.07	5.0
61.085	7.0
61.1	4.0
61.115	7.0
61.13	2.0
61.145	2.0
61.16	3.0
61.175	4.0
61.191	5.0
61.206	3.0
61.221	2.0
61.236	5.0
61.251	6.0
61.266	4.0
61.281	2.0
61.296	4.0
61.311	4.0
61.326	3.0
61.341	3.0
61.356	4.0
61.371	7.0
61.386	6.0
61.401	2.0
61.416	4.0
61.431	1.0
61.446	8.0
61.461	6.0
61.476	8.0
61.491	7.0
61.506	2.0
61.521	4.0
61.536	7.0
61.551	9.0
61.566	7.0
61.581	5.0
61.596	4.0
61.611	5.0
61.626	3.0
61.641	1.0
61.656	4.0
61.672	5.0
61.687	3.0
61.702	5.0
61.717	4.0
61.732	5.0
61.747	6.0
61.762	1.0
61.777	3.0
61.792	2.0
61.807	3.0
61.822	4.0
61.837	4.0
61.852	4.0
61.867	7.0
61.882	6.0
61.897	2.0
61.912	2.0
61.927	2.0
61.943	9.0
61.958	3.0
61.973	7.0
61.988	5.0
62.003	4.0
62.018	5.0
62.033	5.0
62.048	0.0
62.063	3.0
62.078	5.0
62.093	7.0
62.108	2.0
62.123	7.0
62.138	7.0
62.153	3.0
62.169	4.0
62.184	4.0
62.199	5.0
62.214	6.0
62.229	4.0
62.244	4.0
62.259	5.0
62.274	8.0
62.289	3.0
62.304	5.0
62.319	2.0
62.335	5.0
62.35	1.0
62.365	5.0
62.38	5.0
62.395	3.0
62.41	4.0
62.425	4.0
62.44	11.0
62.455	2.0
62.47	7.0
62.485	6.0
62.501	5.0
62.516	8.0
62.531	8.0
62.546	2.0
62.561	12.0
62.576	4.0
62.591	6.0
62.606	1.0
62.621	6.0
62.636	1.0
62.652	2.0
62.667	2.0
62.682	3.0
62.697	4.0
62.712	1.0
62.727	2.0
62.742	1.0
62.757	2.0
62.772	4.0
62.787	7.0
62.803	2.0
62.818	7.0
62.833	5.0
62.848	2.0
62.863	6.0
62.878	6.0
62.893	4.0
62.908	2.0
62.923	8.0
62.939	4.0
62.954	4.0
62.969	4.0
62.984	2.0
62.999	6.0
63.014	2.0
63.029	3.0
63.044	9.0
63.059	3.0
63.074	5.0
63.09	9.0
63.105	4.0
63.12	1.0
63.135	0.0
63.15	1.0
63.165	2.0
63.18	4.0
63.195	2.0
63.21	7.0
63.226	4.0
63.241	7.0
63.256	4.0
63.271	3.0
63.286	2.0
63.301	6.0
63.316	1.0
63.331	3.0
63.346	5.0
63.362	9.0
63.377	11.0
63.392	5.0
63.407	7.0
63.422	10.0
63.437	5.0
63.452	11.0
63.467	8.0
63.482	5.0
63.497	3.0
63.513	5.0
63.528	3.0
63.543	3.0
63.558	7.0
63.573	4.0
63.588	8.0
63.603	5.0
63.618	3.0
63.633	2.0
63.648	4.0
63.664	5.0
63.679	5.0
63.694	4.0
63.709	4.0
63.724	8.0
63.739	3.0
63.754	5.0
63.769	7.0
63.784	1.0
63.799	9.0
63.814	7.0
63.83	4.0
63.845	8.0
63.86	5.0
63.875	5.0
63.89	10.0
63.905	4.0
63.92	10.0
63.935	5.0
63.95	6.0
63.965	2.0
63.98	5.0
63.996	0.0
64.011	6.0
64.026	7.0
64.041	1.0
64.056	6.0
64.071	5.0
64.086	2.0
64.101	9.0
64.116	4.0
64.131	8.0
64.146	6.0
64.161	3.0
64.176	4.0
64.191	4.0
64.207	2.0
64.222	4.0
64.237	4.0
64.252	2.0
64.267	4.0
64.282	6.0
64.297	0.0
64.312	4.0
64.327	6.0
64.342	9.0
64.357	5.0
64.372	5.0
64.387	7.0
64.402	3.0
64.417	3.0
64.433	0.0
64.448	5.0
64.463	5.0
64.478	7.0
64.493	6.0
64.508	3.0
64.523	2.0
64.538	4.0
64.553	2.0
64.568	2.0
64.583	0.0
64.598	3.0
64.613	6.0
64.628	4.0
64.643	1.0
64.658	3.0
64.673	5.0
64.688	5.0
64.703	4.0
64.718	0.0
64.734	5.0
64.749	3.0
64.764	3.0
64.779	3.0
64.794	4.0
64.809	4.0
64.824	5.0
64.839	2.0
64.854	0.0
64.869	6.0
64.884	0.0
64.899	3.0
64.914	4.0
64.929	6.0
64.944	0.0
64.959	4.0
64.974	3.0
64.989	8.0
65.004	2.0
65.019	5.0
65.034	6.0
65.049	4.0
65.064	9.0
65.079	2.0
65.094	1.0
65.109	3.0
65.125	2.0
65.14	3.0
65.155	6.0
65.17	5.0
65.185	4.0
65.2	4.0
65.215	9.0
65.23	3.0
65.245	4.0
65.26	6.0
65.275	3.0
65.29	9.0
65.305	6.0
65.32	6.0
65.335	4.0
65.35	8.0
65.365	5.0
65.38	5.0
65.395	4.0
65.41	4.0
65.425	3.0
65.44	2.0
65.455	3.0
65.47	5.0
65.485	3.0
65.5	2.0
65.515	3.0
65.53	4.0
65.545	2.0
65.56	7.0
65.575	5.0
65.59	2.0
65.605	1.0
65.62	5.0
65.635	2.0
65.65	5.0
65.666	6.0
65.681	3.0
65.696	4.0
65.711	6.0
65.726	1.0
65.741	5.0
65.756	3.0
65.771	3.0
65.786	4.0
65.801	4.0
65.816	3.0
65.831	4.0
65.846	5.0
65.861	8.0
65.876	4.0
65.891	7.0
65.906	6.0
65.921	2.0
65.936	5.0
65.951	2.0
65.966	1.0
65.981	3.0
65.996	2.0
66.011	10.0
66.026	5.0
66.041	5.0
66.056	3.0
66.071	2.0
66.086	7.0
66.101	5.0
66.116	3.0
66.131	6.0
66.146	7.0
66.161	12.0
66.176	10.0
66.191	3.0
66.206	14.0
66.221	7.0
66.236	11.0
66.251	4.0
66.266	2.0
66.281	4.0
66.296	5.0
66.311	6.0
66.327	6.0
66.342	2.0
66.357	1.0
66.372	1.0
66.387	9.0
66.402	7.0
66.417	2.0
66.432	5.0
66.447	6.0
66.462	7.0
66.477	4.0
66.492	3.0
66.507	4.0
66.522	10.0
66.537	5.0
66.552	3.0
66.567	2.0
66.582	3.0
66.597	7.0
66.612	5.0
66.627	7.0
66.642	7.0
66.657	5.0
66.672	7.0
66.687	5.0
66.702	1.0
66.717	4.0
66.732	3.0
66.747	5.0
66.762	2.0
66.777	6.0
66.792	2.0
66.807	3.0
66.822	5.0
66.837	3.0
66.853	2.0
66.868	5.0
66.883	6.0
66.898	3.0
66.913	3.0
66.928	4.0
66.943	5.0
66.958	5.0
66.973	0.0
66.988	7.0
67.003	4.0
67.018	5.0
67.033	5.0
67.048	3.0
67.063	6.0
67.078	7.0
67.093	3.0
67.108	3.0
67.123	7.0
67.138	5.0
67.153	8.0
67.168	4.0
67.183	7.0
67.198	2.0
67.214	4.0
67.229	4.0
67.244	3.0
67.259	4.0
67.274	4.0
67.289	4.0
67.304	4.0
67.319	1.0
67.334	2.0
67.349	3.0
67.364	4.0
67.379	4.0
67.394	5.0
67.409	4.0
67.424	2.0
67.439	4.0
67.454	6.0
67.469	3.0
67.484	2.0
67.5	2.0
67.515	3.0
67.53	7.0
67.545	5.0
67.56	3.0
67.575	5.0
67.59	2.0
67.605	9.0
67.62	4.0
67.635	5.0
67.65	3.0
67.665	4.0
67.68	1.0
67.695	1.0
67.71	2.0
67.726	4.0
67.741	3.0
67.756	5.0
67.771	3.0
67.786	4.0
67.801	2.0
67.816	1.0
67.831	2.0
67.846	3.0
67.861	2.0
67.876	3.0
67.891	2.0
67.906	2.0
67.922	2.0
67.937	1.0
67.952	6.0
67.967	3.0
67.982	3.0
67.997	5.0
68.012	2.0
68.027	4.0
68.042	2.0
68.057	6.0
68.072	2.0
68.087	8.0
68.103	4.0
68.118	6.0
68.133	5.0
68.148	2.0
68.163	3.0
68.178	2.0
68.193	3.0
68.208	5.0
68.223	1.0
68.238	3.0
68.254	5.0
68.269	2.0
68.284	4.0
68.299	1.0
68.314	4.0
68.329	2.0
68.344	2.0
68.359	5.0
68.374	4.0
68.389	2.0
68.405	1.0
68.42	6.0
68.435	5.0
68.45	0.0
68.465	5.0
68.48	4.0
68.495	3.0
68.51	3.0
68.525	3.0
68.54	7.0
68.556	3.0
68.571	4.0
68.586	6.0
68.601	5.0
68.616	3.0
68.631	6.0
68.646	3.0
68.661	6.0
68.676	3.0
68.691	5.0
68.707	4.0
68.722	4.0
68.737	5.0
68.752	6.0
68.767	4.0
68.782	3.0
68.797	3.0
68.812	6.0
68.827	8.0
68.842	3.0
68.857	2.0
68.873	5.0
68.888	5.0
68.903	1.0
68.918	1.0
68.933	1.0
68.948	3.0
68.963	2.0
68.978	4.0
68.993	3.0
69.008	7.0
69.023	5.0
69.038	5.0
69.054	2.0
69.069	2.0
69.084	4.0
69.099	3.0
69.114	6.0
69.129	3.0
69.144	6.0
69.159	7.0
69.174	1.0
69.189	5.0
69.204	5.0
69.219	5.0
69.234	3.0
69.249	7.0
69.264	2.0
69.279	4.0
69.295	6.0
69.31	2.0
69.325	6.0
69.34	3.0
69.355	2.0
69.37	7.0
69.385	3.0
69.4	2.0
69.415	9.0
69.43	4.0
69.445	6.0
69.46	7.0
69.475	3.0
69.49	1.0
69.505	0.0
69.52	2.0
69.535	2.0
69.55	1.0
69.565	2.0
69.58	1.0
69.595	4.0
69.61	3.0
69.625	4.0
69.64	2.0
69.655	3.0
69.67	3.0
69.685	7.0
69.7	4.0
69.715	10.0
69.73	7.0
69.745	8.0
69.76	7.0
69.775	7.0
69.79	5.0
69.805	11.0
69.82	6.0
69.835	6.0
69.85	8.0
69.865	11.0
69.88	4.0
69.895	6.0
69.909	6.0
69.924	3.0
69.939	3.0
69.954	1.0
69.969	7.0
69.984	2.0
69.999	1.0
70.014	5.0
70.029	3.0
70.044	3.0
70.059	4.0
70.074	1.0
70.088	2.0
70.103	3.0
70.118	4.0
70.133	2.0
70.148	5.0
70.163	3.0
70.178	1.0
70.193	6.0
70.208	2.0
70.222	1.0
70.237	11.0
70.252	4.0
70.267	2.0
70.282	8.0
70.297	10.0
70.312	8.0
70.327	4.0
70.341	5.0
70.356	6.0
70.371	2.0
70.386	5.0
70.401	5.0
70.416	3.0
70.43	3.0
70.445	2.0
70.46	4.0
70.475	2.0
70.49	4.0
70.505	4.0
70.519	4.0
70.534	3.0
70.549	3.0
70.564	3.0
70.579	2.0
70.594	6.0
70.608	4.0
70.623	4.0
70.638	2.0
70.653	7.0
70.668	6.0
70.683	7.0
70.697	6.0
70.712	5.0
70.727	6.0
70.742	4.0
70.757	2.0
70.771	3.0
70.786	3.0
70.801	5.0
70.816	4.0
70.831	5.0
70.845	5.0
70.86	2.0
70.875	2.0
70.89	2.0
70.905	5.0
70.92	2.0
70.934	3.0
70.949	4.0
70.964	0.0
70.979	3.0
70.994	4.0
71.008	0.0
71.023	6.0
71.038	2.0
71.053	2.0
71.068	3.0
71.082	6.0
71.097	4.0
71.112	5.0
71.127	4.0
71.142	2.0
71.156	2.0
71.171	12.0
71.186	5.0
71.201	6.0
71.216	4.0
71.231	5.0
71.245	3.0
71.26	1.0
71.275	5.0
71.29	5.0
71.305	1.0
71.319	1.0
71.334	2.0
71.349	4.0
71.364	3.0
71.379	2.0
71.394	1.0
71.408	2.0
71.423	3.0
71.438	3.0
71.453	2.0
71.468	4.0
71.483	0.0
71.497	6.0
71.512	1.0
71.527	7.0
71.542	1.0
71.557	5.0
71.572	1.0
71.586	5.0
71.601	4.0
71.616	3.0
71.631	2.0
71.646	4.0
71.661	3.0
71.676	6.0
71.69	2.0
71.705	2.0
71.72	2.0
71.735	0.0
71.75	3.0
71.765	3.0
71.78	7.0
71.795	6.0
71.81	7.0
71.824	3.0
71.839	2.0
71.854	3.0
71.869	7.0
71.884	2.0
71.899	9.0
71.914	4.0
71.929	4.0
71.944	4.0
71.959	3.0
71.974	6.0
71.988	2.0
72.003	5.0
72.018	2.0
72.033	4.0
72.048	2.0
72.063	1.0
72.078	3.0
72.093	9.0
72.108	3.0
72.123	3.0
72.138	4.0
72.153	4.0
72.168	5.0
72.183	1.0
72.198	5.0
72.213	2.0
72.228	6.0
72.243	4.0
72.258	1.0
72.273	1.0
72.288	5.0
72.303	4.0
72.318	4.0
72.333	1.0
72.348	1.0
72.363	2.0
72.378	6.0
72.393	4.0
72.408	4.0
72.423	9.0
72.438	3.0
72.453	1.0
72.468	3.0
72.483	3.0
72.498	8.0
72.513	3.0
72.528	4.0
72.543	3.0
72.558	1.0
72.573	1.0
72.588	3.0
72.603	1.0
72.618	3.0
72.633	4.0
72.649	2.0
72.664	9.0
72.679	4.0
72.694	3.0
72.709	4.0
72.724	5.0
72.739	4.0
72.754	3.0
72.769	4.0
72.784	5.0
72.799	3.0
72.814	1.0
72.829	3.0
72.845	4.0
72.86	1.0
72.875	3.0
72.89	4.0
72.905	1.0
72.92	2.0
72.935	4.0
72.95	3.0
72.965	2.0
72.98	3.0
72.996	5.0
73.011	4.0
73.026	2.0
73.041	1.0
73.056	1.0
73.071	4.0
73.086	6.0
73.101	2.0
73.117	2.0
73.132	2.0
73.147	5.0
73.162	2.0
73.177	5.0
73.192	2.0
73.207	5.0
73.222	3.0
73.238	3.0
73.253	4.0
73.268	2.0
73.283	1.0
73.298	4.0
73.313	4.0
73.328	5.0
73.343	1.0
73.359	3.0
73.374	3.0
73.389	4.0
73.404	7.0
73.419	4.0
73.434	6.0
73.449	5.0
73.465	3.0
73.48	4.0
73.495	5.0
73.51	4.0
73.525	2.0
73.54	1.0
73.556	4.0
73.571	4.0
73.586	4.0
73.601	6.0
73.616	4.0
73.631	3.0
73.646	4.0
73.662	1.0
73.677	4.0
73.692	1.0
73.707	5.0
73.722	2.0
73.737	1.0
73.752	3.0
73.768	3.0
73.783	1.0
73.798	3.0
73.813	6.0
73.828	5.0
73.843	5.0
73.859	3.0
73.874	3.0
73.889	10.0
73.904	5.0
73.919	2.0
73.934	2.0
73.949	4.0
73.965	3.0
73.98	2.0
73.995	2.0
74.01	2.0
74.025	3.0
74.04	4.0
74.056	4.0
74.071	3.0
74.086	4.0
74.101	4.0
74.116	2.0
74.131	5.0
74.146	10.0
74.162	7.0
74.177	12.0
74.192	3.0
74.207	9.0
74.222	6.0
74.237	1.0
74.252	4.0
74.268	5.0
74.283	6.0
74.298	3.0
74.313	6.0
74.328	5.0
74.343	3.0
74.358	2.0
74.374	2.0
74.389	3.0
74.404	0.0
74.419	7.0
74.434	4.0
74.449	2.0
74.464	2.0
74.48	5.0
74.495	5.0
74.51	1.0
74.525	2.0
74.54	2.0
74.555	5.0
74.57	3.0
74.586	2.0
74.601	3.0
74.616	5.0
74.631	4.0
74.646	6.0
74.661	2.0
74.676	4.0
74.691	4.0
74.707	5.0
74.722	0.0
74.737	5.0
74.752	5.0
74.767	6.0
74.782	8.0
74.797	2.0
74.813	5.0
74.828	6.0
74.843	5.0
74.858	8.0
74.873	1.0
74.888	3.0
74.903	1.0
74.918	0.0
74.934	2.0
74.949	4.0
74.964	5.0
74.979	1.0
74.994	2.0
75.009	3.0
75.024	4.0
75.04	12.0
75.055	3.0
75.07	2.0
75.085	4.0
75.1	0.0
75.115	0.0
75.13	8.0
75.145	5.0
75.161	5.0
75.176	1.0
75.191	3.0
75.206	4.0
75.221	4.0
75.236	3.0
75.251	5.0
75.266	2.0
75.282	3.0
75.297	2.0
75.312	3.0
75.327	5.0
75.342	2.0
75.357	3.0
75.372	6.0
75.387	1.0
75.403	1.0
75.418	1.0
75.433	2.0
75.448	3.0
75.463	4.0
75.478	4.0
75.493	0.0
75.509	6.0
75.524	2.0
75.539	5.0
75.554	6.0
75.569	2.0
75.584	2.0
75.599	3.0
75.614	1.0
75.63	4.0
75.645	3.0
75.66	7.0
75.675	3.0
75.69	3.0
75.705	1.0
75.72	3.0
75.735	2.0
75.751	3.0
75.766	2.0
75.781	3.0
75.796	0.0
75.811	3.0
75.826	4.0
75.841	3.0
75.856	4.0
75.872	3.0
75.887	4.0
75.902	4.0
75.917	5.0
75.932	5.0
75.947	2.0
75.962	2.0
75.977	3.0
75.993	3.0
76.008	1.0
76.023	3.0
76.038	4.0
76.053	1.0
76.068	1.0
76.083	1.0
76.098	3.0
76.114	2.0
76.129	5.0
76.144	2.0
76.159	6.0
76.174	1.0
76.189	4.0
76.204	4.0
76.22	4.0
76.235	4.0
76.25	4.0
76.265	2.0
76.28	4.0
76.295	1.0
76.31	4.0
76.325	2.0
76.341	2.0
76.356	3.0
76.371	1.0
76.386	2.0
76.401	3.0
76.416	2.0
76.431	5.0
76.446	3.0
76.462	0.0
76.477	1.0
76.492	4.0
76.507	3.0
76.522	1.0
76.537	3.0
76.552	4.0
76.567	4.0
76.583	2.0
76.598	4.0
76.613	1.0
76.628	1.0
76.643	3.0
76.658	3.0
76.673	4.0
76.688	4.0
76.704	7.0
76.719	5.0
76.734	1.0
76.749	4.0
76.764	4.0
76.779	9.0
76.794	4.0
76.809	4.0
76.824	1.0
76.84	2.0
76.855	4.0
76.87	3.0
76.885	5.0
76.9	7.0
76.915	6.0
76.93	4.0
76.945	4.0
76.96	3.0
76.976	2.0
76.991	2.0
77.006	1.0
77.021	3.0
77.036	7.0
77.051	3.0
77.066	7.0
77.081	5.0
77.096	4.0
77.112	4.0
77.127	2.0
77.142	0.0
77.157	2.0
77.172	2.0
77.187	6.0
77.202	6.0
77.217	2.0
77.232	2.0
77.247	3.0
77.263	3.0
77.278	3.0
77.293	2.0
77.308	3.0
77.323	3.0
77.338	3.0
77.353	2.0
77.368	1.0
77.383	7.0
77.398	9.0
77.413	4.0
77.428	3.0
77.444	4.0
77.459	5.0
77.474	6.0
77.489	1.0
77.504	6.0
77.519	4.0
77.534	2.0
77.549	9.0
77.564	6.0
77.579	13.0
77.594	3.0
77.609	4.0
77.624	9.0
77.64	4.0
77.655	7.0
77.67	6.0
77.685	3.0
77.7	5.0
77.715	2.0
77.73	6.0
77.745	3.0
77.76	1.0
77.775	4.0
77.79	3.0
77.805	4.0
77.82	3.0
77.835	4.0
77.85	4.0
77.865	6.0
77.88	1.0
77.895	2.0
77.91	2.0
77.926	4.0
77.941	6.0
77.956	2.0
77.971	5.0
77.986	5.0
78.001	2.0
78.016	7.0
78.031	2.0
78.046	5.0
78.061	2.0
78.076	5.0
78.091	3.0
78.106	2.0
78.121	3.0
78.136	2.0
78.151	2.0
78.166	2.0
78.181	4.0
78.196	5.0
78.211	4.0
78.226	6.0
78.241	7.0
78.256	5.0
78.271	7.0
78.286	1.0
78.301	5.0
78.316	2.0
78.331	4.0
78.346	4.0
78.361	2.0
78.376	2.0
78.391	5.0
78.406	4.0
78.421	3.0
78.436	2.0
78.451	2.0
78.466	3.0
78.481	2.0
78.496	2.0
78.511	3.0
78.526	3.0
78.541	0.0
78.556	6.0
78.571	5.0
78.586	1.0
78.601	2.0
78.616	0.0
78.631	3.0
78.646	1.0
78.661	5.0
78.676	5.0
78.691	3.0
78.706	1.0
78.721	2.0
78.736	8.0
78.751	5.0
78.766	5.0
78.781	2.0
78.796	1.0
78.811	2.0
78.826	2.0
78.841	3.0
78.856	3.0
78.871	5.0
78.885	5.0
78.9	3.0
78.915	2.0
78.93	1.0
78.945	3.0
78.96	0.0
78.975	5.0
78.99	2.0
79.005	2.0
79.02	3.0
79.035	2.0
79.05	3.0
79.065	4.0
79.08	3.0
79.095	3.0
79.11	3.0
79.125	3.0
79.14	4.0
79.155	4.0
79.17	1.0
79.185	2.0
79.2	2.0
79.215	6.0
79.23	1.0
79.245	0.0
79.26	1.0
79.275	2.0
79.29	4.0
79.304	2.0
79.319	5.0
79.334	2.0
79.349	4.0
79.364	6.0
79.379	4.0
79.394	4.0
79.409	6.0
79.424	4.0
79.439	4.0
79.454	6.0
79.469	6.0
79.484	4.0
79.499	2.0
79.514	2.0
79.529	4.0
79.544	3.0
79.559	9.0
79.574	2.0
79.589	4.0
79.604	3.0
79.619	4.0
79.634	2.0
79.649	2.0
79.664	1.0
79.679	3.0
79.693	4.0
79.708	3.0
79.723	4.0
79.738	3.0
79.753	4.0
79.768	2.0
79.783	2.0
79.798	4.0
79.813	2.0
79.828	2.0
79.843	3.0
79.858	7.0
79.873	1.0
79.888	10.0
79.903	4.0
79.918	6.0
79.933	3.0
79.948	3.0
79.963	4.0
79.978	4.0
79.993	5.0
80.008	1.0
80.023	4.0
80.038	5.0
80.053	7.0
80.068	3.0
80.083	1.0
80.098	3.0
80.113	3.0
80.128	6.0
80.143	0.0
80.158	6.0
80.173	0.0
80.188	5.0
80.202	6.0
80.217	4.0
80.232	6.0
80.247	6.0
80.262	3.0
80.277	5.0
80.292	2.0
80.307	3.0
80.322	5.0
80.337	3.0
80.352	0.0
80.367	4.0
80.382	5.0
80.397	3.0
80.412	2.0
80.427	2.0
80.442	2.0
80.457	1.0
80.472	5.0
80.487	6.0
80.502	1.0
80.517	1.0
80.532	1.0
80.547	1.0
80.562	4.0
80.577	0.0
80.592	1.0
80.607	0.0
80.622	2.0
80.637	3.0
80.652	4.0
80.667	6.0
80.682	7.0
80.697	2.0
80.712	6.0
80.727	3.0
80.742	5.0
80.757	3.0
80.772	1.0
80.787	4.0
80.802	3.0
80.817	4.0
80.832	5.0
80.847	3.0
80.862	5.0
80.877	2.0
80.892	4.0
80.907	0.0
80.922	2.0
80.937	7.0
80.952	3.0
80.967	0.0
80.982	1.0
80.997	3.0
81.012	2.0
81.027	3.0
81.042	4.0
81.057	2.0
81.072	2.0
81.087	4.0
81.101	4.0
81.116	2.0
81.131	3.0
81.146	2.0
81.161	3.0
81.176	2.0
81.191	3.0
81.206	4.0
81.221	1.0
81.236	2.0
81.251	3.0
81.266	7.0
81.281	3.0
81.296	4.0
81.311	2.0
81.326	2.0
81.341	7.0
81.356	2.0
81.371	3.0
81.386	4.0
81.401	6.0
81.416	4.0
81.431	4.0
81.446	2.0
81.461	1.0
81.476	5.0
81.491	4.0
81.506	0.0
81.521	1.0
81.536	2.0
81.55	4.0
81.565	5.0
81.58	3.0
81.595	6.0
81.61	3.0
81.625	5.0
81.64	7.0
81.655	2.0
81.67	2.0
81.685	3.0
81.7	1.0
81.715	3.0
81.73	2.0
81.745	6.0
81.76	3.0
81.775	4.0
81.79	3.0
81.805	5.0
81.819	4.0
81.834	5.0
81.849	4.0
81.864	1.0
81.879	5.0
81.894	5.0
81.909	3.0
81.924	3.0
81.939	3.0
81.954	6.0
81.969	1.0
81.984	6.0
81.999	1.0
82.013	3.0
82.028	1.0
82.043	3.0
82.058	4.0
82.073	4.0
82.088	3.0
82.103	2.0
82.118	7.0
82.133	0.0
82.148	5.0
82.163	3.0
82.177	2.0
82.192	5.0
82.207	1.0
82.222	5.0
82.237	2.0
82.252	6.0
82.267	3.0
82.282	1.0
82.297	2.0
82.312	1.0
82.326	2.0
82.341	5.0
82.356	7.0
82.371	2.0
82.386	5.0
82.401	4.0
82.416	2.0
82.431	2.0
82.445	4.0
82.46	8.0
82.475	3.0
82.49	1.0
82.505	3.0
82.52	4.0
82.535	3.0
82.55	1.0
82.565	2.0
82.579	6.0
82.594	2.0
82.609	1.0
82.624	4.0
82.639	2.0
82.654	3.0
82.669	3.0
82.684	3.0
82.698	3.0
82.713	2.0
82.728	4.0
82.743	2.0
82.758	2.0
82.773	3.0
82.788	1.0
82.803	1.0
82.817	4.0
82.832	5.0
82.847	0.0
82.862	1.0
82.877	1.0
82.892	4.0
82.907	3.0
82.922	4.0
82.937	4.0
82.951	3.0
82.966	4.0
82.981	3.0
82.996	3.0
83.011	2.0
83.026	1.0
83.041	2.0
83.056	2.0
83.07	1.0
83.085	2.0
83.1	4.0
83.115	1.0
83.13	4.0
83.145	1.0
83.16	2.0
83.175	4.0
83.19	2.0
83.204	2.0
83.219	0.0
83.234	6.0
83.249	4.0
83.264	1.0
83.279	5.0
83.294	5.0
83.309	1.0
83.324	4.0
83.339	2.0
83.353	1.0
83.368	0.0
83.383	2.0
83.398	5.0
83.413	1.0
83.428	4.0
83.443	5.0
83.458	1.0
83.473	3.0
83.488	7.0
83.503	1.0
83.517	4.0
83.532	6.0
83.547	3.0
83.562	2.0
83.577	4.0
83.592	6.0
83.607	3.0
83.622	5.0
83.637	1.0
83.652	0.0
83.667	3.0
83.682	4.0
83.697	1.0
83.712	3.0
83.727	6.0
83.741	1.0
83.756	3.0
83.771	4.0
83.786	2.0
83.801	1.0
83.816	2.0
83.831	0.0
83.846	8.0
83.861	1.0
83.876	0.0
83.891	1.0
83.906	8.0
83.921	3.0
83.936	1.0
83.951	8.0
83.966	5.0
83.981	1.0
83.996	4.0
84.011	3.0
84.026	3.0
84.041	6.0
84.056	1.0
84.071	1.0
84.086	4.0
84.101	0.0
84.116	1.0
84.131	1.0
84.146	3.0
84.161	4.0
84.176	1.0
84.191	4.0
84.206	2.0
84.221	2.0
84.236	3.0
84.251	5.0
84.266	2.0
84.281	2.0
84.296	10.0
84.311	4.0
84.326	5.0
84.341	8.0
84.356	4.0
84.371	6.0
84.386	6.0
84.401	2.0
84.416	7.0
84.431	3.0
84.446	5.0
84.461	4.0
84.476	0.0
84.492	5.0
84.507	4.0
84.522	2.0
84.537	1.0
84.552	4.0
84.567	6.0
84.582	4.0
84.597	7.0
84.612	5.0
84.627	3.0
84.642	0.0
84.657	1.0
84.672	5.0
84.687	2.0
84.702	4.0
84.717	5.0
84.733	4.0
84.748	3.0
84.763	2.0
84.778	4.0
84.793	4.0
84.808	2.0
84.823	3.0
84.838	0.0
84.853	4.0
84.868	11.0
84.883	6.0
84.898	3.0
84.913	0.0
84.929	2.0
84.944	2.0
84.959	6.0
84.974	3.0
84.989	5.0
85.004	4.0
85.019	4.0
85.034	2.0
85.049	2.0
85.064	3.0
85.079	4.0
85.094	1.0
85.11	2.0
85.125	3.0
85.14	2.0
85.155	3.0
85.17	0.0
85.185	2.0
85.2	5.0
85.215	2.0
85.23	3.0
85.245	2.0
85.26	4.0
85.276	5.0
85.291	2.0
85.306	3.0
85.321	6.0
85.336	3.0
85.351	2.0
85.366	2.0
85.381	1.0
85.396	3.0
85.411	3.0
85.426	3.0
85.441	6.0
85.457	4.0
85.472	1.0
85.487	3.0
85.502	4.0
85.517	3.0
85.532	2.0
85.547	1.0
85.562	2.0
85.577	2.0
85.592	4.0
85.607	2.0
85.622	1.0
85.637	3.0
85.653	1.0
85.668	3.0
85.683	8.0
85.698	1.0
85.713	0.0
85.728	4.0
85.743	1.0
85.758	3.0
85.773	1.0
85.788	4.0
85.803	3.0
85.818	1.0
85.833	6.0
85.848	3.0
85.863	1.0
85.879	1.0
85.894	2.0
85.909	2.0
85.924	0.0
85.939	2.0
85.954	1.0
85.969	2.0
85.984	2.0
85.999	0.0
86.014	1.0
86.029	2.0
86.044	1.0
86.059	1.0
86.074	6.0
86.089	1.0
86.104	3.0
86.119	6.0
86.134	4.0
86.149	3.0
86.164	3.0
86.179	2.0
86.194	7.0
86.209	6.0
86.224	1.0
86.239	3.0
86.254	1.0
86.269	0.0
86.284	1.0
86.299	3.0
86.314	1.0
86.33	3.0
86.345	2.0
86.36	1.0
86.375	4.0
86.39	2.0
86.405	3.0
86.42	3.0
86.435	4.0
86.45	8.0
86.465	2.0
86.48	3.0
86.495	4.0
86.51	0.0
86.525	0.0
86.54	3.0
86.555	2.0
86.57	1.0
86.585	5.0
86.6	4.0
86.615	4.0
86.63	2.0
86.645	4.0
86.659	1.0
86.674	4.0
86.689	5.0
86.704	5.0
86.719	1.0
86.734	5.0
86.749	1.0
86.764	4.0
86.779	3.0
86.794	2.0
86.809	3.0
86.824	5.0
86.839	3.0
86.854	4.0
86.869	4.0
86.884	5.0
86.899	5.0
86.914	5.0
86.929	6.0
86.944	4.0
86.959	3.0
86.974	4.0
86.989	4.0
87.004	4.0
87.019	0.0
87.034	4.0
87.049	4.0
87.064	6.0
87.079	3.0
87.094	2.0
87.109	5.0
87.124	1.0
87.139	2.0
87.154	3.0
87.169	2.0
87.184	3.0
87.199	3.0
87.214	4.0
87.229	2.0
87.244	7.0
87.259	4.0
87.274	1.0
87.289	4.0
87.304	6.0
87.319	2.0
87.334	2.0
87.349	4.0
87.364	7.0
87.379	3.0
87.394	1.0
87.409	2.0
87.424	4.0
87.438	6.0
87.453	2.0
87.468	3.0
87.483	2.0
87.498	3.0
87.513	4.0
87.528	2.0
87.543	4.0
87.558	5.0
87.573	6.0
87.588	10.0
87.603	7.0
87.618	5.0
87.633	4.0
87.648	6.0
87.663	3.0
87.678	4.0
87.693	5.0
87.708	3.0
87.723	4.0
87.738	5.0
87.753	0.0
87.768	6.0
87.783	1.0
87.798	4.0
87.813	3.0
87.828	6.0
87.843	1.0
87.858	7.0
87.873	1.0
87.888	1.0
87.903	4.0
87.918	1.0
87.933	5.0
87.948	1.0
87.963	0.0
87.978	3.0
87.993	1.0
88.008	2.0
88.023	5.0
88.038	3.0
88.053	1.0
88.068	5.0
88.083	2.0
88.098	1.0
88.113	5.0
88.128	3.0
88.143	3.0
88.158	2.0
88.174	3.0
88.189	5.0
88.204	1.0
88.219	3.0
88.234	5.0
88.249	4.0
88.264	2.0
88.279	4.0
88.294	2.0
88.309	5.0
88.324	4.0
88.339	5.0
88.354	2.0
88.369	1.0
88.384	3.0
88.399	0.0
88.414	3.0
88.429	4.0
88.444	2.0
88.459	5.0
88.474	2.0
88.489	3.0
88.504	3.0
88.519	3.0
88.534	1.0
88.549	3.0
88.564	4.0
88.58	1.0
88.595	4.0
88.61	3.0
88.625	0.0
88.64	2.0
88.655	2.0
88.67	4.0
88.685	0.0
88.7	6.0
88.715	3.0
88.73	3.0
88.745	2.0
88.76	3.0
88.775	3.0
88.79	5.0
88.805	4.0
88.82	7.0
88.835	4.0
88.85	2.0
88.865	2.0
88.88	2.0
88.895	2.0
88.911	2.0
88.926	3.0
88.941	6.0
88.956	1.0
88.971	1.0
88.986	3.0
89.001	3.0
89.016	3.0
89.031	4.0
89.046	3.0
89.061	2.0
89.076	0.0
89.091	3.0
89.106	3.0
89.121	2.0
89.136	4.0
89.151	2.0
89.166	4.0
89.181	3.0
89.196	4.0
89.211	1.0
89.227	0.0
89.242	4.0
89.257	8.0
89.272	3.0
89.287	2.0
89.302	2.0
89.317	1.0
89.332	4.0
89.347	4.0
89.362	3.0
89.377	2.0
89.392	2.0
89.407	1.0
89.422	3.0
89.437	2.0
89.452	0.0
89.467	2.0
89.482	2.0
89.497	2.0
89.512	3.0
89.527	4.0
89.542	0.0
89.557	3.0
89.572	8.0
89.587	3.0
89.602	2.0
89.617	0.0
89.632	5.0
89.647	2.0
89.662	5.0
89.677	5.0
89.693	4.0
89.708	3.0
89.723	3.0
89.738	2.0
89.753	4.0
89.768	1.0
89.783	3.0
89.798	4.0
89.813	0.0
89.828	4.0
89.843	0.0
89.858	5.0
89.873	2.0
89.888	2.0
89.903	6.0
89.918	2.0
89.933	1.0
89.948	7.0
89.963	6.0
89.978	2.0
89.993	2.0
90.008	1.0
90.023	2.0
90.038	2.0
90.053	5.0
90.068	4.0
90.083	2.0
90.097	2.0
90.112	4.0
90.127	5.0
90.142	5.0
90.157	9.0
90.172	2.0
90.187	2.0
90.202	3.0
90.217	2.0
90.232	7.0
90.247	2.0
90.262	4.0
90.277	4.0
90.292	4.0
90.307	5.0
90.322	1.0
90.337	3.0
90.352	1.0
90.367	2.0
90.382	5.0
90.397	1.0
90.412	8.0
90.427	1.0
90.442	3.0
90.457	2.0
90.472	1.0
90.487	3.0
90.501	7.0
90.516	1.0
90.531	4.0
90.546	3.0
90.561	8.0
90.576	4.0
90.591	5.0
90.606	3.0
90.621	3.0
90.636	6.0
90.651	5.0
90.666	2.0
90.681	4.0
90.696	3.0
90.711	2.0
90.726	9.0
90.741	0.0
90.755	0.0
90.77	4.0
90.785	0.0
90.8	3.0
90.815	8.0
90.83	6.0
90.845	6.0
90.86	2.0
90.875	5.0
90.89	5.0
90.905	4.0
90.92	4.0
90.935	2.0
90.95	7.0
90.965	7.0
90.979	5.0
90.994	7.0
91.009	4.0
91.024	7.0
91.039	8.0
91.054	4.0
91.069	3.0
91.084	2.0
91.099	5.0
91.114	4.0
91.129	3.0
91.144	1.0
91.159	5.0
91.174	5.0
91.188	4.0
91.203	3.0
91.218	1.0
91.233	0.0
91.248	3.0
91.263	1.0
91.278	3.0
91.293	3.0
91.308	6.0
91.323	5.0
91.338	4.0
91.353	4.0
91.368	1.0
91.383	2.0
91.398	1.0
91.412	2.0
91.427	4.0
91.442	1.0
91.457	6.0
91.472	4.0
91.487	2.0
91.502	5.0
91.517	3.0
91.532	3.0
91.547	1.0
91.562	3.0
91.577	2.0
91.592	3.0
91.607	2.0
91.622	3.0
91.637	3.0
91.652	4.0
91.666	3.0
91.681	2.0
91.696	3.0
91.711	3.0
91.726	4.0
91.741	1.0
91.756	1.0
91.771	2.0
91.786	2.0
91.801	3.0
91.816	2.0
91.831	3.0
91.846	4.0
91.861	5.0
91.876	3.0
91.891	4.0
91.906	1.0
91.921	2.0
91.936	8.0
91.951	2.0
91.966	3.0
91.981	2.0
91.995	1.0
92.01	3.0
92.025	1.0
92.04	4.0
92.055	4.0
92.07	3.0
92.085	3.0
92.1	5.0
92.115	3.0
92.13	2.0
92.145	3.0
92.16	4.0
92.175	3.0
92.19	7.0
92.205	3.0
92.22	2.0
92.235	2.0
92.25	4.0
92.265	2.0
92.28	1.0
92.295	3.0
92.31	5.0
92.325	6.0
92.34	4.0
92.355	2.0
92.37	1.0
92.385	6.0
92.4	0.0
92.415	4.0
92.43	4.0
92.445	1.0
92.46	1.0
92.475	2.0
92.49	3.0
92.505	2.0
92.52	0.0
92.535	2.0
92.55	1.0
92.565	1.0
92.58	2.0
92.595	1.0
92.61	2.0
92.625	3.0
92.64	7.0
92.655	4.0
92.67	4.0
92.685	6.0
92.7	3.0
92.715	5.0
92.73	2.0
92.745	5.0
92.76	2.0
92.775	0.0
92.79	2.0
92.805	5.0
92.82	5.0
92.835	2.0
92.85	0.0
92.865	5.0
92.88	2.0
92.895	2.0
92.91	3.0
92.925	4.0
92.94	4.0
92.955	3.0
92.97	2.0
92.985	3.0
93.0	2.0
93.015	2.0
93.03	2.0
93.045	1.0
93.06	2.0
93.075	4.0
93.09	2.0
93.105	3.0
93.12	9.0
93.135	5.0
93.15	1.0
93.165	2.0
93.18	3.0
93.195	2.0
93.21	0.0
93.225	2.0
93.24	2.0
93.255	4.0
93.27	4.0
93.285	5.0
93.3	2.0
93.315	4.0
93.33	2.0
93.345	0.0
93.36	3.0
93.375	0.0
93.39	3.0
93.405	3.0
93.42	7.0
93.435	1.0
93.45	3.0
93.465	6.0
93.48	3.0
93.495	0.0
93.51	5.0
93.525	2.0
93.54	2.0
93.555	2.0
93.57	4.0
93.585	4.0
93.6	4.0
93.615	3.0
93.63	5.0
93.645	6.0
93.66	5.0
93.675	2.0
93.69	2.0
93.705	2.0
93.72	0.0
93.735	4.0
93.75	1.0
93.765	2.0
93.78	8.0
93.795	3.0
93.81	3.0
93.824	6.0
93.839	2.0
93.854	5.0
93.869	3.0
93.884	4.0
93.899	4.0
93.914	2.0
93.929	3.0
93.944	1.0
93.959	7.0
93.974	2.0
93.989	1.0
94.004	5.0
94.019	1.0
94.034	2.0
94.049	5.0
94.064	2.0
94.079	1.0
94.094	0.0
94.108	2.0
94.123	2.0
94.138	8.0
94.153	6.0
94.168	4.0
94.183	3.0
94.198	4.0
94.213	4.0
94.228	0.0
94.243	3.0
94.258	3.0
94.273	4.0
94.288	2.0
94.302	2.0
94.317	4.0
94.332	3.0
94.347	4.0
94.362	8.0
94.377	7.0
94.392	5.0
94.407	2.0
94.422	10.0
94.437	6.0
94.452	5.0
94.466	6.0
94.481	6.0
94.496	4.0
94.511	5.0
94.526	6.0
94.541	1.0
94.556	3.0
94.571	3.0
94.586	3.0
94.601	2.0
94.615	0.0
94.63	4.0
94.645	3.0
94.66	1.0
94.675	1.0
94.69	1.0
94.705	4.0
94.72	4.0
94.735	8.0
94.749	4.0
94.764	5.0
94.779	3.0
94.794	4.0
94.809	3.0
94.824	3.0
94.839	3.0
94.854	2.0
94.868	3.0
94.883	3.0
94.898	4.0
94.913	1.0
94.928	2.0
94.943	1.0
94.958	5.0
94.973	3.0
94.987	3.0
95.002	2.0
95.017	7.0
95.032	2.0
95.047	2.0
95.062	5.0
95.077	4.0
95.092	3.0
95.106	1.0
95.121	7.0
95.136	5.0
95.151	2.0
95.166	6.0
95.181	5.0
95.196	6.0
95.211	5.0
95.226	4.0
95.24	2.0
95.255	5.0
95.27	6.0
95.285	1.0
95.3	4.0
95.315	4.0
95.33	5.0
95.345	2.0
95.359	3.0
95.374	3.0
95.389	4.0
95.404	3.0
95.419	3.0
95.434	0.0
95.449	5.0
95.464	7.0
95.478	1.0
95.493	5.0
95.508	1.0
95.523	7.0
95.538	4.0
95.553	2.0
95.568	3.0
95.583	1.0
95.597	2.0
95.612	4.0
95.627	1.0
95.642	3.0
95.657	4.0
95.672	0.0
95.687	3.0
95.702	2.0
95.717	5.0
95.731	2.0
95.746	2.0
95.761	2.0
95.776	2.0
95.791	3.0
95.806	3.0
95.821	5.0
95.836	4.0
95.851	1.0
95.866	4.0
95.88	2.0
95.895	2.0
95.91	5.0
95.925	2.0
95.94	0.0
95.955	4.0
95.97	3.0
95.985	0.0
96.0	3.0
96.015	6.0
96.029	3.0
96.044	2.0
96.059	7.0
96.074	4.0
96.089	4.0
96.104	1.0
96.119	5.0
96.134	2.0
96.149	6.0
96.164	2.0
96.179	4.0
96.194	3.0
96.208	5.0
96.223	2.0
96.238	3.0
96.253	6.0
96.268	2.0
96.283	3.0
96.298	5.0
96.313	4.0
96.328	3.0
96.343	1.0
96.358	8.0
96.373	4.0
96.388	1.0
96.403	3.0
96.417	4.0
96.432	0.0
96.447	4.0
96.462	1.0
96.477	3.0
96.492	3.0
96.507	6.0
96.522	3.0
96.537	3.0
96.552	0.0
96.567	5.0
96.582	2.0
96.597	2.0
96.612	3.0
96.627	2.0
96.642	3.0
96.656	4.0
96.671	2.0
96.686	2.0
96.701	2.0
96.716	3.0
96.731	1.0
96.746	1.0
96.761	8.0
96.776	1.0
96.791	3.0
96.806	1.0
96.821	6.0
96.836	4.0
96.851	2.0
96.866	2.0
96.881	4.0
96.896	4.0
96.911	4.0
96.926	2.0
96.94	4.0
96.955	8.0
96.97	2.0
96.985	7.0
97.0	4.0
97.015	3.0
97.03	5.0
97.045	5.0
97.06	1.0
97.075	6.0
97.09	4.0
97.105	4.0
97.12	2.0
97.135	3.0
97.15	3.0
97.165	4.0
97.18	2.0
97.195	3.0
97.21	1.0
97.225	4.0
97.239	4.0
97.254	4.0
97.269	3.0
97.284	3.0
97.299	3.0
97.314	8.0
97.329	3.0
97.344	3.0
97.359	3.0
97.374	2.0
97.389	2.0
97.404	2.0
97.419	3.0
97.434	3.0
97.449	2.0
97.464	1.0
97.479	1.0
97.494	6.0
97.509	3.0
97.524	4.0
97.538	4.0
97.553	3.0
97.568	3.0
97.583	3.0
97.598	5.0
97.613	2.0
97.628	4.0
97.643	3.0
97.658	3.0
97.673	2.0
97.688	4.0
97.703	4.0
97.718	4.0
97.733	4.0
97.748	1.0
97.763	6.0
97.778	4.0
97.792	3.0
97.807	3.0
97.822	3.0
97.837	5.0
97.852	5.0
97.867	3.0
97.882	0.0
97.897	2.0
97.912	1.0
97.927	2.0
97.942	3.0
97.957	3.0
97.972	2.0
97.987	3.0
98.001	1.0
98.016	4.0
98.031	1.0
98.046	2.0
98.061	2.0
98.076	1.0
98.091	1.0
98.106	5.0
98.121	1.0
98.136	2.0
98.151	2.0
98.166	2.0
98.181	4.0
98.195	1.0
98.21	1.0
98.225	2.0
98.24	3.0
98.255	3.0
98.27	2.0
98.285	3.0
98.3	2.0
98.315	3.0
98.33	6.0
98.345	4.0
98.359	2.0
98.374	2.0
98.389	3.0
98.404	3.0
98.419	4.0
98.434	2.0
98.449	6.0
98.464	3.0
98.479	2.0
98.494	1.0
98.508	5.0
98.523	2.0
98.538	1.0
98.553	2.0
98.568	2.0
98.583	4.0
98.598	2.0
98.613	3.0
98.628	4.0
98.642	2.0
98.657	2.0
98.672	5.0
98.687	3.0
98.702	3.0
98.717	3.0
98.732	5.0
98.747	2.0
98.762	2.0
98.776	2.0
98.791	4.0
98.806	0.0
98.821	4.0
98.836	2.0
98.851	1.0
98.866	5.0
98.881	2.0
98.896	2.0
98.91	5.0
98.925	6.0
98.94	6.0
98.955	2.0
98.97	2.0
98.985	6.0
99.0	2.0
99.015	0.0
99.029	5.0
99.044	1.0
99.059	5.0
99.074	2.0
99.089	5.0
99.104	5.0
99.119	3.0
99.133	3.0
99.148	2.0
99.163	3.0
99.178	4.0
99.193	3.0
99.208	2.0
99.223	2.0
99.238	2.0
99.252	3.0
99.267	4.0
99.282	3.0
99.297	4.0
99.312	4.0
99.327	3.0
99.342	3.0
99.356	4.0
99.371	1.0
99.386	2.0
99.401	3.0
99.416	3.0
99.431	3.0
99.446	4.0
99.461	3.0
99.475	2.0
99.49	2.0
99.505	1.0
99.52	3.0
99.535	6.0
99.55	3.0
99.565	4.0
99.579	5.0
99.594	3.0
99.609	4.0
99.624	4.0
99.639	1.0
99.654	6.0
99.669	2.0
99.683	2.0
99.698	4.0
99.713	4.0
99.728	3.0
99.743	2.0
99.758	2.0
99.772	2.0
99.787	1.0
99.802	2.0
99.817	5.0
99.832	4.0
99.847	1.0
99.862	3.0
99.876	4.0
99.891	4.0
99.906	6.0
99.921	5.0
99.936	4.0
99.951	2.0
99.966	1.0
99.98	2.0
99.995	3.0
100.01	4.0
100.025	2.0
100.04	4.0
100.055	1.0
100.069	1.0
100.084	5.0
100.099	2.0
100.114	2.0
100.129	2.0
100.144	4.0
100.159	4.0
100.173	3.0
100.188	2.0
100.203	6.0
100.218	4.0
100.233	2.0
100.248	5.0
100.262	3.0
100.277	3.0
100.292	7.0
100.307	8.0
100.322	4.0
100.337	2.0
100.351	6.0
100.366	3.0
100.381	3.0
100.396	2.0
100.411	3.0
100.426	4.0
100.441	3.0
100.455	2.0
100.47	4.0
100.485	5.0
100.5	1.0
100.515	3.0
100.53	1.0
100.544	5.0
100.559	0.0
100.574	7.0
100.589	1.0
100.604	4.0
100.619	2.0
100.633	0.0
100.648	2.0
100.663	3.0
100.678	1.0
100.693	6.0
100.708	3.0
100.722	2.0
100.737	4.0
100.752	3.0
100.767	2.0
100.782	2.0
100.796	3.0
100.811	2.0
100.826	1.0
100.841	3.0
100.856	7.0
100.871	1.0
100.885	7.0
100.9	2.0
100.915	3.0
100.93	4.0
100.945	2.0
100.96	3.0
100.974	3.0
100.989	2.0
101.004	2.0
101.019	4.0
101.034	3.0
101.048	5.0
101.063	0.0
101.078	2.0
101.093	3.0
101.108	3.0
101.123	3.0
101.137	4.0
101.152	6.0
101.167	2.0
101.182	4.0
101.197	3.0
101.211	2.0
101.226	6.0
101.241	1.0
101.256	3.0
101.271	5.0
101.285	4.0
101.3	3.0
101.315	4.0
101.33	3.0
101.345	4.0
101.359	2.0
101.374	3.0
101.389	2.0
101.404	5.0
101.419	6.0
101.433	0.0
101.448	7.0
101.463	5.0
101.478	3.0
101.493	4.0
101.507	5.0
101.522	4.0
101.537	5.0
101.552	5.0
101.567	5.0
101.581	2.0
101.596	1.0
101.611	5.0
101.626	2.0
101.64	5.0
101.655	4.0
101.67	4.0
101.685	8.0
101.7	1.0
101.714	4.0
101.729	1.0
101.744	1.0
101.759	8.0
101.773	4.0
101.788	3.0
101.803	2.0
101.818	5.0
101.833	7.0
101.847	4.0
101.862	1.0
101.877	2.0
101.892	2.0
101.906	2.0
101.921	5.0
101.936	3.0
101.951	6.0
101.965	5.0
101.98	1.0
101.995	6.0
102.01	7.0
102.025	5.0
102.039	4.0
102.054	3.0
102.069	4.0
102.084	2.0
102.098	5.0
102.113	5.0
102.128	5.0
102.143	3.0
102.157	3.0
102.172	3.0
102.187	1.0
102.202	2.0
102.216	3.0
102.231	4.0
102.246	4.0
102.261	3.0
102.275	2.0
102.29	2.0
102.305	3.0
102.32	2.0
102.334	1.0
102.349	1.0
102.364	4.0
102.378	6.0
102.393	3.0
102.408	3.0
102.423	5.0
102.437	5.0
102.452	3.0
102.467	4.0
102.482	2.0
102.496	4.0
102.511	3.0
102.526	2.0
102.541	2.0
102.555	3.0
102.57	3.0
102.585	3.0
102.6	4.0
102.614	1.0
102.629	5.0
102.644	1.0
102.659	5.0
102.673	4.0
102.688	2.0
102.703	5.0
102.717	3.0
102.732	3.0
102.747	3.0
102.762	1.0
102.776	3.0
102.791	1.0
102.806	6.0
102.821	3.0
102.835	2.0
102.85	4.0
102.865	4.0
102.88	0.0
102.894	5.0
102.909	6.0
102.924	2.0
102.938	4.0
102.953	3.0
102.968	3.0
102.983	1.0
102.997	4.0
103.012	6.0
103.027	2.0
103.042	5.0
103.056	4.0
103.071	5.0
103.086	4.0
103.101	2.0
103.115	2.0
103.13	2.0
103.145	4.0
103.16	2.0
103.174	2.0
103.189	1.0
103.204	4.0
103.219	2.0
103.233	2.0
103.248	5.0
103.263	3.0
103.278	4.0
103.292	4.0
103.307	2.0
103.322	0.0
103.337	1.0
103.351	1.0
103.366	6.0
103.381	3.0
103.396	4.0
103.41	6.0
103.425	4.0
103.44	2.0
103.455	2.0
103.469	4.0
103.484	4.0
103.499	2.0
103.514	1.0
103.529	2.0
103.543	1.0
103.558	6.0
103.573	4.0
103.588	4.0
103.602	1.0
103.617	3.0
103.632	6.0
103.647	7.0
103.661	2.0
103.676	2.0
103.691	2.0
103.706	5.0
103.721	6.0
103.735	5.0
103.75	4.0
103.765	2.0
103.78	1.0
103.795	5.0
103.809	1.0
103.824	5.0
103.839	5.0
103.854	2.0
103.869	2.0
103.883	6.0
103.898	1.0
103.913	0.0
103.928	3.0
103.943	4.0
103.957	0.0
103.972	2.0
103.987	4.0
104.002	3.0
104.017	0.0
104.031	1.0
104.046	2.0
104.061	5.0
104.076	3.0
104.091	3.0
104.106	4.0
104.12	3.0
104.135	3.0
104.15	4.0
104.165	5.0
104.18	3.0
104.195	0.0
104.209	2.0
104.224	5.0
104.239	2.0
104.254	3.0
104.269	1.0
104.284	2.0
104.299	7.0
104.313	8.0
104.328	5.0
104.343	3.0
104.358	4.0
104.373	4.0
104.388	4.0
104.403	2.0
104.417	10.0
104.432	5.0
104.447	5.0
104.462	4.0
104.477	5.0
104.492	4.0
104.507	4.0
104.522	1.0
104.536	4.0
104.551	2.0
104.566	3.0
104.581	5.0
104.596	3.0
104.611	5.0
104.626	3.0
104.641	0.0
104.656	1.0
104.67	4.0
104.685	2.0
104.7	3.0
104.715	1.0
104.73	6.0
104.745	3.0
104.76	2.0
104.775	5.0
104.79	1.0
104.804	4.0
104.819	0.0
104.834	2.0
104.849	3.0
104.864	3.0
104.879	3.0
104.894	4.0
104.909	2.0
104.924	4.0
104.939	2.0
104.954	4.0
104.968	2.0
104.983	4.0
104.998	3.0
105.013	4.0
105.028	2.0
105.043	3.0
105.058	3.0
105.073	3.0
105.088	2.0
105.103	4.0
105.118	3.0
105.133	4.0
105.147	4.0
105.162	1.0
105.177	5.0
105.192	2.0
105.207	2.0
105.222	3.0
105.237	4.0
105.252	3.0
105.267	1.0
105.282	1.0
105.297	1.0
105.312	0.0
105.327	4.0
105.342	1.0
105.356	1.0
105.371	6.0
105.386	4.0
105.401	5.0
105.416	3.0
105.431	2.0
105.446	4.0
105.461	4.0
105.476	6.0
105.491	3.0
105.506	3.0
105.521	6.0
105.536	1.0
105.551	3.0
105.566	4.0
105.581	2.0
105.595	2.0
105.61	0.0
105.625	6.0
105.64	2.0
105.655	2.0
105.67	2.0
105.685	3.0
105.7	2.0
105.715	6.0
105.73	2.0
105.745	3.0
105.76	3.0
105.775	4.0
105.79	3.0
105.805	1.0
105.82	4.0
105.835	4.0
105.85	2.0
105.864	4.0
105.879	2.0
105.894	3.0
105.909	1.0
105.924	0.0
105.939	4.0
105.954	2.0
105.969	3.0
105.984	7.0
105.999	3.0
106.014	2.0
106.029	2.0
106.044	3.0
106.059	2.0
106.074	1.0
106.089	7.0
106.104	8.0
106.119	3.0
106.134	0.0
106.148	2.0
106.163	3.0
106.178	1.0
106.193	6.0
106.208	2.0
106.223	4.0
106.238	6.0
106.253	3.0
106.268	1.0
106.283	5.0
106.298	3.0
106.313	1.0
106.328	1.0
106.343	3.0
106.358	6.0
106.373	3.0
106.388	3.0
106.403	8.0
106.418	6.0
106.432	4.0
106.447	2.0
106.462	1.0
106.477	0.0
106.492	4.0
106.507	6.0
106.522	2.0
106.537	3.0
106.552	4.0
106.567	4.0
106.582	0.0
106.597	1.0
106.612	4.0
106.627	2.0
106.642	5.0
106.657	7.0
106.672	2.0
106.687	3.0
106.701	3.0
106.716	3.0
106.731	5.0
106.746	3.0
106.761	8.0
106.776	4.0
106.791	4.0
106.806	2.0
106.821	5.0
106.836	1.0
106.851	4.0
106.866	3.0
106.881	1.0
106.896	0.0
106.911	2.0
106.926	2.0
106.941	7.0
106.955	2.0
106.97	5.0
106.985	2.0
107.0	2.0
107.015	2.0
107.03	1.0
107.045	3.0
107.06	3.0
107.075	5.0
107.09	2.0
107.105	3.0
107.12	2.0
107.135	5.0
107.15	6.0
107.165	3.0
107.18	6.0
107.194	5.0
107.209	3.0
107.224	4.0
107.239	4.0
107.254	3.0
107.269	5.0
107.284	5.0
107.299	7.0
107.314	5.0
107.329	3.0
107.344	3.0
107.359	5.0
107.374	4.0
107.389	3.0
107.404	6.0
107.418	4.0
107.433	4.0
107.448	1.0
107.463	2.0
107.478	1.0
107.493	7.0
107.508	1.0
107.523	1.0
107.538	6.0
107.553	2.0
107.568	2.0
107.583	2.0
107.598	1.0
107.613	3.0
107.627	0.0
107.642	3.0
107.657	5.0
107.672	1.0
107.687	0.0
107.702	1.0
107.717	5.0
107.732	4.0
107.747	4.0
107.762	2.0
107.777	4.0
107.792	3.0
107.807	2.0
107.821	4.0
107.836	2.0
107.851	5.0
107.866	3.0
107.881	2.0
107.896	4.0
107.911	4.0
107.926	2.0
107.941	7.0
107.956	2.0
107.971	2.0
107.986	2.0
108.0	4.0
108.015	3.0
108.03	4.0
108.045	5.0
108.06	4.0
108.075	4.0
108.09	5.0
108.105	4.0
108.12	2.0
108.135	3.0
108.15	2.0
108.164	3.0
108.179	8.0
108.194	2.0
108.209	6.0
108.224	5.0
108.239	4.0
108.254	5.0
108.269	4.0
108.284	3.0
108.299	1.0
108.313	4.0
108.328	6.0
108.343	1.0
108.358	3.0
108.373	1.0
108.388	4.0
108.403	7.0
108.418	5.0
108.433	3.0
108.448	3.0
108.462	5.0
108.477	3.0
108.492	3.0
108.507	3.0
108.522	5.0
108.537	4.0
108.552	4.0
108.567	4.0
108.582	2.0
108.597	2.0
108.611	5.0
108.626	1.0
108.641	4.0
108.656	3.0
108.671	1.0
108.686	2.0
108.701	2.0
108.716	1.0
108.731	3.0
108.745	4.0
108.76	1.0
108.775	2.0
108.79	2.0
108.805	3.0
108.82	3.0
108.835	9.0
108.85	4.0
108.865	2.0
108.879	2.0
108.894	3.0
108.909	1.0
108.924	1.0
108.939	1.0
108.954	4.0
108.969	5.0
108.984	4.0
108.999	3.0
109.013	2.0
109.028	4.0
109.043	3.0
109.058	2.0
109.073	5.0
109.088	2.0
109.103	2.0
109.118	4.0
109.133	4.0
109.147	4.0
109.162	4.0
109.177	5.0
109.192	1.0
109.207	3.0
109.222	3.0
109.237	4.0
109.252	1.0
109.267	3.0
109.281	5.0
109.296	2.0
109.311	3.0
109.326	1.0
109.341	0.0
109.356	6.0
109.371	0.0
109.386	3.0
109.4	2.0
109.415	3.0
109.43	7.0
109.445	1.0
109.46	3.0
109.475	4.0
109.49	2.0
109.505	5.0
109.52	2.0
109.534	5.0
109.549	3.0
109.564	3.0
109.579	3.0
109.594	6.0
109.609	2.0
109.624	2.0
109.639	6.0
109.653	2.0
109.668	3.0
109.683	2.0
109.698	1.0
109.713	4.0
109.728	4.0
109.743	2.0
109.758	0.0
109.773	4.0
109.787	0.0
109.802	4.0
109.817	4.0
109.832	6.0
109.847	5.0
109.862	1.0
109.877	0.0
109.892	2.0
109.907	10.0
109.921	3.0
109.936	8.0
109.951	5.0
109.966	4.0
109.981	4.0
109.996	3.0
110.011	5.0
110.026	3.0
110.04	4.0
110.055	4.0
110.07	2.0
110.085	2.0
110.1	4.0
110.115	2.0
110.13	4.0
110.145	6.0
110.16	6.0
110.174	7.0
110.189	5.0
110.204	2.0
110.219	0.0
110.234	2.0
110.249	4.0
110.264	6.0
110.279	3.0
110.294	5.0
110.308	4.0
110.323	2.0
110.338	2.0
110.353	3.0
110.368	4.0
110.383	3.0
110.398	7.0
110.413	3.0
110.428	0.0
110.442	3.0
110.457	3.0
110.472	3.0
110.487	4.0
110.502	1.0
110.517	1.0
110.532	4.0
110.547	2.0
110.561	6.0
110.576	2.0
110.591	2.0
110.606	6.0
110.621	3.0
110.636	2.0
110.651	3.0
110.666	4.0
110.681	5.0
110.695	2.0
110.71	5.0
110.725	3.0
110.74	3.0
110.755	1.0
110.77	4.0
110.785	1.0
110.8	5.0
110.815	2.0
110.829	4.0
110.844	6.0
110.859	5.0
110.874	1.0
110.889	3.0
110.904	4.0
110.919	3.0
110.934	3.0
110.948	0.0
110.963	3.0
110.978	3.0
110.993	1.0
111.008	6.0
111.023	3.0
111.038	2.0
111.053	3.0
111.067	4.0
111.082	2.0
111.097	2.0
111.112	1.0
111.127	2.0
111.142	5.0
111.157	3.0
111.172	5.0
111.186	4.0
111.201	3.0
111.216	2.0
111.231	1.0
111.246	2.0
111.261	2.0
111.276	1.0
111.291	2.0
111.305	5.0
111.32	1.0
111.335	1.0
111.35	8.0
111.365	1.0
111.38	2.0
111.395	5.0
111.41	0.0
111.424	3.0
111.439	5.0
111.454	2.0
111.469	6.0
111.484	4.0
111.499	3.0
111.514	2.0
111.528	4.0
111.543	5.0
111.558	1.0
111.573	4.0
111.588	5.0
111.603	5.0
111.618	5.0
111.633	4.0
111.647	4.0
111.662	6.0
111.677	4.0
111.692	4.0
111.707	4.0
111.722	3.0
111.737	10.0
111.751	3.0
111.766	0.0
111.781	6.0
111.796	1.0
111.811	4.0
111.826	3.0
111.84	2.0
111.855	0.0
111.87	4.0
111.885	1.0
111.9	3.0
111.915	0.0
111.93	3.0
111.944	4.0
111.959	5.0
111.974	1.0
111.989	3.0
112.004	7.0
112.019	2.0
112.033	3.0
112.048	1.0
112.063	5.0
112.078	3.0
112.093	5.0
112.108	3.0
112.123	3.0
112.137	1.0
112.152	3.0
112.167	3.0
112.182	3.0
112.197	5.0
112.212	3.0
112.226	4.0
112.241	3.0
112.256	5.0
112.271	6.0
112.286	10.0
112.301	3.0
112.315	5.0
112.33	1.0
112.345	5.0
112.36	5.0
112.375	5.0
112.389	5.0
112.404	4.0
112.419	6.0
112.434	3.0
112.449	3.0
112.464	3.0
112.478	3.0
112.493	7.0
112.508	1.0
112.523	4.0
112.538	4.0
112.553	3.0
112.567	5.0
112.582	2.0
112.597	1.0
112.612	4.0
112.627	6.0
112.642	4.0
112.656	6.0
112.671	5.0
112.686	5.0
112.701	4.0
112.716	2.0
112.73	6.0
112.745	6.0
112.76	5.0
112.775	1.0
112.79	1.0
112.805	7.0
112.819	4.0
112.834	6.0
112.849	7.0
112.864	2.0
112.879	5.0
112.894	0.0
112.908	1.0
112.923	5.0
112.938	2.0
112.953	3.0
112.968	5.0
112.983	8.0
112.997	6.0
113.012	6.0
113.027	5.0
113.042	5.0
113.057	4.0
113.072	3.0
113.086	6.0
113.101	2.0
113.116	8.0
113.131	2.0
113.146	1.0
113.161	2.0
113.175	2.0
113.19	0.0
113.205	3.0
113.22	4.0
113.235	1.0
113.25	1.0
113.265	2.0
113.279	3.0
113.294	2.0
113.309	3.0
113.324	4.0
113.339	2.0
113.354	0.0
113.368	3.0
113.383	7.0
113.398	3.0
113.413	3.0
113.428	4.0
113.443	3.0
113.458	0.0
113.472	4.0
113.487	2.0
113.502	1.0
113.517	3.0
113.532	2.0
113.547	7.0
113.562	3.0
113.576	2.0
113.591	1.0
113.606	4.0
113.621	3.0
113.636	4.0
113.651	3.0
113.666	1.0
113.681	0.0
113.695	3.0
113.71	7.0
113.725	2.0
113.74	3.0
113.755	3.0
113.77	1.0
113.785	5.0
113.8	3.0
113.814	4.0
113.829	1.0
113.844	4.0
113.859	5.0
113.874	5.0
113.889	1.0
113.904	6.0
113.919	9.0
113.934	0.0
113.949	1.0
113.963	5.0
113.978	4.0
113.993	2.0
114.008	4.0
114.023	4.0
114.038	4.0
114.053	5.0
114.068	3.0
114.083	1.0
114.098	2.0
114.113	2.0
114.127	5.0
114.142	4.0
114.157	8.0
114.172	4.0
114.187	3.0
114.202	3.0
114.217	2.0
114.232	4.0
114.247	4.0
114.262	3.0
114.277	4.0
114.292	1.0
114.307	3.0
114.322	2.0
114.337	2.0
114.351	5.0
114.366	4.0
114.381	4.0
114.396	12.0
114.411	4.0
114.426	4.0
114.441	3.0
114.456	6.0
114.471	3.0
114.486	6.0
114.501	2.0
114.516	2.0
114.531	5.0
114.546	4.0
114.561	7.0
114.576	4.0
114.591	4.0
114.606	5.0
114.621	6.0
114.636	3.0
114.65	4.0
114.665	1.0
114.68	0.0
114.695	3.0
114.71	4.0
114.725	3.0
114.74	5.0
114.755	3.0
114.77	3.0
114.785	4.0
114.8	2.0
114.815	5.0
114.83	5.0
114.845	6.0
114.86	3.0
114.875	2.0
114.89	1.0
114.905	4.0
114.92	2.0
114.935	4.0
114.95	2.0
114.965	1.0
114.98	2.0
114.995	6.0
115.009	3.0
115.024	2.0
115.039	3.0
115.054	0.0
115.069	6.0
115.084	2.0
115.099	9.0
115.114	7.0
115.129	7.0
115.144	5.0
115.159	5.0
115.174	3.0
115.189	2.0
115.204	4.0
115.219	4.0
115.234	4.0
115.249	6.0
115.264	10.0
115.279	8.0
115.294	6.0
115.309	6.0
115.323	1.0
115.338	4.0
115.353	3.0
115.368	2.0
115.383	3.0
115.398	7.0
115.413	5.0
115.428	4.0
115.443	2.0
115.458	3.0
115.473	3.0
115.488	4.0
115.503	4.0
115.518	4.0
115.533	3.0
115.548	3.0
115.562	3.0
115.577	4.0
115.592	3.0
115.607	6.0
115.622	2.0
115.637	3.0
115.652	4.0
115.667	3.0
115.682	4.0
115.697	3.0
115.712	2.0
115.727	4.0
115.741	1.0
115.756	7.0
115.771	1.0
115.786	1.0
115.801	3.0
115.816	6.0
115.831	3.0
115.846	4.0
115.861	3.0
115.875	4.0
115.89	1.0
115.905	0.0
115.92	3.0
115.935	6.0
115.95	6.0
115.965	3.0
115.98	4.0
115.995	1.0
116.009	4.0
116.024	2.0
116.039	8.0
116.054	3.0
116.069	1.0
116.084	2.0
116.099	7.0
116.113	5.0
116.128	2.0
116.143	3.0
116.158	1.0
116.173	3.0
116.188	0.0
116.202	4.0
116.217	2.0
116.232	4.0
116.247	1.0
116.262	2.0
116.277	1.0
116.291	1.0
116.306	6.0
116.321	1.0
116.336	2.0
116.351	4.0
116.366	1.0
116.38	5.0
116.395	9.0
116.41	3.0
116.425	6.0
116.44	4.0
116.454	3.0
116.469	5.0
116.484	1.0
116.499	2.0
116.514	5.0
116.528	6.0
116.543	3.0
116.558	1.0
116.573	4.0
116.588	4.0
116.602	4.0
116.617	4.0
116.632	4.0
116.647	2.0
116.662	5.0
116.676	2.0
116.691	6.0
116.706	5.0
116.721	2.0
116.735	3.0
116.75	4.0
116.765	3.0
116.78	4.0
116.795	1.0
116.809	4.0
116.824	1.0
116.839	2.0
116.854	3.0
116.868	4.0
116.883	3.0
116.898	2.0
116.913	3.0
116.927	4.0
116.942	8.0
116.957	3.0
116.972	3.0
116.986	3.0
117.001	4.0
117.016	2.0
117.031	3.0
117.045	3.0
117.06	2.0
117.075	3.0
117.09	1.0
117.104	5.0
117.119	1.0
117.134	5.0
117.149	2.0
117.163	1.0
117.178	8.0
117.193	6.0
117.208	2.0
117.222	3.0
117.237	3.0
117.252	4.0
117.267	9.0
117.281	4.0
117.296	1.0
117.311	11.0
117.325	4.0
117.34	3.0
117.355	2.0
117.37	3.0
117.384	1.0
117.399	6.0
117.414	2.0
117.429	4.0
117.443	3.0
117.458	7.0
117.473	5.0
117.487	3.0
117.502	0.0
117.517	5.0
117.532	7.0
117.546	3.0
117.561	2.0
117.576	2.0
117.59	3.0
117.605	3.0
117.62	5.0
117.635	3.0
117.649	3.0
117.664	4.0
117.679	3.0
117.693	1.0
117.708	2.0
117.723	8.0
117.738	2.0
117.752	3.0
117.767	3.0
117.782	3.0
117.796	2.0
117.811	4.0
117.826	2.0
117.841	3.0
117.855	6.0
117.87	3.0
117.885	4.0
117.899	3.0
117.914	7.0
117.929	3.0
117.944	3.0
117.958	4.0
117.973	4.0
117.988	4.0
118.002	7.0
118.017	5.0
118.032	4.0
118.047	4.0
118.062	3.0
118.077	2.0
118.092	3.0
118.107	5.0
118.121	7.0
118.136	10.0
118.151	4.0
118.166	7.0
118.181	2.0
118.196	6.0
118.211	6.0
118.225	1.0
118.24	3.0
118.255	1.0
118.27	1.0
118.285	1.0
118.3	7.0
118.315	1.0
118.33	4.0
118.344	3.0
118.359	1.0
118.374	6.0
118.389	2.0
118.404	1.0
118.419	3.0
118.434	3.0
118.449	1.0
118.463	2.0
118.478	1.0
118.493	1.0
118.508	3.0
118.523	2.0
118.538	1.0
118.553	3.0
118.567	3.0
118.582	3.0
118.597	4.0
118.612	6.0
118.627	4.0
118.642	0.0
118.657	2.0
118.672	6.0
118.686	6.0
118.701	5.0
118.716	2.0
118.731	4.0
118.746	4.0
118.761	4.0
118.776	4.0
118.791	3.0
118.805	1.0
118.82	6.0
118.835	2.0
118.85	1.0
118.865	2.0
118.88	3.0
118.895	1.0
118.909	3.0
118.924	3.0
118.939	3.0
118.954	1.0
118.969	6.0
118.984	3.0
118.999	3.0
119.014	4.0
119.028	2.0
119.043	5.0
119.058	6.0
119.073	2.0
119.088	4.0
119.103	4.0
119.118	4.0
119.133	4.0
119.147	3.0
119.162	7.0
119.177	3.0
119.192	2.0
119.207	2.0
119.222	3.0
119.237	1.0
119.251	1.0
119.266	4.0
119.281	4.0
119.296	5.0
119.311	3.0
119.326	6.0
119.341	2.0
119.356	2.0
119.37	2.0
119.385	2.0
119.4	4.0
119.415	3.0
119.43	4.0
119.445	3.0
119.46	5.0
119.475	1.0
119.489	0.0
119.504	6.0
119.519	4.0
119.534	4.0
119.549	2.0
119.564	4.0
119.579	2.0
119.593	6.0
119.608	2.0
119.623	2.0
119.638	6.0
119.653	2.0
119.668	1.0
119.683	1.0
119.698	4.0
119.712	3.0
119.727	7.0
119.742	7.0
119.757	5.0
119.772	0.0
119.787	5.0
119.802	3.0
119.817	4.0
119.831	3.0
119.846	8.0
119.861	5.0
119.876	2.0
119.891	5.0
119.906	2.0
119.921	5.0
119.935	1.0
119.95	0.0
119.965	3.0
119.98	4.0
119.995	2.0
120.01	3.0
120.025	3.0
120.04	3.0
120.054	3.0
120.069	3.0
120.084	5.0
120.099	2.0
120.114	3.0
120.129	2.0
120.144	1.0
120.159	1.0
120.173	5.0
120.188	2.0
120.203	1.0
120.218	0.0
120.233	0.0
120.248	0.0
120.263	0.0
120.277	2.0
120.292	0.0
120.307	1.0
120.322	0.0
120.337	0.0
120.352	1.0
120.367	0.0
120.382	1.0
120.396	0.0
120.411	0.0
120.426	0.0
120.441	0.0
120.456	0.0
120.471	0.0
120.486	0.0
120.501	0.0
120.515	0.0
120.53	0.0
120.545	1.0
120.56	0.0
120.575	0.0
120.59	0.0
120.605	0.0
120.619	0.0
120.634	0.0
120.649	0.0
120.664	0.0
120.679	0.0
120.694	0.0
120.709	0.0
120.724	0.0
120.738	0.0
120.753	0.0
120.768	0.0
120.783	0.0
120.798	0.0
120.813	1.0
120.828	0.0
120.843	0.0
120.857	0.0
120.872	0.0
120.887	0.0
120.902	0.0
120.917	0.0
120.932	0.0
120.947	0.0
120.961	0.0
120.976	0.0
