-1.217	0.0
-1.202	0.0
-1.187	0.0
-1.172	0.0
-1.157	0.0
-1.142	0.0
-1.128	0.0
-1.113	0.0
-1.098	0.0
-1.083	0.0
-1.068	0.0
-1.054	0.0
-1.039	0.0
-1.024	0.0
-1.009	0.0
-0.994	0.0
-0.979	0.0
-0.965	0.0
-0.95	0.0
-0.935	0.0
-0.92	0.0
-0.905	0.0
-0.891	0.0
-0.876	0.0
-0.861	0.0
-0.846	0.0
-0.831	0.0
-0.816	0.0
-0.802	0.0
-0.787	0.0
-0.772	0.0
-0.757	0.0
-0.742	0.0
-0.728	0.0
-0.713	0.0
-0.698	0.0
-0.683	0.0
-0.668	0.0
-0.653	0.0
-0.639	0.0
-0.624	0.0
-0.609	0.0
-0.594	0.0
-0.579	0.0
-0.565	0.0
-0.55	0.0
-0.535	0.0
-0.52	0.0
-0.505	0.0
-0.49	0.0
-0.476	0.0
-0.461	0.0
-0.446	0.0
-0.431	0.0
-0.416	0.0
-0.401	0.0
-0.387	0.0
-0.372	0.0
-0.357	0.0
-0.342	0.0
-0.327	0.0
-0.313	0.0
-0.298	0.0
-0.283	0.0
-0.268	0.0
-0.253	0.0
-0.238	0.0
-0.224	0.0
-0.209	0.0
-0.194	0.0
-0.179	0.0
-0.164	0.0
-0.15	0.0
-0.135	0.0
-0.12	0.0
-0.105	0.0
-0.09	0.0
-0.075	0.0
-0.061	0.0
-0.046	0.0
-0.031	0.0
-0.016	0.0
-0.001	0.0
0.013	0.0
0.028	0.0
0.043	0.0
0.058	0.0
0.073	0.0
0.088	0.0
0.102	0.0
0.117	1.0
0.132	0.0
0.147	0.0
0.162	0.0
0.176	0.0
0.191	0.0
0.206	0.0
0.221	0.0
0.236	0.0
0.251	0.0
0.265	0.0
0.28	0.0
0.295	0.0
0.31	0.0
0.325	0.0
0.339	0.0
0.354	0.0
0.369	0.0
0.384	0.0
0.399	0.0
0.414	0.0
0.428	0.0
0.443	0.0
0.458	0.0
0.473	0.0
0.488	0.0
0.502	0.0
0.517	0.0
0.532	0.0
0.547	0.0
0.562	0.0
0.577	0.0
0.591	0.0
0.606	0.0
0.621	0.0
0.636	0.0
0.651	0.0
0.665	0.0
0.68	0.0
0.695	0.0
0.71	0.0
0.725	0.0
0.74	0.0
0.754	0.0
0.769	0.0
0.784	0.0
0.799	0.0
0.814	0.0
0.828	0.0
0.843	0.0
0.858	0.0
0.873	0.0
0.888	0.0
0.903	0.0
0.917	0.0
0.932	0.0
0.947	0.0
0.962	0.0
0.977	0.0
0.991	1.0
1.006	0.0
1.021	0.0
1.036	0.0
1.051	0.0
1.065	0.0
1.08	0.0
1.095	0.0
1.11	0.0
1.125	0.0
1.14	0.0
1.154	0.0
1.169	0.0
1.184	0.0
1.199	0.0
1.214	0.0
1.228	0.0
1.243	0.0
1.258	0.0
1.273	1.0
1.288	0.0
1.302	0.0
1.317	0.0
1.332	0.0
1.347	0.0
1.362	0.0
1.376	0.0
1.391	0.0
1.406	0.0
1.421	0.0
1.436	0.0
1.45	0.0
1.465	0.0
1.48	0.0
1.495	1.0
1.51	0.0
1.524	0.0
1.539	1.0
1.554	0.0
1.569	0.0
1.584	0.0
1.598	0.0
1.613	0.0
1.628	0.0
1.643	0.0
1.658	0.0
1.672	0.0
1.687	0.0
1.702	0.0
1.717	0.0
1.732	0.0
1.746	0.0
1.761	0.0
1.776	0.0
1.791	0.0
1.806	0.0
1.82	1.0
1.835	0.0
1.85	0.0
1.865	0.0
1.88	0.0
1.894	0.0
1.909	0.0
1.924	0.0
1.939	0.0
1.954	0.0
1.968	0.0
1.983	0.0
1.998	1.0
2.013	0.0
2.028	0.0
2.042	1.0
2.057	0.0
2.072	0.0
2.087	0.0
2.101	1.0
2.116	0.0
2.131	1.0
2.146	0.0
2.161	0.0
2.175	0.0
2.19	0.0
2.205	1.0
2.22	1.0
2.235	1.0
2.249	0.0
2.264	0.0
2.279	0.0
2.294	0.0
2.308	1.0
2.323	0.0
2.338	0.0
2.353	0.0
2.368	0.0
2.382	1.0
2.397	1.0
2.412	2.0
2.427	2.0
2.442	2.0
2.456	1.0
2.471	1.0
2.486	3.0
2.501	2.0
2.515	2.0
2.53	3.0
2.545	3.0
2.56	2.0
2.575	2.0
2.589	3.0
2.604	4.0
2.619	3.0
2.634	1.0
2.649	3.0
2.663	3.0
2.678	2.0
2.693	3.0
2.708	5.0
2.722	0.0
2.737	1.0
2.752	0.0
2.767	1.0
2.782	1.0
2.796	4.0
2.811	3.0
2.826	3.0
2.841	0.0
2.856	3.0
2.87	2.0
2.885	2.0
2.9	1.0
2.915	2.0
2.93	3.0
2.944	4.0
2.959	3.0
2.974	4.0
2.989	7.0
3.004	3.0
3.018	5.0
3.033	2.0
3.048	5.0
3.063	3.0
3.078	3.0
3.092	1.0
3.107	5.0
3.122	3.0
3.137	4.0
3.152	4.0
3.166	5.0
3.181	1.0
3.196	5.0
3.211	2.0
3.226	3.0
3.24	4.0
3.255	1.0
3.27	3.0
3.285	1.0
3.3	8.0
3.315	4.0
3.329	6.0
3.344	5.0
3.359	7.0
3.374	7.0
3.389	5.0
3.403	3.0
3.418	5.0
3.433	7.0
3.448	3.0
3.463	5.0
3.478	6.0
3.492	5.0
3.507	3.0
3.522	4.0
3.537	7.0
3.552	4.0
3.567	5.0
3.581	6.0
3.596	8.0
3.611	4.0
3.626	10.0
3.641	6.0
3.656	3.0
3.671	9.0
3.685	5.0
3.7	11.0
3.715	8.0
3.73	9.0
3.745	3.0
3.76	6.0
3.775	2.0
3.789	6.0
3.804	3.0
3.819	7.0
3.834	6.0
3.849	5.0
3.864	4.0
3.879	3.0
3.894	4.0
3.908	3.0
3.923	3.0
3.938	2.0
3.953	8.0
3.968	10.0
3.983	12.0
3.998	6.0
4.013	6.0
4.027	6.0
4.042	7.0
4.057	6.0
4.072	5.0
4.087	3.0
4.102	2.0
4.117	4.0
4.132	7.0
4.147	5.0
4.162	7.0
4.176	8.0
4.191	7.0
4.206	10.0
4.221	3.0
4.236	10.0
4.251	5.0
4.266	4.0
4.281	6.0
4.296	3.0
4.311	9.0
4.326	8.0
4.341	11.0
4.356	8.0
4.37	7.0
4.385	5.0
4.4	3.0
4.415	10.0
4.43	6.0
4.445	3.0
4.46	6.0
4.475	11.0
4.49	5.0
4.505	6.0
4.52	6.0
4.535	3.0
4.55	7.0
4.565	8.0
4.58	7.0
4.595	6.0
4.61	9.0
4.625	7.0
4.639	7.0
4.654	10.0
4.669	9.0
4.684	10.0
4.699	5.0
4.714	9.0
4.729	6.0
4.744	9.0
4.759	14.0
4.774	8.0
4.789	7.0
4.804	7.0
4.819	13.0
4.834	8.0
4.849	13.0
4.864	9.0
4.879	10.0
4.894	6.0
4.909	10.0
4.924	7.0
4.939	13.0
4.954	5.0
4.969	2.0
4.984	9.0
4.999	7.0
5.014	7.0
5.029	4.0
5.044	2.0
5.059	5.0
5.074	8.0
5.089	14.0
5.104	7.0
5.119	14.0
5.134	4.0
5.149	10.0
5.164	10.0
5.179	5.0
5.194	7.0
5.209	5.0
5.224	9.0
5.239	9.0
5.254	9.0
5.269	8.0
5.284	6.0
5.299	11.0
5.314	4.0
5.329	9.0
5.344	9.0
5.359	10.0
5.374	10.0
5.389	8.0
5.404	17.0
5.419	10.0
5.434	13.0
5.449	6.0
5.464	4.0
5.479	7.0
5.494	12.0
5.509	9.0
5.524	6.0
5.539	6.0
5.554	9.0
5.569	10.0
5.584	6.0
5.599	5.0
5.614	3.0
5.629	9.0
5.644	9.0
5.659	7.0
5.674	7.0
5.689	1.0
5.704	9.0
5.719	12.0
5.734	13.0
5.749	4.0
5.764	6.0
5.779	9.0
5.794	10.0
5.809	2.0
5.824	12.0
5.839	11.0
5.854	8.0
5.869	12.0
5.884	10.0
5.899	11.0
5.914	5.0
5.929	8.0
5.944	7.0
5.959	7.0
5.974	3.0
5.989	7.0
6.004	7.0
6.019	4.0
6.034	10.0
6.049	8.0
6.064	10.0
6.079	7.0
6.094	10.0
6.109	11.0
6.124	7.0
6.139	8.0
6.154	8.0
6.169	7.0
6.184	6.0
6.199	8.0
6.214	6.0
6.229	6.0
6.244	9.0
6.259	16.0
6.274	7.0
6.289	4.0
6.304	14.0
6.319	6.0
6.334	9.0
6.349	9.0
6.364	10.0
6.379	8.0
6.394	11.0
6.409	11.0
6.424	9.0
6.439	7.0
6.454	10.0
6.469	5.0
6.484	5.0
6.499	21.0
6.514	6.0
6.529	10.0
6.544	11.0
6.559	5.0
6.574	6.0
6.589	7.0
6.604	9.0
6.619	9.0
6.634	13.0
6.649	6.0
6.664	9.0
6.679	11.0
6.694	10.0
6.709	9.0
6.724	11.0
6.739	7.0
6.754	16.0
6.769	12.0
6.784	7.0
6.799	12.0
6.814	14.0
6.829	9.0
6.844	11.0
6.859	8.0
6.873	8.0
6.888	18.0
6.903	13.0
6.918	7.0
6.933	11.0
6.948	7.0
6.963	10.0
6.978	8.0
6.993	7.0
7.008	13.0
7.023	6.0
7.038	13.0
7.053	12.0
7.068	10.0
7.083	2.0
7.098	8.0
7.113	4.0
7.128	6.0
7.143	5.0
7.157	9.0
7.172	7.0
7.187	12.0
7.202	5.0
7.217	5.0
7.232	7.0
7.247	8.0
7.262	6.0
7.277	12.0
7.292	11.0
7.307	9.0
7.322	13.0
7.336	8.0
7.351	9.0
7.366	11.0
7.381	10.0
7.396	8.0
7.411	12.0
7.426	8.0
7.441	11.0
7.456	13.0
7.471	7.0
7.485	8.0
7.5	10.0
7.515	4.0
7.53	11.0
7.545	9.0
7.56	15.0
7.575	6.0
7.59	14.0
7.604	7.0
7.619	10.0
7.634	10.0
7.649	11.0
7.664	11.0
7.679	10.0
7.693	10.0
7.708	3.0
7.723	14.0
7.738	10.0
7.753	15.0
7.768	2.0
7.783	6.0
7.797	3.0
7.812	3.0
7.827	8.0
7.842	9.0
7.857	6.0
7.871	4.0
7.886	12.0
7.901	11.0
7.916	8.0
7.931	8.0
7.945	6.0
7.96	10.0
7.975	11.0
7.99	8.0
8.005	7.0
8.019	10.0
8.034	7.0
8.049	10.0
8.064	13.0
8.078	11.0
8.093	10.0
8.108	9.0
8.123	6.0
8.137	8.0
8.152	4.0
8.167	10.0
8.182	13.0
8.196	9.0
8.211	13.0
8.226	8.0
8.241	8.0
8.255	9.0
8.27	8.0
8.285	8.0
8.3	14.0
8.314	6.0
8.329	10.0
8.344	13.0
8.358	8.0
8.373	8.0
8.388	15.0
8.403	13.0
8.417	8.0
8.432	5.0
8.447	5.0
8.461	14.0
8.476	10.0
8.491	8.0
8.505	7.0
8.52	13.0
8.535	10.0
8.55	9.0
8.564	11.0
8.579	5.0
8.594	4.0
8.608	7.0
8.623	6.0
8.638	8.0
8.652	8.0
8.667	8.0
8.682	7.0
8.696	7.0
8.711	14.0
8.726	12.0
8.74	12.0
8.755	11.0
8.77	8.0
8.784	10.0
8.799	7.0
8.814	8.0
8.828	7.0
8.843	13.0
8.858	12.0
8.872	8.0
8.887	8.0
8.902	6.0
8.916	12.0
8.931	12.0
8.946	13.0
8.96	8.0
8.975	6.0
8.99	6.0
9.004	7.0
9.019	8.0
9.034	6.0
9.048	10.0
9.063	4.0
9.077	8.0
9.092	10.0
9.107	11.0
9.121	7.0
9.136	6.0
9.151	16.0
9.165	2.0
9.18	10.0
9.195	8.0
9.209	10.0
9.224	8.0
9.239	4.0
9.253	7.0
9.268	6.0
9.283	9.0
9.297	8.0
9.312	4.0
9.327	4.0
9.341	9.0
9.356	10.0
9.371	9.0
9.385	8.0
9.4	7.0
9.415	4.0
9.429	7.0
9.444	6.0
9.458	11.0
9.473	6.0
9.488	4.0
9.502	8.0
9.517	12.0
9.532	8.0
9.546	12.0
9.561	2.0
9.576	6.0
9.59	7.0
9.605	13.0
9.62	9.0
9.635	6.0
9.649	10.0
9.664	10.0
9.679	5.0
9.693	10.0
9.708	3.0
9.723	10.0
9.737	14.0
9.752	8.0
9.767	14.0
9.781	12.0
9.796	7.0
9.811	6.0
9.825	4.0
9.84	12.0
9.855	12.0
9.87	3.0
9.884	12.0
9.899	9.0
9.914	4.0
9.928	7.0
9.943	8.0
9.958	8.0
9.973	5.0
9.987	8.0
10.002	4.0
10.017	6.0
10.031	8.0
10.046	11.0
10.061	3.0
10.076	6.0
10.09	6.0
10.105	9.0
10.12	8.0
10.135	9.0
10.149	6.0
10.164	10.0
10.179	9.0
10.194	7.0
10.208	7.0
10.223	5.0
10.238	3.0
10.253	13.0
10.267	8.0
10.282	4.0
10.297	6.0
10.312	6.0
10.326	6.0
10.341	7.0
10.356	3.0
10.371	5.0
10.386	6.0
10.4	10.0
10.415	10.0
10.43	9.0
10.445	7.0
10.46	11.0
10.474	4.0
10.489	6.0
10.504	7.0
10.519	7.0
10.533	7.0
10.548	7.0
10.563	5.0
10.578	10.0
10.593	5.0
10.608	10.0
10.622	10.0
10.637	10.0
10.652	10.0
10.667	13.0
10.682	6.0
10.696	7.0
10.711	5.0
10.726	9.0
10.741	11.0
10.756	6.0
10.771	4.0
10.785	12.0
10.8	12.0
10.815	13.0
10.83	8.0
10.845	11.0
10.86	4.0
10.874	6.0
10.889	7.0
10.904	5.0
10.919	9.0
10.934	11.0
10.949	8.0
10.963	6.0
10.978	12.0
10.993	6.0
11.008	13.0
11.023	8.0
11.038	9.0
11.053	14.0
11.067	4.0
11.082	7.0
11.097	8.0
11.112	10.0
11.127	3.0
11.142	5.0
11.157	10.0
11.172	8.0
11.186	10.0
11.201	11.0
11.216	9.0
11.231	9.0
11.246	7.0
11.261	6.0
11.276	14.0
11.291	13.0
11.305	11.0
11.32	7.0
11.335	9.0
11.35	6.0
11.365	6.0
11.38	9.0
11.395	6.0
11.41	7.0
11.424	8.0
11.439	5.0
11.454	7.0
11.469	5.0
11.484	5.0
11.499	3.0
11.514	11.0
11.529	8.0
11.544	9.0
11.558	10.0
11.573	8.0
11.588	8.0
11.603	10.0
11.618	8.0
11.633	4.0
11.648	7.0
11.663	7.0
11.678	7.0
11.693	5.0
11.707	8.0
11.722	3.0
11.737	11.0
11.752	13.0
11.767	15.0
11.782	9.0
11.797	8.0
11.812	9.0
11.827	5.0
11.842	16.0
11.856	10.0
11.871	10.0
11.886	9.0
11.901	9.0
11.916	6.0
11.931	17.0
11.946	14.0
11.961	10.0
11.976	10.0
11.991	6.0
12.006	10.0
12.02	5.0
12.035	10.0
12.05	9.0
12.065	10.0
12.08	13.0
12.095	9.0
12.11	8.0
12.125	13.0
12.14	7.0
12.155	8.0
12.17	7.0
12.184	12.0
12.199	8.0
12.214	5.0
12.229	12.0
12.244	9.0
12.259	14.0
12.274	13.0
12.289	8.0
12.304	16.0
12.319	11.0
12.334	18.0
12.348	12.0
12.363	14.0
12.378	12.0
12.393	13.0
12.408	10.0
12.423	10.0
12.438	7.0
12.453	9.0
12.468	14.0
12.483	13.0
12.498	10.0
12.513	10.0
12.527	14.0
12.542	11.0
12.557	9.0
12.572	13.0
12.587	11.0
12.602	14.0
12.617	20.0
12.632	9.0
12.647	16.0
12.662	9.0
12.677	9.0
12.692	15.0
12.707	11.0
12.721	12.0
12.736	14.0
12.751	8.0
12.766	14.0
12.781	7.0
12.796	11.0
12.811	13.0
12.826	13.0
12.841	15.0
12.856	15.0
12.871	23.0
12.886	8.0
12.9	23.0
12.915	10.0
12.93	18.0
12.945	19.0
12.96	9.0
12.975	15.0
12.99	13.0
13.005	14.0
13.02	19.0
13.035	14.0
13.05	15.0
13.065	11.0
13.08	22.0
13.094	8.0
13.109	14.0
13.124	15.0
13.139	12.0
13.154	16.0
13.169	8.0
13.184	14.0
13.199	17.0
13.214	19.0
13.229	22.0
13.244	16.0
13.259	14.0
13.274	18.0
13.288	16.0
13.303	21.0
13.318	25.0
13.333	25.0
13.348	27.0
13.363	28.0
13.378	32.0
13.393	29.0
13.408	33.0
13.423	27.0
13.438	32.0
13.453	33.0
13.468	31.0
13.482	29.0
13.497	51.0
13.512	45.0
13.527	53.0
13.542	41.0
13.557	52.0
13.572	50.0
13.587	61.0
13.602	56.0
13.617	63.0
13.632	68.0
13.647	72.0
13.662	81.0
13.677	86.0
13.691	90.0
13.706	94.0
13.721	98.0
13.736	113.0
13.751	104.0
13.766	125.0
13.781	95.0
13.796	119.0
13.811	123.0
13.826	139.0
13.841	133.0
13.856	132.0
13.871	118.0
13.885	89.0
13.9	83.0
13.915	92.0
13.93	64.0
13.945	71.0
13.96	59.0
13.975	53.0
13.99	45.0
14.005	37.0
14.02	31.0
14.035	22.0
14.05	25.0
14.065	23.0
14.08	22.0
14.094	22.0
14.109	19.0
14.124	25.0
14.139	20.0
14.154	23.0
14.169	20.0
14.184	28.0
14.199	22.0
14.214	20.0
14.229	24.0
14.244	31.0
14.259	23.0
14.274	22.0
14.288	22.0
14.303	20.0
14.318	18.0
14.333	24.0
14.348	20.0
14.363	18.0
14.378	22.0
14.393	15.0
14.408	21.0
14.423	15.0
14.438	17.0
14.453	17.0
14.468	18.0
14.482	22.0
14.497	13.0
14.512	14.0
14.527	8.0
14.542	29.0
14.557	17.0
14.572	14.0
14.587	15.0
14.602	12.0
14.617	9.0
14.632	19.0
14.647	15.0
14.661	19.0
14.676	18.0
14.691	17.0
14.706	9.0
14.721	14.0
14.736	13.0
14.751	15.0
14.766	16.0
14.781	22.0
14.796	14.0
14.811	22.0
14.826	11.0
14.84	16.0
14.855	15.0
14.87	14.0
14.885	13.0
14.9	18.0
14.915	14.0
14.93	13.0
14.945	8.0
14.96	13.0
14.975	9.0
14.989	15.0
15.004	25.0
15.019	18.0
15.034	7.0
15.049	18.0
15.064	11.0
15.079	9.0
15.094	16.0
15.109	12.0
15.124	11.0
15.138	12.0
15.153	9.0
15.168	13.0
15.183	18.0
15.198	16.0
15.213	18.0
15.228	24.0
15.243	13.0
15.258	19.0
15.272	19.0
15.287	13.0
15.302	14.0
15.317	11.0
15.332	19.0
15.347	16.0
15.362	8.0
15.377	15.0
15.391	10.0
15.406	4.0
15.421	7.0
15.436	18.0
15.451	10.0
15.466	13.0
15.481	17.0
15.496	12.0
15.51	20.0
15.525	13.0
15.54	14.0
15.555	15.0
15.57	16.0
15.585	11.0
15.6	10.0
15.614	21.0
15.629	15.0
15.644	10.0
15.659	15.0
15.674	15.0
15.689	20.0
15.704	15.0
15.718	18.0
15.733	13.0
15.748	24.0
15.763	7.0
15.778	16.0
15.793	12.0
15.808	16.0
15.822	12.0
15.837	15.0
15.852	12.0
15.867	8.0
15.882	11.0
15.897	17.0
15.911	18.0
15.926	11.0
15.941	15.0
15.956	13.0
15.971	9.0
15.986	16.0
16.0	20.0
16.015	16.0
16.03	9.0
16.045	8.0
16.06	12.0
16.074	11.0
16.089	11.0
16.104	13.0
16.119	17.0
16.134	11.0
16.149	17.0
16.163	14.0
16.178	15.0
16.193	16.0
16.208	13.0
16.223	15.0
16.237	15.0
16.252	16.0
16.267	19.0
16.282	15.0
16.297	19.0
16.311	23.0
16.326	15.0
16.341	18.0
16.356	13.0
16.37	10.0
16.385	22.0
16.4	23.0
16.415	11.0
16.43	13.0
16.444	20.0
16.459	12.0
16.474	17.0
16.489	16.0
16.504	20.0
16.518	16.0
16.533	16.0
16.548	14.0
16.563	10.0
16.577	31.0
16.592	20.0
16.607	19.0
16.622	17.0
16.637	20.0
16.651	13.0
16.666	15.0
16.681	15.0
16.696	26.0
16.71	23.0
16.725	24.0
16.74	27.0
16.755	33.0
16.77	36.0
16.784	28.0
16.799	32.0
16.814	43.0
16.829	48.0
16.843	45.0
16.858	45.0
16.873	47.0
16.888	50.0
16.902	58.0
16.917	75.0
16.932	50.0
16.947	73.0
16.961	65.0
16.976	56.0
16.991	74.0
17.006	62.0
17.021	65.0
17.035	65.0
17.05	43.0
17.065	59.0
17.08	42.0
17.094	38.0
17.109	30.0
17.124	23.0
17.139	30.0
17.153	20.0
17.168	13.0
17.183	18.0
17.198	18.0
17.212	16.0
17.227	11.0
17.242	18.0
17.257	14.0
17.271	11.0
17.286	16.0
17.301	18.0
17.316	15.0
17.33	10.0
17.345	13.0
17.36	17.0
17.375	10.0
17.39	16.0
17.404	12.0
17.419	15.0
17.434	11.0
17.449	15.0
17.463	23.0
17.478	12.0
17.493	15.0
17.508	11.0
17.522	13.0
17.537	12.0
17.552	6.0
17.567	12.0
17.581	10.0
17.596	11.0
17.611	14.0
17.626	25.0
17.641	12.0
17.655	6.0
17.67	14.0
17.685	11.0
17.7	19.0
17.714	13.0
17.729	10.0
17.744	10.0
17.759	14.0
17.773	11.0
17.788	17.0
17.803	9.0
17.818	10.0
17.833	19.0
17.847	13.0
17.862	18.0
17.877	16.0
17.892	13.0
17.906	17.0
17.921	17.0
17.936	15.0
17.951	13.0
17.966	9.0
17.98	12.0
17.995	14.0
18.01	11.0
18.025	12.0
18.04	17.0
18.054	15.0
18.069	20.0
18.084	10.0
18.099	11.0
18.114	13.0
18.128	11.0
18.143	16.0
18.158	4.0
18.173	12.0
18.188	12.0
18.202	16.0
18.217	16.0
18.232	15.0
18.247	15.0
18.262	10.0
18.276	6.0
18.291	9.0
18.306	10.0
18.321	12.0
18.336	5.0
18.35	13.0
18.365	8.0
18.38	19.0
18.395	16.0
18.41	11.0
18.424	11.0
18.439	7.0
18.454	17.0
18.469	14.0
18.484	7.0
18.498	10.0
18.513	11.0
18.528	8.0
18.543	13.0
18.558	15.0
18.573	16.0
18.587	7.0
18.602	9.0
18.617	13.0
18.632	14.0
18.647	8.0
18.661	14.0
18.676	14.0
18.691	13.0
18.706	13.0
18.721	8.0
18.736	6.0
18.75	14.0
18.765	12.0
18.78	12.0
18.795	20.0
18.81	14.0
18.825	12.0
18.839	9.0
18.854	13.0
18.869	7.0
18.884	11.0
18.899	14.0
18.913	13.0
18.928	10.0
18.943	8.0
18.958	16.0
18.973	21.0
18.988	9.0
19.002	14.0
19.017	20.0
19.032	9.0
19.047	13.0
19.062	16.0
19.077	8.0
19.091	7.0
19.106	11.0
19.121	8.0
19.136	17.0
19.151	14.0
19.165	14.0
19.18	18.0
19.195	11.0
19.21	11.0
19.225	4.0
19.24	14.0
19.254	10.0
19.269	13.0
19.284	11.0
19.299	10.0
19.314	19.0
19.329	20.0
19.343	22.0
19.358	13.0
19.373	17.0
19.388	17.0
19.403	28.0
19.417	26.0
19.432	23.0
19.447	23.0
19.462	31.0
19.477	29.0
19.492	30.0
19.506	30.0
19.521	27.0
19.536	36.0
19.551	40.0
19.566	36.0
19.58	40.0
19.595	48.0
19.61	36.0
19.625	42.0
19.64	34.0
19.655	29.0
19.669	33.0
19.684	36.0
19.699	30.0
19.714	30.0
19.729	17.0
19.743	22.0
19.758	28.0
19.773	13.0
19.788	16.0
19.803	12.0
19.817	10.0
19.832	14.0
19.847	12.0
19.862	12.0
19.877	11.0
19.891	22.0
19.906	11.0
19.921	12.0
19.936	8.0
19.951	11.0
19.965	10.0
19.98	13.0
19.995	13.0
20.01	11.0
20.025	10.0
20.039	11.0
20.054	8.0
20.069	12.0
20.084	19.0
20.099	10.0
20.113	13.0
20.128	13.0
20.143	13.0
20.158	19.0
20.173	14.0
20.187	11.0
20.202	8.0
20.217	12.0
20.232	12.0
20.246	13.0
20.261	11.0
20.276	7.0
20.291	14.0
20.306	7.0
20.32	9.0
20.335	12.0
20.35	10.0
20.365	8.0
20.38	8.0
20.394	11.0
20.409	14.0
20.424	16.0
20.439	10.0
20.453	11.0
20.468	18.0
20.483	8.0
20.498	14.0
20.513	12.0
20.527	8.0
20.542	9.0
20.557	15.0
20.572	11.0
20.586	10.0
20.601	9.0
20.616	12.0
20.631	12.0
20.646	15.0
20.66	8.0
20.675	9.0
20.69	17.0
20.705	11.0
20.719	12.0
20.734	16.0
20.749	9.0
20.764	10.0
20.779	17.0
20.793	11.0
20.808	11.0
20.823	13.0
20.838	7.0
20.853	7.0
20.867	7.0
20.882	11.0
20.897	15.0
20.912	4.0
20.926	9.0
20.941	6.0
20.956	5.0
20.971	8.0
20.986	17.0
21.0	10.0
21.015	19.0
21.03	9.0
21.045	10.0
21.06	9.0
21.074	10.0
21.089	18.0
21.104	9.0
21.119	12.0
21.134	15.0
21.148	12.0
21.163	19.0
21.178	12.0
21.193	11.0
21.208	15.0
21.222	7.0
21.237	14.0
21.252	7.0
21.267	11.0
21.282	8.0
21.296	16.0
21.311	14.0
21.326	11.0
21.341	10.0
21.356	6.0
21.37	10.0
21.385	15.0
21.4	9.0
21.415	14.0
21.43	24.0
21.444	13.0
21.459	13.0
21.474	17.0
21.489	13.0
21.504	9.0
21.519	8.0
21.533	8.0
21.548	12.0
21.563	9.0
21.578	13.0
21.593	11.0
21.608	9.0
21.622	17.0
21.637	6.0
21.652	12.0
21.667	14.0
21.682	14.0
21.697	20.0
21.712	24.0
21.726	30.0
21.741	21.0
21.756	24.0
21.771	38.0
21.786	42.0
21.801	31.0
21.816	38.0
21.83	41.0
21.845	49.0
21.86	59.0
21.875	51.0
21.89	72.0
21.905	61.0
21.92	66.0
21.935	71.0
21.949	68.0
21.964	81.0
21.979	62.0
21.994	77.0
22.009	67.0
22.024	70.0
22.039	55.0
22.054	54.0
22.069	44.0
22.083	48.0
22.098	41.0
22.113	46.0
22.128	33.0
22.143	22.0
22.158	30.0
22.173	22.0
22.188	21.0
22.203	18.0
22.218	14.0
22.233	16.0
22.248	10.0
22.262	11.0
22.277	15.0
22.292	19.0
22.307	16.0
22.322	9.0
22.337	13.0
22.352	14.0
22.367	10.0
22.382	11.0
22.397	11.0
22.412	15.0
22.427	10.0
22.442	12.0
22.457	16.0
22.472	12.0
22.487	19.0
22.502	16.0
22.516	8.0
22.531	11.0
22.546	14.0
22.561	17.0
22.576	17.0
22.591	9.0
22.606	13.0
22.621	12.0
22.636	6.0
22.651	7.0
22.666	14.0
22.681	14.0
22.696	19.0
22.711	13.0
22.726	13.0
22.741	14.0
22.756	10.0
22.771	12.0
22.786	10.0
22.801	14.0
22.816	10.0
22.831	10.0
22.846	10.0
22.861	11.0
22.876	14.0
22.891	16.0
22.906	8.0
22.92	7.0
22.935	12.0
22.95	11.0
22.965	11.0
22.98	8.0
22.995	10.0
23.01	9.0
23.025	14.0
23.04	6.0
23.055	14.0
23.07	5.0
23.085	7.0
23.1	6.0
23.115	8.0
23.13	7.0
23.145	8.0
23.16	10.0
23.175	11.0
23.19	21.0
23.205	10.0
23.22	15.0
23.235	10.0
23.25	13.0
23.265	8.0
23.28	6.0
23.295	15.0
23.31	7.0
23.325	11.0
23.34	11.0
23.355	16.0
23.37	12.0
23.384	9.0
23.399	10.0
23.414	7.0
23.429	9.0
23.444	16.0
23.459	8.0
23.474	4.0
23.489	6.0
23.504	9.0
23.519	6.0
23.534	8.0
23.549	15.0
23.564	11.0
23.579	8.0
23.594	12.0
23.609	8.0
23.624	10.0
23.639	9.0
23.654	9.0
23.668	11.0
23.683	10.0
23.698	18.0
23.713	9.0
23.728	12.0
23.743	15.0
23.758	15.0
23.773	11.0
23.788	13.0
23.803	13.0
23.818	12.0
23.833	16.0
23.848	10.0
23.862	19.0
23.877	17.0
23.892	23.0
23.907	23.0
23.922	15.0
23.937	19.0
23.952	29.0
23.967	34.0
23.982	31.0
23.997	42.0
24.011	41.0
24.026	31.0
24.041	45.0
24.056	47.0
24.071	64.0
24.086	46.0
24.101	61.0
24.116	52.0
24.131	45.0
24.145	44.0
24.16	43.0
24.175	44.0
24.19	36.0
24.205	41.0
24.22	32.0
24.235	29.0
24.249	29.0
24.264	27.0
24.279	20.0
24.294	28.0
24.309	24.0
24.324	18.0
24.338	9.0
24.353	23.0
24.368	15.0
24.383	11.0
24.398	18.0
24.413	14.0
24.428	9.0
24.442	10.0
24.457	10.0
24.472	10.0
24.487	6.0
24.502	12.0
24.516	11.0
24.531	14.0
24.546	20.0
24.561	11.0
24.576	11.0
24.591	7.0
24.605	18.0
24.62	12.0
24.635	14.0
24.65	11.0
24.665	12.0
24.679	6.0
24.694	14.0
24.709	10.0
24.724	14.0
24.739	10.0
24.753	10.0
24.768	8.0
24.783	9.0
24.798	12.0
24.813	9.0
24.827	6.0
24.842	4.0
24.857	16.0
24.872	6.0
24.886	6.0
24.901	13.0
24.916	12.0
24.931	9.0
24.946	14.0
24.96	7.0
24.975	8.0
24.99	8.0
25.005	12.0
25.019	13.0
25.034	13.0
25.049	12.0
25.064	14.0
25.078	10.0
25.093	13.0
25.108	16.0
25.123	9.0
25.138	8.0
25.152	13.0
25.167	12.0
25.182	13.0
25.197	9.0
25.211	17.0
25.226	12.0
25.241	9.0
25.256	17.0
25.27	14.0
25.285	7.0
25.3	8.0
25.315	11.0
25.329	14.0
25.344	9.0
25.359	9.0
25.374	8.0
25.388	13.0
25.403	11.0
25.418	9.0
25.433	11.0
25.447	7.0
25.462	5.0
25.477	6.0
25.492	9.0
25.506	11.0
25.521	13.0
25.536	17.0
25.55	10.0
25.565	7.0
25.58	8.0
25.595	9.0
25.609	17.0
25.624	14.0
25.639	4.0
25.654	13.0
25.668	12.0
25.683	11.0
25.698	5.0
25.713	9.0
25.727	15.0
25.742	12.0
25.757	6.0
25.772	17.0
25.786	7.0
25.801	8.0
25.816	12.0
25.83	9.0
25.845	7.0
25.86	6.0
25.875	5.0
25.889	9.0
25.904	14.0
25.919	9.0
25.934	4.0
25.948	10.0
25.963	6.0
25.978	13.0
25.992	11.0
26.007	9.0
26.022	11.0
26.037	16.0
26.051	6.0
26.066	14.0
26.081	9.0
26.096	9.0
26.11	7.0
26.125	15.0
26.14	6.0
26.155	12.0
26.169	10.0
26.184	7.0
26.199	8.0
26.213	14.0
26.228	13.0
26.243	6.0
26.258	9.0
26.272	7.0
26.287	8.0
26.302	7.0
26.317	11.0
26.331	14.0
26.346	12.0
26.361	10.0
26.376	7.0
26.39	17.0
26.405	11.0
26.42	14.0
26.434	4.0
26.449	6.0
26.464	12.0
26.479	10.0
26.493	14.0
26.508	15.0
26.523	9.0
26.538	16.0
26.552	7.0
26.567	7.0
26.582	9.0
26.597	8.0
26.611	4.0
26.626	9.0
26.641	6.0
26.656	8.0
26.67	8.0
26.685	11.0
26.7	10.0
26.715	10.0
26.729	13.0
26.744	8.0
26.759	16.0
26.773	8.0
26.788	8.0
26.803	11.0
26.818	9.0
26.832	9.0
26.847	12.0
26.862	7.0
26.877	10.0
26.891	8.0
26.906	7.0
26.921	5.0
26.936	10.0
26.95	8.0
26.965	12.0
26.98	6.0
26.995	4.0
27.01	12.0
27.024	8.0
27.039	17.0
27.054	8.0
27.069	8.0
27.083	7.0
27.098	14.0
27.113	7.0
27.128	8.0
27.142	7.0
27.157	10.0
27.172	9.0
27.187	12.0
27.201	11.0
27.216	6.0
27.231	10.0
27.246	12.0
27.261	6.0
27.275	14.0
27.29	15.0
27.305	8.0
27.32	16.0
27.334	7.0
27.349	9.0
27.364	10.0
27.379	8.0
27.394	10.0
27.408	8.0
27.423	9.0
27.438	12.0
27.453	8.0
27.467	11.0
27.482	13.0
27.497	6.0
27.512	9.0
27.527	7.0
27.541	5.0
27.556	5.0
27.571	8.0
27.586	8.0
27.601	9.0
27.615	8.0
27.63	14.0
27.645	17.0
27.66	10.0
27.675	18.0
27.689	12.0
27.704	21.0
27.719	14.0
27.734	16.0
27.749	14.0
27.763	22.0
27.778	29.0
27.793	19.0
27.808	16.0
27.823	20.0
27.838	22.0
27.852	22.0
27.867	19.0
27.882	22.0
27.897	21.0
27.912	30.0
27.926	21.0
27.941	21.0
27.956	17.0
27.971	16.0
27.986	17.0
28.001	16.0
28.015	14.0
28.03	21.0
28.045	27.0
28.06	24.0
28.075	15.0
28.09	16.0
28.105	12.0
28.119	14.0
28.134	13.0
28.149	11.0
28.164	7.0
28.179	13.0
28.194	13.0
28.208	17.0
28.223	12.0
28.238	12.0
28.253	12.0
28.268	7.0
28.283	19.0
28.298	4.0
28.312	11.0
28.327	12.0
28.342	14.0
28.357	10.0
28.372	11.0
28.387	8.0
28.402	9.0
28.417	8.0
28.431	11.0
28.446	12.0
28.461	13.0
28.476	8.0
28.491	9.0
28.506	10.0
28.521	16.0
28.536	8.0
28.55	7.0
28.565	9.0
28.58	12.0
28.595	15.0
28.61	5.0
28.625	7.0
28.64	8.0
28.655	8.0
28.669	12.0
28.684	14.0
28.699	12.0
28.714	8.0
28.729	11.0
28.744	13.0
28.759	13.0
28.774	4.0
28.788	7.0
28.803	11.0
28.818	12.0
28.833	9.0
28.848	13.0
28.863	13.0
28.878	14.0
28.893	8.0
28.908	8.0
28.922	9.0
28.937	9.0
28.952	11.0
28.967	7.0
28.982	12.0
28.997	7.0
29.012	8.0
29.027	9.0
29.041	7.0
29.056	8.0
29.071	7.0
29.086	6.0
29.101	8.0
29.116	14.0
29.131	8.0
29.146	16.0
29.16	13.0
29.175	10.0
29.19	10.0
29.205	13.0
29.22	16.0
29.235	5.0
29.25	11.0
29.265	4.0
29.279	11.0
29.294	11.0
29.309	11.0
29.324	11.0
29.339	16.0
29.354	13.0
29.369	20.0
29.384	18.0
29.398	12.0
29.413	15.0
29.428	19.0
29.443	23.0
29.458	20.0
29.473	21.0
29.488	29.0
29.502	29.0
29.517	42.0
29.532	39.0
29.547	49.0
29.562	45.0
29.577	45.0
29.592	53.0
29.606	55.0
29.621	51.0
29.636	59.0
29.651	47.0
29.666	49.0
29.681	37.0
29.695	35.0
29.71	35.0
29.725	44.0
29.74	26.0
29.755	23.0
29.77	29.0
29.784	19.0
29.799	24.0
29.814	28.0
29.829	34.0
29.844	40.0
29.859	16.0
29.873	26.0
29.888	11.0
29.903	18.0
29.918	16.0
29.933	11.0
29.947	11.0
29.962	14.0
29.977	9.0
29.992	17.0
30.007	13.0
30.021	16.0
30.036	6.0
30.051	12.0
30.066	10.0
30.081	10.0
30.095	8.0
30.11	15.0
30.125	8.0
30.14	12.0
30.155	8.0
30.169	4.0
30.184	12.0
30.199	9.0
30.214	14.0
30.228	7.0
30.243	10.0
30.258	13.0
30.273	11.0
30.288	14.0
30.302	10.0
30.317	8.0
30.332	11.0
30.347	10.0
30.361	15.0
30.376	12.0
30.391	16.0
30.406	15.0
30.42	6.0
30.435	10.0
30.45	9.0
30.465	14.0
30.479	12.0
30.494	5.0
30.509	10.0
30.524	15.0
30.538	10.0
30.553	8.0
30.568	18.0
30.583	12.0
30.597	4.0
30.612	2.0
30.627	15.0
30.641	15.0
30.656	15.0
30.671	12.0
30.686	9.0
30.7	10.0
30.715	12.0
30.73	15.0
30.745	17.0
30.759	9.0
30.774	12.0
30.789	11.0
30.803	5.0
30.818	11.0
30.833	10.0
30.848	15.0
30.862	15.0
30.877	12.0
30.892	9.0
30.906	7.0
30.921	12.0
30.936	14.0
30.951	6.0
30.965	10.0
30.98	12.0
30.995	17.0
31.009	15.0
31.024	9.0
31.039	14.0
31.053	11.0
31.068	11.0
31.083	16.0
31.098	17.0
31.112	18.0
31.127	23.0
31.142	17.0
31.156	18.0
31.171	20.0
31.186	23.0
31.2	32.0
31.215	34.0
31.23	32.0
31.245	31.0
31.259	28.0
31.274	37.0
31.289	44.0
31.303	37.0
31.318	31.0
31.333	35.0
31.347	26.0
31.362	29.0
31.377	33.0
31.392	23.0
31.406	33.0
31.421	24.0
31.436	26.0
31.45	26.0
31.465	19.0
31.48	29.0
31.494	22.0
31.509	20.0
31.524	32.0
31.538	17.0
31.553	10.0
31.568	9.0
31.583	16.0
31.597	13.0
31.612	12.0
31.627	15.0
31.641	16.0
31.656	10.0
31.671	9.0
31.685	11.0
31.7	11.0
31.715	8.0
31.729	7.0
31.744	12.0
31.759	16.0
31.774	12.0
31.788	8.0
31.803	10.0
31.818	6.0
31.832	9.0
31.847	7.0
31.862	9.0
31.876	7.0
31.891	8.0
31.906	9.0
31.92	13.0
31.935	12.0
31.95	10.0
31.965	11.0
31.979	9.0
31.994	8.0
32.009	11.0
32.023	6.0
32.038	12.0
32.053	9.0
32.067	9.0
32.082	3.0
32.097	9.0
32.112	13.0
32.126	8.0
32.141	10.0
32.156	12.0
32.17	16.0
32.185	8.0
32.2	10.0
32.214	5.0
32.229	17.0
32.244	10.0
32.259	12.0
32.273	6.0
32.288	11.0
32.303	9.0
32.317	12.0
32.332	9.0
32.347	13.0
32.362	7.0
32.376	10.0
32.391	8.0
32.406	7.0
32.42	7.0
32.435	11.0
32.45	9.0
32.465	14.0
32.479	10.0
32.494	11.0
32.509	14.0
32.523	13.0
32.538	5.0
32.553	7.0
32.568	15.0
32.582	9.0
32.597	3.0
32.612	13.0
32.627	13.0
32.641	12.0
32.656	10.0
32.671	10.0
32.685	10.0
32.7	28.0
32.715	18.0
32.73	16.0
32.744	16.0
32.759	27.0
32.774	31.0
32.788	27.0
32.803	35.0
32.818	32.0
32.833	29.0
32.847	21.0
32.862	25.0
32.877	21.0
32.892	25.0
32.906	18.0
32.921	15.0
32.936	16.0
32.951	20.0
32.965	15.0
32.98	22.0
32.995	18.0
33.009	12.0
33.024	16.0
33.039	27.0
33.054	14.0
33.068	15.0
33.083	16.0
33.098	11.0
33.113	17.0
33.127	16.0
33.142	11.0
33.157	13.0
33.172	13.0
33.186	12.0
33.201	10.0
33.216	3.0
33.231	11.0
33.245	11.0
33.26	6.0
33.275	10.0
33.29	10.0
33.304	4.0
33.319	8.0
33.334	9.0
33.349	10.0
33.363	10.0
33.378	9.0
33.393	8.0
33.408	7.0
33.422	12.0
33.437	8.0
33.452	6.0
33.467	9.0
33.481	6.0
33.496	4.0
33.511	8.0
33.526	10.0
33.54	10.0
33.555	5.0
33.57	5.0
33.585	4.0
33.599	9.0
33.614	9.0
33.629	15.0
33.644	4.0
33.658	15.0
33.673	8.0
33.688	6.0
33.703	14.0
33.718	11.0
33.732	7.0
33.747	7.0
33.762	6.0
33.777	8.0
33.791	7.0
33.806	7.0
33.821	9.0
33.836	8.0
33.85	10.0
33.865	3.0
33.88	11.0
33.895	12.0
33.91	11.0
33.924	10.0
33.939	6.0
33.954	14.0
33.969	6.0
33.983	14.0
33.998	11.0
34.013	6.0
34.028	16.0
34.042	12.0
34.057	14.0
34.072	11.0
34.087	10.0
34.102	14.0
34.116	10.0
34.131	8.0
34.146	10.0
34.161	10.0
34.175	10.0
34.19	11.0
34.205	9.0
34.22	10.0
34.235	12.0
34.249	16.0
34.264	19.0
34.279	15.0
34.294	15.0
34.309	19.0
34.323	9.0
34.338	10.0
34.353	16.0
34.368	11.0
34.382	14.0
34.397	18.0
34.412	15.0
34.427	17.0
34.442	10.0
34.456	11.0
34.471	7.0
34.486	14.0
34.501	12.0
34.516	11.0
34.53	12.0
34.545	6.0
34.56	8.0
34.575	7.0
34.59	6.0
34.604	15.0
34.619	14.0
34.634	13.0
34.649	9.0
34.664	9.0
34.678	12.0
34.693	11.0
34.708	11.0
34.723	13.0
34.738	9.0
34.752	4.0
34.767	11.0
34.782	8.0
34.797	9.0
34.812	7.0
34.826	6.0
34.841	11.0
34.856	6.0
34.871	15.0
34.886	6.0
34.9	8.0
34.915	7.0
34.93	5.0
34.945	8.0
34.96	12.0
34.974	9.0
34.989	10.0
35.004	13.0
35.019	8.0
35.034	7.0
35.048	8.0
35.063	8.0
35.078	8.0
35.093	5.0
35.108	9.0
35.122	7.0
35.137	10.0
35.152	12.0
35.167	3.0
35.182	11.0
35.196	5.0
35.211	9.0
35.226	12.0
35.241	7.0
35.256	5.0
35.27	10.0
35.285	7.0
35.3	12.0
35.315	8.0
35.33	9.0
35.344	5.0
35.359	11.0
35.374	8.0
35.389	13.0
35.404	7.0
35.418	8.0
35.433	8.0
35.448	6.0
35.463	6.0
35.478	7.0
35.493	10.0
35.507	8.0
35.522	8.0
35.537	14.0
35.552	6.0
35.567	6.0
35.581	11.0
35.596	5.0
35.611	9.0
35.626	17.0
35.641	10.0
35.655	15.0
35.67	18.0
35.685	15.0
35.7	16.0
35.715	18.0
35.729	17.0
35.744	14.0
35.759	13.0
35.774	14.0
35.789	21.0
35.804	21.0
35.818	24.0
35.833	24.0
35.848	13.0
35.863	15.0
35.878	14.0
35.892	12.0
35.907	10.0
35.922	13.0
35.937	8.0
35.952	9.0
35.966	20.0
35.981	13.0
35.996	11.0
36.011	9.0
36.026	17.0
36.04	18.0
36.055	12.0
36.07	11.0
36.085	12.0
36.1	19.0
36.114	13.0
36.129	14.0
36.144	11.0
36.159	8.0
36.174	12.0
36.189	8.0
36.203	7.0
36.218	12.0
36.233	8.0
36.248	14.0
36.263	7.0
36.277	11.0
36.292	8.0
36.307	10.0
36.322	7.0
36.337	9.0
36.351	8.0
36.366	10.0
36.381	10.0
36.396	7.0
36.411	10.0
36.426	8.0
36.44	11.0
36.455	6.0
36.47	8.0
36.485	6.0
36.5	9.0
36.514	6.0
36.529	4.0
36.544	3.0
36.559	10.0
36.574	5.0
36.589	10.0
36.603	11.0
36.618	8.0
36.633	7.0
36.648	8.0
36.663	8.0
36.677	7.0
36.692	5.0
36.707	10.0
36.722	5.0
36.737	6.0
36.752	11.0
36.766	15.0
36.781	6.0
36.796	10.0
36.811	6.0
36.826	9.0
36.841	6.0
36.855	9.0
36.87	7.0
36.885	9.0
36.9	11.0
36.915	3.0
36.93	7.0
36.944	8.0
36.959	5.0
36.974	8.0
36.989	16.0
37.004	13.0
37.019	12.0
37.033	18.0
37.048	13.0
37.063	15.0
37.078	14.0
37.093	24.0
37.108	17.0
37.123	19.0
37.137	20.0
37.152	17.0
37.167	29.0
37.182	32.0
37.197	29.0
37.212	29.0
37.226	23.0
37.241	23.0
37.256	18.0
37.271	28.0
37.286	18.0
37.301	12.0
37.316	22.0
37.331	11.0
37.345	14.0
37.36	21.0
37.375	14.0
37.39	22.0
37.405	21.0
37.42	18.0
37.435	16.0
37.45	18.0
37.464	12.0
37.479	7.0
37.494	13.0
37.509	9.0
37.524	10.0
37.539	9.0
37.554	7.0
37.569	13.0
37.583	12.0
37.598	6.0
37.613	9.0
37.628	10.0
37.643	9.0
37.658	6.0
37.673	10.0
37.688	4.0
37.703	9.0
37.718	8.0
37.733	5.0
37.747	7.0
37.762	11.0
37.777	6.0
37.792	9.0
37.807	5.0
37.822	7.0
37.837	6.0
37.852	4.0
37.867	8.0
37.882	4.0
37.897	5.0
37.912	6.0
37.927	5.0
37.941	10.0
37.956	4.0
37.971	7.0
37.986	9.0
38.001	9.0
38.016	10.0
38.031	4.0
38.046	8.0
38.061	9.0
38.076	13.0
38.091	11.0
38.106	3.0
38.121	6.0
38.136	7.0
38.151	8.0
38.166	8.0
38.181	10.0
38.196	6.0
38.211	6.0
38.226	10.0
38.241	5.0
38.256	7.0
38.271	5.0
38.285	12.0
38.3	5.0
38.315	9.0
38.33	10.0
38.345	7.0
38.36	7.0
38.375	4.0
38.39	6.0
38.405	4.0
38.42	12.0
38.435	7.0
38.45	11.0
38.465	6.0
38.48	7.0
38.495	9.0
38.51	11.0
38.525	6.0
38.54	8.0
38.555	8.0
38.57	6.0
38.585	2.0
38.6	7.0
38.615	10.0
38.63	6.0
38.645	7.0
38.66	4.0
38.675	3.0
38.69	6.0
38.705	2.0
38.72	4.0
38.735	7.0
38.75	7.0
38.765	6.0
38.78	3.0
38.795	2.0
38.81	8.0
38.825	9.0
38.84	5.0
38.855	7.0
38.87	5.0
38.885	6.0
38.9	4.0
38.915	6.0
38.93	4.0
38.945	3.0
38.96	7.0
38.975	6.0
38.99	5.0
39.005	5.0
39.02	4.0
39.035	5.0
39.05	9.0
39.065	7.0
39.08	3.0
39.095	4.0
39.11	8.0
39.125	9.0
39.14	4.0
39.155	2.0
39.17	10.0
39.185	6.0
39.2	6.0
39.215	8.0
39.23	4.0
39.245	6.0
39.26	8.0
39.275	4.0
39.29	5.0
39.305	5.0
39.32	2.0
39.335	5.0
39.35	2.0
39.365	7.0
39.38	5.0
39.395	1.0
39.409	2.0
39.424	5.0
39.439	8.0
39.454	7.0
39.469	7.0
39.484	6.0
39.499	7.0
39.514	4.0
39.529	4.0
39.544	6.0
39.559	3.0
39.574	7.0
39.589	5.0
39.604	4.0
39.619	4.0
39.634	4.0
39.649	5.0
39.664	5.0
39.678	1.0
39.693	9.0
39.708	6.0
39.723	4.0
39.738	7.0
39.753	9.0
39.768	7.0
39.783	10.0
39.798	8.0
39.813	3.0
39.827	6.0
39.842	5.0
39.857	8.0
39.872	15.0
39.887	10.0
39.902	8.0
39.917	7.0
39.932	9.0
39.947	6.0
39.961	6.0
39.976	5.0
39.991	10.0
40.006	9.0
40.021	14.0
40.036	5.0
40.051	3.0
40.065	8.0
40.08	4.0
40.095	8.0
40.11	9.0
40.125	9.0
40.14	7.0
40.154	4.0
40.169	6.0
40.184	15.0
40.199	7.0
40.214	9.0
40.228	10.0
40.243	6.0
40.258	9.0
40.273	10.0
40.288	5.0
40.302	5.0
40.317	3.0
40.332	7.0
40.347	11.0
40.362	4.0
40.376	8.0
40.391	4.0
40.406	8.0
40.421	6.0
40.436	3.0
40.45	2.0
40.465	2.0
40.48	5.0
40.495	8.0
40.509	4.0
40.524	6.0
40.539	7.0
40.554	5.0
40.568	8.0
40.583	6.0
40.598	9.0
40.613	4.0
40.627	4.0
40.642	5.0
40.657	7.0
40.672	3.0
40.686	11.0
40.701	6.0
40.716	6.0
40.731	4.0
40.745	10.0
40.76	8.0
40.775	6.0
40.79	4.0
40.804	7.0
40.819	7.0
40.834	11.0
40.849	11.0
40.863	8.0
40.878	7.0
40.893	6.0
40.907	3.0
40.922	9.0
40.937	10.0
40.952	5.0
40.966	5.0
40.981	9.0
40.996	13.0
41.011	9.0
41.025	4.0
41.04	9.0
41.055	12.0
41.069	16.0
41.084	9.0
41.099	12.0
41.114	18.0
41.128	14.0
41.143	17.0
41.158	12.0
41.173	23.0
41.187	18.0
41.202	20.0
41.217	17.0
41.231	10.0
41.246	7.0
41.261	7.0
41.276	5.0
41.29	11.0
41.305	14.0
41.32	8.0
41.335	15.0
41.349	13.0
41.364	16.0
41.379	13.0
41.393	13.0
41.408	11.0
41.423	9.0
41.438	15.0
41.452	11.0
41.467	13.0
41.482	4.0
41.497	9.0
41.511	11.0
41.526	13.0
41.541	10.0
41.556	9.0
41.57	8.0
41.585	4.0
41.6	3.0
41.615	5.0
41.629	6.0
41.644	7.0
41.659	4.0
41.674	9.0
41.688	3.0
41.703	9.0
41.718	8.0
41.733	7.0
41.747	5.0
41.762	3.0
41.777	3.0
41.792	4.0
41.806	3.0
41.821	5.0
41.836	2.0
41.851	9.0
41.866	7.0
41.88	9.0
41.895	5.0
41.91	6.0
41.925	7.0
41.939	8.0
41.954	5.0
41.969	6.0
41.984	7.0
41.999	3.0
42.013	7.0
42.028	7.0
42.043	8.0
42.058	8.0
42.073	7.0
42.088	4.0
42.102	4.0
42.117	6.0
42.132	6.0
42.147	7.0
42.162	3.0
42.176	9.0
42.191	5.0
42.206	7.0
42.221	7.0
42.236	7.0
42.251	7.0
42.266	12.0
42.28	8.0
42.295	13.0
42.31	17.0
42.325	13.0
42.34	9.0
42.355	15.0
42.369	17.0
42.384	19.0
42.399	24.0
42.414	17.0
42.429	13.0
42.444	15.0
42.459	18.0
42.474	15.0
42.488	9.0
42.503	15.0
42.518	9.0
42.533	11.0
42.548	11.0
42.563	5.0
42.578	11.0
42.593	8.0
42.608	9.0
42.622	11.0
42.637	9.0
42.652	9.0
42.667	15.0
42.682	14.0
42.697	14.0
42.712	13.0
42.727	4.0
42.742	10.0
42.757	8.0
42.772	9.0
42.786	5.0
42.801	12.0
42.816	5.0
42.831	10.0
42.846	6.0
42.861	4.0
42.876	9.0
42.891	2.0
42.906	8.0
42.921	6.0
42.936	8.0
42.951	4.0
42.966	6.0
42.981	4.0
42.996	3.0
43.011	1.0
43.025	7.0
43.04	7.0
43.055	5.0
43.07	7.0
43.085	8.0
43.1	5.0
43.115	13.0
43.13	6.0
43.145	6.0
43.16	8.0
43.175	6.0
43.19	5.0
43.205	5.0
43.22	2.0
43.235	10.0
43.25	7.0
43.265	5.0
43.28	3.0
43.295	3.0
43.31	6.0
43.325	6.0
43.34	5.0
43.355	9.0
43.37	6.0
43.385	4.0
43.4	5.0
43.415	3.0
43.43	7.0
43.445	5.0
43.46	8.0
43.475	8.0
43.49	3.0
43.505	5.0
43.52	6.0
43.535	9.0
43.55	11.0
43.565	12.0
43.58	10.0
43.595	5.0
43.61	11.0
43.625	7.0
43.64	14.0
43.655	8.0
43.67	8.0
43.685	12.0
43.7	7.0
43.715	5.0
43.73	9.0
43.745	7.0
43.76	2.0
43.775	7.0
43.79	9.0
43.805	7.0
43.82	3.0
43.835	10.0
43.85	5.0
43.865	9.0
43.88	4.0
43.895	4.0
43.91	9.0
43.925	7.0
43.94	2.0
43.955	6.0
43.97	3.0
43.985	8.0
44.0	5.0
44.015	7.0
44.03	2.0
44.045	6.0
44.061	3.0
44.076	6.0
44.091	3.0
44.106	4.0
44.121	6.0
44.136	5.0
44.151	5.0
44.166	3.0
44.181	5.0
44.196	4.0
44.211	4.0
44.226	6.0
44.241	9.0
44.256	6.0
44.271	3.0
44.286	6.0
44.301	3.0
44.316	2.0
44.331	2.0
44.346	3.0
44.361	4.0
44.377	3.0
44.392	6.0
44.407	5.0
44.422	8.0
44.437	6.0
44.452	6.0
44.467	2.0
44.482	4.0
44.497	7.0
44.512	6.0
44.527	4.0
44.542	3.0
44.557	5.0
44.572	14.0
44.587	1.0
44.602	5.0
44.617	6.0
44.632	2.0
44.647	5.0
44.663	4.0
44.678	6.0
44.693	12.0
44.708	5.0
44.723	12.0
44.738	10.0
44.753	13.0
44.768	9.0
44.783	14.0
44.798	3.0
44.813	7.0
44.828	10.0
44.843	14.0
44.858	10.0
44.873	6.0
44.888	11.0
44.903	2.0
44.918	8.0
44.933	4.0
44.948	1.0
44.964	6.0
44.979	6.0
44.994	5.0
45.009	8.0
45.024	4.0
45.039	8.0
45.054	9.0
45.069	8.0
45.084	10.0
45.099	6.0
45.114	7.0
45.129	3.0
45.144	8.0
45.159	12.0
45.174	6.0
45.189	3.0
45.204	7.0
45.219	7.0
45.234	8.0
45.249	5.0
45.264	3.0
45.279	6.0
45.294	6.0
45.309	3.0
45.324	3.0
45.339	8.0
45.354	10.0
45.369	6.0
45.384	1.0
45.399	8.0
45.414	1.0
45.429	3.0
45.444	4.0
45.459	3.0
45.474	6.0
45.489	8.0
45.504	6.0
45.519	7.0
45.534	3.0
45.549	7.0
45.564	3.0
45.579	9.0
45.594	4.0
45.609	4.0
45.624	3.0
45.639	4.0
45.654	8.0
45.669	4.0
45.684	8.0
45.699	8.0
45.714	4.0
45.729	6.0
45.744	6.0
45.759	5.0
45.774	7.0
45.789	7.0
45.804	6.0
45.819	8.0
45.834	4.0
45.849	9.0
45.864	4.0
45.879	13.0
45.894	14.0
45.909	8.0
45.924	10.0
45.939	17.0
45.954	12.0
45.969	17.0
45.984	13.0
45.998	9.0
46.013	17.0
46.028	14.0
46.043	12.0
46.058	14.0
46.073	12.0
46.088	6.0
46.103	6.0
46.118	10.0
46.133	9.0
46.148	7.0
46.163	10.0
46.178	8.0
46.192	12.0
46.207	9.0
46.222	13.0
46.237	10.0
46.252	16.0
46.267	13.0
46.282	9.0
46.297	14.0
46.312	5.0
46.327	15.0
46.341	10.0
46.356	8.0
46.371	10.0
46.386	6.0
46.401	6.0
46.416	4.0
46.431	7.0
46.446	4.0
46.46	4.0
46.475	7.0
46.49	5.0
46.505	5.0
46.52	3.0
46.535	3.0
46.55	5.0
46.564	3.0
46.579	2.0
46.594	6.0
46.609	6.0
46.624	6.0
46.639	5.0
46.654	4.0
46.668	5.0
46.683	5.0
46.698	3.0
46.713	4.0
46.728	6.0
46.743	3.0
46.758	7.0
46.772	3.0
46.787	3.0
46.802	4.0
46.817	3.0
46.832	3.0
46.847	9.0
46.861	6.0
46.876	3.0
46.891	8.0
46.906	7.0
46.921	4.0
46.936	4.0
46.95	4.0
46.965	7.0
46.98	7.0
46.995	5.0
47.01	6.0
47.025	4.0
47.039	11.0
47.054	3.0
47.069	11.0
47.084	5.0
47.099	6.0
47.113	6.0
47.128	9.0
47.143	12.0
47.158	16.0
47.173	13.0
47.188	13.0
47.202	3.0
47.217	5.0
47.232	7.0
47.247	6.0
47.262	7.0
47.277	6.0
47.291	7.0
47.306	4.0
47.321	6.0
47.336	4.0
47.351	4.0
47.365	7.0
47.38	3.0
47.395	2.0
47.41	5.0
47.425	6.0
47.44	6.0
47.454	4.0
47.469	10.0
47.484	10.0
47.499	8.0
47.514	2.0
47.528	11.0
47.543	6.0
47.558	2.0
47.573	5.0
47.588	3.0
47.603	5.0
47.617	6.0
47.632	8.0
47.647	6.0
47.662	4.0
47.677	6.0
47.691	5.0
47.706	7.0
47.721	5.0
47.736	4.0
47.751	5.0
47.766	3.0
47.78	2.0
47.795	6.0
47.81	6.0
47.825	7.0
47.84	3.0
47.855	5.0
47.869	8.0
47.884	7.0
47.899	8.0
47.914	2.0
47.929	10.0
47.944	6.0
47.958	6.0
47.973	9.0
47.988	7.0
48.003	4.0
48.018	1.0
48.033	3.0
48.047	5.0
48.062	7.0
48.077	3.0
48.092	6.0
48.107	3.0
48.122	4.0
48.137	3.0
48.151	6.0
48.166	0.0
48.181	4.0
48.196	3.0
48.211	7.0
48.226	5.0
48.241	1.0
48.255	1.0
48.27	7.0
48.285	5.0
48.3	4.0
48.315	6.0
48.33	4.0
48.345	3.0
48.359	2.0
48.374	6.0
48.389	6.0
48.404	5.0
48.419	7.0
48.434	1.0
48.449	4.0
48.464	6.0
48.478	1.0
48.493	6.0
48.508	6.0
48.523	3.0
48.538	7.0
48.553	2.0
48.568	6.0
48.583	2.0
48.597	4.0
48.612	5.0
48.627	5.0
48.642	4.0
48.657	4.0
48.672	3.0
48.687	4.0
48.702	7.0
48.717	2.0
48.731	3.0
48.746	4.0
48.761	4.0
48.776	4.0
48.791	2.0
48.806	8.0
48.821	5.0
48.836	7.0
48.851	4.0
48.866	7.0
48.88	3.0
48.895	3.0
48.91	5.0
48.925	6.0
48.94	4.0
48.955	6.0
48.97	5.0
48.985	6.0
49.0	5.0
49.015	6.0
49.03	1.0
49.044	4.0
49.059	4.0
49.074	5.0
49.089	6.0
49.104	4.0
49.119	4.0
49.134	0.0
49.149	6.0
49.164	2.0
49.179	3.0
49.194	6.0
49.209	4.0
49.224	3.0
49.238	4.0
49.253	5.0
49.268	9.0
49.283	3.0
49.298	9.0
49.313	7.0
49.328	7.0
49.343	3.0
49.358	10.0
49.373	12.0
49.388	6.0
49.403	9.0
49.418	8.0
49.433	5.0
49.448	9.0
49.463	7.0
49.478	5.0
49.492	5.0
49.507	5.0
49.522	4.0
49.537	7.0
49.552	9.0
49.567	4.0
49.582	4.0
49.597	3.0
49.612	4.0
49.627	3.0
49.642	6.0
49.657	8.0
49.672	8.0
49.687	3.0
49.702	8.0
49.717	6.0
49.732	8.0
49.747	4.0
49.762	12.0
49.777	8.0
49.792	4.0
49.807	4.0
49.822	7.0
49.837	6.0
49.852	4.0
49.867	7.0
49.882	4.0
49.897	6.0
49.912	2.0
49.927	10.0
49.942	10.0
49.957	7.0
49.971	5.0
49.986	6.0
50.001	7.0
50.016	8.0
50.031	1.0
50.046	3.0
50.061	6.0
50.076	6.0
50.091	2.0
50.106	5.0
50.121	5.0
50.136	7.0
50.151	4.0
50.166	5.0
50.181	4.0
50.196	6.0
50.211	5.0
50.226	6.0
50.241	6.0
50.256	4.0
50.271	7.0
50.286	4.0
50.302	5.0
50.317	9.0
50.332	3.0
50.347	4.0
50.362	10.0
50.377	10.0
50.392	4.0
50.407	3.0
50.422	9.0
50.437	5.0
50.452	6.0
50.467	7.0
50.482	8.0
50.497	5.0
50.512	7.0
50.527	8.0
50.542	6.0
50.557	3.0
50.572	4.0
50.587	1.0
50.602	3.0
50.617	3.0
50.632	7.0
50.647	4.0
50.662	6.0
50.677	4.0
50.692	6.0
50.707	3.0
50.722	7.0
50.737	3.0
50.752	6.0
50.767	5.0
50.782	6.0
50.797	8.0
50.812	3.0
50.828	6.0
50.843	10.0
50.858	9.0
50.873	6.0
50.888	3.0
50.903	7.0
50.918	7.0
50.933	3.0
50.948	8.0
50.963	6.0
50.978	5.0
50.993	7.0
51.008	4.0
51.023	2.0
51.038	6.0
51.053	6.0
51.068	9.0
51.083	3.0
51.098	4.0
51.114	4.0
51.129	10.0
51.144	4.0
51.159	4.0
51.174	7.0
51.189	4.0
51.204	6.0
51.219	6.0
51.234	6.0
51.249	10.0
51.264	5.0
51.279	7.0
51.294	14.0
51.309	2.0
51.324	5.0
51.34	3.0
51.355	4.0
51.37	9.0
51.385	8.0
51.4	7.0
51.415	4.0
51.43	10.0
51.445	4.0
51.46	8.0
51.475	9.0
51.49	16.0
51.505	15.0
51.52	14.0
51.535	13.0
51.551	19.0
51.566	13.0
51.581	13.0
51.596	9.0
51.611	13.0
51.626	17.0
51.641	5.0
51.656	2.0
51.671	10.0
51.686	2.0
51.701	5.0
51.716	5.0
51.732	6.0
51.747	6.0
51.762	11.0
51.777	9.0
51.792	8.0
51.807	14.0
51.822	14.0
51.837	13.0
51.852	11.0
51.867	15.0
51.882	10.0
51.898	15.0
51.913	16.0
51.928	6.0
51.943	11.0
51.958	4.0
51.973	7.0
51.988	8.0
52.003	3.0
52.018	4.0
52.033	5.0
52.048	8.0
52.064	2.0
52.079	2.0
52.094	8.0
52.109	3.0
52.124	3.0
52.139	3.0
52.154	2.0
52.169	6.0
52.184	4.0
52.199	8.0
52.215	4.0
52.23	4.0
52.245	3.0
52.26	4.0
52.275	5.0
52.29	2.0
52.305	2.0
52.32	5.0
52.335	6.0
52.35	3.0
52.366	9.0
52.381	4.0
52.396	3.0
52.411	10.0
52.426	3.0
52.441	5.0
52.456	5.0
52.471	10.0
52.486	7.0
52.502	6.0
52.517	12.0
52.532	14.0
52.547	7.0
52.562	13.0
52.577	7.0
52.592	10.0
52.607	15.0
52.622	8.0
52.637	8.0
52.653	8.0
52.668	6.0
52.683	6.0
52.698	2.0
52.713	3.0
52.728	6.0
52.743	5.0
52.758	7.0
52.774	4.0
52.789	4.0
52.804	7.0
52.819	3.0
52.834	7.0
52.849	6.0
52.864	7.0
52.879	7.0
52.894	10.0
52.91	7.0
52.925	12.0
52.94	6.0
52.955	8.0
52.97	7.0
52.985	4.0
53.0	7.0
53.015	6.0
53.031	6.0
53.046	7.0
53.061	6.0
53.076	7.0
53.091	2.0
53.106	5.0
53.121	4.0
53.136	1.0
53.152	3.0
53.167	3.0
53.182	5.0
53.197	8.0
53.212	4.0
53.227	8.0
53.242	2.0
53.257	6.0
53.273	7.0
53.288	6.0
53.303	6.0
53.318	3.0
53.333	5.0
53.348	3.0
53.363	5.0
53.379	2.0
53.394	5.0
53.409	5.0
53.424	5.0
53.439	4.0
53.454	5.0
53.469	7.0
53.484	8.0
53.5	4.0
53.515	7.0
53.53	5.0
53.545	10.0
53.56	6.0
53.575	9.0
53.59	1.0
53.606	6.0
53.621	4.0
53.636	5.0
53.651	6.0
53.666	3.0
53.681	5.0
53.696	5.0
53.712	5.0
53.727	4.0
53.742	10.0
53.757	6.0
53.772	6.0
53.787	6.0
53.802	2.0
53.818	7.0
53.833	6.0
53.848	2.0
53.863	5.0
53.878	4.0
53.893	5.0
53.909	10.0
53.924	4.0
53.939	3.0
53.954	3.0
53.969	4.0
53.984	4.0
53.999	2.0
54.015	3.0
54.03	3.0
54.045	7.0
54.06	1.0
54.075	8.0
54.09	4.0
54.106	7.0
54.121	4.0
54.136	3.0
54.151	3.0
54.166	1.0
54.181	5.0
54.197	4.0
54.212	5.0
54.227	4.0
54.242	2.0
54.257	8.0
54.272	5.0
54.288	4.0
54.303	2.0
54.318	6.0
54.333	3.0
54.348	5.0
54.363	6.0
54.379	5.0
54.394	2.0
54.409	3.0
54.424	8.0
54.439	8.0
54.454	7.0
54.47	10.0
54.485	7.0
54.5	4.0
54.515	12.0
54.53	4.0
54.545	4.0
54.561	11.0
54.576	11.0
54.591	8.0
54.606	11.0
54.621	9.0
54.636	11.0
54.652	13.0
54.667	11.0
54.682	9.0
54.697	10.0
54.712	11.0
54.727	14.0
54.743	9.0
54.758	6.0
54.773	6.0
54.788	5.0
54.803	5.0
54.819	5.0
54.834	7.0
54.849	1.0
54.864	6.0
54.879	5.0
54.894	8.0
54.91	3.0
54.925	4.0
54.94	10.0
54.955	8.0
54.97	7.0
54.985	9.0
55.001	12.0
55.016	9.0
55.031	8.0
55.046	10.0
55.061	13.0
55.077	2.0
55.092	8.0
55.107	0.0
55.122	8.0
55.137	1.0
55.152	8.0
55.168	7.0
55.183	3.0
55.198	6.0
55.213	7.0
55.228	8.0
55.243	6.0
55.259	3.0
55.274	3.0
55.289	7.0
55.304	3.0
55.319	2.0
55.335	7.0
55.35	3.0
55.365	5.0
55.38	8.0
55.395	3.0
55.41	4.0
55.426	3.0
55.441	2.0
55.456	5.0
55.471	4.0
55.486	5.0
55.501	10.0
55.517	4.0
55.532	0.0
55.547	6.0
55.562	6.0
55.577	2.0
55.592	5.0
55.608	6.0
55.623	10.0
55.638	3.0
55.653	5.0
55.668	4.0
55.683	7.0
55.699	4.0
55.714	7.0
55.729	4.0
55.744	8.0
55.759	5.0
55.774	4.0
55.79	4.0
55.805	3.0
55.82	7.0
55.835	4.0
55.85	3.0
55.865	7.0
55.881	2.0
55.896	5.0
55.911	2.0
55.926	6.0
55.941	3.0
55.956	7.0
55.972	9.0
55.987	10.0
56.002	8.0
56.017	9.0
56.032	8.0
56.047	8.0
56.063	7.0
56.078	5.0
56.093	4.0
56.108	1.0
56.123	7.0
56.138	10.0
56.154	4.0
56.169	4.0
56.184	7.0
56.199	3.0
56.214	2.0
56.229	8.0
56.244	4.0
56.26	8.0
56.275	6.0
56.29	2.0
56.305	8.0
56.32	5.0
56.335	1.0
56.351	7.0
56.366	6.0
56.381	5.0
56.396	6.0
56.411	3.0
56.426	3.0
56.441	6.0
56.457	3.0
56.472	3.0
56.487	5.0
56.502	8.0
56.517	5.0
56.532	7.0
56.547	2.0
56.563	5.0
56.578	4.0
56.593	3.0
56.608	9.0
56.623	3.0
56.638	7.0
56.653	7.0
56.668	4.0
56.684	4.0
56.699	5.0
56.714	7.0
56.729	3.0
56.744	2.0
56.759	7.0
56.774	2.0
56.79	3.0
56.805	1.0
56.82	2.0
56.835	4.0
56.85	2.0
56.865	1.0
56.88	3.0
56.895	5.0
56.911	4.0
56.926	4.0
56.941	2.0
56.956	4.0
56.971	4.0
56.986	5.0
57.001	4.0
57.016	4.0
57.031	2.0
57.047	4.0
57.062	6.0
57.077	6.0
57.092	1.0
57.107	2.0
57.122	2.0
57.137	5.0
57.152	6.0
57.167	4.0
57.183	4.0
57.198	5.0
57.213	3.0
57.228	2.0
57.243	1.0
57.258	3.0
57.273	6.0
57.288	6.0
57.303	5.0
57.318	4.0
57.334	2.0
57.349	2.0
57.364	5.0
57.379	4.0
57.394	3.0
57.409	5.0
57.424	5.0
57.439	5.0
57.454	4.0
57.469	8.0
57.484	3.0
57.5	5.0
57.515	3.0
57.53	3.0
57.545	4.0
57.56	5.0
57.575	10.0
57.59	3.0
57.605	3.0
57.62	3.0
57.635	16.0
57.65	1.0
57.665	5.0
57.68	4.0
57.696	4.0
57.711	7.0
57.726	9.0
57.741	4.0
57.756	2.0
57.771	1.0
57.786	5.0
57.801	1.0
57.816	2.0
57.831	2.0
57.846	5.0
57.861	3.0
57.876	6.0
57.891	7.0
57.906	5.0
57.921	4.0
57.937	3.0
57.952	4.0
57.967	5.0
57.982	6.0
57.997	6.0
58.012	1.0
58.027	7.0
58.042	2.0
58.057	7.0
58.072	9.0
58.087	6.0
58.102	2.0
58.117	3.0
58.132	3.0
58.147	8.0
58.162	5.0
58.177	5.0
58.192	7.0
58.207	2.0
58.222	7.0
58.237	5.0
58.252	6.0
58.267	6.0
58.282	2.0
58.297	3.0
58.312	6.0
58.327	7.0
58.342	4.0
58.357	4.0
58.372	5.0
58.387	5.0
58.402	1.0
58.418	2.0
58.433	5.0
58.448	2.0
58.463	1.0
58.478	2.0
58.493	6.0
58.508	8.0
58.523	3.0
58.538	2.0
58.553	4.0
58.568	3.0
58.583	8.0
58.598	10.0
58.613	10.0
58.628	13.0
58.643	11.0
58.658	13.0
58.673	10.0
58.688	11.0
58.703	8.0
58.718	7.0
58.733	2.0
58.748	7.0
58.763	8.0
58.778	2.0
58.793	6.0
58.808	3.0
58.823	3.0
58.838	2.0
58.853	2.0
58.868	3.0
58.883	6.0
58.898	8.0
58.913	3.0
58.928	5.0
58.942	3.0
58.957	5.0
58.972	6.0
58.987	2.0
59.002	8.0
59.017	15.0
59.032	8.0
59.047	4.0
59.062	2.0
59.077	5.0
59.092	5.0
59.107	8.0
59.122	5.0
59.137	4.0
59.152	3.0
59.167	3.0
59.182	0.0
59.197	3.0
59.212	2.0
59.227	3.0
59.242	4.0
59.257	8.0
59.272	8.0
59.287	6.0
59.302	2.0
59.317	3.0
59.332	4.0
59.347	5.0
59.362	5.0
59.377	4.0
59.392	2.0
59.407	3.0
59.422	2.0
59.437	2.0
59.452	4.0
59.467	5.0
59.482	5.0
59.497	6.0
59.512	4.0
59.527	2.0
59.542	7.0
59.557	3.0
59.572	4.0
59.587	9.0
59.602	11.0
59.617	8.0
59.632	5.0
59.647	10.0
59.661	9.0
59.676	9.0
59.691	11.0
59.706	7.0
59.721	1.0
59.736	7.0
59.751	2.0
59.766	2.0
59.781	1.0
59.796	4.0
59.811	3.0
59.826	5.0
59.841	5.0
59.856	8.0
59.871	6.0
59.886	5.0
59.901	6.0
59.916	3.0
59.931	4.0
59.946	6.0
59.961	3.0
59.976	6.0
59.991	7.0
60.006	7.0
60.021	6.0
60.036	4.0
60.051	4.0
60.066	6.0
60.081	5.0
60.096	6.0
60.111	4.0
60.126	5.0
60.141	7.0
60.156	6.0
60.171	4.0
60.186	5.0
60.201	2.0
60.216	3.0
60.231	5.0
60.246	5.0
60.261	1.0
60.276	2.0
60.291	4.0
60.306	2.0
60.321	4.0
60.336	3.0
60.35	3.0
60.365	3.0
60.38	1.0
60.395	4.0
60.41	3.0
60.425	2.0
60.44	6.0
60.455	6.0
60.47	2.0
60.485	3.0
60.5	8.0
60.515	6.0
60.53	3.0
60.545	13.0
60.56	11.0
60.575	13.0
60.59	10.0
60.605	7.0
60.62	5.0
60.635	5.0
60.65	6.0
60.665	3.0
60.68	8.0
60.695	4.0
60.71	4.0
60.725	6.0
60.74	3.0
60.755	5.0
60.77	5.0
60.785	4.0
60.8	1.0
60.815	2.0
60.83	3.0
60.845	6.0
60.86	3.0
60.875	2.0
60.89	3.0
60.905	3.0
60.92	6.0
60.935	5.0
60.95	8.0
60.965	6.0
60.98	5.0
60.995	6.0
61.01	10.0
61.025	9.0
61.04	5.0
61.055	5.0
61.07	5.0
61.085	8.0
61.1	2.0
61.115	3.0
61.13	2.0
61.145	7.0
61.16	3.0
61.175	3.0
61.191	2.0
61.206	2.0
61.221	1.0
61.236	2.0
61.251	4.0
61.266	4.0
61.281	1.0
61.296	8.0
61.311	3.0
61.326	3.0
61.341	3.0
61.356	2.0
61.371	5.0
61.386	2.0
61.401	4.0
61.416	6.0
61.431	4.0
61.446	3.0
61.461	3.0
61.476	7.0
61.491	1.0
61.506	15.0
61.521	13.0
61.536	9.0
61.551	12.0
61.566	5.0
61.581	5.0
61.596	9.0
61.611	5.0
61.626	10.0
61.641	3.0
61.656	3.0
61.672	1.0
61.687	4.0
61.702	5.0
61.717	3.0
61.732	5.0
61.747	7.0
61.762	6.0
61.777	4.0
61.792	2.0
61.807	3.0
61.822	3.0
61.837	4.0
61.852	3.0
61.867	5.0
61.882	4.0
61.897	4.0
61.912	6.0
61.927	3.0
61.943	5.0
61.958	6.0
61.973	3.0
61.988	4.0
62.003	5.0
62.018	5.0
62.033	6.0
62.048	3.0
62.063	2.0
62.078	5.0
62.093	1.0
62.108	1.0
62.123	4.0
62.138	8.0
62.153	5.0
62.169	6.0
62.184	4.0
62.199	4.0
62.214	3.0
62.229	3.0
62.244	3.0
62.259	5.0
62.274	2.0
62.289	3.0
62.304	3.0
62.319	3.0
62.335	4.0
62.35	3.0
62.365	4.0
62.38	1.0
62.395	5.0
62.41	6.0
62.425	4.0
62.44	6.0
62.455	2.0
62.47	5.0
62.485	4.0
62.501	4.0
62.516	2.0
62.531	4.0
62.546	2.0
62.561	4.0
62.576	5.0
62.591	5.0
62.606	3.0
62.621	6.0
62.636	9.0
62.652	4.0
62.667	5.0
62.682	2.0
62.697	4.0
62.712	3.0
62.727	3.0
62.742	3.0
62.757	3.0
62.772	8.0
62.787	1.0
62.803	5.0
62.818	3.0
62.833	6.0
62.848	5.0
62.863	6.0
62.878	6.0
62.893	1.0
62.908	6.0
62.923	6.0
62.939	5.0
62.954	1.0
62.969	6.0
62.984	2.0
62.999	4.0
63.014	4.0
63.029	3.0
63.044	5.0
63.059	2.0
63.074	3.0
63.09	5.0
63.105	3.0
63.12	2.0
63.135	2.0
63.15	5.0
63.165	4.0
63.18	3.0
63.195	3.0
63.21	5.0
63.226	7.0
63.241	5.0
63.256	4.0
63.271	3.0
63.286	2.0
63.301	6.0
63.316	4.0
63.331	6.0
63.346	0.0
63.362	4.0
63.377	4.0
63.392	6.0
63.407	8.0
63.422	7.0
63.437	7.0
63.452	7.0
63.467	2.0
63.482	9.0
63.497	4.0
63.513	6.0
63.528	7.0
63.543	3.0
63.558	5.0
63.573	5.0
63.588	4.0
63.603	4.0
63.618	6.0
63.633	5.0
63.648	2.0
63.664	1.0
63.679	3.0
63.694	3.0
63.709	8.0
63.724	5.0
63.739	6.0
63.754	3.0
63.769	5.0
63.784	5.0
63.799	1.0
63.814	3.0
63.83	3.0
63.845	4.0
63.86	6.0
63.875	9.0
63.89	5.0
63.905	2.0
63.92	7.0
63.935	4.0
63.95	3.0
63.965	1.0
63.98	6.0
63.996	3.0
64.011	3.0
64.026	4.0
64.041	0.0
64.056	3.0
64.071	4.0
64.086	5.0
64.101	0.0
64.116	2.0
64.131	4.0
64.146	5.0
64.161	4.0
64.176	4.0
64.191	5.0
64.207	8.0
64.222	6.0
64.237	2.0
64.252	3.0
64.267	8.0
64.282	2.0
64.297	3.0
64.312	2.0
64.327	1.0
64.342	4.0
64.357	3.0
64.372	5.0
64.387	2.0
64.402	3.0
64.417	7.0
64.433	2.0
64.448	1.0
64.463	1.0
64.478	9.0
64.493	3.0
64.508	1.0
64.523	0.0
64.538	3.0
64.553	5.0
64.568	3.0
64.583	6.0
64.598	4.0
64.613	1.0
64.628	4.0
64.643	4.0
64.658	7.0
64.673	2.0
64.688	4.0
64.703	6.0
64.718	6.0
64.734	0.0
64.749	4.0
64.764	5.0
64.779	2.0
64.794	5.0
64.809	4.0
64.824	5.0
64.839	4.0
64.854	4.0
64.869	4.0
64.884	4.0
64.899	6.0
64.914	7.0
64.929	4.0
64.944	6.0
64.959	3.0
64.974	2.0
64.989	3.0
65.004	6.0
65.019	3.0
65.034	3.0
65.049	1.0
65.064	2.0
65.079	4.0
65.094	5.0
65.109	3.0
65.125	1.0
65.14	2.0
65.155	5.0
65.17	5.0
65.185	4.0
65.2	4.0
65.215	4.0
65.23	4.0
65.245	6.0
65.26	7.0
65.275	2.0
65.29	7.0
65.305	2.0
65.32	4.0
65.335	4.0
65.35	7.0
65.365	6.0
65.38	4.0
65.395	1.0
65.41	8.0
65.425	4.0
65.44	1.0
65.455	3.0
65.47	3.0
65.485	5.0
65.5	4.0
65.515	2.0
65.53	7.0
65.545	4.0
65.56	3.0
65.575	3.0
65.59	2.0
65.605	3.0
65.62	6.0
65.635	4.0
65.65	4.0
65.666	2.0
65.681	4.0
65.696	5.0
65.711	4.0
65.726	2.0
65.741	5.0
65.756	8.0
65.771	2.0
65.786	3.0
65.801	2.0
65.816	6.0
65.831	6.0
65.846	7.0
65.861	2.0
65.876	2.0
65.891	2.0
65.906	3.0
65.921	5.0
65.936	4.0
65.951	2.0
65.966	3.0
65.981	2.0
65.996	1.0
66.011	5.0
66.026	6.0
66.041	2.0
66.056	3.0
66.071	1.0
66.086	4.0
66.101	5.0
66.116	6.0
66.131	6.0
66.146	8.0
66.161	8.0
66.176	6.0
66.191	6.0
66.206	14.0
66.221	15.0
66.236	5.0
66.251	7.0
66.266	1.0
66.281	7.0
66.296	4.0
66.311	6.0
66.327	8.0
66.342	4.0
66.357	1.0
66.372	4.0
66.387	4.0
66.402	7.0
66.417	5.0
66.432	4.0
66.447	3.0
66.462	3.0
66.477	5.0
66.492	8.0
66.507	1.0
66.522	2.0
66.537	2.0
66.552	7.0
66.567	9.0
66.582	7.0
66.597	7.0
66.612	9.0
66.627	5.0
66.642	6.0
66.657	9.0
66.672	9.0
66.687	5.0
66.702	8.0
66.717	3.0
66.732	6.0
66.747	3.0
66.762	2.0
66.777	2.0
66.792	5.0
66.807	4.0
66.822	1.0
66.837	2.0
66.853	0.0
66.868	3.0
66.883	9.0
66.898	3.0
66.913	2.0
66.928	1.0
66.943	4.0
66.958	4.0
66.973	1.0
66.988	4.0
67.003	4.0
67.018	3.0
67.033	2.0
67.048	2.0
67.063	3.0
67.078	8.0
67.093	6.0
67.108	5.0
67.123	1.0
67.138	6.0
67.153	5.0
67.168	2.0
67.183	2.0
67.198	3.0
67.214	6.0
67.229	2.0
67.244	4.0
67.259	6.0
67.274	6.0
67.289	1.0
67.304	5.0
67.319	2.0
67.334	6.0
67.349	7.0
67.364	2.0
67.379	3.0
67.394	6.0
67.409	3.0
67.424	4.0
67.439	2.0
67.454	5.0
67.469	6.0
67.484	1.0
67.5	8.0
67.515	5.0
67.53	2.0
67.545	3.0
67.56	5.0
67.575	1.0
67.59	5.0
67.605	3.0
67.62	2.0
67.635	3.0
67.65	8.0
67.665	5.0
67.68	0.0
67.695	2.0
67.71	6.0
67.726	4.0
67.741	1.0
67.756	0.0
67.771	0.0
67.786	4.0
67.801	4.0
67.816	3.0
67.831	5.0
67.846	2.0
67.861	1.0
67.876	6.0
67.891	0.0
67.906	5.0
67.922	7.0
67.937	2.0
67.952	1.0
67.967	4.0
67.982	5.0
67.997	7.0
68.012	4.0
68.027	3.0
68.042	4.0
68.057	5.0
68.072	4.0
68.087	4.0
68.103	2.0
68.118	6.0
68.133	2.0
68.148	2.0
68.163	5.0
68.178	3.0
68.193	4.0
68.208	2.0
68.223	6.0
68.238	6.0
68.254	5.0
68.269	3.0
68.284	2.0
68.299	4.0
68.314	4.0
68.329	2.0
68.344	5.0
68.359	1.0
68.374	5.0
68.389	8.0
68.405	3.0
68.42	6.0
68.435	2.0
68.45	3.0
68.465	5.0
68.48	5.0
68.495	6.0
68.51	2.0
68.525	4.0
68.54	7.0
68.556	3.0
68.571	4.0
68.586	4.0
68.601	4.0
68.616	6.0
68.631	3.0
68.646	3.0
68.661	7.0
68.676	2.0
68.691	3.0
68.707	5.0
68.722	1.0
68.737	2.0
68.752	5.0
68.767	3.0
68.782	3.0
68.797	3.0
68.812	1.0
68.827	4.0
68.842	4.0
68.857	1.0
68.873	4.0
68.888	2.0
68.903	1.0
68.918	4.0
68.933	4.0
68.948	3.0
68.963	5.0
68.978	8.0
68.993	7.0
69.008	5.0
69.023	6.0
69.038	6.0
69.054	5.0
69.069	2.0
69.084	3.0
69.099	4.0
69.114	1.0
69.129	2.0
69.144	3.0
69.159	1.0
69.174	3.0
69.189	4.0
69.204	3.0
69.219	0.0
69.234	4.0
69.249	0.0
69.264	1.0
69.279	4.0
69.295	2.0
69.31	4.0
69.325	3.0
69.34	0.0
69.355	3.0
69.37	2.0
69.385	1.0
69.4	4.0
69.415	4.0
69.43	3.0
69.445	5.0
69.46	7.0
69.475	1.0
69.49	2.0
69.505	0.0
69.52	7.0
69.535	2.0
69.55	5.0
69.565	3.0
69.58	4.0
69.595	8.0
69.61	2.0
69.625	4.0
69.64	2.0
69.655	6.0
69.67	1.0
69.685	2.0
69.7	4.0
69.715	3.0
69.73	6.0
69.745	4.0
69.76	4.0
69.775	4.0
69.79	7.0
69.805	7.0
69.82	6.0
69.835	6.0
69.85	10.0
69.865	5.0
69.88	4.0
69.895	2.0
69.909	5.0
69.924	4.0
69.939	6.0
69.954	2.0
69.969	4.0
69.984	5.0
69.999	5.0
70.014	3.0
70.029	1.0
70.044	2.0
70.059	2.0
70.074	1.0
70.088	2.0
70.103	3.0
70.118	8.0
70.133	4.0
70.148	4.0
70.163	5.0
70.178	6.0
70.193	8.0
70.208	4.0
70.222	6.0
70.237	6.0
70.252	9.0
70.267	4.0
70.282	4.0
70.297	4.0
70.312	5.0
70.327	2.0
70.341	4.0
70.356	7.0
70.371	7.0
70.386	6.0
70.401	3.0
70.416	1.0
70.43	4.0
70.445	2.0
70.46	4.0
70.475	2.0
70.49	0.0
70.505	4.0
70.519	4.0
70.534	4.0
70.549	3.0
70.564	2.0
70.579	2.0
70.594	2.0
70.608	3.0
70.623	5.0
70.638	8.0
70.653	4.0
70.668	8.0
70.683	4.0
70.697	5.0
70.712	4.0
70.727	3.0
70.742	6.0
70.757	3.0
70.771	1.0
70.786	5.0
70.801	6.0
70.816	5.0
70.831	3.0
70.845	2.0
70.86	3.0
70.875	4.0
70.89	4.0
70.905	6.0
70.92	2.0
70.934	8.0
70.949	3.0
70.964	5.0
70.979	1.0
70.994	3.0
71.008	3.0
71.023	6.0
71.038	4.0
71.053	1.0
71.068	5.0
71.082	3.0
71.097	4.0
71.112	2.0
71.127	6.0
71.142	2.0
71.156	3.0
71.171	4.0
71.186	2.0
71.201	2.0
71.216	4.0
71.231	1.0
71.245	5.0
71.26	4.0
71.275	1.0
71.29	7.0
71.305	1.0
71.319	1.0
71.334	2.0
71.349	3.0
71.364	3.0
71.379	1.0
71.394	5.0
71.408	4.0
71.423	3.0
71.438	3.0
71.453	2.0
71.468	2.0
71.483	2.0
71.497	1.0
71.512	4.0
71.527	2.0
71.542	7.0
71.557	5.0
71.572	1.0
71.586	1.0
71.601	5.0
71.616	5.0
71.631	2.0
71.646	1.0
71.661	5.0
71.676	3.0
71.69	4.0
71.705	3.0
71.72	3.0
71.735	6.0
71.75	2.0
71.765	2.0
71.78	7.0
71.795	4.0
71.81	3.0
71.824	5.0
71.839	3.0
71.854	1.0
71.869	4.0
71.884	3.0
71.899	1.0
71.914	6.0
71.929	1.0
71.944	2.0
71.959	4.0
71.974	4.0
71.988	7.0
72.003	1.0
72.018	4.0
72.033	8.0
72.048	3.0
72.063	3.0
72.078	4.0
72.093	7.0
72.108	7.0
72.123	2.0
72.138	2.0
72.153	4.0
72.168	2.0
72.183	3.0
72.198	3.0
72.213	3.0
72.228	2.0
72.243	4.0
72.258	2.0
72.273	6.0
72.288	3.0
72.303	1.0
72.318	2.0
72.333	5.0
72.348	7.0
72.363	2.0
72.378	3.0
72.393	2.0
72.408	2.0
72.423	4.0
72.438	5.0
72.453	4.0
72.468	5.0
72.483	2.0
72.498	6.0
72.513	3.0
72.528	1.0
72.543	0.0
72.558	8.0
72.573	2.0
72.588	5.0
72.603	1.0
72.618	3.0
72.633	4.0
72.649	1.0
72.664	3.0
72.679	0.0
72.694	1.0
72.709	5.0
72.724	5.0
72.739	1.0
72.754	3.0
72.769	6.0
72.784	4.0
72.799	5.0
72.814	1.0
72.829	4.0
72.845	4.0
72.86	3.0
72.875	3.0
72.89	5.0
72.905	4.0
72.92	4.0
72.935	6.0
72.95	4.0
72.965	6.0
72.98	4.0
72.996	2.0
73.011	4.0
73.026	4.0
73.041	4.0
73.056	3.0
73.071	5.0
73.086	2.0
73.101	0.0
73.117	0.0
73.132	9.0
73.147	3.0
73.162	3.0
73.177	1.0
73.192	9.0
73.207	4.0
73.222	0.0
73.238	5.0
73.253	8.0
73.268	2.0
73.283	9.0
73.298	7.0
73.313	4.0
73.328	3.0
73.343	5.0
73.359	3.0
73.374	2.0
73.389	1.0
73.404	5.0
73.419	2.0
73.434	1.0
73.449	2.0
73.465	1.0
73.48	9.0
73.495	2.0
73.51	3.0
73.525	3.0
73.54	4.0
73.556	3.0
73.571	4.0
73.586	5.0
73.601	2.0
73.616	5.0
73.631	2.0
73.646	3.0
73.662	3.0
73.677	2.0
73.692	2.0
73.707	2.0
73.722	1.0
73.737	2.0
73.752	5.0
73.768	7.0
73.783	2.0
73.798	9.0
73.813	4.0
73.828	3.0
73.843	6.0
73.859	1.0
73.874	3.0
73.889	2.0
73.904	4.0
73.919	2.0
73.934	2.0
73.949	4.0
73.965	8.0
73.98	1.0
73.995	3.0
74.01	5.0
74.025	2.0
74.04	5.0
74.056	3.0
74.071	2.0
74.086	5.0
74.101	6.0
74.116	4.0
74.131	5.0
74.146	9.0
74.162	4.0
74.177	2.0
74.192	4.0
74.207	6.0
74.222	5.0
74.237	6.0
74.252	4.0
74.268	4.0
74.283	5.0
74.298	5.0
74.313	2.0
74.328	2.0
74.343	5.0
74.358	6.0
74.374	3.0
74.389	5.0
74.404	1.0
74.419	2.0
74.434	6.0
74.449	1.0
74.464	1.0
74.48	3.0
74.495	5.0
74.51	9.0
74.525	1.0
74.54	3.0
74.555	4.0
74.57	4.0
74.586	4.0
74.601	4.0
74.616	11.0
74.631	6.0
74.646	3.0
74.661	7.0
74.676	11.0
74.691	4.0
74.707	7.0
74.722	2.0
74.737	5.0
74.752	4.0
74.767	3.0
74.782	4.0
74.797	0.0
74.813	5.0
74.828	3.0
74.843	5.0
74.858	5.0
74.873	1.0
74.888	4.0
74.903	3.0
74.918	4.0
74.934	1.0
74.949	3.0
74.964	0.0
74.979	3.0
74.994	6.0
75.009	3.0
75.024	5.0
75.04	8.0
75.055	2.0
75.07	6.0
75.085	5.0
75.1	5.0
75.115	9.0
75.13	4.0
75.145	4.0
75.161	2.0
75.176	1.0
75.191	5.0
75.206	2.0
75.221	0.0
75.236	3.0
75.251	1.0
75.266	4.0
75.282	1.0
75.297	2.0
75.312	3.0
75.327	1.0
75.342	2.0
75.357	1.0
75.372	3.0
75.387	2.0
75.403	1.0
75.418	4.0
75.433	2.0
75.448	1.0
75.463	2.0
75.478	2.0
75.493	2.0
75.509	4.0
75.524	5.0
75.539	2.0
75.554	4.0
75.569	3.0
75.584	1.0
75.599	2.0
75.614	3.0
75.63	5.0
75.645	4.0
75.66	3.0
75.675	5.0
75.69	1.0
75.705	5.0
75.72	4.0
75.735	4.0
75.751	1.0
75.766	4.0
75.781	5.0
75.796	2.0
75.811	6.0
75.826	2.0
75.841	4.0
75.856	4.0
75.872	3.0
75.887	2.0
75.902	4.0
75.917	2.0
75.932	7.0
75.947	2.0
75.962	3.0
75.977	10.0
75.993	6.0
76.008	2.0
76.023	6.0
76.038	2.0
76.053	2.0
76.068	3.0
76.083	6.0
76.098	1.0
76.114	5.0
76.129	7.0
76.144	3.0
76.159	3.0
76.174	3.0
76.189	3.0
76.204	1.0
76.22	3.0
76.235	2.0
76.25	4.0
76.265	1.0
76.28	4.0
76.295	3.0
76.31	1.0
76.325	3.0
76.341	3.0
76.356	3.0
76.371	7.0
76.386	2.0
76.401	1.0
76.416	3.0
76.431	1.0
76.446	2.0
76.462	2.0
76.477	5.0
76.492	9.0
76.507	1.0
76.522	0.0
76.537	3.0
76.552	2.0
76.567	2.0
76.583	4.0
76.598	2.0
76.613	4.0
76.628	5.0
76.643	2.0
76.658	1.0
76.673	2.0
76.688	4.0
76.704	3.0
76.719	6.0
76.734	7.0
76.749	3.0
76.764	3.0
76.779	2.0
76.794	4.0
76.809	4.0
76.824	7.0
76.84	3.0
76.855	3.0
76.87	2.0
76.885	3.0
76.9	6.0
76.915	5.0
76.93	1.0
76.945	6.0
76.96	3.0
76.976	3.0
76.991	5.0
77.006	3.0
77.021	2.0
77.036	2.0
77.051	6.0
77.066	3.0
77.081	0.0
77.096	4.0
77.112	2.0
77.127	1.0
77.142	2.0
77.157	2.0
77.172	6.0
77.187	1.0
77.202	2.0
77.217	3.0
77.232	4.0
77.247	2.0
77.263	4.0
77.278	1.0
77.293	3.0
77.308	2.0
77.323	6.0
77.338	8.0
77.353	2.0
77.368	2.0
77.383	3.0
77.398	5.0
77.413	1.0
77.428	6.0
77.444	7.0
77.459	4.0
77.474	1.0
77.489	2.0
77.504	5.0
77.519	1.0
77.534	4.0
77.549	6.0
77.564	1.0
77.579	6.0
77.594	4.0
77.609	4.0
77.624	6.0
77.64	2.0
77.655	7.0
77.67	5.0
77.685	5.0
77.7	6.0
77.715	5.0
77.73	3.0
77.745	3.0
77.76	3.0
77.775	4.0
77.79	0.0
77.805	1.0
77.82	3.0
77.835	2.0
77.85	2.0
77.865	2.0
77.88	5.0
77.895	2.0
77.91	3.0
77.926	3.0
77.941	4.0
77.956	3.0
77.971	2.0
77.986	2.0
78.001	1.0
78.016	3.0
78.031	4.0
78.046	8.0
78.061	6.0
78.076	5.0
78.091	8.0
78.106	1.0
78.121	1.0
78.136	2.0
78.151	4.0
78.166	5.0
78.181	2.0
78.196	4.0
78.211	3.0
78.226	4.0
78.241	3.0
78.256	5.0
78.271	4.0
78.286	1.0
78.301	3.0
78.316	3.0
78.331	5.0
78.346	2.0
78.361	1.0
78.376	0.0
78.391	1.0
78.406	2.0
78.421	2.0
78.436	5.0
78.451	2.0
78.466	2.0
78.481	0.0
78.496	5.0
78.511	3.0
78.526	2.0
78.541	1.0
78.556	3.0
78.571	0.0
78.586	4.0
78.601	1.0
78.616	3.0
78.631	3.0
78.646	6.0
78.661	1.0
78.676	5.0
78.691	4.0
78.706	7.0
78.721	4.0
78.736	0.0
78.751	4.0
78.766	4.0
78.781	2.0
78.796	8.0
78.811	4.0
78.826	3.0
78.841	0.0
78.856	3.0
78.871	0.0
78.885	2.0
78.9	2.0
78.915	2.0
78.93	1.0
78.945	1.0
78.96	1.0
78.975	4.0
78.99	3.0
79.005	3.0
79.02	1.0
79.035	6.0
79.05	4.0
79.065	4.0
79.08	1.0
79.095	4.0
79.11	3.0
79.125	2.0
79.14	2.0
79.155	1.0
79.17	0.0
79.185	4.0
79.2	3.0
79.215	6.0
79.23	1.0
79.245	2.0
79.26	0.0
79.275	3.0
79.29	2.0
79.304	3.0
79.319	7.0
79.334	3.0
79.349	6.0
79.364	2.0
79.379	6.0
79.394	2.0
79.409	2.0
79.424	6.0
79.439	2.0
79.454	6.0
79.469	3.0
79.484	4.0
79.499	5.0
79.514	4.0
79.529	2.0
79.544	5.0
79.559	3.0
79.574	1.0
79.589	1.0
79.604	2.0
79.619	1.0
79.634	3.0
79.649	1.0
79.664	4.0
79.679	3.0
79.693	4.0
79.708	1.0
79.723	7.0
79.738	3.0
79.753	3.0
79.768	3.0
79.783	3.0
79.798	2.0
79.813	2.0
79.828	3.0
79.843	3.0
79.858	4.0
79.873	3.0
79.888	5.0
79.903	1.0
79.918	5.0
79.933	2.0
79.948	3.0
79.963	3.0
79.978	4.0
79.993	5.0
80.008	7.0
80.023	2.0
80.038	2.0
80.053	4.0
80.068	0.0
80.083	2.0
80.098	2.0
80.113	4.0
80.128	4.0
80.143	6.0
80.158	4.0
80.173	1.0
80.188	5.0
80.202	2.0
80.217	4.0
80.232	5.0
80.247	3.0
80.262	3.0
80.277	1.0
80.292	5.0
80.307	4.0
80.322	2.0
80.337	5.0
80.352	5.0
80.367	4.0
80.382	2.0
80.397	1.0
80.412	5.0
80.427	3.0
80.442	4.0
80.457	1.0
80.472	4.0
80.487	3.0
80.502	3.0
80.517	3.0
80.532	0.0
80.547	4.0
80.562	3.0
80.577	6.0
80.592	0.0
80.607	2.0
80.622	0.0
80.637	3.0
80.652	4.0
80.667	6.0
80.682	1.0
80.697	2.0
80.712	2.0
80.727	2.0
80.742	1.0
80.757	5.0
80.772	9.0
80.787	1.0
80.802	3.0
80.817	3.0
80.832	1.0
80.847	2.0
80.862	0.0
80.877	0.0
80.892	4.0
80.907	4.0
80.922	2.0
80.937	2.0
80.952	3.0
80.967	2.0
80.982	6.0
80.997	2.0
81.012	2.0
81.027	1.0
81.042	0.0
81.057	3.0
81.072	3.0
81.087	4.0
81.101	1.0
81.116	7.0
81.131	1.0
81.146	4.0
81.161	4.0
81.176	0.0
81.191	2.0
81.206	3.0
81.221	5.0
81.236	3.0
81.251	3.0
81.266	2.0
81.281	3.0
81.296	1.0
81.311	2.0
81.326	3.0
81.341	1.0
81.356	3.0
81.371	3.0
81.386	5.0
81.401	2.0
81.416	5.0
81.431	2.0
81.446	3.0
81.461	3.0
81.476	0.0
81.491	2.0
81.506	2.0
81.521	2.0
81.536	4.0
81.55	5.0
81.565	2.0
81.58	7.0
81.595	3.0
81.61	2.0
81.625	2.0
81.64	7.0
81.655	1.0
81.67	4.0
81.685	4.0
81.7	4.0
81.715	5.0
81.73	2.0
81.745	5.0
81.76	6.0
81.775	5.0
81.79	4.0
81.805	4.0
81.819	3.0
81.834	2.0
81.849	4.0
81.864	8.0
81.879	7.0
81.894	3.0
81.909	3.0
81.924	5.0
81.939	4.0
81.954	2.0
81.969	2.0
81.984	2.0
81.999	3.0
82.013	4.0
82.028	2.0
82.043	3.0
82.058	2.0
82.073	3.0
82.088	5.0
82.103	0.0
82.118	3.0
82.133	2.0
82.148	3.0
82.163	3.0
82.177	0.0
82.192	2.0
82.207	2.0
82.222	1.0
82.237	3.0
82.252	3.0
82.267	8.0
82.282	2.0
82.297	4.0
82.312	2.0
82.326	4.0
82.341	1.0
82.356	1.0
82.371	3.0
82.386	3.0
82.401	2.0
82.416	4.0
82.431	5.0
82.445	4.0
82.46	2.0
82.475	3.0
82.49	6.0
82.505	5.0
82.52	3.0
82.535	3.0
82.55	3.0
82.565	6.0
82.579	5.0
82.594	1.0
82.609	5.0
82.624	2.0
82.639	4.0
82.654	2.0
82.669	1.0
82.684	2.0
82.698	5.0
82.713	7.0
82.728	5.0
82.743	2.0
82.758	1.0
82.773	4.0
82.788	3.0
82.803	8.0
82.817	6.0
82.832	2.0
82.847	2.0
82.862	2.0
82.877	3.0
82.892	3.0
82.907	3.0
82.922	5.0
82.937	1.0
82.951	4.0
82.966	6.0
82.981	3.0
82.996	4.0
83.011	1.0
83.026	1.0
83.041	2.0
83.056	1.0
83.07	2.0
83.085	3.0
83.1	3.0
83.115	2.0
83.13	2.0
83.145	1.0
83.16	2.0
83.175	2.0
83.19	4.0
83.204	2.0
83.219	6.0
83.234	3.0
83.249	4.0
83.264	3.0
83.279	2.0
83.294	3.0
83.309	2.0
83.324	5.0
83.339	3.0
83.353	3.0
83.368	3.0
83.383	10.0
83.398	2.0
83.413	5.0
83.428	2.0
83.443	0.0
83.458	5.0
83.473	6.0
83.488	2.0
83.503	2.0
83.517	8.0
83.532	6.0
83.547	4.0
83.562	6.0
83.577	5.0
83.592	1.0
83.607	2.0
83.622	5.0
83.637	4.0
83.652	3.0
83.667	4.0
83.682	2.0
83.697	1.0
83.712	2.0
83.727	6.0
83.741	2.0
83.756	3.0
83.771	5.0
83.786	5.0
83.801	2.0
83.816	3.0
83.831	2.0
83.846	2.0
83.861	7.0
83.876	3.0
83.891	3.0
83.906	4.0
83.921	5.0
83.936	2.0
83.951	4.0
83.966	4.0
83.981	2.0
83.996	2.0
84.011	5.0
84.026	7.0
84.041	2.0
84.056	2.0
84.071	5.0
84.086	5.0
84.101	4.0
84.116	7.0
84.131	4.0
84.146	0.0
84.161	6.0
84.176	6.0
84.191	6.0
84.206	2.0
84.221	1.0
84.236	2.0
84.251	6.0
84.266	3.0
84.281	5.0
84.296	1.0
84.311	2.0
84.326	4.0
84.341	1.0
84.356	3.0
84.371	3.0
84.386	5.0
84.401	6.0
84.416	7.0
84.431	2.0
84.446	5.0
84.461	6.0
84.476	2.0
84.492	7.0
84.507	3.0
84.522	1.0
84.537	2.0
84.552	4.0
84.567	4.0
84.582	4.0
84.597	4.0
84.612	0.0
84.627	0.0
84.642	2.0
84.657	0.0
84.672	1.0
84.687	4.0
84.702	2.0
84.717	2.0
84.733	2.0
84.748	4.0
84.763	5.0
84.778	2.0
84.793	0.0
84.808	0.0
84.823	6.0
84.838	4.0
84.853	3.0
84.868	3.0
84.883	4.0
84.898	7.0
84.913	6.0
84.929	4.0
84.944	4.0
84.959	2.0
84.974	2.0
84.989	4.0
85.004	0.0
85.019	5.0
85.034	3.0
85.049	2.0
85.064	6.0
85.079	6.0
85.094	2.0
85.11	1.0
85.125	2.0
85.14	1.0
85.155	3.0
85.17	2.0
85.185	2.0
85.2	3.0
85.215	4.0
85.23	2.0
85.245	2.0
85.26	3.0
85.276	4.0
85.291	0.0
85.306	3.0
85.321	4.0
85.336	9.0
85.351	6.0
85.366	4.0
85.381	2.0
85.396	2.0
85.411	5.0
85.426	2.0
85.441	6.0
85.457	5.0
85.472	4.0
85.487	3.0
85.502	8.0
85.517	3.0
85.532	2.0
85.547	1.0
85.562	3.0
85.577	2.0
85.592	3.0
85.607	1.0
85.622	4.0
85.637	3.0
85.653	1.0
85.668	5.0
85.683	5.0
85.698	2.0
85.713	0.0
85.728	3.0
85.743	1.0
85.758	3.0
85.773	1.0
85.788	2.0
85.803	3.0
85.818	3.0
85.833	6.0
85.848	2.0
85.863	1.0
85.879	10.0
85.894	2.0
85.909	2.0
85.924	2.0
85.939	4.0
85.954	3.0
85.969	5.0
85.984	1.0
85.999	1.0
86.014	4.0
86.029	3.0
86.044	1.0
86.059	3.0
86.074	1.0
86.089	2.0
86.104	3.0
86.119	6.0
86.134	2.0
86.149	1.0
86.164	4.0
86.179	2.0
86.194	3.0
86.209	4.0
86.224	4.0
86.239	5.0
86.254	2.0
86.269	3.0
86.284	2.0
86.299	2.0
86.314	2.0
86.33	2.0
86.345	5.0
86.36	4.0
86.375	7.0
86.39	6.0
86.405	2.0
86.42	5.0
86.435	1.0
86.45	3.0
86.465	3.0
86.48	2.0
86.495	3.0
86.51	6.0
86.525	3.0
86.54	4.0
86.555	5.0
86.57	1.0
86.585	1.0
86.6	3.0
86.615	2.0
86.63	1.0
86.645	3.0
86.659	1.0
86.674	1.0
86.689	2.0
86.704	4.0
86.719	7.0
86.734	2.0
86.749	4.0
86.764	3.0
86.779	6.0
86.794	3.0
86.809	4.0
86.824	3.0
86.839	3.0
86.854	4.0
86.869	6.0
86.884	4.0
86.899	3.0
86.914	2.0
86.929	5.0
86.944	2.0
86.959	5.0
86.974	5.0
86.989	3.0
87.004	3.0
87.019	3.0
87.034	1.0
87.049	6.0
87.064	4.0
87.079	3.0
87.094	1.0
87.109	3.0
87.124	3.0
87.139	4.0
87.154	2.0
87.169	3.0
87.184	1.0
87.199	4.0
87.214	1.0
87.229	4.0
87.244	2.0
87.259	4.0
87.274	3.0
87.289	1.0
87.304	5.0
87.319	3.0
87.334	2.0
87.349	2.0
87.364	0.0
87.379	2.0
87.394	3.0
87.409	3.0
87.424	1.0
87.438	7.0
87.453	3.0
87.468	3.0
87.483	2.0
87.498	1.0
87.513	3.0
87.528	1.0
87.543	4.0
87.558	5.0
87.573	6.0
87.588	5.0
87.603	3.0
87.618	5.0
87.633	9.0
87.648	3.0
87.663	1.0
87.678	6.0
87.693	5.0
87.708	5.0
87.723	4.0
87.738	0.0
87.753	5.0
87.768	2.0
87.783	6.0
87.798	3.0
87.813	3.0
87.828	3.0
87.843	3.0
87.858	4.0
87.873	1.0
87.888	2.0
87.903	4.0
87.918	1.0
87.933	3.0
87.948	3.0
87.963	5.0
87.978	5.0
87.993	2.0
88.008	0.0
88.023	2.0
88.038	3.0
88.053	3.0
88.068	4.0
88.083	3.0
88.098	0.0
88.113	2.0
88.128	8.0
88.143	2.0
88.158	5.0
88.174	3.0
88.189	9.0
88.204	3.0
88.219	3.0
88.234	0.0
88.249	3.0
88.264	2.0
88.279	4.0
88.294	4.0
88.309	2.0
88.324	3.0
88.339	2.0
88.354	5.0
88.369	0.0
88.384	3.0
88.399	2.0
88.414	4.0
88.429	2.0
88.444	5.0
88.459	2.0
88.474	7.0
88.489	2.0
88.504	3.0
88.519	4.0
88.534	5.0
88.549	3.0
88.564	6.0
88.58	1.0
88.595	4.0
88.61	3.0
88.625	2.0
88.64	4.0
88.655	2.0
88.67	1.0
88.685	4.0
88.7	2.0
88.715	4.0
88.73	3.0
88.745	4.0
88.76	1.0
88.775	5.0
88.79	1.0
88.805	1.0
88.82	2.0
88.835	5.0
88.85	6.0
88.865	1.0
88.88	3.0
88.895	4.0
88.911	3.0
88.926	2.0
88.941	1.0
88.956	5.0
88.971	3.0
88.986	2.0
89.001	7.0
89.016	2.0
89.031	6.0
89.046	1.0
89.061	0.0
89.076	5.0
89.091	4.0
89.106	1.0
89.121	3.0
89.136	3.0
89.151	0.0
89.166	0.0
89.181	2.0
89.196	1.0
89.211	2.0
89.227	5.0
89.242	3.0
89.257	2.0
89.272	1.0
89.287	3.0
89.302	4.0
89.317	5.0
89.332	4.0
89.347	7.0
89.362	4.0
89.377	3.0
89.392	3.0
89.407	3.0
89.422	4.0
89.437	2.0
89.452	2.0
89.467	4.0
89.482	4.0
89.497	2.0
89.512	7.0
89.527	4.0
89.542	3.0
89.557	4.0
89.572	5.0
89.587	5.0
89.602	5.0
89.617	2.0
89.632	2.0
89.647	2.0
89.662	1.0
89.677	4.0
89.693	1.0
89.708	4.0
89.723	2.0
89.738	1.0
89.753	2.0
89.768	2.0
89.783	2.0
89.798	3.0
89.813	4.0
89.828	5.0
89.843	6.0
89.858	5.0
89.873	5.0
89.888	3.0
89.903	7.0
89.918	5.0
89.933	4.0
89.948	0.0
89.963	4.0
89.978	5.0
89.993	4.0
90.008	2.0
90.023	4.0
90.038	3.0
90.053	1.0
90.068	0.0
90.083	4.0
90.097	5.0
90.112	3.0
90.127	2.0
90.142	6.0
90.157	3.0
90.172	2.0
90.187	5.0
90.202	6.0
90.217	5.0
90.232	7.0
90.247	4.0
90.262	0.0
90.277	3.0
90.292	8.0
90.307	5.0
90.322	4.0
90.337	1.0
90.352	2.0
90.367	1.0
90.382	5.0
90.397	1.0
90.412	2.0
90.427	1.0
90.442	2.0
90.457	1.0
90.472	2.0
90.487	6.0
90.501	2.0
90.516	1.0
90.531	1.0
90.546	3.0
90.561	2.0
90.576	2.0
90.591	5.0
90.606	5.0
90.621	5.0
90.636	7.0
90.651	7.0
90.666	2.0
90.681	3.0
90.696	5.0
90.711	5.0
90.726	5.0
90.741	3.0
90.755	3.0
90.77	4.0
90.785	4.0
90.8	0.0
90.815	1.0
90.83	6.0
90.845	2.0
90.86	6.0
90.875	4.0
90.89	1.0
90.905	4.0
90.92	6.0
90.935	5.0
90.95	4.0
90.965	6.0
90.979	3.0
90.994	3.0
91.009	1.0
91.024	5.0
91.039	3.0
91.054	5.0
91.069	3.0
91.084	3.0
91.099	2.0
91.114	2.0
91.129	2.0
91.144	1.0
91.159	3.0
91.174	3.0
91.188	4.0
91.203	1.0
91.218	2.0
91.233	4.0
91.248	2.0
91.263	2.0
91.278	4.0
91.293	3.0
91.308	3.0
91.323	4.0
91.338	2.0
91.353	4.0
91.368	4.0
91.383	5.0
91.398	3.0
91.412	0.0
91.427	2.0
91.442	7.0
91.457	3.0
91.472	3.0
91.487	3.0
91.502	1.0
91.517	4.0
91.532	3.0
91.547	3.0
91.562	7.0
91.577	3.0
91.592	3.0
91.607	3.0
91.622	4.0
91.637	5.0
91.652	4.0
91.666	2.0
91.681	1.0
91.696	2.0
91.711	4.0
91.726	3.0
91.741	6.0
91.756	1.0
91.771	4.0
91.786	7.0
91.801	3.0
91.816	1.0
91.831	3.0
91.846	3.0
91.861	4.0
91.876	2.0
91.891	6.0
91.906	7.0
91.921	4.0
91.936	1.0
91.951	3.0
91.966	6.0
91.981	5.0
91.995	3.0
92.01	4.0
92.025	3.0
92.04	2.0
92.055	2.0
92.07	7.0
92.085	2.0
92.1	0.0
92.115	2.0
92.13	4.0
92.145	4.0
92.16	3.0
92.175	1.0
92.19	3.0
92.205	4.0
92.22	2.0
92.235	0.0
92.25	7.0
92.265	4.0
92.28	3.0
92.295	2.0
92.31	5.0
92.325	5.0
92.34	3.0
92.355	2.0
92.37	5.0
92.385	2.0
92.4	3.0
92.415	1.0
92.43	3.0
92.445	6.0
92.46	5.0
92.475	4.0
92.49	3.0
92.505	4.0
92.52	4.0
92.535	2.0
92.55	6.0
92.565	1.0
92.58	1.0
92.595	5.0
92.61	4.0
92.625	1.0
92.64	2.0
92.655	0.0
92.67	5.0
92.685	4.0
92.7	4.0
92.715	1.0
92.73	5.0
92.745	3.0
92.76	3.0
92.775	5.0
92.79	1.0
92.805	1.0
92.82	2.0
92.835	3.0
92.85	2.0
92.865	4.0
92.88	3.0
92.895	3.0
92.91	4.0
92.925	3.0
92.94	2.0
92.955	3.0
92.97	2.0
92.985	3.0
93.0	2.0
93.015	4.0
93.03	5.0
93.045	6.0
93.06	4.0
93.075	5.0
93.09	5.0
93.105	6.0
93.12	5.0
93.135	3.0
93.15	2.0
93.165	2.0
93.18	2.0
93.195	2.0
93.21	6.0
93.225	3.0
93.24	2.0
93.255	3.0
93.27	2.0
93.285	1.0
93.3	3.0
93.315	2.0
93.33	7.0
93.345	3.0
93.36	2.0
93.375	4.0
93.39	4.0
93.405	4.0
93.42	2.0
93.435	3.0
93.45	0.0
93.465	2.0
93.48	6.0
93.495	8.0
93.51	3.0
93.525	3.0
93.54	1.0
93.555	2.0
93.57	6.0
93.585	4.0
93.6	4.0
93.615	3.0
93.63	3.0
93.645	6.0
93.66	6.0
93.675	3.0
93.69	1.0
93.705	2.0
93.72	1.0
93.735	7.0
93.75	4.0
93.765	2.0
93.78	5.0
93.795	5.0
93.81	2.0
93.824	5.0
93.839	5.0
93.854	5.0
93.869	3.0
93.884	5.0
93.899	4.0
93.914	3.0
93.929	3.0
93.944	3.0
93.959	2.0
93.974	3.0
93.989	2.0
94.004	3.0
94.019	2.0
94.034	3.0
94.049	4.0
94.064	3.0
94.079	1.0
94.094	0.0
94.108	5.0
94.123	3.0
94.138	3.0
94.153	0.0
94.168	4.0
94.183	5.0
94.198	5.0
94.213	2.0
94.228	5.0
94.243	2.0
94.258	5.0
94.273	6.0
94.288	2.0
94.302	3.0
94.317	3.0
94.332	2.0
94.347	2.0
94.362	7.0
94.377	5.0
94.392	2.0
94.407	6.0
94.422	2.0
94.437	5.0
94.452	8.0
94.466	6.0
94.481	7.0
94.496	2.0
94.511	5.0
94.526	1.0
94.541	4.0
94.556	2.0
94.571	7.0
94.586	2.0
94.601	4.0
94.615	2.0
94.63	5.0
94.645	2.0
94.66	2.0
94.675	0.0
94.69	2.0
94.705	4.0
94.72	5.0
94.735	5.0
94.749	4.0
94.764	2.0
94.779	5.0
94.794	4.0
94.809	3.0
94.824	6.0
94.839	2.0
94.854	5.0
94.868	8.0
94.883	4.0
94.898	0.0
94.913	4.0
94.928	2.0
94.943	6.0
94.958	3.0
94.973	3.0
94.987	5.0
95.002	7.0
95.017	2.0
95.032	3.0
95.047	4.0
95.062	4.0
95.077	6.0
95.092	2.0
95.106	6.0
95.121	2.0
95.136	3.0
95.151	8.0
95.166	7.0
95.181	4.0
95.196	4.0
95.211	2.0
95.226	6.0
95.24	5.0
95.255	5.0
95.27	2.0
95.285	4.0
95.3	7.0
95.315	6.0
95.33	1.0
95.345	2.0
95.359	6.0
95.374	6.0
95.389	4.0
95.404	1.0
95.419	3.0
95.434	4.0
95.449	6.0
95.464	3.0
95.478	5.0
95.493	5.0
95.508	2.0
95.523	2.0
95.538	2.0
95.553	3.0
95.568	5.0
95.583	3.0
95.597	4.0
95.612	1.0
95.627	3.0
95.642	4.0
95.657	2.0
95.672	3.0
95.687	4.0
95.702	0.0
95.717	5.0
95.731	0.0
95.746	5.0
95.761	3.0
95.776	1.0
95.791	4.0
95.806	7.0
95.821	2.0
95.836	4.0
95.851	5.0
95.866	3.0
95.88	5.0
95.895	4.0
95.91	2.0
95.925	1.0
95.94	2.0
95.955	2.0
95.97	6.0
95.985	5.0
96.0	4.0
96.015	4.0
96.029	5.0
96.044	3.0
96.059	4.0
96.074	3.0
96.089	2.0
96.104	2.0
96.119	4.0
96.134	2.0
96.149	5.0
96.164	2.0
96.179	3.0
96.194	1.0
96.208	6.0
96.223	2.0
96.238	5.0
96.253	8.0
96.268	4.0
96.283	5.0
96.298	5.0
96.313	3.0
96.328	6.0
96.343	4.0
96.358	3.0
96.373	2.0
96.388	5.0
96.403	3.0
96.417	1.0
96.432	4.0
96.447	4.0
96.462	3.0
96.477	6.0
96.492	2.0
96.507	0.0
96.522	4.0
96.537	2.0
96.552	4.0
96.567	2.0
96.582	3.0
96.597	4.0
96.612	3.0
96.627	3.0
96.642	3.0
96.656	3.0
96.671	3.0
96.686	6.0
96.701	2.0
96.716	3.0
96.731	4.0
96.746	7.0
96.761	2.0
96.776	3.0
96.791	3.0
96.806	7.0
96.821	4.0
96.836	2.0
96.851	6.0
96.866	1.0
96.881	6.0
96.896	4.0
96.911	5.0
96.926	3.0
96.94	5.0
96.955	4.0
96.97	6.0
96.985	5.0
97.0	5.0
97.015	6.0
97.03	2.0
97.045	3.0
97.06	7.0
97.075	7.0
97.09	2.0
97.105	1.0
97.12	2.0
97.135	4.0
97.15	0.0
97.165	2.0
97.18	1.0
97.195	2.0
97.21	3.0
97.225	1.0
97.239	6.0
97.254	3.0
97.269	2.0
97.284	3.0
97.299	3.0
97.314	1.0
97.329	4.0
97.344	4.0
97.359	1.0
97.374	1.0
97.389	0.0
97.404	6.0
97.419	3.0
97.434	4.0
97.449	4.0
97.464	7.0
97.479	3.0
97.494	4.0
97.509	4.0
97.524	1.0
97.538	2.0
97.553	4.0
97.568	4.0
97.583	3.0
97.598	5.0
97.613	3.0
97.628	3.0
97.643	5.0
97.658	3.0
97.673	4.0
97.688	4.0
97.703	4.0
97.718	2.0
97.733	8.0
97.748	5.0
97.763	4.0
97.778	3.0
97.792	5.0
97.807	4.0
97.822	2.0
97.837	0.0
97.852	2.0
97.867	3.0
97.882	2.0
97.897	4.0
97.912	3.0
97.927	2.0
97.942	2.0
97.957	1.0
97.972	2.0
97.987	3.0
98.001	3.0
98.016	3.0
98.031	3.0
98.046	2.0
98.061	3.0
98.076	2.0
98.091	4.0
98.106	5.0
98.121	2.0
98.136	2.0
98.151	1.0
98.166	4.0
98.181	5.0
98.195	3.0
98.21	1.0
98.225	1.0
98.24	1.0
98.255	3.0
98.27	2.0
98.285	2.0
98.3	1.0
98.315	6.0
98.33	4.0
98.345	4.0
98.359	1.0
98.374	3.0
98.389	0.0
98.404	7.0
98.419	5.0
98.434	5.0
98.449	3.0
98.464	0.0
98.479	1.0
98.494	0.0
98.508	4.0
98.523	3.0
98.538	3.0
98.553	3.0
98.568	4.0
98.583	3.0
98.598	5.0
98.613	4.0
98.628	6.0
98.642	5.0
98.657	3.0
98.672	1.0
98.687	0.0
98.702	1.0
98.717	1.0
98.732	5.0
98.747	0.0
98.762	2.0
98.776	3.0
98.791	6.0
98.806	5.0
98.821	5.0
98.836	2.0
98.851	5.0
98.866	3.0
98.881	8.0
98.896	5.0
98.91	3.0
98.925	2.0
98.94	4.0
98.955	5.0
98.97	1.0
98.985	4.0
99.0	2.0
99.015	3.0
99.029	3.0
99.044	4.0
99.059	2.0
99.074	3.0
99.089	2.0
99.104	4.0
99.119	3.0
99.133	4.0
99.148	3.0
99.163	4.0
99.178	2.0
99.193	4.0
99.208	2.0
99.223	3.0
99.238	2.0
99.252	5.0
99.267	3.0
99.282	4.0
99.297	6.0
99.312	7.0
99.327	3.0
99.342	3.0
99.356	1.0
99.371	4.0
99.386	3.0
99.401	3.0
99.416	3.0
99.431	3.0
99.446	5.0
99.461	3.0
99.475	3.0
99.49	4.0
99.505	2.0
99.52	3.0
99.535	4.0
99.55	2.0
99.565	2.0
99.579	1.0
99.594	2.0
99.609	6.0
99.624	4.0
99.639	0.0
99.654	5.0
99.669	4.0
99.683	1.0
99.698	4.0
99.713	5.0
99.728	3.0
99.743	1.0
99.758	2.0
99.772	2.0
99.787	4.0
99.802	1.0
99.817	4.0
99.832	3.0
99.847	5.0
99.862	3.0
99.876	1.0
99.891	3.0
99.906	5.0
99.921	4.0
99.936	2.0
99.951	8.0
99.966	4.0
99.98	4.0
99.995	3.0
100.01	4.0
100.025	0.0
100.04	7.0
100.055	2.0
100.069	2.0
100.084	6.0
100.099	2.0
100.114	3.0
100.129	1.0
100.144	4.0
100.159	3.0
100.173	0.0
100.188	2.0
100.203	5.0
100.218	1.0
100.233	3.0
100.248	6.0
100.262	4.0
100.277	2.0
100.292	2.0
100.307	4.0
100.322	4.0
100.337	5.0
100.351	3.0
100.366	8.0
100.381	6.0
100.396	4.0
100.411	4.0
100.426	7.0
100.441	1.0
100.455	3.0
100.47	4.0
100.485	4.0
100.5	4.0
100.515	3.0
100.53	3.0
100.544	5.0
100.559	5.0
100.574	1.0
100.589	3.0
100.604	6.0
100.619	1.0
100.633	2.0
100.648	4.0
100.663	2.0
100.678	5.0
100.693	2.0
100.708	4.0
100.722	5.0
100.737	2.0
100.752	3.0
100.767	3.0
100.782	3.0
100.796	9.0
100.811	2.0
100.826	4.0
100.841	3.0
100.856	3.0
100.871	3.0
100.885	1.0
100.9	5.0
100.915	2.0
100.93	3.0
100.945	6.0
100.96	4.0
100.974	3.0
100.989	1.0
101.004	5.0
101.019	7.0
101.034	2.0
101.048	7.0
101.063	1.0
101.078	6.0
101.093	5.0
101.108	6.0
101.123	5.0
101.137	6.0
101.152	3.0
101.167	2.0
101.182	4.0
101.197	5.0
101.211	2.0
101.226	1.0
101.241	1.0
101.256	3.0
101.271	3.0
101.285	0.0
101.3	2.0
101.315	6.0
101.33	4.0
101.345	4.0
101.359	2.0
101.374	3.0
101.389	1.0
101.404	3.0
101.419	3.0
101.433	3.0
101.448	2.0
101.463	10.0
101.478	1.0
101.493	2.0
101.507	5.0
101.522	5.0
101.537	1.0
101.552	2.0
101.567	2.0
101.581	2.0
101.596	2.0
101.611	6.0
101.626	5.0
101.64	2.0
101.655	3.0
101.67	3.0
101.685	4.0
101.7	1.0
101.714	4.0
101.729	2.0
101.744	0.0
101.759	1.0
101.773	3.0
101.788	5.0
101.803	1.0
101.818	3.0
101.833	3.0
101.847	1.0
101.862	1.0
101.877	3.0
101.892	3.0
101.906	5.0
101.921	7.0
101.936	4.0
101.951	3.0
101.965	4.0
101.98	4.0
101.995	4.0
102.01	4.0
102.025	2.0
102.039	4.0
102.054	5.0
102.069	5.0
102.084	3.0
102.098	5.0
102.113	2.0
102.128	3.0
102.143	1.0
102.157	2.0
102.172	0.0
102.187	2.0
102.202	2.0
102.216	4.0
102.231	5.0
102.246	3.0
102.261	1.0
102.275	5.0
102.29	4.0
102.305	2.0
102.32	2.0
102.334	9.0
102.349	5.0
102.364	6.0
102.378	1.0
102.393	1.0
102.408	1.0
102.423	1.0
102.437	7.0
102.452	2.0
102.467	6.0
102.482	4.0
102.496	0.0
102.511	0.0
102.526	5.0
102.541	3.0
102.555	4.0
102.57	1.0
102.585	3.0
102.6	2.0
102.614	3.0
102.629	4.0
102.644	3.0
102.659	2.0
102.673	4.0
102.688	2.0
102.703	2.0
102.717	2.0
102.732	3.0
102.747	5.0
102.762	2.0
102.776	1.0
102.791	6.0
102.806	5.0
102.821	4.0
102.835	4.0
102.85	5.0
102.865	1.0
102.88	2.0
102.894	2.0
102.909	2.0
102.924	3.0
102.938	1.0
102.953	6.0
102.968	6.0
102.983	3.0
102.997	2.0
103.012	2.0
103.027	2.0
103.042	6.0
103.056	1.0
103.071	3.0
103.086	3.0
103.101	1.0
103.115	1.0
103.13	4.0
103.145	6.0
103.16	0.0
103.174	0.0
103.189	1.0
103.204	2.0
103.219	1.0
103.233	5.0
103.248	0.0
103.263	4.0
103.278	3.0
103.292	2.0
103.307	5.0
103.322	4.0
103.337	2.0
103.351	3.0
103.366	4.0
103.381	2.0
103.396	3.0
103.41	7.0
103.425	0.0
103.44	5.0
103.455	4.0
103.469	4.0
103.484	1.0
103.499	7.0
103.514	1.0
103.529	5.0
103.543	0.0
103.558	2.0
103.573	2.0
103.588	1.0
103.602	3.0
103.617	2.0
103.632	1.0
103.647	1.0
103.661	4.0
103.676	5.0
103.691	5.0
103.706	1.0
103.721	3.0
103.735	1.0
103.75	3.0
103.765	4.0
103.78	7.0
103.795	4.0
103.809	2.0
103.824	2.0
103.839	3.0
103.854	1.0
103.869	4.0
103.883	3.0
103.898	2.0
103.913	4.0
103.928	2.0
103.943	2.0
103.957	0.0
103.972	2.0
103.987	3.0
104.002	1.0
104.017	4.0
104.031	4.0
104.046	2.0
104.061	4.0
104.076	3.0
104.091	2.0
104.106	2.0
104.12	5.0
104.135	6.0
104.15	3.0
104.165	5.0
104.18	0.0
104.195	6.0
104.209	3.0
104.224	5.0
104.239	5.0
104.254	6.0
104.269	1.0
104.284	0.0
104.299	3.0
104.313	2.0
104.328	3.0
104.343	3.0
104.358	3.0
104.373	3.0
104.388	2.0
104.403	4.0
104.417	3.0
104.432	4.0
104.447	4.0
104.462	1.0
104.477	2.0
104.492	2.0
104.507	5.0
104.522	4.0
104.536	2.0
104.551	4.0
104.566	4.0
104.581	3.0
104.596	3.0
104.611	5.0
104.626	6.0
104.641	5.0
104.656	3.0
104.67	1.0
104.685	1.0
104.7	6.0
104.715	5.0
104.73	5.0
104.745	0.0
104.76	3.0
104.775	7.0
104.79	2.0
104.804	1.0
104.819	2.0
104.834	0.0
104.849	2.0
104.864	3.0
104.879	2.0
104.894	3.0
104.909	2.0
104.924	1.0
104.939	0.0
104.954	2.0
104.968	1.0
104.983	1.0
104.998	4.0
105.013	2.0
105.028	4.0
105.043	7.0
105.058	0.0
105.073	2.0
105.088	3.0
105.103	2.0
105.118	4.0
105.133	4.0
105.147	2.0
105.162	3.0
105.177	1.0
105.192	2.0
105.207	3.0
105.222	5.0
105.237	5.0
105.252	2.0
105.267	1.0
105.282	3.0
105.297	1.0
105.312	2.0
105.327	2.0
105.342	1.0
105.356	5.0
105.371	2.0
105.386	1.0
105.401	5.0
105.416	4.0
105.431	1.0
105.446	6.0
105.461	4.0
105.476	1.0
105.491	2.0
105.506	1.0
105.521	3.0
105.536	3.0
105.551	0.0
105.566	6.0
105.581	3.0
105.595	6.0
105.61	4.0
105.625	4.0
105.64	1.0
105.655	3.0
105.67	2.0
105.685	5.0
105.7	4.0
105.715	0.0
105.73	4.0
105.745	1.0
105.76	4.0
105.775	1.0
105.79	2.0
105.805	7.0
105.82	3.0
105.835	0.0
105.85	4.0
105.864	6.0
105.879	2.0
105.894	1.0
105.909	6.0
105.924	1.0
105.939	1.0
105.954	4.0
105.969	8.0
105.984	1.0
105.999	3.0
106.014	3.0
106.029	6.0
106.044	2.0
106.059	2.0
106.074	4.0
106.089	1.0
106.104	5.0
106.119	5.0
106.134	6.0
106.148	3.0
106.163	1.0
106.178	2.0
106.193	3.0
106.208	4.0
106.223	3.0
106.238	5.0
106.253	2.0
106.268	2.0
106.283	1.0
106.298	2.0
106.313	2.0
106.328	3.0
106.343	2.0
106.358	4.0
106.373	5.0
106.388	2.0
106.403	7.0
106.418	3.0
106.432	6.0
106.447	2.0
106.462	3.0
106.477	4.0
106.492	1.0
106.507	2.0
106.522	2.0
106.537	1.0
106.552	2.0
106.567	3.0
106.582	2.0
106.597	3.0
106.612	2.0
106.627	0.0
106.642	6.0
106.657	1.0
106.672	4.0
106.687	1.0
106.701	3.0
106.716	4.0
106.731	3.0
106.746	3.0
106.761	2.0
106.776	3.0
106.791	0.0
106.806	4.0
106.821	2.0
106.836	1.0
106.851	1.0
106.866	4.0
106.881	2.0
106.896	4.0
106.911	6.0
106.926	5.0
106.941	5.0
106.955	4.0
106.97	4.0
106.985	2.0
107.0	3.0
107.015	4.0
107.03	4.0
107.045	2.0
107.06	7.0
107.075	3.0
107.09	2.0
107.105	4.0
107.12	4.0
107.135	4.0
107.15	5.0
107.165	5.0
107.18	6.0
107.194	4.0
107.209	1.0
107.224	2.0
107.239	3.0
107.254	3.0
107.269	3.0
107.284	5.0
107.299	5.0
107.314	4.0
107.329	3.0
107.344	2.0
107.359	3.0
107.374	3.0
107.389	4.0
107.404	6.0
107.418	1.0
107.433	2.0
107.448	4.0
107.463	1.0
107.478	4.0
107.493	3.0
107.508	3.0
107.523	7.0
107.538	5.0
107.553	5.0
107.568	0.0
107.583	4.0
107.598	5.0
107.613	1.0
107.627	2.0
107.642	1.0
107.657	5.0
107.672	5.0
107.687	3.0
107.702	3.0
107.717	3.0
107.732	2.0
107.747	1.0
107.762	6.0
107.777	3.0
107.792	0.0
107.807	3.0
107.821	1.0
107.836	4.0
107.851	4.0
107.866	4.0
107.881	3.0
107.896	2.0
107.911	4.0
107.926	5.0
107.941	0.0
107.956	6.0
107.971	9.0
107.986	7.0
108.0	0.0
108.015	2.0
108.03	5.0
108.045	3.0
108.06	5.0
108.075	5.0
108.09	3.0
108.105	3.0
108.12	1.0
108.135	1.0
108.15	6.0
108.164	6.0
108.179	1.0
108.194	2.0
108.209	2.0
108.224	2.0
108.239	2.0
108.254	2.0
108.269	3.0
108.284	4.0
108.299	8.0
108.313	2.0
108.328	4.0
108.343	5.0
108.358	1.0
108.373	2.0
108.388	2.0
108.403	2.0
108.418	4.0
108.433	1.0
108.448	3.0
108.462	3.0
108.477	3.0
108.492	2.0
108.507	1.0
108.522	6.0
108.537	5.0
108.552	3.0
108.567	5.0
108.582	9.0
108.597	2.0
108.611	4.0
108.626	8.0
108.641	6.0
108.656	3.0
108.671	1.0
108.686	1.0
108.701	1.0
108.716	7.0
108.731	6.0
108.745	0.0
108.76	4.0
108.775	5.0
108.79	2.0
108.805	3.0
108.82	1.0
108.835	4.0
108.85	6.0
108.865	3.0
108.879	1.0
108.894	2.0
108.909	1.0
108.924	4.0
108.939	6.0
108.954	5.0
108.969	5.0
108.984	6.0
108.999	7.0
109.013	4.0
109.028	2.0
109.043	4.0
109.058	1.0
109.073	8.0
109.088	5.0
109.103	2.0
109.118	5.0
109.133	2.0
109.147	3.0
109.162	5.0
109.177	2.0
109.192	2.0
109.207	3.0
109.222	3.0
109.237	7.0
109.252	2.0
109.267	5.0
109.281	3.0
109.296	4.0
109.311	5.0
109.326	6.0
109.341	4.0
109.356	3.0
109.371	4.0
109.386	0.0
109.4	4.0
109.415	2.0
109.43	6.0
109.445	2.0
109.46	2.0
109.475	2.0
109.49	2.0
109.505	3.0
109.52	4.0
109.534	3.0
109.549	3.0
109.564	2.0
109.579	1.0
109.594	7.0
109.609	2.0
109.624	4.0
109.639	2.0
109.653	4.0
109.668	5.0
109.683	3.0
109.698	5.0
109.713	2.0
109.728	1.0
109.743	3.0
109.758	7.0
109.773	3.0
109.787	4.0
109.802	1.0
109.817	3.0
109.832	3.0
109.847	1.0
109.862	3.0
109.877	7.0
109.892	2.0
109.907	2.0
109.921	10.0
109.936	3.0
109.951	7.0
109.966	7.0
109.981	3.0
109.996	0.0
110.011	7.0
110.026	2.0
110.04	2.0
110.055	2.0
110.07	2.0
110.085	2.0
110.1	9.0
110.115	2.0
110.13	4.0
110.145	1.0
110.16	1.0
110.174	6.0
110.189	4.0
110.204	3.0
110.219	2.0
110.234	4.0
110.249	4.0
110.264	2.0
110.279	1.0
110.294	1.0
110.308	1.0
110.323	6.0
110.338	3.0
110.353	4.0
110.368	3.0
110.383	5.0
110.398	2.0
110.413	4.0
110.428	4.0
110.442	4.0
110.457	2.0
110.472	5.0
110.487	2.0
110.502	3.0
110.517	5.0
110.532	4.0
110.547	8.0
110.561	2.0
110.576	6.0
110.591	3.0
110.606	4.0
110.621	5.0
110.636	2.0
110.651	9.0
110.666	6.0
110.681	4.0
110.695	1.0
110.71	8.0
110.725	1.0
110.74	7.0
110.755	8.0
110.77	6.0
110.785	6.0
110.8	2.0
110.815	4.0
110.829	4.0
110.844	2.0
110.859	1.0
110.874	0.0
110.889	6.0
110.904	4.0
110.919	3.0
110.934	7.0
110.948	1.0
110.963	5.0
110.978	4.0
110.993	2.0
111.008	4.0
111.023	4.0
111.038	0.0
111.053	4.0
111.067	6.0
111.082	4.0
111.097	2.0
111.112	2.0
111.127	2.0
111.142	7.0
111.157	2.0
111.172	2.0
111.186	3.0
111.201	1.0
111.216	3.0
111.231	3.0
111.246	2.0
111.261	6.0
111.276	4.0
111.291	3.0
111.305	1.0
111.32	4.0
111.335	4.0
111.35	4.0
111.365	1.0
111.38	1.0
111.395	2.0
111.41	5.0
111.424	7.0
111.439	3.0
111.454	4.0
111.469	5.0
111.484	4.0
111.499	1.0
111.514	5.0
111.528	2.0
111.543	6.0
111.558	2.0
111.573	3.0
111.588	3.0
111.603	5.0
111.618	6.0
111.633	4.0
111.647	4.0
111.662	5.0
111.677	2.0
111.692	4.0
111.707	2.0
111.722	4.0
111.737	2.0
111.751	2.0
111.766	5.0
111.781	6.0
111.796	5.0
111.811	4.0
111.826	1.0
111.84	8.0
111.855	4.0
111.87	3.0
111.885	1.0
111.9	8.0
111.915	2.0
111.93	5.0
111.944	5.0
111.959	3.0
111.974	1.0
111.989	1.0
112.004	5.0
112.019	2.0
112.033	4.0
112.048	2.0
112.063	3.0
112.078	7.0
112.093	4.0
112.108	6.0
112.123	1.0
112.137	1.0
112.152	3.0
112.167	4.0
112.182	2.0
112.197	6.0
112.212	2.0
112.226	7.0
112.241	5.0
112.256	3.0
112.271	3.0
112.286	2.0
112.301	3.0
112.315	4.0
112.33	2.0
112.345	4.0
112.36	7.0
112.375	3.0
112.389	6.0
112.404	3.0
112.419	2.0
112.434	5.0
112.449	2.0
112.464	1.0
112.478	3.0
112.493	1.0
112.508	4.0
112.523	2.0
112.538	3.0
112.553	4.0
112.567	2.0
112.582	2.0
112.597	5.0
112.612	2.0
112.627	5.0
112.642	4.0
112.656	10.0
112.671	4.0
112.686	1.0
112.701	2.0
112.716	3.0
112.73	1.0
112.745	2.0
112.76	7.0
112.775	5.0
112.79	2.0
112.805	1.0
112.819	4.0
112.834	2.0
112.849	2.0
112.864	7.0
112.879	2.0
112.894	4.0
112.908	6.0
112.923	2.0
112.938	11.0
112.953	3.0
112.968	1.0
112.983	5.0
112.997	3.0
113.012	2.0
113.027	4.0
113.042	7.0
113.057	3.0
113.072	4.0
113.086	1.0
113.101	5.0
113.116	3.0
113.131	4.0
113.146	1.0
113.161	2.0
113.175	3.0
113.19	4.0
113.205	5.0
113.22	4.0
113.235	1.0
113.25	6.0
113.265	4.0
113.279	2.0
113.294	4.0
113.309	2.0
113.324	3.0
113.339	0.0
113.354	2.0
113.368	6.0
113.383	7.0
113.398	3.0
113.413	1.0
113.428	5.0
113.443	5.0
113.458	5.0
113.472	4.0
113.487	2.0
113.502	4.0
113.517	2.0
113.532	4.0
113.547	8.0
113.562	6.0
113.576	7.0
113.591	4.0
113.606	1.0
113.621	3.0
113.636	0.0
113.651	5.0
113.666	6.0
113.681	3.0
113.695	1.0
113.71	4.0
113.725	2.0
113.74	3.0
113.755	2.0
113.77	3.0
113.785	4.0
113.8	2.0
113.814	2.0
113.829	2.0
113.844	5.0
113.859	3.0
113.874	2.0
113.889	5.0
113.904	4.0
113.919	5.0
113.934	3.0
113.949	5.0
113.963	5.0
113.978	1.0
113.993	3.0
114.008	2.0
114.023	2.0
114.038	2.0
114.053	1.0
114.068	2.0
114.083	4.0
114.098	3.0
114.113	4.0
114.127	2.0
114.142	2.0
114.157	3.0
114.172	5.0
114.187	2.0
114.202	3.0
114.217	4.0
114.232	5.0
114.247	4.0
114.262	3.0
114.277	4.0
114.292	1.0
114.307	5.0
114.322	7.0
114.337	3.0
114.351	3.0
114.366	2.0
114.381	2.0
114.396	2.0
114.411	3.0
114.426	6.0
114.441	5.0
114.456	5.0
114.471	3.0
114.486	4.0
114.501	3.0
114.516	6.0
114.531	6.0
114.546	4.0
114.561	3.0
114.576	3.0
114.591	5.0
114.606	3.0
114.621	3.0
114.636	2.0
114.65	5.0
114.665	3.0
114.68	3.0
114.695	1.0
114.71	3.0
114.725	2.0
114.74	3.0
114.755	5.0
114.77	0.0
114.785	4.0
114.8	9.0
114.815	5.0
114.83	1.0
114.845	1.0
114.86	2.0
114.875	1.0
114.89	6.0
114.905	3.0
114.92	0.0
114.935	5.0
114.95	3.0
114.965	3.0
114.98	3.0
114.995	3.0
115.009	4.0
115.024	3.0
115.039	5.0
115.054	2.0
115.069	6.0
115.084	4.0
115.099	9.0
115.114	4.0
115.129	6.0
115.144	4.0
115.159	6.0
115.174	2.0
115.189	10.0
115.204	6.0
115.219	8.0
115.234	4.0
115.249	6.0
115.264	3.0
115.279	1.0
115.294	2.0
115.309	5.0
115.323	4.0
115.338	4.0
115.353	6.0
115.368	6.0
115.383	4.0
115.398	2.0
115.413	7.0
115.428	8.0
115.443	6.0
115.458	3.0
115.473	0.0
115.488	2.0
115.503	2.0
115.518	5.0
115.533	1.0
115.548	2.0
115.562	1.0
115.577	4.0
115.592	0.0
115.607	2.0
115.622	2.0
115.637	4.0
115.652	3.0
115.667	3.0
115.682	1.0
115.697	6.0
115.712	7.0
115.727	2.0
115.741	4.0
115.756	5.0
115.771	3.0
115.786	2.0
115.801	4.0
115.816	3.0
115.831	3.0
115.846	1.0
115.861	6.0
115.875	2.0
115.89	5.0
115.905	1.0
115.92	2.0
115.935	8.0
115.95	2.0
115.965	4.0
115.98	8.0
115.995	3.0
116.009	3.0
116.024	4.0
116.039	4.0
116.054	7.0
116.069	2.0
116.084	5.0
116.099	3.0
116.113	5.0
116.128	5.0
116.143	10.0
116.158	10.0
116.173	7.0
116.188	0.0
116.202	4.0
116.217	3.0
116.232	2.0
116.247	5.0
116.262	3.0
116.277	5.0
116.291	2.0
116.306	5.0
116.321	0.0
116.336	3.0
116.351	8.0
116.366	7.0
116.38	4.0
116.395	2.0
116.41	7.0
116.425	3.0
116.44	2.0
116.454	4.0
116.469	3.0
116.484	2.0
116.499	1.0
116.514	6.0
116.528	2.0
116.543	6.0
116.558	3.0
116.573	2.0
116.588	0.0
116.602	3.0
116.617	5.0
116.632	4.0
116.647	5.0
116.662	8.0
116.676	1.0
116.691	1.0
116.706	1.0
116.721	3.0
116.735	4.0
116.75	3.0
116.765	4.0
116.78	5.0
116.795	2.0
116.809	2.0
116.824	3.0
116.839	4.0
116.854	3.0
116.868	5.0
116.883	3.0
116.898	4.0
116.913	1.0
116.927	6.0
116.942	7.0
116.957	2.0
116.972	1.0
116.986	2.0
117.001	3.0
117.016	2.0
117.031	5.0
117.045	2.0
117.06	2.0
117.075	2.0
117.09	8.0
117.104	3.0
117.119	3.0
117.134	4.0
117.149	3.0
117.163	3.0
117.178	5.0
117.193	2.0
117.208	2.0
117.222	4.0
117.237	4.0
117.252	3.0
117.267	5.0
117.281	4.0
117.296	2.0
117.311	6.0
117.325	4.0
117.34	3.0
117.355	4.0
117.37	5.0
117.384	2.0
117.399	3.0
117.414	1.0
117.429	7.0
117.443	4.0
117.458	7.0
117.473	7.0
117.487	5.0
117.502	4.0
117.517	3.0
117.532	4.0
117.546	2.0
117.561	2.0
117.576	2.0
117.59	3.0
117.605	4.0
117.62	3.0
117.635	3.0
117.649	3.0
117.664	4.0
117.679	3.0
117.693	3.0
117.708	4.0
117.723	1.0
117.738	1.0
117.752	3.0
117.767	5.0
117.782	2.0
117.796	5.0
117.811	0.0
117.826	1.0
117.841	2.0
117.855	3.0
117.87	4.0
117.885	3.0
117.899	1.0
117.914	2.0
117.929	1.0
117.944	5.0
117.958	6.0
117.973	2.0
117.988	10.0
118.002	6.0
118.017	0.0
118.032	4.0
118.047	3.0
118.062	5.0
118.077	6.0
118.092	5.0
118.107	4.0
118.121	4.0
118.136	6.0
118.151	2.0
118.166	5.0
118.181	0.0
118.196	7.0
118.211	2.0
118.225	5.0
118.24	4.0
118.255	8.0
118.27	5.0
118.285	3.0
118.3	2.0
118.315	4.0
118.33	3.0
118.344	4.0
118.359	4.0
118.374	3.0
118.389	7.0
118.404	3.0
118.419	4.0
118.434	5.0
118.449	2.0
118.463	2.0
118.478	5.0
118.493	3.0
118.508	5.0
118.523	4.0
118.538	4.0
118.553	7.0
118.567	2.0
118.582	8.0
118.597	2.0
118.612	5.0
118.627	3.0
118.642	4.0
118.657	2.0
118.672	3.0
118.686	5.0
118.701	1.0
118.716	2.0
118.731	4.0
118.746	8.0
118.761	4.0
118.776	7.0
118.791	4.0
118.805	6.0
118.82	4.0
118.835	2.0
118.85	3.0
118.865	3.0
118.88	3.0
118.895	4.0
118.909	2.0
118.924	4.0
118.939	0.0
118.954	4.0
118.969	1.0
118.984	1.0
118.999	4.0
119.014	5.0
119.028	6.0
119.043	3.0
119.058	3.0
119.073	2.0
119.088	5.0
119.103	1.0
119.118	5.0
119.133	5.0
119.147	3.0
119.162	4.0
119.177	4.0
119.192	3.0
119.207	2.0
119.222	3.0
119.237	4.0
119.251	9.0
119.266	5.0
119.281	4.0
119.296	3.0
119.311	2.0
119.326	4.0
119.341	7.0
119.356	5.0
119.37	5.0
119.385	3.0
119.4	3.0
119.415	3.0
119.43	4.0
119.445	4.0
119.46	6.0
119.475	2.0
119.489	5.0
119.504	3.0
119.519	3.0
119.534	1.0
119.549	1.0
119.564	4.0
119.579	1.0
119.593	3.0
119.608	5.0
119.623	5.0
119.638	4.0
119.653	3.0
119.668	4.0
119.683	1.0
119.698	4.0
119.712	5.0
119.727	4.0
119.742	2.0
119.757	5.0
119.772	5.0
119.787	1.0
119.802	2.0
119.817	4.0
119.831	2.0
119.846	4.0
119.861	1.0
119.876	3.0
119.891	5.0
119.906	5.0
119.921	2.0
119.935	2.0
119.95	3.0
119.965	2.0
119.98	2.0
119.995	5.0
120.01	3.0
120.025	4.0
120.04	1.0
120.054	1.0
120.069	0.0
120.084	1.0
120.099	2.0
120.114	1.0
120.129	2.0
120.144	1.0
120.159	1.0
120.173	1.0
120.188	2.0
120.203	2.0
120.218	2.0
120.233	0.0
120.248	3.0
120.263	0.0
120.277	0.0
120.292	1.0
120.307	1.0
120.322	0.0
120.337	1.0
120.352	0.0
120.367	0.0
120.382	1.0
120.396	0.0
120.411	1.0
120.426	0.0
120.441	0.0
120.456	0.0
120.471	0.0
120.486	1.0
120.501	0.0
120.515	0.0
120.53	0.0
120.545	0.0
120.56	0.0
120.575	0.0
120.59	0.0
120.605	1.0
120.619	0.0
120.634	0.0
120.649	0.0
120.664	1.0
120.679	0.0
120.694	0.0
120.709	0.0
120.724	0.0
120.738	0.0
120.753	0.0
120.768	0.0
120.783	0.0
120.798	0.0
120.813	0.0
120.828	0.0
120.843	0.0
120.857	0.0
120.872	0.0
120.887	0.0
120.902	0.0
120.917	0.0
120.932	0.0
120.947	1.0
120.961	0.0
120.976	0.0
