-1.217	0.0
-1.202	0.0
-1.187	0.0
-1.172	0.0
-1.157	0.0
-1.142	0.0
-1.128	0.0
-1.113	0.0
-1.098	0.0
-1.083	0.0
-1.068	0.0
-1.054	0.0
-1.039	0.0
-1.024	0.0
-1.009	0.0
-0.994	0.0
-0.979	0.0
-0.965	0.0
-0.95	0.0
-0.935	0.0
-0.92	0.0
-0.905	0.0
-0.891	0.0
-0.876	0.0
-0.861	0.0
-0.846	0.0
-0.831	0.0
-0.816	0.0
-0.802	0.0
-0.787	0.0
-0.772	0.0
-0.757	0.0
-0.742	0.0
-0.728	0.0
-0.713	0.0
-0.698	1.0
-0.683	0.0
-0.668	0.0
-0.653	0.0
-0.639	0.0
-0.624	0.0
-0.609	0.0
-0.594	0.0
-0.579	0.0
-0.565	0.0
-0.55	0.0
-0.535	0.0
-0.52	0.0
-0.505	0.0
-0.49	0.0
-0.476	0.0
-0.461	0.0
-0.446	0.0
-0.431	0.0
-0.416	0.0
-0.401	0.0
-0.387	0.0
-0.372	0.0
-0.357	0.0
-0.342	0.0
-0.327	0.0
-0.313	0.0
-0.298	0.0
-0.283	0.0
-0.268	0.0
-0.253	0.0
-0.238	0.0
-0.224	0.0
-0.209	0.0
-0.194	0.0
-0.179	0.0
-0.164	0.0
-0.15	0.0
-0.135	0.0
-0.12	1.0
-0.105	0.0
-0.09	0.0
-0.075	0.0
-0.061	0.0
-0.046	0.0
-0.031	0.0
-0.016	0.0
-0.001	0.0
0.013	0.0
0.028	0.0
0.043	0.0
0.058	0.0
0.073	0.0
0.088	0.0
0.102	0.0
0.117	0.0
0.132	0.0
0.147	0.0
0.162	0.0
0.176	0.0
0.191	0.0
0.206	0.0
0.221	0.0
0.236	0.0
0.251	0.0
0.265	0.0
0.28	0.0
0.295	0.0
0.31	0.0
0.325	0.0
0.339	0.0
0.354	0.0
0.369	0.0
0.384	0.0
0.399	0.0
0.414	0.0
0.428	0.0
0.443	0.0
0.458	0.0
0.473	0.0
0.488	0.0
0.502	0.0
0.517	0.0
0.532	0.0
0.547	0.0
0.562	0.0
0.577	0.0
0.591	0.0
0.606	0.0
0.621	0.0
0.636	0.0
0.651	0.0
0.665	0.0
0.68	0.0
0.695	0.0
0.71	0.0
0.725	0.0
0.74	0.0
0.754	0.0
0.769	0.0
0.784	0.0
0.799	0.0
0.814	0.0
0.828	0.0
0.843	0.0
0.858	0.0
0.873	0.0
0.888	0.0
0.903	0.0
0.917	0.0
0.932	0.0
0.947	0.0
0.962	0.0
0.977	1.0
0.991	0.0
1.006	0.0
1.021	0.0
1.036	0.0
1.051	0.0
1.065	0.0
1.08	0.0
1.095	0.0
1.11	0.0
1.125	1.0
1.14	0.0
1.154	0.0
1.169	0.0
1.184	0.0
1.199	0.0
1.214	1.0
1.228	0.0
1.243	0.0
1.258	0.0
1.273	0.0
1.288	0.0
1.302	0.0
1.317	0.0
1.332	0.0
1.347	0.0
1.362	0.0
1.376	0.0
1.391	0.0
1.406	0.0
1.421	0.0
1.436	0.0
1.45	0.0
1.465	0.0
1.48	0.0
1.495	0.0
1.51	1.0
1.524	0.0
1.539	0.0
1.554	0.0
1.569	0.0
1.584	0.0
1.598	0.0
1.613	0.0
1.628	1.0
1.643	0.0
1.658	0.0
1.672	1.0
1.687	0.0
1.702	0.0
1.717	0.0
1.732	1.0
1.746	0.0
1.761	0.0
1.776	0.0
1.791	0.0
1.806	0.0
1.82	0.0
1.835	0.0
1.85	0.0
1.865	0.0
1.88	0.0
1.894	0.0
1.909	0.0
1.924	0.0
1.939	0.0
1.954	1.0
1.968	0.0
1.983	0.0
1.998	1.0
2.013	0.0
2.028	0.0
2.042	0.0
2.057	0.0
2.072	1.0
2.087	1.0
2.101	0.0
2.116	1.0
2.131	1.0
2.146	1.0
2.161	0.0
2.175	2.0
2.19	0.0
2.205	2.0
2.22	0.0
2.235	0.0
2.249	0.0
2.264	0.0
2.279	1.0
2.294	1.0
2.308	0.0
2.323	1.0
2.338	0.0
2.353	0.0
2.368	1.0
2.382	1.0
2.397	0.0
2.412	3.0
2.427	0.0
2.442	1.0
2.456	8.0
2.471	1.0
2.486	0.0
2.501	3.0
2.515	1.0
2.53	0.0
2.545	2.0
2.56	2.0
2.575	1.0
2.589	3.0
2.604	4.0
2.619	0.0
2.634	2.0
2.649	4.0
2.663	1.0
2.678	1.0
2.693	4.0
2.708	3.0
2.722	0.0
2.737	2.0
2.752	1.0
2.767	2.0
2.782	1.0
2.796	9.0
2.811	2.0
2.826	4.0
2.841	2.0
2.856	0.0
2.87	2.0
2.885	2.0
2.9	2.0
2.915	0.0
2.93	1.0
2.944	1.0
2.959	4.0
2.974	6.0
2.989	4.0
3.004	4.0
3.018	2.0
3.033	1.0
3.048	6.0
3.063	4.0
3.078	5.0
3.092	1.0
3.107	5.0
3.122	1.0
3.137	3.0
3.152	4.0
3.166	4.0
3.181	6.0
3.196	4.0
3.211	9.0
3.226	5.0
3.24	6.0
3.255	4.0
3.27	6.0
3.285	6.0
3.3	7.0
3.315	2.0
3.329	5.0
3.344	2.0
3.359	1.0
3.374	3.0
3.389	6.0
3.403	5.0
3.418	7.0
3.433	6.0
3.448	8.0
3.463	1.0
3.478	5.0
3.492	4.0
3.507	8.0
3.522	3.0
3.537	5.0
3.552	7.0
3.567	1.0
3.581	3.0
3.596	6.0
3.611	9.0
3.626	7.0
3.641	4.0
3.656	2.0
3.671	6.0
3.685	9.0
3.7	7.0
3.715	2.0
3.73	4.0
3.745	8.0
3.76	3.0
3.775	3.0
3.789	9.0
3.804	6.0
3.819	5.0
3.834	6.0
3.849	7.0
3.864	4.0
3.879	7.0
3.894	8.0
3.908	2.0
3.923	6.0
3.938	8.0
3.953	5.0
3.968	4.0
3.983	7.0
3.998	3.0
4.013	9.0
4.027	7.0
4.042	9.0
4.057	4.0
4.072	7.0
4.087	8.0
4.102	8.0
4.117	5.0
4.132	6.0
4.147	7.0
4.162	7.0
4.176	6.0
4.191	11.0
4.206	7.0
4.221	5.0
4.236	9.0
4.251	5.0
4.266	8.0
4.281	11.0
4.296	4.0
4.311	2.0
4.326	6.0
4.341	7.0
4.356	5.0
4.37	7.0
4.385	3.0
4.4	7.0
4.415	5.0
4.43	5.0
4.445	10.0
4.46	10.0
4.475	8.0
4.49	7.0
4.505	10.0
4.52	9.0
4.535	14.0
4.55	9.0
4.565	14.0
4.58	6.0
4.595	6.0
4.61	9.0
4.625	5.0
4.639	8.0
4.654	8.0
4.669	10.0
4.684	10.0
4.699	3.0
4.714	11.0
4.729	8.0
4.744	10.0
4.759	9.0
4.774	10.0
4.789	11.0
4.804	13.0
4.819	5.0
4.834	5.0
4.849	13.0
4.864	11.0
4.879	8.0
4.894	7.0
4.909	8.0
4.924	10.0
4.939	13.0
4.954	5.0
4.969	8.0
4.984	6.0
4.999	6.0
5.014	10.0
5.029	9.0
5.044	10.0
5.059	6.0
5.074	8.0
5.089	8.0
5.104	7.0
5.119	10.0
5.134	7.0
5.149	5.0
5.164	9.0
5.179	13.0
5.194	9.0
5.209	11.0
5.224	8.0
5.239	4.0
5.254	7.0
5.269	13.0
5.284	10.0
5.299	8.0
5.314	12.0
5.329	7.0
5.344	8.0
5.359	9.0
5.374	2.0
5.389	9.0
5.404	11.0
5.419	9.0
5.434	4.0
5.449	6.0
5.464	9.0
5.479	15.0
5.494	8.0
5.509	6.0
5.524	7.0
5.539	10.0
5.554	9.0
5.569	5.0
5.584	6.0
5.599	7.0
5.614	6.0
5.629	7.0
5.644	7.0
5.659	6.0
5.674	8.0
5.689	11.0
5.704	11.0
5.719	5.0
5.734	8.0
5.749	5.0
5.764	6.0
5.779	9.0
5.794	6.0
5.809	7.0
5.824	12.0
5.839	9.0
5.854	16.0
5.869	10.0
5.884	6.0
5.899	6.0
5.914	7.0
5.929	7.0
5.944	4.0
5.959	5.0
5.974	14.0
5.989	5.0
6.004	10.0
6.019	8.0
6.034	6.0
6.049	6.0
6.064	11.0
6.079	2.0
6.094	14.0
6.109	5.0
6.124	5.0
6.139	8.0
6.154	11.0
6.169	8.0
6.184	7.0
6.199	11.0
6.214	7.0
6.229	4.0
6.244	8.0
6.259	14.0
6.274	8.0
6.289	5.0
6.304	13.0
6.319	11.0
6.334	7.0
6.349	4.0
6.364	6.0
6.379	10.0
6.394	7.0
6.409	13.0
6.424	3.0
6.439	5.0
6.454	7.0
6.469	5.0
6.484	9.0
6.499	9.0
6.514	9.0
6.529	16.0
6.544	13.0
6.559	7.0
6.574	11.0
6.589	4.0
6.604	8.0
6.619	10.0
6.634	5.0
6.649	11.0
6.664	7.0
6.679	6.0
6.694	4.0
6.709	8.0
6.724	10.0
6.739	6.0
6.754	6.0
6.769	11.0
6.784	6.0
6.799	11.0
6.814	11.0
6.829	8.0
6.844	7.0
6.859	7.0
6.873	7.0
6.888	11.0
6.903	10.0
6.918	6.0
6.933	6.0
6.948	4.0
6.963	10.0
6.978	5.0
6.993	10.0
7.008	8.0
7.023	5.0
7.038	9.0
7.053	13.0
7.068	4.0
7.083	9.0
7.098	15.0
7.113	10.0
7.128	13.0
7.143	12.0
7.157	12.0
7.172	7.0
7.187	10.0
7.202	10.0
7.217	13.0
7.232	13.0
7.247	9.0
7.262	4.0
7.277	9.0
7.292	10.0
7.307	6.0
7.322	12.0
7.336	12.0
7.351	11.0
7.366	8.0
7.381	8.0
7.396	11.0
7.411	6.0
7.426	8.0
7.441	5.0
7.456	15.0
7.471	13.0
7.485	9.0
7.5	12.0
7.515	8.0
7.53	8.0
7.545	7.0
7.56	9.0
7.575	7.0
7.59	10.0
7.604	9.0
7.619	9.0
7.634	9.0
7.649	7.0
7.664	10.0
7.679	9.0
7.693	7.0
7.708	8.0
7.723	11.0
7.738	9.0
7.753	9.0
7.768	12.0
7.783	10.0
7.797	8.0
7.812	6.0
7.827	4.0
7.842	11.0
7.857	8.0
7.871	8.0
7.886	10.0
7.901	9.0
7.916	12.0
7.931	5.0
7.945	13.0
7.96	8.0
7.975	11.0
7.99	6.0
8.005	5.0
8.019	8.0
8.034	9.0
8.049	6.0
8.064	13.0
8.078	16.0
8.093	6.0
8.108	9.0
8.123	8.0
8.137	9.0
8.152	11.0
8.167	7.0
8.182	6.0
8.196	10.0
8.211	21.0
8.226	9.0
8.241	9.0
8.255	10.0
8.27	5.0
8.285	5.0
8.3	14.0
8.314	8.0
8.329	7.0
8.344	9.0
8.358	7.0
8.373	7.0
8.388	13.0
8.403	9.0
8.417	16.0
8.432	11.0
8.447	16.0
8.461	8.0
8.476	12.0
8.491	8.0
8.505	5.0
8.52	11.0
8.535	8.0
8.55	6.0
8.564	16.0
8.579	12.0
8.594	6.0
8.608	8.0
8.623	13.0
8.638	12.0
8.652	6.0
8.667	7.0
8.682	11.0
8.696	10.0
8.711	11.0
8.726	10.0
8.74	11.0
8.755	4.0
8.77	7.0
8.784	4.0
8.799	11.0
8.814	10.0
8.828	5.0
8.843	9.0
8.858	10.0
8.872	15.0
8.887	7.0
8.902	12.0
8.916	15.0
8.931	6.0
8.946	7.0
8.96	6.0
8.975	5.0
8.99	13.0
9.004	5.0
9.019	8.0
9.034	12.0
9.048	8.0
9.063	10.0
9.077	13.0
9.092	7.0
9.107	11.0
9.121	10.0
9.136	8.0
9.151	8.0
9.165	9.0
9.18	13.0
9.195	7.0
9.209	9.0
9.224	6.0
9.239	10.0
9.253	6.0
9.268	8.0
9.283	5.0
9.297	6.0
9.312	9.0
9.327	10.0
9.341	8.0
9.356	5.0
9.371	9.0
9.385	8.0
9.4	10.0
9.415	5.0
9.429	10.0
9.444	6.0
9.458	8.0
9.473	11.0
9.488	7.0
9.502	10.0
9.517	8.0
9.532	9.0
9.546	15.0
9.561	3.0
9.576	7.0
9.59	11.0
9.605	9.0
9.62	10.0
9.635	6.0
9.649	14.0
9.664	5.0
9.679	9.0
9.693	5.0
9.708	7.0
9.723	4.0
9.737	9.0
9.752	6.0
9.767	12.0
9.781	12.0
9.796	11.0
9.811	10.0
9.825	6.0
9.84	5.0
9.855	9.0
9.87	8.0
9.884	7.0
9.899	7.0
9.914	9.0
9.928	8.0
9.943	10.0
9.958	9.0
9.973	6.0
9.987	5.0
10.002	7.0
10.017	5.0
10.031	11.0
10.046	7.0
10.061	7.0
10.076	4.0
10.09	5.0
10.105	6.0
10.12	7.0
10.135	8.0
10.149	7.0
10.164	10.0
10.179	9.0
10.194	11.0
10.208	9.0
10.223	4.0
10.238	8.0
10.253	6.0
10.267	6.0
10.282	10.0
10.297	6.0
10.312	12.0
10.326	8.0
10.341	5.0
10.356	10.0
10.371	4.0
10.386	11.0
10.4	10.0
10.415	13.0
10.43	7.0
10.445	10.0
10.46	10.0
10.474	6.0
10.489	6.0
10.504	10.0
10.519	10.0
10.533	5.0
10.548	3.0
10.563	6.0
10.578	8.0
10.593	6.0
10.608	7.0
10.622	3.0
10.637	6.0
10.652	2.0
10.667	13.0
10.682	5.0
10.696	10.0
10.711	7.0
10.726	9.0
10.741	3.0
10.756	5.0
10.771	11.0
10.785	6.0
10.8	3.0
10.815	8.0
10.83	12.0
10.845	8.0
10.86	9.0
10.874	10.0
10.889	11.0
10.904	5.0
10.919	2.0
10.934	8.0
10.949	6.0
10.963	10.0
10.978	8.0
10.993	5.0
11.008	9.0
11.023	5.0
11.038	14.0
11.053	10.0
11.067	12.0
11.082	10.0
11.097	3.0
11.112	5.0
11.127	7.0
11.142	8.0
11.157	9.0
11.172	5.0
11.186	7.0
11.201	4.0
11.216	8.0
11.231	9.0
11.246	5.0
11.261	6.0
11.276	4.0
11.291	9.0
11.305	14.0
11.32	8.0
11.335	6.0
11.35	8.0
11.365	8.0
11.38	9.0
11.395	7.0
11.41	13.0
11.424	8.0
11.439	6.0
11.454	9.0
11.469	11.0
11.484	5.0
11.499	10.0
11.514	4.0
11.529	12.0
11.544	10.0
11.558	9.0
11.573	9.0
11.588	11.0
11.603	8.0
11.618	6.0
11.633	10.0
11.648	2.0
11.663	5.0
11.678	6.0
11.693	7.0
11.707	7.0
11.722	5.0
11.737	10.0
11.752	11.0
11.767	12.0
11.782	7.0
11.797	10.0
11.812	13.0
11.827	12.0
11.842	7.0
11.856	11.0
11.871	7.0
11.886	13.0
11.901	8.0
11.916	11.0
11.931	11.0
11.946	8.0
11.961	10.0
11.976	12.0
11.991	6.0
12.006	9.0
12.02	9.0
12.035	8.0
12.05	9.0
12.065	11.0
12.08	17.0
12.095	8.0
12.11	17.0
12.125	11.0
12.14	12.0
12.155	7.0
12.17	4.0
12.184	7.0
12.199	12.0
12.214	16.0
12.229	12.0
12.244	7.0
12.259	13.0
12.274	7.0
12.289	10.0
12.304	12.0
12.319	11.0
12.334	11.0
12.348	10.0
12.363	11.0
12.378	12.0
12.393	13.0
12.408	10.0
12.423	17.0
12.438	9.0
12.453	12.0
12.468	7.0
12.483	10.0
12.498	16.0
12.513	18.0
12.527	12.0
12.542	9.0
12.557	10.0
12.572	16.0
12.587	16.0
12.602	12.0
12.617	9.0
12.632	18.0
12.647	17.0
12.662	12.0
12.677	16.0
12.692	5.0
12.707	11.0
12.721	18.0
12.736	15.0
12.751	11.0
12.766	11.0
12.781	10.0
12.796	17.0
12.811	12.0
12.826	15.0
12.841	19.0
12.856	15.0
12.871	9.0
12.886	10.0
12.9	18.0
12.915	22.0
12.93	14.0
12.945	17.0
12.96	13.0
12.975	17.0
12.99	14.0
13.005	19.0
13.02	20.0
13.035	23.0
13.05	14.0
13.065	11.0
13.08	22.0
13.094	13.0
13.109	15.0
13.124	12.0
13.139	19.0
13.154	19.0
13.169	24.0
13.184	24.0
13.199	18.0
13.214	14.0
13.229	22.0
13.244	21.0
13.259	23.0
13.274	25.0
13.288	14.0
13.303	22.0
13.318	21.0
13.333	20.0
13.348	24.0
13.363	26.0
13.378	31.0
13.393	30.0
13.408	38.0
13.423	19.0
13.438	28.0
13.453	24.0
13.468	39.0
13.482	28.0
13.497	40.0
13.512	45.0
13.527	35.0
13.542	49.0
13.557	46.0
13.572	60.0
13.587	51.0
13.602	61.0
13.617	57.0
13.632	81.0
13.647	74.0
13.662	71.0
13.677	80.0
13.691	102.0
13.706	111.0
13.721	100.0
13.736	78.0
13.751	110.0
13.766	108.0
13.781	121.0
13.796	121.0
13.811	145.0
13.826	142.0
13.841	128.0
13.856	134.0
13.871	119.0
13.885	94.0
13.9	96.0
13.915	79.0
13.93	84.0
13.945	79.0
13.96	47.0
13.975	37.0
13.99	38.0
14.005	35.0
14.02	36.0
14.035	39.0
14.05	21.0
14.065	39.0
14.08	23.0
14.094	19.0
14.109	29.0
14.124	16.0
14.139	24.0
14.154	32.0
14.169	20.0
14.184	21.0
14.199	20.0
14.214	26.0
14.229	18.0
14.244	15.0
14.259	17.0
14.274	14.0
14.288	15.0
14.303	18.0
14.318	22.0
14.333	23.0
14.348	22.0
14.363	28.0
14.378	18.0
14.393	26.0
14.408	16.0
14.423	17.0
14.438	12.0
14.453	10.0
14.468	17.0
14.482	20.0
14.497	15.0
14.512	18.0
14.527	14.0
14.542	21.0
14.557	17.0
14.572	14.0
14.587	10.0
14.602	14.0
14.617	20.0
14.632	17.0
14.647	22.0
14.661	16.0
14.676	12.0
14.691	13.0
14.706	16.0
14.721	17.0
14.736	23.0
14.751	24.0
14.766	15.0
14.781	18.0
14.796	23.0
14.811	16.0
14.826	23.0
14.84	20.0
14.855	15.0
14.87	15.0
14.885	18.0
14.9	19.0
14.915	11.0
14.93	18.0
14.945	19.0
14.96	13.0
14.975	17.0
14.989	15.0
15.004	14.0
15.019	23.0
15.034	16.0
15.049	9.0
15.064	17.0
15.079	16.0
15.094	12.0
15.109	17.0
15.124	16.0
15.138	19.0
15.153	16.0
15.168	20.0
15.183	19.0
15.198	12.0
15.213	14.0
15.228	15.0
15.243	19.0
15.258	12.0
15.272	14.0
15.287	8.0
15.302	16.0
15.317	13.0
15.332	13.0
15.347	12.0
15.362	13.0
15.377	10.0
15.391	10.0
15.406	19.0
15.421	18.0
15.436	12.0
15.451	20.0
15.466	13.0
15.481	13.0
15.496	11.0
15.51	16.0
15.525	17.0
15.54	12.0
15.555	15.0
15.57	15.0
15.585	16.0
15.6	21.0
15.614	9.0
15.629	14.0
15.644	14.0
15.659	18.0
15.674	15.0
15.689	18.0
15.704	17.0
15.718	13.0
15.733	13.0
15.748	10.0
15.763	19.0
15.778	12.0
15.793	16.0
15.808	17.0
15.822	15.0
15.837	22.0
15.852	12.0
15.867	14.0
15.882	16.0
15.897	13.0
15.911	8.0
15.926	18.0
15.941	13.0
15.956	15.0
15.971	14.0
15.986	19.0
16.0	18.0
16.015	17.0
16.03	15.0
16.045	16.0
16.06	17.0
16.074	16.0
16.089	18.0
16.104	15.0
16.119	9.0
16.134	15.0
16.149	14.0
16.163	16.0
16.178	13.0
16.193	19.0
16.208	17.0
16.223	10.0
16.237	15.0
16.252	13.0
16.267	18.0
16.282	8.0
16.297	19.0
16.311	12.0
16.326	15.0
16.341	17.0
16.356	12.0
16.37	16.0
16.385	15.0
16.4	12.0
16.415	10.0
16.43	24.0
16.444	9.0
16.459	13.0
16.474	12.0
16.489	13.0
16.504	20.0
16.518	11.0
16.533	13.0
16.548	12.0
16.563	23.0
16.577	15.0
16.592	19.0
16.607	16.0
16.622	17.0
16.637	16.0
16.651	16.0
16.666	30.0
16.681	28.0
16.696	26.0
16.71	27.0
16.725	24.0
16.74	38.0
16.755	45.0
16.77	48.0
16.784	37.0
16.799	35.0
16.814	48.0
16.829	45.0
16.843	33.0
16.858	55.0
16.873	53.0
16.888	56.0
16.902	57.0
16.917	67.0
16.932	78.0
16.947	64.0
16.961	76.0
16.976	74.0
16.991	76.0
17.006	74.0
17.021	64.0
17.035	44.0
17.05	51.0
17.065	46.0
17.08	42.0
17.094	35.0
17.109	31.0
17.124	31.0
17.139	24.0
17.153	27.0
17.168	18.0
17.183	20.0
17.198	23.0
17.212	16.0
17.227	23.0
17.242	17.0
17.257	8.0
17.271	12.0
17.286	17.0
17.301	23.0
17.316	14.0
17.33	12.0
17.345	18.0
17.36	21.0
17.375	12.0
17.39	12.0
17.404	7.0
17.419	12.0
17.434	15.0
17.449	16.0
17.463	8.0
17.478	14.0
17.493	13.0
17.508	16.0
17.522	11.0
17.537	17.0
17.552	14.0
17.567	6.0
17.581	21.0
17.596	18.0
17.611	16.0
17.626	6.0
17.641	9.0
17.655	18.0
17.67	13.0
17.685	13.0
17.7	16.0
17.714	13.0
17.729	9.0
17.744	13.0
17.759	19.0
17.773	15.0
17.788	15.0
17.803	11.0
17.818	14.0
17.833	14.0
17.847	7.0
17.862	9.0
17.877	7.0
17.892	11.0
17.906	14.0
17.921	13.0
17.936	11.0
17.951	14.0
17.966	12.0
17.98	9.0
17.995	11.0
18.01	11.0
18.025	11.0
18.04	10.0
18.054	11.0
18.069	13.0
18.084	10.0
18.099	10.0
18.114	19.0
18.128	10.0
18.143	11.0
18.158	11.0
18.173	10.0
18.188	11.0
18.202	10.0
18.217	6.0
18.232	5.0
18.247	11.0
18.262	11.0
18.276	11.0
18.291	15.0
18.306	17.0
18.321	12.0
18.336	13.0
18.35	13.0
18.365	6.0
18.38	18.0
18.395	10.0
18.41	10.0
18.424	17.0
18.439	12.0
18.454	10.0
18.469	11.0
18.484	14.0
18.498	7.0
18.513	6.0
18.528	8.0
18.543	9.0
18.558	8.0
18.573	11.0
18.587	19.0
18.602	9.0
18.617	15.0
18.632	14.0
18.647	9.0
18.661	11.0
18.676	10.0
18.691	13.0
18.706	13.0
18.721	10.0
18.736	15.0
18.75	11.0
18.765	13.0
18.78	7.0
18.795	11.0
18.81	13.0
18.825	8.0
18.839	9.0
18.854	20.0
18.869	14.0
18.884	17.0
18.899	10.0
18.913	7.0
18.928	4.0
18.943	16.0
18.958	8.0
18.973	12.0
18.988	12.0
19.002	4.0
19.017	12.0
19.032	9.0
19.047	8.0
19.062	16.0
19.077	14.0
19.091	11.0
19.106	15.0
19.121	13.0
19.136	12.0
19.151	13.0
19.165	10.0
19.18	7.0
19.195	15.0
19.21	21.0
19.225	9.0
19.24	17.0
19.254	16.0
19.269	15.0
19.284	15.0
19.299	16.0
19.314	18.0
19.329	11.0
19.343	15.0
19.358	16.0
19.373	21.0
19.388	19.0
19.403	27.0
19.417	28.0
19.432	29.0
19.447	19.0
19.462	21.0
19.477	30.0
19.492	32.0
19.506	25.0
19.521	31.0
19.536	34.0
19.551	29.0
19.566	43.0
19.58	37.0
19.595	39.0
19.61	45.0
19.625	45.0
19.64	34.0
19.655	46.0
19.669	32.0
19.684	45.0
19.699	42.0
19.714	40.0
19.729	13.0
19.743	22.0
19.758	28.0
19.773	18.0
19.788	16.0
19.803	15.0
19.817	11.0
19.832	15.0
19.847	13.0
19.862	14.0
19.877	11.0
19.891	13.0
19.906	8.0
19.921	12.0
19.936	10.0
19.951	9.0
19.965	16.0
19.98	12.0
19.995	7.0
20.01	14.0
20.025	15.0
20.039	11.0
20.054	8.0
20.069	10.0
20.084	18.0
20.099	15.0
20.113	10.0
20.128	19.0
20.143	8.0
20.158	8.0
20.173	10.0
20.187	9.0
20.202	7.0
20.217	9.0
20.232	13.0
20.246	14.0
20.261	15.0
20.276	21.0
20.291	6.0
20.306	9.0
20.32	9.0
20.335	7.0
20.35	16.0
20.365	8.0
20.38	16.0
20.394	13.0
20.409	14.0
20.424	13.0
20.439	9.0
20.453	9.0
20.468	11.0
20.483	11.0
20.498	19.0
20.513	14.0
20.527	7.0
20.542	12.0
20.557	6.0
20.572	11.0
20.586	12.0
20.601	14.0
20.616	6.0
20.631	11.0
20.646	14.0
20.66	8.0
20.675	9.0
20.69	17.0
20.705	7.0
20.719	11.0
20.734	10.0
20.749	13.0
20.764	6.0
20.779	11.0
20.793	16.0
20.808	10.0
20.823	13.0
20.838	7.0
20.853	16.0
20.867	13.0
20.882	15.0
20.897	11.0
20.912	13.0
20.926	13.0
20.941	7.0
20.956	14.0
20.971	11.0
20.986	15.0
21.0	13.0
21.015	18.0
21.03	10.0
21.045	12.0
21.06	8.0
21.074	6.0
21.089	13.0
21.104	8.0
21.119	11.0
21.134	10.0
21.148	15.0
21.163	13.0
21.178	10.0
21.193	18.0
21.208	11.0
21.222	8.0
21.237	19.0
21.252	7.0
21.267	12.0
21.282	13.0
21.296	14.0
21.311	13.0
21.326	8.0
21.341	12.0
21.356	18.0
21.37	5.0
21.385	11.0
21.4	10.0
21.415	17.0
21.43	17.0
21.444	13.0
21.459	13.0
21.474	11.0
21.489	12.0
21.504	14.0
21.519	18.0
21.533	14.0
21.548	8.0
21.563	11.0
21.578	12.0
21.593	9.0
21.608	15.0
21.622	17.0
21.637	18.0
21.652	17.0
21.667	13.0
21.682	15.0
21.697	14.0
21.712	20.0
21.726	34.0
21.741	26.0
21.756	30.0
21.771	32.0
21.786	35.0
21.801	31.0
21.816	46.0
21.83	45.0
21.845	51.0
21.86	45.0
21.875	57.0
21.89	65.0
21.905	72.0
21.92	77.0
21.935	81.0
21.949	89.0
21.964	83.0
21.979	95.0
21.994	78.0
22.009	55.0
22.024	62.0
22.039	70.0
22.054	49.0
22.069	51.0
22.083	41.0
22.098	31.0
22.113	35.0
22.128	39.0
22.143	27.0
22.158	33.0
22.173	17.0
22.188	20.0
22.203	19.0
22.218	19.0
22.233	21.0
22.248	14.0
22.262	13.0
22.277	12.0
22.292	10.0
22.307	20.0
22.322	8.0
22.337	11.0
22.352	10.0
22.367	21.0
22.382	16.0
22.397	15.0
22.412	6.0
22.427	15.0
22.442	20.0
22.457	8.0
22.472	17.0
22.487	12.0
22.502	11.0
22.516	15.0
22.531	12.0
22.546	13.0
22.561	14.0
22.576	10.0
22.591	19.0
22.606	17.0
22.621	13.0
22.636	17.0
22.651	18.0
22.666	8.0
22.681	12.0
22.696	16.0
22.711	10.0
22.726	6.0
22.741	8.0
22.756	13.0
22.771	15.0
22.786	9.0
22.801	12.0
22.816	13.0
22.831	17.0
22.846	6.0
22.861	11.0
22.876	9.0
22.891	12.0
22.906	11.0
22.92	13.0
22.935	5.0
22.95	8.0
22.965	10.0
22.98	11.0
22.995	10.0
23.01	8.0
23.025	11.0
23.04	14.0
23.055	5.0
23.07	11.0
23.085	9.0
23.1	11.0
23.115	5.0
23.13	11.0
23.145	7.0
23.16	6.0
23.175	10.0
23.19	9.0
23.205	7.0
23.22	10.0
23.235	6.0
23.25	6.0
23.265	7.0
23.28	13.0
23.295	13.0
23.31	15.0
23.325	9.0
23.34	5.0
23.355	8.0
23.37	7.0
23.384	8.0
23.399	9.0
23.414	4.0
23.429	4.0
23.444	12.0
23.459	9.0
23.474	4.0
23.489	11.0
23.504	7.0
23.519	8.0
23.534	10.0
23.549	13.0
23.564	14.0
23.579	5.0
23.594	6.0
23.609	8.0
23.624	8.0
23.639	15.0
23.654	8.0
23.668	16.0
23.683	14.0
23.698	8.0
23.713	8.0
23.728	13.0
23.743	14.0
23.758	12.0
23.773	16.0
23.788	10.0
23.803	8.0
23.818	15.0
23.833	13.0
23.848	15.0
23.862	7.0
23.877	19.0
23.892	19.0
23.907	20.0
23.922	26.0
23.937	27.0
23.952	33.0
23.967	29.0
23.982	58.0
23.997	51.0
24.011	35.0
24.026	30.0
24.041	43.0
24.056	47.0
24.071	43.0
24.086	40.0
24.101	52.0
24.116	42.0
24.131	46.0
24.145	36.0
24.16	45.0
24.175	35.0
24.19	44.0
24.205	31.0
24.22	36.0
24.235	34.0
24.249	26.0
24.264	30.0
24.279	26.0
24.294	20.0
24.309	19.0
24.324	11.0
24.338	11.0
24.353	21.0
24.368	16.0
24.383	16.0
24.398	13.0
24.413	12.0
24.428	14.0
24.442	13.0
24.457	10.0
24.472	11.0
24.487	14.0
24.502	13.0
24.516	16.0
24.531	17.0
24.546	13.0
24.561	10.0
24.576	11.0
24.591	11.0
24.605	8.0
24.62	12.0
24.635	17.0
24.65	8.0
24.665	16.0
24.679	11.0
24.694	12.0
24.709	6.0
24.724	18.0
24.739	12.0
24.753	11.0
24.768	15.0
24.783	8.0
24.798	3.0
24.813	8.0
24.827	12.0
24.842	7.0
24.857	14.0
24.872	10.0
24.886	9.0
24.901	8.0
24.916	6.0
24.931	8.0
24.946	13.0
24.96	10.0
24.975	11.0
24.99	16.0
25.005	17.0
25.019	7.0
25.034	11.0
25.049	8.0
25.064	17.0
25.078	8.0
25.093	12.0
25.108	13.0
25.123	11.0
25.138	10.0
25.152	12.0
25.167	9.0
25.182	13.0
25.197	9.0
25.211	13.0
25.226	14.0
25.241	12.0
25.256	10.0
25.27	11.0
25.285	11.0
25.3	12.0
25.315	9.0
25.329	9.0
25.344	14.0
25.359	8.0
25.374	5.0
25.388	12.0
25.403	10.0
25.418	8.0
25.433	6.0
25.447	11.0
25.462	10.0
25.477	19.0
25.492	8.0
25.506	10.0
25.521	16.0
25.536	10.0
25.55	12.0
25.565	7.0
25.58	16.0
25.595	7.0
25.609	18.0
25.624	9.0
25.639	10.0
25.654	13.0
25.668	11.0
25.683	12.0
25.698	6.0
25.713	9.0
25.727	11.0
25.742	7.0
25.757	9.0
25.772	11.0
25.786	8.0
25.801	8.0
25.816	13.0
25.83	8.0
25.845	11.0
25.86	10.0
25.875	11.0
25.889	5.0
25.904	9.0
25.919	10.0
25.934	5.0
25.948	7.0
25.963	5.0
25.978	14.0
25.992	11.0
26.007	11.0
26.022	12.0
26.037	9.0
26.051	10.0
26.066	14.0
26.081	6.0
26.096	8.0
26.11	15.0
26.125	5.0
26.14	10.0
26.155	10.0
26.169	3.0
26.184	19.0
26.199	4.0
26.213	10.0
26.228	14.0
26.243	12.0
26.258	7.0
26.272	9.0
26.287	8.0
26.302	10.0
26.317	9.0
26.331	9.0
26.346	12.0
26.361	13.0
26.376	9.0
26.39	19.0
26.405	11.0
26.42	8.0
26.434	8.0
26.449	11.0
26.464	10.0
26.479	12.0
26.493	11.0
26.508	6.0
26.523	14.0
26.538	9.0
26.552	13.0
26.567	9.0
26.582	5.0
26.597	8.0
26.611	10.0
26.626	10.0
26.641	7.0
26.656	5.0
26.67	14.0
26.685	8.0
26.7	10.0
26.715	7.0
26.729	8.0
26.744	11.0
26.759	7.0
26.773	10.0
26.788	15.0
26.803	10.0
26.818	18.0
26.832	7.0
26.847	14.0
26.862	9.0
26.877	6.0
26.891	10.0
26.906	11.0
26.921	13.0
26.936	9.0
26.95	7.0
26.965	13.0
26.98	8.0
26.995	9.0
27.01	13.0
27.024	4.0
27.039	9.0
27.054	9.0
27.069	7.0
27.083	10.0
27.098	9.0
27.113	7.0
27.128	3.0
27.142	10.0
27.157	7.0
27.172	10.0
27.187	9.0
27.201	9.0
27.216	10.0
27.231	8.0
27.246	11.0
27.261	10.0
27.275	8.0
27.29	7.0
27.305	4.0
27.32	13.0
27.334	11.0
27.349	8.0
27.364	8.0
27.379	11.0
27.394	10.0
27.408	10.0
27.423	6.0
27.438	11.0
27.453	5.0
27.467	12.0
27.482	11.0
27.497	13.0
27.512	8.0
27.527	10.0
27.541	8.0
27.556	10.0
27.571	11.0
27.586	11.0
27.601	11.0
27.615	12.0
27.63	9.0
27.645	11.0
27.66	14.0
27.675	12.0
27.689	7.0
27.704	15.0
27.719	15.0
27.734	16.0
27.749	16.0
27.763	12.0
27.778	20.0
27.793	14.0
27.808	17.0
27.823	26.0
27.838	28.0
27.852	23.0
27.867	30.0
27.882	20.0
27.897	23.0
27.912	28.0
27.926	24.0
27.941	13.0
27.956	17.0
27.971	19.0
27.986	14.0
28.001	13.0
28.015	21.0
28.03	19.0
28.045	22.0
28.06	19.0
28.075	12.0
28.09	15.0
28.105	7.0
28.119	19.0
28.134	12.0
28.149	7.0
28.164	8.0
28.179	18.0
28.194	8.0
28.208	9.0
28.223	8.0
28.238	9.0
28.253	11.0
28.268	16.0
28.283	16.0
28.298	6.0
28.312	15.0
28.327	6.0
28.342	9.0
28.357	9.0
28.372	11.0
28.387	9.0
28.402	13.0
28.417	13.0
28.431	13.0
28.446	5.0
28.461	11.0
28.476	14.0
28.491	8.0
28.506	10.0
28.521	15.0
28.536	13.0
28.55	8.0
28.565	8.0
28.58	14.0
28.595	18.0
28.61	17.0
28.625	7.0
28.64	8.0
28.655	11.0
28.669	12.0
28.684	8.0
28.699	11.0
28.714	10.0
28.729	17.0
28.744	11.0
28.759	8.0
28.774	6.0
28.788	10.0
28.803	12.0
28.818	7.0
28.833	16.0
28.848	8.0
28.863	15.0
28.878	15.0
28.893	7.0
28.908	11.0
28.922	12.0
28.937	10.0
28.952	13.0
28.967	12.0
28.982	6.0
28.997	9.0
29.012	6.0
29.027	13.0
29.041	11.0
29.056	10.0
29.071	11.0
29.086	9.0
29.101	14.0
29.116	11.0
29.131	12.0
29.146	13.0
29.16	13.0
29.175	8.0
29.19	11.0
29.205	13.0
29.22	7.0
29.235	7.0
29.25	7.0
29.265	13.0
29.279	11.0
29.294	10.0
29.309	9.0
29.324	12.0
29.339	14.0
29.354	16.0
29.369	17.0
29.384	16.0
29.398	19.0
29.413	15.0
29.428	19.0
29.443	21.0
29.458	25.0
29.473	18.0
29.488	25.0
29.502	40.0
29.517	32.0
29.532	28.0
29.547	34.0
29.562	47.0
29.577	42.0
29.592	48.0
29.606	43.0
29.621	58.0
29.636	45.0
29.651	59.0
29.666	39.0
29.681	37.0
29.695	33.0
29.71	42.0
29.725	46.0
29.74	26.0
29.755	32.0
29.77	37.0
29.784	31.0
29.799	37.0
29.814	31.0
29.829	33.0
29.844	15.0
29.859	15.0
29.873	23.0
29.888	14.0
29.903	16.0
29.918	16.0
29.933	11.0
29.947	10.0
29.962	15.0
29.977	13.0
29.992	15.0
30.007	11.0
30.021	10.0
30.036	11.0
30.051	11.0
30.066	9.0
30.081	18.0
30.095	16.0
30.11	9.0
30.125	10.0
30.14	18.0
30.155	12.0
30.169	16.0
30.184	9.0
30.199	5.0
30.214	11.0
30.228	8.0
30.243	6.0
30.258	15.0
30.273	11.0
30.288	9.0
30.302	7.0
30.317	7.0
30.332	14.0
30.347	15.0
30.361	16.0
30.376	11.0
30.391	10.0
30.406	8.0
30.42	9.0
30.435	9.0
30.45	14.0
30.465	13.0
30.479	11.0
30.494	6.0
30.509	6.0
30.524	8.0
30.538	12.0
30.553	12.0
30.568	20.0
30.583	12.0
30.597	13.0
30.612	15.0
30.627	12.0
30.641	5.0
30.656	8.0
30.671	8.0
30.686	13.0
30.7	9.0
30.715	9.0
30.73	16.0
30.745	14.0
30.759	9.0
30.774	14.0
30.789	18.0
30.803	10.0
30.818	8.0
30.833	11.0
30.848	10.0
30.862	9.0
30.877	7.0
30.892	9.0
30.906	10.0
30.921	9.0
30.936	7.0
30.951	7.0
30.965	16.0
30.98	11.0
30.995	10.0
31.009	9.0
31.024	19.0
31.039	14.0
31.053	13.0
31.068	13.0
31.083	13.0
31.098	15.0
31.112	17.0
31.127	19.0
31.142	25.0
31.156	32.0
31.171	22.0
31.186	33.0
31.2	40.0
31.215	40.0
31.23	40.0
31.245	33.0
31.259	42.0
31.274	38.0
31.289	50.0
31.303	40.0
31.318	35.0
31.333	31.0
31.347	34.0
31.362	27.0
31.377	23.0
31.392	23.0
31.406	25.0
31.421	23.0
31.436	27.0
31.45	29.0
31.465	18.0
31.48	26.0
31.494	23.0
31.509	22.0
31.524	22.0
31.538	22.0
31.553	16.0
31.568	7.0
31.583	14.0
31.597	14.0
31.612	14.0
31.627	6.0
31.641	14.0
31.656	13.0
31.671	11.0
31.685	10.0
31.7	16.0
31.715	7.0
31.729	13.0
31.744	10.0
31.759	12.0
31.774	17.0
31.788	8.0
31.803	7.0
31.818	12.0
31.832	6.0
31.847	10.0
31.862	7.0
31.876	8.0
31.891	10.0
31.906	7.0
31.92	8.0
31.935	9.0
31.95	8.0
31.965	10.0
31.979	7.0
31.994	5.0
32.009	7.0
32.023	9.0
32.038	15.0
32.053	7.0
32.067	11.0
32.082	10.0
32.097	11.0
32.112	9.0
32.126	8.0
32.141	10.0
32.156	8.0
32.17	11.0
32.185	10.0
32.2	16.0
32.214	12.0
32.229	8.0
32.244	6.0
32.259	14.0
32.273	5.0
32.288	7.0
32.303	5.0
32.317	14.0
32.332	7.0
32.347	8.0
32.362	10.0
32.376	7.0
32.391	9.0
32.406	13.0
32.42	6.0
32.435	13.0
32.45	15.0
32.465	6.0
32.479	13.0
32.494	11.0
32.509	8.0
32.523	10.0
32.538	13.0
32.553	14.0
32.568	5.0
32.582	8.0
32.597	8.0
32.612	13.0
32.627	18.0
32.641	14.0
32.656	12.0
32.671	18.0
32.685	21.0
32.7	13.0
32.715	24.0
32.73	22.0
32.744	23.0
32.759	27.0
32.774	24.0
32.788	21.0
32.803	18.0
32.818	20.0
32.833	33.0
32.847	30.0
32.862	16.0
32.877	24.0
32.892	22.0
32.906	17.0
32.921	16.0
32.936	15.0
32.951	19.0
32.965	19.0
32.98	18.0
32.995	14.0
33.009	19.0
33.024	12.0
33.039	13.0
33.054	23.0
33.068	15.0
33.083	17.0
33.098	9.0
33.113	13.0
33.127	13.0
33.142	15.0
33.157	11.0
33.172	11.0
33.186	12.0
33.201	11.0
33.216	12.0
33.231	11.0
33.245	8.0
33.26	7.0
33.275	13.0
33.29	8.0
33.304	11.0
33.319	13.0
33.334	7.0
33.349	5.0
33.363	5.0
33.378	13.0
33.393	8.0
33.408	10.0
33.422	4.0
33.437	18.0
33.452	6.0
33.467	2.0
33.481	16.0
33.496	11.0
33.511	8.0
33.526	9.0
33.54	14.0
33.555	17.0
33.57	9.0
33.585	10.0
33.599	10.0
33.614	8.0
33.629	5.0
33.644	14.0
33.658	11.0
33.673	6.0
33.688	7.0
33.703	11.0
33.718	5.0
33.732	11.0
33.747	7.0
33.762	12.0
33.777	8.0
33.791	11.0
33.806	9.0
33.821	10.0
33.836	8.0
33.85	8.0
33.865	11.0
33.88	8.0
33.895	11.0
33.91	13.0
33.924	10.0
33.939	14.0
33.954	9.0
33.969	9.0
33.983	12.0
33.998	8.0
34.013	9.0
34.028	15.0
34.042	5.0
34.057	8.0
34.072	10.0
34.087	14.0
34.102	8.0
34.116	15.0
34.131	10.0
34.146	7.0
34.161	13.0
34.175	17.0
34.19	12.0
34.205	21.0
34.22	9.0
34.235	12.0
34.249	3.0
34.264	14.0
34.279	9.0
34.294	18.0
34.309	12.0
34.323	23.0
34.338	19.0
34.353	18.0
34.368	16.0
34.382	12.0
34.397	10.0
34.412	16.0
34.427	15.0
34.442	12.0
34.456	9.0
34.471	14.0
34.486	12.0
34.501	13.0
34.516	16.0
34.53	6.0
34.545	14.0
34.56	11.0
34.575	13.0
34.59	8.0
34.604	7.0
34.619	12.0
34.634	9.0
34.649	7.0
34.664	4.0
34.678	10.0
34.693	7.0
34.708	16.0
34.723	7.0
34.738	12.0
34.752	6.0
34.767	5.0
34.782	11.0
34.797	6.0
34.812	13.0
34.826	7.0
34.841	11.0
34.856	10.0
34.871	10.0
34.886	9.0
34.9	13.0
34.915	8.0
34.93	10.0
34.945	8.0
34.96	10.0
34.974	11.0
34.989	12.0
35.004	6.0
35.019	7.0
35.034	9.0
35.048	11.0
35.063	12.0
35.078	10.0
35.093	10.0
35.108	10.0
35.122	7.0
35.137	5.0
35.152	7.0
35.167	9.0
35.182	9.0
35.196	7.0
35.211	9.0
35.226	7.0
35.241	3.0
35.256	13.0
35.27	12.0
35.285	6.0
35.3	8.0
35.315	5.0
35.33	5.0
35.344	12.0
35.359	11.0
35.374	9.0
35.389	7.0
35.404	4.0
35.418	8.0
35.433	9.0
35.448	7.0
35.463	12.0
35.478	9.0
35.493	9.0
35.507	6.0
35.522	9.0
35.537	10.0
35.552	15.0
35.567	6.0
35.581	12.0
35.596	7.0
35.611	10.0
35.626	19.0
35.641	9.0
35.655	12.0
35.67	12.0
35.685	14.0
35.7	19.0
35.715	15.0
35.729	18.0
35.744	15.0
35.759	18.0
35.774	23.0
35.789	12.0
35.804	19.0
35.818	18.0
35.833	25.0
35.848	12.0
35.863	16.0
35.878	15.0
35.892	15.0
35.907	14.0
35.922	15.0
35.937	15.0
35.952	13.0
35.966	11.0
35.981	17.0
35.996	16.0
36.011	20.0
36.026	10.0
36.04	12.0
36.055	15.0
36.07	7.0
36.085	6.0
36.1	9.0
36.114	15.0
36.129	11.0
36.144	7.0
36.159	5.0
36.174	9.0
36.189	10.0
36.203	9.0
36.218	8.0
36.233	10.0
36.248	5.0
36.263	6.0
36.277	4.0
36.292	8.0
36.307	4.0
36.322	12.0
36.337	14.0
36.351	9.0
36.366	11.0
36.381	7.0
36.396	10.0
36.411	13.0
36.426	10.0
36.44	12.0
36.455	13.0
36.47	10.0
36.485	5.0
36.5	7.0
36.514	7.0
36.529	8.0
36.544	7.0
36.559	10.0
36.574	8.0
36.589	11.0
36.603	9.0
36.618	10.0
36.633	8.0
36.648	8.0
36.663	8.0
36.677	8.0
36.692	11.0
36.707	10.0
36.722	9.0
36.737	6.0
36.752	12.0
36.766	7.0
36.781	11.0
36.796	8.0
36.811	9.0
36.826	12.0
36.841	11.0
36.855	9.0
36.87	3.0
36.885	9.0
36.9	12.0
36.915	6.0
36.93	8.0
36.944	12.0
36.959	6.0
36.974	4.0
36.989	12.0
37.004	16.0
37.019	13.0
37.033	12.0
37.048	13.0
37.063	20.0
37.078	21.0
37.093	21.0
37.108	27.0
37.123	20.0
37.137	29.0
37.152	29.0
37.167	25.0
37.182	29.0
37.197	25.0
37.212	37.0
37.226	28.0
37.241	27.0
37.256	25.0
37.271	21.0
37.286	19.0
37.301	16.0
37.316	19.0
37.331	24.0
37.345	16.0
37.36	29.0
37.375	16.0
37.39	20.0
37.405	21.0
37.42	12.0
37.435	20.0
37.45	17.0
37.464	15.0
37.479	11.0
37.494	12.0
37.509	17.0
37.524	11.0
37.539	15.0
37.554	6.0
37.569	5.0
37.583	4.0
37.598	10.0
37.613	11.0
37.628	8.0
37.643	3.0
37.658	3.0
37.673	13.0
37.688	7.0
37.703	5.0
37.718	7.0
37.733	5.0
37.747	6.0
37.762	8.0
37.777	9.0
37.792	9.0
37.807	6.0
37.822	8.0
37.837	8.0
37.852	4.0
37.867	11.0
37.882	7.0
37.897	6.0
37.912	7.0
37.927	6.0
37.941	6.0
37.956	7.0
37.971	8.0
37.986	4.0
38.001	8.0
38.016	11.0
38.031	5.0
38.046	6.0
38.061	6.0
38.076	5.0
38.091	4.0
38.106	6.0
38.121	6.0
38.136	8.0
38.151	8.0
38.166	6.0
38.181	14.0
38.196	12.0
38.211	8.0
38.226	8.0
38.241	5.0
38.256	7.0
38.271	3.0
38.285	3.0
38.3	4.0
38.315	7.0
38.33	9.0
38.345	6.0
38.36	2.0
38.375	10.0
38.39	12.0
38.405	3.0
38.42	8.0
38.435	5.0
38.45	4.0
38.465	7.0
38.48	8.0
38.495	6.0
38.51	6.0
38.525	6.0
38.54	7.0
38.555	6.0
38.57	12.0
38.585	5.0
38.6	10.0
38.615	6.0
38.63	4.0
38.645	3.0
38.66	3.0
38.675	3.0
38.69	2.0
38.705	6.0
38.72	4.0
38.735	2.0
38.75	9.0
38.765	7.0
38.78	7.0
38.795	5.0
38.81	5.0
38.825	15.0
38.84	2.0
38.855	9.0
38.87	5.0
38.885	6.0
38.9	6.0
38.915	4.0
38.93	8.0
38.945	8.0
38.96	10.0
38.975	5.0
38.99	10.0
39.005	6.0
39.02	7.0
39.035	6.0
39.05	10.0
39.065	5.0
39.08	8.0
39.095	7.0
39.11	6.0
39.125	3.0
39.14	6.0
39.155	6.0
39.17	7.0
39.185	7.0
39.2	4.0
39.215	0.0
39.23	5.0
39.245	5.0
39.26	8.0
39.275	6.0
39.29	9.0
39.305	7.0
39.32	11.0
39.335	7.0
39.35	7.0
39.365	6.0
39.38	10.0
39.395	7.0
39.409	7.0
39.424	10.0
39.439	8.0
39.454	6.0
39.469	5.0
39.484	8.0
39.499	2.0
39.514	4.0
39.529	3.0
39.544	6.0
39.559	5.0
39.574	10.0
39.589	3.0
39.604	7.0
39.619	7.0
39.634	5.0
39.649	6.0
39.664	4.0
39.678	8.0
39.693	3.0
39.708	12.0
39.723	5.0
39.738	5.0
39.753	5.0
39.768	8.0
39.783	12.0
39.798	11.0
39.813	7.0
39.827	13.0
39.842	8.0
39.857	11.0
39.872	10.0
39.887	10.0
39.902	9.0
39.917	9.0
39.932	9.0
39.947	6.0
39.961	9.0
39.976	5.0
39.991	5.0
40.006	14.0
40.021	7.0
40.036	6.0
40.051	12.0
40.065	11.0
40.08	6.0
40.095	10.0
40.11	7.0
40.125	13.0
40.14	6.0
40.154	9.0
40.169	10.0
40.184	4.0
40.199	11.0
40.214	6.0
40.228	8.0
40.243	3.0
40.258	4.0
40.273	5.0
40.288	5.0
40.302	4.0
40.317	6.0
40.332	3.0
40.347	7.0
40.362	2.0
40.376	6.0
40.391	5.0
40.406	6.0
40.421	5.0
40.436	10.0
40.45	5.0
40.465	2.0
40.48	11.0
40.495	6.0
40.509	8.0
40.524	11.0
40.539	4.0
40.554	6.0
40.568	11.0
40.583	10.0
40.598	5.0
40.613	4.0
40.627	5.0
40.642	6.0
40.657	7.0
40.672	6.0
40.686	2.0
40.701	8.0
40.716	11.0
40.731	7.0
40.745	4.0
40.76	7.0
40.775	4.0
40.79	3.0
40.804	3.0
40.819	4.0
40.834	9.0
40.849	2.0
40.863	4.0
40.878	8.0
40.893	7.0
40.907	7.0
40.922	7.0
40.937	6.0
40.952	6.0
40.966	12.0
40.981	9.0
40.996	9.0
41.011	10.0
41.025	8.0
41.04	9.0
41.055	12.0
41.069	15.0
41.084	19.0
41.099	20.0
41.114	15.0
41.128	18.0
41.143	21.0
41.158	21.0
41.173	14.0
41.187	20.0
41.202	22.0
41.217	17.0
41.231	8.0
41.246	15.0
41.261	13.0
41.276	16.0
41.29	8.0
41.305	11.0
41.32	12.0
41.335	22.0
41.349	16.0
41.364	15.0
41.379	17.0
41.393	17.0
41.408	9.0
41.423	12.0
41.438	16.0
41.452	6.0
41.467	11.0
41.482	11.0
41.497	6.0
41.511	7.0
41.526	8.0
41.541	9.0
41.556	8.0
41.57	8.0
41.585	4.0
41.6	7.0
41.615	2.0
41.629	2.0
41.644	6.0
41.659	8.0
41.674	2.0
41.688	8.0
41.703	6.0
41.718	5.0
41.733	6.0
41.747	2.0
41.762	4.0
41.777	4.0
41.792	3.0
41.806	5.0
41.821	9.0
41.836	7.0
41.851	6.0
41.866	6.0
41.88	7.0
41.895	4.0
41.91	2.0
41.925	4.0
41.939	5.0
41.954	5.0
41.969	7.0
41.984	7.0
41.999	6.0
42.013	11.0
42.028	5.0
42.043	7.0
42.058	7.0
42.073	3.0
42.088	4.0
42.102	9.0
42.117	4.0
42.132	9.0
42.147	2.0
42.162	8.0
42.176	8.0
42.191	5.0
42.206	8.0
42.221	8.0
42.236	6.0
42.251	7.0
42.266	7.0
42.28	8.0
42.295	7.0
42.31	19.0
42.325	10.0
42.34	13.0
42.355	9.0
42.369	16.0
42.384	17.0
42.399	20.0
42.414	24.0
42.429	20.0
42.444	8.0
42.459	9.0
42.474	22.0
42.488	8.0
42.503	8.0
42.518	10.0
42.533	11.0
42.548	5.0
42.563	7.0
42.578	3.0
42.593	17.0
42.608	11.0
42.622	11.0
42.637	20.0
42.652	11.0
42.667	9.0
42.682	17.0
42.697	8.0
42.712	7.0
42.727	11.0
42.742	7.0
42.757	7.0
42.772	8.0
42.786	6.0
42.801	2.0
42.816	1.0
42.831	5.0
42.846	5.0
42.861	6.0
42.876	7.0
42.891	9.0
42.906	8.0
42.921	8.0
42.936	7.0
42.951	7.0
42.966	4.0
42.981	8.0
42.996	8.0
43.011	5.0
43.025	3.0
43.04	7.0
43.055	6.0
43.07	8.0
43.085	4.0
43.1	4.0
43.115	6.0
43.13	5.0
43.145	6.0
43.16	7.0
43.175	10.0
43.19	6.0
43.205	6.0
43.22	3.0
43.235	4.0
43.25	4.0
43.265	5.0
43.28	5.0
43.295	5.0
43.31	4.0
43.325	8.0
43.34	6.0
43.355	8.0
43.37	5.0
43.385	3.0
43.4	11.0
43.415	5.0
43.43	7.0
43.445	4.0
43.46	5.0
43.475	8.0
43.49	11.0
43.505	9.0
43.52	3.0
43.535	11.0
43.55	11.0
43.565	10.0
43.58	13.0
43.595	7.0
43.61	5.0
43.625	11.0
43.64	9.0
43.655	9.0
43.67	8.0
43.685	10.0
43.7	10.0
43.715	5.0
43.73	14.0
43.745	3.0
43.76	4.0
43.775	8.0
43.79	5.0
43.805	6.0
43.82	4.0
43.835	9.0
43.85	8.0
43.865	4.0
43.88	8.0
43.895	10.0
43.91	9.0
43.925	8.0
43.94	5.0
43.955	6.0
43.97	3.0
43.985	7.0
44.0	7.0
44.015	6.0
44.03	7.0
44.045	6.0
44.061	3.0
44.076	4.0
44.091	4.0
44.106	5.0
44.121	5.0
44.136	3.0
44.151	4.0
44.166	5.0
44.181	3.0
44.196	8.0
44.211	5.0
44.226	4.0
44.241	5.0
44.256	1.0
44.271	4.0
44.286	6.0
44.301	4.0
44.316	7.0
44.331	14.0
44.346	6.0
44.361	7.0
44.377	7.0
44.392	6.0
44.407	6.0
44.422	4.0
44.437	6.0
44.452	9.0
44.467	8.0
44.482	6.0
44.497	2.0
44.512	7.0
44.527	7.0
44.542	8.0
44.557	3.0
44.572	6.0
44.587	7.0
44.602	6.0
44.617	3.0
44.632	5.0
44.647	9.0
44.663	3.0
44.678	6.0
44.693	7.0
44.708	6.0
44.723	14.0
44.738	9.0
44.753	15.0
44.768	11.0
44.783	10.0
44.798	15.0
44.813	9.0
44.828	14.0
44.843	9.0
44.858	13.0
44.873	9.0
44.888	5.0
44.903	6.0
44.918	8.0
44.933	8.0
44.948	2.0
44.964	8.0
44.979	2.0
44.994	8.0
45.009	10.0
45.024	10.0
45.039	8.0
45.054	6.0
45.069	5.0
45.084	4.0
45.099	12.0
45.114	11.0
45.129	4.0
45.144	9.0
45.159	8.0
45.174	5.0
45.189	7.0
45.204	3.0
45.219	4.0
45.234	3.0
45.249	4.0
45.264	5.0
45.279	9.0
45.294	5.0
45.309	5.0
45.324	7.0
45.339	4.0
45.354	5.0
45.369	7.0
45.384	3.0
45.399	6.0
45.414	5.0
45.429	2.0
45.444	5.0
45.459	4.0
45.474	7.0
45.489	8.0
45.504	4.0
45.519	5.0
45.534	8.0
45.549	3.0
45.564	5.0
45.579	12.0
45.594	6.0
45.609	8.0
45.624	9.0
45.639	6.0
45.654	4.0
45.669	5.0
45.684	6.0
45.699	4.0
45.714	5.0
45.729	6.0
45.744	14.0
45.759	3.0
45.774	7.0
45.789	6.0
45.804	9.0
45.819	6.0
45.834	6.0
45.849	9.0
45.864	9.0
45.879	13.0
45.894	13.0
45.909	11.0
45.924	17.0
45.939	9.0
45.954	19.0
45.969	13.0
45.984	15.0
45.998	14.0
46.013	18.0
46.028	10.0
46.043	14.0
46.058	13.0
46.073	15.0
46.088	10.0
46.103	6.0
46.118	7.0
46.133	8.0
46.148	9.0
46.163	6.0
46.178	7.0
46.192	8.0
46.207	6.0
46.222	8.0
46.237	8.0
46.252	16.0
46.267	13.0
46.282	8.0
46.297	15.0
46.312	10.0
46.327	5.0
46.341	12.0
46.356	11.0
46.371	10.0
46.386	8.0
46.401	5.0
46.416	4.0
46.431	5.0
46.446	3.0
46.46	4.0
46.475	5.0
46.49	4.0
46.505	3.0
46.52	6.0
46.535	6.0
46.55	2.0
46.564	1.0
46.579	3.0
46.594	7.0
46.609	3.0
46.624	8.0
46.639	5.0
46.654	8.0
46.668	4.0
46.683	6.0
46.698	5.0
46.713	5.0
46.728	5.0
46.743	6.0
46.758	6.0
46.772	11.0
46.787	2.0
46.802	3.0
46.817	4.0
46.832	5.0
46.847	7.0
46.861	5.0
46.876	8.0
46.891	6.0
46.906	10.0
46.921	6.0
46.936	5.0
46.95	4.0
46.965	8.0
46.98	6.0
46.995	9.0
47.01	8.0
47.025	5.0
47.039	5.0
47.054	3.0
47.069	6.0
47.084	11.0
47.099	12.0
47.113	10.0
47.128	16.0
47.143	4.0
47.158	8.0
47.173	10.0
47.188	6.0
47.202	11.0
47.217	4.0
47.232	3.0
47.247	8.0
47.262	2.0
47.277	5.0
47.291	7.0
47.306	9.0
47.321	9.0
47.336	6.0
47.351	5.0
47.365	10.0
47.38	4.0
47.395	5.0
47.41	7.0
47.425	8.0
47.44	8.0
47.454	5.0
47.469	12.0
47.484	11.0
47.499	3.0
47.514	4.0
47.528	8.0
47.543	6.0
47.558	7.0
47.573	7.0
47.588	5.0
47.603	6.0
47.617	5.0
47.632	2.0
47.647	5.0
47.662	9.0
47.677	4.0
47.691	4.0
47.706	6.0
47.721	8.0
47.736	6.0
47.751	2.0
47.766	4.0
47.78	6.0
47.795	3.0
47.81	3.0
47.825	4.0
47.84	6.0
47.855	4.0
47.869	4.0
47.884	3.0
47.899	3.0
47.914	2.0
47.929	4.0
47.944	3.0
47.958	1.0
47.973	2.0
47.988	3.0
48.003	9.0
48.018	6.0
48.033	4.0
48.047	10.0
48.062	10.0
48.077	6.0
48.092	10.0
48.107	5.0
48.122	3.0
48.137	3.0
48.151	2.0
48.166	3.0
48.181	3.0
48.196	8.0
48.211	7.0
48.226	1.0
48.241	4.0
48.255	8.0
48.27	4.0
48.285	4.0
48.3	4.0
48.315	4.0
48.33	2.0
48.345	6.0
48.359	9.0
48.374	4.0
48.389	4.0
48.404	7.0
48.419	4.0
48.434	5.0
48.449	4.0
48.464	3.0
48.478	6.0
48.493	3.0
48.508	6.0
48.523	3.0
48.538	6.0
48.553	3.0
48.568	4.0
48.583	6.0
48.597	3.0
48.612	9.0
48.627	3.0
48.642	6.0
48.657	5.0
48.672	5.0
48.687	8.0
48.702	2.0
48.717	4.0
48.731	5.0
48.746	3.0
48.761	1.0
48.776	1.0
48.791	6.0
48.806	2.0
48.821	9.0
48.836	4.0
48.851	4.0
48.866	7.0
48.88	3.0
48.895	3.0
48.91	6.0
48.925	6.0
48.94	6.0
48.955	5.0
48.97	7.0
48.985	1.0
49.0	2.0
49.015	4.0
49.03	4.0
49.044	5.0
49.059	5.0
49.074	6.0
49.089	5.0
49.104	9.0
49.119	6.0
49.134	6.0
49.149	2.0
49.164	3.0
49.179	5.0
49.194	3.0
49.209	4.0
49.224	6.0
49.238	5.0
49.253	8.0
49.268	3.0
49.283	14.0
49.298	2.0
49.313	8.0
49.328	9.0
49.343	9.0
49.358	4.0
49.373	9.0
49.388	5.0
49.403	12.0
49.418	5.0
49.433	7.0
49.448	1.0
49.463	12.0
49.478	1.0
49.492	6.0
49.507	4.0
49.522	5.0
49.537	5.0
49.552	2.0
49.567	5.0
49.582	7.0
49.597	10.0
49.612	6.0
49.627	5.0
49.642	6.0
49.657	3.0
49.672	7.0
49.687	8.0
49.702	7.0
49.717	9.0
49.732	9.0
49.747	7.0
49.762	2.0
49.777	9.0
49.792	3.0
49.807	9.0
49.822	7.0
49.837	11.0
49.852	4.0
49.867	6.0
49.882	6.0
49.897	6.0
49.912	6.0
49.927	1.0
49.942	5.0
49.957	5.0
49.971	3.0
49.986	2.0
50.001	4.0
50.016	5.0
50.031	4.0
50.046	8.0
50.061	4.0
50.076	11.0
50.091	3.0
50.106	7.0
50.121	4.0
50.136	4.0
50.151	7.0
50.166	3.0
50.181	6.0
50.196	5.0
50.211	3.0
50.226	9.0
50.241	7.0
50.256	5.0
50.271	4.0
50.286	4.0
50.302	7.0
50.317	9.0
50.332	6.0
50.347	6.0
50.362	7.0
50.377	5.0
50.392	4.0
50.407	11.0
50.422	7.0
50.437	8.0
50.452	4.0
50.467	6.0
50.482	5.0
50.497	5.0
50.512	4.0
50.527	2.0
50.542	5.0
50.557	3.0
50.572	5.0
50.587	6.0
50.602	5.0
50.617	3.0
50.632	6.0
50.647	7.0
50.662	7.0
50.677	11.0
50.692	4.0
50.707	5.0
50.722	7.0
50.737	6.0
50.752	11.0
50.767	9.0
50.782	6.0
50.797	8.0
50.812	5.0
50.828	7.0
50.843	3.0
50.858	5.0
50.873	1.0
50.888	5.0
50.903	4.0
50.918	7.0
50.933	5.0
50.948	6.0
50.963	5.0
50.978	4.0
50.993	12.0
51.008	9.0
51.023	8.0
51.038	3.0
51.053	4.0
51.068	5.0
51.083	4.0
51.098	7.0
51.114	2.0
51.129	6.0
51.144	1.0
51.159	9.0
51.174	3.0
51.189	8.0
51.204	4.0
51.219	4.0
51.234	2.0
51.249	6.0
51.264	8.0
51.279	3.0
51.294	6.0
51.309	6.0
51.324	5.0
51.34	2.0
51.355	8.0
51.37	3.0
51.385	9.0
51.4	8.0
51.415	6.0
51.43	9.0
51.445	5.0
51.46	17.0
51.475	18.0
51.49	14.0
51.505	18.0
51.52	21.0
51.535	21.0
51.551	23.0
51.566	15.0
51.581	15.0
51.596	17.0
51.611	7.0
51.626	8.0
51.641	3.0
51.656	6.0
51.671	11.0
51.686	8.0
51.701	3.0
51.716	9.0
51.732	5.0
51.747	12.0
51.762	11.0
51.777	11.0
51.792	6.0
51.807	10.0
51.822	11.0
51.837	9.0
51.852	13.0
51.867	10.0
51.882	5.0
51.898	7.0
51.913	9.0
51.928	7.0
51.943	11.0
51.958	8.0
51.973	8.0
51.988	6.0
52.003	9.0
52.018	4.0
52.033	5.0
52.048	3.0
52.064	2.0
52.079	2.0
52.094	6.0
52.109	3.0
52.124	5.0
52.139	7.0
52.154	5.0
52.169	4.0
52.184	6.0
52.199	4.0
52.215	2.0
52.23	6.0
52.245	6.0
52.26	5.0
52.275	5.0
52.29	6.0
52.305	3.0
52.32	9.0
52.335	5.0
52.35	4.0
52.366	5.0
52.381	8.0
52.396	3.0
52.411	5.0
52.426	4.0
52.441	5.0
52.456	4.0
52.471	8.0
52.486	5.0
52.502	6.0
52.517	5.0
52.532	5.0
52.547	10.0
52.562	9.0
52.577	9.0
52.592	15.0
52.607	10.0
52.622	4.0
52.637	11.0
52.653	4.0
52.668	8.0
52.683	7.0
52.698	13.0
52.713	7.0
52.728	8.0
52.743	5.0
52.758	7.0
52.774	7.0
52.789	4.0
52.804	7.0
52.819	5.0
52.834	5.0
52.849	9.0
52.864	8.0
52.879	7.0
52.894	7.0
52.91	13.0
52.925	5.0
52.94	10.0
52.955	3.0
52.97	6.0
52.985	9.0
53.0	5.0
53.015	7.0
53.031	10.0
53.046	1.0
53.061	4.0
53.076	2.0
53.091	8.0
53.106	6.0
53.121	4.0
53.136	7.0
53.152	5.0
53.167	6.0
53.182	6.0
53.197	3.0
53.212	2.0
53.227	3.0
53.242	7.0
53.257	2.0
53.273	4.0
53.288	2.0
53.303	5.0
53.318	3.0
53.333	5.0
53.348	3.0
53.363	6.0
53.379	3.0
53.394	4.0
53.409	6.0
53.424	7.0
53.439	8.0
53.454	3.0
53.469	7.0
53.484	6.0
53.5	3.0
53.515	11.0
53.53	1.0
53.545	3.0
53.56	4.0
53.575	2.0
53.59	2.0
53.606	7.0
53.621	7.0
53.636	2.0
53.651	10.0
53.666	5.0
53.681	5.0
53.696	9.0
53.712	4.0
53.727	5.0
53.742	2.0
53.757	2.0
53.772	4.0
53.787	9.0
53.802	9.0
53.818	6.0
53.833	2.0
53.848	4.0
53.863	4.0
53.878	6.0
53.893	10.0
53.909	1.0
53.924	2.0
53.939	4.0
53.954	3.0
53.969	3.0
53.984	6.0
53.999	7.0
54.015	3.0
54.03	2.0
54.045	5.0
54.06	6.0
54.075	5.0
54.09	4.0
54.106	9.0
54.121	3.0
54.136	0.0
54.151	7.0
54.166	6.0
54.181	2.0
54.197	6.0
54.212	5.0
54.227	7.0
54.242	5.0
54.257	2.0
54.272	5.0
54.288	2.0
54.303	4.0
54.318	6.0
54.333	2.0
54.348	7.0
54.363	4.0
54.379	1.0
54.394	4.0
54.409	4.0
54.424	7.0
54.439	2.0
54.454	8.0
54.47	5.0
54.485	6.0
54.5	10.0
54.515	4.0
54.53	6.0
54.545	7.0
54.561	10.0
54.576	12.0
54.591	5.0
54.606	10.0
54.621	8.0
54.636	10.0
54.652	4.0
54.667	10.0
54.682	13.0
54.697	13.0
54.712	12.0
54.727	13.0
54.743	9.0
54.758	7.0
54.773	7.0
54.788	4.0
54.803	5.0
54.819	5.0
54.834	4.0
54.849	3.0
54.864	7.0
54.879	12.0
54.894	9.0
54.91	4.0
54.925	4.0
54.94	4.0
54.955	7.0
54.97	6.0
54.985	8.0
55.001	8.0
55.016	10.0
55.031	8.0
55.046	11.0
55.061	11.0
55.077	8.0
55.092	8.0
55.107	4.0
55.122	4.0
55.137	9.0
55.152	2.0
55.168	3.0
55.183	5.0
55.198	6.0
55.213	2.0
55.228	3.0
55.243	2.0
55.259	7.0
55.274	3.0
55.289	5.0
55.304	9.0
55.319	11.0
55.335	9.0
55.35	6.0
55.365	4.0
55.38	3.0
55.395	10.0
55.41	3.0
55.426	3.0
55.441	3.0
55.456	5.0
55.471	2.0
55.486	9.0
55.501	2.0
55.517	8.0
55.532	3.0
55.547	6.0
55.562	5.0
55.577	7.0
55.592	5.0
55.608	3.0
55.623	5.0
55.638	8.0
55.653	10.0
55.668	8.0
55.683	9.0
55.699	8.0
55.714	13.0
55.729	5.0
55.744	6.0
55.759	6.0
55.774	2.0
55.79	2.0
55.805	4.0
55.82	5.0
55.835	7.0
55.85	5.0
55.865	9.0
55.881	5.0
55.896	6.0
55.911	9.0
55.926	5.0
55.941	1.0
55.956	5.0
55.972	7.0
55.987	3.0
56.002	6.0
56.017	8.0
56.032	7.0
56.047	3.0
56.063	6.0
56.078	6.0
56.093	9.0
56.108	5.0
56.123	5.0
56.138	9.0
56.154	5.0
56.169	4.0
56.184	10.0
56.199	4.0
56.214	2.0
56.229	7.0
56.244	5.0
56.26	4.0
56.275	3.0
56.29	5.0
56.305	3.0
56.32	4.0
56.335	3.0
56.351	5.0
56.366	2.0
56.381	5.0
56.396	2.0
56.411	2.0
56.426	0.0
56.441	5.0
56.457	6.0
56.472	2.0
56.487	5.0
56.502	6.0
56.517	4.0
56.532	7.0
56.547	10.0
56.563	6.0
56.578	5.0
56.593	2.0
56.608	1.0
56.623	3.0
56.638	3.0
56.653	3.0
56.668	4.0
56.684	7.0
56.699	2.0
56.714	1.0
56.729	6.0
56.744	2.0
56.759	1.0
56.774	6.0
56.79	7.0
56.805	4.0
56.82	5.0
56.835	4.0
56.85	6.0
56.865	7.0
56.88	3.0
56.895	7.0
56.911	1.0
56.926	3.0
56.941	4.0
56.956	6.0
56.971	4.0
56.986	7.0
57.001	1.0
57.016	1.0
57.031	3.0
57.047	4.0
57.062	8.0
57.077	2.0
57.092	2.0
57.107	1.0
57.122	3.0
57.137	3.0
57.152	2.0
57.167	9.0
57.183	4.0
57.198	3.0
57.213	1.0
57.228	6.0
57.243	8.0
57.258	6.0
57.273	7.0
57.288	3.0
57.303	6.0
57.318	5.0
57.334	3.0
57.349	6.0
57.364	2.0
57.379	4.0
57.394	6.0
57.409	6.0
57.424	4.0
57.439	3.0
57.454	5.0
57.469	4.0
57.484	3.0
57.5	5.0
57.515	5.0
57.53	4.0
57.545	5.0
57.56	2.0
57.575	6.0
57.59	10.0
57.605	6.0
57.62	8.0
57.635	6.0
57.65	3.0
57.665	6.0
57.68	6.0
57.696	8.0
57.711	10.0
57.726	7.0
57.741	7.0
57.756	2.0
57.771	3.0
57.786	6.0
57.801	2.0
57.816	3.0
57.831	3.0
57.846	10.0
57.861	3.0
57.876	5.0
57.891	6.0
57.906	3.0
57.921	2.0
57.937	7.0
57.952	1.0
57.967	8.0
57.982	4.0
57.997	6.0
58.012	9.0
58.027	4.0
58.042	5.0
58.057	4.0
58.072	4.0
58.087	8.0
58.102	9.0
58.117	6.0
58.132	6.0
58.147	1.0
58.162	7.0
58.177	4.0
58.192	4.0
58.207	3.0
58.222	3.0
58.237	4.0
58.252	5.0
58.267	6.0
58.282	5.0
58.297	8.0
58.312	3.0
58.327	7.0
58.342	5.0
58.357	5.0
58.372	5.0
58.387	5.0
58.402	4.0
58.418	5.0
58.433	5.0
58.448	6.0
58.463	11.0
58.478	3.0
58.493	5.0
58.508	3.0
58.523	7.0
58.538	8.0
58.553	4.0
58.568	4.0
58.583	3.0
58.598	8.0
58.613	13.0
58.628	11.0
58.643	10.0
58.658	6.0
58.673	9.0
58.688	9.0
58.703	6.0
58.718	7.0
58.733	7.0
58.748	5.0
58.763	10.0
58.778	4.0
58.793	6.0
58.808	3.0
58.823	4.0
58.838	10.0
58.853	9.0
58.868	6.0
58.883	8.0
58.898	5.0
58.913	9.0
58.928	5.0
58.942	7.0
58.957	6.0
58.972	7.0
58.987	9.0
59.002	4.0
59.017	9.0
59.032	6.0
59.047	5.0
59.062	6.0
59.077	5.0
59.092	6.0
59.107	3.0
59.122	4.0
59.137	6.0
59.152	4.0
59.167	4.0
59.182	3.0
59.197	3.0
59.212	8.0
59.227	5.0
59.242	5.0
59.257	2.0
59.272	3.0
59.287	1.0
59.302	1.0
59.317	7.0
59.332	5.0
59.347	7.0
59.362	6.0
59.377	3.0
59.392	6.0
59.407	2.0
59.422	7.0
59.437	7.0
59.452	4.0
59.467	7.0
59.482	3.0
59.497	11.0
59.512	3.0
59.527	9.0
59.542	6.0
59.557	10.0
59.572	6.0
59.587	10.0
59.602	10.0
59.617	8.0
59.632	7.0
59.647	7.0
59.661	8.0
59.676	9.0
59.691	5.0
59.706	5.0
59.721	6.0
59.736	6.0
59.751	8.0
59.766	4.0
59.781	2.0
59.796	2.0
59.811	4.0
59.826	5.0
59.841	4.0
59.856	5.0
59.871	2.0
59.886	4.0
59.901	2.0
59.916	7.0
59.931	3.0
59.946	5.0
59.961	2.0
59.976	7.0
59.991	9.0
60.006	1.0
60.021	8.0
60.036	3.0
60.051	7.0
60.066	5.0
60.081	10.0
60.096	3.0
60.111	2.0
60.126	4.0
60.141	4.0
60.156	5.0
60.171	5.0
60.186	4.0
60.201	5.0
60.216	5.0
60.231	2.0
60.246	3.0
60.261	3.0
60.276	7.0
60.291	1.0
60.306	1.0
60.321	1.0
60.336	5.0
60.35	2.0
60.365	5.0
60.38	0.0
60.395	5.0
60.41	3.0
60.425	7.0
60.44	8.0
60.455	1.0
60.47	6.0
60.485	6.0
60.5	8.0
60.515	6.0
60.53	10.0
60.545	10.0
60.56	6.0
60.575	5.0
60.59	6.0
60.605	8.0
60.62	6.0
60.635	7.0
60.65	6.0
60.665	7.0
60.68	6.0
60.695	3.0
60.71	5.0
60.725	2.0
60.74	4.0
60.755	4.0
60.77	3.0
60.785	2.0
60.8	3.0
60.815	3.0
60.83	2.0
60.845	3.0
60.86	3.0
60.875	5.0
60.89	5.0
60.905	5.0
60.92	7.0
60.935	4.0
60.95	3.0
60.965	5.0
60.98	5.0
60.995	6.0
61.01	6.0
61.025	6.0
61.04	3.0
61.055	9.0
61.07	8.0
61.085	6.0
61.1	9.0
61.115	4.0
61.13	7.0
61.145	6.0
61.16	6.0
61.175	6.0
61.191	4.0
61.206	3.0
61.221	4.0
61.236	3.0
61.251	4.0
61.266	1.0
61.281	6.0
61.296	5.0
61.311	5.0
61.326	3.0
61.341	2.0
61.356	4.0
61.371	1.0
61.386	6.0
61.401	2.0
61.416	3.0
61.431	6.0
61.446	5.0
61.461	6.0
61.476	7.0
61.491	5.0
61.506	8.0
61.521	8.0
61.536	11.0
61.551	7.0
61.566	3.0
61.581	7.0
61.596	11.0
61.611	12.0
61.626	6.0
61.641	3.0
61.656	5.0
61.672	4.0
61.687	8.0
61.702	3.0
61.717	3.0
61.732	9.0
61.747	7.0
61.762	5.0
61.777	3.0
61.792	3.0
61.807	7.0
61.822	11.0
61.837	3.0
61.852	1.0
61.867	4.0
61.882	4.0
61.897	4.0
61.912	2.0
61.927	4.0
61.943	7.0
61.958	6.0
61.973	5.0
61.988	3.0
62.003	5.0
62.018	5.0
62.033	4.0
62.048	4.0
62.063	3.0
62.078	5.0
62.093	6.0
62.108	5.0
62.123	2.0
62.138	2.0
62.153	1.0
62.169	2.0
62.184	2.0
62.199	4.0
62.214	3.0
62.229	4.0
62.244	5.0
62.259	4.0
62.274	2.0
62.289	3.0
62.304	3.0
62.319	1.0
62.335	8.0
62.35	5.0
62.365	4.0
62.38	5.0
62.395	4.0
62.41	7.0
62.425	4.0
62.44	4.0
62.455	6.0
62.47	4.0
62.485	6.0
62.501	7.0
62.516	6.0
62.531	3.0
62.546	7.0
62.561	3.0
62.576	1.0
62.591	1.0
62.606	6.0
62.621	1.0
62.636	1.0
62.652	3.0
62.667	4.0
62.682	7.0
62.697	5.0
62.712	8.0
62.727	2.0
62.742	5.0
62.757	3.0
62.772	2.0
62.787	4.0
62.803	4.0
62.818	4.0
62.833	2.0
62.848	4.0
62.863	3.0
62.878	2.0
62.893	5.0
62.908	7.0
62.923	2.0
62.939	6.0
62.954	4.0
62.969	6.0
62.984	3.0
62.999	4.0
63.014	4.0
63.029	4.0
63.044	2.0
63.059	1.0
63.074	1.0
63.09	3.0
63.105	6.0
63.12	4.0
63.135	6.0
63.15	0.0
63.165	1.0
63.18	6.0
63.195	3.0
63.21	4.0
63.226	5.0
63.241	8.0
63.256	5.0
63.271	1.0
63.286	6.0
63.301	6.0
63.316	5.0
63.331	4.0
63.346	5.0
63.362	4.0
63.377	5.0
63.392	11.0
63.407	11.0
63.422	11.0
63.437	14.0
63.452	5.0
63.467	7.0
63.482	7.0
63.497	5.0
63.513	3.0
63.528	4.0
63.543	3.0
63.558	2.0
63.573	5.0
63.588	8.0
63.603	3.0
63.618	5.0
63.633	4.0
63.648	4.0
63.664	5.0
63.679	1.0
63.694	9.0
63.709	2.0
63.724	5.0
63.739	8.0
63.754	3.0
63.769	4.0
63.784	6.0
63.799	3.0
63.814	4.0
63.83	8.0
63.845	2.0
63.86	7.0
63.875	3.0
63.89	6.0
63.905	5.0
63.92	3.0
63.935	5.0
63.95	1.0
63.965	0.0
63.98	3.0
63.996	4.0
64.011	4.0
64.026	6.0
64.041	4.0
64.056	6.0
64.071	3.0
64.086	5.0
64.101	4.0
64.116	5.0
64.131	2.0
64.146	7.0
64.161	2.0
64.176	2.0
64.191	3.0
64.207	2.0
64.222	5.0
64.237	2.0
64.252	1.0
64.267	4.0
64.282	3.0
64.297	6.0
64.312	4.0
64.327	4.0
64.342	2.0
64.357	3.0
64.372	4.0
64.387	3.0
64.402	3.0
64.417	5.0
64.433	2.0
64.448	4.0
64.463	3.0
64.478	2.0
64.493	4.0
64.508	9.0
64.523	4.0
64.538	2.0
64.553	1.0
64.568	4.0
64.583	4.0
64.598	3.0
64.613	4.0
64.628	4.0
64.643	2.0
64.658	2.0
64.673	6.0
64.688	2.0
64.703	3.0
64.718	8.0
64.734	8.0
64.749	1.0
64.764	5.0
64.779	3.0
64.794	3.0
64.809	3.0
64.824	4.0
64.839	4.0
64.854	7.0
64.869	3.0
64.884	3.0
64.899	2.0
64.914	3.0
64.929	3.0
64.944	6.0
64.959	4.0
64.974	3.0
64.989	3.0
65.004	8.0
65.019	3.0
65.034	2.0
65.049	5.0
65.064	4.0
65.079	5.0
65.094	1.0
65.109	4.0
65.125	3.0
65.14	2.0
65.155	4.0
65.17	4.0
65.185	3.0
65.2	5.0
65.215	2.0
65.23	4.0
65.245	7.0
65.26	6.0
65.275	5.0
65.29	3.0
65.305	4.0
65.32	3.0
65.335	4.0
65.35	8.0
65.365	7.0
65.38	2.0
65.395	3.0
65.41	2.0
65.425	3.0
65.44	6.0
65.455	4.0
65.47	3.0
65.485	2.0
65.5	5.0
65.515	4.0
65.53	0.0
65.545	1.0
65.56	4.0
65.575	2.0
65.59	7.0
65.605	6.0
65.62	2.0
65.635	3.0
65.65	3.0
65.666	6.0
65.681	0.0
65.696	5.0
65.711	2.0
65.726	2.0
65.741	0.0
65.756	6.0
65.771	10.0
65.786	2.0
65.801	4.0
65.816	4.0
65.831	6.0
65.846	2.0
65.861	6.0
65.876	3.0
65.891	4.0
65.906	3.0
65.921	5.0
65.936	3.0
65.951	5.0
65.966	4.0
65.981	2.0
65.996	8.0
66.011	1.0
66.026	4.0
66.041	3.0
66.056	3.0
66.071	4.0
66.086	6.0
66.101	4.0
66.116	4.0
66.131	5.0
66.146	5.0
66.161	2.0
66.176	11.0
66.191	9.0
66.206	8.0
66.221	2.0
66.236	8.0
66.251	8.0
66.266	6.0
66.281	2.0
66.296	8.0
66.311	2.0
66.327	4.0
66.342	9.0
66.357	2.0
66.372	4.0
66.387	0.0
66.402	5.0
66.417	3.0
66.432	3.0
66.447	5.0
66.462	5.0
66.477	4.0
66.492	5.0
66.507	3.0
66.522	4.0
66.537	9.0
66.552	5.0
66.567	5.0
66.582	1.0
66.597	7.0
66.612	4.0
66.627	9.0
66.642	6.0
66.657	4.0
66.672	4.0
66.687	3.0
66.702	6.0
66.717	6.0
66.732	3.0
66.747	8.0
66.762	3.0
66.777	3.0
66.792	2.0
66.807	8.0
66.822	3.0
66.837	6.0
66.853	10.0
66.868	6.0
66.883	2.0
66.898	3.0
66.913	2.0
66.928	1.0
66.943	3.0
66.958	3.0
66.973	4.0
66.988	4.0
67.003	6.0
67.018	5.0
67.033	4.0
67.048	8.0
67.063	4.0
67.078	4.0
67.093	6.0
67.108	6.0
67.123	3.0
67.138	5.0
67.153	7.0
67.168	4.0
67.183	5.0
67.198	5.0
67.214	5.0
67.229	4.0
67.244	4.0
67.259	1.0
67.274	2.0
67.289	4.0
67.304	3.0
67.319	2.0
67.334	5.0
67.349	3.0
67.364	4.0
67.379	4.0
67.394	4.0
67.409	1.0
67.424	5.0
67.439	3.0
67.454	4.0
67.469	2.0
67.484	4.0
67.5	6.0
67.515	7.0
67.53	2.0
67.545	1.0
67.56	7.0
67.575	3.0
67.59	9.0
67.605	7.0
67.62	2.0
67.635	2.0
67.65	4.0
67.665	2.0
67.68	5.0
67.695	1.0
67.71	4.0
67.726	2.0
67.741	3.0
67.756	6.0
67.771	1.0
67.786	3.0
67.801	1.0
67.816	2.0
67.831	2.0
67.846	2.0
67.861	3.0
67.876	4.0
67.891	3.0
67.906	2.0
67.922	3.0
67.937	5.0
67.952	2.0
67.967	6.0
67.982	3.0
67.997	2.0
68.012	8.0
68.027	4.0
68.042	3.0
68.057	2.0
68.072	3.0
68.087	3.0
68.103	4.0
68.118	4.0
68.133	6.0
68.148	2.0
68.163	3.0
68.178	3.0
68.193	1.0
68.208	1.0
68.223	4.0
68.238	4.0
68.254	4.0
68.269	3.0
68.284	1.0
68.299	2.0
68.314	1.0
68.329	5.0
68.344	4.0
68.359	1.0
68.374	4.0
68.389	8.0
68.405	3.0
68.42	5.0
68.435	4.0
68.45	1.0
68.465	2.0
68.48	6.0
68.495	4.0
68.51	6.0
68.525	5.0
68.54	2.0
68.556	5.0
68.571	1.0
68.586	4.0
68.601	1.0
68.616	7.0
68.631	4.0
68.646	8.0
68.661	2.0
68.676	4.0
68.691	1.0
68.707	5.0
68.722	4.0
68.737	4.0
68.752	2.0
68.767	7.0
68.782	5.0
68.797	6.0
68.812	7.0
68.827	3.0
68.842	4.0
68.857	4.0
68.873	4.0
68.888	7.0
68.903	6.0
68.918	7.0
68.933	6.0
68.948	3.0
68.963	4.0
68.978	5.0
68.993	3.0
69.008	3.0
69.023	3.0
69.038	5.0
69.054	3.0
69.069	6.0
69.084	6.0
69.099	4.0
69.114	2.0
69.129	2.0
69.144	4.0
69.159	7.0
69.174	3.0
69.189	4.0
69.204	0.0
69.219	5.0
69.234	1.0
69.249	6.0
69.264	3.0
69.279	1.0
69.295	6.0
69.31	6.0
69.325	6.0
69.34	2.0
69.355	5.0
69.37	5.0
69.385	2.0
69.4	0.0
69.415	1.0
69.43	3.0
69.445	2.0
69.46	2.0
69.475	2.0
69.49	5.0
69.505	3.0
69.52	5.0
69.535	3.0
69.55	3.0
69.565	4.0
69.58	3.0
69.595	8.0
69.61	4.0
69.625	3.0
69.64	5.0
69.655	3.0
69.67	5.0
69.685	1.0
69.7	4.0
69.715	5.0
69.73	2.0
69.745	7.0
69.76	8.0
69.775	5.0
69.79	5.0
69.805	3.0
69.82	6.0
69.835	10.0
69.85	4.0
69.865	3.0
69.88	4.0
69.895	7.0
69.909	7.0
69.924	4.0
69.939	2.0
69.954	3.0
69.969	7.0
69.984	0.0
69.999	5.0
70.014	2.0
70.029	3.0
70.044	5.0
70.059	2.0
70.074	4.0
70.088	3.0
70.103	2.0
70.118	2.0
70.133	5.0
70.148	1.0
70.163	3.0
70.178	5.0
70.193	3.0
70.208	3.0
70.222	4.0
70.237	2.0
70.252	5.0
70.267	7.0
70.282	4.0
70.297	2.0
70.312	5.0
70.327	7.0
70.341	4.0
70.356	4.0
70.371	6.0
70.386	5.0
70.401	1.0
70.416	4.0
70.43	4.0
70.445	7.0
70.46	5.0
70.475	4.0
70.49	5.0
70.505	5.0
70.519	2.0
70.534	4.0
70.549	3.0
70.564	1.0
70.579	6.0
70.594	4.0
70.608	6.0
70.623	9.0
70.638	4.0
70.653	5.0
70.668	5.0
70.683	3.0
70.697	8.0
70.712	8.0
70.727	8.0
70.742	8.0
70.757	8.0
70.771	7.0
70.786	4.0
70.801	3.0
70.816	8.0
70.831	4.0
70.845	7.0
70.86	3.0
70.875	7.0
70.89	3.0
70.905	4.0
70.92	2.0
70.934	4.0
70.949	2.0
70.964	5.0
70.979	5.0
70.994	4.0
71.008	1.0
71.023	5.0
71.038	2.0
71.053	6.0
71.068	4.0
71.082	2.0
71.097	4.0
71.112	4.0
71.127	6.0
71.142	4.0
71.156	4.0
71.171	8.0
71.186	7.0
71.201	3.0
71.216	4.0
71.231	10.0
71.245	5.0
71.26	7.0
71.275	2.0
71.29	2.0
71.305	3.0
71.319	2.0
71.334	2.0
71.349	2.0
71.364	6.0
71.379	3.0
71.394	4.0
71.408	5.0
71.423	1.0
71.438	4.0
71.453	2.0
71.468	3.0
71.483	5.0
71.497	3.0
71.512	4.0
71.527	3.0
71.542	2.0
71.557	3.0
71.572	1.0
71.586	8.0
71.601	1.0
71.616	2.0
71.631	6.0
71.646	4.0
71.661	5.0
71.676	1.0
71.69	3.0
71.705	3.0
71.72	4.0
71.735	2.0
71.75	2.0
71.765	0.0
71.78	2.0
71.795	3.0
71.81	1.0
71.824	2.0
71.839	3.0
71.854	8.0
71.869	2.0
71.884	2.0
71.899	8.0
71.914	2.0
71.929	1.0
71.944	5.0
71.959	2.0
71.974	2.0
71.988	4.0
72.003	5.0
72.018	8.0
72.033	4.0
72.048	7.0
72.063	4.0
72.078	3.0
72.093	4.0
72.108	2.0
72.123	3.0
72.138	3.0
72.153	2.0
72.168	7.0
72.183	6.0
72.198	4.0
72.213	6.0
72.228	2.0
72.243	3.0
72.258	5.0
72.273	2.0
72.288	4.0
72.303	2.0
72.318	4.0
72.333	2.0
72.348	5.0
72.363	4.0
72.378	6.0
72.393	2.0
72.408	3.0
72.423	2.0
72.438	1.0
72.453	1.0
72.468	1.0
72.483	1.0
72.498	6.0
72.513	5.0
72.528	3.0
72.543	5.0
72.558	2.0
72.573	2.0
72.588	4.0
72.603	1.0
72.618	3.0
72.633	1.0
72.649	1.0
72.664	4.0
72.679	3.0
72.694	6.0
72.709	3.0
72.724	1.0
72.739	6.0
72.754	2.0
72.769	5.0
72.784	3.0
72.799	3.0
72.814	1.0
72.829	1.0
72.845	3.0
72.86	0.0
72.875	3.0
72.89	2.0
72.905	2.0
72.92	1.0
72.935	5.0
72.95	5.0
72.965	2.0
72.98	3.0
72.996	3.0
73.011	5.0
73.026	4.0
73.041	3.0
73.056	4.0
73.071	4.0
73.086	3.0
73.101	3.0
73.117	4.0
73.132	6.0
73.147	3.0
73.162	5.0
73.177	3.0
73.192	3.0
73.207	7.0
73.222	7.0
73.238	6.0
73.253	4.0
73.268	3.0
73.283	7.0
73.298	6.0
73.313	4.0
73.328	4.0
73.343	8.0
73.359	7.0
73.374	4.0
73.389	5.0
73.404	3.0
73.419	2.0
73.434	6.0
73.449	6.0
73.465	7.0
73.48	2.0
73.495	3.0
73.51	0.0
73.525	1.0
73.54	4.0
73.556	3.0
73.571	4.0
73.586	2.0
73.601	2.0
73.616	4.0
73.631	4.0
73.646	1.0
73.662	3.0
73.677	1.0
73.692	2.0
73.707	4.0
73.722	2.0
73.737	6.0
73.752	2.0
73.768	1.0
73.783	5.0
73.798	5.0
73.813	1.0
73.828	2.0
73.843	1.0
73.859	3.0
73.874	5.0
73.889	7.0
73.904	3.0
73.919	4.0
73.934	2.0
73.949	1.0
73.965	5.0
73.98	1.0
73.995	2.0
74.01	3.0
74.025	5.0
74.04	2.0
74.056	5.0
74.071	3.0
74.086	5.0
74.101	1.0
74.116	6.0
74.131	4.0
74.146	6.0
74.162	9.0
74.177	7.0
74.192	5.0
74.207	5.0
74.222	3.0
74.237	5.0
74.252	3.0
74.268	1.0
74.283	4.0
74.298	7.0
74.313	3.0
74.328	2.0
74.343	5.0
74.358	1.0
74.374	1.0
74.389	1.0
74.404	0.0
74.419	2.0
74.434	2.0
74.449	3.0
74.464	2.0
74.48	5.0
74.495	1.0
74.51	5.0
74.525	4.0
74.54	5.0
74.555	4.0
74.57	5.0
74.586	2.0
74.601	4.0
74.616	2.0
74.631	1.0
74.646	3.0
74.661	9.0
74.676	5.0
74.691	3.0
74.707	5.0
74.722	4.0
74.737	9.0
74.752	6.0
74.767	5.0
74.782	6.0
74.797	5.0
74.813	5.0
74.828	6.0
74.843	2.0
74.858	5.0
74.873	3.0
74.888	1.0
74.903	3.0
74.918	4.0
74.934	7.0
74.949	4.0
74.964	4.0
74.979	6.0
74.994	1.0
75.009	6.0
75.024	3.0
75.04	6.0
75.055	2.0
75.07	0.0
75.085	4.0
75.1	6.0
75.115	5.0
75.13	5.0
75.145	1.0
75.161	2.0
75.176	2.0
75.191	6.0
75.206	2.0
75.221	0.0
75.236	1.0
75.251	5.0
75.266	4.0
75.282	4.0
75.297	1.0
75.312	4.0
75.327	6.0
75.342	2.0
75.357	5.0
75.372	2.0
75.387	2.0
75.403	3.0
75.418	4.0
75.433	6.0
75.448	7.0
75.463	5.0
75.478	2.0
75.493	1.0
75.509	2.0
75.524	7.0
75.539	7.0
75.554	2.0
75.569	8.0
75.584	1.0
75.599	3.0
75.614	4.0
75.63	2.0
75.645	2.0
75.66	3.0
75.675	2.0
75.69	2.0
75.705	3.0
75.72	6.0
75.735	4.0
75.751	1.0
75.766	1.0
75.781	5.0
75.796	3.0
75.811	2.0
75.826	4.0
75.841	2.0
75.856	1.0
75.872	4.0
75.887	4.0
75.902	7.0
75.917	5.0
75.932	7.0
75.947	5.0
75.962	5.0
75.977	7.0
75.993	4.0
76.008	4.0
76.023	3.0
76.038	1.0
76.053	3.0
76.068	5.0
76.083	2.0
76.098	0.0
76.114	1.0
76.129	2.0
76.144	2.0
76.159	6.0
76.174	5.0
76.189	4.0
76.204	0.0
76.22	2.0
76.235	1.0
76.25	2.0
76.265	7.0
76.28	5.0
76.295	3.0
76.31	3.0
76.325	3.0
76.341	4.0
76.356	0.0
76.371	1.0
76.386	3.0
76.401	2.0
76.416	3.0
76.431	5.0
76.446	8.0
76.462	3.0
76.477	4.0
76.492	2.0
76.507	4.0
76.522	1.0
76.537	0.0
76.552	4.0
76.567	5.0
76.583	3.0
76.598	3.0
76.613	1.0
76.628	2.0
76.643	2.0
76.658	2.0
76.673	2.0
76.688	4.0
76.704	3.0
76.719	4.0
76.734	6.0
76.749	2.0
76.764	3.0
76.779	3.0
76.794	11.0
76.809	7.0
76.824	4.0
76.84	1.0
76.855	3.0
76.87	5.0
76.885	6.0
76.9	1.0
76.915	3.0
76.93	4.0
76.945	4.0
76.96	4.0
76.976	4.0
76.991	7.0
77.006	1.0
77.021	4.0
77.036	1.0
77.051	1.0
77.066	7.0
77.081	0.0
77.096	3.0
77.112	2.0
77.127	3.0
77.142	1.0
77.157	1.0
77.172	1.0
77.187	4.0
77.202	7.0
77.217	4.0
77.232	2.0
77.247	2.0
77.263	6.0
77.278	2.0
77.293	7.0
77.308	4.0
77.323	4.0
77.338	6.0
77.353	3.0
77.368	2.0
77.383	3.0
77.398	3.0
77.413	3.0
77.428	3.0
77.444	3.0
77.459	1.0
77.474	2.0
77.489	5.0
77.504	2.0
77.519	5.0
77.534	2.0
77.549	6.0
77.564	4.0
77.579	9.0
77.594	7.0
77.609	3.0
77.624	6.0
77.64	6.0
77.655	5.0
77.67	5.0
77.685	5.0
77.7	5.0
77.715	1.0
77.73	2.0
77.745	2.0
77.76	2.0
77.775	6.0
77.79	5.0
77.805	2.0
77.82	2.0
77.835	4.0
77.85	1.0
77.865	2.0
77.88	2.0
77.895	3.0
77.91	0.0
77.926	4.0
77.941	7.0
77.956	2.0
77.971	3.0
77.986	4.0
78.001	2.0
78.016	3.0
78.031	6.0
78.046	2.0
78.061	8.0
78.076	5.0
78.091	5.0
78.106	1.0
78.121	1.0
78.136	11.0
78.151	11.0
78.166	2.0
78.181	6.0
78.196	6.0
78.211	4.0
78.226	6.0
78.241	6.0
78.256	6.0
78.271	3.0
78.286	6.0
78.301	2.0
78.316	2.0
78.331	1.0
78.346	4.0
78.361	3.0
78.376	4.0
78.391	7.0
78.406	2.0
78.421	2.0
78.436	3.0
78.451	2.0
78.466	2.0
78.481	1.0
78.496	3.0
78.511	3.0
78.526	3.0
78.541	3.0
78.556	3.0
78.571	3.0
78.586	3.0
78.601	3.0
78.616	5.0
78.631	6.0
78.646	1.0
78.661	1.0
78.676	2.0
78.691	4.0
78.706	3.0
78.721	3.0
78.736	6.0
78.751	4.0
78.766	1.0
78.781	1.0
78.796	3.0
78.811	3.0
78.826	1.0
78.841	4.0
78.856	1.0
78.871	2.0
78.885	2.0
78.9	2.0
78.915	5.0
78.93	2.0
78.945	3.0
78.96	2.0
78.975	6.0
78.99	1.0
79.005	4.0
79.02	3.0
79.035	4.0
79.05	5.0
79.065	2.0
79.08	3.0
79.095	4.0
79.11	4.0
79.125	1.0
79.14	0.0
79.155	4.0
79.17	4.0
79.185	2.0
79.2	1.0
79.215	4.0
79.23	2.0
79.245	2.0
79.26	1.0
79.275	7.0
79.29	1.0
79.304	4.0
79.319	3.0
79.334	6.0
79.349	6.0
79.364	1.0
79.379	4.0
79.394	4.0
79.409	3.0
79.424	2.0
79.439	1.0
79.454	1.0
79.469	4.0
79.484	6.0
79.499	2.0
79.514	3.0
79.529	2.0
79.544	3.0
79.559	4.0
79.574	3.0
79.589	7.0
79.604	3.0
79.619	1.0
79.634	5.0
79.649	4.0
79.664	2.0
79.679	1.0
79.693	3.0
79.708	4.0
79.723	5.0
79.738	2.0
79.753	4.0
79.768	0.0
79.783	4.0
79.798	1.0
79.813	3.0
79.828	3.0
79.843	3.0
79.858	1.0
79.873	5.0
79.888	1.0
79.903	6.0
79.918	3.0
79.933	1.0
79.948	3.0
79.963	2.0
79.978	3.0
79.993	3.0
80.008	0.0
80.023	7.0
80.038	5.0
80.053	4.0
80.068	3.0
80.083	8.0
80.098	5.0
80.113	4.0
80.128	3.0
80.143	1.0
80.158	4.0
80.173	5.0
80.188	3.0
80.202	4.0
80.217	3.0
80.232	5.0
80.247	4.0
80.262	3.0
80.277	4.0
80.292	2.0
80.307	3.0
80.322	1.0
80.337	5.0
80.352	2.0
80.367	3.0
80.382	4.0
80.397	3.0
80.412	5.0
80.427	0.0
80.442	1.0
80.457	4.0
80.472	1.0
80.487	3.0
80.502	6.0
80.517	3.0
80.532	3.0
80.547	4.0
80.562	2.0
80.577	3.0
80.592	1.0
80.607	1.0
80.622	3.0
80.637	3.0
80.652	1.0
80.667	4.0
80.682	2.0
80.697	4.0
80.712	5.0
80.727	3.0
80.742	3.0
80.757	2.0
80.772	2.0
80.787	4.0
80.802	4.0
80.817	5.0
80.832	2.0
80.847	4.0
80.862	2.0
80.877	3.0
80.892	4.0
80.907	2.0
80.922	5.0
80.937	1.0
80.952	7.0
80.967	4.0
80.982	5.0
80.997	6.0
81.012	1.0
81.027	4.0
81.042	7.0
81.057	2.0
81.072	3.0
81.087	1.0
81.101	3.0
81.116	3.0
81.131	4.0
81.146	1.0
81.161	2.0
81.176	3.0
81.191	2.0
81.206	1.0
81.221	6.0
81.236	1.0
81.251	2.0
81.266	1.0
81.281	2.0
81.296	1.0
81.311	6.0
81.326	1.0
81.341	1.0
81.356	1.0
81.371	1.0
81.386	6.0
81.401	3.0
81.416	3.0
81.431	2.0
81.446	3.0
81.461	3.0
81.476	4.0
81.491	7.0
81.506	1.0
81.521	3.0
81.536	2.0
81.55	6.0
81.565	4.0
81.58	5.0
81.595	4.0
81.61	4.0
81.625	6.0
81.64	4.0
81.655	3.0
81.67	2.0
81.685	3.0
81.7	8.0
81.715	2.0
81.73	5.0
81.745	3.0
81.76	2.0
81.775	4.0
81.79	7.0
81.805	2.0
81.819	2.0
81.834	4.0
81.849	3.0
81.864	7.0
81.879	5.0
81.894	5.0
81.909	1.0
81.924	7.0
81.939	3.0
81.954	3.0
81.969	2.0
81.984	2.0
81.999	5.0
82.013	3.0
82.028	1.0
82.043	2.0
82.058	3.0
82.073	3.0
82.088	2.0
82.103	3.0
82.118	2.0
82.133	3.0
82.148	2.0
82.163	0.0
82.177	1.0
82.192	3.0
82.207	2.0
82.222	5.0
82.237	5.0
82.252	2.0
82.267	3.0
82.282	3.0
82.297	2.0
82.312	4.0
82.326	0.0
82.341	4.0
82.356	2.0
82.371	1.0
82.386	1.0
82.401	2.0
82.416	3.0
82.431	0.0
82.445	2.0
82.46	2.0
82.475	2.0
82.49	1.0
82.505	3.0
82.52	2.0
82.535	5.0
82.55	4.0
82.565	3.0
82.579	3.0
82.594	4.0
82.609	5.0
82.624	0.0
82.639	1.0
82.654	2.0
82.669	5.0
82.684	5.0
82.698	2.0
82.713	1.0
82.728	5.0
82.743	1.0
82.758	3.0
82.773	6.0
82.788	3.0
82.803	3.0
82.817	0.0
82.832	2.0
82.847	2.0
82.862	3.0
82.877	6.0
82.892	4.0
82.907	4.0
82.922	3.0
82.937	3.0
82.951	5.0
82.966	2.0
82.981	2.0
82.996	6.0
83.011	5.0
83.026	2.0
83.041	5.0
83.056	1.0
83.07	2.0
83.085	3.0
83.1	1.0
83.115	2.0
83.13	3.0
83.145	2.0
83.16	4.0
83.175	5.0
83.19	3.0
83.204	2.0
83.219	3.0
83.234	2.0
83.249	4.0
83.264	1.0
83.279	3.0
83.294	3.0
83.309	5.0
83.324	1.0
83.339	3.0
83.353	6.0
83.368	2.0
83.383	3.0
83.398	3.0
83.413	5.0
83.428	2.0
83.443	1.0
83.458	3.0
83.473	5.0
83.488	1.0
83.503	1.0
83.517	3.0
83.532	3.0
83.547	3.0
83.562	3.0
83.577	5.0
83.592	4.0
83.607	4.0
83.622	6.0
83.637	2.0
83.652	5.0
83.667	3.0
83.682	2.0
83.697	4.0
83.712	4.0
83.727	2.0
83.741	2.0
83.756	1.0
83.771	3.0
83.786	3.0
83.801	2.0
83.816	3.0
83.831	0.0
83.846	5.0
83.861	3.0
83.876	4.0
83.891	3.0
83.906	2.0
83.921	3.0
83.936	6.0
83.951	5.0
83.966	3.0
83.981	3.0
83.996	3.0
84.011	4.0
84.026	1.0
84.041	2.0
84.056	2.0
84.071	1.0
84.086	4.0
84.101	6.0
84.116	3.0
84.131	3.0
84.146	4.0
84.161	6.0
84.176	6.0
84.191	4.0
84.206	4.0
84.221	2.0
84.236	1.0
84.251	4.0
84.266	5.0
84.281	4.0
84.296	6.0
84.311	8.0
84.326	7.0
84.341	1.0
84.356	5.0
84.371	3.0
84.386	6.0
84.401	2.0
84.416	2.0
84.431	4.0
84.446	3.0
84.461	2.0
84.476	8.0
84.492	1.0
84.507	1.0
84.522	2.0
84.537	4.0
84.552	7.0
84.567	1.0
84.582	2.0
84.597	5.0
84.612	2.0
84.627	1.0
84.642	0.0
84.657	2.0
84.672	2.0
84.687	5.0
84.702	0.0
84.717	6.0
84.733	3.0
84.748	1.0
84.763	3.0
84.778	2.0
84.793	2.0
84.808	3.0
84.823	1.0
84.838	4.0
84.853	4.0
84.868	4.0
84.883	2.0
84.898	1.0
84.913	1.0
84.929	5.0
84.944	2.0
84.959	10.0
84.974	3.0
84.989	4.0
85.004	2.0
85.019	4.0
85.034	5.0
85.049	5.0
85.064	9.0
85.079	4.0
85.094	1.0
85.11	7.0
85.125	2.0
85.14	2.0
85.155	2.0
85.17	3.0
85.185	2.0
85.2	3.0
85.215	4.0
85.23	3.0
85.245	2.0
85.26	6.0
85.276	4.0
85.291	5.0
85.306	2.0
85.321	3.0
85.336	5.0
85.351	5.0
85.366	5.0
85.381	5.0
85.396	5.0
85.411	2.0
85.426	6.0
85.441	0.0
85.457	2.0
85.472	2.0
85.487	3.0
85.502	3.0
85.517	1.0
85.532	4.0
85.547	3.0
85.562	4.0
85.577	2.0
85.592	6.0
85.607	6.0
85.622	1.0
85.637	3.0
85.653	3.0
85.668	4.0
85.683	0.0
85.698	4.0
85.713	6.0
85.728	3.0
85.743	1.0
85.758	4.0
85.773	3.0
85.788	1.0
85.803	6.0
85.818	0.0
85.833	2.0
85.848	2.0
85.863	3.0
85.879	3.0
85.894	7.0
85.909	1.0
85.924	2.0
85.939	1.0
85.954	6.0
85.969	4.0
85.984	3.0
85.999	5.0
86.014	2.0
86.029	2.0
86.044	4.0
86.059	0.0
86.074	1.0
86.089	1.0
86.104	5.0
86.119	4.0
86.134	3.0
86.149	6.0
86.164	3.0
86.179	7.0
86.194	6.0
86.209	2.0
86.224	3.0
86.239	3.0
86.254	4.0
86.269	4.0
86.284	5.0
86.299	2.0
86.314	4.0
86.33	2.0
86.345	2.0
86.36	1.0
86.375	2.0
86.39	1.0
86.405	3.0
86.42	2.0
86.435	1.0
86.45	3.0
86.465	6.0
86.48	5.0
86.495	2.0
86.51	5.0
86.525	1.0
86.54	1.0
86.555	2.0
86.57	3.0
86.585	1.0
86.6	3.0
86.615	3.0
86.63	2.0
86.645	2.0
86.659	7.0
86.674	3.0
86.689	6.0
86.704	4.0
86.719	4.0
86.734	1.0
86.749	5.0
86.764	3.0
86.779	1.0
86.794	3.0
86.809	2.0
86.824	6.0
86.839	2.0
86.854	6.0
86.869	5.0
86.884	4.0
86.899	7.0
86.914	3.0
86.929	1.0
86.944	4.0
86.959	8.0
86.974	5.0
86.989	2.0
87.004	4.0
87.019	2.0
87.034	4.0
87.049	2.0
87.064	5.0
87.079	4.0
87.094	1.0
87.109	2.0
87.124	1.0
87.139	1.0
87.154	3.0
87.169	4.0
87.184	0.0
87.199	2.0
87.214	2.0
87.229	2.0
87.244	1.0
87.259	4.0
87.274	6.0
87.289	6.0
87.304	4.0
87.319	4.0
87.334	3.0
87.349	3.0
87.364	3.0
87.379	5.0
87.394	1.0
87.409	1.0
87.424	2.0
87.438	6.0
87.453	2.0
87.468	2.0
87.483	4.0
87.498	4.0
87.513	1.0
87.528	3.0
87.543	2.0
87.558	4.0
87.573	5.0
87.588	1.0
87.603	2.0
87.618	3.0
87.633	4.0
87.648	1.0
87.663	1.0
87.678	5.0
87.693	4.0
87.708	4.0
87.723	2.0
87.738	7.0
87.753	4.0
87.768	6.0
87.783	1.0
87.798	0.0
87.813	4.0
87.828	2.0
87.843	7.0
87.858	3.0
87.873	2.0
87.888	3.0
87.903	4.0
87.918	2.0
87.933	2.0
87.948	7.0
87.963	2.0
87.978	2.0
87.993	3.0
88.008	2.0
88.023	3.0
88.038	2.0
88.053	1.0
88.068	3.0
88.083	3.0
88.098	4.0
88.113	3.0
88.128	4.0
88.143	2.0
88.158	4.0
88.174	3.0
88.189	3.0
88.204	5.0
88.219	3.0
88.234	3.0
88.249	1.0
88.264	2.0
88.279	1.0
88.294	1.0
88.309	4.0
88.324	2.0
88.339	4.0
88.354	4.0
88.369	3.0
88.384	2.0
88.399	2.0
88.414	5.0
88.429	2.0
88.444	2.0
88.459	3.0
88.474	2.0
88.489	4.0
88.504	2.0
88.519	4.0
88.534	5.0
88.549	7.0
88.564	4.0
88.58	4.0
88.595	5.0
88.61	1.0
88.625	5.0
88.64	4.0
88.655	2.0
88.67	1.0
88.685	1.0
88.7	1.0
88.715	5.0
88.73	7.0
88.745	1.0
88.76	4.0
88.775	5.0
88.79	3.0
88.805	3.0
88.82	7.0
88.835	2.0
88.85	2.0
88.865	3.0
88.88	2.0
88.895	1.0
88.911	1.0
88.926	3.0
88.941	3.0
88.956	5.0
88.971	2.0
88.986	7.0
89.001	1.0
89.016	2.0
89.031	3.0
89.046	4.0
89.061	3.0
89.076	5.0
89.091	4.0
89.106	1.0
89.121	4.0
89.136	3.0
89.151	4.0
89.166	4.0
89.181	3.0
89.196	8.0
89.211	5.0
89.227	3.0
89.242	1.0
89.257	2.0
89.272	2.0
89.287	4.0
89.302	6.0
89.317	5.0
89.332	5.0
89.347	3.0
89.362	2.0
89.377	4.0
89.392	1.0
89.407	1.0
89.422	1.0
89.437	2.0
89.452	3.0
89.467	2.0
89.482	1.0
89.497	2.0
89.512	3.0
89.527	4.0
89.542	6.0
89.557	2.0
89.572	2.0
89.587	1.0
89.602	6.0
89.617	2.0
89.632	6.0
89.647	2.0
89.662	2.0
89.677	7.0
89.693	2.0
89.708	4.0
89.723	5.0
89.738	2.0
89.753	3.0
89.768	7.0
89.783	3.0
89.798	4.0
89.813	1.0
89.828	2.0
89.843	2.0
89.858	2.0
89.873	2.0
89.888	2.0
89.903	1.0
89.918	2.0
89.933	1.0
89.948	4.0
89.963	2.0
89.978	1.0
89.993	3.0
90.008	5.0
90.023	8.0
90.038	2.0
90.053	6.0
90.068	1.0
90.083	3.0
90.097	1.0
90.112	4.0
90.127	2.0
90.142	9.0
90.157	4.0
90.172	3.0
90.187	4.0
90.202	3.0
90.217	1.0
90.232	5.0
90.247	3.0
90.262	5.0
90.277	5.0
90.292	1.0
90.307	7.0
90.322	2.0
90.337	4.0
90.352	5.0
90.367	8.0
90.382	2.0
90.397	7.0
90.412	8.0
90.427	5.0
90.442	8.0
90.457	5.0
90.472	3.0
90.487	2.0
90.501	5.0
90.516	2.0
90.531	1.0
90.546	4.0
90.561	1.0
90.576	1.0
90.591	4.0
90.606	3.0
90.621	1.0
90.636	2.0
90.651	4.0
90.666	2.0
90.681	1.0
90.696	2.0
90.711	3.0
90.726	4.0
90.741	4.0
90.755	5.0
90.77	5.0
90.785	4.0
90.8	4.0
90.815	1.0
90.83	3.0
90.845	4.0
90.86	5.0
90.875	4.0
90.89	3.0
90.905	4.0
90.92	1.0
90.935	4.0
90.95	5.0
90.965	4.0
90.979	5.0
90.994	6.0
91.009	3.0
91.024	6.0
91.039	4.0
91.054	2.0
91.069	2.0
91.084	7.0
91.099	2.0
91.114	1.0
91.129	3.0
91.144	5.0
91.159	3.0
91.174	0.0
91.188	4.0
91.203	2.0
91.218	1.0
91.233	5.0
91.248	4.0
91.263	5.0
91.278	0.0
91.293	1.0
91.308	1.0
91.323	3.0
91.338	3.0
91.353	6.0
91.368	3.0
91.383	2.0
91.398	3.0
91.412	2.0
91.427	0.0
91.442	2.0
91.457	2.0
91.472	4.0
91.487	1.0
91.502	5.0
91.517	2.0
91.532	4.0
91.547	3.0
91.562	5.0
91.577	5.0
91.592	6.0
91.607	2.0
91.622	2.0
91.637	6.0
91.652	5.0
91.666	2.0
91.681	3.0
91.696	3.0
91.711	1.0
91.726	1.0
91.741	2.0
91.756	5.0
91.771	2.0
91.786	4.0
91.801	3.0
91.816	2.0
91.831	3.0
91.846	2.0
91.861	2.0
91.876	3.0
91.891	4.0
91.906	4.0
91.921	5.0
91.936	3.0
91.951	1.0
91.966	1.0
91.981	2.0
91.995	4.0
92.01	3.0
92.025	1.0
92.04	4.0
92.055	3.0
92.07	4.0
92.085	2.0
92.1	2.0
92.115	2.0
92.13	8.0
92.145	4.0
92.16	3.0
92.175	7.0
92.19	4.0
92.205	4.0
92.22	2.0
92.235	2.0
92.25	3.0
92.265	2.0
92.28	1.0
92.295	1.0
92.31	3.0
92.325	2.0
92.34	0.0
92.355	4.0
92.37	6.0
92.385	3.0
92.4	3.0
92.415	5.0
92.43	6.0
92.445	3.0
92.46	4.0
92.475	5.0
92.49	1.0
92.505	4.0
92.52	8.0
92.535	5.0
92.55	5.0
92.565	1.0
92.58	4.0
92.595	2.0
92.61	4.0
92.625	5.0
92.64	3.0
92.655	5.0
92.67	6.0
92.685	6.0
92.7	4.0
92.715	3.0
92.73	0.0
92.745	3.0
92.76	0.0
92.775	4.0
92.79	0.0
92.805	0.0
92.82	2.0
92.835	7.0
92.85	3.0
92.865	5.0
92.88	3.0
92.895	4.0
92.91	1.0
92.925	4.0
92.94	4.0
92.955	0.0
92.97	3.0
92.985	0.0
93.0	2.0
93.015	0.0
93.03	2.0
93.045	2.0
93.06	2.0
93.075	4.0
93.09	4.0
93.105	2.0
93.12	2.0
93.135	2.0
93.15	4.0
93.165	1.0
93.18	1.0
93.195	3.0
93.21	4.0
93.225	5.0
93.24	1.0
93.255	1.0
93.27	4.0
93.285	2.0
93.3	2.0
93.315	1.0
93.33	2.0
93.345	3.0
93.36	5.0
93.375	1.0
93.39	2.0
93.405	1.0
93.42	2.0
93.435	0.0
93.45	5.0
93.465	3.0
93.48	3.0
93.495	3.0
93.51	8.0
93.525	4.0
93.54	6.0
93.555	2.0
93.57	4.0
93.585	5.0
93.6	1.0
93.615	2.0
93.63	5.0
93.645	2.0
93.66	8.0
93.675	2.0
93.69	2.0
93.705	5.0
93.72	1.0
93.735	5.0
93.75	0.0
93.765	5.0
93.78	0.0
93.795	0.0
93.81	0.0
93.824	0.0
93.839	2.0
93.854	3.0
93.869	3.0
93.884	0.0
93.899	2.0
93.914	2.0
93.929	3.0
93.944	2.0
93.959	6.0
93.974	1.0
93.989	5.0
94.004	2.0
94.019	7.0
94.034	4.0
94.049	2.0
94.064	1.0
94.079	2.0
94.094	4.0
94.108	2.0
94.123	1.0
94.138	4.0
94.153	4.0
94.168	4.0
94.183	3.0
94.198	2.0
94.213	2.0
94.228	3.0
94.243	5.0
94.258	5.0
94.273	2.0
94.288	4.0
94.302	5.0
94.317	3.0
94.332	6.0
94.347	5.0
94.362	3.0
94.377	4.0
94.392	4.0
94.407	3.0
94.422	5.0
94.437	5.0
94.452	8.0
94.466	2.0
94.481	1.0
94.496	5.0
94.511	4.0
94.526	1.0
94.541	3.0
94.556	5.0
94.571	3.0
94.586	5.0
94.601	4.0
94.615	5.0
94.63	2.0
94.645	4.0
94.66	2.0
94.675	0.0
94.69	3.0
94.705	3.0
94.72	6.0
94.735	1.0
94.749	2.0
94.764	3.0
94.779	1.0
94.794	2.0
94.809	4.0
94.824	5.0
94.839	3.0
94.854	2.0
94.868	2.0
94.883	1.0
94.898	6.0
94.913	6.0
94.928	6.0
94.943	5.0
94.958	2.0
94.973	3.0
94.987	2.0
95.002	1.0
95.017	2.0
95.032	2.0
95.047	4.0
95.062	2.0
95.077	1.0
95.092	0.0
95.106	4.0
95.121	4.0
95.136	3.0
95.151	3.0
95.166	5.0
95.181	3.0
95.196	6.0
95.211	4.0
95.226	5.0
95.24	6.0
95.255	5.0
95.27	4.0
95.285	1.0
95.3	3.0
95.315	2.0
95.33	7.0
95.345	4.0
95.359	4.0
95.374	5.0
95.389	1.0
95.404	2.0
95.419	3.0
95.434	7.0
95.449	3.0
95.464	3.0
95.478	2.0
95.493	3.0
95.508	7.0
95.523	3.0
95.538	6.0
95.553	2.0
95.568	1.0
95.583	6.0
95.597	4.0
95.612	4.0
95.627	1.0
95.642	1.0
95.657	4.0
95.672	1.0
95.687	3.0
95.702	2.0
95.717	5.0
95.731	5.0
95.746	3.0
95.761	2.0
95.776	1.0
95.791	1.0
95.806	6.0
95.821	0.0
95.836	5.0
95.851	6.0
95.866	1.0
95.88	1.0
95.895	4.0
95.91	6.0
95.925	2.0
95.94	5.0
95.955	4.0
95.97	0.0
95.985	0.0
96.0	3.0
96.015	3.0
96.029	3.0
96.044	1.0
96.059	8.0
96.074	3.0
96.089	2.0
96.104	3.0
96.119	4.0
96.134	1.0
96.149	2.0
96.164	1.0
96.179	2.0
96.194	7.0
96.208	5.0
96.223	3.0
96.238	1.0
96.253	1.0
96.268	0.0
96.283	2.0
96.298	5.0
96.313	6.0
96.328	4.0
96.343	1.0
96.358	7.0
96.373	1.0
96.388	4.0
96.403	3.0
96.417	5.0
96.432	0.0
96.447	0.0
96.462	4.0
96.477	7.0
96.492	1.0
96.507	0.0
96.522	1.0
96.537	0.0
96.552	2.0
96.567	3.0
96.582	5.0
96.597	3.0
96.612	5.0
96.627	3.0
96.642	3.0
96.656	2.0
96.671	3.0
96.686	2.0
96.701	0.0
96.716	3.0
96.731	2.0
96.746	3.0
96.761	1.0
96.776	3.0
96.791	2.0
96.806	3.0
96.821	7.0
96.836	8.0
96.851	9.0
96.866	4.0
96.881	7.0
96.896	3.0
96.911	5.0
96.926	6.0
96.94	2.0
96.955	1.0
96.97	2.0
96.985	0.0
97.0	2.0
97.015	8.0
97.03	3.0
97.045	6.0
97.06	2.0
97.075	1.0
97.09	0.0
97.105	2.0
97.12	2.0
97.135	3.0
97.15	1.0
97.165	2.0
97.18	6.0
97.195	4.0
97.21	4.0
97.225	1.0
97.239	1.0
97.254	1.0
97.269	3.0
97.284	6.0
97.299	2.0
97.314	3.0
97.329	2.0
97.344	2.0
97.359	4.0
97.374	2.0
97.389	6.0
97.404	2.0
97.419	5.0
97.434	2.0
97.449	1.0
97.464	4.0
97.479	1.0
97.494	3.0
97.509	4.0
97.524	0.0
97.538	3.0
97.553	3.0
97.568	5.0
97.583	1.0
97.598	5.0
97.613	5.0
97.628	6.0
97.643	0.0
97.658	3.0
97.673	3.0
97.688	2.0
97.703	1.0
97.718	1.0
97.733	6.0
97.748	4.0
97.763	2.0
97.778	3.0
97.792	2.0
97.807	5.0
97.822	5.0
97.837	1.0
97.852	4.0
97.867	6.0
97.882	1.0
97.897	1.0
97.912	6.0
97.927	3.0
97.942	4.0
97.957	3.0
97.972	3.0
97.987	1.0
98.001	1.0
98.016	2.0
98.031	4.0
98.046	2.0
98.061	4.0
98.076	2.0
98.091	1.0
98.106	0.0
98.121	1.0
98.136	2.0
98.151	2.0
98.166	4.0
98.181	5.0
98.195	2.0
98.21	4.0
98.225	5.0
98.24	3.0
98.255	3.0
98.27	2.0
98.285	6.0
98.3	3.0
98.315	3.0
98.33	2.0
98.345	3.0
98.359	4.0
98.374	6.0
98.389	4.0
98.404	3.0
98.419	2.0
98.434	5.0
98.449	0.0
98.464	3.0
98.479	4.0
98.494	3.0
98.508	2.0
98.523	0.0
98.538	2.0
98.553	6.0
98.568	0.0
98.583	3.0
98.598	2.0
98.613	5.0
98.628	0.0
98.642	4.0
98.657	4.0
98.672	5.0
98.687	2.0
98.702	6.0
98.717	0.0
98.732	3.0
98.747	5.0
98.762	1.0
98.776	1.0
98.791	2.0
98.806	2.0
98.821	7.0
98.836	2.0
98.851	4.0
98.866	3.0
98.881	3.0
98.896	7.0
98.91	4.0
98.925	2.0
98.94	0.0
98.955	1.0
98.97	3.0
98.985	2.0
99.0	2.0
99.015	2.0
99.029	3.0
99.044	4.0
99.059	3.0
99.074	3.0
99.089	2.0
99.104	4.0
99.119	2.0
99.133	3.0
99.148	2.0
99.163	1.0
99.178	4.0
99.193	2.0
99.208	4.0
99.223	3.0
99.238	2.0
99.252	4.0
99.267	4.0
99.282	7.0
99.297	6.0
99.312	0.0
99.327	8.0
99.342	1.0
99.356	4.0
99.371	1.0
99.386	2.0
99.401	2.0
99.416	4.0
99.431	4.0
99.446	3.0
99.461	5.0
99.475	5.0
99.49	2.0
99.505	5.0
99.52	3.0
99.535	1.0
99.55	4.0
99.565	7.0
99.579	6.0
99.594	4.0
99.609	5.0
99.624	2.0
99.639	3.0
99.654	4.0
99.669	5.0
99.683	1.0
99.698	6.0
99.713	4.0
99.728	1.0
99.743	3.0
99.758	6.0
99.772	4.0
99.787	5.0
99.802	1.0
99.817	0.0
99.832	4.0
99.847	2.0
99.862	2.0
99.876	1.0
99.891	2.0
99.906	4.0
99.921	3.0
99.936	0.0
99.951	4.0
99.966	2.0
99.98	4.0
99.995	4.0
100.01	4.0
100.025	3.0
100.04	3.0
100.055	2.0
100.069	4.0
100.084	2.0
100.099	2.0
100.114	6.0
100.129	5.0
100.144	5.0
100.159	2.0
100.173	1.0
100.188	4.0
100.203	3.0
100.218	3.0
100.233	2.0
100.248	2.0
100.262	3.0
100.277	3.0
100.292	4.0
100.307	2.0
100.322	8.0
100.337	6.0
100.351	3.0
100.366	4.0
100.381	7.0
100.396	7.0
100.411	2.0
100.426	2.0
100.441	1.0
100.455	1.0
100.47	5.0
100.485	1.0
100.5	2.0
100.515	4.0
100.53	6.0
100.544	6.0
100.559	5.0
100.574	2.0
100.589	2.0
100.604	2.0
100.619	2.0
100.633	6.0
100.648	2.0
100.663	4.0
100.678	3.0
100.693	6.0
100.708	4.0
100.722	1.0
100.737	3.0
100.752	4.0
100.767	2.0
100.782	6.0
100.796	1.0
100.811	2.0
100.826	5.0
100.841	2.0
100.856	5.0
100.871	2.0
100.885	4.0
100.9	5.0
100.915	5.0
100.93	3.0
100.945	1.0
100.96	3.0
100.974	4.0
100.989	3.0
101.004	3.0
101.019	3.0
101.034	2.0
101.048	7.0
101.063	2.0
101.078	7.0
101.093	4.0
101.108	1.0
101.123	5.0
101.137	4.0
101.152	5.0
101.167	0.0
101.182	5.0
101.197	0.0
101.211	4.0
101.226	6.0
101.241	5.0
101.256	5.0
101.271	5.0
101.285	3.0
101.3	5.0
101.315	7.0
101.33	3.0
101.345	1.0
101.359	3.0
101.374	3.0
101.389	2.0
101.404	2.0
101.419	2.0
101.433	3.0
101.448	4.0
101.463	2.0
101.478	2.0
101.493	1.0
101.507	6.0
101.522	2.0
101.537	4.0
101.552	2.0
101.567	2.0
101.581	6.0
101.596	3.0
101.611	2.0
101.626	4.0
101.64	3.0
101.655	4.0
101.67	1.0
101.685	5.0
101.7	4.0
101.714	3.0
101.729	5.0
101.744	4.0
101.759	4.0
101.773	2.0
101.788	2.0
101.803	1.0
101.818	2.0
101.833	1.0
101.847	2.0
101.862	4.0
101.877	2.0
101.892	6.0
101.906	3.0
101.921	5.0
101.936	1.0
101.951	1.0
101.965	7.0
101.98	3.0
101.995	7.0
102.01	4.0
102.025	1.0
102.039	7.0
102.054	5.0
102.069	4.0
102.084	1.0
102.098	2.0
102.113	5.0
102.128	2.0
102.143	3.0
102.157	2.0
102.172	2.0
102.187	3.0
102.202	0.0
102.216	4.0
102.231	3.0
102.246	3.0
102.261	3.0
102.275	1.0
102.29	2.0
102.305	3.0
102.32	6.0
102.334	3.0
102.349	5.0
102.364	3.0
102.378	5.0
102.393	4.0
102.408	5.0
102.423	3.0
102.437	4.0
102.452	5.0
102.467	2.0
102.482	3.0
102.496	3.0
102.511	5.0
102.526	6.0
102.541	3.0
102.555	2.0
102.57	7.0
102.585	2.0
102.6	4.0
102.614	3.0
102.629	2.0
102.644	0.0
102.659	1.0
102.673	1.0
102.688	2.0
102.703	4.0
102.717	2.0
102.732	2.0
102.747	3.0
102.762	6.0
102.776	2.0
102.791	6.0
102.806	4.0
102.821	2.0
102.835	6.0
102.85	2.0
102.865	7.0
102.88	4.0
102.894	8.0
102.909	3.0
102.924	5.0
102.938	3.0
102.953	2.0
102.968	2.0
102.983	3.0
102.997	5.0
103.012	7.0
103.027	2.0
103.042	2.0
103.056	3.0
103.071	3.0
103.086	0.0
103.101	3.0
103.115	1.0
103.13	7.0
103.145	0.0
103.16	3.0
103.174	4.0
103.189	7.0
103.204	3.0
103.219	0.0
103.233	2.0
103.248	2.0
103.263	4.0
103.278	3.0
103.292	4.0
103.307	2.0
103.322	2.0
103.337	1.0
103.351	2.0
103.366	2.0
103.381	6.0
103.396	4.0
103.41	1.0
103.425	6.0
103.44	6.0
103.455	5.0
103.469	4.0
103.484	1.0
103.499	3.0
103.514	4.0
103.529	4.0
103.543	1.0
103.558	4.0
103.573	5.0
103.588	4.0
103.602	4.0
103.617	1.0
103.632	3.0
103.647	3.0
103.661	2.0
103.676	5.0
103.691	3.0
103.706	3.0
103.721	5.0
103.735	3.0
103.75	2.0
103.765	2.0
103.78	4.0
103.795	4.0
103.809	2.0
103.824	4.0
103.839	3.0
103.854	2.0
103.869	5.0
103.883	2.0
103.898	3.0
103.913	2.0
103.928	3.0
103.943	4.0
103.957	3.0
103.972	4.0
103.987	3.0
104.002	6.0
104.017	6.0
104.031	4.0
104.046	1.0
104.061	2.0
104.076	6.0
104.091	4.0
104.106	4.0
104.12	8.0
104.135	4.0
104.15	3.0
104.165	3.0
104.18	2.0
104.195	3.0
104.209	2.0
104.224	6.0
104.239	3.0
104.254	1.0
104.269	1.0
104.284	2.0
104.299	3.0
104.313	4.0
104.328	3.0
104.343	4.0
104.358	2.0
104.373	6.0
104.388	1.0
104.403	2.0
104.417	4.0
104.432	4.0
104.447	0.0
104.462	3.0
104.477	1.0
104.492	3.0
104.507	1.0
104.522	3.0
104.536	1.0
104.551	6.0
104.566	1.0
104.581	2.0
104.596	1.0
104.611	4.0
104.626	12.0
104.641	2.0
104.656	2.0
104.67	2.0
104.685	5.0
104.7	6.0
104.715	2.0
104.73	2.0
104.745	3.0
104.76	2.0
104.775	1.0
104.79	5.0
104.804	2.0
104.819	2.0
104.834	1.0
104.849	2.0
104.864	2.0
104.879	1.0
104.894	2.0
104.909	3.0
104.924	2.0
104.939	1.0
104.954	3.0
104.968	4.0
104.983	4.0
104.998	3.0
105.013	3.0
105.028	6.0
105.043	3.0
105.058	2.0
105.073	3.0
105.088	6.0
105.103	5.0
105.118	3.0
105.133	2.0
105.147	4.0
105.162	3.0
105.177	0.0
105.192	3.0
105.207	2.0
105.222	0.0
105.237	2.0
105.252	6.0
105.267	3.0
105.282	1.0
105.297	5.0
105.312	1.0
105.327	4.0
105.342	4.0
105.356	4.0
105.371	2.0
105.386	3.0
105.401	1.0
105.416	1.0
105.431	2.0
105.446	5.0
105.461	4.0
105.476	3.0
105.491	1.0
105.506	1.0
105.521	2.0
105.536	3.0
105.551	3.0
105.566	1.0
105.581	5.0
105.595	2.0
105.61	4.0
105.625	3.0
105.64	5.0
105.655	3.0
105.67	2.0
105.685	2.0
105.7	1.0
105.715	6.0
105.73	1.0
105.745	3.0
105.76	2.0
105.775	4.0
105.79	4.0
105.805	2.0
105.82	2.0
105.835	3.0
105.85	2.0
105.864	4.0
105.879	3.0
105.894	2.0
105.909	2.0
105.924	2.0
105.939	1.0
105.954	3.0
105.969	2.0
105.984	7.0
105.999	2.0
106.014	0.0
106.029	0.0
106.044	3.0
106.059	3.0
106.074	7.0
106.089	3.0
106.104	5.0
106.119	1.0
106.134	0.0
106.148	1.0
106.163	3.0
106.178	2.0
106.193	5.0
106.208	2.0
106.223	5.0
106.238	3.0
106.253	5.0
106.268	3.0
106.283	3.0
106.298	1.0
106.313	5.0
106.328	6.0
106.343	8.0
106.358	2.0
106.373	2.0
106.388	3.0
106.403	4.0
106.418	5.0
106.432	3.0
106.447	5.0
106.462	5.0
106.477	8.0
106.492	2.0
106.507	4.0
106.522	8.0
106.537	2.0
106.552	1.0
106.567	7.0
106.582	3.0
106.597	6.0
106.612	4.0
106.627	1.0
106.642	3.0
106.657	6.0
106.672	3.0
106.687	4.0
106.701	3.0
106.716	1.0
106.731	2.0
106.746	4.0
106.761	2.0
106.776	2.0
106.791	3.0
106.806	2.0
106.821	1.0
106.836	3.0
106.851	4.0
106.866	1.0
106.881	8.0
106.896	2.0
106.911	3.0
106.926	4.0
106.941	3.0
106.955	6.0
106.97	1.0
106.985	0.0
107.0	2.0
107.015	5.0
107.03	2.0
107.045	2.0
107.06	2.0
107.075	2.0
107.09	4.0
107.105	1.0
107.12	2.0
107.135	8.0
107.15	9.0
107.165	6.0
107.18	5.0
107.194	4.0
107.209	3.0
107.224	4.0
107.239	6.0
107.254	1.0
107.269	3.0
107.284	5.0
107.299	4.0
107.314	3.0
107.329	1.0
107.344	3.0
107.359	6.0
107.374	4.0
107.389	3.0
107.404	1.0
107.418	1.0
107.433	1.0
107.448	5.0
107.463	2.0
107.478	2.0
107.493	0.0
107.508	1.0
107.523	4.0
107.538	5.0
107.553	4.0
107.568	2.0
107.583	3.0
107.598	2.0
107.613	3.0
107.627	1.0
107.642	4.0
107.657	3.0
107.672	1.0
107.687	6.0
107.702	5.0
107.717	1.0
107.732	3.0
107.747	0.0
107.762	2.0
107.777	2.0
107.792	4.0
107.807	1.0
107.821	1.0
107.836	5.0
107.851	3.0
107.866	6.0
107.881	3.0
107.896	1.0
107.911	3.0
107.926	2.0
107.941	7.0
107.956	8.0
107.971	2.0
107.986	2.0
108.0	4.0
108.015	4.0
108.03	1.0
108.045	3.0
108.06	4.0
108.075	3.0
108.09	4.0
108.105	3.0
108.12	2.0
108.135	3.0
108.15	5.0
108.164	5.0
108.179	9.0
108.194	5.0
108.209	5.0
108.224	1.0
108.239	7.0
108.254	5.0
108.269	3.0
108.284	4.0
108.299	3.0
108.313	2.0
108.328	2.0
108.343	2.0
108.358	2.0
108.373	0.0
108.388	5.0
108.403	2.0
108.418	5.0
108.433	1.0
108.448	5.0
108.462	1.0
108.477	3.0
108.492	4.0
108.507	3.0
108.522	1.0
108.537	6.0
108.552	3.0
108.567	6.0
108.582	2.0
108.597	1.0
108.611	4.0
108.626	2.0
108.641	3.0
108.656	4.0
108.671	1.0
108.686	4.0
108.701	5.0
108.716	4.0
108.731	0.0
108.745	5.0
108.76	3.0
108.775	1.0
108.79	2.0
108.805	1.0
108.82	4.0
108.835	1.0
108.85	4.0
108.865	1.0
108.879	1.0
108.894	4.0
108.909	8.0
108.924	8.0
108.939	3.0
108.954	9.0
108.969	3.0
108.984	5.0
108.999	1.0
109.013	3.0
109.028	4.0
109.043	4.0
109.058	0.0
109.073	1.0
109.088	4.0
109.103	2.0
109.118	1.0
109.133	1.0
109.147	4.0
109.162	5.0
109.177	4.0
109.192	1.0
109.207	3.0
109.222	7.0
109.237	2.0
109.252	1.0
109.267	9.0
109.281	1.0
109.296	3.0
109.311	2.0
109.326	6.0
109.341	1.0
109.356	3.0
109.371	5.0
109.386	6.0
109.4	4.0
109.415	3.0
109.43	2.0
109.445	7.0
109.46	3.0
109.475	3.0
109.49	5.0
109.505	0.0
109.52	4.0
109.534	1.0
109.549	4.0
109.564	1.0
109.579	1.0
109.594	2.0
109.609	1.0
109.624	3.0
109.639	2.0
109.653	4.0
109.668	4.0
109.683	6.0
109.698	1.0
109.713	2.0
109.728	3.0
109.743	3.0
109.758	4.0
109.773	3.0
109.787	1.0
109.802	3.0
109.817	2.0
109.832	5.0
109.847	2.0
109.862	3.0
109.877	3.0
109.892	2.0
109.907	2.0
109.921	5.0
109.936	6.0
109.951	3.0
109.966	3.0
109.981	4.0
109.996	2.0
110.011	2.0
110.026	2.0
110.04	3.0
110.055	2.0
110.07	4.0
110.085	1.0
110.1	0.0
110.115	2.0
110.13	1.0
110.145	4.0
110.16	2.0
110.174	3.0
110.189	3.0
110.204	1.0
110.219	4.0
110.234	0.0
110.249	4.0
110.264	5.0
110.279	5.0
110.294	2.0
110.308	3.0
110.323	2.0
110.338	3.0
110.353	1.0
110.368	3.0
110.383	4.0
110.398	5.0
110.413	2.0
110.428	3.0
110.442	5.0
110.457	1.0
110.472	3.0
110.487	4.0
110.502	4.0
110.517	5.0
110.532	1.0
110.547	5.0
110.561	1.0
110.576	6.0
110.591	3.0
110.606	0.0
110.621	7.0
110.636	1.0
110.651	3.0
110.666	7.0
110.681	4.0
110.695	7.0
110.71	3.0
110.725	4.0
110.74	3.0
110.755	5.0
110.77	5.0
110.785	3.0
110.8	6.0
110.815	3.0
110.829	3.0
110.844	2.0
110.859	7.0
110.874	4.0
110.889	0.0
110.904	1.0
110.919	6.0
110.934	5.0
110.948	4.0
110.963	2.0
110.978	3.0
110.993	1.0
111.008	4.0
111.023	1.0
111.038	5.0
111.053	1.0
111.067	1.0
111.082	1.0
111.097	3.0
111.112	4.0
111.127	4.0
111.142	5.0
111.157	3.0
111.172	3.0
111.186	6.0
111.201	2.0
111.216	6.0
111.231	1.0
111.246	3.0
111.261	2.0
111.276	6.0
111.291	1.0
111.305	0.0
111.32	4.0
111.335	3.0
111.35	5.0
111.365	5.0
111.38	6.0
111.395	4.0
111.41	3.0
111.424	5.0
111.439	4.0
111.454	1.0
111.469	7.0
111.484	4.0
111.499	3.0
111.514	6.0
111.528	3.0
111.543	2.0
111.558	3.0
111.573	5.0
111.588	2.0
111.603	3.0
111.618	5.0
111.633	0.0
111.647	4.0
111.662	2.0
111.677	6.0
111.692	6.0
111.707	4.0
111.722	7.0
111.737	7.0
111.751	3.0
111.766	5.0
111.781	5.0
111.796	8.0
111.811	1.0
111.826	5.0
111.84	9.0
111.855	4.0
111.87	2.0
111.885	2.0
111.9	2.0
111.915	3.0
111.93	1.0
111.944	1.0
111.959	4.0
111.974	0.0
111.989	2.0
112.004	1.0
112.019	4.0
112.033	2.0
112.048	3.0
112.063	7.0
112.078	4.0
112.093	9.0
112.108	3.0
112.123	4.0
112.137	6.0
112.152	5.0
112.167	4.0
112.182	3.0
112.197	6.0
112.212	2.0
112.226	4.0
112.241	5.0
112.256	5.0
112.271	1.0
112.286	6.0
112.301	5.0
112.315	3.0
112.33	5.0
112.345	3.0
112.36	2.0
112.375	2.0
112.389	5.0
112.404	5.0
112.419	3.0
112.434	4.0
112.449	3.0
112.464	6.0
112.478	6.0
112.493	7.0
112.508	1.0
112.523	3.0
112.538	0.0
112.553	2.0
112.567	1.0
112.582	3.0
112.597	6.0
112.612	3.0
112.627	6.0
112.642	5.0
112.656	3.0
112.671	4.0
112.686	4.0
112.701	6.0
112.716	1.0
112.73	5.0
112.745	2.0
112.76	5.0
112.775	2.0
112.79	2.0
112.805	6.0
112.819	5.0
112.834	6.0
112.849	2.0
112.864	4.0
112.879	4.0
112.894	2.0
112.908	2.0
112.923	5.0
112.938	6.0
112.953	4.0
112.968	2.0
112.983	6.0
112.997	5.0
113.012	3.0
113.027	6.0
113.042	4.0
113.057	4.0
113.072	4.0
113.086	2.0
113.101	2.0
113.116	2.0
113.131	2.0
113.146	5.0
113.161	4.0
113.175	8.0
113.19	3.0
113.205	1.0
113.22	1.0
113.235	2.0
113.25	3.0
113.265	3.0
113.279	3.0
113.294	5.0
113.309	7.0
113.324	4.0
113.339	2.0
113.354	6.0
113.368	2.0
113.383	5.0
113.398	5.0
113.413	4.0
113.428	5.0
113.443	5.0
113.458	2.0
113.472	4.0
113.487	2.0
113.502	5.0
113.517	4.0
113.532	3.0
113.547	3.0
113.562	4.0
113.576	1.0
113.591	5.0
113.606	2.0
113.621	3.0
113.636	2.0
113.651	3.0
113.666	3.0
113.681	1.0
113.695	3.0
113.71	6.0
113.725	2.0
113.74	2.0
113.755	4.0
113.77	4.0
113.785	2.0
113.8	4.0
113.814	5.0
113.829	5.0
113.844	4.0
113.859	4.0
113.874	8.0
113.889	6.0
113.904	1.0
113.919	4.0
113.934	2.0
113.949	4.0
113.963	2.0
113.978	4.0
113.993	2.0
114.008	5.0
114.023	4.0
114.038	4.0
114.053	3.0
114.068	3.0
114.083	1.0
114.098	1.0
114.113	2.0
114.127	1.0
114.142	1.0
114.157	4.0
114.172	4.0
114.187	1.0
114.202	3.0
114.217	0.0
114.232	4.0
114.247	2.0
114.262	3.0
114.277	1.0
114.292	5.0
114.307	3.0
114.322	7.0
114.337	2.0
114.351	2.0
114.366	4.0
114.381	7.0
114.396	3.0
114.411	1.0
114.426	3.0
114.441	6.0
114.456	4.0
114.471	5.0
114.486	3.0
114.501	4.0
114.516	4.0
114.531	2.0
114.546	4.0
114.561	4.0
114.576	7.0
114.591	3.0
114.606	4.0
114.621	4.0
114.636	7.0
114.65	5.0
114.665	3.0
114.68	7.0
114.695	4.0
114.71	6.0
114.725	3.0
114.74	3.0
114.755	6.0
114.77	6.0
114.785	2.0
114.8	3.0
114.815	2.0
114.83	1.0
114.845	3.0
114.86	2.0
114.875	6.0
114.89	6.0
114.905	4.0
114.92	0.0
114.935	4.0
114.95	1.0
114.965	3.0
114.98	4.0
114.995	2.0
115.009	4.0
115.024	2.0
115.039	3.0
115.054	5.0
115.069	6.0
115.084	3.0
115.099	4.0
115.114	4.0
115.129	6.0
115.144	3.0
115.159	4.0
115.174	4.0
115.189	2.0
115.204	7.0
115.219	8.0
115.234	3.0
115.249	2.0
115.264	3.0
115.279	6.0
115.294	2.0
115.309	3.0
115.323	4.0
115.338	1.0
115.353	2.0
115.368	5.0
115.383	5.0
115.398	3.0
115.413	0.0
115.428	4.0
115.443	5.0
115.458	1.0
115.473	3.0
115.488	2.0
115.503	3.0
115.518	2.0
115.533	2.0
115.548	5.0
115.562	1.0
115.577	4.0
115.592	4.0
115.607	6.0
115.622	5.0
115.637	3.0
115.652	2.0
115.667	3.0
115.682	4.0
115.697	3.0
115.712	5.0
115.727	2.0
115.741	2.0
115.756	3.0
115.771	3.0
115.786	5.0
115.801	8.0
115.816	4.0
115.831	1.0
115.846	3.0
115.861	7.0
115.875	2.0
115.89	1.0
115.905	2.0
115.92	4.0
115.935	1.0
115.95	4.0
115.965	3.0
115.98	3.0
115.995	1.0
116.009	6.0
116.024	1.0
116.039	5.0
116.054	3.0
116.069	1.0
116.084	5.0
116.099	2.0
116.113	4.0
116.128	6.0
116.143	4.0
116.158	4.0
116.173	7.0
116.188	4.0
116.202	4.0
116.217	3.0
116.232	4.0
116.247	4.0
116.262	4.0
116.277	2.0
116.291	7.0
116.306	1.0
116.321	5.0
116.336	4.0
116.351	5.0
116.366	1.0
116.38	5.0
116.395	3.0
116.41	8.0
116.425	3.0
116.44	6.0
116.454	0.0
116.469	2.0
116.484	3.0
116.499	6.0
116.514	3.0
116.528	7.0
116.543	9.0
116.558	1.0
116.573	6.0
116.588	6.0
116.602	1.0
116.617	4.0
116.632	4.0
116.647	1.0
116.662	7.0
116.676	3.0
116.691	5.0
116.706	2.0
116.721	4.0
116.735	4.0
116.75	3.0
116.765	7.0
116.78	2.0
116.795	1.0
116.809	3.0
116.824	6.0
116.839	4.0
116.854	2.0
116.868	4.0
116.883	3.0
116.898	0.0
116.913	2.0
116.927	1.0
116.942	4.0
116.957	4.0
116.972	5.0
116.986	5.0
117.001	3.0
117.016	3.0
117.031	4.0
117.045	7.0
117.06	2.0
117.075	3.0
117.09	5.0
117.104	2.0
117.119	3.0
117.134	6.0
117.149	3.0
117.163	3.0
117.178	6.0
117.193	2.0
117.208	4.0
117.222	4.0
117.237	5.0
117.252	5.0
117.267	3.0
117.281	7.0
117.296	2.0
117.311	4.0
117.325	2.0
117.34	7.0
117.355	3.0
117.37	4.0
117.384	4.0
117.399	1.0
117.414	5.0
117.429	8.0
117.443	5.0
117.458	3.0
117.473	5.0
117.487	4.0
117.502	3.0
117.517	4.0
117.532	2.0
117.546	6.0
117.561	5.0
117.576	6.0
117.59	7.0
117.605	9.0
117.62	1.0
117.635	4.0
117.649	3.0
117.664	0.0
117.679	4.0
117.693	4.0
117.708	3.0
117.723	4.0
117.738	1.0
117.752	3.0
117.767	5.0
117.782	2.0
117.796	6.0
117.811	3.0
117.826	2.0
117.841	3.0
117.855	4.0
117.87	7.0
117.885	4.0
117.899	3.0
117.914	7.0
117.929	3.0
117.944	3.0
117.958	2.0
117.973	5.0
117.988	2.0
118.002	5.0
118.017	3.0
118.032	2.0
118.047	5.0
118.062	4.0
118.077	6.0
118.092	8.0
118.107	3.0
118.121	3.0
118.136	5.0
118.151	8.0
118.166	4.0
118.181	2.0
118.196	7.0
118.211	4.0
118.225	4.0
118.24	4.0
118.255	5.0
118.27	2.0
118.285	8.0
118.3	5.0
118.315	8.0
118.33	1.0
118.344	1.0
118.359	5.0
118.374	4.0
118.389	4.0
118.404	3.0
118.419	6.0
118.434	5.0
118.449	2.0
118.463	2.0
118.478	4.0
118.493	2.0
118.508	6.0
118.523	2.0
118.538	6.0
118.553	3.0
118.567	1.0
118.582	4.0
118.597	3.0
118.612	2.0
118.627	7.0
118.642	1.0
118.657	4.0
118.672	3.0
118.686	3.0
118.701	4.0
118.716	7.0
118.731	3.0
118.746	7.0
118.761	5.0
118.776	3.0
118.791	5.0
118.805	3.0
118.82	5.0
118.835	2.0
118.85	1.0
118.865	0.0
118.88	3.0
118.895	3.0
118.909	6.0
118.924	7.0
118.939	1.0
118.954	2.0
118.969	2.0
118.984	7.0
118.999	2.0
119.014	2.0
119.028	2.0
119.043	3.0
119.058	6.0
119.073	5.0
119.088	5.0
119.103	3.0
119.118	3.0
119.133	2.0
119.147	1.0
119.162	4.0
119.177	4.0
119.192	4.0
119.207	0.0
119.222	2.0
119.237	4.0
119.251	3.0
119.266	6.0
119.281	6.0
119.296	5.0
119.311	2.0
119.326	1.0
119.341	4.0
119.356	4.0
119.37	0.0
119.385	5.0
119.4	4.0
119.415	3.0
119.43	5.0
119.445	3.0
119.46	4.0
119.475	3.0
119.489	3.0
119.504	2.0
119.519	6.0
119.534	4.0
119.549	6.0
119.564	4.0
119.579	6.0
119.593	1.0
119.608	1.0
119.623	1.0
119.638	2.0
119.653	7.0
119.668	6.0
119.683	1.0
119.698	2.0
119.712	4.0
119.727	3.0
119.742	5.0
119.757	5.0
119.772	4.0
119.787	2.0
119.802	2.0
119.817	2.0
119.831	3.0
119.846	1.0
119.861	2.0
119.876	4.0
119.891	1.0
119.906	1.0
119.921	3.0
119.935	5.0
119.95	2.0
119.965	5.0
119.98	5.0
119.995	0.0
120.01	2.0
120.025	4.0
120.04	0.0
120.054	2.0
120.069	2.0
120.084	3.0
120.099	1.0
120.114	0.0
120.129	1.0
120.144	1.0
120.159	2.0
120.173	1.0
120.188	0.0
120.203	4.0
120.218	0.0
120.233	2.0
120.248	0.0
120.263	0.0
120.277	0.0
120.292	1.0
120.307	0.0
120.322	0.0
120.337	0.0
120.352	0.0
120.367	1.0
120.382	0.0
120.396	0.0
120.411	0.0
120.426	0.0
120.441	0.0
120.456	0.0
120.471	0.0
120.486	0.0
120.501	0.0
120.515	2.0
120.53	0.0
120.545	0.0
120.56	0.0
120.575	0.0
120.59	2.0
120.605	0.0
120.619	0.0
120.634	0.0
120.649	0.0
120.664	1.0
120.679	0.0
120.694	0.0
120.709	0.0
120.724	0.0
120.738	0.0
120.753	0.0
120.768	0.0
120.783	0.0
120.798	1.0
120.813	0.0
120.828	0.0
120.843	0.0
120.857	0.0
120.872	0.0
120.887	0.0
120.902	0.0
120.917	0.0
120.932	0.0
120.947	0.0
120.961	0.0
120.976	0.0
