-1.217	0.0
-1.202	0.0
-1.187	1.0
-1.172	0.0
-1.157	0.0
-1.142	0.0
-1.128	0.0
-1.113	0.0
-1.098	0.0
-1.083	0.0
-1.068	0.0
-1.054	0.0
-1.039	0.0
-1.024	0.0
-1.009	0.0
-0.994	0.0
-0.979	0.0
-0.965	0.0
-0.95	0.0
-0.935	0.0
-0.92	0.0
-0.905	0.0
-0.891	0.0
-0.876	0.0
-0.861	0.0
-0.846	0.0
-0.831	0.0
-0.816	0.0
-0.802	0.0
-0.787	0.0
-0.772	0.0
-0.757	0.0
-0.742	0.0
-0.728	0.0
-0.713	0.0
-0.698	0.0
-0.683	0.0
-0.668	0.0
-0.653	0.0
-0.639	0.0
-0.624	0.0
-0.609	0.0
-0.594	0.0
-0.579	0.0
-0.565	0.0
-0.55	0.0
-0.535	0.0
-0.52	0.0
-0.505	0.0
-0.49	0.0
-0.476	0.0
-0.461	0.0
-0.446	0.0
-0.431	0.0
-0.416	0.0
-0.401	0.0
-0.387	0.0
-0.372	0.0
-0.357	0.0
-0.342	0.0
-0.327	0.0
-0.313	0.0
-0.298	0.0
-0.283	0.0
-0.268	0.0
-0.253	0.0
-0.238	0.0
-0.224	0.0
-0.209	0.0
-0.194	0.0
-0.179	0.0
-0.164	0.0
-0.15	0.0
-0.135	0.0
-0.12	0.0
-0.105	1.0
-0.09	0.0
-0.075	0.0
-0.061	1.0
-0.046	0.0
-0.031	0.0
-0.016	0.0
-0.001	0.0
0.013	0.0
0.028	1.0
0.043	1.0
0.058	0.0
0.073	0.0
0.088	0.0
0.102	0.0
0.117	0.0
0.132	0.0
0.147	0.0
0.162	0.0
0.176	0.0
0.191	0.0
0.206	0.0
0.221	0.0
0.236	0.0
0.251	0.0
0.265	0.0
0.28	0.0
0.295	0.0
0.31	0.0
0.325	0.0
0.339	0.0
0.354	0.0
0.369	0.0
0.384	0.0
0.399	0.0
0.414	1.0
0.428	0.0
0.443	0.0
0.458	0.0
0.473	0.0
0.488	0.0
0.502	0.0
0.517	0.0
0.532	0.0
0.547	0.0
0.562	0.0
0.577	0.0
0.591	0.0
0.606	1.0
0.621	0.0
0.636	0.0
0.651	0.0
0.665	0.0
0.68	0.0
0.695	0.0
0.71	0.0
0.725	0.0
0.74	0.0
0.754	0.0
0.769	0.0
0.784	0.0
0.799	0.0
0.814	0.0
0.828	0.0
0.843	0.0
0.858	0.0
0.873	0.0
0.888	0.0
0.903	0.0
0.917	0.0
0.932	0.0
0.947	0.0
0.962	0.0
0.977	0.0
0.991	0.0
1.006	0.0
1.021	0.0
1.036	0.0
1.051	0.0
1.065	0.0
1.08	0.0
1.095	0.0
1.11	0.0
1.125	0.0
1.14	0.0
1.154	0.0
1.169	0.0
1.184	0.0
1.199	0.0
1.214	0.0
1.228	0.0
1.243	0.0
1.258	0.0
1.273	1.0
1.288	0.0
1.302	1.0
1.317	0.0
1.332	0.0
1.347	0.0
1.362	0.0
1.376	0.0
1.391	0.0
1.406	0.0
1.421	0.0
1.436	1.0
1.45	1.0
1.465	0.0
1.48	0.0
1.495	0.0
1.51	0.0
1.524	0.0
1.539	0.0
1.554	0.0
1.569	0.0
1.584	0.0
1.598	0.0
1.613	0.0
1.628	0.0
1.643	0.0
1.658	0.0
1.672	0.0
1.687	0.0
1.702	0.0
1.717	0.0
1.732	0.0
1.746	0.0
1.761	0.0
1.776	0.0
1.791	0.0
1.806	0.0
1.82	0.0
1.835	0.0
1.85	0.0
1.865	0.0
1.88	0.0
1.894	0.0
1.909	1.0
1.924	0.0
1.939	0.0
1.954	0.0
1.968	0.0
1.983	1.0
1.998	0.0
2.013	0.0
2.028	0.0
2.042	0.0
2.057	0.0
2.072	0.0
2.087	0.0
2.101	0.0
2.116	0.0
2.131	0.0
2.146	2.0
2.161	2.0
2.175	1.0
2.19	1.0
2.205	0.0
2.22	0.0
2.235	0.0
2.249	0.0
2.264	0.0
2.279	1.0
2.294	2.0
2.308	0.0
2.323	2.0
2.338	1.0
2.353	1.0
2.368	0.0
2.382	0.0
2.397	1.0
2.412	0.0
2.427	0.0
2.442	3.0
2.456	1.0
2.471	0.0
2.486	1.0
2.501	0.0
2.515	0.0
2.53	6.0
2.545	3.0
2.56	2.0
2.575	4.0
2.589	1.0
2.604	2.0
2.619	2.0
2.634	4.0
2.649	4.0
2.663	6.0
2.678	1.0
2.693	3.0
2.708	0.0
2.722	2.0
2.737	1.0
2.752	3.0
2.767	0.0
2.782	0.0
2.796	6.0
2.811	2.0
2.826	5.0
2.841	3.0
2.856	2.0
2.87	1.0
2.885	4.0
2.9	7.0
2.915	6.0
2.93	2.0
2.944	1.0
2.959	2.0
2.974	1.0
2.989	3.0
3.004	4.0
3.018	3.0
3.033	3.0
3.048	5.0
3.063	3.0
3.078	2.0
3.092	1.0
3.107	2.0
3.122	0.0
3.137	6.0
3.152	7.0
3.166	3.0
3.181	6.0
3.196	5.0
3.211	1.0
3.226	9.0
3.24	5.0
3.255	4.0
3.27	8.0
3.285	4.0
3.3	7.0
3.315	6.0
3.329	1.0
3.344	5.0
3.359	5.0
3.374	6.0
3.389	3.0
3.403	3.0
3.418	7.0
3.433	6.0
3.448	3.0
3.463	3.0
3.478	11.0
3.492	2.0
3.507	6.0
3.522	3.0
3.537	2.0
3.552	4.0
3.567	4.0
3.581	1.0
3.596	6.0
3.611	4.0
3.626	3.0
3.641	8.0
3.656	4.0
3.671	7.0
3.685	7.0
3.7	6.0
3.715	7.0
3.73	9.0
3.745	2.0
3.76	9.0
3.775	3.0
3.789	6.0
3.804	8.0
3.819	10.0
3.834	7.0
3.849	9.0
3.864	6.0
3.879	5.0
3.894	3.0
3.908	9.0
3.923	10.0
3.938	5.0
3.953	5.0
3.968	2.0
3.983	7.0
3.998	7.0
4.013	8.0
4.027	6.0
4.042	9.0
4.057	4.0
4.072	12.0
4.087	9.0
4.102	4.0
4.117	4.0
4.132	3.0
4.147	4.0
4.162	6.0
4.176	10.0
4.191	9.0
4.206	5.0
4.221	6.0
4.236	6.0
4.251	6.0
4.266	4.0
4.281	4.0
4.296	4.0
4.311	5.0
4.326	7.0
4.341	8.0
4.356	5.0
4.37	4.0
4.385	6.0
4.4	7.0
4.415	8.0
4.43	6.0
4.445	4.0
4.46	9.0
4.475	5.0
4.49	8.0
4.505	3.0
4.52	7.0
4.535	9.0
4.55	6.0
4.565	6.0
4.58	11.0
4.595	5.0
4.61	5.0
4.625	6.0
4.639	8.0
4.654	14.0
4.669	5.0
4.684	7.0
4.699	5.0
4.714	4.0
4.729	8.0
4.744	9.0
4.759	5.0
4.774	4.0
4.789	8.0
4.804	8.0
4.819	14.0
4.834	7.0
4.849	8.0
4.864	4.0
4.879	11.0
4.894	17.0
4.909	10.0
4.924	4.0
4.939	6.0
4.954	8.0
4.969	6.0
4.984	12.0
4.999	4.0
5.014	9.0
5.029	7.0
5.044	11.0
5.059	8.0
5.074	9.0
5.089	7.0
5.104	9.0
5.119	4.0
5.134	10.0
5.149	8.0
5.164	8.0
5.179	8.0
5.194	8.0
5.209	10.0
5.224	5.0
5.239	6.0
5.254	8.0
5.269	6.0
5.284	14.0
5.299	6.0
5.314	9.0
5.329	7.0
5.344	10.0
5.359	13.0
5.374	10.0
5.389	4.0
5.404	10.0
5.419	10.0
5.434	7.0
5.449	5.0
5.464	5.0
5.479	7.0
5.494	5.0
5.509	13.0
5.524	4.0
5.539	12.0
5.554	5.0
5.569	15.0
5.584	9.0
5.599	7.0
5.614	6.0
5.629	13.0
5.644	11.0
5.659	14.0
5.674	10.0
5.689	10.0
5.704	9.0
5.719	6.0
5.734	8.0
5.749	12.0
5.764	11.0
5.779	7.0
5.794	8.0
5.809	5.0
5.824	5.0
5.839	8.0
5.854	4.0
5.869	7.0
5.884	9.0
5.899	11.0
5.914	8.0
5.929	5.0
5.944	8.0
5.959	15.0
5.974	10.0
5.989	6.0
6.004	6.0
6.019	11.0
6.034	14.0
6.049	4.0
6.064	9.0
6.079	16.0
6.094	11.0
6.109	10.0
6.124	11.0
6.139	11.0
6.154	7.0
6.169	9.0
6.184	15.0
6.199	8.0
6.214	10.0
6.229	5.0
6.244	6.0
6.259	7.0
6.274	7.0
6.289	7.0
6.304	8.0
6.319	8.0
6.334	6.0
6.349	8.0
6.364	5.0
6.379	5.0
6.394	9.0
6.409	9.0
6.424	5.0
6.439	12.0
6.454	9.0
6.469	9.0
6.484	11.0
6.499	15.0
6.514	9.0
6.529	8.0
6.544	9.0
6.559	5.0
6.574	8.0
6.589	10.0
6.604	13.0
6.619	7.0
6.634	3.0
6.649	11.0
6.664	10.0
6.679	10.0
6.694	13.0
6.709	11.0
6.724	14.0
6.739	15.0
6.754	8.0
6.769	6.0
6.784	7.0
6.799	9.0
6.814	13.0
6.829	13.0
6.844	10.0
6.859	6.0
6.873	12.0
6.888	11.0
6.903	10.0
6.918	10.0
6.933	7.0
6.948	7.0
6.963	6.0
6.978	6.0
6.993	7.0
7.008	10.0
7.023	7.0
7.038	7.0
7.053	4.0
7.068	12.0
7.083	9.0
7.098	10.0
7.113	4.0
7.128	15.0
7.143	10.0
7.157	10.0
7.172	7.0
7.187	9.0
7.202	8.0
7.217	10.0
7.232	6.0
7.247	5.0
7.262	9.0
7.277	11.0
7.292	12.0
7.307	7.0
7.322	8.0
7.336	8.0
7.351	6.0
7.366	8.0
7.381	10.0
7.396	12.0
7.411	11.0
7.426	11.0
7.441	10.0
7.456	7.0
7.471	15.0
7.485	9.0
7.5	5.0
7.515	8.0
7.53	9.0
7.545	5.0
7.56	12.0
7.575	11.0
7.59	9.0
7.604	11.0
7.619	12.0
7.634	8.0
7.649	7.0
7.664	8.0
7.679	3.0
7.693	5.0
7.708	11.0
7.723	9.0
7.738	7.0
7.753	12.0
7.768	9.0
7.783	11.0
7.797	11.0
7.812	7.0
7.827	8.0
7.842	3.0
7.857	10.0
7.871	6.0
7.886	8.0
7.901	10.0
7.916	6.0
7.931	9.0
7.945	12.0
7.96	8.0
7.975	10.0
7.99	14.0
8.005	11.0
8.019	9.0
8.034	10.0
8.049	8.0
8.064	7.0
8.078	8.0
8.093	7.0
8.108	13.0
8.123	6.0
8.137	8.0
8.152	12.0
8.167	11.0
8.182	9.0
8.196	6.0
8.211	8.0
8.226	7.0
8.241	11.0
8.255	14.0
8.27	6.0
8.285	6.0
8.3	5.0
8.314	12.0
8.329	9.0
8.344	9.0
8.358	14.0
8.373	12.0
8.388	5.0
8.403	10.0
8.417	8.0
8.432	9.0
8.447	10.0
8.461	11.0
8.476	13.0
8.491	12.0
8.505	10.0
8.52	8.0
8.535	13.0
8.55	7.0
8.564	7.0
8.579	11.0
8.594	12.0
8.608	9.0
8.623	8.0
8.638	13.0
8.652	10.0
8.667	9.0
8.682	8.0
8.696	7.0
8.711	3.0
8.726	16.0
8.74	12.0
8.755	13.0
8.77	5.0
8.784	10.0
8.799	9.0
8.814	16.0
8.828	7.0
8.843	8.0
8.858	6.0
8.872	10.0
8.887	8.0
8.902	13.0
8.916	8.0
8.931	8.0
8.946	9.0
8.96	10.0
8.975	6.0
8.99	9.0
9.004	10.0
9.019	15.0
9.034	7.0
9.048	15.0
9.063	12.0
9.077	7.0
9.092	9.0
9.107	3.0
9.121	13.0
9.136	7.0
9.151	8.0
9.165	11.0
9.18	9.0
9.195	9.0
9.209	7.0
9.224	6.0
9.239	6.0
9.253	7.0
9.268	10.0
9.283	9.0
9.297	11.0
9.312	10.0
9.327	7.0
9.341	8.0
9.356	8.0
9.371	7.0
9.385	8.0
9.4	8.0
9.415	9.0
9.429	5.0
9.444	9.0
9.458	10.0
9.473	12.0
9.488	8.0
9.502	9.0
9.517	13.0
9.532	7.0
9.546	6.0
9.561	8.0
9.576	5.0
9.59	10.0
9.605	5.0
9.62	6.0
9.635	8.0
9.649	16.0
9.664	12.0
9.679	6.0
9.693	9.0
9.708	6.0
9.723	8.0
9.737	9.0
9.752	5.0
9.767	10.0
9.781	14.0
9.796	5.0
9.811	12.0
9.825	8.0
9.84	9.0
9.855	14.0
9.87	10.0
9.884	9.0
9.899	10.0
9.914	9.0
9.928	10.0
9.943	15.0
9.958	6.0
9.973	13.0
9.987	6.0
10.002	9.0
10.017	12.0
10.031	8.0
10.046	9.0
10.061	13.0
10.076	9.0
10.09	7.0
10.105	10.0
10.12	4.0
10.135	11.0
10.149	7.0
10.164	8.0
10.179	9.0
10.194	11.0
10.208	9.0
10.223	6.0
10.238	9.0
10.253	6.0
10.267	4.0
10.282	8.0
10.297	13.0
10.312	11.0
10.326	11.0
10.341	10.0
10.356	6.0
10.371	9.0
10.386	13.0
10.4	6.0
10.415	9.0
10.43	4.0
10.445	10.0
10.46	2.0
10.474	7.0
10.489	11.0
10.504	10.0
10.519	8.0
10.533	10.0
10.548	5.0
10.563	8.0
10.578	8.0
10.593	13.0
10.608	9.0
10.622	3.0
10.637	10.0
10.652	6.0
10.667	9.0
10.682	10.0
10.696	11.0
10.711	7.0
10.726	9.0
10.741	5.0
10.756	10.0
10.771	10.0
10.785	10.0
10.8	6.0
10.815	5.0
10.83	10.0
10.845	5.0
10.86	9.0
10.874	4.0
10.889	7.0
10.904	7.0
10.919	8.0
10.934	7.0
10.949	9.0
10.963	6.0
10.978	8.0
10.993	5.0
11.008	9.0
11.023	6.0
11.038	4.0
11.053	8.0
11.067	9.0
11.082	6.0
11.097	8.0
11.112	13.0
11.127	8.0
11.142	8.0
11.157	14.0
11.172	7.0
11.186	6.0
11.201	9.0
11.216	14.0
11.231	11.0
11.246	10.0
11.261	7.0
11.276	9.0
11.291	9.0
11.305	4.0
11.32	9.0
11.335	5.0
11.35	8.0
11.365	13.0
11.38	6.0
11.395	8.0
11.41	10.0
11.424	7.0
11.439	6.0
11.454	13.0
11.469	9.0
11.484	6.0
11.499	4.0
11.514	11.0
11.529	6.0
11.544	5.0
11.558	3.0
11.573	6.0
11.588	8.0
11.603	12.0
11.618	4.0
11.633	8.0
11.648	12.0
11.663	5.0
11.678	4.0
11.693	9.0
11.707	4.0
11.722	6.0
11.737	5.0
11.752	10.0
11.767	11.0
11.782	4.0
11.797	4.0
11.812	9.0
11.827	11.0
11.842	8.0
11.856	13.0
11.871	5.0
11.886	8.0
11.901	6.0
11.916	10.0
11.931	13.0
11.946	12.0
11.961	8.0
11.976	13.0
11.991	15.0
12.006	10.0
12.02	14.0
12.035	9.0
12.05	10.0
12.065	15.0
12.08	11.0
12.095	7.0
12.11	12.0
12.125	10.0
12.14	10.0
12.155	7.0
12.17	13.0
12.184	8.0
12.199	18.0
12.214	13.0
12.229	11.0
12.244	4.0
12.259	12.0
12.274	12.0
12.289	10.0
12.304	9.0
12.319	13.0
12.334	12.0
12.348	11.0
12.363	7.0
12.378	18.0
12.393	10.0
12.408	12.0
12.423	12.0
12.438	10.0
12.453	9.0
12.468	18.0
12.483	18.0
12.498	10.0
12.513	14.0
12.527	9.0
12.542	13.0
12.557	11.0
12.572	12.0
12.587	13.0
12.602	12.0
12.617	15.0
12.632	10.0
12.647	16.0
12.662	12.0
12.677	10.0
12.692	9.0
12.707	19.0
12.721	16.0
12.736	14.0
12.751	12.0
12.766	17.0
12.781	12.0
12.796	26.0
12.811	17.0
12.826	14.0
12.841	10.0
12.856	12.0
12.871	9.0
12.886	15.0
12.9	18.0
12.915	6.0
12.93	14.0
12.945	23.0
12.96	16.0
12.975	13.0
12.99	8.0
13.005	20.0
13.02	14.0
13.035	13.0
13.05	14.0
13.065	17.0
13.08	13.0
13.094	24.0
13.109	15.0
13.124	18.0
13.139	20.0
13.154	22.0
13.169	18.0
13.184	26.0
13.199	13.0
13.214	20.0
13.229	17.0
13.244	18.0
13.259	19.0
13.274	23.0
13.288	22.0
13.303	15.0
13.318	17.0
13.333	21.0
13.348	13.0
13.363	20.0
13.378	29.0
13.393	19.0
13.408	22.0
13.423	22.0
13.438	39.0
13.453	32.0
13.468	32.0
13.482	39.0
13.497	33.0
13.512	36.0
13.527	35.0
13.542	53.0
13.557	52.0
13.572	52.0
13.587	45.0
13.602	45.0
13.617	57.0
13.632	69.0
13.647	81.0
13.662	80.0
13.677	65.0
13.691	93.0
13.706	104.0
13.721	120.0
13.736	110.0
13.751	111.0
13.766	106.0
13.781	110.0
13.796	121.0
13.811	126.0
13.826	117.0
13.841	162.0
13.856	129.0
13.871	110.0
13.885	103.0
13.9	96.0
13.915	73.0
13.93	73.0
13.945	58.0
13.96	63.0
13.975	47.0
13.99	34.0
14.005	34.0
14.02	33.0
14.035	35.0
14.05	24.0
14.065	23.0
14.08	20.0
14.094	26.0
14.109	27.0
14.124	26.0
14.139	32.0
14.154	30.0
14.169	20.0
14.184	23.0
14.199	20.0
14.214	27.0
14.229	16.0
14.244	22.0
14.259	13.0
14.274	22.0
14.288	14.0
14.303	20.0
14.318	26.0
14.333	16.0
14.348	13.0
14.363	20.0
14.378	12.0
14.393	13.0
14.408	23.0
14.423	17.0
14.438	15.0
14.453	25.0
14.468	14.0
14.482	11.0
14.497	16.0
14.512	17.0
14.527	26.0
14.542	17.0
14.557	17.0
14.572	24.0
14.587	20.0
14.602	21.0
14.617	18.0
14.632	20.0
14.647	13.0
14.661	15.0
14.676	12.0
14.691	18.0
14.706	16.0
14.721	20.0
14.736	22.0
14.751	15.0
14.766	13.0
14.781	17.0
14.796	19.0
14.811	11.0
14.826	14.0
14.84	18.0
14.855	15.0
14.87	15.0
14.885	14.0
14.9	23.0
14.915	10.0
14.93	19.0
14.945	24.0
14.96	15.0
14.975	11.0
14.989	12.0
15.004	17.0
15.019	20.0
15.034	13.0
15.049	16.0
15.064	16.0
15.079	15.0
15.094	13.0
15.109	11.0
15.124	16.0
15.138	14.0
15.153	23.0
15.168	14.0
15.183	17.0
15.198	15.0
15.213	14.0
15.228	21.0
15.243	16.0
15.258	13.0
15.272	18.0
15.287	14.0
15.302	13.0
15.317	14.0
15.332	10.0
15.347	16.0
15.362	12.0
15.377	12.0
15.391	11.0
15.406	11.0
15.421	16.0
15.436	11.0
15.451	14.0
15.466	9.0
15.481	15.0
15.496	16.0
15.51	14.0
15.525	9.0
15.54	16.0
15.555	13.0
15.57	17.0
15.585	13.0
15.6	15.0
15.614	16.0
15.629	18.0
15.644	20.0
15.659	19.0
15.674	7.0
15.689	18.0
15.704	16.0
15.718	16.0
15.733	18.0
15.748	9.0
15.763	15.0
15.778	10.0
15.793	10.0
15.808	17.0
15.822	12.0
15.837	10.0
15.852	22.0
15.867	14.0
15.882	13.0
15.897	21.0
15.911	9.0
15.926	10.0
15.941	14.0
15.956	12.0
15.971	12.0
15.986	10.0
16.0	19.0
16.015	20.0
16.03	14.0
16.045	9.0
16.06	15.0
16.074	19.0
16.089	14.0
16.104	17.0
16.119	20.0
16.134	12.0
16.149	17.0
16.163	15.0
16.178	16.0
16.193	15.0
16.208	20.0
16.223	13.0
16.237	23.0
16.252	13.0
16.267	14.0
16.282	13.0
16.297	12.0
16.311	16.0
16.326	9.0
16.341	14.0
16.356	18.0
16.37	10.0
16.385	15.0
16.4	16.0
16.415	17.0
16.43	24.0
16.444	9.0
16.459	8.0
16.474	6.0
16.489	7.0
16.504	23.0
16.518	25.0
16.533	17.0
16.548	11.0
16.563	15.0
16.577	14.0
16.592	12.0
16.607	17.0
16.622	22.0
16.637	17.0
16.651	16.0
16.666	27.0
16.681	19.0
16.696	30.0
16.71	24.0
16.725	22.0
16.74	38.0
16.755	26.0
16.77	40.0
16.784	35.0
16.799	42.0
16.814	32.0
16.829	56.0
16.843	46.0
16.858	50.0
16.873	50.0
16.888	73.0
16.902	58.0
16.917	80.0
16.932	81.0
16.947	73.0
16.961	89.0
16.976	65.0
16.991	66.0
17.006	59.0
17.021	54.0
17.035	51.0
17.05	57.0
17.065	38.0
17.08	34.0
17.094	29.0
17.109	26.0
17.124	28.0
17.139	27.0
17.153	33.0
17.168	19.0
17.183	18.0
17.198	12.0
17.212	14.0
17.227	14.0
17.242	22.0
17.257	14.0
17.271	15.0
17.286	21.0
17.301	19.0
17.316	10.0
17.33	10.0
17.345	19.0
17.36	12.0
17.375	20.0
17.39	12.0
17.404	17.0
17.419	10.0
17.434	13.0
17.449	12.0
17.463	10.0
17.478	17.0
17.493	20.0
17.508	13.0
17.522	15.0
17.537	7.0
17.552	12.0
17.567	13.0
17.581	10.0
17.596	9.0
17.611	15.0
17.626	17.0
17.641	13.0
17.655	6.0
17.67	10.0
17.685	12.0
17.7	11.0
17.714	14.0
17.729	13.0
17.744	17.0
17.759	14.0
17.773	10.0
17.788	13.0
17.803	18.0
17.818	11.0
17.833	12.0
17.847	18.0
17.862	15.0
17.877	12.0
17.892	17.0
17.906	12.0
17.921	15.0
17.936	14.0
17.951	11.0
17.966	16.0
17.98	14.0
17.995	11.0
18.01	11.0
18.025	11.0
18.04	8.0
18.054	11.0
18.069	7.0
18.084	13.0
18.099	9.0
18.114	15.0
18.128	16.0
18.143	11.0
18.158	14.0
18.173	11.0
18.188	14.0
18.202	11.0
18.217	12.0
18.232	18.0
18.247	10.0
18.262	15.0
18.276	9.0
18.291	8.0
18.306	9.0
18.321	13.0
18.336	13.0
18.35	9.0
18.365	8.0
18.38	17.0
18.395	13.0
18.41	15.0
18.424	12.0
18.439	12.0
18.454	17.0
18.469	7.0
18.484	13.0
18.498	10.0
18.513	6.0
18.528	11.0
18.543	9.0
18.558	13.0
18.573	4.0
18.587	12.0
18.602	17.0
18.617	13.0
18.632	10.0
18.647	8.0
18.661	18.0
18.676	5.0
18.691	13.0
18.706	11.0
18.721	13.0
18.736	11.0
18.75	7.0
18.765	16.0
18.78	11.0
18.795	8.0
18.81	9.0
18.825	11.0
18.839	8.0
18.854	13.0
18.869	13.0
18.884	13.0
18.899	6.0
18.913	6.0
18.928	10.0
18.943	16.0
18.958	9.0
18.973	10.0
18.988	10.0
19.002	11.0
19.017	14.0
19.032	12.0
19.047	12.0
19.062	9.0
19.077	20.0
19.091	13.0
19.106	13.0
19.121	8.0
19.136	6.0
19.151	14.0
19.165	13.0
19.18	8.0
19.195	17.0
19.21	11.0
19.225	16.0
19.24	11.0
19.254	17.0
19.269	17.0
19.284	20.0
19.299	8.0
19.314	23.0
19.329	20.0
19.343	18.0
19.358	20.0
19.373	14.0
19.388	11.0
19.403	19.0
19.417	17.0
19.432	25.0
19.447	16.0
19.462	26.0
19.477	24.0
19.492	35.0
19.506	26.0
19.521	31.0
19.536	27.0
19.551	41.0
19.566	38.0
19.58	48.0
19.595	43.0
19.61	44.0
19.625	43.0
19.64	33.0
19.655	39.0
19.669	34.0
19.684	34.0
19.699	38.0
19.714	30.0
19.729	24.0
19.743	29.0
19.758	24.0
19.773	18.0
19.788	19.0
19.803	28.0
19.817	14.0
19.832	8.0
19.847	12.0
19.862	14.0
19.877	10.0
19.891	20.0
19.906	13.0
19.921	14.0
19.936	9.0
19.951	18.0
19.965	17.0
19.98	10.0
19.995	16.0
20.01	18.0
20.025	10.0
20.039	9.0
20.054	11.0
20.069	10.0
20.084	18.0
20.099	15.0
20.113	9.0
20.128	12.0
20.143	12.0
20.158	8.0
20.173	18.0
20.187	9.0
20.202	9.0
20.217	10.0
20.232	13.0
20.246	8.0
20.261	16.0
20.276	14.0
20.291	11.0
20.306	12.0
20.32	10.0
20.335	12.0
20.35	9.0
20.365	11.0
20.38	16.0
20.394	11.0
20.409	17.0
20.424	8.0
20.439	13.0
20.453	7.0
20.468	12.0
20.483	11.0
20.498	15.0
20.513	10.0
20.527	8.0
20.542	14.0
20.557	10.0
20.572	9.0
20.586	5.0
20.601	12.0
20.616	5.0
20.631	14.0
20.646	13.0
20.66	20.0
20.675	9.0
20.69	10.0
20.705	5.0
20.719	7.0
20.734	10.0
20.749	8.0
20.764	4.0
20.779	18.0
20.793	19.0
20.808	13.0
20.823	12.0
20.838	8.0
20.853	10.0
20.867	14.0
20.882	5.0
20.897	5.0
20.912	13.0
20.926	13.0
20.941	14.0
20.956	11.0
20.971	12.0
20.986	15.0
21.0	9.0
21.015	9.0
21.03	9.0
21.045	15.0
21.06	11.0
21.074	13.0
21.089	8.0
21.104	4.0
21.119	11.0
21.134	10.0
21.148	13.0
21.163	8.0
21.178	15.0
21.193	12.0
21.208	12.0
21.222	15.0
21.237	11.0
21.252	10.0
21.267	12.0
21.282	7.0
21.296	11.0
21.311	6.0
21.326	11.0
21.341	13.0
21.356	10.0
21.37	17.0
21.385	10.0
21.4	11.0
21.415	13.0
21.43	17.0
21.444	8.0
21.459	9.0
21.474	12.0
21.489	25.0
21.504	15.0
21.519	14.0
21.533	10.0
21.548	18.0
21.563	10.0
21.578	9.0
21.593	12.0
21.608	13.0
21.622	13.0
21.637	11.0
21.652	16.0
21.667	14.0
21.682	17.0
21.697	24.0
21.712	24.0
21.726	17.0
21.741	25.0
21.756	29.0
21.771	43.0
21.786	32.0
21.801	35.0
21.816	36.0
21.83	45.0
21.845	46.0
21.86	51.0
21.875	59.0
21.89	72.0
21.905	71.0
21.92	66.0
21.935	77.0
21.949	78.0
21.964	76.0
21.979	80.0
21.994	76.0
22.009	61.0
22.024	70.0
22.039	57.0
22.054	43.0
22.069	52.0
22.083	37.0
22.098	56.0
22.113	40.0
22.128	27.0
22.143	27.0
22.158	24.0
22.173	17.0
22.188	20.0
22.203	28.0
22.218	15.0
22.233	13.0
22.248	14.0
22.262	12.0
22.277	12.0
22.292	8.0
22.307	10.0
22.322	14.0
22.337	11.0
22.352	15.0
22.367	11.0
22.382	14.0
22.397	18.0
22.412	7.0
22.427	15.0
22.442	10.0
22.457	17.0
22.472	18.0
22.487	11.0
22.502	19.0
22.516	12.0
22.531	12.0
22.546	10.0
22.561	13.0
22.576	11.0
22.591	10.0
22.606	15.0
22.621	14.0
22.636	8.0
22.651	9.0
22.666	21.0
22.681	13.0
22.696	14.0
22.711	11.0
22.726	18.0
22.741	9.0
22.756	8.0
22.771	19.0
22.786	8.0
22.801	15.0
22.816	8.0
22.831	17.0
22.846	11.0
22.861	9.0
22.876	3.0
22.891	9.0
22.906	7.0
22.92	9.0
22.935	11.0
22.95	7.0
22.965	12.0
22.98	12.0
22.995	8.0
23.01	12.0
23.025	13.0
23.04	8.0
23.055	9.0
23.07	9.0
23.085	8.0
23.1	7.0
23.115	7.0
23.13	4.0
23.145	9.0
23.16	13.0
23.175	7.0
23.19	5.0
23.205	11.0
23.22	12.0
23.235	10.0
23.25	9.0
23.265	5.0
23.28	11.0
23.295	20.0
23.31	11.0
23.325	8.0
23.34	6.0
23.355	11.0
23.37	5.0
23.384	9.0
23.399	7.0
23.414	7.0
23.429	13.0
23.444	13.0
23.459	5.0
23.474	14.0
23.489	14.0
23.504	11.0
23.519	12.0
23.534	13.0
23.549	11.0
23.564	20.0
23.579	9.0
23.594	11.0
23.609	11.0
23.624	6.0
23.639	16.0
23.654	12.0
23.668	10.0
23.683	16.0
23.698	9.0
23.713	9.0
23.728	11.0
23.743	9.0
23.758	13.0
23.773	11.0
23.788	10.0
23.803	15.0
23.818	12.0
23.833	18.0
23.848	15.0
23.862	15.0
23.877	19.0
23.892	25.0
23.907	19.0
23.922	23.0
23.937	30.0
23.952	32.0
23.967	16.0
23.982	27.0
23.997	44.0
24.011	44.0
24.026	46.0
24.041	48.0
24.056	53.0
24.071	41.0
24.086	47.0
24.101	53.0
24.116	45.0
24.131	43.0
24.145	49.0
24.16	48.0
24.175	38.0
24.19	31.0
24.205	36.0
24.22	34.0
24.235	23.0
24.249	30.0
24.264	28.0
24.279	23.0
24.294	21.0
24.309	20.0
24.324	15.0
24.338	20.0
24.353	10.0
24.368	11.0
24.383	19.0
24.398	5.0
24.413	15.0
24.428	9.0
24.442	13.0
24.457	10.0
24.472	11.0
24.487	10.0
24.502	12.0
24.516	19.0
24.531	12.0
24.546	6.0
24.561	15.0
24.576	3.0
24.591	10.0
24.605	10.0
24.62	5.0
24.635	10.0
24.65	15.0
24.665	10.0
24.679	7.0
24.694	18.0
24.709	12.0
24.724	12.0
24.739	12.0
24.753	11.0
24.768	7.0
24.783	13.0
24.798	8.0
24.813	6.0
24.827	3.0
24.842	8.0
24.857	6.0
24.872	8.0
24.886	13.0
24.901	8.0
24.916	9.0
24.931	14.0
24.946	6.0
24.96	12.0
24.975	11.0
24.99	16.0
25.005	7.0
25.019	15.0
25.034	7.0
25.049	9.0
25.064	9.0
25.078	8.0
25.093	8.0
25.108	11.0
25.123	12.0
25.138	9.0
25.152	13.0
25.167	12.0
25.182	10.0
25.197	13.0
25.211	8.0
25.226	8.0
25.241	13.0
25.256	9.0
25.27	5.0
25.285	14.0
25.3	11.0
25.315	10.0
25.329	9.0
25.344	8.0
25.359	9.0
25.374	11.0
25.388	10.0
25.403	10.0
25.418	10.0
25.433	11.0
25.447	12.0
25.462	10.0
25.477	4.0
25.492	11.0
25.506	17.0
25.521	8.0
25.536	8.0
25.55	19.0
25.565	5.0
25.58	7.0
25.595	13.0
25.609	11.0
25.624	14.0
25.639	8.0
25.654	12.0
25.668	12.0
25.683	13.0
25.698	13.0
25.713	5.0
25.727	10.0
25.742	7.0
25.757	6.0
25.772	10.0
25.786	13.0
25.801	9.0
25.816	6.0
25.83	10.0
25.845	12.0
25.86	6.0
25.875	15.0
25.889	13.0
25.904	16.0
25.919	15.0
25.934	9.0
25.948	10.0
25.963	12.0
25.978	7.0
25.992	1.0
26.007	6.0
26.022	3.0
26.037	8.0
26.051	9.0
26.066	6.0
26.081	14.0
26.096	14.0
26.11	8.0
26.125	6.0
26.14	9.0
26.155	10.0
26.169	11.0
26.184	8.0
26.199	12.0
26.213	8.0
26.228	12.0
26.243	4.0
26.258	16.0
26.272	10.0
26.287	7.0
26.302	9.0
26.317	10.0
26.331	9.0
26.346	12.0
26.361	10.0
26.376	14.0
26.39	11.0
26.405	8.0
26.42	7.0
26.434	4.0
26.449	9.0
26.464	13.0
26.479	13.0
26.493	12.0
26.508	10.0
26.523	6.0
26.538	11.0
26.552	10.0
26.567	9.0
26.582	9.0
26.597	10.0
26.611	15.0
26.626	15.0
26.641	7.0
26.656	11.0
26.67	11.0
26.685	10.0
26.7	7.0
26.715	18.0
26.729	14.0
26.744	13.0
26.759	11.0
26.773	12.0
26.788	10.0
26.803	9.0
26.818	13.0
26.832	10.0
26.847	3.0
26.862	13.0
26.877	12.0
26.891	8.0
26.906	12.0
26.921	7.0
26.936	11.0
26.95	9.0
26.965	6.0
26.98	7.0
26.995	5.0
27.01	10.0
27.024	11.0
27.039	7.0
27.054	6.0
27.069	10.0
27.083	12.0
27.098	6.0
27.113	7.0
27.128	9.0
27.142	11.0
27.157	9.0
27.172	12.0
27.187	3.0
27.201	7.0
27.216	15.0
27.231	11.0
27.246	3.0
27.261	12.0
27.275	11.0
27.29	8.0
27.305	12.0
27.32	11.0
27.334	11.0
27.349	10.0
27.364	13.0
27.379	16.0
27.394	7.0
27.408	14.0
27.423	9.0
27.438	12.0
27.453	14.0
27.467	6.0
27.482	7.0
27.497	12.0
27.512	9.0
27.527	10.0
27.541	9.0
27.556	13.0
27.571	7.0
27.586	10.0
27.601	5.0
27.615	7.0
27.63	10.0
27.645	10.0
27.66	11.0
27.675	9.0
27.689	9.0
27.704	6.0
27.719	9.0
27.734	18.0
27.749	10.0
27.763	15.0
27.778	22.0
27.793	28.0
27.808	23.0
27.823	18.0
27.838	21.0
27.852	23.0
27.867	26.0
27.882	24.0
27.897	18.0
27.912	26.0
27.926	22.0
27.941	26.0
27.956	20.0
27.971	17.0
27.986	18.0
28.001	12.0
28.015	17.0
28.03	23.0
28.045	13.0
28.06	13.0
28.075	14.0
28.09	11.0
28.105	27.0
28.119	14.0
28.134	13.0
28.149	11.0
28.164	16.0
28.179	14.0
28.194	8.0
28.208	18.0
28.223	9.0
28.238	8.0
28.253	4.0
28.268	14.0
28.283	12.0
28.298	12.0
28.312	11.0
28.327	11.0
28.342	16.0
28.357	9.0
28.372	9.0
28.387	13.0
28.402	8.0
28.417	9.0
28.431	11.0
28.446	6.0
28.461	11.0
28.476	15.0
28.491	8.0
28.506	10.0
28.521	12.0
28.536	12.0
28.55	16.0
28.565	13.0
28.58	9.0
28.595	7.0
28.61	6.0
28.625	14.0
28.64	11.0
28.655	8.0
28.669	10.0
28.684	7.0
28.699	5.0
28.714	8.0
28.729	9.0
28.744	13.0
28.759	10.0
28.774	7.0
28.788	10.0
28.803	8.0
28.818	16.0
28.833	11.0
28.848	9.0
28.863	12.0
28.878	11.0
28.893	12.0
28.908	15.0
28.922	8.0
28.937	9.0
28.952	10.0
28.967	15.0
28.982	11.0
28.997	11.0
29.012	7.0
29.027	17.0
29.041	10.0
29.056	17.0
29.071	7.0
29.086	7.0
29.101	13.0
29.116	14.0
29.131	13.0
29.146	16.0
29.16	7.0
29.175	10.0
29.19	6.0
29.205	13.0
29.22	13.0
29.235	15.0
29.25	14.0
29.265	19.0
29.279	13.0
29.294	11.0
29.309	13.0
29.324	14.0
29.339	12.0
29.354	15.0
29.369	8.0
29.384	11.0
29.398	18.0
29.413	11.0
29.428	16.0
29.443	17.0
29.458	18.0
29.473	17.0
29.488	27.0
29.502	23.0
29.517	33.0
29.532	36.0
29.547	44.0
29.562	40.0
29.577	41.0
29.592	41.0
29.606	55.0
29.621	50.0
29.636	54.0
29.651	53.0
29.666	58.0
29.681	51.0
29.695	48.0
29.71	41.0
29.725	29.0
29.74	40.0
29.755	28.0
29.77	34.0
29.784	17.0
29.799	22.0
29.814	29.0
29.829	28.0
29.844	25.0
29.859	17.0
29.873	24.0
29.888	19.0
29.903	19.0
29.918	12.0
29.933	16.0
29.947	11.0
29.962	16.0
29.977	21.0
29.992	15.0
30.007	14.0
30.021	9.0
30.036	12.0
30.051	13.0
30.066	12.0
30.081	14.0
30.095	9.0
30.11	12.0
30.125	15.0
30.14	12.0
30.155	15.0
30.169	17.0
30.184	15.0
30.199	13.0
30.214	7.0
30.228	13.0
30.243	16.0
30.258	16.0
30.273	8.0
30.288	16.0
30.302	9.0
30.317	16.0
30.332	11.0
30.347	13.0
30.361	10.0
30.376	9.0
30.391	9.0
30.406	12.0
30.42	14.0
30.435	9.0
30.45	9.0
30.465	11.0
30.479	25.0
30.494	12.0
30.509	12.0
30.524	6.0
30.538	8.0
30.553	10.0
30.568	10.0
30.583	10.0
30.597	6.0
30.612	13.0
30.627	9.0
30.641	13.0
30.656	10.0
30.671	16.0
30.686	10.0
30.7	12.0
30.715	13.0
30.73	14.0
30.745	13.0
30.759	8.0
30.774	9.0
30.789	7.0
30.803	12.0
30.818	8.0
30.833	5.0
30.848	13.0
30.862	16.0
30.877	7.0
30.892	15.0
30.906	7.0
30.921	6.0
30.936	15.0
30.951	13.0
30.965	10.0
30.98	9.0
30.995	11.0
31.009	12.0
31.024	6.0
31.039	12.0
31.053	12.0
31.068	18.0
31.083	15.0
31.098	13.0
31.112	16.0
31.127	14.0
31.142	16.0
31.156	21.0
31.171	24.0
31.186	27.0
31.2	25.0
31.215	32.0
31.23	32.0
31.245	42.0
31.259	44.0
31.274	41.0
31.289	40.0
31.303	38.0
31.318	30.0
31.333	34.0
31.347	36.0
31.362	28.0
31.377	28.0
31.392	30.0
31.406	30.0
31.421	25.0
31.436	28.0
31.45	24.0
31.465	20.0
31.48	33.0
31.494	28.0
31.509	27.0
31.524	17.0
31.538	10.0
31.553	17.0
31.568	20.0
31.583	21.0
31.597	13.0
31.612	13.0
31.627	15.0
31.641	11.0
31.656	13.0
31.671	10.0
31.685	13.0
31.7	9.0
31.715	14.0
31.729	11.0
31.744	11.0
31.759	10.0
31.774	10.0
31.788	7.0
31.803	12.0
31.818	10.0
31.832	7.0
31.847	6.0
31.862	10.0
31.876	11.0
31.891	16.0
31.906	6.0
31.92	6.0
31.935	13.0
31.95	13.0
31.965	15.0
31.979	14.0
31.994	4.0
32.009	11.0
32.023	13.0
32.038	10.0
32.053	11.0
32.067	8.0
32.082	7.0
32.097	8.0
32.112	6.0
32.126	13.0
32.141	8.0
32.156	9.0
32.17	7.0
32.185	11.0
32.2	7.0
32.214	15.0
32.229	7.0
32.244	7.0
32.259	11.0
32.273	9.0
32.288	13.0
32.303	6.0
32.317	10.0
32.332	9.0
32.347	17.0
32.362	10.0
32.376	10.0
32.391	10.0
32.406	15.0
32.42	8.0
32.435	12.0
32.45	9.0
32.465	9.0
32.479	9.0
32.494	9.0
32.509	11.0
32.523	10.0
32.538	9.0
32.553	10.0
32.568	12.0
32.582	14.0
32.597	14.0
32.612	10.0
32.627	12.0
32.641	20.0
32.656	8.0
32.671	20.0
32.685	13.0
32.7	12.0
32.715	22.0
32.73	21.0
32.744	18.0
32.759	19.0
32.774	33.0
32.788	26.0
32.803	27.0
32.818	27.0
32.833	28.0
32.847	29.0
32.862	21.0
32.877	26.0
32.892	15.0
32.906	30.0
32.921	17.0
32.936	27.0
32.951	21.0
32.965	22.0
32.98	19.0
32.995	22.0
33.009	19.0
33.024	16.0
33.039	18.0
33.054	14.0
33.068	13.0
33.083	17.0
33.098	9.0
33.113	14.0
33.127	7.0
33.142	13.0
33.157	11.0
33.172	12.0
33.186	11.0
33.201	8.0
33.216	16.0
33.231	4.0
33.245	5.0
33.26	14.0
33.275	6.0
33.29	6.0
33.304	9.0
33.319	18.0
33.334	15.0
33.349	9.0
33.363	9.0
33.378	9.0
33.393	9.0
33.408	13.0
33.422	12.0
33.437	2.0
33.452	9.0
33.467	12.0
33.481	3.0
33.496	15.0
33.511	7.0
33.526	12.0
33.54	7.0
33.555	12.0
33.57	9.0
33.585	6.0
33.599	8.0
33.614	8.0
33.629	8.0
33.644	7.0
33.658	12.0
33.673	9.0
33.688	10.0
33.703	6.0
33.718	8.0
33.732	6.0
33.747	9.0
33.762	16.0
33.777	8.0
33.791	10.0
33.806	13.0
33.821	10.0
33.836	14.0
33.85	5.0
33.865	8.0
33.88	11.0
33.895	5.0
33.91	12.0
33.924	12.0
33.939	7.0
33.954	10.0
33.969	7.0
33.983	7.0
33.998	15.0
34.013	7.0
34.028	16.0
34.042	13.0
34.057	12.0
34.072	10.0
34.087	12.0
34.102	12.0
34.116	12.0
34.131	9.0
34.146	9.0
34.161	15.0
34.175	9.0
34.19	10.0
34.205	12.0
34.22	12.0
34.235	11.0
34.249	12.0
34.264	5.0
34.279	12.0
34.294	16.0
34.309	15.0
34.323	15.0
34.338	14.0
34.353	12.0
34.368	11.0
34.382	15.0
34.397	14.0
34.412	13.0
34.427	10.0
34.442	10.0
34.456	9.0
34.471	11.0
34.486	4.0
34.501	7.0
34.516	8.0
34.53	13.0
34.545	14.0
34.56	11.0
34.575	7.0
34.59	10.0
34.604	8.0
34.619	11.0
34.634	10.0
34.649	10.0
34.664	4.0
34.678	11.0
34.693	8.0
34.708	6.0
34.723	14.0
34.738	8.0
34.752	9.0
34.767	13.0
34.782	12.0
34.797	5.0
34.812	6.0
34.826	8.0
34.841	7.0
34.856	19.0
34.871	5.0
34.886	10.0
34.9	9.0
34.915	11.0
34.93	9.0
34.945	8.0
34.96	8.0
34.974	6.0
34.989	12.0
35.004	11.0
35.019	7.0
35.034	7.0
35.048	7.0
35.063	8.0
35.078	8.0
35.093	9.0
35.108	9.0
35.122	7.0
35.137	7.0
35.152	10.0
35.167	11.0
35.182	6.0
35.196	14.0
35.211	11.0
35.226	6.0
35.241	11.0
35.256	12.0
35.27	7.0
35.285	10.0
35.3	10.0
35.315	3.0
35.33	10.0
35.344	9.0
35.359	5.0
35.374	8.0
35.389	8.0
35.404	8.0
35.418	8.0
35.433	7.0
35.448	8.0
35.463	5.0
35.478	9.0
35.493	8.0
35.507	3.0
35.522	9.0
35.537	7.0
35.552	10.0
35.567	9.0
35.581	11.0
35.596	9.0
35.611	10.0
35.626	10.0
35.641	15.0
35.655	6.0
35.67	16.0
35.685	14.0
35.7	10.0
35.715	21.0
35.729	14.0
35.744	15.0
35.759	15.0
35.774	20.0
35.789	25.0
35.804	19.0
35.818	23.0
35.833	19.0
35.848	13.0
35.863	15.0
35.878	19.0
35.892	13.0
35.907	11.0
35.922	15.0
35.937	13.0
35.952	12.0
35.966	12.0
35.981	16.0
35.996	5.0
36.011	18.0
36.026	18.0
36.04	14.0
36.055	16.0
36.07	12.0
36.085	9.0
36.1	7.0
36.114	9.0
36.129	10.0
36.144	11.0
36.159	12.0
36.174	7.0
36.189	8.0
36.203	7.0
36.218	16.0
36.233	8.0
36.248	15.0
36.263	5.0
36.277	8.0
36.292	5.0
36.307	11.0
36.322	12.0
36.337	9.0
36.351	8.0
36.366	10.0
36.381	13.0
36.396	4.0
36.411	4.0
36.426	10.0
36.44	10.0
36.455	11.0
36.47	6.0
36.485	8.0
36.5	4.0
36.514	8.0
36.529	9.0
36.544	12.0
36.559	6.0
36.574	0.0
36.589	9.0
36.603	12.0
36.618	7.0
36.633	7.0
36.648	10.0
36.663	9.0
36.677	6.0
36.692	10.0
36.707	5.0
36.722	7.0
36.737	4.0
36.752	11.0
36.766	5.0
36.781	5.0
36.796	10.0
36.811	5.0
36.826	9.0
36.841	13.0
36.855	12.0
36.87	8.0
36.885	7.0
36.9	5.0
36.915	10.0
36.93	10.0
36.944	9.0
36.959	13.0
36.974	7.0
36.989	11.0
37.004	11.0
37.019	8.0
37.033	7.0
37.048	13.0
37.063	9.0
37.078	18.0
37.093	19.0
37.108	15.0
37.123	27.0
37.137	30.0
37.152	22.0
37.167	25.0
37.182	23.0
37.197	32.0
37.212	32.0
37.226	20.0
37.241	30.0
37.256	27.0
37.271	21.0
37.286	18.0
37.301	16.0
37.316	13.0
37.331	19.0
37.345	18.0
37.36	11.0
37.375	29.0
37.39	20.0
37.405	20.0
37.42	20.0
37.435	28.0
37.45	15.0
37.464	11.0
37.479	11.0
37.494	7.0
37.509	11.0
37.524	7.0
37.539	4.0
37.554	10.0
37.569	7.0
37.583	4.0
37.598	4.0
37.613	7.0
37.628	10.0
37.643	8.0
37.658	6.0
37.673	10.0
37.688	9.0
37.703	15.0
37.718	5.0
37.733	4.0
37.747	7.0
37.762	6.0
37.777	8.0
37.792	6.0
37.807	7.0
37.822	5.0
37.837	6.0
37.852	5.0
37.867	9.0
37.882	7.0
37.897	4.0
37.912	8.0
37.927	9.0
37.941	6.0
37.956	8.0
37.971	6.0
37.986	10.0
38.001	3.0
38.016	8.0
38.031	6.0
38.046	4.0
38.061	4.0
38.076	1.0
38.091	3.0
38.106	12.0
38.121	5.0
38.136	7.0
38.151	5.0
38.166	8.0
38.181	6.0
38.196	8.0
38.211	9.0
38.226	8.0
38.241	4.0
38.256	4.0
38.271	2.0
38.285	11.0
38.3	6.0
38.315	3.0
38.33	5.0
38.345	8.0
38.36	8.0
38.375	7.0
38.39	6.0
38.405	4.0
38.42	5.0
38.435	7.0
38.45	6.0
38.465	4.0
38.48	9.0
38.495	3.0
38.51	10.0
38.525	8.0
38.54	8.0
38.555	11.0
38.57	2.0
38.585	5.0
38.6	4.0
38.615	9.0
38.63	9.0
38.645	6.0
38.66	5.0
38.675	2.0
38.69	12.0
38.705	5.0
38.72	6.0
38.735	3.0
38.75	7.0
38.765	3.0
38.78	8.0
38.795	7.0
38.81	6.0
38.825	8.0
38.84	7.0
38.855	4.0
38.87	9.0
38.885	9.0
38.9	9.0
38.915	2.0
38.93	9.0
38.945	8.0
38.96	7.0
38.975	6.0
38.99	5.0
39.005	6.0
39.02	8.0
39.035	3.0
39.05	7.0
39.065	0.0
39.08	4.0
39.095	8.0
39.11	5.0
39.125	9.0
39.14	5.0
39.155	8.0
39.17	2.0
39.185	7.0
39.2	6.0
39.215	5.0
39.23	5.0
39.245	7.0
39.26	6.0
39.275	11.0
39.29	12.0
39.305	9.0
39.32	9.0
39.335	7.0
39.35	8.0
39.365	6.0
39.38	6.0
39.395	3.0
39.409	7.0
39.424	3.0
39.439	5.0
39.454	8.0
39.469	7.0
39.484	7.0
39.499	7.0
39.514	10.0
39.529	8.0
39.544	3.0
39.559	4.0
39.574	2.0
39.589	11.0
39.604	2.0
39.619	3.0
39.634	2.0
39.649	8.0
39.664	7.0
39.678	10.0
39.693	7.0
39.708	8.0
39.723	11.0
39.738	7.0
39.753	5.0
39.768	8.0
39.783	10.0
39.798	9.0
39.813	9.0
39.827	8.0
39.842	8.0
39.857	6.0
39.872	13.0
39.887	8.0
39.902	7.0
39.917	10.0
39.932	8.0
39.947	7.0
39.961	4.0
39.976	8.0
39.991	9.0
40.006	6.0
40.021	2.0
40.036	10.0
40.051	10.0
40.065	9.0
40.08	8.0
40.095	3.0
40.11	6.0
40.125	4.0
40.14	7.0
40.154	7.0
40.169	12.0
40.184	10.0
40.199	8.0
40.214	5.0
40.228	5.0
40.243	6.0
40.258	6.0
40.273	4.0
40.288	7.0
40.302	11.0
40.317	5.0
40.332	4.0
40.347	11.0
40.362	3.0
40.376	4.0
40.391	6.0
40.406	5.0
40.421	10.0
40.436	8.0
40.45	5.0
40.465	8.0
40.48	5.0
40.495	8.0
40.509	12.0
40.524	6.0
40.539	3.0
40.554	5.0
40.568	6.0
40.583	4.0
40.598	3.0
40.613	5.0
40.627	9.0
40.642	7.0
40.657	7.0
40.672	8.0
40.686	3.0
40.701	7.0
40.716	5.0
40.731	3.0
40.745	6.0
40.76	4.0
40.775	4.0
40.79	3.0
40.804	3.0
40.819	3.0
40.834	4.0
40.849	6.0
40.863	6.0
40.878	8.0
40.893	3.0
40.907	4.0
40.922	9.0
40.937	7.0
40.952	13.0
40.966	13.0
40.981	12.0
40.996	6.0
41.011	11.0
41.025	13.0
41.04	11.0
41.055	20.0
41.069	17.0
41.084	15.0
41.099	25.0
41.114	16.0
41.128	27.0
41.143	19.0
41.158	22.0
41.173	19.0
41.187	20.0
41.202	20.0
41.217	15.0
41.231	16.0
41.246	9.0
41.261	6.0
41.276	18.0
41.29	14.0
41.305	11.0
41.32	11.0
41.335	17.0
41.349	11.0
41.364	10.0
41.379	18.0
41.393	21.0
41.408	14.0
41.423	9.0
41.438	12.0
41.452	8.0
41.467	15.0
41.482	20.0
41.497	9.0
41.511	13.0
41.526	7.0
41.541	10.0
41.556	8.0
41.57	7.0
41.585	5.0
41.6	4.0
41.615	5.0
41.629	3.0
41.644	5.0
41.659	11.0
41.674	2.0
41.688	5.0
41.703	5.0
41.718	8.0
41.733	2.0
41.747	10.0
41.762	3.0
41.777	2.0
41.792	4.0
41.806	4.0
41.821	2.0
41.836	10.0
41.851	8.0
41.866	6.0
41.88	4.0
41.895	9.0
41.91	6.0
41.925	3.0
41.939	8.0
41.954	6.0
41.969	8.0
41.984	4.0
41.999	7.0
42.013	8.0
42.028	5.0
42.043	9.0
42.058	5.0
42.073	6.0
42.088	5.0
42.102	12.0
42.117	9.0
42.132	6.0
42.147	6.0
42.162	1.0
42.176	5.0
42.191	5.0
42.206	10.0
42.221	8.0
42.236	2.0
42.251	9.0
42.266	9.0
42.28	12.0
42.295	11.0
42.31	11.0
42.325	15.0
42.34	19.0
42.355	9.0
42.369	15.0
42.384	21.0
42.399	19.0
42.414	15.0
42.429	20.0
42.444	15.0
42.459	9.0
42.474	11.0
42.488	12.0
42.503	6.0
42.518	10.0
42.533	14.0
42.548	7.0
42.563	4.0
42.578	11.0
42.593	9.0
42.608	7.0
42.622	10.0
42.637	8.0
42.652	9.0
42.667	9.0
42.682	9.0
42.697	14.0
42.712	22.0
42.727	7.0
42.742	10.0
42.757	5.0
42.772	5.0
42.786	10.0
42.801	5.0
42.816	8.0
42.831	6.0
42.846	4.0
42.861	8.0
42.876	11.0
42.891	3.0
42.906	9.0
42.921	9.0
42.936	4.0
42.951	7.0
42.966	6.0
42.981	7.0
42.996	6.0
43.011	4.0
43.025	5.0
43.04	7.0
43.055	6.0
43.07	5.0
43.085	7.0
43.1	2.0
43.115	6.0
43.13	4.0
43.145	8.0
43.16	7.0
43.175	3.0
43.19	8.0
43.205	3.0
43.22	2.0
43.235	7.0
43.25	2.0
43.265	9.0
43.28	3.0
43.295	9.0
43.31	7.0
43.325	2.0
43.34	6.0
43.355	3.0
43.37	3.0
43.385	6.0
43.4	5.0
43.415	9.0
43.43	4.0
43.445	12.0
43.46	8.0
43.475	6.0
43.49	7.0
43.505	3.0
43.52	7.0
43.535	9.0
43.55	7.0
43.565	4.0
43.58	6.0
43.595	7.0
43.61	9.0
43.625	12.0
43.64	12.0
43.655	7.0
43.67	8.0
43.685	11.0
43.7	14.0
43.715	5.0
43.73	10.0
43.745	8.0
43.76	8.0
43.775	8.0
43.79	5.0
43.805	4.0
43.82	7.0
43.835	5.0
43.85	6.0
43.865	9.0
43.88	5.0
43.895	10.0
43.91	6.0
43.925	7.0
43.94	7.0
43.955	9.0
43.97	8.0
43.985	5.0
44.0	5.0
44.015	9.0
44.03	3.0
44.045	7.0
44.061	7.0
44.076	5.0
44.091	5.0
44.106	6.0
44.121	2.0
44.136	7.0
44.151	7.0
44.166	9.0
44.181	5.0
44.196	5.0
44.211	7.0
44.226	10.0
44.241	5.0
44.256	8.0
44.271	4.0
44.286	5.0
44.301	5.0
44.316	3.0
44.331	2.0
44.346	6.0
44.361	7.0
44.377	3.0
44.392	5.0
44.407	5.0
44.422	7.0
44.437	6.0
44.452	4.0
44.467	4.0
44.482	3.0
44.497	6.0
44.512	3.0
44.527	0.0
44.542	6.0
44.557	3.0
44.572	4.0
44.587	4.0
44.602	5.0
44.617	5.0
44.632	6.0
44.647	7.0
44.663	3.0
44.678	4.0
44.693	8.0
44.708	13.0
44.723	7.0
44.738	5.0
44.753	10.0
44.768	14.0
44.783	7.0
44.798	12.0
44.813	13.0
44.828	11.0
44.843	6.0
44.858	10.0
44.873	17.0
44.888	7.0
44.903	7.0
44.918	7.0
44.933	5.0
44.948	10.0
44.964	9.0
44.979	4.0
44.994	5.0
45.009	7.0
45.024	8.0
45.039	12.0
45.054	10.0
45.069	5.0
45.084	11.0
45.099	7.0
45.114	7.0
45.129	4.0
45.144	8.0
45.159	4.0
45.174	10.0
45.189	4.0
45.204	3.0
45.219	3.0
45.234	3.0
45.249	6.0
45.264	7.0
45.279	1.0
45.294	3.0
45.309	7.0
45.324	4.0
45.339	3.0
45.354	7.0
45.369	2.0
45.384	5.0
45.399	6.0
45.414	2.0
45.429	2.0
45.444	6.0
45.459	1.0
45.474	5.0
45.489	12.0
45.504	4.0
45.519	5.0
45.534	1.0
45.549	3.0
45.564	6.0
45.579	8.0
45.594	5.0
45.609	9.0
45.624	4.0
45.639	3.0
45.654	4.0
45.669	7.0
45.684	7.0
45.699	2.0
45.714	7.0
45.729	7.0
45.744	8.0
45.759	5.0
45.774	5.0
45.789	8.0
45.804	8.0
45.819	4.0
45.834	5.0
45.849	7.0
45.864	16.0
45.879	5.0
45.894	8.0
45.909	9.0
45.924	22.0
45.939	14.0
45.954	9.0
45.969	16.0
45.984	16.0
45.998	16.0
46.013	13.0
46.028	11.0
46.043	15.0
46.058	6.0
46.073	9.0
46.088	13.0
46.103	8.0
46.118	10.0
46.133	9.0
46.148	8.0
46.163	6.0
46.178	10.0
46.192	9.0
46.207	8.0
46.222	12.0
46.237	11.0
46.252	9.0
46.267	14.0
46.282	14.0
46.297	9.0
46.312	11.0
46.327	8.0
46.341	10.0
46.356	12.0
46.371	8.0
46.386	1.0
46.401	5.0
46.416	8.0
46.431	11.0
46.446	6.0
46.46	2.0
46.475	1.0
46.49	5.0
46.505	3.0
46.52	9.0
46.535	7.0
46.55	1.0
46.564	2.0
46.579	1.0
46.594	6.0
46.609	7.0
46.624	10.0
46.639	5.0
46.654	3.0
46.668	7.0
46.683	5.0
46.698	5.0
46.713	1.0
46.728	9.0
46.743	5.0
46.758	2.0
46.772	4.0
46.787	3.0
46.802	3.0
46.817	2.0
46.832	0.0
46.847	9.0
46.861	5.0
46.876	3.0
46.891	0.0
46.906	9.0
46.921	8.0
46.936	3.0
46.95	4.0
46.965	6.0
46.98	6.0
46.995	7.0
47.01	6.0
47.025	9.0
47.039	8.0
47.054	8.0
47.069	4.0
47.084	11.0
47.099	6.0
47.113	11.0
47.128	10.0
47.143	10.0
47.158	8.0
47.173	9.0
47.188	10.0
47.202	8.0
47.217	5.0
47.232	11.0
47.247	7.0
47.262	5.0
47.277	9.0
47.291	4.0
47.306	4.0
47.321	6.0
47.336	3.0
47.351	8.0
47.365	6.0
47.38	8.0
47.395	5.0
47.41	8.0
47.425	5.0
47.44	4.0
47.454	5.0
47.469	6.0
47.484	7.0
47.499	10.0
47.514	9.0
47.528	6.0
47.543	8.0
47.558	3.0
47.573	7.0
47.588	5.0
47.603	2.0
47.617	0.0
47.632	7.0
47.647	5.0
47.662	6.0
47.677	5.0
47.691	7.0
47.706	4.0
47.721	4.0
47.736	4.0
47.751	3.0
47.766	3.0
47.78	1.0
47.795	3.0
47.81	5.0
47.825	5.0
47.84	4.0
47.855	4.0
47.869	4.0
47.884	9.0
47.899	3.0
47.914	5.0
47.929	4.0
47.944	5.0
47.958	5.0
47.973	3.0
47.988	4.0
48.003	7.0
48.018	9.0
48.033	4.0
48.047	2.0
48.062	3.0
48.077	2.0
48.092	2.0
48.107	2.0
48.122	5.0
48.137	4.0
48.151	1.0
48.166	3.0
48.181	3.0
48.196	3.0
48.211	4.0
48.226	8.0
48.241	5.0
48.255	5.0
48.27	4.0
48.285	5.0
48.3	2.0
48.315	4.0
48.33	6.0
48.345	4.0
48.359	4.0
48.374	5.0
48.389	4.0
48.404	2.0
48.419	3.0
48.434	4.0
48.449	2.0
48.464	4.0
48.478	5.0
48.493	6.0
48.508	4.0
48.523	3.0
48.538	7.0
48.553	5.0
48.568	7.0
48.583	2.0
48.597	11.0
48.612	2.0
48.627	2.0
48.642	6.0
48.657	2.0
48.672	2.0
48.687	7.0
48.702	7.0
48.717	6.0
48.731	4.0
48.746	6.0
48.761	7.0
48.776	7.0
48.791	2.0
48.806	5.0
48.821	4.0
48.836	5.0
48.851	4.0
48.866	2.0
48.88	4.0
48.895	6.0
48.91	2.0
48.925	6.0
48.94	6.0
48.955	4.0
48.97	5.0
48.985	2.0
49.0	4.0
49.015	3.0
49.03	2.0
49.044	6.0
49.059	2.0
49.074	5.0
49.089	3.0
49.104	7.0
49.119	6.0
49.134	4.0
49.149	1.0
49.164	5.0
49.179	9.0
49.194	4.0
49.209	7.0
49.224	4.0
49.238	7.0
49.253	8.0
49.268	7.0
49.283	5.0
49.298	4.0
49.313	3.0
49.328	13.0
49.343	8.0
49.358	7.0
49.373	10.0
49.388	10.0
49.403	5.0
49.418	3.0
49.433	6.0
49.448	8.0
49.463	4.0
49.478	7.0
49.492	4.0
49.507	3.0
49.522	5.0
49.537	5.0
49.552	6.0
49.567	8.0
49.582	4.0
49.597	2.0
49.612	3.0
49.627	10.0
49.642	3.0
49.657	4.0
49.672	1.0
49.687	2.0
49.702	8.0
49.717	7.0
49.732	1.0
49.747	5.0
49.762	2.0
49.777	6.0
49.792	4.0
49.807	5.0
49.822	5.0
49.837	5.0
49.852	3.0
49.867	12.0
49.882	5.0
49.897	1.0
49.912	4.0
49.927	4.0
49.942	2.0
49.957	8.0
49.971	6.0
49.986	4.0
50.001	4.0
50.016	4.0
50.031	5.0
50.046	2.0
50.061	2.0
50.076	6.0
50.091	4.0
50.106	5.0
50.121	9.0
50.136	4.0
50.151	2.0
50.166	6.0
50.181	5.0
50.196	7.0
50.211	3.0
50.226	2.0
50.241	4.0
50.256	7.0
50.271	5.0
50.286	5.0
50.302	7.0
50.317	6.0
50.332	0.0
50.347	3.0
50.362	8.0
50.377	3.0
50.392	4.0
50.407	7.0
50.422	9.0
50.437	8.0
50.452	10.0
50.467	7.0
50.482	9.0
50.497	6.0
50.512	6.0
50.527	4.0
50.542	7.0
50.557	6.0
50.572	3.0
50.587	4.0
50.602	4.0
50.617	5.0
50.632	3.0
50.647	3.0
50.662	9.0
50.677	9.0
50.692	7.0
50.707	9.0
50.722	5.0
50.737	4.0
50.752	8.0
50.767	8.0
50.782	7.0
50.797	6.0
50.812	9.0
50.828	6.0
50.843	5.0
50.858	5.0
50.873	2.0
50.888	8.0
50.903	6.0
50.918	2.0
50.933	5.0
50.948	6.0
50.963	4.0
50.978	4.0
50.993	4.0
51.008	3.0
51.023	12.0
51.038	4.0
51.053	3.0
51.068	5.0
51.083	6.0
51.098	7.0
51.114	4.0
51.129	7.0
51.144	2.0
51.159	7.0
51.174	6.0
51.189	8.0
51.204	4.0
51.219	2.0
51.234	8.0
51.249	4.0
51.264	6.0
51.279	4.0
51.294	1.0
51.309	2.0
51.324	6.0
51.34	8.0
51.355	3.0
51.37	6.0
51.385	6.0
51.4	4.0
51.415	5.0
51.43	12.0
51.445	5.0
51.46	12.0
51.475	9.0
51.49	12.0
51.505	21.0
51.52	12.0
51.535	13.0
51.551	17.0
51.566	14.0
51.581	17.0
51.596	10.0
51.611	9.0
51.626	10.0
51.641	8.0
51.656	10.0
51.671	5.0
51.686	5.0
51.701	7.0
51.716	8.0
51.732	5.0
51.747	7.0
51.762	5.0
51.777	5.0
51.792	9.0
51.807	7.0
51.822	10.0
51.837	11.0
51.852	11.0
51.867	17.0
51.882	14.0
51.898	8.0
51.913	9.0
51.928	6.0
51.943	8.0
51.958	5.0
51.973	3.0
51.988	2.0
52.003	4.0
52.018	3.0
52.033	4.0
52.048	7.0
52.064	5.0
52.079	5.0
52.094	4.0
52.109	3.0
52.124	4.0
52.139	2.0
52.154	9.0
52.169	5.0
52.184	3.0
52.199	5.0
52.215	4.0
52.23	4.0
52.245	5.0
52.26	1.0
52.275	3.0
52.29	12.0
52.305	6.0
52.32	4.0
52.335	5.0
52.35	9.0
52.366	7.0
52.381	4.0
52.396	3.0
52.411	3.0
52.426	7.0
52.441	3.0
52.456	6.0
52.471	5.0
52.486	7.0
52.502	8.0
52.517	6.0
52.532	7.0
52.547	8.0
52.562	9.0
52.577	5.0
52.592	10.0
52.607	7.0
52.622	5.0
52.637	7.0
52.653	9.0
52.668	6.0
52.683	6.0
52.698	7.0
52.713	7.0
52.728	6.0
52.743	4.0
52.758	4.0
52.774	6.0
52.789	6.0
52.804	4.0
52.819	7.0
52.834	8.0
52.849	5.0
52.864	0.0
52.879	7.0
52.894	5.0
52.91	4.0
52.925	6.0
52.94	10.0
52.955	10.0
52.97	5.0
52.985	11.0
53.0	6.0
53.015	4.0
53.031	5.0
53.046	2.0
53.061	4.0
53.076	6.0
53.091	6.0
53.106	7.0
53.121	4.0
53.136	5.0
53.152	5.0
53.167	2.0
53.182	6.0
53.197	3.0
53.212	4.0
53.227	6.0
53.242	4.0
53.257	5.0
53.273	8.0
53.288	3.0
53.303	3.0
53.318	4.0
53.333	5.0
53.348	3.0
53.363	5.0
53.379	8.0
53.394	5.0
53.409	1.0
53.424	4.0
53.439	2.0
53.454	5.0
53.469	5.0
53.484	6.0
53.5	5.0
53.515	1.0
53.53	4.0
53.545	7.0
53.56	3.0
53.575	7.0
53.59	2.0
53.606	4.0
53.621	4.0
53.636	4.0
53.651	6.0
53.666	3.0
53.681	3.0
53.696	6.0
53.712	6.0
53.727	2.0
53.742	3.0
53.757	1.0
53.772	5.0
53.787	4.0
53.802	5.0
53.818	4.0
53.833	2.0
53.848	7.0
53.863	7.0
53.878	7.0
53.893	2.0
53.909	8.0
53.924	4.0
53.939	5.0
53.954	4.0
53.969	2.0
53.984	7.0
53.999	10.0
54.015	4.0
54.03	2.0
54.045	6.0
54.06	7.0
54.075	5.0
54.09	4.0
54.106	2.0
54.121	5.0
54.136	5.0
54.151	6.0
54.166	5.0
54.181	3.0
54.197	4.0
54.212	2.0
54.227	6.0
54.242	4.0
54.257	3.0
54.272	4.0
54.288	5.0
54.303	2.0
54.318	2.0
54.333	4.0
54.348	4.0
54.363	7.0
54.379	5.0
54.394	2.0
54.409	5.0
54.424	4.0
54.439	6.0
54.454	6.0
54.47	4.0
54.485	10.0
54.5	6.0
54.515	9.0
54.53	3.0
54.545	10.0
54.561	3.0
54.576	8.0
54.591	4.0
54.606	9.0
54.621	11.0
54.636	10.0
54.652	11.0
54.667	16.0
54.682	16.0
54.697	7.0
54.712	7.0
54.727	11.0
54.743	10.0
54.758	6.0
54.773	11.0
54.788	7.0
54.803	9.0
54.819	8.0
54.834	2.0
54.849	6.0
54.864	8.0
54.879	9.0
54.894	9.0
54.91	5.0
54.925	8.0
54.94	4.0
54.955	8.0
54.97	9.0
54.985	13.0
55.001	9.0
55.016	8.0
55.031	8.0
55.046	10.0
55.061	4.0
55.077	11.0
55.092	13.0
55.107	7.0
55.122	10.0
55.137	2.0
55.152	4.0
55.168	6.0
55.183	7.0
55.198	0.0
55.213	6.0
55.228	2.0
55.243	6.0
55.259	3.0
55.274	5.0
55.289	3.0
55.304	1.0
55.319	3.0
55.335	9.0
55.35	6.0
55.365	4.0
55.38	3.0
55.395	3.0
55.41	4.0
55.426	5.0
55.441	2.0
55.456	4.0
55.471	7.0
55.486	3.0
55.501	5.0
55.517	1.0
55.532	6.0
55.547	6.0
55.562	5.0
55.577	6.0
55.592	5.0
55.608	4.0
55.623	8.0
55.638	7.0
55.653	6.0
55.668	9.0
55.683	11.0
55.699	1.0
55.714	13.0
55.729	4.0
55.744	5.0
55.759	8.0
55.774	5.0
55.79	7.0
55.805	7.0
55.82	7.0
55.835	8.0
55.85	5.0
55.865	5.0
55.881	4.0
55.896	5.0
55.911	4.0
55.926	3.0
55.941	6.0
55.956	5.0
55.972	8.0
55.987	3.0
56.002	5.0
56.017	5.0
56.032	5.0
56.047	3.0
56.063	3.0
56.078	8.0
56.093	5.0
56.108	6.0
56.123	6.0
56.138	6.0
56.154	4.0
56.169	5.0
56.184	4.0
56.199	8.0
56.214	3.0
56.229	3.0
56.244	7.0
56.26	7.0
56.275	7.0
56.29	1.0
56.305	3.0
56.32	3.0
56.335	4.0
56.351	3.0
56.366	5.0
56.381	6.0
56.396	1.0
56.411	3.0
56.426	5.0
56.441	5.0
56.457	7.0
56.472	6.0
56.487	7.0
56.502	5.0
56.517	4.0
56.532	2.0
56.547	6.0
56.563	6.0
56.578	2.0
56.593	1.0
56.608	9.0
56.623	6.0
56.638	1.0
56.653	4.0
56.668	6.0
56.684	5.0
56.699	2.0
56.714	3.0
56.729	4.0
56.744	5.0
56.759	7.0
56.774	7.0
56.79	2.0
56.805	5.0
56.82	1.0
56.835	3.0
56.85	3.0
56.865	3.0
56.88	6.0
56.895	3.0
56.911	3.0
56.926	4.0
56.941	5.0
56.956	6.0
56.971	5.0
56.986	5.0
57.001	4.0
57.016	6.0
57.031	7.0
57.047	1.0
57.062	1.0
57.077	3.0
57.092	4.0
57.107	2.0
57.122	3.0
57.137	5.0
57.152	4.0
57.167	3.0
57.183	1.0
57.198	2.0
57.213	7.0
57.228	4.0
57.243	1.0
57.258	6.0
57.273	3.0
57.288	4.0
57.303	7.0
57.318	6.0
57.334	6.0
57.349	4.0
57.364	4.0
57.379	3.0
57.394	4.0
57.409	4.0
57.424	4.0
57.439	2.0
57.454	3.0
57.469	3.0
57.484	4.0
57.5	5.0
57.515	3.0
57.53	3.0
57.545	3.0
57.56	2.0
57.575	8.0
57.59	3.0
57.605	4.0
57.62	7.0
57.635	3.0
57.65	7.0
57.665	11.0
57.68	4.0
57.696	6.0
57.711	9.0
57.726	5.0
57.741	6.0
57.756	1.0
57.771	9.0
57.786	7.0
57.801	3.0
57.816	6.0
57.831	4.0
57.846	3.0
57.861	2.0
57.876	3.0
57.891	5.0
57.906	1.0
57.921	2.0
57.937	4.0
57.952	5.0
57.967	4.0
57.982	7.0
57.997	5.0
58.012	0.0
58.027	4.0
58.042	2.0
58.057	4.0
58.072	10.0
58.087	11.0
58.102	2.0
58.117	6.0
58.132	4.0
58.147	2.0
58.162	4.0
58.177	3.0
58.192	4.0
58.207	5.0
58.222	4.0
58.237	4.0
58.252	4.0
58.267	2.0
58.282	9.0
58.297	4.0
58.312	1.0
58.327	2.0
58.342	3.0
58.357	7.0
58.372	8.0
58.387	7.0
58.402	4.0
58.418	2.0
58.433	4.0
58.448	3.0
58.463	4.0
58.478	5.0
58.493	5.0
58.508	7.0
58.523	9.0
58.538	2.0
58.553	3.0
58.568	5.0
58.583	8.0
58.598	12.0
58.613	6.0
58.628	11.0
58.643	15.0
58.658	11.0
58.673	7.0
58.688	8.0
58.703	8.0
58.718	8.0
58.733	7.0
58.748	8.0
58.763	5.0
58.778	9.0
58.793	1.0
58.808	4.0
58.823	4.0
58.838	1.0
58.853	5.0
58.868	1.0
58.883	5.0
58.898	6.0
58.913	7.0
58.928	4.0
58.942	8.0
58.957	6.0
58.972	5.0
58.987	6.0
59.002	6.0
59.017	4.0
59.032	7.0
59.047	9.0
59.062	11.0
59.077	2.0
59.092	11.0
59.107	5.0
59.122	7.0
59.137	8.0
59.152	3.0
59.167	5.0
59.182	5.0
59.197	8.0
59.212	3.0
59.227	2.0
59.242	9.0
59.257	0.0
59.272	8.0
59.287	10.0
59.302	6.0
59.317	5.0
59.332	3.0
59.347	3.0
59.362	7.0
59.377	2.0
59.392	5.0
59.407	1.0
59.422	3.0
59.437	5.0
59.452	7.0
59.467	5.0
59.482	4.0
59.497	6.0
59.512	13.0
59.527	8.0
59.542	10.0
59.557	9.0
59.572	6.0
59.587	6.0
59.602	12.0
59.617	10.0
59.632	6.0
59.647	5.0
59.661	4.0
59.676	8.0
59.691	8.0
59.706	5.0
59.721	4.0
59.736	5.0
59.751	9.0
59.766	3.0
59.781	3.0
59.796	2.0
59.811	6.0
59.826	3.0
59.841	3.0
59.856	4.0
59.871	2.0
59.886	1.0
59.901	12.0
59.916	7.0
59.931	4.0
59.946	6.0
59.961	4.0
59.976	8.0
59.991	9.0
60.006	5.0
60.021	3.0
60.036	9.0
60.051	5.0
60.066	5.0
60.081	6.0
60.096	7.0
60.111	2.0
60.126	2.0
60.141	5.0
60.156	6.0
60.171	1.0
60.186	2.0
60.201	3.0
60.216	2.0
60.231	2.0
60.246	10.0
60.261	4.0
60.276	3.0
60.291	9.0
60.306	2.0
60.321	2.0
60.336	5.0
60.35	4.0
60.365	3.0
60.38	4.0
60.395	5.0
60.41	7.0
60.425	2.0
60.44	3.0
60.455	3.0
60.47	8.0
60.485	2.0
60.5	8.0
60.515	4.0
60.53	9.0
60.545	5.0
60.56	7.0
60.575	4.0
60.59	12.0
60.605	9.0
60.62	10.0
60.635	7.0
60.65	3.0
60.665	8.0
60.68	6.0
60.695	5.0
60.71	3.0
60.725	4.0
60.74	4.0
60.755	5.0
60.77	2.0
60.785	7.0
60.8	5.0
60.815	1.0
60.83	5.0
60.845	4.0
60.86	6.0
60.875	6.0
60.89	6.0
60.905	4.0
60.92	9.0
60.935	4.0
60.95	8.0
60.965	9.0
60.98	5.0
60.995	6.0
61.01	4.0
61.025	4.0
61.04	4.0
61.055	0.0
61.07	1.0
61.085	2.0
61.1	9.0
61.115	4.0
61.13	5.0
61.145	5.0
61.16	8.0
61.175	1.0
61.191	3.0
61.206	6.0
61.221	8.0
61.236	5.0
61.251	3.0
61.266	3.0
61.281	6.0
61.296	6.0
61.311	4.0
61.326	2.0
61.341	4.0
61.356	4.0
61.371	3.0
61.386	4.0
61.401	2.0
61.416	4.0
61.431	5.0
61.446	7.0
61.461	4.0
61.476	6.0
61.491	7.0
61.506	5.0
61.521	4.0
61.536	8.0
61.551	5.0
61.566	4.0
61.581	6.0
61.596	6.0
61.611	7.0
61.626	1.0
61.641	1.0
61.656	3.0
61.672	2.0
61.687	5.0
61.702	8.0
61.717	3.0
61.732	5.0
61.747	4.0
61.762	1.0
61.777	6.0
61.792	4.0
61.807	10.0
61.822	6.0
61.837	6.0
61.852	4.0
61.867	2.0
61.882	3.0
61.897	7.0
61.912	5.0
61.927	5.0
61.943	4.0
61.958	4.0
61.973	5.0
61.988	6.0
62.003	7.0
62.018	4.0
62.033	3.0
62.048	2.0
62.063	4.0
62.078	4.0
62.093	4.0
62.108	10.0
62.123	6.0
62.138	2.0
62.153	9.0
62.169	5.0
62.184	3.0
62.199	5.0
62.214	4.0
62.229	4.0
62.244	7.0
62.259	4.0
62.274	2.0
62.289	3.0
62.304	4.0
62.319	4.0
62.335	3.0
62.35	4.0
62.365	7.0
62.38	2.0
62.395	7.0
62.41	4.0
62.425	4.0
62.44	6.0
62.455	11.0
62.47	9.0
62.485	6.0
62.501	4.0
62.516	3.0
62.531	5.0
62.546	3.0
62.561	4.0
62.576	4.0
62.591	6.0
62.606	3.0
62.621	6.0
62.636	3.0
62.652	5.0
62.667	4.0
62.682	8.0
62.697	4.0
62.712	8.0
62.727	4.0
62.742	3.0
62.757	4.0
62.772	8.0
62.787	3.0
62.803	3.0
62.818	3.0
62.833	7.0
62.848	4.0
62.863	3.0
62.878	5.0
62.893	3.0
62.908	2.0
62.923	3.0
62.939	5.0
62.954	7.0
62.969	0.0
62.984	3.0
62.999	6.0
63.014	6.0
63.029	3.0
63.044	2.0
63.059	2.0
63.074	5.0
63.09	5.0
63.105	5.0
63.12	5.0
63.135	6.0
63.15	7.0
63.165	6.0
63.18	3.0
63.195	4.0
63.21	4.0
63.226	4.0
63.241	4.0
63.256	2.0
63.271	1.0
63.286	3.0
63.301	11.0
63.316	4.0
63.331	10.0
63.346	6.0
63.362	7.0
63.377	7.0
63.392	5.0
63.407	2.0
63.422	10.0
63.437	3.0
63.452	8.0
63.467	8.0
63.482	3.0
63.497	6.0
63.513	5.0
63.528	5.0
63.543	3.0
63.558	1.0
63.573	2.0
63.588	5.0
63.603	3.0
63.618	3.0
63.633	2.0
63.648	8.0
63.664	5.0
63.679	4.0
63.694	1.0
63.709	4.0
63.724	3.0
63.739	9.0
63.754	3.0
63.769	5.0
63.784	3.0
63.799	7.0
63.814	2.0
63.83	2.0
63.845	5.0
63.86	6.0
63.875	5.0
63.89	6.0
63.905	9.0
63.92	3.0
63.935	7.0
63.95	7.0
63.965	3.0
63.98	8.0
63.996	5.0
64.011	3.0
64.026	2.0
64.041	4.0
64.056	1.0
64.071	5.0
64.086	6.0
64.101	3.0
64.116	5.0
64.131	5.0
64.146	6.0
64.161	3.0
64.176	2.0
64.191	2.0
64.207	3.0
64.222	5.0
64.237	5.0
64.252	3.0
64.267	2.0
64.282	9.0
64.297	7.0
64.312	2.0
64.327	4.0
64.342	1.0
64.357	3.0
64.372	4.0
64.387	5.0
64.402	3.0
64.417	6.0
64.433	6.0
64.448	5.0
64.463	5.0
64.478	3.0
64.493	2.0
64.508	6.0
64.523	4.0
64.538	2.0
64.553	5.0
64.568	5.0
64.583	1.0
64.598	5.0
64.613	3.0
64.628	4.0
64.643	2.0
64.658	2.0
64.673	1.0
64.688	2.0
64.703	1.0
64.718	2.0
64.734	4.0
64.749	4.0
64.764	1.0
64.779	3.0
64.794	3.0
64.809	3.0
64.824	3.0
64.839	3.0
64.854	1.0
64.869	5.0
64.884	2.0
64.899	0.0
64.914	4.0
64.929	1.0
64.944	5.0
64.959	6.0
64.974	1.0
64.989	2.0
65.004	4.0
65.019	3.0
65.034	3.0
65.049	4.0
65.064	4.0
65.079	3.0
65.094	5.0
65.109	2.0
65.125	3.0
65.14	4.0
65.155	7.0
65.17	5.0
65.185	5.0
65.2	6.0
65.215	2.0
65.23	7.0
65.245	5.0
65.26	6.0
65.275	8.0
65.29	7.0
65.305	2.0
65.32	3.0
65.335	5.0
65.35	5.0
65.365	3.0
65.38	3.0
65.395	3.0
65.41	6.0
65.425	3.0
65.44	3.0
65.455	5.0
65.47	3.0
65.485	3.0
65.5	4.0
65.515	2.0
65.53	6.0
65.545	4.0
65.56	2.0
65.575	4.0
65.59	2.0
65.605	3.0
65.62	5.0
65.635	2.0
65.65	3.0
65.666	3.0
65.681	5.0
65.696	2.0
65.711	7.0
65.726	2.0
65.741	2.0
65.756	7.0
65.771	7.0
65.786	2.0
65.801	0.0
65.816	5.0
65.831	5.0
65.846	3.0
65.861	1.0
65.876	4.0
65.891	4.0
65.906	1.0
65.921	3.0
65.936	2.0
65.951	2.0
65.966	3.0
65.981	7.0
65.996	3.0
66.011	4.0
66.026	4.0
66.041	4.0
66.056	4.0
66.071	1.0
66.086	5.0
66.101	5.0
66.116	7.0
66.131	8.0
66.146	4.0
66.161	6.0
66.176	7.0
66.191	5.0
66.206	8.0
66.221	8.0
66.236	10.0
66.251	6.0
66.266	6.0
66.281	10.0
66.296	5.0
66.311	5.0
66.327	3.0
66.342	2.0
66.357	5.0
66.372	4.0
66.387	0.0
66.402	6.0
66.417	6.0
66.432	1.0
66.447	3.0
66.462	3.0
66.477	1.0
66.492	4.0
66.507	2.0
66.522	5.0
66.537	4.0
66.552	9.0
66.567	2.0
66.582	3.0
66.597	6.0
66.612	5.0
66.627	6.0
66.642	5.0
66.657	3.0
66.672	5.0
66.687	5.0
66.702	1.0
66.717	11.0
66.732	2.0
66.747	3.0
66.762	2.0
66.777	8.0
66.792	3.0
66.807	4.0
66.822	5.0
66.837	0.0
66.853	4.0
66.868	4.0
66.883	4.0
66.898	3.0
66.913	3.0
66.928	5.0
66.943	5.0
66.958	2.0
66.973	3.0
66.988	3.0
67.003	5.0
67.018	4.0
67.033	2.0
67.048	5.0
67.063	3.0
67.078	4.0
67.093	2.0
67.108	5.0
67.123	2.0
67.138	5.0
67.153	4.0
67.168	3.0
67.183	7.0
67.198	3.0
67.214	0.0
67.229	3.0
67.244	5.0
67.259	6.0
67.274	3.0
67.289	3.0
67.304	6.0
67.319	5.0
67.334	5.0
67.349	2.0
67.364	3.0
67.379	4.0
67.394	1.0
67.409	5.0
67.424	2.0
67.439	4.0
67.454	4.0
67.469	6.0
67.484	0.0
67.5	3.0
67.515	7.0
67.53	5.0
67.545	3.0
67.56	4.0
67.575	7.0
67.59	4.0
67.605	8.0
67.62	2.0
67.635	6.0
67.65	4.0
67.665	7.0
67.68	5.0
67.695	7.0
67.71	2.0
67.726	2.0
67.741	3.0
67.756	4.0
67.771	3.0
67.786	1.0
67.801	4.0
67.816	3.0
67.831	3.0
67.846	2.0
67.861	0.0
67.876	4.0
67.891	3.0
67.906	5.0
67.922	3.0
67.937	3.0
67.952	10.0
67.967	2.0
67.982	4.0
67.997	1.0
68.012	4.0
68.027	1.0
68.042	4.0
68.057	3.0
68.072	2.0
68.087	3.0
68.103	1.0
68.118	6.0
68.133	2.0
68.148	3.0
68.163	5.0
68.178	3.0
68.193	3.0
68.208	8.0
68.223	3.0
68.238	4.0
68.254	5.0
68.269	2.0
68.284	4.0
68.299	9.0
68.314	2.0
68.329	1.0
68.344	5.0
68.359	4.0
68.374	2.0
68.389	5.0
68.405	2.0
68.42	5.0
68.435	0.0
68.45	1.0
68.465	2.0
68.48	4.0
68.495	6.0
68.51	3.0
68.525	3.0
68.54	8.0
68.556	3.0
68.571	4.0
68.586	3.0
68.601	2.0
68.616	3.0
68.631	4.0
68.646	2.0
68.661	4.0
68.676	8.0
68.691	8.0
68.707	3.0
68.722	2.0
68.737	3.0
68.752	2.0
68.767	5.0
68.782	5.0
68.797	4.0
68.812	2.0
68.827	5.0
68.842	1.0
68.857	4.0
68.873	4.0
68.888	5.0
68.903	2.0
68.918	4.0
68.933	3.0
68.948	2.0
68.963	1.0
68.978	2.0
68.993	4.0
69.008	2.0
69.023	3.0
69.038	5.0
69.054	1.0
69.069	4.0
69.084	1.0
69.099	7.0
69.114	3.0
69.129	2.0
69.144	3.0
69.159	3.0
69.174	2.0
69.189	2.0
69.204	1.0
69.219	5.0
69.234	3.0
69.249	5.0
69.264	4.0
69.279	7.0
69.295	5.0
69.31	2.0
69.325	2.0
69.34	3.0
69.355	7.0
69.37	1.0
69.385	3.0
69.4	1.0
69.415	3.0
69.43	3.0
69.445	4.0
69.46	5.0
69.475	9.0
69.49	2.0
69.505	5.0
69.52	5.0
69.535	2.0
69.55	4.0
69.565	1.0
69.58	1.0
69.595	6.0
69.61	2.0
69.625	2.0
69.64	4.0
69.655	2.0
69.67	3.0
69.685	3.0
69.7	3.0
69.715	4.0
69.73	4.0
69.745	5.0
69.76	6.0
69.775	3.0
69.79	11.0
69.805	11.0
69.82	5.0
69.835	8.0
69.85	6.0
69.865	4.0
69.88	5.0
69.895	5.0
69.909	2.0
69.924	2.0
69.939	4.0
69.954	4.0
69.969	2.0
69.984	3.0
69.999	9.0
70.014	1.0
70.029	6.0
70.044	3.0
70.059	3.0
70.074	6.0
70.088	4.0
70.103	0.0
70.118	2.0
70.133	5.0
70.148	2.0
70.163	2.0
70.178	3.0
70.193	2.0
70.208	3.0
70.222	6.0
70.237	6.0
70.252	3.0
70.267	3.0
70.282	6.0
70.297	3.0
70.312	6.0
70.327	3.0
70.341	2.0
70.356	3.0
70.371	6.0
70.386	7.0
70.401	2.0
70.416	3.0
70.43	5.0
70.445	2.0
70.46	3.0
70.475	4.0
70.49	2.0
70.505	6.0
70.519	1.0
70.534	4.0
70.549	2.0
70.564	3.0
70.579	7.0
70.594	4.0
70.608	2.0
70.623	5.0
70.638	4.0
70.653	5.0
70.668	7.0
70.683	2.0
70.697	4.0
70.712	3.0
70.727	7.0
70.742	10.0
70.757	4.0
70.771	3.0
70.786	3.0
70.801	5.0
70.816	2.0
70.831	3.0
70.845	2.0
70.86	2.0
70.875	3.0
70.89	2.0
70.905	4.0
70.92	3.0
70.934	1.0
70.949	0.0
70.964	4.0
70.979	4.0
70.994	1.0
71.008	4.0
71.023	2.0
71.038	4.0
71.053	2.0
71.068	5.0
71.082	4.0
71.097	4.0
71.112	5.0
71.127	3.0
71.142	6.0
71.156	7.0
71.171	4.0
71.186	5.0
71.201	4.0
71.216	5.0
71.231	1.0
71.245	2.0
71.26	7.0
71.275	1.0
71.29	3.0
71.305	1.0
71.319	3.0
71.334	4.0
71.349	4.0
71.364	3.0
71.379	4.0
71.394	6.0
71.408	2.0
71.423	1.0
71.438	3.0
71.453	4.0
71.468	1.0
71.483	2.0
71.497	3.0
71.512	2.0
71.527	3.0
71.542	7.0
71.557	3.0
71.572	4.0
71.586	4.0
71.601	5.0
71.616	6.0
71.631	3.0
71.646	2.0
71.661	3.0
71.676	2.0
71.69	5.0
71.705	2.0
71.72	2.0
71.735	3.0
71.75	2.0
71.765	1.0
71.78	2.0
71.795	5.0
71.81	0.0
71.824	3.0
71.839	2.0
71.854	1.0
71.869	3.0
71.884	0.0
71.899	6.0
71.914	8.0
71.929	4.0
71.944	3.0
71.959	3.0
71.974	6.0
71.988	2.0
72.003	2.0
72.018	5.0
72.033	4.0
72.048	4.0
72.063	3.0
72.078	5.0
72.093	2.0
72.108	3.0
72.123	4.0
72.138	6.0
72.153	1.0
72.168	3.0
72.183	3.0
72.198	1.0
72.213	4.0
72.228	7.0
72.243	1.0
72.258	5.0
72.273	4.0
72.288	2.0
72.303	1.0
72.318	1.0
72.333	6.0
72.348	2.0
72.363	3.0
72.378	2.0
72.393	3.0
72.408	1.0
72.423	1.0
72.438	8.0
72.453	7.0
72.468	4.0
72.483	7.0
72.498	3.0
72.513	4.0
72.528	4.0
72.543	2.0
72.558	5.0
72.573	3.0
72.588	2.0
72.603	5.0
72.618	6.0
72.633	3.0
72.649	6.0
72.664	1.0
72.679	0.0
72.694	2.0
72.709	4.0
72.724	3.0
72.739	4.0
72.754	5.0
72.769	4.0
72.784	2.0
72.799	0.0
72.814	4.0
72.829	1.0
72.845	2.0
72.86	3.0
72.875	2.0
72.89	3.0
72.905	2.0
72.92	2.0
72.935	6.0
72.95	5.0
72.965	1.0
72.98	2.0
72.996	5.0
73.011	1.0
73.026	4.0
73.041	5.0
73.056	4.0
73.071	5.0
73.086	3.0
73.101	4.0
73.117	6.0
73.132	5.0
73.147	6.0
73.162	2.0
73.177	1.0
73.192	3.0
73.207	3.0
73.222	4.0
73.238	3.0
73.253	1.0
73.268	2.0
73.283	6.0
73.298	6.0
73.313	7.0
73.328	9.0
73.343	3.0
73.359	2.0
73.374	2.0
73.389	8.0
73.404	4.0
73.419	4.0
73.434	3.0
73.449	2.0
73.465	4.0
73.48	3.0
73.495	2.0
73.51	5.0
73.525	6.0
73.54	5.0
73.556	1.0
73.571	3.0
73.586	2.0
73.601	2.0
73.616	4.0
73.631	3.0
73.646	5.0
73.662	5.0
73.677	3.0
73.692	2.0
73.707	4.0
73.722	5.0
73.737	2.0
73.752	3.0
73.768	3.0
73.783	5.0
73.798	5.0
73.813	4.0
73.828	5.0
73.843	3.0
73.859	4.0
73.874	9.0
73.889	4.0
73.904	3.0
73.919	7.0
73.934	4.0
73.949	4.0
73.965	3.0
73.98	1.0
73.995	4.0
74.01	4.0
74.025	6.0
74.04	5.0
74.056	4.0
74.071	1.0
74.086	5.0
74.101	6.0
74.116	5.0
74.131	6.0
74.146	0.0
74.162	5.0
74.177	4.0
74.192	6.0
74.207	6.0
74.222	6.0
74.237	3.0
74.252	6.0
74.268	6.0
74.283	5.0
74.298	3.0
74.313	2.0
74.328	3.0
74.343	4.0
74.358	3.0
74.374	6.0
74.389	3.0
74.404	5.0
74.419	8.0
74.434	2.0
74.449	4.0
74.464	2.0
74.48	4.0
74.495	8.0
74.51	3.0
74.525	4.0
74.54	1.0
74.555	6.0
74.57	5.0
74.586	2.0
74.601	6.0
74.616	7.0
74.631	7.0
74.646	4.0
74.661	3.0
74.676	5.0
74.691	7.0
74.707	5.0
74.722	6.0
74.737	5.0
74.752	6.0
74.767	5.0
74.782	4.0
74.797	5.0
74.813	4.0
74.828	4.0
74.843	5.0
74.858	3.0
74.873	3.0
74.888	4.0
74.903	4.0
74.918	5.0
74.934	4.0
74.949	7.0
74.964	4.0
74.979	5.0
74.994	3.0
75.009	4.0
75.024	5.0
75.04	4.0
75.055	6.0
75.07	5.0
75.085	6.0
75.1	6.0
75.115	8.0
75.13	5.0
75.145	1.0
75.161	5.0
75.176	3.0
75.191	3.0
75.206	4.0
75.221	2.0
75.236	1.0
75.251	1.0
75.266	3.0
75.282	3.0
75.297	3.0
75.312	7.0
75.327	4.0
75.342	3.0
75.357	1.0
75.372	1.0
75.387	8.0
75.403	6.0
75.418	4.0
75.433	5.0
75.448	0.0
75.463	3.0
75.478	4.0
75.493	4.0
75.509	2.0
75.524	4.0
75.539	8.0
75.554	7.0
75.569	3.0
75.584	9.0
75.599	1.0
75.614	1.0
75.63	2.0
75.645	1.0
75.66	5.0
75.675	2.0
75.69	2.0
75.705	3.0
75.72	3.0
75.735	5.0
75.751	1.0
75.766	3.0
75.781	2.0
75.796	4.0
75.811	6.0
75.826	4.0
75.841	2.0
75.856	1.0
75.872	1.0
75.887	4.0
75.902	6.0
75.917	1.0
75.932	3.0
75.947	2.0
75.962	6.0
75.977	4.0
75.993	0.0
76.008	4.0
76.023	6.0
76.038	4.0
76.053	3.0
76.068	6.0
76.083	3.0
76.098	2.0
76.114	4.0
76.129	5.0
76.144	0.0
76.159	5.0
76.174	2.0
76.189	2.0
76.204	6.0
76.22	4.0
76.235	0.0
76.25	1.0
76.265	3.0
76.28	2.0
76.295	4.0
76.31	3.0
76.325	2.0
76.341	4.0
76.356	6.0
76.371	3.0
76.386	1.0
76.401	4.0
76.416	1.0
76.431	8.0
76.446	6.0
76.462	5.0
76.477	1.0
76.492	4.0
76.507	2.0
76.522	2.0
76.537	3.0
76.552	3.0
76.567	5.0
76.583	3.0
76.598	1.0
76.613	4.0
76.628	1.0
76.643	6.0
76.658	5.0
76.673	3.0
76.688	8.0
76.704	5.0
76.719	6.0
76.734	5.0
76.749	6.0
76.764	2.0
76.779	3.0
76.794	5.0
76.809	4.0
76.824	1.0
76.84	5.0
76.855	3.0
76.87	4.0
76.885	4.0
76.9	2.0
76.915	2.0
76.93	4.0
76.945	6.0
76.96	4.0
76.976	3.0
76.991	6.0
77.006	1.0
77.021	1.0
77.036	4.0
77.051	4.0
77.066	4.0
77.081	3.0
77.096	5.0
77.112	4.0
77.127	2.0
77.142	1.0
77.157	1.0
77.172	3.0
77.187	1.0
77.202	6.0
77.217	3.0
77.232	4.0
77.247	4.0
77.263	5.0
77.278	2.0
77.293	4.0
77.308	6.0
77.323	7.0
77.338	7.0
77.353	8.0
77.368	6.0
77.383	1.0
77.398	2.0
77.413	3.0
77.428	2.0
77.444	1.0
77.459	5.0
77.474	5.0
77.489	2.0
77.504	4.0
77.519	5.0
77.534	0.0
77.549	1.0
77.564	4.0
77.579	6.0
77.594	4.0
77.609	5.0
77.624	4.0
77.64	3.0
77.655	5.0
77.67	8.0
77.685	3.0
77.7	3.0
77.715	5.0
77.73	5.0
77.745	5.0
77.76	7.0
77.775	6.0
77.79	4.0
77.805	2.0
77.82	2.0
77.835	2.0
77.85	3.0
77.865	2.0
77.88	7.0
77.895	1.0
77.91	0.0
77.926	6.0
77.941	4.0
77.956	3.0
77.971	2.0
77.986	3.0
78.001	3.0
78.016	6.0
78.031	3.0
78.046	4.0
78.061	1.0
78.076	3.0
78.091	3.0
78.106	7.0
78.121	1.0
78.136	6.0
78.151	5.0
78.166	2.0
78.181	3.0
78.196	6.0
78.211	1.0
78.226	3.0
78.241	6.0
78.256	7.0
78.271	6.0
78.286	2.0
78.301	4.0
78.316	5.0
78.331	3.0
78.346	3.0
78.361	1.0
78.376	3.0
78.391	2.0
78.406	5.0
78.421	2.0
78.436	3.0
78.451	1.0
78.466	5.0
78.481	3.0
78.496	2.0
78.511	3.0
78.526	4.0
78.541	6.0
78.556	0.0
78.571	5.0
78.586	5.0
78.601	2.0
78.616	5.0
78.631	3.0
78.646	4.0
78.661	2.0
78.676	3.0
78.691	2.0
78.706	3.0
78.721	1.0
78.736	1.0
78.751	1.0
78.766	1.0
78.781	1.0
78.796	3.0
78.811	5.0
78.826	3.0
78.841	5.0
78.856	3.0
78.871	5.0
78.885	4.0
78.9	7.0
78.915	1.0
78.93	4.0
78.945	4.0
78.96	2.0
78.975	4.0
78.99	2.0
79.005	3.0
79.02	1.0
79.035	3.0
79.05	6.0
79.065	4.0
79.08	5.0
79.095	2.0
79.11	3.0
79.125	5.0
79.14	3.0
79.155	2.0
79.17	3.0
79.185	5.0
79.2	5.0
79.215	5.0
79.23	5.0
79.245	6.0
79.26	4.0
79.275	2.0
79.29	7.0
79.304	5.0
79.319	3.0
79.334	3.0
79.349	7.0
79.364	3.0
79.379	6.0
79.394	2.0
79.409	4.0
79.424	4.0
79.439	2.0
79.454	3.0
79.469	4.0
79.484	2.0
79.499	4.0
79.514	4.0
79.529	4.0
79.544	2.0
79.559	0.0
79.574	1.0
79.589	2.0
79.604	3.0
79.619	1.0
79.634	4.0
79.649	4.0
79.664	7.0
79.679	2.0
79.693	2.0
79.708	1.0
79.723	3.0
79.738	0.0
79.753	3.0
79.768	2.0
79.783	3.0
79.798	4.0
79.813	2.0
79.828	0.0
79.843	5.0
79.858	4.0
79.873	1.0
79.888	1.0
79.903	3.0
79.918	5.0
79.933	3.0
79.948	2.0
79.963	3.0
79.978	3.0
79.993	6.0
80.008	5.0
80.023	4.0
80.038	3.0
80.053	4.0
80.068	1.0
80.083	4.0
80.098	3.0
80.113	2.0
80.128	7.0
80.143	7.0
80.158	4.0
80.173	3.0
80.188	4.0
80.202	0.0
80.217	4.0
80.232	9.0
80.247	3.0
80.262	5.0
80.277	2.0
80.292	3.0
80.307	7.0
80.322	5.0
80.337	2.0
80.352	3.0
80.367	5.0
80.382	0.0
80.397	3.0
80.412	3.0
80.427	1.0
80.442	2.0
80.457	5.0
80.472	5.0
80.487	3.0
80.502	1.0
80.517	3.0
80.532	2.0
80.547	2.0
80.562	2.0
80.577	8.0
80.592	1.0
80.607	4.0
80.622	4.0
80.637	2.0
80.652	3.0
80.667	0.0
80.682	3.0
80.697	2.0
80.712	3.0
80.727	3.0
80.742	4.0
80.757	6.0
80.772	3.0
80.787	4.0
80.802	3.0
80.817	4.0
80.832	5.0
80.847	6.0
80.862	4.0
80.877	0.0
80.892	1.0
80.907	2.0
80.922	1.0
80.937	1.0
80.952	6.0
80.967	3.0
80.982	4.0
80.997	4.0
81.012	4.0
81.027	3.0
81.042	3.0
81.057	6.0
81.072	1.0
81.087	1.0
81.101	3.0
81.116	4.0
81.131	2.0
81.146	6.0
81.161	6.0
81.176	4.0
81.191	8.0
81.206	3.0
81.221	2.0
81.236	4.0
81.251	6.0
81.266	2.0
81.281	2.0
81.296	3.0
81.311	2.0
81.326	3.0
81.341	4.0
81.356	4.0
81.371	2.0
81.386	4.0
81.401	2.0
81.416	3.0
81.431	2.0
81.446	2.0
81.461	4.0
81.476	8.0
81.491	0.0
81.506	4.0
81.521	4.0
81.536	1.0
81.55	1.0
81.565	6.0
81.58	1.0
81.595	1.0
81.61	2.0
81.625	4.0
81.64	2.0
81.655	6.0
81.67	1.0
81.685	6.0
81.7	1.0
81.715	2.0
81.73	5.0
81.745	5.0
81.76	5.0
81.775	8.0
81.79	2.0
81.805	6.0
81.819	5.0
81.834	2.0
81.849	4.0
81.864	2.0
81.879	2.0
81.894	6.0
81.909	3.0
81.924	5.0
81.939	3.0
81.954	6.0
81.969	3.0
81.984	4.0
81.999	4.0
82.013	2.0
82.028	3.0
82.043	2.0
82.058	1.0
82.073	0.0
82.088	5.0
82.103	4.0
82.118	5.0
82.133	1.0
82.148	4.0
82.163	4.0
82.177	0.0
82.192	8.0
82.207	1.0
82.222	2.0
82.237	6.0
82.252	4.0
82.267	0.0
82.282	2.0
82.297	5.0
82.312	2.0
82.326	3.0
82.341	3.0
82.356	3.0
82.371	7.0
82.386	6.0
82.401	5.0
82.416	3.0
82.431	4.0
82.445	2.0
82.46	2.0
82.475	5.0
82.49	5.0
82.505	1.0
82.52	2.0
82.535	3.0
82.55	3.0
82.565	6.0
82.579	4.0
82.594	1.0
82.609	2.0
82.624	2.0
82.639	5.0
82.654	7.0
82.669	3.0
82.684	0.0
82.698	4.0
82.713	2.0
82.728	4.0
82.743	2.0
82.758	2.0
82.773	5.0
82.788	4.0
82.803	4.0
82.817	4.0
82.832	2.0
82.847	1.0
82.862	2.0
82.877	1.0
82.892	7.0
82.907	2.0
82.922	2.0
82.937	3.0
82.951	3.0
82.966	3.0
82.981	3.0
82.996	2.0
83.011	4.0
83.026	1.0
83.041	3.0
83.056	1.0
83.07	3.0
83.085	2.0
83.1	2.0
83.115	2.0
83.13	1.0
83.145	1.0
83.16	2.0
83.175	2.0
83.19	2.0
83.204	4.0
83.219	1.0
83.234	3.0
83.249	3.0
83.264	1.0
83.279	2.0
83.294	1.0
83.309	4.0
83.324	1.0
83.339	3.0
83.353	1.0
83.368	1.0
83.383	3.0
83.398	2.0
83.413	2.0
83.428	2.0
83.443	3.0
83.458	3.0
83.473	2.0
83.488	4.0
83.503	3.0
83.517	4.0
83.532	2.0
83.547	4.0
83.562	3.0
83.577	3.0
83.592	2.0
83.607	1.0
83.622	4.0
83.637	6.0
83.652	3.0
83.667	2.0
83.682	2.0
83.697	1.0
83.712	6.0
83.727	1.0
83.741	5.0
83.756	1.0
83.771	4.0
83.786	2.0
83.801	4.0
83.816	2.0
83.831	9.0
83.846	3.0
83.861	2.0
83.876	2.0
83.891	4.0
83.906	3.0
83.921	4.0
83.936	2.0
83.951	2.0
83.966	3.0
83.981	3.0
83.996	3.0
84.011	1.0
84.026	1.0
84.041	4.0
84.056	3.0
84.071	4.0
84.086	3.0
84.101	1.0
84.116	3.0
84.131	8.0
84.146	3.0
84.161	1.0
84.176	3.0
84.191	1.0
84.206	4.0
84.221	6.0
84.236	7.0
84.251	2.0
84.266	6.0
84.281	2.0
84.296	2.0
84.311	4.0
84.326	6.0
84.341	2.0
84.356	6.0
84.371	5.0
84.386	4.0
84.401	4.0
84.416	9.0
84.431	5.0
84.446	8.0
84.461	4.0
84.476	4.0
84.492	5.0
84.507	3.0
84.522	5.0
84.537	3.0
84.552	2.0
84.567	3.0
84.582	1.0
84.597	4.0
84.612	2.0
84.627	4.0
84.642	0.0
84.657	0.0
84.672	5.0
84.687	2.0
84.702	3.0
84.717	1.0
84.733	0.0
84.748	6.0
84.763	4.0
84.778	7.0
84.793	2.0
84.808	1.0
84.823	0.0
84.838	2.0
84.853	4.0
84.868	3.0
84.883	4.0
84.898	4.0
84.913	0.0
84.929	3.0
84.944	6.0
84.959	5.0
84.974	2.0
84.989	2.0
85.004	1.0
85.019	3.0
85.034	5.0
85.049	3.0
85.064	1.0
85.079	2.0
85.094	3.0
85.11	0.0
85.125	4.0
85.14	4.0
85.155	3.0
85.17	3.0
85.185	2.0
85.2	4.0
85.215	2.0
85.23	4.0
85.245	3.0
85.26	5.0
85.276	4.0
85.291	2.0
85.306	4.0
85.321	3.0
85.336	6.0
85.351	3.0
85.366	0.0
85.381	5.0
85.396	1.0
85.411	1.0
85.426	1.0
85.441	0.0
85.457	5.0
85.472	5.0
85.487	6.0
85.502	1.0
85.517	1.0
85.532	1.0
85.547	2.0
85.562	2.0
85.577	3.0
85.592	0.0
85.607	0.0
85.622	7.0
85.637	2.0
85.653	6.0
85.668	6.0
85.683	5.0
85.698	4.0
85.713	5.0
85.728	1.0
85.743	5.0
85.758	3.0
85.773	0.0
85.788	5.0
85.803	2.0
85.818	2.0
85.833	3.0
85.848	2.0
85.863	4.0
85.879	1.0
85.894	3.0
85.909	6.0
85.924	1.0
85.939	3.0
85.954	3.0
85.969	3.0
85.984	4.0
85.999	6.0
86.014	3.0
86.029	3.0
86.044	5.0
86.059	6.0
86.074	5.0
86.089	0.0
86.104	1.0
86.119	5.0
86.134	4.0
86.149	6.0
86.164	2.0
86.179	3.0
86.194	2.0
86.209	5.0
86.224	4.0
86.239	3.0
86.254	7.0
86.269	3.0
86.284	3.0
86.299	3.0
86.314	2.0
86.33	5.0
86.345	0.0
86.36	6.0
86.375	3.0
86.39	2.0
86.405	5.0
86.42	1.0
86.435	3.0
86.45	2.0
86.465	2.0
86.48	1.0
86.495	2.0
86.51	6.0
86.525	6.0
86.54	7.0
86.555	2.0
86.57	2.0
86.585	5.0
86.6	2.0
86.615	1.0
86.63	3.0
86.645	3.0
86.659	2.0
86.674	4.0
86.689	5.0
86.704	3.0
86.719	4.0
86.734	2.0
86.749	4.0
86.764	2.0
86.779	3.0
86.794	1.0
86.809	2.0
86.824	3.0
86.839	4.0
86.854	2.0
86.869	6.0
86.884	3.0
86.899	2.0
86.914	4.0
86.929	3.0
86.944	5.0
86.959	9.0
86.974	4.0
86.989	5.0
87.004	6.0
87.019	2.0
87.034	2.0
87.049	3.0
87.064	6.0
87.079	3.0
87.094	3.0
87.109	1.0
87.124	1.0
87.139	5.0
87.154	3.0
87.169	2.0
87.184	5.0
87.199	4.0
87.214	1.0
87.229	2.0
87.244	6.0
87.259	2.0
87.274	8.0
87.289	2.0
87.304	4.0
87.319	4.0
87.334	5.0
87.349	1.0
87.364	3.0
87.379	4.0
87.394	3.0
87.409	4.0
87.424	3.0
87.438	2.0
87.453	3.0
87.468	4.0
87.483	2.0
87.498	3.0
87.513	2.0
87.528	1.0
87.543	0.0
87.558	1.0
87.573	6.0
87.588	5.0
87.603	3.0
87.618	3.0
87.633	4.0
87.648	2.0
87.663	2.0
87.678	5.0
87.693	3.0
87.708	5.0
87.723	5.0
87.738	1.0
87.753	6.0
87.768	8.0
87.783	3.0
87.798	5.0
87.813	4.0
87.828	2.0
87.843	9.0
87.858	5.0
87.873	5.0
87.888	2.0
87.903	4.0
87.918	4.0
87.933	7.0
87.948	0.0
87.963	5.0
87.978	5.0
87.993	1.0
88.008	3.0
88.023	2.0
88.038	3.0
88.053	2.0
88.068	4.0
88.083	2.0
88.098	6.0
88.113	2.0
88.128	0.0
88.143	4.0
88.158	2.0
88.174	2.0
88.189	2.0
88.204	3.0
88.219	4.0
88.234	0.0
88.249	2.0
88.264	2.0
88.279	5.0
88.294	4.0
88.309	3.0
88.324	2.0
88.339	3.0
88.354	7.0
88.369	4.0
88.384	5.0
88.399	2.0
88.414	5.0
88.429	5.0
88.444	3.0
88.459	1.0
88.474	1.0
88.489	1.0
88.504	4.0
88.519	3.0
88.534	3.0
88.549	3.0
88.564	1.0
88.58	2.0
88.595	3.0
88.61	3.0
88.625	2.0
88.64	7.0
88.655	4.0
88.67	5.0
88.685	3.0
88.7	3.0
88.715	2.0
88.73	2.0
88.745	5.0
88.76	3.0
88.775	3.0
88.79	4.0
88.805	4.0
88.82	3.0
88.835	2.0
88.85	5.0
88.865	3.0
88.88	5.0
88.895	2.0
88.911	2.0
88.926	2.0
88.941	3.0
88.956	3.0
88.971	2.0
88.986	1.0
89.001	1.0
89.016	3.0
89.031	2.0
89.046	3.0
89.061	6.0
89.076	3.0
89.091	2.0
89.106	2.0
89.121	4.0
89.136	5.0
89.151	3.0
89.166	5.0
89.181	5.0
89.196	6.0
89.211	7.0
89.227	3.0
89.242	3.0
89.257	3.0
89.272	2.0
89.287	4.0
89.302	3.0
89.317	5.0
89.332	5.0
89.347	2.0
89.362	4.0
89.377	5.0
89.392	2.0
89.407	3.0
89.422	1.0
89.437	3.0
89.452	5.0
89.467	3.0
89.482	4.0
89.497	2.0
89.512	2.0
89.527	4.0
89.542	4.0
89.557	1.0
89.572	3.0
89.587	8.0
89.602	2.0
89.617	5.0
89.632	0.0
89.647	1.0
89.662	0.0
89.677	4.0
89.693	3.0
89.708	2.0
89.723	8.0
89.738	8.0
89.753	2.0
89.768	7.0
89.783	6.0
89.798	1.0
89.813	2.0
89.828	2.0
89.843	4.0
89.858	2.0
89.873	5.0
89.888	3.0
89.903	1.0
89.918	1.0
89.933	4.0
89.948	5.0
89.963	2.0
89.978	4.0
89.993	3.0
90.008	6.0
90.023	2.0
90.038	2.0
90.053	2.0
90.068	3.0
90.083	2.0
90.097	10.0
90.112	4.0
90.127	3.0
90.142	4.0
90.157	4.0
90.172	6.0
90.187	2.0
90.202	6.0
90.217	6.0
90.232	6.0
90.247	2.0
90.262	6.0
90.277	3.0
90.292	5.0
90.307	6.0
90.322	6.0
90.337	1.0
90.352	3.0
90.367	0.0
90.382	2.0
90.397	3.0
90.412	3.0
90.427	4.0
90.442	4.0
90.457	2.0
90.472	3.0
90.487	3.0
90.501	2.0
90.516	3.0
90.531	2.0
90.546	4.0
90.561	5.0
90.576	3.0
90.591	4.0
90.606	4.0
90.621	4.0
90.636	6.0
90.651	8.0
90.666	2.0
90.681	2.0
90.696	3.0
90.711	7.0
90.726	4.0
90.741	6.0
90.755	3.0
90.77	3.0
90.785	4.0
90.8	2.0
90.815	1.0
90.83	7.0
90.845	3.0
90.86	1.0
90.875	5.0
90.89	3.0
90.905	3.0
90.92	3.0
90.935	1.0
90.95	1.0
90.965	3.0
90.979	4.0
90.994	3.0
91.009	4.0
91.024	4.0
91.039	3.0
91.054	3.0
91.069	5.0
91.084	2.0
91.099	1.0
91.114	3.0
91.129	2.0
91.144	3.0
91.159	2.0
91.174	3.0
91.188	2.0
91.203	4.0
91.218	1.0
91.233	1.0
91.248	4.0
91.263	1.0
91.278	3.0
91.293	2.0
91.308	4.0
91.323	2.0
91.338	6.0
91.353	3.0
91.368	3.0
91.383	1.0
91.398	4.0
91.412	4.0
91.427	5.0
91.442	2.0
91.457	4.0
91.472	4.0
91.487	5.0
91.502	1.0
91.517	2.0
91.532	4.0
91.547	2.0
91.562	4.0
91.577	3.0
91.592	2.0
91.607	2.0
91.622	3.0
91.637	4.0
91.652	2.0
91.666	1.0
91.681	3.0
91.696	2.0
91.711	2.0
91.726	0.0
91.741	3.0
91.756	1.0
91.771	4.0
91.786	1.0
91.801	3.0
91.816	3.0
91.831	2.0
91.846	6.0
91.861	3.0
91.876	4.0
91.891	2.0
91.906	2.0
91.921	2.0
91.936	3.0
91.951	4.0
91.966	0.0
91.981	2.0
91.995	2.0
92.01	5.0
92.025	4.0
92.04	4.0
92.055	4.0
92.07	4.0
92.085	4.0
92.1	3.0
92.115	4.0
92.13	3.0
92.145	2.0
92.16	5.0
92.175	4.0
92.19	0.0
92.205	4.0
92.22	0.0
92.235	2.0
92.25	1.0
92.265	2.0
92.28	5.0
92.295	4.0
92.31	4.0
92.325	2.0
92.34	1.0
92.355	2.0
92.37	2.0
92.385	2.0
92.4	5.0
92.415	7.0
92.43	5.0
92.445	3.0
92.46	4.0
92.475	3.0
92.49	2.0
92.505	3.0
92.52	2.0
92.535	3.0
92.55	3.0
92.565	4.0
92.58	6.0
92.595	4.0
92.61	2.0
92.625	2.0
92.64	4.0
92.655	2.0
92.67	2.0
92.685	6.0
92.7	0.0
92.715	3.0
92.73	2.0
92.745	1.0
92.76	2.0
92.775	4.0
92.79	3.0
92.805	4.0
92.82	4.0
92.835	3.0
92.85	1.0
92.865	4.0
92.88	2.0
92.895	7.0
92.91	3.0
92.925	5.0
92.94	3.0
92.955	4.0
92.97	3.0
92.985	2.0
93.0	3.0
93.015	5.0
93.03	0.0
93.045	3.0
93.06	2.0
93.075	3.0
93.09	3.0
93.105	5.0
93.12	3.0
93.135	2.0
93.15	4.0
93.165	0.0
93.18	0.0
93.195	4.0
93.21	3.0
93.225	4.0
93.24	0.0
93.255	7.0
93.27	2.0
93.285	2.0
93.3	4.0
93.315	0.0
93.33	2.0
93.345	5.0
93.36	5.0
93.375	2.0
93.39	4.0
93.405	1.0
93.42	4.0
93.435	3.0
93.45	1.0
93.465	3.0
93.48	3.0
93.495	3.0
93.51	9.0
93.525	2.0
93.54	6.0
93.555	3.0
93.57	6.0
93.585	0.0
93.6	6.0
93.615	3.0
93.63	5.0
93.645	2.0
93.66	3.0
93.675	1.0
93.69	2.0
93.705	1.0
93.72	2.0
93.735	2.0
93.75	4.0
93.765	4.0
93.78	2.0
93.795	4.0
93.81	3.0
93.824	6.0
93.839	5.0
93.854	5.0
93.869	3.0
93.884	3.0
93.899	1.0
93.914	1.0
93.929	0.0
93.944	2.0
93.959	3.0
93.974	4.0
93.989	3.0
94.004	2.0
94.019	5.0
94.034	3.0
94.049	3.0
94.064	6.0
94.079	5.0
94.094	4.0
94.108	6.0
94.123	2.0
94.138	3.0
94.153	3.0
94.168	2.0
94.183	7.0
94.198	4.0
94.213	2.0
94.228	4.0
94.243	4.0
94.258	3.0
94.273	3.0
94.288	5.0
94.302	3.0
94.317	6.0
94.332	5.0
94.347	5.0
94.362	4.0
94.377	4.0
94.392	5.0
94.407	6.0
94.422	5.0
94.437	4.0
94.452	9.0
94.466	5.0
94.481	4.0
94.496	6.0
94.511	4.0
94.526	5.0
94.541	6.0
94.556	1.0
94.571	1.0
94.586	3.0
94.601	2.0
94.615	4.0
94.63	2.0
94.645	2.0
94.66	5.0
94.675	5.0
94.69	5.0
94.705	7.0
94.72	5.0
94.735	1.0
94.749	5.0
94.764	2.0
94.779	5.0
94.794	3.0
94.809	3.0
94.824	2.0
94.839	3.0
94.854	3.0
94.868	0.0
94.883	6.0
94.898	3.0
94.913	4.0
94.928	4.0
94.943	3.0
94.958	3.0
94.973	2.0
94.987	3.0
95.002	1.0
95.017	3.0
95.032	5.0
95.047	5.0
95.062	5.0
95.077	4.0
95.092	3.0
95.106	2.0
95.121	2.0
95.136	3.0
95.151	6.0
95.166	2.0
95.181	3.0
95.196	5.0
95.211	9.0
95.226	4.0
95.24	5.0
95.255	6.0
95.27	5.0
95.285	5.0
95.3	4.0
95.315	3.0
95.33	5.0
95.345	1.0
95.359	5.0
95.374	7.0
95.389	1.0
95.404	3.0
95.419	4.0
95.434	3.0
95.449	3.0
95.464	4.0
95.478	1.0
95.493	5.0
95.508	1.0
95.523	2.0
95.538	1.0
95.553	1.0
95.568	3.0
95.583	3.0
95.597	4.0
95.612	2.0
95.627	4.0
95.642	4.0
95.657	4.0
95.672	5.0
95.687	6.0
95.702	3.0
95.717	4.0
95.731	1.0
95.746	4.0
95.761	5.0
95.776	5.0
95.791	5.0
95.806	2.0
95.821	1.0
95.836	2.0
95.851	4.0
95.866	4.0
95.88	1.0
95.895	5.0
95.91	5.0
95.925	0.0
95.94	3.0
95.955	2.0
95.97	5.0
95.985	3.0
96.0	6.0
96.015	3.0
96.029	5.0
96.044	2.0
96.059	3.0
96.074	1.0
96.089	5.0
96.104	5.0
96.119	6.0
96.134	5.0
96.149	4.0
96.164	3.0
96.179	4.0
96.194	3.0
96.208	6.0
96.223	3.0
96.238	2.0
96.253	3.0
96.268	4.0
96.283	5.0
96.298	1.0
96.313	2.0
96.328	5.0
96.343	4.0
96.358	1.0
96.373	1.0
96.388	6.0
96.403	1.0
96.417	4.0
96.432	2.0
96.447	1.0
96.462	3.0
96.477	4.0
96.492	4.0
96.507	3.0
96.522	6.0
96.537	4.0
96.552	3.0
96.567	2.0
96.582	3.0
96.597	5.0
96.612	3.0
96.627	4.0
96.642	8.0
96.656	4.0
96.671	5.0
96.686	9.0
96.701	2.0
96.716	3.0
96.731	5.0
96.746	6.0
96.761	2.0
96.776	4.0
96.791	3.0
96.806	3.0
96.821	3.0
96.836	4.0
96.851	2.0
96.866	4.0
96.881	4.0
96.896	1.0
96.911	6.0
96.926	0.0
96.94	8.0
96.955	3.0
96.97	7.0
96.985	0.0
97.0	4.0
97.015	3.0
97.03	4.0
97.045	3.0
97.06	5.0
97.075	0.0
97.09	3.0
97.105	4.0
97.12	3.0
97.135	4.0
97.15	5.0
97.165	3.0
97.18	4.0
97.195	4.0
97.21	0.0
97.225	4.0
97.239	3.0
97.254	1.0
97.269	3.0
97.284	1.0
97.299	5.0
97.314	3.0
97.329	4.0
97.344	2.0
97.359	3.0
97.374	4.0
97.389	1.0
97.404	5.0
97.419	2.0
97.434	0.0
97.449	2.0
97.464	2.0
97.479	4.0
97.494	2.0
97.509	1.0
97.524	1.0
97.538	2.0
97.553	2.0
97.568	4.0
97.583	3.0
97.598	1.0
97.613	5.0
97.628	5.0
97.643	3.0
97.658	2.0
97.673	3.0
97.688	3.0
97.703	5.0
97.718	4.0
97.733	3.0
97.748	2.0
97.763	1.0
97.778	3.0
97.792	5.0
97.807	3.0
97.822	6.0
97.837	1.0
97.852	0.0
97.867	4.0
97.882	5.0
97.897	2.0
97.912	2.0
97.927	3.0
97.942	3.0
97.957	2.0
97.972	6.0
97.987	1.0
98.001	1.0
98.016	1.0
98.031	4.0
98.046	3.0
98.061	2.0
98.076	6.0
98.091	4.0
98.106	1.0
98.121	2.0
98.136	4.0
98.151	2.0
98.166	4.0
98.181	2.0
98.195	0.0
98.21	4.0
98.225	6.0
98.24	4.0
98.255	2.0
98.27	7.0
98.285	1.0
98.3	3.0
98.315	3.0
98.33	3.0
98.345	2.0
98.359	3.0
98.374	3.0
98.389	4.0
98.404	1.0
98.419	0.0
98.434	2.0
98.449	6.0
98.464	3.0
98.479	1.0
98.494	4.0
98.508	6.0
98.523	2.0
98.538	4.0
98.553	2.0
98.568	1.0
98.583	3.0
98.598	5.0
98.613	2.0
98.628	1.0
98.642	1.0
98.657	4.0
98.672	4.0
98.687	1.0
98.702	4.0
98.717	2.0
98.732	1.0
98.747	1.0
98.762	2.0
98.776	3.0
98.791	1.0
98.806	3.0
98.821	1.0
98.836	7.0
98.851	2.0
98.866	1.0
98.881	3.0
98.896	2.0
98.91	3.0
98.925	4.0
98.94	6.0
98.955	5.0
98.97	4.0
98.985	0.0
99.0	1.0
99.015	0.0
99.029	1.0
99.044	1.0
99.059	1.0
99.074	1.0
99.089	2.0
99.104	4.0
99.119	2.0
99.133	2.0
99.148	2.0
99.163	2.0
99.178	7.0
99.193	6.0
99.208	9.0
99.223	3.0
99.238	5.0
99.252	3.0
99.267	3.0
99.282	5.0
99.297	1.0
99.312	3.0
99.327	4.0
99.342	7.0
99.356	3.0
99.371	3.0
99.386	4.0
99.401	4.0
99.416	3.0
99.431	6.0
99.446	2.0
99.461	6.0
99.475	2.0
99.49	0.0
99.505	4.0
99.52	2.0
99.535	1.0
99.55	5.0
99.565	5.0
99.579	3.0
99.594	1.0
99.609	3.0
99.624	2.0
99.639	5.0
99.654	3.0
99.669	3.0
99.683	3.0
99.698	2.0
99.713	3.0
99.728	2.0
99.743	2.0
99.758	1.0
99.772	4.0
99.787	2.0
99.802	1.0
99.817	3.0
99.832	8.0
99.847	3.0
99.862	3.0
99.876	0.0
99.891	2.0
99.906	1.0
99.921	2.0
99.936	5.0
99.951	4.0
99.966	5.0
99.98	2.0
99.995	4.0
100.01	3.0
100.025	3.0
100.04	2.0
100.055	4.0
100.069	5.0
100.084	3.0
100.099	0.0
100.114	4.0
100.129	3.0
100.144	1.0
100.159	7.0
100.173	2.0
100.188	7.0
100.203	2.0
100.218	4.0
100.233	4.0
100.248	5.0
100.262	2.0
100.277	6.0
100.292	5.0
100.307	4.0
100.322	4.0
100.337	1.0
100.351	10.0
100.366	7.0
100.381	2.0
100.396	0.0
100.411	3.0
100.426	5.0
100.441	5.0
100.455	5.0
100.47	2.0
100.485	5.0
100.5	4.0
100.515	1.0
100.53	1.0
100.544	2.0
100.559	2.0
100.574	3.0
100.589	5.0
100.604	2.0
100.619	2.0
100.633	2.0
100.648	2.0
100.663	2.0
100.678	5.0
100.693	2.0
100.708	3.0
100.722	3.0
100.737	5.0
100.752	5.0
100.767	4.0
100.782	5.0
100.796	5.0
100.811	0.0
100.826	3.0
100.841	4.0
100.856	4.0
100.871	1.0
100.885	1.0
100.9	3.0
100.915	2.0
100.93	6.0
100.945	1.0
100.96	4.0
100.974	3.0
100.989	4.0
101.004	5.0
101.019	3.0
101.034	4.0
101.048	3.0
101.063	3.0
101.078	6.0
101.093	8.0
101.108	1.0
101.123	2.0
101.137	5.0
101.152	4.0
101.167	4.0
101.182	5.0
101.197	1.0
101.211	5.0
101.226	5.0
101.241	5.0
101.256	5.0
101.271	4.0
101.285	4.0
101.3	4.0
101.315	4.0
101.33	4.0
101.345	1.0
101.359	4.0
101.374	4.0
101.389	2.0
101.404	2.0
101.419	3.0
101.433	1.0
101.448	3.0
101.463	1.0
101.478	1.0
101.493	3.0
101.507	0.0
101.522	4.0
101.537	2.0
101.552	4.0
101.567	3.0
101.581	0.0
101.596	2.0
101.611	4.0
101.626	6.0
101.64	4.0
101.655	0.0
101.67	4.0
101.685	4.0
101.7	3.0
101.714	2.0
101.729	2.0
101.744	4.0
101.759	4.0
101.773	3.0
101.788	1.0
101.803	3.0
101.818	2.0
101.833	4.0
101.847	3.0
101.862	4.0
101.877	3.0
101.892	3.0
101.906	1.0
101.921	2.0
101.936	2.0
101.951	2.0
101.965	4.0
101.98	7.0
101.995	6.0
102.01	2.0
102.025	7.0
102.039	4.0
102.054	3.0
102.069	4.0
102.084	2.0
102.098	1.0
102.113	2.0
102.128	3.0
102.143	1.0
102.157	2.0
102.172	8.0
102.187	4.0
102.202	4.0
102.216	3.0
102.231	6.0
102.246	3.0
102.261	3.0
102.275	2.0
102.29	3.0
102.305	3.0
102.32	3.0
102.334	3.0
102.349	2.0
102.364	4.0
102.378	3.0
102.393	1.0
102.408	4.0
102.423	4.0
102.437	7.0
102.452	1.0
102.467	6.0
102.482	4.0
102.496	4.0
102.511	3.0
102.526	3.0
102.541	3.0
102.555	2.0
102.57	1.0
102.585	3.0
102.6	6.0
102.614	2.0
102.629	1.0
102.644	6.0
102.659	5.0
102.673	3.0
102.688	4.0
102.703	1.0
102.717	2.0
102.732	2.0
102.747	1.0
102.762	1.0
102.776	2.0
102.791	0.0
102.806	4.0
102.821	2.0
102.835	5.0
102.85	6.0
102.865	5.0
102.88	4.0
102.894	2.0
102.909	4.0
102.924	6.0
102.938	4.0
102.953	6.0
102.968	0.0
102.983	1.0
102.997	4.0
103.012	3.0
103.027	6.0
103.042	1.0
103.056	1.0
103.071	2.0
103.086	2.0
103.101	2.0
103.115	3.0
103.13	1.0
103.145	2.0
103.16	4.0
103.174	2.0
103.189	3.0
103.204	5.0
103.219	4.0
103.233	4.0
103.248	5.0
103.263	2.0
103.278	0.0
103.292	4.0
103.307	3.0
103.322	4.0
103.337	5.0
103.351	2.0
103.366	0.0
103.381	4.0
103.396	3.0
103.41	6.0
103.425	2.0
103.44	5.0
103.455	4.0
103.469	6.0
103.484	4.0
103.499	1.0
103.514	1.0
103.529	2.0
103.543	4.0
103.558	1.0
103.573	7.0
103.588	3.0
103.602	2.0
103.617	5.0
103.632	0.0
103.647	0.0
103.661	1.0
103.676	4.0
103.691	4.0
103.706	2.0
103.721	2.0
103.735	7.0
103.75	3.0
103.765	5.0
103.78	5.0
103.795	3.0
103.809	5.0
103.824	2.0
103.839	3.0
103.854	7.0
103.869	1.0
103.883	6.0
103.898	0.0
103.913	0.0
103.928	0.0
103.943	1.0
103.957	2.0
103.972	4.0
103.987	3.0
104.002	5.0
104.017	2.0
104.031	2.0
104.046	4.0
104.061	3.0
104.076	2.0
104.091	8.0
104.106	4.0
104.12	5.0
104.135	6.0
104.15	6.0
104.165	3.0
104.18	0.0
104.195	2.0
104.209	1.0
104.224	0.0
104.239	5.0
104.254	2.0
104.269	4.0
104.284	3.0
104.299	1.0
104.313	3.0
104.328	1.0
104.343	3.0
104.358	7.0
104.373	1.0
104.388	7.0
104.403	4.0
104.417	1.0
104.432	4.0
104.447	3.0
104.462	0.0
104.477	1.0
104.492	2.0
104.507	6.0
104.522	4.0
104.536	2.0
104.551	5.0
104.566	2.0
104.581	6.0
104.596	4.0
104.611	6.0
104.626	8.0
104.641	5.0
104.656	3.0
104.67	5.0
104.685	6.0
104.7	3.0
104.715	8.0
104.73	2.0
104.745	0.0
104.76	2.0
104.775	4.0
104.79	6.0
104.804	1.0
104.819	3.0
104.834	0.0
104.849	1.0
104.864	0.0
104.879	2.0
104.894	0.0
104.909	4.0
104.924	3.0
104.939	4.0
104.954	4.0
104.968	4.0
104.983	4.0
104.998	0.0
105.013	6.0
105.028	2.0
105.043	5.0
105.058	4.0
105.073	4.0
105.088	0.0
105.103	1.0
105.118	5.0
105.133	3.0
105.147	1.0
105.162	2.0
105.177	1.0
105.192	0.0
105.207	5.0
105.222	2.0
105.237	3.0
105.252	1.0
105.267	2.0
105.282	6.0
105.297	5.0
105.312	5.0
105.327	6.0
105.342	6.0
105.356	2.0
105.371	1.0
105.386	2.0
105.401	2.0
105.416	1.0
105.431	3.0
105.446	6.0
105.461	2.0
105.476	0.0
105.491	2.0
105.506	3.0
105.521	4.0
105.536	3.0
105.551	1.0
105.566	3.0
105.581	3.0
105.595	6.0
105.61	3.0
105.625	2.0
105.64	3.0
105.655	6.0
105.67	4.0
105.685	3.0
105.7	4.0
105.715	6.0
105.73	4.0
105.745	3.0
105.76	4.0
105.775	4.0
105.79	2.0
105.805	4.0
105.82	2.0
105.835	2.0
105.85	6.0
105.864	2.0
105.879	4.0
105.894	4.0
105.909	0.0
105.924	5.0
105.939	4.0
105.954	3.0
105.969	4.0
105.984	4.0
105.999	4.0
106.014	1.0
106.029	5.0
106.044	1.0
106.059	3.0
106.074	0.0
106.089	5.0
106.104	1.0
106.119	4.0
106.134	2.0
106.148	3.0
106.163	2.0
106.178	7.0
106.193	5.0
106.208	3.0
106.223	4.0
106.238	5.0
106.253	2.0
106.268	3.0
106.283	3.0
106.298	3.0
106.313	2.0
106.328	1.0
106.343	3.0
106.358	2.0
106.373	2.0
106.388	4.0
106.403	2.0
106.418	2.0
106.432	9.0
106.447	3.0
106.462	1.0
106.477	1.0
106.492	3.0
106.507	2.0
106.522	4.0
106.537	4.0
106.552	2.0
106.567	7.0
106.582	6.0
106.597	2.0
106.612	1.0
106.627	3.0
106.642	3.0
106.657	3.0
106.672	1.0
106.687	3.0
106.701	3.0
106.716	4.0
106.731	5.0
106.746	1.0
106.761	4.0
106.776	4.0
106.791	2.0
106.806	2.0
106.821	6.0
106.836	3.0
106.851	7.0
106.866	2.0
106.881	3.0
106.896	4.0
106.911	3.0
106.926	4.0
106.941	2.0
106.955	2.0
106.97	5.0
106.985	4.0
107.0	2.0
107.015	0.0
107.03	2.0
107.045	5.0
107.06	3.0
107.075	9.0
107.09	6.0
107.105	5.0
107.12	4.0
107.135	3.0
107.15	2.0
107.165	6.0
107.18	4.0
107.194	4.0
107.209	10.0
107.224	4.0
107.239	3.0
107.254	5.0
107.269	4.0
107.284	5.0
107.299	5.0
107.314	4.0
107.329	5.0
107.344	2.0
107.359	4.0
107.374	2.0
107.389	1.0
107.404	4.0
107.418	4.0
107.433	4.0
107.448	3.0
107.463	5.0
107.478	3.0
107.493	1.0
107.508	6.0
107.523	4.0
107.538	4.0
107.553	4.0
107.568	4.0
107.583	7.0
107.598	3.0
107.613	1.0
107.627	5.0
107.642	8.0
107.657	3.0
107.672	1.0
107.687	4.0
107.702	1.0
107.717	2.0
107.732	2.0
107.747	3.0
107.762	8.0
107.777	4.0
107.792	2.0
107.807	4.0
107.821	3.0
107.836	3.0
107.851	4.0
107.866	4.0
107.881	4.0
107.896	3.0
107.911	1.0
107.926	5.0
107.941	2.0
107.956	4.0
107.971	5.0
107.986	4.0
108.0	5.0
108.015	2.0
108.03	4.0
108.045	4.0
108.06	6.0
108.075	2.0
108.09	9.0
108.105	3.0
108.12	6.0
108.135	2.0
108.15	3.0
108.164	9.0
108.179	8.0
108.194	2.0
108.209	2.0
108.224	3.0
108.239	4.0
108.254	4.0
108.269	3.0
108.284	7.0
108.299	4.0
108.313	6.0
108.328	1.0
108.343	2.0
108.358	5.0
108.373	8.0
108.388	4.0
108.403	3.0
108.418	2.0
108.433	2.0
108.448	2.0
108.462	6.0
108.477	3.0
108.492	3.0
108.507	5.0
108.522	5.0
108.537	2.0
108.552	2.0
108.567	1.0
108.582	2.0
108.597	2.0
108.611	1.0
108.626	3.0
108.641	1.0
108.656	4.0
108.671	4.0
108.686	7.0
108.701	1.0
108.716	4.0
108.731	0.0
108.745	1.0
108.76	3.0
108.775	6.0
108.79	6.0
108.805	3.0
108.82	3.0
108.835	4.0
108.85	2.0
108.865	3.0
108.879	4.0
108.894	2.0
108.909	4.0
108.924	2.0
108.939	2.0
108.954	2.0
108.969	4.0
108.984	8.0
108.999	1.0
109.013	4.0
109.028	5.0
109.043	4.0
109.058	3.0
109.073	1.0
109.088	8.0
109.103	4.0
109.118	0.0
109.133	6.0
109.147	2.0
109.162	6.0
109.177	4.0
109.192	2.0
109.207	4.0
109.222	2.0
109.237	1.0
109.252	3.0
109.267	2.0
109.281	3.0
109.296	2.0
109.311	2.0
109.326	1.0
109.341	2.0
109.356	3.0
109.371	4.0
109.386	5.0
109.4	7.0
109.415	6.0
109.43	5.0
109.445	3.0
109.46	3.0
109.475	9.0
109.49	2.0
109.505	2.0
109.52	1.0
109.534	6.0
109.549	2.0
109.564	5.0
109.579	3.0
109.594	5.0
109.609	1.0
109.624	5.0
109.639	2.0
109.653	2.0
109.668	3.0
109.683	3.0
109.698	5.0
109.713	0.0
109.728	2.0
109.743	3.0
109.758	1.0
109.773	3.0
109.787	1.0
109.802	4.0
109.817	4.0
109.832	3.0
109.847	3.0
109.862	0.0
109.877	2.0
109.892	7.0
109.907	7.0
109.921	1.0
109.936	3.0
109.951	6.0
109.966	2.0
109.981	2.0
109.996	1.0
110.011	3.0
110.026	1.0
110.04	5.0
110.055	2.0
110.07	6.0
110.085	2.0
110.1	2.0
110.115	5.0
110.13	3.0
110.145	3.0
110.16	4.0
110.174	5.0
110.189	5.0
110.204	7.0
110.219	3.0
110.234	5.0
110.249	3.0
110.264	2.0
110.279	0.0
110.294	4.0
110.308	3.0
110.323	8.0
110.338	2.0
110.353	8.0
110.368	2.0
110.383	2.0
110.398	2.0
110.413	6.0
110.428	4.0
110.442	5.0
110.457	5.0
110.472	3.0
110.487	2.0
110.502	2.0
110.517	4.0
110.532	5.0
110.547	4.0
110.561	1.0
110.576	4.0
110.591	2.0
110.606	4.0
110.621	3.0
110.636	4.0
110.651	0.0
110.666	5.0
110.681	2.0
110.695	5.0
110.71	2.0
110.725	4.0
110.74	3.0
110.755	2.0
110.77	5.0
110.785	6.0
110.8	4.0
110.815	2.0
110.829	5.0
110.844	4.0
110.859	5.0
110.874	4.0
110.889	5.0
110.904	5.0
110.919	3.0
110.934	5.0
110.948	2.0
110.963	1.0
110.978	3.0
110.993	5.0
111.008	0.0
111.023	3.0
111.038	4.0
111.053	7.0
111.067	2.0
111.082	5.0
111.097	4.0
111.112	8.0
111.127	6.0
111.142	2.0
111.157	1.0
111.172	6.0
111.186	5.0
111.201	1.0
111.216	4.0
111.231	8.0
111.246	3.0
111.261	3.0
111.276	2.0
111.291	3.0
111.305	1.0
111.32	3.0
111.335	1.0
111.35	1.0
111.365	1.0
111.38	1.0
111.395	4.0
111.41	0.0
111.424	0.0
111.439	8.0
111.454	3.0
111.469	5.0
111.484	2.0
111.499	4.0
111.514	3.0
111.528	4.0
111.543	4.0
111.558	4.0
111.573	5.0
111.588	3.0
111.603	0.0
111.618	5.0
111.633	3.0
111.647	8.0
111.662	2.0
111.677	2.0
111.692	3.0
111.707	4.0
111.722	1.0
111.737	4.0
111.751	5.0
111.766	5.0
111.781	2.0
111.796	1.0
111.811	6.0
111.826	4.0
111.84	1.0
111.855	2.0
111.87	2.0
111.885	1.0
111.9	6.0
111.915	0.0
111.93	2.0
111.944	4.0
111.959	3.0
111.974	4.0
111.989	6.0
112.004	2.0
112.019	3.0
112.033	1.0
112.048	4.0
112.063	2.0
112.078	2.0
112.093	3.0
112.108	5.0
112.123	3.0
112.137	0.0
112.152	2.0
112.167	5.0
112.182	0.0
112.197	7.0
112.212	5.0
112.226	3.0
112.241	1.0
112.256	4.0
112.271	5.0
112.286	1.0
112.301	4.0
112.315	4.0
112.33	5.0
112.345	4.0
112.36	3.0
112.375	1.0
112.389	6.0
112.404	2.0
112.419	3.0
112.434	5.0
112.449	2.0
112.464	5.0
112.478	8.0
112.493	4.0
112.508	3.0
112.523	4.0
112.538	2.0
112.553	3.0
112.567	5.0
112.582	10.0
112.597	4.0
112.612	1.0
112.627	3.0
112.642	3.0
112.656	4.0
112.671	8.0
112.686	6.0
112.701	3.0
112.716	8.0
112.73	1.0
112.745	2.0
112.76	5.0
112.775	3.0
112.79	2.0
112.805	2.0
112.819	1.0
112.834	3.0
112.849	2.0
112.864	3.0
112.879	3.0
112.894	1.0
112.908	4.0
112.923	1.0
112.938	3.0
112.953	0.0
112.968	2.0
112.983	3.0
112.997	4.0
113.012	3.0
113.027	4.0
113.042	5.0
113.057	4.0
113.072	1.0
113.086	3.0
113.101	2.0
113.116	1.0
113.131	2.0
113.146	6.0
113.161	1.0
113.175	1.0
113.19	4.0
113.205	2.0
113.22	3.0
113.235	2.0
113.25	4.0
113.265	2.0
113.279	2.0
113.294	3.0
113.309	5.0
113.324	7.0
113.339	7.0
113.354	2.0
113.368	2.0
113.383	3.0
113.398	3.0
113.413	2.0
113.428	3.0
113.443	1.0
113.458	2.0
113.472	3.0
113.487	2.0
113.502	7.0
113.517	2.0
113.532	4.0
113.547	2.0
113.562	5.0
113.576	4.0
113.591	4.0
113.606	7.0
113.621	4.0
113.636	3.0
113.651	4.0
113.666	3.0
113.681	4.0
113.695	6.0
113.71	3.0
113.725	1.0
113.74	1.0
113.755	3.0
113.77	1.0
113.785	2.0
113.8	2.0
113.814	2.0
113.829	3.0
113.844	5.0
113.859	3.0
113.874	3.0
113.889	2.0
113.904	5.0
113.919	0.0
113.934	4.0
113.949	2.0
113.963	2.0
113.978	3.0
113.993	2.0
114.008	2.0
114.023	2.0
114.038	1.0
114.053	4.0
114.068	4.0
114.083	5.0
114.098	6.0
114.113	1.0
114.127	3.0
114.142	1.0
114.157	2.0
114.172	2.0
114.187	2.0
114.202	4.0
114.217	2.0
114.232	1.0
114.247	7.0
114.262	1.0
114.277	8.0
114.292	0.0
114.307	3.0
114.322	6.0
114.337	9.0
114.351	5.0
114.366	5.0
114.381	7.0
114.396	4.0
114.411	3.0
114.426	6.0
114.441	3.0
114.456	4.0
114.471	4.0
114.486	5.0
114.501	1.0
114.516	5.0
114.531	3.0
114.546	3.0
114.561	6.0
114.576	4.0
114.591	2.0
114.606	3.0
114.621	3.0
114.636	5.0
114.65	5.0
114.665	4.0
114.68	6.0
114.695	4.0
114.71	5.0
114.725	10.0
114.74	4.0
114.755	2.0
114.77	1.0
114.785	6.0
114.8	2.0
114.815	6.0
114.83	3.0
114.845	4.0
114.86	6.0
114.875	3.0
114.89	2.0
114.905	3.0
114.92	0.0
114.935	3.0
114.95	4.0
114.965	4.0
114.98	2.0
114.995	6.0
115.009	5.0
115.024	4.0
115.039	3.0
115.054	5.0
115.069	1.0
115.084	4.0
115.099	2.0
115.114	2.0
115.129	4.0
115.144	3.0
115.159	2.0
115.174	5.0
115.189	3.0
115.204	6.0
115.219	1.0
115.234	5.0
115.249	7.0
115.264	3.0
115.279	5.0
115.294	3.0
115.309	8.0
115.323	2.0
115.338	4.0
115.353	2.0
115.368	4.0
115.383	3.0
115.398	5.0
115.413	4.0
115.428	4.0
115.443	5.0
115.458	4.0
115.473	3.0
115.488	5.0
115.503	5.0
115.518	4.0
115.533	4.0
115.548	4.0
115.562	9.0
115.577	2.0
115.592	4.0
115.607	2.0
115.622	6.0
115.637	5.0
115.652	2.0
115.667	3.0
115.682	3.0
115.697	3.0
115.712	3.0
115.727	1.0
115.741	4.0
115.756	5.0
115.771	3.0
115.786	1.0
115.801	7.0
115.816	3.0
115.831	2.0
115.846	3.0
115.861	4.0
115.875	6.0
115.89	1.0
115.905	2.0
115.92	4.0
115.935	1.0
115.95	7.0
115.965	6.0
115.98	5.0
115.995	6.0
116.009	5.0
116.024	4.0
116.039	5.0
116.054	4.0
116.069	3.0
116.084	3.0
116.099	3.0
116.113	6.0
116.128	4.0
116.143	1.0
116.158	3.0
116.173	7.0
116.188	5.0
116.202	1.0
116.217	2.0
116.232	3.0
116.247	4.0
116.262	3.0
116.277	5.0
116.291	2.0
116.306	4.0
116.321	5.0
116.336	6.0
116.351	2.0
116.366	2.0
116.38	3.0
116.395	4.0
116.41	2.0
116.425	6.0
116.44	7.0
116.454	3.0
116.469	4.0
116.484	3.0
116.499	3.0
116.514	4.0
116.528	8.0
116.543	2.0
116.558	3.0
116.573	7.0
116.588	4.0
116.602	5.0
116.617	3.0
116.632	2.0
116.647	2.0
116.662	7.0
116.676	3.0
116.691	3.0
116.706	5.0
116.721	4.0
116.735	3.0
116.75	2.0
116.765	4.0
116.78	4.0
116.795	3.0
116.809	2.0
116.824	4.0
116.839	6.0
116.854	4.0
116.868	3.0
116.883	5.0
116.898	4.0
116.913	4.0
116.927	2.0
116.942	2.0
116.957	3.0
116.972	2.0
116.986	2.0
117.001	3.0
117.016	4.0
117.031	9.0
117.045	2.0
117.06	2.0
117.075	2.0
117.09	1.0
117.104	4.0
117.119	7.0
117.134	5.0
117.149	3.0
117.163	4.0
117.178	3.0
117.193	5.0
117.208	3.0
117.222	2.0
117.237	4.0
117.252	2.0
117.267	4.0
117.281	2.0
117.296	3.0
117.311	7.0
117.325	2.0
117.34	5.0
117.355	2.0
117.37	2.0
117.384	3.0
117.399	3.0
117.414	4.0
117.429	2.0
117.443	6.0
117.458	5.0
117.473	5.0
117.487	6.0
117.502	4.0
117.517	3.0
117.532	4.0
117.546	3.0
117.561	5.0
117.576	5.0
117.59	3.0
117.605	1.0
117.62	5.0
117.635	5.0
117.649	2.0
117.664	4.0
117.679	4.0
117.693	1.0
117.708	4.0
117.723	12.0
117.738	2.0
117.752	2.0
117.767	8.0
117.782	5.0
117.796	0.0
117.811	4.0
117.826	2.0
117.841	1.0
117.855	5.0
117.87	2.0
117.885	2.0
117.899	4.0
117.914	4.0
117.929	4.0
117.944	6.0
117.958	4.0
117.973	2.0
117.988	5.0
118.002	3.0
118.017	2.0
118.032	3.0
118.047	5.0
118.062	2.0
118.077	4.0
118.092	4.0
118.107	6.0
118.121	4.0
118.136	1.0
118.151	2.0
118.166	5.0
118.181	3.0
118.196	7.0
118.211	6.0
118.225	2.0
118.24	1.0
118.255	3.0
118.27	4.0
118.285	4.0
118.3	2.0
118.315	3.0
118.33	2.0
118.344	5.0
118.359	4.0
118.374	1.0
118.389	1.0
118.404	2.0
118.419	5.0
118.434	2.0
118.449	5.0
118.463	5.0
118.478	4.0
118.493	1.0
118.508	4.0
118.523	1.0
118.538	1.0
118.553	3.0
118.567	7.0
118.582	2.0
118.597	3.0
118.612	3.0
118.627	4.0
118.642	4.0
118.657	2.0
118.672	5.0
118.686	3.0
118.701	5.0
118.716	6.0
118.731	3.0
118.746	2.0
118.761	2.0
118.776	2.0
118.791	4.0
118.805	3.0
118.82	7.0
118.835	0.0
118.85	4.0
118.865	0.0
118.88	4.0
118.895	4.0
118.909	0.0
118.924	6.0
118.939	1.0
118.954	4.0
118.969	0.0
118.984	1.0
118.999	5.0
119.014	5.0
119.028	5.0
119.043	4.0
119.058	7.0
119.073	6.0
119.088	5.0
119.103	4.0
119.118	5.0
119.133	1.0
119.147	3.0
119.162	5.0
119.177	1.0
119.192	3.0
119.207	8.0
119.222	5.0
119.237	3.0
119.251	4.0
119.266	4.0
119.281	4.0
119.296	7.0
119.311	6.0
119.326	4.0
119.341	1.0
119.356	2.0
119.37	4.0
119.385	1.0
119.4	5.0
119.415	6.0
119.43	3.0
119.445	0.0
119.46	3.0
119.475	3.0
119.489	2.0
119.504	4.0
119.519	3.0
119.534	8.0
119.549	3.0
119.564	4.0
119.579	4.0
119.593	5.0
119.608	6.0
119.623	4.0
119.638	2.0
119.653	3.0
119.668	3.0
119.683	2.0
119.698	2.0
119.712	6.0
119.727	2.0
119.742	2.0
119.757	4.0
119.772	2.0
119.787	2.0
119.802	2.0
119.817	1.0
119.831	3.0
119.846	2.0
119.861	4.0
119.876	2.0
119.891	4.0
119.906	1.0
119.921	3.0
119.935	2.0
119.95	1.0
119.965	1.0
119.98	2.0
119.995	3.0
120.01	3.0
120.025	0.0
120.04	3.0
120.054	3.0
120.069	4.0
120.084	4.0
120.099	0.0
120.114	1.0
120.129	1.0
120.144	3.0
120.159	2.0
120.173	5.0
120.188	2.0
120.203	2.0
120.218	2.0
120.233	0.0
120.248	0.0
120.263	1.0
120.277	0.0
120.292	1.0
120.307	0.0
120.322	0.0
120.337	0.0
120.352	0.0
120.367	0.0
120.382	0.0
120.396	0.0
120.411	0.0
120.426	0.0
120.441	0.0
120.456	0.0
120.471	0.0
120.486	0.0
120.501	0.0
120.515	0.0
120.53	0.0
120.545	1.0
120.56	0.0
120.575	0.0
120.59	0.0
120.605	0.0
120.619	0.0
120.634	0.0
120.649	0.0
120.664	0.0
120.679	0.0
120.694	0.0
120.709	0.0
120.724	0.0
120.738	0.0
120.753	1.0
120.768	0.0
120.783	1.0
120.798	0.0
120.813	0.0
120.828	0.0
120.843	1.0
120.857	0.0
120.872	0.0
120.887	0.0
120.902	0.0
120.917	0.0
120.932	0.0
120.947	0.0
120.961	0.0
120.976	0.0
