-1.217	0.0
-1.202	0.0
-1.187	0.0
-1.172	0.0
-1.157	0.0
-1.142	0.0
-1.128	1.0
-1.113	0.0
-1.098	0.0
-1.083	0.0
-1.068	0.0
-1.054	0.0
-1.039	0.0
-1.024	0.0
-1.009	0.0
-0.994	0.0
-0.979	0.0
-0.965	0.0
-0.95	0.0
-0.935	0.0
-0.92	0.0
-0.905	1.0
-0.891	0.0
-0.876	0.0
-0.861	0.0
-0.846	0.0
-0.831	0.0
-0.816	0.0
-0.802	0.0
-0.787	0.0
-0.772	0.0
-0.757	0.0
-0.742	0.0
-0.728	0.0
-0.713	0.0
-0.698	0.0
-0.683	0.0
-0.668	0.0
-0.653	0.0
-0.639	0.0
-0.624	0.0
-0.609	0.0
-0.594	0.0
-0.579	0.0
-0.565	0.0
-0.55	0.0
-0.535	0.0
-0.52	0.0
-0.505	0.0
-0.49	0.0
-0.476	0.0
-0.461	0.0
-0.446	0.0
-0.431	0.0
-0.416	0.0
-0.401	1.0
-0.387	0.0
-0.372	0.0
-0.357	0.0
-0.342	0.0
-0.327	0.0
-0.313	0.0
-0.298	0.0
-0.283	0.0
-0.268	0.0
-0.253	0.0
-0.238	0.0
-0.224	0.0
-0.209	0.0
-0.194	0.0
-0.179	0.0
-0.164	0.0
-0.15	0.0
-0.135	0.0
-0.12	0.0
-0.105	0.0
-0.09	0.0
-0.075	0.0
-0.061	0.0
-0.046	0.0
-0.031	0.0
-0.016	0.0
-0.001	0.0
0.013	0.0
0.028	0.0
0.043	0.0
0.058	0.0
0.073	0.0
0.088	0.0
0.102	0.0
0.117	0.0
0.132	0.0
0.147	0.0
0.162	0.0
0.176	0.0
0.191	0.0
0.206	0.0
0.221	0.0
0.236	0.0
0.251	0.0
0.265	0.0
0.28	0.0
0.295	0.0
0.31	0.0
0.325	0.0
0.339	0.0
0.354	1.0
0.369	0.0
0.384	0.0
0.399	0.0
0.414	0.0
0.428	0.0
0.443	0.0
0.458	0.0
0.473	0.0
0.488	0.0
0.502	0.0
0.517	0.0
0.532	0.0
0.547	0.0
0.562	0.0
0.577	0.0
0.591	0.0
0.606	0.0
0.621	0.0
0.636	0.0
0.651	0.0
0.665	0.0
0.68	0.0
0.695	0.0
0.71	0.0
0.725	1.0
0.74	0.0
0.754	0.0
0.769	0.0
0.784	0.0
0.799	0.0
0.814	0.0
0.828	0.0
0.843	0.0
0.858	0.0
0.873	0.0
0.888	0.0
0.903	0.0
0.917	0.0
0.932	0.0
0.947	0.0
0.962	0.0
0.977	0.0
0.991	0.0
1.006	0.0
1.021	0.0
1.036	0.0
1.051	0.0
1.065	0.0
1.08	0.0
1.095	0.0
1.11	0.0
1.125	0.0
1.14	1.0
1.154	0.0
1.169	0.0
1.184	0.0
1.199	0.0
1.214	1.0
1.228	0.0
1.243	0.0
1.258	0.0
1.273	0.0
1.288	0.0
1.302	0.0
1.317	0.0
1.332	0.0
1.347	0.0
1.362	0.0
1.376	0.0
1.391	0.0
1.406	0.0
1.421	1.0
1.436	0.0
1.45	0.0
1.465	0.0
1.48	0.0
1.495	0.0
1.51	0.0
1.524	0.0
1.539	0.0
1.554	0.0
1.569	0.0
1.584	0.0
1.598	0.0
1.613	0.0
1.628	0.0
1.643	0.0
1.658	0.0
1.672	0.0
1.687	1.0
1.702	0.0
1.717	1.0
1.732	0.0
1.746	0.0
1.761	0.0
1.776	0.0
1.791	0.0
1.806	0.0
1.82	0.0
1.835	0.0
1.85	0.0
1.865	0.0
1.88	0.0
1.894	0.0
1.909	0.0
1.924	0.0
1.939	0.0
1.954	0.0
1.968	0.0
1.983	0.0
1.998	0.0
2.013	2.0
2.028	0.0
2.042	0.0
2.057	0.0
2.072	0.0
2.087	0.0
2.101	0.0
2.116	0.0
2.131	0.0
2.146	0.0
2.161	0.0
2.175	0.0
2.19	1.0
2.205	0.0
2.22	0.0
2.235	0.0
2.249	0.0
2.264	0.0
2.279	1.0
2.294	0.0
2.308	3.0
2.323	1.0
2.338	0.0
2.353	1.0
2.368	1.0
2.382	1.0
2.397	0.0
2.412	1.0
2.427	0.0
2.442	2.0
2.456	1.0
2.471	2.0
2.486	0.0
2.501	1.0
2.515	2.0
2.53	2.0
2.545	5.0
2.56	0.0
2.575	6.0
2.589	3.0
2.604	1.0
2.619	3.0
2.634	2.0
2.649	6.0
2.663	1.0
2.678	4.0
2.693	1.0
2.708	1.0
2.722	6.0
2.737	3.0
2.752	2.0
2.767	1.0
2.782	3.0
2.796	2.0
2.811	3.0
2.826	4.0
2.841	2.0
2.856	3.0
2.87	0.0
2.885	4.0
2.9	3.0
2.915	3.0
2.93	0.0
2.944	0.0
2.959	7.0
2.974	7.0
2.989	2.0
3.004	6.0
3.018	2.0
3.033	1.0
3.048	7.0
3.063	2.0
3.078	2.0
3.092	5.0
3.107	6.0
3.122	5.0
3.137	4.0
3.152	6.0
3.166	4.0
3.181	3.0
3.196	3.0
3.211	14.0
3.226	3.0
3.24	7.0
3.255	4.0
3.27	4.0
3.285	5.0
3.3	5.0
3.315	3.0
3.329	5.0
3.344	1.0
3.359	6.0
3.374	5.0
3.389	6.0
3.403	5.0
3.418	3.0
3.433	3.0
3.448	6.0
3.463	5.0
3.478	6.0
3.492	5.0
3.507	6.0
3.522	6.0
3.537	4.0
3.552	7.0
3.567	4.0
3.581	1.0
3.596	3.0
3.611	5.0
3.626	5.0
3.641	5.0
3.656	5.0
3.671	3.0
3.685	9.0
3.7	9.0
3.715	6.0
3.73	3.0
3.745	6.0
3.76	5.0
3.775	6.0
3.789	4.0
3.804	8.0
3.819	8.0
3.834	6.0
3.849	2.0
3.864	6.0
3.879	4.0
3.894	8.0
3.908	2.0
3.923	6.0
3.938	10.0
3.953	7.0
3.968	3.0
3.983	2.0
3.998	2.0
4.013	13.0
4.027	6.0
4.042	9.0
4.057	11.0
4.072	5.0
4.087	6.0
4.102	8.0
4.117	6.0
4.132	7.0
4.147	5.0
4.162	3.0
4.176	12.0
4.191	10.0
4.206	8.0
4.221	2.0
4.236	9.0
4.251	2.0
4.266	5.0
4.281	8.0
4.296	5.0
4.311	4.0
4.326	7.0
4.341	7.0
4.356	5.0
4.37	8.0
4.385	3.0
4.4	7.0
4.415	8.0
4.43	4.0
4.445	5.0
4.46	4.0
4.475	3.0
4.49	12.0
4.505	6.0
4.52	9.0
4.535	5.0
4.55	5.0
4.565	3.0
4.58	9.0
4.595	12.0
4.61	10.0
4.625	11.0
4.639	3.0
4.654	3.0
4.669	11.0
4.684	13.0
4.699	5.0
4.714	7.0
4.729	4.0
4.744	7.0
4.759	11.0
4.774	5.0
4.789	5.0
4.804	10.0
4.819	5.0
4.834	6.0
4.849	3.0
4.864	9.0
4.879	5.0
4.894	10.0
4.909	5.0
4.924	7.0
4.939	7.0
4.954	4.0
4.969	6.0
4.984	13.0
4.999	5.0
5.014	9.0
5.029	8.0
5.044	3.0
5.059	6.0
5.074	13.0
5.089	5.0
5.104	6.0
5.119	3.0
5.134	9.0
5.149	4.0
5.164	4.0
5.179	5.0
5.194	7.0
5.209	7.0
5.224	11.0
5.239	6.0
5.254	14.0
5.269	12.0
5.284	8.0
5.299	3.0
5.314	13.0
5.329	4.0
5.344	11.0
5.359	10.0
5.374	12.0
5.389	7.0
5.404	8.0
5.419	5.0
5.434	8.0
5.449	9.0
5.464	18.0
5.479	6.0
5.494	6.0
5.509	6.0
5.524	10.0
5.539	10.0
5.554	12.0
5.569	12.0
5.584	3.0
5.599	4.0
5.614	6.0
5.629	8.0
5.644	8.0
5.659	8.0
5.674	6.0
5.689	13.0
5.704	16.0
5.719	6.0
5.734	6.0
5.749	8.0
5.764	9.0
5.779	5.0
5.794	8.0
5.809	12.0
5.824	5.0
5.839	10.0
5.854	8.0
5.869	8.0
5.884	7.0
5.899	7.0
5.914	8.0
5.929	7.0
5.944	11.0
5.959	10.0
5.974	13.0
5.989	3.0
6.004	11.0
6.019	5.0
6.034	5.0
6.049	6.0
6.064	12.0
6.079	7.0
6.094	7.0
6.109	8.0
6.124	14.0
6.139	9.0
6.154	13.0
6.169	5.0
6.184	9.0
6.199	6.0
6.214	15.0
6.229	8.0
6.244	8.0
6.259	11.0
6.274	9.0
6.289	9.0
6.304	12.0
6.319	10.0
6.334	6.0
6.349	9.0
6.364	12.0
6.379	8.0
6.394	5.0
6.409	11.0
6.424	5.0
6.439	9.0
6.454	9.0
6.469	9.0
6.484	11.0
6.499	6.0
6.514	13.0
6.529	4.0
6.544	4.0
6.559	6.0
6.574	9.0
6.589	9.0
6.604	4.0
6.619	12.0
6.634	6.0
6.649	10.0
6.664	10.0
6.679	7.0
6.694	9.0
6.709	7.0
6.724	18.0
6.739	11.0
6.754	14.0
6.769	15.0
6.784	7.0
6.799	4.0
6.814	8.0
6.829	7.0
6.844	7.0
6.859	5.0
6.873	4.0
6.888	4.0
6.903	12.0
6.918	10.0
6.933	6.0
6.948	8.0
6.963	5.0
6.978	8.0
6.993	8.0
7.008	5.0
7.023	14.0
7.038	8.0
7.053	10.0
7.068	13.0
7.083	6.0
7.098	14.0
7.113	13.0
7.128	7.0
7.143	7.0
7.157	8.0
7.172	14.0
7.187	10.0
7.202	6.0
7.217	8.0
7.232	5.0
7.247	9.0
7.262	5.0
7.277	12.0
7.292	10.0
7.307	12.0
7.322	6.0
7.336	6.0
7.351	9.0
7.366	6.0
7.381	11.0
7.396	8.0
7.411	6.0
7.426	12.0
7.441	9.0
7.456	11.0
7.471	15.0
7.485	9.0
7.5	10.0
7.515	8.0
7.53	10.0
7.545	7.0
7.56	8.0
7.575	7.0
7.59	9.0
7.604	8.0
7.619	13.0
7.634	4.0
7.649	9.0
7.664	6.0
7.679	6.0
7.693	11.0
7.708	4.0
7.723	3.0
7.738	13.0
7.753	3.0
7.768	3.0
7.783	6.0
7.797	8.0
7.812	7.0
7.827	1.0
7.842	6.0
7.857	8.0
7.871	11.0
7.886	13.0
7.901	6.0
7.916	12.0
7.931	12.0
7.945	12.0
7.96	9.0
7.975	10.0
7.99	6.0
8.005	11.0
8.019	11.0
8.034	13.0
8.049	7.0
8.064	11.0
8.078	9.0
8.093	7.0
8.108	9.0
8.123	8.0
8.137	14.0
8.152	14.0
8.167	4.0
8.182	8.0
8.196	8.0
8.211	9.0
8.226	8.0
8.241	8.0
8.255	14.0
8.27	8.0
8.285	17.0
8.3	12.0
8.314	15.0
8.329	12.0
8.344	7.0
8.358	10.0
8.373	8.0
8.388	6.0
8.403	6.0
8.417	5.0
8.432	3.0
8.447	12.0
8.461	12.0
8.476	7.0
8.491	5.0
8.505	10.0
8.52	9.0
8.535	4.0
8.55	10.0
8.564	6.0
8.579	11.0
8.594	5.0
8.608	11.0
8.623	14.0
8.638	11.0
8.652	7.0
8.667	6.0
8.682	5.0
8.696	11.0
8.711	8.0
8.726	7.0
8.74	6.0
8.755	5.0
8.77	9.0
8.784	9.0
8.799	7.0
8.814	11.0
8.828	6.0
8.843	11.0
8.858	6.0
8.872	10.0
8.887	9.0
8.902	5.0
8.916	6.0
8.931	10.0
8.946	8.0
8.96	12.0
8.975	9.0
8.99	11.0
9.004	13.0
9.019	11.0
9.034	10.0
9.048	9.0
9.063	3.0
9.077	10.0
9.092	13.0
9.107	8.0
9.121	10.0
9.136	8.0
9.151	11.0
9.165	10.0
9.18	4.0
9.195	14.0
9.209	5.0
9.224	8.0
9.239	7.0
9.253	13.0
9.268	9.0
9.283	12.0
9.297	8.0
9.312	7.0
9.327	10.0
9.341	9.0
9.356	6.0
9.371	11.0
9.385	4.0
9.4	5.0
9.415	8.0
9.429	8.0
9.444	7.0
9.458	8.0
9.473	9.0
9.488	2.0
9.502	8.0
9.517	6.0
9.532	10.0
9.546	8.0
9.561	6.0
9.576	19.0
9.59	9.0
9.605	7.0
9.62	8.0
9.635	13.0
9.649	9.0
9.664	10.0
9.679	10.0
9.693	5.0
9.708	8.0
9.723	9.0
9.737	10.0
9.752	10.0
9.767	6.0
9.781	7.0
9.796	9.0
9.811	8.0
9.825	7.0
9.84	12.0
9.855	14.0
9.87	8.0
9.884	15.0
9.899	10.0
9.914	13.0
9.928	9.0
9.943	6.0
9.958	8.0
9.973	10.0
9.987	16.0
10.002	11.0
10.017	13.0
10.031	7.0
10.046	8.0
10.061	16.0
10.076	6.0
10.09	10.0
10.105	11.0
10.12	6.0
10.135	8.0
10.149	2.0
10.164	6.0
10.179	3.0
10.194	9.0
10.208	6.0
10.223	11.0
10.238	7.0
10.253	6.0
10.267	7.0
10.282	6.0
10.297	6.0
10.312	9.0
10.326	12.0
10.341	5.0
10.356	9.0
10.371	8.0
10.386	5.0
10.4	9.0
10.415	16.0
10.43	8.0
10.445	2.0
10.46	4.0
10.474	10.0
10.489	14.0
10.504	10.0
10.519	6.0
10.533	11.0
10.548	4.0
10.563	10.0
10.578	7.0
10.593	5.0
10.608	9.0
10.622	10.0
10.637	8.0
10.652	10.0
10.667	13.0
10.682	7.0
10.696	8.0
10.711	12.0
10.726	11.0
10.741	6.0
10.756	10.0
10.771	3.0
10.785	8.0
10.8	9.0
10.815	7.0
10.83	8.0
10.845	6.0
10.86	6.0
10.874	8.0
10.889	6.0
10.904	11.0
10.919	12.0
10.934	6.0
10.949	7.0
10.963	7.0
10.978	15.0
10.993	9.0
11.008	5.0
11.023	15.0
11.038	11.0
11.053	6.0
11.067	7.0
11.082	10.0
11.097	8.0
11.112	12.0
11.127	10.0
11.142	5.0
11.157	6.0
11.172	9.0
11.186	6.0
11.201	9.0
11.216	11.0
11.231	10.0
11.246	11.0
11.261	10.0
11.276	6.0
11.291	4.0
11.305	8.0
11.32	15.0
11.335	11.0
11.35	9.0
11.365	11.0
11.38	8.0
11.395	7.0
11.41	11.0
11.424	11.0
11.439	11.0
11.454	7.0
11.469	7.0
11.484	9.0
11.499	11.0
11.514	6.0
11.529	4.0
11.544	8.0
11.558	13.0
11.573	12.0
11.588	8.0
11.603	6.0
11.618	7.0
11.633	3.0
11.648	6.0
11.663	8.0
11.678	10.0
11.693	12.0
11.707	11.0
11.722	5.0
11.737	6.0
11.752	9.0
11.767	8.0
11.782	9.0
11.797	3.0
11.812	4.0
11.827	10.0
11.842	10.0
11.856	10.0
11.871	7.0
11.886	8.0
11.901	11.0
11.916	8.0
11.931	11.0
11.946	14.0
11.961	10.0
11.976	11.0
11.991	13.0
12.006	10.0
12.02	8.0
12.035	11.0
12.05	11.0
12.065	10.0
12.08	7.0
12.095	10.0
12.11	13.0
12.125	9.0
12.14	14.0
12.155	9.0
12.17	12.0
12.184	8.0
12.199	12.0
12.214	10.0
12.229	13.0
12.244	13.0
12.259	8.0
12.274	16.0
12.289	17.0
12.304	3.0
12.319	9.0
12.334	14.0
12.348	20.0
12.363	8.0
12.378	16.0
12.393	7.0
12.408	9.0
12.423	18.0
12.438	16.0
12.453	16.0
12.468	8.0
12.483	10.0
12.498	16.0
12.513	12.0
12.527	5.0
12.542	11.0
12.557	10.0
12.572	9.0
12.587	8.0
12.602	9.0
12.617	11.0
12.632	14.0
12.647	9.0
12.662	12.0
12.677	16.0
12.692	11.0
12.707	15.0
12.721	11.0
12.736	17.0
12.751	13.0
12.766	9.0
12.781	14.0
12.796	20.0
12.811	8.0
12.826	12.0
12.841	21.0
12.856	7.0
12.871	17.0
12.886	16.0
12.9	12.0
12.915	12.0
12.93	19.0
12.945	12.0
12.96	10.0
12.975	23.0
12.99	27.0
13.005	18.0
13.02	11.0
13.035	13.0
13.05	19.0
13.065	22.0
13.08	14.0
13.094	13.0
13.109	21.0
13.124	14.0
13.139	29.0
13.154	14.0
13.169	16.0
13.184	17.0
13.199	22.0
13.214	16.0
13.229	11.0
13.244	12.0
13.259	13.0
13.274	30.0
13.288	23.0
13.303	23.0
13.318	14.0
13.333	17.0
13.348	20.0
13.363	29.0
13.378	24.0
13.393	19.0
13.408	29.0
13.423	18.0
13.438	31.0
13.453	34.0
13.468	41.0
13.482	33.0
13.497	38.0
13.512	35.0
13.527	46.0
13.542	32.0
13.557	43.0
13.572	47.0
13.587	54.0
13.602	59.0
13.617	58.0
13.632	75.0
13.647	71.0
13.662	76.0
13.677	87.0
13.691	82.0
13.706	85.0
13.721	98.0
13.736	118.0
13.751	102.0
13.766	122.0
13.781	124.0
13.796	144.0
13.811	169.0
13.826	123.0
13.841	132.0
13.856	134.0
13.871	109.0
13.885	127.0
13.9	87.0
13.915	60.0
13.93	66.0
13.945	57.0
13.96	56.0
13.975	51.0
13.99	39.0
14.005	43.0
14.02	32.0
14.035	35.0
14.05	30.0
14.065	30.0
14.08	17.0
14.094	27.0
14.109	24.0
14.124	26.0
14.139	19.0
14.154	30.0
14.169	20.0
14.184	20.0
14.199	27.0
14.214	17.0
14.229	21.0
14.244	32.0
14.259	23.0
14.274	18.0
14.288	20.0
14.303	18.0
14.318	24.0
14.333	15.0
14.348	17.0
14.363	26.0
14.378	14.0
14.393	20.0
14.408	11.0
14.423	18.0
14.438	21.0
14.453	17.0
14.468	17.0
14.482	23.0
14.497	22.0
14.512	23.0
14.527	18.0
14.542	21.0
14.557	19.0
14.572	24.0
14.587	19.0
14.602	16.0
14.617	20.0
14.632	22.0
14.647	17.0
14.661	16.0
14.676	24.0
14.691	18.0
14.706	19.0
14.721	14.0
14.736	22.0
14.751	19.0
14.766	19.0
14.781	15.0
14.796	13.0
14.811	19.0
14.826	18.0
14.84	12.0
14.855	9.0
14.87	18.0
14.885	24.0
14.9	14.0
14.915	13.0
14.93	13.0
14.945	13.0
14.96	13.0
14.975	16.0
14.989	26.0
15.004	14.0
15.019	19.0
15.034	17.0
15.049	24.0
15.064	13.0
15.079	12.0
15.094	12.0
15.109	16.0
15.124	18.0
15.138	21.0
15.153	13.0
15.168	13.0
15.183	24.0
15.198	18.0
15.213	10.0
15.228	13.0
15.243	15.0
15.258	7.0
15.272	22.0
15.287	21.0
15.302	19.0
15.317	9.0
15.332	15.0
15.347	23.0
15.362	9.0
15.377	15.0
15.391	12.0
15.406	16.0
15.421	17.0
15.436	18.0
15.451	13.0
15.466	15.0
15.481	14.0
15.496	9.0
15.51	11.0
15.525	10.0
15.54	15.0
15.555	17.0
15.57	15.0
15.585	12.0
15.6	14.0
15.614	9.0
15.629	14.0
15.644	19.0
15.659	12.0
15.674	15.0
15.689	15.0
15.704	17.0
15.718	18.0
15.733	19.0
15.748	10.0
15.763	10.0
15.778	13.0
15.793	12.0
15.808	24.0
15.822	18.0
15.837	8.0
15.852	8.0
15.867	16.0
15.882	18.0
15.897	15.0
15.911	8.0
15.926	12.0
15.941	10.0
15.956	12.0
15.971	9.0
15.986	11.0
16.0	16.0
16.015	14.0
16.03	6.0
16.045	11.0
16.06	21.0
16.074	14.0
16.089	15.0
16.104	11.0
16.119	15.0
16.134	12.0
16.149	10.0
16.163	14.0
16.178	11.0
16.193	11.0
16.208	8.0
16.223	18.0
16.237	15.0
16.252	11.0
16.267	14.0
16.282	15.0
16.297	12.0
16.311	17.0
16.326	13.0
16.341	11.0
16.356	15.0
16.37	11.0
16.385	8.0
16.4	16.0
16.415	12.0
16.43	17.0
16.444	16.0
16.459	21.0
16.474	13.0
16.489	14.0
16.504	15.0
16.518	12.0
16.533	15.0
16.548	9.0
16.563	17.0
16.577	13.0
16.592	20.0
16.607	17.0
16.622	20.0
16.637	20.0
16.651	25.0
16.666	25.0
16.681	24.0
16.696	30.0
16.71	19.0
16.725	25.0
16.74	38.0
16.755	28.0
16.77	34.0
16.784	45.0
16.799	23.0
16.814	38.0
16.829	50.0
16.843	53.0
16.858	56.0
16.873	59.0
16.888	68.0
16.902	67.0
16.917	78.0
16.932	67.0
16.947	60.0
16.961	70.0
16.976	69.0
16.991	72.0
17.006	61.0
17.021	75.0
17.035	44.0
17.05	35.0
17.065	50.0
17.08	44.0
17.094	37.0
17.109	22.0
17.124	30.0
17.139	17.0
17.153	21.0
17.168	18.0
17.183	20.0
17.198	22.0
17.212	13.0
17.227	10.0
17.242	15.0
17.257	16.0
17.271	17.0
17.286	14.0
17.301	9.0
17.316	18.0
17.33	15.0
17.345	11.0
17.36	16.0
17.375	16.0
17.39	14.0
17.404	14.0
17.419	6.0
17.434	19.0
17.449	9.0
17.463	9.0
17.478	20.0
17.493	14.0
17.508	16.0
17.522	10.0
17.537	17.0
17.552	18.0
17.567	10.0
17.581	15.0
17.596	16.0
17.611	12.0
17.626	16.0
17.641	10.0
17.655	11.0
17.67	11.0
17.685	13.0
17.7	9.0
17.714	16.0
17.729	14.0
17.744	13.0
17.759	16.0
17.773	11.0
17.788	12.0
17.803	17.0
17.818	11.0
17.833	11.0
17.847	10.0
17.862	8.0
17.877	14.0
17.892	7.0
17.906	12.0
17.921	13.0
17.936	19.0
17.951	13.0
17.966	16.0
17.98	14.0
17.995	13.0
18.01	9.0
18.025	14.0
18.04	12.0
18.054	24.0
18.069	17.0
18.084	10.0
18.099	15.0
18.114	9.0
18.128	10.0
18.143	9.0
18.158	14.0
18.173	10.0
18.188	18.0
18.202	5.0
18.217	13.0
18.232	18.0
18.247	15.0
18.262	13.0
18.276	10.0
18.291	11.0
18.306	10.0
18.321	18.0
18.336	14.0
18.35	12.0
18.365	14.0
18.38	11.0
18.395	11.0
18.41	10.0
18.424	17.0
18.439	8.0
18.454	10.0
18.469	13.0
18.484	15.0
18.498	12.0
18.513	15.0
18.528	9.0
18.543	12.0
18.558	10.0
18.573	10.0
18.587	11.0
18.602	17.0
18.617	16.0
18.632	13.0
18.647	11.0
18.661	13.0
18.676	15.0
18.691	16.0
18.706	14.0
18.721	11.0
18.736	16.0
18.75	14.0
18.765	12.0
18.78	9.0
18.795	14.0
18.81	9.0
18.825	13.0
18.839	6.0
18.854	11.0
18.869	11.0
18.884	14.0
18.899	9.0
18.913	11.0
18.928	7.0
18.943	9.0
18.958	15.0
18.973	8.0
18.988	12.0
19.002	9.0
19.017	13.0
19.032	8.0
19.047	8.0
19.062	13.0
19.077	20.0
19.091	13.0
19.106	9.0
19.121	12.0
19.136	12.0
19.151	10.0
19.165	14.0
19.18	12.0
19.195	14.0
19.21	11.0
19.225	10.0
19.24	12.0
19.254	19.0
19.269	14.0
19.284	13.0
19.299	11.0
19.314	10.0
19.329	15.0
19.343	15.0
19.358	17.0
19.373	13.0
19.388	14.0
19.403	22.0
19.417	12.0
19.432	25.0
19.447	24.0
19.462	27.0
19.477	19.0
19.492	27.0
19.506	29.0
19.521	32.0
19.536	47.0
19.551	44.0
19.566	38.0
19.58	45.0
19.595	45.0
19.61	39.0
19.625	52.0
19.64	48.0
19.655	40.0
19.669	39.0
19.684	31.0
19.699	33.0
19.714	38.0
19.729	28.0
19.743	25.0
19.758	23.0
19.773	20.0
19.788	25.0
19.803	19.0
19.817	17.0
19.832	19.0
19.847	13.0
19.862	11.0
19.877	21.0
19.891	14.0
19.906	13.0
19.921	12.0
19.936	13.0
19.951	17.0
19.965	9.0
19.98	16.0
19.995	13.0
20.01	11.0
20.025	19.0
20.039	6.0
20.054	12.0
20.069	11.0
20.084	12.0
20.099	20.0
20.113	10.0
20.128	15.0
20.143	15.0
20.158	8.0
20.173	10.0
20.187	10.0
20.202	5.0
20.217	13.0
20.232	10.0
20.246	8.0
20.261	16.0
20.276	5.0
20.291	8.0
20.306	13.0
20.32	6.0
20.335	7.0
20.35	8.0
20.365	12.0
20.38	10.0
20.394	9.0
20.409	12.0
20.424	12.0
20.439	10.0
20.453	8.0
20.468	5.0
20.483	15.0
20.498	6.0
20.513	14.0
20.527	11.0
20.542	10.0
20.557	9.0
20.572	17.0
20.586	10.0
20.601	5.0
20.616	3.0
20.631	12.0
20.646	12.0
20.66	15.0
20.675	8.0
20.69	6.0
20.705	6.0
20.719	6.0
20.734	15.0
20.749	12.0
20.764	13.0
20.779	12.0
20.793	10.0
20.808	12.0
20.823	13.0
20.838	8.0
20.853	14.0
20.867	10.0
20.882	16.0
20.897	9.0
20.912	14.0
20.926	13.0
20.941	14.0
20.956	12.0
20.971	11.0
20.986	9.0
21.0	11.0
21.015	9.0
21.03	13.0
21.045	8.0
21.06	9.0
21.074	8.0
21.089	9.0
21.104	12.0
21.119	9.0
21.134	9.0
21.148	11.0
21.163	13.0
21.178	11.0
21.193	18.0
21.208	13.0
21.222	7.0
21.237	12.0
21.252	16.0
21.267	10.0
21.282	11.0
21.296	10.0
21.311	14.0
21.326	9.0
21.341	17.0
21.356	14.0
21.37	15.0
21.385	8.0
21.4	18.0
21.415	18.0
21.43	11.0
21.444	16.0
21.459	17.0
21.474	12.0
21.489	5.0
21.504	17.0
21.519	12.0
21.533	16.0
21.548	16.0
21.563	13.0
21.578	21.0
21.593	17.0
21.608	10.0
21.622	14.0
21.637	15.0
21.652	17.0
21.667	19.0
21.682	15.0
21.697	11.0
21.712	21.0
21.726	18.0
21.741	29.0
21.756	23.0
21.771	21.0
21.786	32.0
21.801	38.0
21.816	35.0
21.83	50.0
21.845	56.0
21.86	48.0
21.875	54.0
21.89	61.0
21.905	82.0
21.92	72.0
21.935	81.0
21.949	86.0
21.964	64.0
21.979	78.0
21.994	82.0
22.009	72.0
22.024	58.0
22.039	54.0
22.054	48.0
22.069	55.0
22.083	51.0
22.098	41.0
22.113	17.0
22.128	40.0
22.143	31.0
22.158	31.0
22.173	26.0
22.188	19.0
22.203	15.0
22.218	19.0
22.233	16.0
22.248	14.0
22.262	17.0
22.277	17.0
22.292	12.0
22.307	15.0
22.322	12.0
22.337	12.0
22.352	17.0
22.367	15.0
22.382	13.0
22.397	8.0
22.412	15.0
22.427	12.0
22.442	16.0
22.457	12.0
22.472	11.0
22.487	11.0
22.502	11.0
22.516	12.0
22.531	7.0
22.546	6.0
22.561	10.0
22.576	11.0
22.591	12.0
22.606	15.0
22.621	8.0
22.636	9.0
22.651	9.0
22.666	14.0
22.681	13.0
22.696	10.0
22.711	10.0
22.726	15.0
22.741	19.0
22.756	14.0
22.771	7.0
22.786	14.0
22.801	12.0
22.816	12.0
22.831	11.0
22.846	11.0
22.861	5.0
22.876	9.0
22.891	10.0
22.906	7.0
22.92	10.0
22.935	15.0
22.95	14.0
22.965	14.0
22.98	11.0
22.995	6.0
23.01	14.0
23.025	10.0
23.04	13.0
23.055	9.0
23.07	12.0
23.085	8.0
23.1	11.0
23.115	5.0
23.13	8.0
23.145	10.0
23.16	6.0
23.175	10.0
23.19	3.0
23.205	5.0
23.22	9.0
23.235	17.0
23.25	14.0
23.265	9.0
23.28	13.0
23.295	7.0
23.31	9.0
23.325	9.0
23.34	20.0
23.355	9.0
23.37	10.0
23.384	12.0
23.399	13.0
23.414	11.0
23.429	12.0
23.444	17.0
23.459	10.0
23.474	6.0
23.489	6.0
23.504	13.0
23.519	12.0
23.534	7.0
23.549	9.0
23.564	16.0
23.579	17.0
23.594	7.0
23.609	11.0
23.624	12.0
23.639	13.0
23.654	8.0
23.668	9.0
23.683	7.0
23.698	8.0
23.713	10.0
23.728	8.0
23.743	12.0
23.758	10.0
23.773	8.0
23.788	12.0
23.803	14.0
23.818	12.0
23.833	14.0
23.848	20.0
23.862	16.0
23.877	18.0
23.892	24.0
23.907	18.0
23.922	24.0
23.937	28.0
23.952	26.0
23.967	22.0
23.982	36.0
23.997	35.0
24.011	46.0
24.026	46.0
24.041	42.0
24.056	40.0
24.071	71.0
24.086	60.0
24.101	28.0
24.116	53.0
24.131	35.0
24.145	46.0
24.16	54.0
24.175	36.0
24.19	36.0
24.205	44.0
24.22	38.0
24.235	29.0
24.249	28.0
24.264	25.0
24.279	17.0
24.294	23.0
24.309	22.0
24.324	16.0
24.338	16.0
24.353	19.0
24.368	15.0
24.383	10.0
24.398	9.0
24.413	7.0
24.428	16.0
24.442	9.0
24.457	13.0
24.472	13.0
24.487	10.0
24.502	6.0
24.516	12.0
24.531	13.0
24.546	8.0
24.561	15.0
24.576	19.0
24.591	14.0
24.605	9.0
24.62	7.0
24.635	14.0
24.65	10.0
24.665	12.0
24.679	16.0
24.694	6.0
24.709	17.0
24.724	11.0
24.739	12.0
24.753	11.0
24.768	12.0
24.783	12.0
24.798	10.0
24.813	7.0
24.827	19.0
24.842	9.0
24.857	7.0
24.872	12.0
24.886	8.0
24.901	4.0
24.916	11.0
24.931	10.0
24.946	13.0
24.96	8.0
24.975	12.0
24.99	9.0
25.005	13.0
25.019	5.0
25.034	14.0
25.049	9.0
25.064	15.0
25.078	9.0
25.093	9.0
25.108	8.0
25.123	14.0
25.138	18.0
25.152	9.0
25.167	10.0
25.182	11.0
25.197	7.0
25.211	6.0
25.226	13.0
25.241	7.0
25.256	9.0
25.27	10.0
25.285	13.0
25.3	7.0
25.315	6.0
25.329	13.0
25.344	10.0
25.359	10.0
25.374	12.0
25.388	9.0
25.403	10.0
25.418	6.0
25.433	12.0
25.447	8.0
25.462	9.0
25.477	3.0
25.492	8.0
25.506	12.0
25.521	11.0
25.536	12.0
25.55	7.0
25.565	13.0
25.58	12.0
25.595	9.0
25.609	8.0
25.624	9.0
25.639	17.0
25.654	8.0
25.668	19.0
25.683	6.0
25.698	7.0
25.713	5.0
25.727	7.0
25.742	7.0
25.757	21.0
25.772	11.0
25.786	9.0
25.801	10.0
25.816	7.0
25.83	12.0
25.845	9.0
25.86	9.0
25.875	5.0
25.889	9.0
25.904	12.0
25.919	9.0
25.934	12.0
25.948	10.0
25.963	11.0
25.978	8.0
25.992	10.0
26.007	7.0
26.022	9.0
26.037	11.0
26.051	8.0
26.066	10.0
26.081	11.0
26.096	5.0
26.11	8.0
26.125	16.0
26.14	15.0
26.155	11.0
26.169	11.0
26.184	13.0
26.199	7.0
26.213	13.0
26.228	9.0
26.243	7.0
26.258	11.0
26.272	9.0
26.287	13.0
26.302	8.0
26.317	7.0
26.331	12.0
26.346	10.0
26.361	6.0
26.376	10.0
26.39	8.0
26.405	8.0
26.42	3.0
26.434	10.0
26.449	15.0
26.464	9.0
26.479	6.0
26.493	12.0
26.508	7.0
26.523	15.0
26.538	5.0
26.552	9.0
26.567	7.0
26.582	10.0
26.597	8.0
26.611	8.0
26.626	10.0
26.641	13.0
26.656	9.0
26.67	6.0
26.685	10.0
26.7	7.0
26.715	19.0
26.729	10.0
26.744	9.0
26.759	13.0
26.773	7.0
26.788	15.0
26.803	16.0
26.818	12.0
26.832	7.0
26.847	10.0
26.862	7.0
26.877	13.0
26.891	13.0
26.906	8.0
26.921	11.0
26.936	4.0
26.95	16.0
26.965	8.0
26.98	9.0
26.995	9.0
27.01	16.0
27.024	7.0
27.039	8.0
27.054	10.0
27.069	9.0
27.083	5.0
27.098	9.0
27.113	6.0
27.128	13.0
27.142	13.0
27.157	8.0
27.172	11.0
27.187	10.0
27.201	8.0
27.216	7.0
27.231	14.0
27.246	10.0
27.261	12.0
27.275	10.0
27.29	11.0
27.305	7.0
27.32	9.0
27.334	5.0
27.349	7.0
27.364	9.0
27.379	10.0
27.394	17.0
27.408	14.0
27.423	8.0
27.438	11.0
27.453	8.0
27.467	8.0
27.482	7.0
27.497	5.0
27.512	12.0
27.527	9.0
27.541	11.0
27.556	12.0
27.571	7.0
27.586	14.0
27.601	6.0
27.615	6.0
27.63	15.0
27.645	20.0
27.66	13.0
27.675	20.0
27.689	6.0
27.704	20.0
27.719	11.0
27.734	13.0
27.749	20.0
27.763	18.0
27.778	17.0
27.793	23.0
27.808	26.0
27.823	20.0
27.838	24.0
27.852	20.0
27.867	28.0
27.882	19.0
27.897	25.0
27.912	23.0
27.926	12.0
27.941	20.0
27.956	19.0
27.971	20.0
27.986	18.0
28.001	12.0
28.015	22.0
28.03	10.0
28.045	19.0
28.06	9.0
28.075	14.0
28.09	15.0
28.105	18.0
28.119	11.0
28.134	6.0
28.149	15.0
28.164	17.0
28.179	11.0
28.194	9.0
28.208	10.0
28.223	10.0
28.238	4.0
28.253	8.0
28.268	10.0
28.283	10.0
28.298	10.0
28.312	15.0
28.327	16.0
28.342	5.0
28.357	7.0
28.372	10.0
28.387	12.0
28.402	15.0
28.417	11.0
28.431	8.0
28.446	12.0
28.461	8.0
28.476	11.0
28.491	11.0
28.506	12.0
28.521	7.0
28.536	5.0
28.55	8.0
28.565	17.0
28.58	18.0
28.595	10.0
28.61	11.0
28.625	6.0
28.64	11.0
28.655	10.0
28.669	10.0
28.684	13.0
28.699	10.0
28.714	6.0
28.729	9.0
28.744	10.0
28.759	15.0
28.774	15.0
28.788	9.0
28.803	16.0
28.818	7.0
28.833	15.0
28.848	14.0
28.863	13.0
28.878	9.0
28.893	9.0
28.908	11.0
28.922	11.0
28.937	10.0
28.952	13.0
28.967	12.0
28.982	11.0
28.997	7.0
29.012	9.0
29.027	7.0
29.041	9.0
29.056	10.0
29.071	7.0
29.086	7.0
29.101	15.0
29.116	10.0
29.131	10.0
29.146	16.0
29.16	7.0
29.175	14.0
29.19	19.0
29.205	13.0
29.22	9.0
29.235	6.0
29.25	9.0
29.265	12.0
29.279	12.0
29.294	14.0
29.309	8.0
29.324	15.0
29.339	10.0
29.354	11.0
29.369	18.0
29.384	21.0
29.398	15.0
29.413	10.0
29.428	13.0
29.443	17.0
29.458	18.0
29.473	24.0
29.488	30.0
29.502	29.0
29.517	36.0
29.532	44.0
29.547	55.0
29.562	42.0
29.577	59.0
29.592	68.0
29.606	40.0
29.621	61.0
29.636	42.0
29.651	42.0
29.666	35.0
29.681	41.0
29.695	38.0
29.71	29.0
29.725	27.0
29.74	36.0
29.755	20.0
29.77	40.0
29.784	28.0
29.799	33.0
29.814	31.0
29.829	32.0
29.844	26.0
29.859	37.0
29.873	19.0
29.888	17.0
29.903	13.0
29.918	15.0
29.933	18.0
29.947	10.0
29.962	7.0
29.977	15.0
29.992	17.0
30.007	13.0
30.021	10.0
30.036	15.0
30.051	9.0
30.066	10.0
30.081	15.0
30.095	10.0
30.11	15.0
30.125	8.0
30.14	13.0
30.155	19.0
30.169	14.0
30.184	12.0
30.199	12.0
30.214	6.0
30.228	12.0
30.243	12.0
30.258	14.0
30.273	9.0
30.288	13.0
30.302	8.0
30.317	9.0
30.332	7.0
30.347	10.0
30.361	17.0
30.376	14.0
30.391	8.0
30.406	8.0
30.42	18.0
30.435	13.0
30.45	8.0
30.465	11.0
30.479	11.0
30.494	8.0
30.509	8.0
30.524	17.0
30.538	8.0
30.553	5.0
30.568	15.0
30.583	10.0
30.597	13.0
30.612	8.0
30.627	9.0
30.641	5.0
30.656	15.0
30.671	9.0
30.686	12.0
30.7	17.0
30.715	8.0
30.73	10.0
30.745	10.0
30.759	14.0
30.774	7.0
30.789	13.0
30.803	11.0
30.818	13.0
30.833	6.0
30.848	13.0
30.862	10.0
30.877	17.0
30.892	13.0
30.906	9.0
30.921	15.0
30.936	13.0
30.951	10.0
30.965	11.0
30.98	13.0
30.995	14.0
31.009	21.0
31.024	10.0
31.039	11.0
31.053	20.0
31.068	14.0
31.083	15.0
31.098	14.0
31.112	24.0
31.127	18.0
31.142	27.0
31.156	33.0
31.171	32.0
31.186	34.0
31.2	31.0
31.215	34.0
31.23	41.0
31.245	33.0
31.259	35.0
31.274	30.0
31.289	41.0
31.303	33.0
31.318	33.0
31.333	31.0
31.347	18.0
31.362	26.0
31.377	32.0
31.392	31.0
31.406	25.0
31.421	28.0
31.436	23.0
31.45	15.0
31.465	18.0
31.48	16.0
31.494	19.0
31.509	19.0
31.524	14.0
31.538	17.0
31.553	15.0
31.568	17.0
31.583	10.0
31.597	12.0
31.612	12.0
31.627	12.0
31.641	9.0
31.656	9.0
31.671	8.0
31.685	10.0
31.7	5.0
31.715	14.0
31.729	12.0
31.744	9.0
31.759	12.0
31.774	7.0
31.788	8.0
31.803	6.0
31.818	21.0
31.832	10.0
31.847	14.0
31.862	15.0
31.876	10.0
31.891	8.0
31.906	9.0
31.92	11.0
31.935	9.0
31.95	6.0
31.965	6.0
31.979	8.0
31.994	13.0
32.009	7.0
32.023	12.0
32.038	5.0
32.053	11.0
32.067	8.0
32.082	11.0
32.097	7.0
32.112	8.0
32.126	9.0
32.141	9.0
32.156	11.0
32.17	8.0
32.185	9.0
32.2	9.0
32.214	10.0
32.229	12.0
32.244	6.0
32.259	12.0
32.273	15.0
32.288	12.0
32.303	17.0
32.317	9.0
32.332	6.0
32.347	14.0
32.362	15.0
32.376	10.0
32.391	17.0
32.406	15.0
32.42	13.0
32.435	12.0
32.45	12.0
32.465	13.0
32.479	14.0
32.494	12.0
32.509	4.0
32.523	8.0
32.538	8.0
32.553	4.0
32.568	11.0
32.582	9.0
32.597	11.0
32.612	8.0
32.627	14.0
32.641	14.0
32.656	16.0
32.671	7.0
32.685	17.0
32.7	18.0
32.715	11.0
32.73	26.0
32.744	20.0
32.759	26.0
32.774	23.0
32.788	32.0
32.803	31.0
32.818	39.0
32.833	21.0
32.847	22.0
32.862	21.0
32.877	25.0
32.892	22.0
32.906	19.0
32.921	23.0
32.936	14.0
32.951	20.0
32.965	23.0
32.98	20.0
32.995	24.0
33.009	27.0
33.024	17.0
33.039	21.0
33.054	14.0
33.068	20.0
33.083	15.0
33.098	15.0
33.113	16.0
33.127	10.0
33.142	12.0
33.157	15.0
33.172	10.0
33.186	9.0
33.201	11.0
33.216	17.0
33.231	5.0
33.245	11.0
33.26	5.0
33.275	11.0
33.29	9.0
33.304	11.0
33.319	12.0
33.334	10.0
33.349	8.0
33.363	11.0
33.378	5.0
33.393	10.0
33.408	11.0
33.422	10.0
33.437	11.0
33.452	17.0
33.467	8.0
33.481	5.0
33.496	8.0
33.511	6.0
33.526	8.0
33.54	12.0
33.555	10.0
33.57	10.0
33.585	8.0
33.599	11.0
33.614	17.0
33.629	10.0
33.644	11.0
33.658	6.0
33.673	9.0
33.688	14.0
33.703	7.0
33.718	5.0
33.732	10.0
33.747	5.0
33.762	10.0
33.777	5.0
33.791	9.0
33.806	9.0
33.821	12.0
33.836	9.0
33.85	5.0
33.865	15.0
33.88	10.0
33.895	9.0
33.91	5.0
33.924	11.0
33.939	9.0
33.954	8.0
33.969	10.0
33.983	8.0
33.998	15.0
34.013	9.0
34.028	18.0
34.042	10.0
34.057	7.0
34.072	12.0
34.087	13.0
34.102	6.0
34.116	8.0
34.131	13.0
34.146	8.0
34.161	18.0
34.175	11.0
34.19	11.0
34.205	14.0
34.22	18.0
34.235	15.0
34.249	7.0
34.264	17.0
34.279	19.0
34.294	10.0
34.309	10.0
34.323	18.0
34.338	13.0
34.353	13.0
34.368	19.0
34.382	19.0
34.397	12.0
34.412	14.0
34.427	16.0
34.442	20.0
34.456	15.0
34.471	15.0
34.486	12.0
34.501	16.0
34.516	12.0
34.53	14.0
34.545	9.0
34.56	8.0
34.575	10.0
34.59	16.0
34.604	11.0
34.619	15.0
34.634	16.0
34.649	8.0
34.664	9.0
34.678	7.0
34.693	8.0
34.708	7.0
34.723	7.0
34.738	5.0
34.752	6.0
34.767	4.0
34.782	10.0
34.797	5.0
34.812	8.0
34.826	11.0
34.841	3.0
34.856	7.0
34.871	9.0
34.886	11.0
34.9	7.0
34.915	15.0
34.93	10.0
34.945	15.0
34.96	7.0
34.974	6.0
34.989	11.0
35.004	12.0
35.019	9.0
35.034	10.0
35.048	11.0
35.063	9.0
35.078	8.0
35.093	7.0
35.108	12.0
35.122	5.0
35.137	13.0
35.152	8.0
35.167	8.0
35.182	8.0
35.196	8.0
35.211	7.0
35.226	8.0
35.241	9.0
35.256	4.0
35.27	8.0
35.285	3.0
35.3	6.0
35.315	11.0
35.33	11.0
35.344	9.0
35.359	11.0
35.374	11.0
35.389	7.0
35.404	11.0
35.418	10.0
35.433	5.0
35.448	6.0
35.463	6.0
35.478	10.0
35.493	11.0
35.507	5.0
35.522	12.0
35.537	7.0
35.552	14.0
35.567	11.0
35.581	5.0
35.596	14.0
35.611	17.0
35.626	12.0
35.641	7.0
35.655	14.0
35.67	10.0
35.685	18.0
35.7	15.0
35.715	12.0
35.729	21.0
35.744	16.0
35.759	23.0
35.774	19.0
35.789	20.0
35.804	21.0
35.818	22.0
35.833	18.0
35.848	24.0
35.863	16.0
35.878	13.0
35.892	20.0
35.907	12.0
35.922	8.0
35.937	18.0
35.952	12.0
35.966	20.0
35.981	11.0
35.996	16.0
36.011	15.0
36.026	14.0
36.04	17.0
36.055	14.0
36.07	10.0
36.085	11.0
36.1	13.0
36.114	15.0
36.129	8.0
36.144	6.0
36.159	10.0
36.174	7.0
36.189	14.0
36.203	12.0
36.218	11.0
36.233	13.0
36.248	11.0
36.263	13.0
36.277	7.0
36.292	9.0
36.307	5.0
36.322	7.0
36.337	10.0
36.351	9.0
36.366	5.0
36.381	11.0
36.396	8.0
36.411	11.0
36.426	6.0
36.44	15.0
36.455	11.0
36.47	4.0
36.485	10.0
36.5	9.0
36.514	8.0
36.529	9.0
36.544	8.0
36.559	4.0
36.574	8.0
36.589	10.0
36.603	8.0
36.618	6.0
36.633	4.0
36.648	7.0
36.663	7.0
36.677	9.0
36.692	7.0
36.707	5.0
36.722	10.0
36.737	3.0
36.752	2.0
36.766	6.0
36.781	9.0
36.796	6.0
36.811	7.0
36.826	9.0
36.841	5.0
36.855	7.0
36.87	8.0
36.885	7.0
36.9	6.0
36.915	8.0
36.93	6.0
36.944	9.0
36.959	10.0
36.974	12.0
36.989	14.0
37.004	7.0
37.019	8.0
37.033	13.0
37.048	9.0
37.063	14.0
37.078	12.0
37.093	20.0
37.108	16.0
37.123	20.0
37.137	19.0
37.152	35.0
37.167	28.0
37.182	37.0
37.197	27.0
37.212	30.0
37.226	17.0
37.241	31.0
37.256	25.0
37.271	22.0
37.286	18.0
37.301	18.0
37.316	12.0
37.331	20.0
37.345	20.0
37.36	23.0
37.375	19.0
37.39	20.0
37.405	18.0
37.42	22.0
37.435	11.0
37.45	17.0
37.464	13.0
37.479	13.0
37.494	19.0
37.509	11.0
37.524	8.0
37.539	8.0
37.554	10.0
37.569	3.0
37.583	14.0
37.598	6.0
37.613	5.0
37.628	8.0
37.643	6.0
37.658	5.0
37.673	9.0
37.688	11.0
37.703	8.0
37.718	6.0
37.733	7.0
37.747	6.0
37.762	6.0
37.777	4.0
37.792	5.0
37.807	5.0
37.822	6.0
37.837	14.0
37.852	4.0
37.867	7.0
37.882	5.0
37.897	10.0
37.912	3.0
37.927	9.0
37.941	4.0
37.956	4.0
37.971	10.0
37.986	7.0
38.001	4.0
38.016	9.0
38.031	5.0
38.046	9.0
38.061	10.0
38.076	4.0
38.091	4.0
38.106	4.0
38.121	7.0
38.136	7.0
38.151	7.0
38.166	7.0
38.181	8.0
38.196	7.0
38.211	7.0
38.226	4.0
38.241	4.0
38.256	11.0
38.271	5.0
38.285	5.0
38.3	3.0
38.315	9.0
38.33	3.0
38.345	9.0
38.36	3.0
38.375	9.0
38.39	4.0
38.405	7.0
38.42	4.0
38.435	9.0
38.45	5.0
38.465	1.0
38.48	3.0
38.495	6.0
38.51	6.0
38.525	8.0
38.54	4.0
38.555	9.0
38.57	3.0
38.585	12.0
38.6	8.0
38.615	6.0
38.63	9.0
38.645	10.0
38.66	4.0
38.675	8.0
38.69	4.0
38.705	8.0
38.72	5.0
38.735	7.0
38.75	9.0
38.765	3.0
38.78	9.0
38.795	3.0
38.81	5.0
38.825	7.0
38.84	5.0
38.855	7.0
38.87	5.0
38.885	3.0
38.9	7.0
38.915	9.0
38.93	7.0
38.945	1.0
38.96	5.0
38.975	9.0
38.99	7.0
39.005	5.0
39.02	4.0
39.035	4.0
39.05	7.0
39.065	7.0
39.08	8.0
39.095	4.0
39.11	3.0
39.125	3.0
39.14	5.0
39.155	11.0
39.17	4.0
39.185	7.0
39.2	7.0
39.215	9.0
39.23	12.0
39.245	7.0
39.26	4.0
39.275	10.0
39.29	3.0
39.305	6.0
39.32	5.0
39.335	7.0
39.35	3.0
39.365	5.0
39.38	6.0
39.395	8.0
39.409	6.0
39.424	7.0
39.439	6.0
39.454	3.0
39.469	10.0
39.484	6.0
39.499	8.0
39.514	5.0
39.529	6.0
39.544	6.0
39.559	5.0
39.574	3.0
39.589	3.0
39.604	5.0
39.619	8.0
39.634	5.0
39.649	5.0
39.664	3.0
39.678	5.0
39.693	4.0
39.708	10.0
39.723	11.0
39.738	5.0
39.753	4.0
39.768	5.0
39.783	5.0
39.798	8.0
39.813	11.0
39.827	6.0
39.842	12.0
39.857	10.0
39.872	15.0
39.887	5.0
39.902	15.0
39.917	12.0
39.932	10.0
39.947	13.0
39.961	14.0
39.976	8.0
39.991	2.0
40.006	6.0
40.021	9.0
40.036	3.0
40.051	12.0
40.065	6.0
40.08	8.0
40.095	5.0
40.11	5.0
40.125	6.0
40.14	10.0
40.154	9.0
40.169	14.0
40.184	4.0
40.199	5.0
40.214	8.0
40.228	4.0
40.243	5.0
40.258	2.0
40.273	11.0
40.288	4.0
40.302	4.0
40.317	4.0
40.332	4.0
40.347	7.0
40.362	6.0
40.376	6.0
40.391	6.0
40.406	3.0
40.421	3.0
40.436	5.0
40.45	5.0
40.465	6.0
40.48	5.0
40.495	4.0
40.509	5.0
40.524	6.0
40.539	11.0
40.554	4.0
40.568	3.0
40.583	7.0
40.598	2.0
40.613	11.0
40.627	5.0
40.642	13.0
40.657	4.0
40.672	6.0
40.686	5.0
40.701	9.0
40.716	2.0
40.731	8.0
40.745	4.0
40.76	8.0
40.775	4.0
40.79	7.0
40.804	6.0
40.819	3.0
40.834	6.0
40.849	5.0
40.863	12.0
40.878	7.0
40.893	5.0
40.907	6.0
40.922	7.0
40.937	7.0
40.952	8.0
40.966	5.0
40.981	7.0
40.996	12.0
41.011	13.0
41.025	9.0
41.04	8.0
41.055	12.0
41.069	18.0
41.084	18.0
41.099	13.0
41.114	15.0
41.128	18.0
41.143	18.0
41.158	24.0
41.173	19.0
41.187	16.0
41.202	16.0
41.217	18.0
41.231	18.0
41.246	15.0
41.261	7.0
41.276	5.0
41.29	9.0
41.305	12.0
41.32	6.0
41.335	16.0
41.349	9.0
41.364	16.0
41.379	16.0
41.393	15.0
41.408	12.0
41.423	13.0
41.438	9.0
41.452	11.0
41.467	7.0
41.482	12.0
41.497	10.0
41.511	2.0
41.526	5.0
41.541	6.0
41.556	8.0
41.57	4.0
41.585	7.0
41.6	6.0
41.615	9.0
41.629	9.0
41.644	4.0
41.659	13.0
41.674	9.0
41.688	5.0
41.703	6.0
41.718	4.0
41.733	4.0
41.747	4.0
41.762	5.0
41.777	6.0
41.792	11.0
41.806	7.0
41.821	6.0
41.836	7.0
41.851	5.0
41.866	3.0
41.88	4.0
41.895	5.0
41.91	3.0
41.925	3.0
41.939	2.0
41.954	6.0
41.969	6.0
41.984	7.0
41.999	8.0
42.013	3.0
42.028	4.0
42.043	9.0
42.058	4.0
42.073	7.0
42.088	10.0
42.102	9.0
42.117	4.0
42.132	6.0
42.147	5.0
42.162	5.0
42.176	10.0
42.191	10.0
42.206	4.0
42.221	8.0
42.236	7.0
42.251	6.0
42.266	10.0
42.28	21.0
42.295	6.0
42.31	12.0
42.325	15.0
42.34	5.0
42.355	19.0
42.369	11.0
42.384	17.0
42.399	15.0
42.414	13.0
42.429	21.0
42.444	13.0
42.459	10.0
42.474	21.0
42.488	12.0
42.503	9.0
42.518	12.0
42.533	7.0
42.548	7.0
42.563	11.0
42.578	11.0
42.593	6.0
42.608	13.0
42.622	16.0
42.637	11.0
42.652	9.0
42.667	14.0
42.682	12.0
42.697	9.0
42.712	8.0
42.727	11.0
42.742	12.0
42.757	2.0
42.772	4.0
42.786	5.0
42.801	3.0
42.816	3.0
42.831	6.0
42.846	7.0
42.861	4.0
42.876	9.0
42.891	5.0
42.906	5.0
42.921	8.0
42.936	8.0
42.951	9.0
42.966	2.0
42.981	3.0
42.996	5.0
43.011	6.0
43.025	5.0
43.04	6.0
43.055	4.0
43.07	3.0
43.085	7.0
43.1	6.0
43.115	10.0
43.13	6.0
43.145	2.0
43.16	7.0
43.175	7.0
43.19	3.0
43.205	3.0
43.22	3.0
43.235	11.0
43.25	4.0
43.265	8.0
43.28	3.0
43.295	4.0
43.31	7.0
43.325	6.0
43.34	7.0
43.355	5.0
43.37	10.0
43.385	6.0
43.4	6.0
43.415	4.0
43.43	7.0
43.445	8.0
43.46	7.0
43.475	5.0
43.49	4.0
43.505	3.0
43.52	10.0
43.535	8.0
43.55	10.0
43.565	9.0
43.58	11.0
43.595	11.0
43.61	11.0
43.625	9.0
43.64	8.0
43.655	8.0
43.67	10.0
43.685	4.0
43.7	8.0
43.715	9.0
43.73	9.0
43.745	7.0
43.76	9.0
43.775	10.0
43.79	4.0
43.805	8.0
43.82	6.0
43.835	9.0
43.85	4.0
43.865	5.0
43.88	6.0
43.895	12.0
43.91	2.0
43.925	9.0
43.94	6.0
43.955	6.0
43.97	11.0
43.985	6.0
44.0	6.0
44.015	4.0
44.03	7.0
44.045	6.0
44.061	2.0
44.076	12.0
44.091	2.0
44.106	3.0
44.121	4.0
44.136	6.0
44.151	5.0
44.166	4.0
44.181	4.0
44.196	4.0
44.211	5.0
44.226	6.0
44.241	7.0
44.256	9.0
44.271	5.0
44.286	5.0
44.301	6.0
44.316	4.0
44.331	5.0
44.346	4.0
44.361	5.0
44.377	4.0
44.392	7.0
44.407	3.0
44.422	5.0
44.437	3.0
44.452	8.0
44.467	3.0
44.482	4.0
44.497	4.0
44.512	5.0
44.527	7.0
44.542	6.0
44.557	2.0
44.572	9.0
44.587	8.0
44.602	7.0
44.617	6.0
44.632	5.0
44.647	6.0
44.663	10.0
44.678	3.0
44.693	10.0
44.708	9.0
44.723	4.0
44.738	7.0
44.753	6.0
44.768	9.0
44.783	7.0
44.798	10.0
44.813	7.0
44.828	15.0
44.843	12.0
44.858	10.0
44.873	7.0
44.888	11.0
44.903	6.0
44.918	11.0
44.933	7.0
44.948	5.0
44.964	5.0
44.979	5.0
44.994	6.0
45.009	7.0
45.024	5.0
45.039	2.0
45.054	4.0
45.069	13.0
45.084	6.0
45.099	8.0
45.114	8.0
45.129	9.0
45.144	9.0
45.159	5.0
45.174	9.0
45.189	8.0
45.204	2.0
45.219	3.0
45.234	4.0
45.249	8.0
45.264	5.0
45.279	5.0
45.294	4.0
45.309	2.0
45.324	8.0
45.339	9.0
45.354	5.0
45.369	5.0
45.384	7.0
45.399	4.0
45.414	7.0
45.429	4.0
45.444	7.0
45.459	6.0
45.474	7.0
45.489	3.0
45.504	8.0
45.519	2.0
45.534	8.0
45.549	3.0
45.564	4.0
45.579	13.0
45.594	6.0
45.609	1.0
45.624	7.0
45.639	3.0
45.654	1.0
45.669	8.0
45.684	4.0
45.699	1.0
45.714	2.0
45.729	3.0
45.744	7.0
45.759	7.0
45.774	7.0
45.789	9.0
45.804	9.0
45.819	12.0
45.834	6.0
45.849	5.0
45.864	10.0
45.879	8.0
45.894	12.0
45.909	13.0
45.924	17.0
45.939	22.0
45.954	21.0
45.969	19.0
45.984	5.0
45.998	24.0
46.013	12.0
46.028	15.0
46.043	13.0
46.058	14.0
46.073	12.0
46.088	8.0
46.103	8.0
46.118	13.0
46.133	6.0
46.148	12.0
46.163	9.0
46.178	12.0
46.192	9.0
46.207	7.0
46.222	15.0
46.237	5.0
46.252	10.0
46.267	16.0
46.282	12.0
46.297	8.0
46.312	10.0
46.327	10.0
46.341	10.0
46.356	7.0
46.371	3.0
46.386	10.0
46.401	7.0
46.416	7.0
46.431	3.0
46.446	8.0
46.46	7.0
46.475	3.0
46.49	2.0
46.505	4.0
46.52	8.0
46.535	6.0
46.55	2.0
46.564	4.0
46.579	6.0
46.594	2.0
46.609	8.0
46.624	4.0
46.639	7.0
46.654	5.0
46.668	4.0
46.683	5.0
46.698	8.0
46.713	1.0
46.728	7.0
46.743	4.0
46.758	5.0
46.772	5.0
46.787	3.0
46.802	2.0
46.817	6.0
46.832	13.0
46.847	2.0
46.861	5.0
46.876	4.0
46.891	5.0
46.906	5.0
46.921	3.0
46.936	6.0
46.95	4.0
46.965	4.0
46.98	10.0
46.995	5.0
47.01	5.0
47.025	6.0
47.039	13.0
47.054	10.0
47.069	7.0
47.084	10.0
47.099	10.0
47.113	16.0
47.128	10.0
47.143	12.0
47.158	9.0
47.173	8.0
47.188	5.0
47.202	7.0
47.217	6.0
47.232	8.0
47.247	7.0
47.262	4.0
47.277	3.0
47.291	8.0
47.306	8.0
47.321	6.0
47.336	7.0
47.351	8.0
47.365	8.0
47.38	1.0
47.395	6.0
47.41	8.0
47.425	5.0
47.44	8.0
47.454	9.0
47.469	6.0
47.484	7.0
47.499	4.0
47.514	4.0
47.528	8.0
47.543	6.0
47.558	3.0
47.573	4.0
47.588	3.0
47.603	5.0
47.617	0.0
47.632	3.0
47.647	2.0
47.662	3.0
47.677	4.0
47.691	2.0
47.706	3.0
47.721	8.0
47.736	3.0
47.751	2.0
47.766	6.0
47.78	6.0
47.795	4.0
47.81	5.0
47.825	5.0
47.84	2.0
47.855	3.0
47.869	4.0
47.884	4.0
47.899	5.0
47.914	1.0
47.929	3.0
47.944	4.0
47.958	7.0
47.973	5.0
47.988	2.0
48.003	3.0
48.018	7.0
48.033	3.0
48.047	3.0
48.062	7.0
48.077	4.0
48.092	3.0
48.107	6.0
48.122	2.0
48.137	6.0
48.151	1.0
48.166	5.0
48.181	7.0
48.196	4.0
48.211	4.0
48.226	2.0
48.241	7.0
48.255	5.0
48.27	3.0
48.285	6.0
48.3	6.0
48.315	4.0
48.33	0.0
48.345	10.0
48.359	6.0
48.374	4.0
48.389	1.0
48.404	4.0
48.419	7.0
48.434	4.0
48.449	4.0
48.464	1.0
48.478	1.0
48.493	7.0
48.508	4.0
48.523	7.0
48.538	3.0
48.553	3.0
48.568	2.0
48.583	2.0
48.597	4.0
48.612	7.0
48.627	10.0
48.642	8.0
48.657	5.0
48.672	2.0
48.687	7.0
48.702	3.0
48.717	5.0
48.731	4.0
48.746	6.0
48.761	3.0
48.776	5.0
48.791	3.0
48.806	6.0
48.821	4.0
48.836	4.0
48.851	4.0
48.866	8.0
48.88	6.0
48.895	2.0
48.91	5.0
48.925	5.0
48.94	6.0
48.955	4.0
48.97	5.0
48.985	3.0
49.0	4.0
49.015	2.0
49.03	8.0
49.044	5.0
49.059	5.0
49.074	3.0
49.089	3.0
49.104	4.0
49.119	4.0
49.134	5.0
49.149	3.0
49.164	2.0
49.179	2.0
49.194	5.0
49.209	2.0
49.224	4.0
49.238	4.0
49.253	3.0
49.268	7.0
49.283	4.0
49.298	2.0
49.313	7.0
49.328	8.0
49.343	6.0
49.358	6.0
49.373	8.0
49.388	10.0
49.403	6.0
49.418	4.0
49.433	7.0
49.448	7.0
49.463	7.0
49.478	6.0
49.492	8.0
49.507	3.0
49.522	3.0
49.537	1.0
49.552	6.0
49.567	4.0
49.582	5.0
49.597	4.0
49.612	3.0
49.627	4.0
49.642	6.0
49.657	4.0
49.672	8.0
49.687	5.0
49.702	8.0
49.717	6.0
49.732	12.0
49.747	2.0
49.762	8.0
49.777	2.0
49.792	2.0
49.807	6.0
49.822	3.0
49.837	4.0
49.852	3.0
49.867	5.0
49.882	5.0
49.897	5.0
49.912	6.0
49.927	6.0
49.942	4.0
49.957	4.0
49.971	4.0
49.986	7.0
50.001	7.0
50.016	6.0
50.031	4.0
50.046	2.0
50.061	4.0
50.076	4.0
50.091	5.0
50.106	5.0
50.121	1.0
50.136	9.0
50.151	5.0
50.166	5.0
50.181	3.0
50.196	4.0
50.211	4.0
50.226	6.0
50.241	10.0
50.256	4.0
50.271	4.0
50.286	3.0
50.302	5.0
50.317	7.0
50.332	5.0
50.347	6.0
50.362	6.0
50.377	6.0
50.392	9.0
50.407	4.0
50.422	3.0
50.437	9.0
50.452	2.0
50.467	7.0
50.482	7.0
50.497	6.0
50.512	9.0
50.527	3.0
50.542	8.0
50.557	9.0
50.572	9.0
50.587	11.0
50.602	6.0
50.617	10.0
50.632	4.0
50.647	9.0
50.662	8.0
50.677	7.0
50.692	5.0
50.707	6.0
50.722	7.0
50.737	5.0
50.752	6.0
50.767	5.0
50.782	3.0
50.797	3.0
50.812	8.0
50.828	5.0
50.843	7.0
50.858	4.0
50.873	10.0
50.888	5.0
50.903	6.0
50.918	7.0
50.933	8.0
50.948	2.0
50.963	3.0
50.978	3.0
50.993	5.0
51.008	6.0
51.023	5.0
51.038	7.0
51.053	10.0
51.068	5.0
51.083	4.0
51.098	5.0
51.114	5.0
51.129	3.0
51.144	3.0
51.159	4.0
51.174	4.0
51.189	4.0
51.204	2.0
51.219	8.0
51.234	9.0
51.249	2.0
51.264	2.0
51.279	5.0
51.294	7.0
51.309	9.0
51.324	8.0
51.34	7.0
51.355	8.0
51.37	5.0
51.385	11.0
51.4	9.0
51.415	16.0
51.43	12.0
51.445	10.0
51.46	12.0
51.475	12.0
51.49	14.0
51.505	13.0
51.52	17.0
51.535	12.0
51.551	18.0
51.566	20.0
51.581	12.0
51.596	15.0
51.611	9.0
51.626	7.0
51.641	3.0
51.656	6.0
51.671	6.0
51.686	7.0
51.701	6.0
51.716	5.0
51.732	7.0
51.747	9.0
51.762	6.0
51.777	11.0
51.792	10.0
51.807	18.0
51.822	8.0
51.837	15.0
51.852	12.0
51.867	14.0
51.882	10.0
51.898	8.0
51.913	11.0
51.928	4.0
51.943	7.0
51.958	9.0
51.973	6.0
51.988	2.0
52.003	4.0
52.018	1.0
52.033	3.0
52.048	4.0
52.064	5.0
52.079	9.0
52.094	5.0
52.109	1.0
52.124	3.0
52.139	5.0
52.154	4.0
52.169	2.0
52.184	5.0
52.199	6.0
52.215	5.0
52.23	6.0
52.245	5.0
52.26	4.0
52.275	4.0
52.29	2.0
52.305	3.0
52.32	4.0
52.335	6.0
52.35	9.0
52.366	9.0
52.381	7.0
52.396	8.0
52.411	6.0
52.426	6.0
52.441	3.0
52.456	9.0
52.471	14.0
52.486	15.0
52.502	5.0
52.517	7.0
52.532	8.0
52.547	19.0
52.562	8.0
52.577	14.0
52.592	5.0
52.607	8.0
52.622	7.0
52.637	7.0
52.653	5.0
52.668	12.0
52.683	10.0
52.698	3.0
52.713	9.0
52.728	6.0
52.743	6.0
52.758	4.0
52.774	5.0
52.789	4.0
52.804	3.0
52.819	7.0
52.834	9.0
52.849	7.0
52.864	6.0
52.879	5.0
52.894	6.0
52.91	8.0
52.925	5.0
52.94	4.0
52.955	3.0
52.97	10.0
52.985	10.0
53.0	9.0
53.015	5.0
53.031	6.0
53.046	3.0
53.061	3.0
53.076	5.0
53.091	4.0
53.106	6.0
53.121	4.0
53.136	7.0
53.152	5.0
53.167	3.0
53.182	5.0
53.197	3.0
53.212	4.0
53.227	3.0
53.242	10.0
53.257	5.0
53.273	4.0
53.288	4.0
53.303	6.0
53.318	10.0
53.333	2.0
53.348	3.0
53.363	3.0
53.379	5.0
53.394	8.0
53.409	6.0
53.424	6.0
53.439	7.0
53.454	6.0
53.469	6.0
53.484	3.0
53.5	3.0
53.515	5.0
53.53	4.0
53.545	4.0
53.56	4.0
53.575	5.0
53.59	8.0
53.606	4.0
53.621	5.0
53.636	3.0
53.651	4.0
53.666	7.0
53.681	4.0
53.696	10.0
53.712	2.0
53.727	2.0
53.742	3.0
53.757	1.0
53.772	3.0
53.787	5.0
53.802	2.0
53.818	2.0
53.833	4.0
53.848	6.0
53.863	7.0
53.878	5.0
53.893	4.0
53.909	1.0
53.924	5.0
53.939	5.0
53.954	5.0
53.969	1.0
53.984	5.0
53.999	4.0
54.015	6.0
54.03	5.0
54.045	1.0
54.06	5.0
54.075	4.0
54.09	4.0
54.106	4.0
54.121	7.0
54.136	0.0
54.151	5.0
54.166	5.0
54.181	6.0
54.197	4.0
54.212	3.0
54.227	5.0
54.242	4.0
54.257	5.0
54.272	4.0
54.288	6.0
54.303	3.0
54.318	8.0
54.333	7.0
54.348	8.0
54.363	6.0
54.379	4.0
54.394	7.0
54.409	5.0
54.424	10.0
54.439	2.0
54.454	3.0
54.47	5.0
54.485	3.0
54.5	8.0
54.515	5.0
54.53	5.0
54.545	12.0
54.561	9.0
54.576	6.0
54.591	11.0
54.606	9.0
54.621	12.0
54.636	5.0
54.652	14.0
54.667	14.0
54.682	12.0
54.697	13.0
54.712	19.0
54.727	8.0
54.743	10.0
54.758	8.0
54.773	8.0
54.788	9.0
54.803	7.0
54.819	6.0
54.834	5.0
54.849	2.0
54.864	7.0
54.879	6.0
54.894	5.0
54.91	3.0
54.925	5.0
54.94	8.0
54.955	6.0
54.97	8.0
54.985	12.0
55.001	11.0
55.016	9.0
55.031	7.0
55.046	5.0
55.061	16.0
55.077	9.0
55.092	10.0
55.107	4.0
55.122	6.0
55.137	4.0
55.152	6.0
55.168	3.0
55.183	10.0
55.198	7.0
55.213	5.0
55.228	7.0
55.243	8.0
55.259	8.0
55.274	4.0
55.289	12.0
55.304	4.0
55.319	7.0
55.335	4.0
55.35	4.0
55.365	4.0
55.38	7.0
55.395	4.0
55.41	4.0
55.426	4.0
55.441	7.0
55.456	5.0
55.471	6.0
55.486	7.0
55.501	3.0
55.517	5.0
55.532	4.0
55.547	5.0
55.562	3.0
55.577	7.0
55.592	3.0
55.608	6.0
55.623	9.0
55.638	2.0
55.653	7.0
55.668	10.0
55.683	4.0
55.699	6.0
55.714	6.0
55.729	3.0
55.744	4.0
55.759	6.0
55.774	6.0
55.79	11.0
55.805	5.0
55.82	5.0
55.835	4.0
55.85	6.0
55.865	4.0
55.881	7.0
55.896	8.0
55.911	5.0
55.926	5.0
55.941	3.0
55.956	7.0
55.972	7.0
55.987	3.0
56.002	6.0
56.017	8.0
56.032	7.0
56.047	8.0
56.063	3.0
56.078	6.0
56.093	6.0
56.108	6.0
56.123	5.0
56.138	5.0
56.154	3.0
56.169	5.0
56.184	6.0
56.199	3.0
56.214	2.0
56.229	9.0
56.244	1.0
56.26	7.0
56.275	3.0
56.29	5.0
56.305	6.0
56.32	4.0
56.335	2.0
56.351	7.0
56.366	6.0
56.381	4.0
56.396	5.0
56.411	4.0
56.426	4.0
56.441	2.0
56.457	2.0
56.472	8.0
56.487	3.0
56.502	7.0
56.517	9.0
56.532	7.0
56.547	6.0
56.563	7.0
56.578	5.0
56.593	6.0
56.608	5.0
56.623	8.0
56.638	8.0
56.653	4.0
56.668	7.0
56.684	5.0
56.699	3.0
56.714	5.0
56.729	4.0
56.744	1.0
56.759	8.0
56.774	1.0
56.79	11.0
56.805	10.0
56.82	1.0
56.835	7.0
56.85	6.0
56.865	3.0
56.88	1.0
56.895	9.0
56.911	4.0
56.926	1.0
56.941	2.0
56.956	5.0
56.971	4.0
56.986	6.0
57.001	4.0
57.016	6.0
57.031	2.0
57.047	3.0
57.062	3.0
57.077	4.0
57.092	4.0
57.107	3.0
57.122	3.0
57.137	5.0
57.152	2.0
57.167	6.0
57.183	5.0
57.198	1.0
57.213	4.0
57.228	3.0
57.243	3.0
57.258	4.0
57.273	6.0
57.288	5.0
57.303	4.0
57.318	4.0
57.334	4.0
57.349	4.0
57.364	3.0
57.379	3.0
57.394	7.0
57.409	4.0
57.424	6.0
57.439	10.0
57.454	1.0
57.469	4.0
57.484	7.0
57.5	2.0
57.515	7.0
57.53	3.0
57.545	3.0
57.56	7.0
57.575	10.0
57.59	8.0
57.605	5.0
57.62	6.0
57.635	1.0
57.65	5.0
57.665	11.0
57.68	4.0
57.696	7.0
57.711	6.0
57.726	5.0
57.741	5.0
57.756	5.0
57.771	8.0
57.786	4.0
57.801	2.0
57.816	5.0
57.831	5.0
57.846	1.0
57.861	4.0
57.876	3.0
57.891	8.0
57.906	5.0
57.921	5.0
57.937	5.0
57.952	3.0
57.967	4.0
57.982	3.0
57.997	1.0
58.012	4.0
58.027	5.0
58.042	6.0
58.057	8.0
58.072	6.0
58.087	7.0
58.102	4.0
58.117	6.0
58.132	9.0
58.147	6.0
58.162	4.0
58.177	4.0
58.192	2.0
58.207	8.0
58.222	2.0
58.237	3.0
58.252	6.0
58.267	4.0
58.282	3.0
58.297	3.0
58.312	3.0
58.327	5.0
58.342	5.0
58.357	6.0
58.372	3.0
58.387	10.0
58.402	5.0
58.418	4.0
58.433	8.0
58.448	7.0
58.463	2.0
58.478	5.0
58.493	5.0
58.508	7.0
58.523	2.0
58.538	4.0
58.553	6.0
58.568	4.0
58.583	6.0
58.598	7.0
58.613	11.0
58.628	15.0
58.643	4.0
58.658	9.0
58.673	10.0
58.688	10.0
58.703	6.0
58.718	3.0
58.733	8.0
58.748	6.0
58.763	3.0
58.778	1.0
58.793	4.0
58.808	4.0
58.823	6.0
58.838	7.0
58.853	3.0
58.868	2.0
58.883	5.0
58.898	5.0
58.913	5.0
58.928	6.0
58.942	4.0
58.957	6.0
58.972	11.0
58.987	2.0
59.002	4.0
59.017	8.0
59.032	5.0
59.047	6.0
59.062	7.0
59.077	3.0
59.092	1.0
59.107	4.0
59.122	4.0
59.137	5.0
59.152	4.0
59.167	3.0
59.182	5.0
59.197	1.0
59.212	7.0
59.227	1.0
59.242	2.0
59.257	7.0
59.272	4.0
59.287	6.0
59.302	2.0
59.317	1.0
59.332	2.0
59.347	0.0
59.362	1.0
59.377	5.0
59.392	9.0
59.407	3.0
59.422	6.0
59.437	6.0
59.452	5.0
59.467	3.0
59.482	7.0
59.497	7.0
59.512	7.0
59.527	1.0
59.542	5.0
59.557	5.0
59.572	7.0
59.587	7.0
59.602	7.0
59.617	6.0
59.632	7.0
59.647	8.0
59.661	12.0
59.676	8.0
59.691	4.0
59.706	4.0
59.721	4.0
59.736	4.0
59.751	3.0
59.766	6.0
59.781	6.0
59.796	7.0
59.811	4.0
59.826	3.0
59.841	4.0
59.856	8.0
59.871	1.0
59.886	3.0
59.901	4.0
59.916	9.0
59.931	2.0
59.946	6.0
59.961	3.0
59.976	6.0
59.991	10.0
60.006	11.0
60.021	6.0
60.036	6.0
60.051	7.0
60.066	3.0
60.081	4.0
60.096	8.0
60.111	3.0
60.126	4.0
60.141	2.0
60.156	5.0
60.171	2.0
60.186	3.0
60.201	5.0
60.216	5.0
60.231	4.0
60.246	6.0
60.261	2.0
60.276	5.0
60.291	5.0
60.306	0.0
60.321	2.0
60.336	4.0
60.35	7.0
60.365	5.0
60.38	3.0
60.395	3.0
60.41	6.0
60.425	1.0
60.44	9.0
60.455	9.0
60.47	2.0
60.485	7.0
60.5	6.0
60.515	9.0
60.53	8.0
60.545	8.0
60.56	5.0
60.575	9.0
60.59	8.0
60.605	7.0
60.62	12.0
60.635	3.0
60.65	8.0
60.665	5.0
60.68	4.0
60.695	2.0
60.71	3.0
60.725	4.0
60.74	10.0
60.755	6.0
60.77	4.0
60.785	4.0
60.8	6.0
60.815	4.0
60.83	2.0
60.845	4.0
60.86	7.0
60.875	5.0
60.89	4.0
60.905	6.0
60.92	7.0
60.935	4.0
60.95	4.0
60.965	4.0
60.98	10.0
60.995	8.0
61.01	6.0
61.025	6.0
61.04	6.0
61.055	6.0
61.07	7.0
61.085	5.0
61.1	5.0
61.115	9.0
61.13	6.0
61.145	5.0
61.16	2.0
61.175	6.0
61.191	9.0
61.206	4.0
61.221	5.0
61.236	5.0
61.251	2.0
61.266	6.0
61.281	6.0
61.296	3.0
61.311	3.0
61.326	2.0
61.341	6.0
61.356	6.0
61.371	6.0
61.386	4.0
61.401	3.0
61.416	5.0
61.431	8.0
61.446	5.0
61.461	7.0
61.476	2.0
61.491	4.0
61.506	8.0
61.521	7.0
61.536	5.0
61.551	7.0
61.566	4.0
61.581	9.0
61.596	3.0
61.611	4.0
61.626	6.0
61.641	7.0
61.656	3.0
61.672	1.0
61.687	3.0
61.702	3.0
61.717	3.0
61.732	5.0
61.747	4.0
61.762	1.0
61.777	6.0
61.792	4.0
61.807	4.0
61.822	1.0
61.837	7.0
61.852	3.0
61.867	4.0
61.882	7.0
61.897	2.0
61.912	4.0
61.927	5.0
61.943	8.0
61.958	4.0
61.973	7.0
61.988	5.0
62.003	2.0
62.018	1.0
62.033	4.0
62.048	4.0
62.063	5.0
62.078	7.0
62.093	8.0
62.108	2.0
62.123	6.0
62.138	4.0
62.153	3.0
62.169	7.0
62.184	7.0
62.199	1.0
62.214	5.0
62.229	4.0
62.244	6.0
62.259	2.0
62.274	5.0
62.289	2.0
62.304	6.0
62.319	3.0
62.335	3.0
62.35	2.0
62.365	3.0
62.38	4.0
62.395	4.0
62.41	4.0
62.425	1.0
62.44	8.0
62.455	6.0
62.47	2.0
62.485	6.0
62.501	9.0
62.516	6.0
62.531	8.0
62.546	3.0
62.561	3.0
62.576	6.0
62.591	5.0
62.606	1.0
62.621	3.0
62.636	3.0
62.652	5.0
62.667	3.0
62.682	0.0
62.697	7.0
62.712	5.0
62.727	2.0
62.742	4.0
62.757	3.0
62.772	5.0
62.787	4.0
62.803	5.0
62.818	3.0
62.833	5.0
62.848	2.0
62.863	6.0
62.878	7.0
62.893	4.0
62.908	2.0
62.923	6.0
62.939	8.0
62.954	3.0
62.969	5.0
62.984	3.0
62.999	1.0
63.014	2.0
63.029	5.0
63.044	3.0
63.059	2.0
63.074	4.0
63.09	8.0
63.105	2.0
63.12	7.0
63.135	3.0
63.15	4.0
63.165	6.0
63.18	5.0
63.195	7.0
63.21	5.0
63.226	4.0
63.241	6.0
63.256	5.0
63.271	4.0
63.286	3.0
63.301	5.0
63.316	12.0
63.331	6.0
63.346	6.0
63.362	6.0
63.377	5.0
63.392	4.0
63.407	12.0
63.422	8.0
63.437	4.0
63.452	14.0
63.467	8.0
63.482	3.0
63.497	10.0
63.513	9.0
63.528	4.0
63.543	4.0
63.558	1.0
63.573	7.0
63.588	3.0
63.603	3.0
63.618	4.0
63.633	3.0
63.648	4.0
63.664	6.0
63.679	3.0
63.694	2.0
63.709	3.0
63.724	4.0
63.739	6.0
63.754	7.0
63.769	8.0
63.784	8.0
63.799	5.0
63.814	0.0
63.83	6.0
63.845	8.0
63.86	6.0
63.875	8.0
63.89	4.0
63.905	6.0
63.92	8.0
63.935	3.0
63.95	4.0
63.965	5.0
63.98	3.0
63.996	1.0
64.011	3.0
64.026	5.0
64.041	3.0
64.056	5.0
64.071	1.0
64.086	2.0
64.101	2.0
64.116	2.0
64.131	4.0
64.146	2.0
64.161	2.0
64.176	5.0
64.191	4.0
64.207	4.0
64.222	4.0
64.237	3.0
64.252	3.0
64.267	0.0
64.282	3.0
64.297	4.0
64.312	4.0
64.327	5.0
64.342	7.0
64.357	3.0
64.372	3.0
64.387	5.0
64.402	0.0
64.417	9.0
64.433	2.0
64.448	2.0
64.463	4.0
64.478	3.0
64.493	3.0
64.508	1.0
64.523	2.0
64.538	3.0
64.553	5.0
64.568	2.0
64.583	6.0
64.598	3.0
64.613	3.0
64.628	13.0
64.643	6.0
64.658	4.0
64.673	0.0
64.688	5.0
64.703	2.0
64.718	5.0
64.734	2.0
64.749	4.0
64.764	2.0
64.779	5.0
64.794	3.0
64.809	4.0
64.824	4.0
64.839	6.0
64.854	6.0
64.869	5.0
64.884	7.0
64.899	5.0
64.914	5.0
64.929	3.0
64.944	3.0
64.959	4.0
64.974	4.0
64.989	9.0
65.004	2.0
65.019	2.0
65.034	2.0
65.049	1.0
65.064	2.0
65.079	7.0
65.094	3.0
65.109	9.0
65.125	3.0
65.14	5.0
65.155	8.0
65.17	3.0
65.185	3.0
65.2	3.0
65.215	4.0
65.23	3.0
65.245	8.0
65.26	3.0
65.275	2.0
65.29	6.0
65.305	6.0
65.32	3.0
65.335	5.0
65.35	2.0
65.365	6.0
65.38	0.0
65.395	3.0
65.41	4.0
65.425	7.0
65.44	3.0
65.455	5.0
65.47	1.0
65.485	5.0
65.5	0.0
65.515	2.0
65.53	2.0
65.545	1.0
65.56	8.0
65.575	8.0
65.59	1.0
65.605	4.0
65.62	3.0
65.635	3.0
65.65	7.0
65.666	5.0
65.681	3.0
65.696	1.0
65.711	7.0
65.726	5.0
65.741	3.0
65.756	8.0
65.771	5.0
65.786	4.0
65.801	4.0
65.816	1.0
65.831	3.0
65.846	6.0
65.861	6.0
65.876	3.0
65.891	4.0
65.906	4.0
65.921	2.0
65.936	7.0
65.951	7.0
65.966	2.0
65.981	2.0
65.996	1.0
66.011	2.0
66.026	7.0
66.041	3.0
66.056	4.0
66.071	5.0
66.086	3.0
66.101	3.0
66.116	7.0
66.131	7.0
66.146	5.0
66.161	5.0
66.176	6.0
66.191	9.0
66.206	10.0
66.221	11.0
66.236	12.0
66.251	3.0
66.266	9.0
66.281	5.0
66.296	4.0
66.311	4.0
66.327	3.0
66.342	3.0
66.357	3.0
66.372	2.0
66.387	4.0
66.402	4.0
66.417	6.0
66.432	5.0
66.447	4.0
66.462	5.0
66.477	5.0
66.492	4.0
66.507	4.0
66.522	4.0
66.537	3.0
66.552	5.0
66.567	6.0
66.582	6.0
66.597	8.0
66.612	3.0
66.627	4.0
66.642	3.0
66.657	8.0
66.672	8.0
66.687	0.0
66.702	8.0
66.717	3.0
66.732	4.0
66.747	1.0
66.762	2.0
66.777	5.0
66.792	1.0
66.807	2.0
66.822	8.0
66.837	1.0
66.853	5.0
66.868	1.0
66.883	4.0
66.898	3.0
66.913	7.0
66.928	4.0
66.943	5.0
66.958	5.0
66.973	2.0
66.988	2.0
67.003	9.0
67.018	5.0
67.033	5.0
67.048	3.0
67.063	5.0
67.078	5.0
67.093	4.0
67.108	6.0
67.123	4.0
67.138	6.0
67.153	4.0
67.168	4.0
67.183	4.0
67.198	4.0
67.214	1.0
67.229	3.0
67.244	6.0
67.259	6.0
67.274	3.0
67.289	4.0
67.304	2.0
67.319	6.0
67.334	4.0
67.349	3.0
67.364	3.0
67.379	5.0
67.394	2.0
67.409	6.0
67.424	5.0
67.439	4.0
67.454	6.0
67.469	3.0
67.484	5.0
67.5	4.0
67.515	3.0
67.53	4.0
67.545	7.0
67.56	6.0
67.575	5.0
67.59	4.0
67.605	1.0
67.62	4.0
67.635	3.0
67.65	3.0
67.665	6.0
67.68	5.0
67.695	6.0
67.71	4.0
67.726	3.0
67.741	2.0
67.756	2.0
67.771	3.0
67.786	3.0
67.801	4.0
67.816	1.0
67.831	9.0
67.846	2.0
67.861	1.0
67.876	3.0
67.891	4.0
67.906	4.0
67.922	3.0
67.937	4.0
67.952	1.0
67.967	2.0
67.982	1.0
67.997	4.0
68.012	8.0
68.027	4.0
68.042	4.0
68.057	5.0
68.072	5.0
68.087	4.0
68.103	3.0
68.118	8.0
68.133	1.0
68.148	3.0
68.163	3.0
68.178	5.0
68.193	4.0
68.208	2.0
68.223	5.0
68.238	6.0
68.254	4.0
68.269	4.0
68.284	4.0
68.299	2.0
68.314	5.0
68.329	6.0
68.344	6.0
68.359	2.0
68.374	5.0
68.389	7.0
68.405	2.0
68.42	3.0
68.435	5.0
68.45	0.0
68.465	2.0
68.48	7.0
68.495	2.0
68.51	2.0
68.525	5.0
68.54	5.0
68.556	2.0
68.571	3.0
68.586	1.0
68.601	2.0
68.616	4.0
68.631	4.0
68.646	2.0
68.661	3.0
68.676	7.0
68.691	2.0
68.707	2.0
68.722	4.0
68.737	1.0
68.752	7.0
68.767	2.0
68.782	7.0
68.797	1.0
68.812	0.0
68.827	7.0
68.842	4.0
68.857	6.0
68.873	1.0
68.888	6.0
68.903	4.0
68.918	3.0
68.933	5.0
68.948	5.0
68.963	3.0
68.978	4.0
68.993	2.0
69.008	2.0
69.023	4.0
69.038	4.0
69.054	1.0
69.069	8.0
69.084	2.0
69.099	3.0
69.114	3.0
69.129	3.0
69.144	7.0
69.159	5.0
69.174	3.0
69.189	4.0
69.204	1.0
69.219	2.0
69.234	4.0
69.249	0.0
69.264	4.0
69.279	4.0
69.295	4.0
69.31	6.0
69.325	3.0
69.34	2.0
69.355	3.0
69.37	3.0
69.385	5.0
69.4	3.0
69.415	2.0
69.43	4.0
69.445	3.0
69.46	0.0
69.475	4.0
69.49	3.0
69.505	6.0
69.52	3.0
69.535	2.0
69.55	4.0
69.565	2.0
69.58	2.0
69.595	3.0
69.61	2.0
69.625	4.0
69.64	3.0
69.655	4.0
69.67	4.0
69.685	4.0
69.7	4.0
69.715	5.0
69.73	7.0
69.745	6.0
69.76	9.0
69.775	2.0
69.79	7.0
69.805	2.0
69.82	4.0
69.835	3.0
69.85	5.0
69.865	6.0
69.88	3.0
69.895	2.0
69.909	8.0
69.924	4.0
69.939	2.0
69.954	6.0
69.969	3.0
69.984	3.0
69.999	5.0
70.014	0.0
70.029	1.0
70.044	4.0
70.059	6.0
70.074	4.0
70.088	2.0
70.103	5.0
70.118	3.0
70.133	3.0
70.148	3.0
70.163	5.0
70.178	5.0
70.193	3.0
70.208	4.0
70.222	5.0
70.237	7.0
70.252	3.0
70.267	6.0
70.282	6.0
70.297	9.0
70.312	4.0
70.327	10.0
70.341	5.0
70.356	4.0
70.371	2.0
70.386	8.0
70.401	3.0
70.416	1.0
70.43	3.0
70.445	5.0
70.46	4.0
70.475	4.0
70.49	5.0
70.505	1.0
70.519	3.0
70.534	4.0
70.549	9.0
70.564	7.0
70.579	1.0
70.594	9.0
70.608	7.0
70.623	2.0
70.638	4.0
70.653	6.0
70.668	2.0
70.683	6.0
70.697	8.0
70.712	7.0
70.727	4.0
70.742	4.0
70.757	3.0
70.771	3.0
70.786	4.0
70.801	4.0
70.816	1.0
70.831	1.0
70.845	1.0
70.86	1.0
70.875	2.0
70.89	7.0
70.905	2.0
70.92	6.0
70.934	3.0
70.949	6.0
70.964	4.0
70.979	2.0
70.994	5.0
71.008	5.0
71.023	3.0
71.038	5.0
71.053	2.0
71.068	1.0
71.082	7.0
71.097	7.0
71.112	7.0
71.127	6.0
71.142	5.0
71.156	3.0
71.171	3.0
71.186	4.0
71.201	6.0
71.216	3.0
71.231	5.0
71.245	5.0
71.26	2.0
71.275	4.0
71.29	2.0
71.305	3.0
71.319	1.0
71.334	4.0
71.349	2.0
71.364	4.0
71.379	4.0
71.394	3.0
71.408	4.0
71.423	1.0
71.438	1.0
71.453	4.0
71.468	5.0
71.483	3.0
71.497	3.0
71.512	0.0
71.527	3.0
71.542	4.0
71.557	3.0
71.572	8.0
71.586	2.0
71.601	4.0
71.616	3.0
71.631	4.0
71.646	5.0
71.661	4.0
71.676	6.0
71.69	3.0
71.705	7.0
71.72	4.0
71.735	5.0
71.75	1.0
71.765	4.0
71.78	1.0
71.795	1.0
71.81	4.0
71.824	4.0
71.839	3.0
71.854	2.0
71.869	2.0
71.884	5.0
71.899	2.0
71.914	2.0
71.929	4.0
71.944	1.0
71.959	1.0
71.974	3.0
71.988	7.0
72.003	1.0
72.018	5.0
72.033	2.0
72.048	1.0
72.063	2.0
72.078	1.0
72.093	4.0
72.108	4.0
72.123	1.0
72.138	2.0
72.153	1.0
72.168	7.0
72.183	2.0
72.198	2.0
72.213	4.0
72.228	2.0
72.243	1.0
72.258	1.0
72.273	9.0
72.288	3.0
72.303	3.0
72.318	4.0
72.333	3.0
72.348	3.0
72.363	2.0
72.378	3.0
72.393	7.0
72.408	1.0
72.423	5.0
72.438	1.0
72.453	3.0
72.468	3.0
72.483	0.0
72.498	2.0
72.513	5.0
72.528	6.0
72.543	3.0
72.558	4.0
72.573	2.0
72.588	8.0
72.603	2.0
72.618	5.0
72.633	4.0
72.649	2.0
72.664	3.0
72.679	4.0
72.694	5.0
72.709	1.0
72.724	4.0
72.739	1.0
72.754	2.0
72.769	5.0
72.784	4.0
72.799	5.0
72.814	1.0
72.829	3.0
72.845	1.0
72.86	4.0
72.875	3.0
72.89	1.0
72.905	2.0
72.92	3.0
72.935	3.0
72.95	3.0
72.965	4.0
72.98	5.0
72.996	3.0
73.011	2.0
73.026	4.0
73.041	4.0
73.056	1.0
73.071	7.0
73.086	6.0
73.101	1.0
73.117	3.0
73.132	6.0
73.147	4.0
73.162	3.0
73.177	5.0
73.192	4.0
73.207	3.0
73.222	3.0
73.238	4.0
73.253	5.0
73.268	4.0
73.283	4.0
73.298	10.0
73.313	5.0
73.328	3.0
73.343	6.0
73.359	4.0
73.374	3.0
73.389	3.0
73.404	1.0
73.419	4.0
73.434	4.0
73.449	5.0
73.465	4.0
73.48	1.0
73.495	2.0
73.51	6.0
73.525	5.0
73.54	5.0
73.556	2.0
73.571	4.0
73.586	2.0
73.601	3.0
73.616	3.0
73.631	4.0
73.646	5.0
73.662	0.0
73.677	5.0
73.692	3.0
73.707	3.0
73.722	5.0
73.737	3.0
73.752	5.0
73.768	2.0
73.783	3.0
73.798	5.0
73.813	2.0
73.828	2.0
73.843	5.0
73.859	4.0
73.874	3.0
73.889	5.0
73.904	8.0
73.919	2.0
73.934	4.0
73.949	2.0
73.965	3.0
73.98	6.0
73.995	3.0
74.01	2.0
74.025	1.0
74.04	3.0
74.056	5.0
74.071	4.0
74.086	4.0
74.101	4.0
74.116	7.0
74.131	6.0
74.146	4.0
74.162	4.0
74.177	9.0
74.192	8.0
74.207	3.0
74.222	5.0
74.237	10.0
74.252	6.0
74.268	3.0
74.283	2.0
74.298	2.0
74.313	5.0
74.328	7.0
74.343	1.0
74.358	1.0
74.374	5.0
74.389	1.0
74.404	0.0
74.419	3.0
74.434	6.0
74.449	4.0
74.464	4.0
74.48	0.0
74.495	4.0
74.51	2.0
74.525	2.0
74.54	4.0
74.555	3.0
74.57	6.0
74.586	1.0
74.601	4.0
74.616	4.0
74.631	3.0
74.646	3.0
74.661	1.0
74.676	4.0
74.691	3.0
74.707	6.0
74.722	3.0
74.737	8.0
74.752	7.0
74.767	4.0
74.782	4.0
74.797	2.0
74.813	4.0
74.828	5.0
74.843	1.0
74.858	2.0
74.873	3.0
74.888	7.0
74.903	0.0
74.918	4.0
74.934	3.0
74.949	4.0
74.964	4.0
74.979	2.0
74.994	4.0
75.009	6.0
75.024	5.0
75.04	2.0
75.055	8.0
75.07	5.0
75.085	4.0
75.1	4.0
75.115	2.0
75.13	6.0
75.145	6.0
75.161	4.0
75.176	3.0
75.191	3.0
75.206	1.0
75.221	5.0
75.236	5.0
75.251	4.0
75.266	3.0
75.282	4.0
75.297	5.0
75.312	1.0
75.327	3.0
75.342	2.0
75.357	5.0
75.372	4.0
75.387	2.0
75.403	4.0
75.418	3.0
75.433	4.0
75.448	3.0
75.463	1.0
75.478	7.0
75.493	5.0
75.509	6.0
75.524	3.0
75.539	1.0
75.554	3.0
75.569	4.0
75.584	3.0
75.599	3.0
75.614	1.0
75.63	1.0
75.645	2.0
75.66	3.0
75.675	3.0
75.69	3.0
75.705	2.0
75.72	3.0
75.735	3.0
75.751	7.0
75.766	1.0
75.781	3.0
75.796	4.0
75.811	4.0
75.826	0.0
75.841	3.0
75.856	5.0
75.872	3.0
75.887	3.0
75.902	8.0
75.917	1.0
75.932	6.0
75.947	5.0
75.962	1.0
75.977	3.0
75.993	2.0
76.008	3.0
76.023	3.0
76.038	1.0
76.053	1.0
76.068	4.0
76.083	1.0
76.098	1.0
76.114	5.0
76.129	3.0
76.144	2.0
76.159	4.0
76.174	1.0
76.189	2.0
76.204	1.0
76.22	3.0
76.235	6.0
76.25	4.0
76.265	6.0
76.28	3.0
76.295	3.0
76.31	2.0
76.325	3.0
76.341	5.0
76.356	2.0
76.371	3.0
76.386	4.0
76.401	3.0
76.416	4.0
76.431	5.0
76.446	3.0
76.462	4.0
76.477	3.0
76.492	2.0
76.507	3.0
76.522	8.0
76.537	1.0
76.552	3.0
76.567	2.0
76.583	3.0
76.598	1.0
76.613	0.0
76.628	2.0
76.643	2.0
76.658	0.0
76.673	8.0
76.688	2.0
76.704	2.0
76.719	2.0
76.734	3.0
76.749	8.0
76.764	6.0
76.779	4.0
76.794	5.0
76.809	7.0
76.824	4.0
76.84	2.0
76.855	3.0
76.87	5.0
76.885	4.0
76.9	0.0
76.915	2.0
76.93	3.0
76.945	3.0
76.96	2.0
76.976	4.0
76.991	0.0
77.006	3.0
77.021	2.0
77.036	0.0
77.051	2.0
77.066	1.0
77.081	4.0
77.096	5.0
77.112	0.0
77.127	1.0
77.142	1.0
77.157	4.0
77.172	3.0
77.187	3.0
77.202	4.0
77.217	6.0
77.232	4.0
77.247	4.0
77.263	4.0
77.278	4.0
77.293	5.0
77.308	3.0
77.323	2.0
77.338	5.0
77.353	4.0
77.368	5.0
77.383	2.0
77.398	4.0
77.413	4.0
77.428	8.0
77.444	7.0
77.459	1.0
77.474	4.0
77.489	5.0
77.504	3.0
77.519	4.0
77.534	3.0
77.549	2.0
77.564	3.0
77.579	6.0
77.594	3.0
77.609	7.0
77.624	6.0
77.64	6.0
77.655	4.0
77.67	8.0
77.685	4.0
77.7	4.0
77.715	2.0
77.73	4.0
77.745	2.0
77.76	1.0
77.775	5.0
77.79	5.0
77.805	4.0
77.82	5.0
77.835	3.0
77.85	2.0
77.865	4.0
77.88	4.0
77.895	7.0
77.91	3.0
77.926	2.0
77.941	4.0
77.956	4.0
77.971	3.0
77.986	4.0
78.001	0.0
78.016	4.0
78.031	4.0
78.046	5.0
78.061	4.0
78.076	1.0
78.091	2.0
78.106	5.0
78.121	4.0
78.136	4.0
78.151	3.0
78.166	3.0
78.181	4.0
78.196	2.0
78.211	2.0
78.226	6.0
78.241	2.0
78.256	3.0
78.271	2.0
78.286	4.0
78.301	1.0
78.316	0.0
78.331	5.0
78.346	2.0
78.361	2.0
78.376	3.0
78.391	2.0
78.406	1.0
78.421	9.0
78.436	1.0
78.451	2.0
78.466	2.0
78.481	4.0
78.496	2.0
78.511	5.0
78.526	4.0
78.541	3.0
78.556	4.0
78.571	3.0
78.586	4.0
78.601	1.0
78.616	1.0
78.631	2.0
78.646	4.0
78.661	3.0
78.676	4.0
78.691	2.0
78.706	2.0
78.721	1.0
78.736	1.0
78.751	1.0
78.766	3.0
78.781	1.0
78.796	5.0
78.811	3.0
78.826	3.0
78.841	3.0
78.856	3.0
78.871	5.0
78.885	2.0
78.9	1.0
78.915	1.0
78.93	1.0
78.945	3.0
78.96	1.0
78.975	4.0
78.99	4.0
79.005	2.0
79.02	0.0
79.035	1.0
79.05	2.0
79.065	1.0
79.08	2.0
79.095	0.0
79.11	6.0
79.125	2.0
79.14	0.0
79.155	6.0
79.17	2.0
79.185	1.0
79.2	0.0
79.215	4.0
79.23	1.0
79.245	2.0
79.26	7.0
79.275	4.0
79.29	4.0
79.304	4.0
79.319	6.0
79.334	7.0
79.349	3.0
79.364	3.0
79.379	3.0
79.394	1.0
79.409	4.0
79.424	4.0
79.439	4.0
79.454	4.0
79.469	5.0
79.484	5.0
79.499	3.0
79.514	6.0
79.529	5.0
79.544	3.0
79.559	5.0
79.574	3.0
79.589	2.0
79.604	3.0
79.619	5.0
79.634	3.0
79.649	0.0
79.664	2.0
79.679	3.0
79.693	3.0
79.708	2.0
79.723	3.0
79.738	7.0
79.753	3.0
79.768	6.0
79.783	0.0
79.798	6.0
79.813	2.0
79.828	1.0
79.843	3.0
79.858	3.0
79.873	5.0
79.888	2.0
79.903	6.0
79.918	2.0
79.933	5.0
79.948	4.0
79.963	5.0
79.978	2.0
79.993	1.0
80.008	2.0
80.023	2.0
80.038	1.0
80.053	3.0
80.068	2.0
80.083	4.0
80.098	4.0
80.113	9.0
80.128	7.0
80.143	0.0
80.158	2.0
80.173	5.0
80.188	6.0
80.202	7.0
80.217	6.0
80.232	6.0
80.247	6.0
80.262	1.0
80.277	2.0
80.292	7.0
80.307	4.0
80.322	4.0
80.337	5.0
80.352	3.0
80.367	4.0
80.382	4.0
80.397	2.0
80.412	3.0
80.427	2.0
80.442	4.0
80.457	4.0
80.472	2.0
80.487	1.0
80.502	4.0
80.517	2.0
80.532	3.0
80.547	1.0
80.562	3.0
80.577	0.0
80.592	3.0
80.607	5.0
80.622	3.0
80.637	3.0
80.652	2.0
80.667	6.0
80.682	8.0
80.697	2.0
80.712	2.0
80.727	2.0
80.742	5.0
80.757	2.0
80.772	6.0
80.787	6.0
80.802	6.0
80.817	4.0
80.832	2.0
80.847	2.0
80.862	5.0
80.877	4.0
80.892	5.0
80.907	0.0
80.922	6.0
80.937	8.0
80.952	4.0
80.967	3.0
80.982	4.0
80.997	4.0
81.012	3.0
81.027	2.0
81.042	1.0
81.057	1.0
81.072	2.0
81.087	3.0
81.101	2.0
81.116	9.0
81.131	2.0
81.146	4.0
81.161	3.0
81.176	4.0
81.191	2.0
81.206	5.0
81.221	0.0
81.236	3.0
81.251	3.0
81.266	2.0
81.281	4.0
81.296	6.0
81.311	4.0
81.326	6.0
81.341	3.0
81.356	5.0
81.371	4.0
81.386	8.0
81.401	2.0
81.416	1.0
81.431	1.0
81.446	4.0
81.461	2.0
81.476	3.0
81.491	5.0
81.506	2.0
81.521	4.0
81.536	2.0
81.55	2.0
81.565	3.0
81.58	4.0
81.595	2.0
81.61	6.0
81.625	4.0
81.64	4.0
81.655	3.0
81.67	3.0
81.685	3.0
81.7	3.0
81.715	2.0
81.73	3.0
81.745	4.0
81.76	7.0
81.775	3.0
81.79	8.0
81.805	3.0
81.819	3.0
81.834	0.0
81.849	6.0
81.864	7.0
81.879	4.0
81.894	5.0
81.909	4.0
81.924	2.0
81.939	3.0
81.954	2.0
81.969	6.0
81.984	8.0
81.999	2.0
82.013	0.0
82.028	7.0
82.043	7.0
82.058	5.0
82.073	3.0
82.088	4.0
82.103	5.0
82.118	4.0
82.133	0.0
82.148	1.0
82.163	3.0
82.177	2.0
82.192	4.0
82.207	1.0
82.222	2.0
82.237	2.0
82.252	2.0
82.267	5.0
82.282	1.0
82.297	5.0
82.312	2.0
82.326	2.0
82.341	2.0
82.356	1.0
82.371	5.0
82.386	3.0
82.401	3.0
82.416	4.0
82.431	2.0
82.445	2.0
82.46	4.0
82.475	1.0
82.49	2.0
82.505	7.0
82.52	4.0
82.535	1.0
82.55	1.0
82.565	3.0
82.579	7.0
82.594	3.0
82.609	1.0
82.624	5.0
82.639	0.0
82.654	4.0
82.669	6.0
82.684	5.0
82.698	3.0
82.713	0.0
82.728	4.0
82.743	4.0
82.758	3.0
82.773	6.0
82.788	1.0
82.803	3.0
82.817	3.0
82.832	3.0
82.847	5.0
82.862	2.0
82.877	1.0
82.892	1.0
82.907	3.0
82.922	4.0
82.937	5.0
82.951	2.0
82.966	2.0
82.981	3.0
82.996	0.0
83.011	6.0
83.026	2.0
83.041	1.0
83.056	1.0
83.07	1.0
83.085	2.0
83.1	4.0
83.115	2.0
83.13	1.0
83.145	1.0
83.16	8.0
83.175	3.0
83.19	2.0
83.204	0.0
83.219	5.0
83.234	4.0
83.249	3.0
83.264	6.0
83.279	5.0
83.294	1.0
83.309	1.0
83.324	1.0
83.339	1.0
83.353	2.0
83.368	1.0
83.383	4.0
83.398	4.0
83.413	6.0
83.428	4.0
83.443	0.0
83.458	4.0
83.473	0.0
83.488	5.0
83.503	1.0
83.517	2.0
83.532	4.0
83.547	3.0
83.562	2.0
83.577	4.0
83.592	1.0
83.607	4.0
83.622	2.0
83.637	2.0
83.652	6.0
83.667	1.0
83.682	7.0
83.697	0.0
83.712	4.0
83.727	2.0
83.741	4.0
83.756	2.0
83.771	4.0
83.786	6.0
83.801	1.0
83.816	2.0
83.831	6.0
83.846	2.0
83.861	2.0
83.876	3.0
83.891	2.0
83.906	2.0
83.921	4.0
83.936	2.0
83.951	4.0
83.966	3.0
83.981	0.0
83.996	6.0
84.011	1.0
84.026	5.0
84.041	6.0
84.056	5.0
84.071	4.0
84.086	12.0
84.101	4.0
84.116	2.0
84.131	4.0
84.146	5.0
84.161	3.0
84.176	3.0
84.191	3.0
84.206	4.0
84.221	3.0
84.236	4.0
84.251	6.0
84.266	2.0
84.281	5.0
84.296	2.0
84.311	4.0
84.326	6.0
84.341	2.0
84.356	6.0
84.371	3.0
84.386	4.0
84.401	9.0
84.416	2.0
84.431	6.0
84.446	11.0
84.461	1.0
84.476	4.0
84.492	3.0
84.507	3.0
84.522	4.0
84.537	2.0
84.552	5.0
84.567	2.0
84.582	3.0
84.597	4.0
84.612	4.0
84.627	1.0
84.642	3.0
84.657	7.0
84.672	3.0
84.687	3.0
84.702	3.0
84.717	4.0
84.733	7.0
84.748	1.0
84.763	0.0
84.778	2.0
84.793	2.0
84.808	4.0
84.823	5.0
84.838	5.0
84.853	4.0
84.868	1.0
84.883	3.0
84.898	2.0
84.913	1.0
84.929	4.0
84.944	5.0
84.959	4.0
84.974	6.0
84.989	4.0
85.004	4.0
85.019	4.0
85.034	4.0
85.049	3.0
85.064	5.0
85.079	4.0
85.094	5.0
85.11	5.0
85.125	4.0
85.14	6.0
85.155	2.0
85.17	1.0
85.185	5.0
85.2	3.0
85.215	2.0
85.23	1.0
85.245	3.0
85.26	1.0
85.276	4.0
85.291	0.0
85.306	7.0
85.321	3.0
85.336	2.0
85.351	1.0
85.366	5.0
85.381	2.0
85.396	0.0
85.411	4.0
85.426	1.0
85.441	2.0
85.457	2.0
85.472	2.0
85.487	1.0
85.502	3.0
85.517	8.0
85.532	3.0
85.547	5.0
85.562	3.0
85.577	4.0
85.592	2.0
85.607	3.0
85.622	2.0
85.637	4.0
85.653	3.0
85.668	2.0
85.683	1.0
85.698	3.0
85.713	2.0
85.728	3.0
85.743	3.0
85.758	6.0
85.773	2.0
85.788	2.0
85.803	4.0
85.818	4.0
85.833	2.0
85.848	2.0
85.863	3.0
85.879	5.0
85.894	2.0
85.909	2.0
85.924	2.0
85.939	2.0
85.954	2.0
85.969	3.0
85.984	1.0
85.999	1.0
86.014	4.0
86.029	2.0
86.044	1.0
86.059	6.0
86.074	3.0
86.089	1.0
86.104	2.0
86.119	4.0
86.134	3.0
86.149	4.0
86.164	1.0
86.179	1.0
86.194	2.0
86.209	2.0
86.224	2.0
86.239	5.0
86.254	5.0
86.269	10.0
86.284	3.0
86.299	4.0
86.314	4.0
86.33	4.0
86.345	5.0
86.36	5.0
86.375	3.0
86.39	2.0
86.405	5.0
86.42	1.0
86.435	4.0
86.45	4.0
86.465	1.0
86.48	3.0
86.495	6.0
86.51	4.0
86.525	1.0
86.54	3.0
86.555	4.0
86.57	2.0
86.585	1.0
86.6	0.0
86.615	4.0
86.63	1.0
86.645	5.0
86.659	0.0
86.674	4.0
86.689	2.0
86.704	3.0
86.719	3.0
86.734	4.0
86.749	6.0
86.764	1.0
86.779	5.0
86.794	5.0
86.809	3.0
86.824	2.0
86.839	8.0
86.854	1.0
86.869	6.0
86.884	0.0
86.899	7.0
86.914	3.0
86.929	3.0
86.944	4.0
86.959	3.0
86.974	9.0
86.989	6.0
87.004	3.0
87.019	1.0
87.034	5.0
87.049	2.0
87.064	5.0
87.079	5.0
87.094	3.0
87.109	6.0
87.124	4.0
87.139	1.0
87.154	11.0
87.169	3.0
87.184	2.0
87.199	5.0
87.214	0.0
87.229	2.0
87.244	3.0
87.259	6.0
87.274	5.0
87.289	2.0
87.304	2.0
87.319	2.0
87.334	2.0
87.349	2.0
87.364	6.0
87.379	3.0
87.394	5.0
87.409	5.0
87.424	3.0
87.438	4.0
87.453	1.0
87.468	5.0
87.483	5.0
87.498	4.0
87.513	2.0
87.528	7.0
87.543	6.0
87.558	6.0
87.573	2.0
87.588	4.0
87.603	4.0
87.618	3.0
87.633	5.0
87.648	5.0
87.663	4.0
87.678	5.0
87.693	5.0
87.708	4.0
87.723	1.0
87.738	8.0
87.753	4.0
87.768	5.0
87.783	4.0
87.798	4.0
87.813	1.0
87.828	3.0
87.843	5.0
87.858	7.0
87.873	5.0
87.888	5.0
87.903	3.0
87.918	4.0
87.933	3.0
87.948	2.0
87.963	5.0
87.978	2.0
87.993	3.0
88.008	4.0
88.023	7.0
88.038	2.0
88.053	3.0
88.068	4.0
88.083	4.0
88.098	2.0
88.113	2.0
88.128	2.0
88.143	0.0
88.158	1.0
88.174	5.0
88.189	5.0
88.204	2.0
88.219	2.0
88.234	2.0
88.249	2.0
88.264	2.0
88.279	3.0
88.294	1.0
88.309	6.0
88.324	4.0
88.339	7.0
88.354	2.0
88.369	5.0
88.384	4.0
88.399	3.0
88.414	4.0
88.429	5.0
88.444	1.0
88.459	0.0
88.474	4.0
88.489	2.0
88.504	2.0
88.519	4.0
88.534	2.0
88.549	2.0
88.564	4.0
88.58	3.0
88.595	1.0
88.61	4.0
88.625	2.0
88.64	4.0
88.655	5.0
88.67	4.0
88.685	3.0
88.7	3.0
88.715	4.0
88.73	3.0
88.745	5.0
88.76	3.0
88.775	7.0
88.79	2.0
88.805	5.0
88.82	1.0
88.835	5.0
88.85	1.0
88.865	4.0
88.88	1.0
88.895	7.0
88.911	2.0
88.926	1.0
88.941	4.0
88.956	2.0
88.971	4.0
88.986	2.0
89.001	7.0
89.016	6.0
89.031	5.0
89.046	3.0
89.061	3.0
89.076	6.0
89.091	9.0
89.106	2.0
89.121	2.0
89.136	4.0
89.151	2.0
89.166	4.0
89.181	4.0
89.196	5.0
89.211	3.0
89.227	2.0
89.242	3.0
89.257	3.0
89.272	1.0
89.287	3.0
89.302	5.0
89.317	5.0
89.332	6.0
89.347	4.0
89.362	6.0
89.377	5.0
89.392	4.0
89.407	2.0
89.422	1.0
89.437	3.0
89.452	1.0
89.467	4.0
89.482	3.0
89.497	1.0
89.512	3.0
89.527	4.0
89.542	2.0
89.557	2.0
89.572	0.0
89.587	2.0
89.602	2.0
89.617	2.0
89.632	4.0
89.647	5.0
89.662	3.0
89.677	2.0
89.693	0.0
89.708	3.0
89.723	0.0
89.738	1.0
89.753	2.0
89.768	4.0
89.783	2.0
89.798	2.0
89.813	4.0
89.828	5.0
89.843	4.0
89.858	3.0
89.873	1.0
89.888	4.0
89.903	0.0
89.918	4.0
89.933	5.0
89.948	5.0
89.963	4.0
89.978	1.0
89.993	2.0
90.008	1.0
90.023	6.0
90.038	3.0
90.053	3.0
90.068	3.0
90.083	1.0
90.097	1.0
90.112	2.0
90.127	8.0
90.142	7.0
90.157	9.0
90.172	1.0
90.187	5.0
90.202	8.0
90.217	1.0
90.232	4.0
90.247	5.0
90.262	10.0
90.277	6.0
90.292	2.0
90.307	4.0
90.322	2.0
90.337	3.0
90.352	3.0
90.367	2.0
90.382	3.0
90.397	1.0
90.412	3.0
90.427	3.0
90.442	1.0
90.457	4.0
90.472	3.0
90.487	3.0
90.501	1.0
90.516	3.0
90.531	4.0
90.546	3.0
90.561	6.0
90.576	2.0
90.591	2.0
90.606	2.0
90.621	3.0
90.636	4.0
90.651	3.0
90.666	2.0
90.681	5.0
90.696	3.0
90.711	2.0
90.726	2.0
90.741	1.0
90.755	4.0
90.77	1.0
90.785	2.0
90.8	2.0
90.815	4.0
90.83	6.0
90.845	1.0
90.86	0.0
90.875	4.0
90.89	3.0
90.905	3.0
90.92	8.0
90.935	1.0
90.95	3.0
90.965	7.0
90.979	4.0
90.994	3.0
91.009	0.0
91.024	0.0
91.039	3.0
91.054	5.0
91.069	5.0
91.084	2.0
91.099	1.0
91.114	4.0
91.129	3.0
91.144	4.0
91.159	4.0
91.174	2.0
91.188	2.0
91.203	5.0
91.218	1.0
91.233	4.0
91.248	3.0
91.263	6.0
91.278	1.0
91.293	3.0
91.308	5.0
91.323	7.0
91.338	1.0
91.353	3.0
91.368	0.0
91.383	4.0
91.398	4.0
91.412	2.0
91.427	6.0
91.442	3.0
91.457	4.0
91.472	5.0
91.487	1.0
91.502	2.0
91.517	2.0
91.532	2.0
91.547	1.0
91.562	1.0
91.577	1.0
91.592	2.0
91.607	4.0
91.622	2.0
91.637	3.0
91.652	2.0
91.666	1.0
91.681	7.0
91.696	4.0
91.711	2.0
91.726	4.0
91.741	4.0
91.756	5.0
91.771	3.0
91.786	3.0
91.801	5.0
91.816	3.0
91.831	5.0
91.846	3.0
91.861	4.0
91.876	0.0
91.891	0.0
91.906	3.0
91.921	3.0
91.936	2.0
91.951	4.0
91.966	5.0
91.981	1.0
91.995	4.0
92.01	3.0
92.025	2.0
92.04	1.0
92.055	0.0
92.07	5.0
92.085	4.0
92.1	2.0
92.115	2.0
92.13	3.0
92.145	1.0
92.16	0.0
92.175	7.0
92.19	2.0
92.205	2.0
92.22	2.0
92.235	4.0
92.25	1.0
92.265	0.0
92.28	3.0
92.295	4.0
92.31	2.0
92.325	1.0
92.34	6.0
92.355	4.0
92.37	1.0
92.385	3.0
92.4	5.0
92.415	6.0
92.43	2.0
92.445	1.0
92.46	2.0
92.475	2.0
92.49	3.0
92.505	2.0
92.52	4.0
92.535	1.0
92.55	1.0
92.565	4.0
92.58	1.0
92.595	3.0
92.61	5.0
92.625	2.0
92.64	3.0
92.655	3.0
92.67	4.0
92.685	5.0
92.7	1.0
92.715	4.0
92.73	1.0
92.745	0.0
92.76	6.0
92.775	3.0
92.79	4.0
92.805	0.0
92.82	7.0
92.835	2.0
92.85	9.0
92.865	3.0
92.88	5.0
92.895	4.0
92.91	1.0
92.925	1.0
92.94	4.0
92.955	2.0
92.97	1.0
92.985	2.0
93.0	0.0
93.015	4.0
93.03	1.0
93.045	1.0
93.06	2.0
93.075	4.0
93.09	2.0
93.105	4.0
93.12	1.0
93.135	4.0
93.15	1.0
93.165	4.0
93.18	2.0
93.195	2.0
93.21	3.0
93.225	3.0
93.24	4.0
93.255	2.0
93.27	5.0
93.285	2.0
93.3	2.0
93.315	5.0
93.33	3.0
93.345	3.0
93.36	7.0
93.375	4.0
93.39	2.0
93.405	5.0
93.42	7.0
93.435	2.0
93.45	4.0
93.465	2.0
93.48	3.0
93.495	8.0
93.51	2.0
93.525	3.0
93.54	2.0
93.555	6.0
93.57	5.0
93.585	4.0
93.6	2.0
93.615	3.0
93.63	2.0
93.645	4.0
93.66	3.0
93.675	1.0
93.69	3.0
93.705	3.0
93.72	1.0
93.735	4.0
93.75	2.0
93.765	4.0
93.78	4.0
93.795	3.0
93.81	2.0
93.824	4.0
93.839	1.0
93.854	1.0
93.869	3.0
93.884	3.0
93.899	2.0
93.914	6.0
93.929	2.0
93.944	3.0
93.959	1.0
93.974	2.0
93.989	1.0
94.004	1.0
94.019	3.0
94.034	0.0
94.049	5.0
94.064	6.0
94.079	1.0
94.094	2.0
94.108	1.0
94.123	1.0
94.138	2.0
94.153	3.0
94.168	2.0
94.183	3.0
94.198	1.0
94.213	6.0
94.228	7.0
94.243	3.0
94.258	3.0
94.273	5.0
94.288	5.0
94.302	5.0
94.317	3.0
94.332	5.0
94.347	5.0
94.362	6.0
94.377	7.0
94.392	0.0
94.407	5.0
94.422	4.0
94.437	3.0
94.452	6.0
94.466	3.0
94.481	7.0
94.496	6.0
94.511	4.0
94.526	6.0
94.541	1.0
94.556	1.0
94.571	6.0
94.586	3.0
94.601	7.0
94.615	2.0
94.63	5.0
94.645	0.0
94.66	2.0
94.675	2.0
94.69	1.0
94.705	3.0
94.72	2.0
94.735	3.0
94.749	2.0
94.764	6.0
94.779	4.0
94.794	3.0
94.809	5.0
94.824	5.0
94.839	3.0
94.854	6.0
94.868	1.0
94.883	2.0
94.898	5.0
94.913	3.0
94.928	6.0
94.943	3.0
94.958	5.0
94.973	11.0
94.987	2.0
95.002	2.0
95.017	2.0
95.032	2.0
95.047	1.0
95.062	2.0
95.077	5.0
95.092	1.0
95.106	3.0
95.121	2.0
95.136	5.0
95.151	3.0
95.166	1.0
95.181	3.0
95.196	2.0
95.211	2.0
95.226	5.0
95.24	3.0
95.255	2.0
95.27	6.0
95.285	4.0
95.3	2.0
95.315	3.0
95.33	2.0
95.345	4.0
95.359	2.0
95.374	3.0
95.389	3.0
95.404	3.0
95.419	2.0
95.434	0.0
95.449	6.0
95.464	2.0
95.478	1.0
95.493	3.0
95.508	2.0
95.523	1.0
95.538	1.0
95.553	3.0
95.568	5.0
95.583	4.0
95.597	2.0
95.612	5.0
95.627	4.0
95.642	1.0
95.657	4.0
95.672	1.0
95.687	4.0
95.702	2.0
95.717	6.0
95.731	3.0
95.746	2.0
95.761	2.0
95.776	1.0
95.791	5.0
95.806	3.0
95.821	6.0
95.836	5.0
95.851	2.0
95.866	1.0
95.88	3.0
95.895	2.0
95.91	0.0
95.925	7.0
95.94	1.0
95.955	2.0
95.97	1.0
95.985	1.0
96.0	4.0
96.015	3.0
96.029	3.0
96.044	0.0
96.059	5.0
96.074	1.0
96.089	6.0
96.104	4.0
96.119	3.0
96.134	2.0
96.149	0.0
96.164	1.0
96.179	1.0
96.194	4.0
96.208	2.0
96.223	4.0
96.238	4.0
96.253	1.0
96.268	1.0
96.283	3.0
96.298	5.0
96.313	0.0
96.328	4.0
96.343	1.0
96.358	3.0
96.373	3.0
96.388	3.0
96.403	3.0
96.417	5.0
96.432	4.0
96.447	2.0
96.462	3.0
96.477	6.0
96.492	9.0
96.507	4.0
96.522	1.0
96.537	1.0
96.552	1.0
96.567	3.0
96.582	3.0
96.597	4.0
96.612	3.0
96.627	4.0
96.642	5.0
96.656	3.0
96.671	3.0
96.686	3.0
96.701	8.0
96.716	2.0
96.731	1.0
96.746	4.0
96.761	5.0
96.776	4.0
96.791	1.0
96.806	4.0
96.821	5.0
96.836	1.0
96.851	2.0
96.866	3.0
96.881	2.0
96.896	5.0
96.911	3.0
96.926	4.0
96.94	3.0
96.955	2.0
96.97	9.0
96.985	4.0
97.0	1.0
97.015	4.0
97.03	5.0
97.045	4.0
97.06	3.0
97.075	6.0
97.09	6.0
97.105	1.0
97.12	0.0
97.135	1.0
97.15	4.0
97.165	3.0
97.18	1.0
97.195	4.0
97.21	2.0
97.225	3.0
97.239	2.0
97.254	3.0
97.269	3.0
97.284	3.0
97.299	3.0
97.314	5.0
97.329	2.0
97.344	4.0
97.359	2.0
97.374	2.0
97.389	2.0
97.404	3.0
97.419	3.0
97.434	3.0
97.449	3.0
97.464	3.0
97.479	3.0
97.494	5.0
97.509	4.0
97.524	2.0
97.538	3.0
97.553	2.0
97.568	1.0
97.583	4.0
97.598	1.0
97.613	5.0
97.628	3.0
97.643	5.0
97.658	2.0
97.673	1.0
97.688	2.0
97.703	2.0
97.718	2.0
97.733	4.0
97.748	3.0
97.763	2.0
97.778	3.0
97.792	4.0
97.807	1.0
97.822	1.0
97.837	4.0
97.852	3.0
97.867	4.0
97.882	4.0
97.897	2.0
97.912	1.0
97.927	3.0
97.942	2.0
97.957	2.0
97.972	1.0
97.987	1.0
98.001	4.0
98.016	4.0
98.031	0.0
98.046	5.0
98.061	1.0
98.076	3.0
98.091	3.0
98.106	2.0
98.121	3.0
98.136	1.0
98.151	2.0
98.166	1.0
98.181	1.0
98.195	1.0
98.21	4.0
98.225	4.0
98.24	6.0
98.255	2.0
98.27	3.0
98.285	2.0
98.3	4.0
98.315	4.0
98.33	5.0
98.345	4.0
98.359	2.0
98.374	1.0
98.389	2.0
98.404	3.0
98.419	4.0
98.434	2.0
98.449	2.0
98.464	5.0
98.479	1.0
98.494	7.0
98.508	1.0
98.523	3.0
98.538	2.0
98.553	3.0
98.568	3.0
98.583	2.0
98.598	4.0
98.613	4.0
98.628	4.0
98.642	4.0
98.657	7.0
98.672	3.0
98.687	1.0
98.702	4.0
98.717	4.0
98.732	0.0
98.747	3.0
98.762	2.0
98.776	1.0
98.791	2.0
98.806	6.0
98.821	3.0
98.836	0.0
98.851	5.0
98.866	1.0
98.881	2.0
98.896	1.0
98.91	4.0
98.925	2.0
98.94	4.0
98.955	4.0
98.97	1.0
98.985	3.0
99.0	2.0
99.015	4.0
99.029	2.0
99.044	2.0
99.059	4.0
99.074	4.0
99.089	0.0
99.104	1.0
99.119	2.0
99.133	4.0
99.148	2.0
99.163	4.0
99.178	3.0
99.193	3.0
99.208	2.0
99.223	1.0
99.238	3.0
99.252	2.0
99.267	4.0
99.282	6.0
99.297	5.0
99.312	5.0
99.327	3.0
99.342	3.0
99.356	3.0
99.371	8.0
99.386	2.0
99.401	0.0
99.416	2.0
99.431	3.0
99.446	4.0
99.461	6.0
99.475	4.0
99.49	5.0
99.505	4.0
99.52	3.0
99.535	5.0
99.55	0.0
99.565	1.0
99.579	5.0
99.594	1.0
99.609	3.0
99.624	2.0
99.639	1.0
99.654	4.0
99.669	5.0
99.683	4.0
99.698	3.0
99.713	3.0
99.728	5.0
99.743	3.0
99.758	1.0
99.772	3.0
99.787	2.0
99.802	4.0
99.817	1.0
99.832	4.0
99.847	3.0
99.862	3.0
99.876	2.0
99.891	2.0
99.906	5.0
99.921	3.0
99.936	2.0
99.951	4.0
99.966	3.0
99.98	2.0
99.995	5.0
100.01	2.0
100.025	3.0
100.04	2.0
100.055	3.0
100.069	7.0
100.084	2.0
100.099	3.0
100.114	4.0
100.129	5.0
100.144	2.0
100.159	2.0
100.173	5.0
100.188	3.0
100.203	1.0
100.218	0.0
100.233	3.0
100.248	9.0
100.262	2.0
100.277	8.0
100.292	3.0
100.307	3.0
100.322	2.0
100.337	6.0
100.351	5.0
100.366	4.0
100.381	2.0
100.396	6.0
100.411	4.0
100.426	4.0
100.441	1.0
100.455	5.0
100.47	2.0
100.485	1.0
100.5	6.0
100.515	6.0
100.53	4.0
100.544	4.0
100.559	3.0
100.574	4.0
100.589	1.0
100.604	1.0
100.619	1.0
100.633	3.0
100.648	3.0
100.663	3.0
100.678	6.0
100.693	0.0
100.708	4.0
100.722	3.0
100.737	1.0
100.752	3.0
100.767	1.0
100.782	2.0
100.796	3.0
100.811	0.0
100.826	4.0
100.841	7.0
100.856	2.0
100.871	4.0
100.885	1.0
100.9	5.0
100.915	5.0
100.93	5.0
100.945	2.0
100.96	4.0
100.974	2.0
100.989	4.0
101.004	0.0
101.019	2.0
101.034	5.0
101.048	4.0
101.063	1.0
101.078	5.0
101.093	5.0
101.108	3.0
101.123	1.0
101.137	2.0
101.152	6.0
101.167	2.0
101.182	2.0
101.197	0.0
101.211	7.0
101.226	5.0
101.241	8.0
101.256	4.0
101.271	4.0
101.285	3.0
101.3	4.0
101.315	2.0
101.33	2.0
101.345	1.0
101.359	3.0
101.374	3.0
101.389	4.0
101.404	2.0
101.419	3.0
101.433	3.0
101.448	4.0
101.463	3.0
101.478	5.0
101.493	3.0
101.507	2.0
101.522	4.0
101.537	3.0
101.552	4.0
101.567	0.0
101.581	0.0
101.596	1.0
101.611	1.0
101.626	2.0
101.64	1.0
101.655	2.0
101.67	4.0
101.685	5.0
101.7	4.0
101.714	3.0
101.729	5.0
101.744	2.0
101.759	2.0
101.773	2.0
101.788	0.0
101.803	4.0
101.818	1.0
101.833	2.0
101.847	3.0
101.862	5.0
101.877	5.0
101.892	1.0
101.906	3.0
101.921	4.0
101.936	1.0
101.951	7.0
101.965	4.0
101.98	6.0
101.995	5.0
102.01	4.0
102.025	6.0
102.039	2.0
102.054	3.0
102.069	2.0
102.084	3.0
102.098	0.0
102.113	3.0
102.128	3.0
102.143	1.0
102.157	6.0
102.172	2.0
102.187	1.0
102.202	2.0
102.216	3.0
102.231	4.0
102.246	1.0
102.261	1.0
102.275	2.0
102.29	3.0
102.305	4.0
102.32	8.0
102.334	5.0
102.349	3.0
102.364	4.0
102.378	5.0
102.393	1.0
102.408	0.0
102.423	5.0
102.437	2.0
102.452	3.0
102.467	3.0
102.482	2.0
102.496	4.0
102.511	6.0
102.526	2.0
102.541	2.0
102.555	1.0
102.57	1.0
102.585	6.0
102.6	8.0
102.614	2.0
102.629	3.0
102.644	4.0
102.659	3.0
102.673	2.0
102.688	6.0
102.703	6.0
102.717	2.0
102.732	4.0
102.747	2.0
102.762	0.0
102.776	4.0
102.791	4.0
102.806	4.0
102.821	5.0
102.835	7.0
102.85	3.0
102.865	5.0
102.88	4.0
102.894	5.0
102.909	9.0
102.924	3.0
102.938	5.0
102.953	4.0
102.968	1.0
102.983	1.0
102.997	3.0
103.012	3.0
103.027	5.0
103.042	3.0
103.056	4.0
103.071	5.0
103.086	0.0
103.101	3.0
103.115	4.0
103.13	8.0
103.145	5.0
103.16	2.0
103.174	3.0
103.189	1.0
103.204	3.0
103.219	4.0
103.233	7.0
103.248	3.0
103.263	5.0
103.278	1.0
103.292	3.0
103.307	2.0
103.322	2.0
103.337	2.0
103.351	4.0
103.366	1.0
103.381	4.0
103.396	3.0
103.41	5.0
103.425	0.0
103.44	6.0
103.455	0.0
103.469	0.0
103.484	4.0
103.499	1.0
103.514	3.0
103.529	5.0
103.543	5.0
103.558	2.0
103.573	4.0
103.588	3.0
103.602	3.0
103.617	6.0
103.632	3.0
103.647	1.0
103.661	3.0
103.676	2.0
103.691	3.0
103.706	2.0
103.721	2.0
103.735	3.0
103.75	3.0
103.765	6.0
103.78	3.0
103.795	4.0
103.809	2.0
103.824	2.0
103.839	3.0
103.854	1.0
103.869	2.0
103.883	2.0
103.898	3.0
103.913	3.0
103.928	2.0
103.943	4.0
103.957	4.0
103.972	3.0
103.987	1.0
104.002	3.0
104.017	2.0
104.031	5.0
104.046	1.0
104.061	5.0
104.076	2.0
104.091	1.0
104.106	1.0
104.12	1.0
104.135	3.0
104.15	1.0
104.165	4.0
104.18	3.0
104.195	7.0
104.209	1.0
104.224	0.0
104.239	2.0
104.254	3.0
104.269	6.0
104.284	5.0
104.299	2.0
104.313	3.0
104.328	3.0
104.343	2.0
104.358	3.0
104.373	2.0
104.388	0.0
104.403	4.0
104.417	4.0
104.432	3.0
104.447	2.0
104.462	1.0
104.477	6.0
104.492	3.0
104.507	3.0
104.522	4.0
104.536	3.0
104.551	7.0
104.566	6.0
104.581	4.0
104.596	6.0
104.611	2.0
104.626	7.0
104.641	2.0
104.656	6.0
104.67	2.0
104.685	7.0
104.7	3.0
104.715	1.0
104.73	2.0
104.745	4.0
104.76	3.0
104.775	5.0
104.79	2.0
104.804	2.0
104.819	1.0
104.834	2.0
104.849	2.0
104.864	0.0
104.879	6.0
104.894	4.0
104.909	2.0
104.924	2.0
104.939	3.0
104.954	2.0
104.968	2.0
104.983	0.0
104.998	3.0
105.013	7.0
105.028	5.0
105.043	3.0
105.058	3.0
105.073	3.0
105.088	1.0
105.103	1.0
105.118	3.0
105.133	4.0
105.147	2.0
105.162	3.0
105.177	7.0
105.192	5.0
105.207	2.0
105.222	5.0
105.237	3.0
105.252	2.0
105.267	2.0
105.282	5.0
105.297	2.0
105.312	5.0
105.327	2.0
105.342	1.0
105.356	4.0
105.371	2.0
105.386	4.0
105.401	2.0
105.416	2.0
105.431	7.0
105.446	3.0
105.461	2.0
105.476	3.0
105.491	2.0
105.506	1.0
105.521	4.0
105.536	3.0
105.551	3.0
105.566	6.0
105.581	1.0
105.595	1.0
105.61	4.0
105.625	4.0
105.64	3.0
105.655	3.0
105.67	3.0
105.685	3.0
105.7	3.0
105.715	5.0
105.73	5.0
105.745	5.0
105.76	3.0
105.775	7.0
105.79	4.0
105.805	3.0
105.82	4.0
105.835	2.0
105.85	1.0
105.864	3.0
105.879	1.0
105.894	3.0
105.909	3.0
105.924	3.0
105.939	5.0
105.954	4.0
105.969	4.0
105.984	1.0
105.999	5.0
106.014	3.0
106.029	1.0
106.044	2.0
106.059	0.0
106.074	6.0
106.089	2.0
106.104	3.0
106.119	3.0
106.134	4.0
106.148	2.0
106.163	0.0
106.178	5.0
106.193	1.0
106.208	1.0
106.223	3.0
106.238	7.0
106.253	3.0
106.268	6.0
106.283	2.0
106.298	3.0
106.313	5.0
106.328	3.0
106.343	7.0
106.358	6.0
106.373	7.0
106.388	1.0
106.403	4.0
106.418	9.0
106.432	1.0
106.447	4.0
106.462	7.0
106.477	2.0
106.492	2.0
106.507	2.0
106.522	3.0
106.537	1.0
106.552	5.0
106.567	1.0
106.582	2.0
106.597	1.0
106.612	3.0
106.627	6.0
106.642	0.0
106.657	2.0
106.672	2.0
106.687	1.0
106.701	2.0
106.716	5.0
106.731	4.0
106.746	2.0
106.761	2.0
106.776	2.0
106.791	3.0
106.806	1.0
106.821	2.0
106.836	5.0
106.851	2.0
106.866	1.0
106.881	5.0
106.896	3.0
106.911	1.0
106.926	1.0
106.941	6.0
106.955	3.0
106.97	3.0
106.985	5.0
107.0	2.0
107.015	1.0
107.03	0.0
107.045	7.0
107.06	4.0
107.075	5.0
107.09	2.0
107.105	5.0
107.12	1.0
107.135	6.0
107.15	1.0
107.165	3.0
107.18	6.0
107.194	4.0
107.209	2.0
107.224	2.0
107.239	4.0
107.254	3.0
107.269	4.0
107.284	2.0
107.299	2.0
107.314	2.0
107.329	3.0
107.344	5.0
107.359	4.0
107.374	2.0
107.389	3.0
107.404	1.0
107.418	7.0
107.433	5.0
107.448	6.0
107.463	3.0
107.478	3.0
107.493	2.0
107.508	3.0
107.523	3.0
107.538	1.0
107.553	3.0
107.568	3.0
107.583	4.0
107.598	3.0
107.613	1.0
107.627	3.0
107.642	5.0
107.657	2.0
107.672	3.0
107.687	5.0
107.702	7.0
107.717	4.0
107.732	4.0
107.747	1.0
107.762	2.0
107.777	5.0
107.792	1.0
107.807	1.0
107.821	5.0
107.836	4.0
107.851	1.0
107.866	2.0
107.881	5.0
107.896	1.0
107.911	6.0
107.926	5.0
107.941	5.0
107.956	2.0
107.971	5.0
107.986	5.0
108.0	2.0
108.015	4.0
108.03	5.0
108.045	7.0
108.06	5.0
108.075	3.0
108.09	4.0
108.105	2.0
108.12	4.0
108.135	2.0
108.15	2.0
108.164	3.0
108.179	5.0
108.194	3.0
108.209	5.0
108.224	4.0
108.239	3.0
108.254	5.0
108.269	3.0
108.284	1.0
108.299	1.0
108.313	3.0
108.328	4.0
108.343	2.0
108.358	2.0
108.373	2.0
108.388	0.0
108.403	3.0
108.418	2.0
108.433	5.0
108.448	3.0
108.462	2.0
108.477	6.0
108.492	4.0
108.507	0.0
108.522	3.0
108.537	3.0
108.552	4.0
108.567	1.0
108.582	2.0
108.597	2.0
108.611	2.0
108.626	2.0
108.641	0.0
108.656	2.0
108.671	2.0
108.686	2.0
108.701	0.0
108.716	5.0
108.731	1.0
108.745	5.0
108.76	2.0
108.775	6.0
108.79	7.0
108.805	3.0
108.82	2.0
108.835	2.0
108.85	4.0
108.865	1.0
108.879	2.0
108.894	4.0
108.909	3.0
108.924	2.0
108.939	4.0
108.954	2.0
108.969	2.0
108.984	2.0
108.999	6.0
109.013	6.0
109.028	3.0
109.043	3.0
109.058	3.0
109.073	3.0
109.088	3.0
109.103	5.0
109.118	7.0
109.133	4.0
109.147	3.0
109.162	3.0
109.177	6.0
109.192	3.0
109.207	0.0
109.222	2.0
109.237	6.0
109.252	4.0
109.267	2.0
109.281	4.0
109.296	2.0
109.311	1.0
109.326	2.0
109.341	4.0
109.356	6.0
109.371	5.0
109.386	5.0
109.4	3.0
109.415	0.0
109.43	3.0
109.445	0.0
109.46	2.0
109.475	2.0
109.49	3.0
109.505	5.0
109.52	3.0
109.534	7.0
109.549	5.0
109.564	3.0
109.579	5.0
109.594	2.0
109.609	2.0
109.624	6.0
109.639	3.0
109.653	4.0
109.668	3.0
109.683	2.0
109.698	6.0
109.713	1.0
109.728	0.0
109.743	2.0
109.758	1.0
109.773	3.0
109.787	5.0
109.802	2.0
109.817	0.0
109.832	7.0
109.847	5.0
109.862	6.0
109.877	4.0
109.892	0.0
109.907	2.0
109.921	2.0
109.936	3.0
109.951	4.0
109.966	4.0
109.981	3.0
109.996	2.0
110.011	3.0
110.026	5.0
110.04	3.0
110.055	2.0
110.07	7.0
110.085	5.0
110.1	4.0
110.115	0.0
110.13	5.0
110.145	4.0
110.16	4.0
110.174	4.0
110.189	2.0
110.204	2.0
110.219	2.0
110.234	3.0
110.249	4.0
110.264	5.0
110.279	0.0
110.294	2.0
110.308	5.0
110.323	2.0
110.338	0.0
110.353	3.0
110.368	1.0
110.383	4.0
110.398	2.0
110.413	4.0
110.428	6.0
110.442	4.0
110.457	2.0
110.472	5.0
110.487	3.0
110.502	2.0
110.517	3.0
110.532	5.0
110.547	4.0
110.561	1.0
110.576	5.0
110.591	2.0
110.606	3.0
110.621	2.0
110.636	3.0
110.651	2.0
110.666	1.0
110.681	6.0
110.695	4.0
110.71	2.0
110.725	3.0
110.74	8.0
110.755	5.0
110.77	2.0
110.785	5.0
110.8	5.0
110.815	5.0
110.829	3.0
110.844	4.0
110.859	3.0
110.874	7.0
110.889	0.0
110.904	2.0
110.919	5.0
110.934	3.0
110.948	7.0
110.963	5.0
110.978	3.0
110.993	2.0
111.008	1.0
111.023	7.0
111.038	5.0
111.053	1.0
111.067	4.0
111.082	3.0
111.097	2.0
111.112	5.0
111.127	3.0
111.142	8.0
111.157	1.0
111.172	3.0
111.186	4.0
111.201	1.0
111.216	3.0
111.231	6.0
111.246	2.0
111.261	8.0
111.276	5.0
111.291	2.0
111.305	6.0
111.32	2.0
111.335	4.0
111.35	2.0
111.365	4.0
111.38	5.0
111.395	4.0
111.41	3.0
111.424	4.0
111.439	3.0
111.454	9.0
111.469	4.0
111.484	9.0
111.499	4.0
111.514	2.0
111.528	4.0
111.543	6.0
111.558	5.0
111.573	4.0
111.588	3.0
111.603	3.0
111.618	7.0
111.633	5.0
111.647	3.0
111.662	3.0
111.677	5.0
111.692	4.0
111.707	3.0
111.722	3.0
111.737	5.0
111.751	3.0
111.766	1.0
111.781	3.0
111.796	5.0
111.811	3.0
111.826	4.0
111.84	5.0
111.855	3.0
111.87	4.0
111.885	5.0
111.9	0.0
111.915	5.0
111.93	1.0
111.944	3.0
111.959	2.0
111.974	1.0
111.989	3.0
112.004	4.0
112.019	3.0
112.033	2.0
112.048	3.0
112.063	5.0
112.078	3.0
112.093	1.0
112.108	2.0
112.123	2.0
112.137	2.0
112.152	6.0
112.167	0.0
112.182	3.0
112.197	1.0
112.212	0.0
112.226	2.0
112.241	3.0
112.256	3.0
112.271	2.0
112.286	5.0
112.301	4.0
112.315	6.0
112.33	5.0
112.345	7.0
112.36	4.0
112.375	7.0
112.389	3.0
112.404	3.0
112.419	3.0
112.434	2.0
112.449	2.0
112.464	3.0
112.478	8.0
112.493	1.0
112.508	3.0
112.523	3.0
112.538	1.0
112.553	6.0
112.567	4.0
112.582	3.0
112.597	1.0
112.612	3.0
112.627	0.0
112.642	1.0
112.656	5.0
112.671	7.0
112.686	7.0
112.701	3.0
112.716	4.0
112.73	4.0
112.745	3.0
112.76	3.0
112.775	6.0
112.79	2.0
112.805	7.0
112.819	4.0
112.834	7.0
112.849	6.0
112.864	3.0
112.879	3.0
112.894	5.0
112.908	4.0
112.923	0.0
112.938	4.0
112.953	5.0
112.968	1.0
112.983	2.0
112.997	5.0
113.012	3.0
113.027	2.0
113.042	5.0
113.057	4.0
113.072	3.0
113.086	4.0
113.101	3.0
113.116	4.0
113.131	5.0
113.146	4.0
113.161	4.0
113.175	4.0
113.19	3.0
113.205	3.0
113.22	2.0
113.235	5.0
113.25	4.0
113.265	0.0
113.279	5.0
113.294	1.0
113.309	4.0
113.324	6.0
113.339	2.0
113.354	3.0
113.368	3.0
113.383	6.0
113.398	1.0
113.413	3.0
113.428	4.0
113.443	1.0
113.458	3.0
113.472	7.0
113.487	2.0
113.502	1.0
113.517	1.0
113.532	1.0
113.547	2.0
113.562	4.0
113.576	3.0
113.591	5.0
113.606	4.0
113.621	3.0
113.636	3.0
113.651	2.0
113.666	1.0
113.681	4.0
113.695	4.0
113.71	2.0
113.725	7.0
113.74	4.0
113.755	3.0
113.77	1.0
113.785	1.0
113.8	4.0
113.814	3.0
113.829	4.0
113.844	2.0
113.859	2.0
113.874	4.0
113.889	8.0
113.904	2.0
113.919	1.0
113.934	4.0
113.949	1.0
113.963	2.0
113.978	4.0
113.993	4.0
114.008	6.0
114.023	7.0
114.038	2.0
114.053	1.0
114.068	5.0
114.083	1.0
114.098	1.0
114.113	2.0
114.127	3.0
114.142	3.0
114.157	4.0
114.172	2.0
114.187	2.0
114.202	8.0
114.217	5.0
114.232	1.0
114.247	2.0
114.262	4.0
114.277	2.0
114.292	5.0
114.307	3.0
114.322	2.0
114.337	4.0
114.351	4.0
114.366	0.0
114.381	5.0
114.396	3.0
114.411	4.0
114.426	9.0
114.441	2.0
114.456	5.0
114.471	3.0
114.486	4.0
114.501	3.0
114.516	3.0
114.531	4.0
114.546	3.0
114.561	3.0
114.576	3.0
114.591	1.0
114.606	9.0
114.621	5.0
114.636	1.0
114.65	5.0
114.665	2.0
114.68	3.0
114.695	5.0
114.71	4.0
114.725	6.0
114.74	5.0
114.755	4.0
114.77	3.0
114.785	4.0
114.8	3.0
114.815	5.0
114.83	4.0
114.845	4.0
114.86	3.0
114.875	2.0
114.89	7.0
114.905	5.0
114.92	3.0
114.935	1.0
114.95	6.0
114.965	5.0
114.98	3.0
114.995	1.0
115.009	8.0
115.024	1.0
115.039	8.0
115.054	3.0
115.069	4.0
115.084	2.0
115.099	4.0
115.114	4.0
115.129	2.0
115.144	3.0
115.159	4.0
115.174	2.0
115.189	1.0
115.204	7.0
115.219	6.0
115.234	5.0
115.249	5.0
115.264	7.0
115.279	7.0
115.294	4.0
115.309	3.0
115.323	2.0
115.338	7.0
115.353	7.0
115.368	1.0
115.383	3.0
115.398	8.0
115.413	3.0
115.428	6.0
115.443	2.0
115.458	5.0
115.473	1.0
115.488	1.0
115.503	1.0
115.518	3.0
115.533	10.0
115.548	5.0
115.562	3.0
115.577	6.0
115.592	4.0
115.607	7.0
115.622	5.0
115.637	6.0
115.652	3.0
115.667	0.0
115.682	8.0
115.697	1.0
115.712	4.0
115.727	2.0
115.741	4.0
115.756	6.0
115.771	6.0
115.786	1.0
115.801	5.0
115.816	4.0
115.831	2.0
115.846	5.0
115.861	4.0
115.875	5.0
115.89	4.0
115.905	3.0
115.92	6.0
115.935	1.0
115.95	3.0
115.965	4.0
115.98	5.0
115.995	2.0
116.009	1.0
116.024	6.0
116.039	6.0
116.054	1.0
116.069	6.0
116.084	4.0
116.099	2.0
116.113	6.0
116.128	1.0
116.143	2.0
116.158	3.0
116.173	1.0
116.188	8.0
116.202	2.0
116.217	2.0
116.232	5.0
116.247	4.0
116.262	1.0
116.277	6.0
116.291	2.0
116.306	6.0
116.321	6.0
116.336	2.0
116.351	4.0
116.366	5.0
116.38	4.0
116.395	2.0
116.41	5.0
116.425	7.0
116.44	6.0
116.454	5.0
116.469	6.0
116.484	2.0
116.499	8.0
116.514	5.0
116.528	6.0
116.543	8.0
116.558	3.0
116.573	3.0
116.588	3.0
116.602	3.0
116.617	7.0
116.632	1.0
116.647	3.0
116.662	2.0
116.676	1.0
116.691	2.0
116.706	6.0
116.721	0.0
116.735	2.0
116.75	4.0
116.765	5.0
116.78	4.0
116.795	1.0
116.809	4.0
116.824	3.0
116.839	5.0
116.854	4.0
116.868	2.0
116.883	2.0
116.898	2.0
116.913	1.0
116.927	8.0
116.942	4.0
116.957	3.0
116.972	4.0
116.986	2.0
117.001	4.0
117.016	5.0
117.031	3.0
117.045	4.0
117.06	2.0
117.075	2.0
117.09	5.0
117.104	5.0
117.119	4.0
117.134	1.0
117.149	6.0
117.163	9.0
117.178	3.0
117.193	5.0
117.208	1.0
117.222	3.0
117.237	6.0
117.252	4.0
117.267	5.0
117.281	5.0
117.296	2.0
117.311	2.0
117.325	6.0
117.34	4.0
117.355	3.0
117.37	3.0
117.384	3.0
117.399	0.0
117.414	4.0
117.429	4.0
117.443	4.0
117.458	4.0
117.473	1.0
117.487	2.0
117.502	2.0
117.517	4.0
117.532	8.0
117.546	2.0
117.561	6.0
117.576	1.0
117.59	6.0
117.605	2.0
117.62	4.0
117.635	3.0
117.649	4.0
117.664	4.0
117.679	4.0
117.693	0.0
117.708	4.0
117.723	5.0
117.738	4.0
117.752	1.0
117.767	5.0
117.782	2.0
117.796	2.0
117.811	5.0
117.826	4.0
117.841	5.0
117.855	6.0
117.87	1.0
117.885	4.0
117.899	1.0
117.914	3.0
117.929	0.0
117.944	4.0
117.958	7.0
117.973	3.0
117.988	2.0
118.002	3.0
118.017	7.0
118.032	5.0
118.047	8.0
118.062	3.0
118.077	6.0
118.092	4.0
118.107	0.0
118.121	1.0
118.136	3.0
118.151	2.0
118.166	4.0
118.181	3.0
118.196	2.0
118.211	5.0
118.225	6.0
118.24	2.0
118.255	4.0
118.27	8.0
118.285	0.0
118.3	0.0
118.315	4.0
118.33	1.0
118.344	4.0
118.359	6.0
118.374	4.0
118.389	7.0
118.404	3.0
118.419	4.0
118.434	4.0
118.449	1.0
118.463	3.0
118.478	4.0
118.493	5.0
118.508	3.0
118.523	5.0
118.538	7.0
118.553	5.0
118.567	6.0
118.582	4.0
118.597	6.0
118.612	5.0
118.627	2.0
118.642	4.0
118.657	5.0
118.672	5.0
118.686	2.0
118.701	5.0
118.716	6.0
118.731	2.0
118.746	4.0
118.761	4.0
118.776	4.0
118.791	2.0
118.805	6.0
118.82	6.0
118.835	2.0
118.85	5.0
118.865	6.0
118.88	4.0
118.895	5.0
118.909	3.0
118.924	1.0
118.939	3.0
118.954	3.0
118.969	3.0
118.984	2.0
118.999	1.0
119.014	5.0
119.028	8.0
119.043	7.0
119.058	4.0
119.073	6.0
119.088	2.0
119.103	4.0
119.118	3.0
119.133	3.0
119.147	1.0
119.162	4.0
119.177	3.0
119.192	2.0
119.207	9.0
119.222	5.0
119.237	8.0
119.251	9.0
119.266	3.0
119.281	7.0
119.296	4.0
119.311	1.0
119.326	2.0
119.341	5.0
119.356	4.0
119.37	2.0
119.385	5.0
119.4	5.0
119.415	4.0
119.43	1.0
119.445	2.0
119.46	5.0
119.475	4.0
119.489	2.0
119.504	4.0
119.519	4.0
119.534	6.0
119.549	2.0
119.564	1.0
119.579	5.0
119.593	5.0
119.608	4.0
119.623	4.0
119.638	1.0
119.653	0.0
119.668	4.0
119.683	4.0
119.698	0.0
119.712	2.0
119.727	2.0
119.742	4.0
119.757	3.0
119.772	7.0
119.787	2.0
119.802	1.0
119.817	6.0
119.831	4.0
119.846	3.0
119.861	2.0
119.876	5.0
119.891	1.0
119.906	6.0
119.921	2.0
119.935	1.0
119.95	1.0
119.965	6.0
119.98	0.0
119.995	0.0
120.01	4.0
120.025	0.0
120.04	3.0
120.054	3.0
120.069	6.0
120.084	2.0
120.099	1.0
120.114	1.0
120.129	2.0
120.144	0.0
120.159	2.0
120.173	1.0
120.188	2.0
120.203	0.0
120.218	2.0
120.233	1.0
120.248	1.0
120.263	1.0
120.277	0.0
120.292	0.0
120.307	0.0
120.322	0.0
120.337	1.0
120.352	0.0
120.367	0.0
120.382	0.0
120.396	1.0
120.411	1.0
120.426	0.0
120.441	0.0
120.456	0.0
120.471	0.0
120.486	0.0
120.501	0.0
120.515	0.0
120.53	0.0
120.545	0.0
120.56	0.0
120.575	0.0
120.59	0.0
120.605	0.0
120.619	0.0
120.634	0.0
120.649	0.0
120.664	0.0
120.679	0.0
120.694	0.0
120.709	1.0
120.724	0.0
120.738	0.0
120.753	0.0
120.768	0.0
120.783	0.0
120.798	0.0
120.813	0.0
120.828	0.0
120.843	0.0
120.857	0.0
120.872	0.0
120.887	0.0
120.902	0.0
120.917	0.0
120.932	0.0
120.947	0.0
120.961	0.0
120.976	0.0
